##NAMES=Chalcanthite
##RRUFFID=R050354
##IDEAL CHEMISTRY=Cu^2+^S^6+^O_4_&#183;5H_2_O
##LOCALITY=Utah, USA
##OWNER=RRUFF
##SOURCE=California Institute of Technology
##DESCRIPTION=Group of blue parallel prismatic crystals
##STATUS=The identification of this mineral has been confirmed by X-ray diffraction.
##URL=rruff.info/R050354
##MEASURED CHEMISTRY=Cu_1.00_S_1.00_O_4_Â·5H_2_O
3.991926e+002, 1.470837e-001
4.011211e+002, 1.469635e-001
4.030496e+002, 1.476700e-001
4.049780e+002, 1.442573e-001
4.069065e+002, 1.515214e-001
4.088350e+002, 1.599704e-001
4.107634e+002, 1.617101e-001
4.126919e+002, 1.621099e-001
4.146204e+002, 1.662109e-001
4.165488e+002, 1.712408e-001
4.184773e+002, 1.718215e-001
4.204058e+002, 1.749067e-001
4.223342e+002, 1.780431e-001
4.242627e+002, 1.799664e-001
4.261912e+002, 1.820951e-001
4.281196e+002, 1.840619e-001
4.300481e+002, 1.884091e-001
4.319766e+002, 1.920988e-001
4.339050e+002, 1.935959e-001
4.358335e+002, 1.969279e-001
4.377620e+002, 1.998947e-001
4.396904e+002, 2.002488e-001
4.416189e+002, 1.984517e-001
4.435474e+002, 1.943021e-001
4.454758e+002, 1.882705e-001
4.474043e+002, 1.848369e-001
4.493328e+002, 1.805764e-001
4.512612e+002, 1.757383e-001
4.531897e+002, 1.725362e-001
4.551182e+002, 1.686104e-001
4.570466e+002, 1.654014e-001
4.589751e+002, 1.644910e-001
4.609036e+002, 1.636820e-001
4.628320e+002, 1.640819e-001
4.647605e+002, 1.662282e-001
4.666890e+002, 1.671896e-001
4.686174e+002, 1.667011e-001
4.705459e+002, 1.662955e-001
4.724744e+002, 1.654725e-001
4.744028e+002, 1.650774e-001
4.763313e+002, 1.643196e-001
4.782598e+002, 1.631486e-001
4.801882e+002, 1.619768e-001
4.821167e+002, 1.607602e-001
4.840452e+002, 1.594650e-001
4.859736e+002, 1.594282e-001
4.879021e+002, 1.596333e-001
4.898306e+002, 1.596687e-001
4.917590e+002, 1.604283e-001
4.936875e+002, 1.617939e-001
4.956160e+002, 1.629123e-001
4.975444e+002, 1.644474e-001
4.994729e+002, 1.659282e-001
5.014014e+002, 1.665312e-001
5.033298e+002, 1.665372e-001
5.052583e+002, 1.675946e-001
5.071868e+002, 1.694315e-001
5.091152e+002, 1.712621e-001
5.110437e+002, 1.728678e-001
5.129722e+002, 1.749859e-001
5.149006e+002, 1.773420e-001
5.168291e+002, 1.790335e-001
5.187576e+002, 1.808363e-001
5.206860e+002, 1.830174e-001
5.226145e+002, 1.839937e-001
5.245430e+002, 1.852643e-001
5.264714e+002, 1.864623e-001
5.283999e+002, 1.875221e-001
5.303284e+002, 1.883557e-001
5.322568e+002, 1.895232e-001
5.341853e+002, 1.911824e-001
5.361138e+002, 1.930727e-001
5.380422e+002, 1.937896e-001
5.399707e+002, 1.935152e-001
5.418992e+002, 1.940802e-001
5.438276e+002, 1.953436e-001
5.457561e+002, 1.960744e-001
5.476846e+002, 1.967177e-001
5.496130e+002, 1.965633e-001
5.515415e+002, 1.969886e-001
5.534700e+002, 1.982445e-001
5.553984e+002, 1.995540e-001
5.573269e+002, 1.993264e-001
5.592554e+002, 1.995780e-001
5.611838e+002, 2.012866e-001
5.631123e+002, 2.023697e-001
5.650408e+002, 2.029613e-001
5.669692e+002, 2.040870e-001
5.688977e+002, 2.055090e-001
5.708262e+002, 2.053409e-001
5.727546e+002, 2.052455e-001
5.746831e+002, 2.068244e-001
5.766116e+002, 2.083604e-001
5.785400e+002, 2.096924e-001
5.804685e+002, 2.107006e-001
5.823970e+002, 2.111834e-001
5.843254e+002, 2.120808e-001
5.862539e+002, 2.133228e-001
5.881824e+002, 2.164226e-001
5.901108e+002, 2.199231e-001
5.920393e+002, 2.228665e-001
5.939678e+002, 2.263437e-001
5.958962e+002, 2.307114e-001
5.978247e+002, 2.357356e-001
5.997532e+002, 2.406266e-001
6.016816e+002, 2.453220e-001
6.036101e+002, 2.489849e-001
6.055386e+002, 2.527839e-001
6.074670e+002, 2.552412e-001
6.093955e+002, 2.559831e-001
6.113240e+002, 2.548660e-001
6.132524e+002, 2.526680e-001
6.151809e+002, 2.490874e-001
6.171094e+002, 2.436086e-001
6.190378e+002, 2.381007e-001
6.209663e+002, 2.315752e-001
6.228948e+002, 2.219434e-001
6.248232e+002, 2.111300e-001
6.267517e+002, 2.003007e-001
6.286802e+002, 1.895110e-001
6.306086e+002, 1.798711e-001
6.325371e+002, 1.719357e-001
6.344656e+002, 1.655699e-001
6.363940e+002, 1.607235e-001
6.383225e+002, 1.568011e-001
6.402510e+002, 1.529577e-001
6.421794e+002, 1.494175e-001
6.441079e+002, 1.465568e-001
6.460364e+002, 1.440323e-001
6.479648e+002, 1.420544e-001
6.498933e+002, 1.400569e-001
6.518218e+002, 1.382222e-001
6.537502e+002, 1.365965e-001
6.556787e+002, 1.346073e-001
6.576072e+002, 1.331322e-001
6.595356e+002, 1.320791e-001
6.614641e+002, 1.309622e-001
6.633926e+002, 1.299429e-001
6.653210e+002, 1.291683e-001
6.672495e+002, 1.285288e-001
6.691780e+002, 1.271789e-001
6.711064e+002, 1.260785e-001
6.730349e+002, 1.251110e-001
6.749634e+002, 1.237712e-001
6.768918e+002, 1.227505e-001
6.788203e+002, 1.223065e-001
6.807488e+002, 1.216033e-001
6.826772e+002, 1.200292e-001
6.846057e+002, 1.181941e-001
6.865342e+002, 1.169808e-001
6.884626e+002, 1.154946e-001
6.903911e+002, 1.143271e-001
6.923196e+002, 1.128223e-001
6.942480e+002, 1.111156e-001
6.961765e+002, 1.099657e-001
6.981050e+002, 1.081496e-001
7.000334e+002, 1.060301e-001
7.019619e+002, 1.042456e-001
7.038904e+002, 1.020212e-001
7.058188e+002, 1.000150e-001
7.077473e+002, 9.825662e-002
7.096758e+002, 9.654776e-002
7.116042e+002, 9.483459e-002
7.135327e+002, 9.298909e-002
7.154612e+002, 9.124252e-002
7.173896e+002, 8.977424e-002
7.193181e+002, 8.840477e-002
7.212466e+002, 8.690976e-002
7.231750e+002, 8.518037e-002
7.251035e+002, 8.337174e-002
7.270320e+002, 8.201340e-002
7.289604e+002, 8.113263e-002
7.308889e+002, 8.002874e-002
7.328174e+002, 7.899490e-002
7.347458e+002, 7.804366e-002
7.366743e+002, 7.679730e-002
7.386028e+002, 7.564157e-002
7.405313e+002, 7.532324e-002
7.424597e+002, 7.478969e-002
7.443882e+002, 7.404356e-002
7.463167e+002, 7.359525e-002
7.482451e+002, 7.304073e-002
7.501736e+002, 7.250403e-002
7.521021e+002, 7.211451e-002
7.540305e+002, 7.190952e-002
7.559590e+002, 7.169021e-002
7.578875e+002, 7.135013e-002
7.598159e+002, 7.104976e-002
7.617444e+002, 7.111402e-002
7.636729e+002, 7.127925e-002
7.656013e+002, 7.117722e-002
7.675298e+002, 7.103714e-002
7.694583e+002, 7.117239e-002
7.713867e+002, 7.106546e-002
7.733152e+002, 7.116285e-002
7.752437e+002, 7.158376e-002
7.771721e+002, 7.178537e-002
7.791006e+002, 7.185379e-002
7.810291e+002, 7.175058e-002
7.829575e+002, 7.170123e-002
7.848860e+002, 7.194417e-002
7.868145e+002, 7.212998e-002
7.887429e+002, 7.218779e-002
7.906714e+002, 7.235560e-002
7.925999e+002, 7.283253e-002
7.945283e+002, 7.358983e-002
7.964568e+002, 7.395742e-002
7.983853e+002, 7.407536e-002
8.003137e+002, 7.429131e-002
8.022422e+002, 7.454064e-002
8.041707e+002, 7.500233e-002
8.060991e+002, 7.571805e-002
8.080276e+002, 7.590028e-002
8.099561e+002, 7.577853e-002
8.118845e+002, 7.606617e-002
8.138130e+002, 7.640985e-002
8.157415e+002, 7.658458e-002
8.176699e+002, 7.653280e-002
8.195984e+002, 7.683521e-002
8.215269e+002, 7.721854e-002
8.234553e+002, 7.755426e-002
8.253838e+002, 7.827757e-002
8.273123e+002, 7.917388e-002
8.292407e+002, 8.046219e-002
8.311692e+002, 8.186956e-002
8.330977e+002, 8.289956e-002
8.350261e+002, 8.403974e-002
8.369546e+002, 8.579940e-002
8.388831e+002, 8.731612e-002
8.408115e+002, 8.909179e-002
8.427400e+002, 9.098174e-002
8.446685e+002, 9.272023e-002
8.465969e+002, 9.455012e-002
8.485254e+002, 9.619007e-002
8.504539e+002, 9.766043e-002
8.523823e+002, 9.916591e-002
8.543108e+002, 1.005662e-001
8.562393e+002, 1.017369e-001
8.581677e+002, 1.028876e-001
8.600962e+002, 1.039308e-001
8.620247e+002, 1.045921e-001
8.639531e+002, 1.048177e-001
8.658816e+002, 1.052198e-001
8.678101e+002, 1.057414e-001
8.697385e+002, 1.058066e-001
8.716670e+002, 1.054884e-001
8.735955e+002, 1.051648e-001
8.755239e+002, 1.046602e-001
8.774524e+002, 1.037881e-001
8.793809e+002, 1.028087e-001
8.813093e+002, 1.012541e-001
8.832378e+002, 9.944370e-002
8.851663e+002, 9.760951e-002
8.870947e+002, 9.578148e-002
8.890232e+002, 9.340139e-002
8.909517e+002, 9.085524e-002
8.928801e+002, 8.902702e-002
8.948085e+002, 8.727279e-002
8.967370e+002, 8.518372e-002
8.986655e+002, 8.315203e-002
9.005939e+002, 8.140139e-002
9.025224e+002, 7.968398e-002
9.044509e+002, 7.811611e-002
9.063793e+002, 7.672541e-002
9.083078e+002, 7.515734e-002
9.102363e+002, 7.372499e-002
9.121647e+002, 7.259505e-002
9.140932e+002, 7.143646e-002
9.160217e+002, 7.043743e-002
9.179501e+002, 6.925945e-002
9.198786e+002, 6.839632e-002
9.218071e+002, 6.767529e-002
9.237355e+002, 6.707820e-002
9.256640e+002, 6.663316e-002
9.275925e+002, 6.630201e-002
9.295209e+002, 6.587734e-002
9.314494e+002, 6.558874e-002
9.333779e+002, 6.536942e-002
9.353063e+002, 6.529459e-002
9.372348e+002, 6.552182e-002
9.391633e+002, 6.548589e-002
9.410917e+002, 6.557159e-002
9.430202e+002, 6.605039e-002
9.449487e+002, 6.620787e-002
9.468771e+002, 6.645025e-002
9.488056e+002, 6.689250e-002
9.507341e+002, 6.767681e-002
9.526625e+002, 6.833784e-002
9.545910e+002, 6.880201e-002
9.565195e+002, 6.994329e-002
9.584479e+002, 7.140074e-002
9.603764e+002, 7.267997e-002
9.623049e+002, 7.374196e-002
9.642333e+002, 7.492651e-002
9.661618e+002, 7.635371e-002
9.680903e+002, 7.805467e-002
9.700187e+002, 8.017845e-002
9.719472e+002, 8.232095e-002
9.738757e+002, 8.487432e-002
9.758041e+002, 8.802355e-002
9.777326e+002, 9.186083e-002
9.796611e+002, 9.719230e-002
9.815895e+002, 1.006937e-001
9.835180e+002, 9.682619e-002
9.854465e+002, 9.088099e-002
9.873749e+002, 9.011483e-002
9.893034e+002, 9.296955e-002
9.912319e+002, 9.661612e-002
9.931603e+002, 1.004473e-001
9.950888e+002, 1.044937e-001
9.970173e+002, 1.084008e-001
9.989457e+002, 1.124206e-001
1.000874e+003, 1.166765e-001
1.002803e+003, 1.211217e-001
1.004731e+003, 1.259038e-001
1.006660e+003, 1.307739e-001
1.008588e+003, 1.356093e-001
1.010517e+003, 1.407673e-001
1.012445e+003, 1.462006e-001
1.014373e+003, 1.518435e-001
1.016302e+003, 1.582742e-001
1.018230e+003, 1.651287e-001
1.020159e+003, 1.721455e-001
1.022087e+003, 1.794864e-001
1.024016e+003, 1.874585e-001
1.025944e+003, 1.957449e-001
1.027873e+003, 2.046734e-001
1.029801e+003, 2.142521e-001
1.031730e+003, 2.238787e-001
1.033658e+003, 2.341251e-001
1.035587e+003, 2.446267e-001
1.037515e+003, 2.549096e-001
1.039444e+003, 2.655272e-001
1.041372e+003, 2.769441e-001
1.043301e+003, 2.884624e-001
1.045229e+003, 2.998148e-001
1.047157e+003, 3.112013e-001
1.049086e+003, 3.229749e-001
1.051014e+003, 3.346218e-001
1.052943e+003, 3.456536e-001
1.054871e+003, 3.561763e-001
1.056800e+003, 3.660084e-001
1.058728e+003, 3.752490e-001
1.060657e+003, 3.840807e-001
1.062585e+003, 3.914221e-001
1.064514e+003, 3.972936e-001
1.066442e+003, 4.016134e-001
1.068371e+003, 4.042430e-001
1.070299e+003, 4.055219e-001
1.072228e+003, 4.056201e-001
1.074156e+003, 4.051863e-001
1.076084e+003, 4.035977e-001
1.078013e+003, 4.009719e-001
1.079941e+003, 3.977780e-001
1.081870e+003, 3.938333e-001
1.083798e+003, 3.897475e-001
1.085727e+003, 3.856393e-001
1.087655e+003, 3.814622e-001
1.089584e+003, 3.772343e-001
1.091512e+003, 3.727638e-001
1.093441e+003, 3.680363e-001
1.095369e+003, 3.618717e-001
1.097298e+003, 3.547373e-001
1.099226e+003, 3.458898e-001
1.101155e+003, 3.347334e-001
1.103083e+003, 3.220997e-001
1.105011e+003, 3.077454e-001
1.106940e+003, 2.915234e-001
1.108868e+003, 2.748240e-001
1.110797e+003, 2.582901e-001
1.112725e+003, 2.418334e-001
1.114654e+003, 2.259624e-001
1.116582e+003, 2.105815e-001
1.118511e+003, 1.953848e-001
1.120439e+003, 1.808122e-001
1.122368e+003, 1.672556e-001
1.124296e+003, 1.546661e-001
1.126225e+003, 1.430841e-001
1.128153e+003, 1.320921e-001
1.130082e+003, 1.215731e-001
1.132010e+003, 1.116736e-001
1.133938e+003, 1.028049e-001
1.135867e+003, 9.442458e-002
1.137795e+003, 8.673398e-002
1.139724e+003, 7.983176e-002
1.141652e+003, 7.313459e-002
1.143581e+003, 6.715691e-002
1.145509e+003, 6.139378e-002
1.147438e+003, 5.592856e-002
1.149366e+003, 5.115971e-002
1.151295e+003, 4.715513e-002
1.153223e+003, 4.378078e-002
1.155152e+003, 4.087198e-002
1.157080e+003, 3.811986e-002
1.159009e+003, 3.560153e-002
1.160937e+003, 3.339564e-002
1.162865e+003, 3.140616e-002
1.164794e+003, 2.992895e-002
1.166722e+003, 2.879514e-002
1.168651e+003, 2.769106e-002
1.170579e+003, 2.666654e-002
1.172508e+003, 2.565792e-002
1.174436e+003, 2.489233e-002
1.176365e+003, 2.436823e-002
1.178293e+003, 2.364558e-002
1.180222e+003, 2.279437e-002
1.182150e+003, 2.222414e-002
1.184079e+003, 2.202279e-002
1.186007e+003, 2.146393e-002
1.187936e+003, 2.082846e-002
1.189864e+003, 2.027437e-002
1.191792e+003, 1.990244e-002
1.193721e+003, 1.959697e-002
1.195649e+003, 1.933125e-002
1.197578e+003, 1.908656e-002
1.199506e+003, 1.882646e-002
1.201435e+003, 1.850540e-002
1.203363e+003, 1.822218e-002
1.205292e+003, 1.817923e-002
1.207220e+003, 1.814723e-002
1.209149e+003, 1.810663e-002
1.211077e+003, 1.780117e-002
1.213006e+003, 1.749261e-002
1.214934e+003, 1.723606e-002
1.216863e+003, 1.714367e-002
1.218791e+003, 1.684114e-002
1.220719e+003, 1.662971e-002
1.222648e+003, 1.674122e-002
1.224576e+003, 1.642336e-002
1.226505e+003, 1.590731e-002
1.228433e+003, 1.592674e-002
1.230362e+003, 1.591197e-002
1.232290e+003, 1.563253e-002
1.234219e+003, 1.547723e-002
1.236147e+003, 1.555230e-002
1.238076e+003, 1.541261e-002
1.240004e+003, 1.509459e-002
1.241933e+003, 1.491586e-002
1.243861e+003, 1.497609e-002
1.245790e+003, 1.506085e-002
1.247718e+003, 1.502661e-002
1.249646e+003, 1.476584e-002
1.251575e+003, 1.447879e-002
1.253503e+003, 1.453006e-002
1.255432e+003, 1.441623e-002
1.257360e+003, 1.430292e-002
1.259289e+003, 1.436825e-002
1.261217e+003, 1.445735e-002
1.263146e+003, 1.454095e-002
1.265074e+003, 1.461743e-002
1.267003e+003, 1.451850e-002
1.268931e+003, 1.443225e-002
1.270860e+003, 1.449274e-002
1.272788e+003, 1.441971e-002
1.274717e+003, 1.447936e-002
1.276645e+003, 1.463854e-002
1.278573e+003, 1.459650e-002
1.280502e+003, 1.444697e-002
1.282430e+003, 1.444605e-002
1.284359e+003, 1.454438e-002
1.286287e+003, 1.459544e-002
1.288216e+003, 1.457202e-002
1.290144e+003, 1.456900e-002
1.292073e+003, 1.460897e-002
1.294001e+003, 1.454255e-002
1.295930e+003, 1.445297e-002
1.297858e+003, 1.477317e-002
1.299787e+003, 1.487957e-002
1.301715e+003, 1.490639e-002
1.303644e+003, 1.509627e-002
1.305572e+003, 1.508328e-002
1.307500e+003, 1.511081e-002
1.309429e+003, 1.537113e-002
1.311357e+003, 1.517230e-002
1.313286e+003, 1.503438e-002
1.315214e+003, 1.511073e-002
1.317143e+003, 1.512182e-002
1.319071e+003, 1.528888e-002
1.321000e+003, 1.565222e-002
1.322928e+003, 1.583420e-002
1.324857e+003, 1.578184e-002
1.326785e+003, 1.577494e-002
1.328714e+003, 1.548191e-002
1.330642e+003, 1.554002e-002
1.332571e+003, 1.573678e-002
1.334499e+003, 1.549236e-002
1.336427e+003, 1.539146e-002
1.338356e+003, 1.552479e-002
1.340284e+003, 1.578649e-002
1.342213e+003, 1.569296e-002
1.344141e+003, 1.561985e-002
1.346070e+003, 1.551671e-002
1.347998e+003, 1.566834e-002
1.349927e+003, 1.577925e-002
1.351855e+003, 1.576866e-002
1.353784e+003, 1.545401e-002
1.355712e+003, 1.537909e-002
1.357641e+003, 1.585408e-002
1.359569e+003, 1.587271e-002
1.361498e+003, 1.559945e-002
1.363426e+003, 1.564711e-002
1.365354e+003, 1.565414e-002
1.367283e+003, 1.570514e-002
1.369211e+003, 1.580355e-002
1.371140e+003, 1.562126e-002
1.373068e+003, 1.529945e-002
1.374997e+003, 1.560497e-002
1.376925e+003, 1.559899e-002
1.378854e+003, 1.533879e-002
1.380782e+003, 1.541136e-002
1.382711e+003, 1.577214e-002
1.384639e+003, 1.603868e-002
1.386568e+003, 1.633277e-002
1.388496e+003, 1.651495e-002
1.390424e+003, 1.660986e-002
1.392353e+003, 1.645822e-002
1.394281e+003, 1.633895e-002
1.396210e+003, 1.637742e-002
1.398138e+003, 1.646520e-002
1.400067e+003, 1.680034e-002
1.401995e+003, 1.697670e-002
1.403924e+003, 1.693085e-002
1.405852e+003, 1.689625e-002
1.407781e+003, 1.667261e-002
1.409709e+003, 1.670241e-002
1.411638e+003, 1.695304e-002
1.413566e+003, 1.719551e-002
1.415495e+003, 1.713790e-002
1.417423e+003, 1.703700e-002
1.419351e+003, 1.706903e-002
1.421280e+003, 1.705475e-002
1.423208e+003, 1.704997e-002
1.425137e+003, 1.715773e-002
1.427065e+003, 1.744503e-002
1.428994e+003, 1.770718e-002
1.430922e+003, 1.738792e-002
1.432851e+003, 1.711985e-002
1.434779e+003, 1.711402e-002
1.436708e+003, 1.709274e-002
1.438636e+003, 1.723278e-002
1.440565e+003, 1.713607e-002
1.442493e+003, 1.689204e-002
1.444422e+003, 1.701828e-002
1.446350e+003, 1.712191e-002
1.448278e+003, 1.698838e-002
1.450207e+003, 1.672143e-002
1.452135e+003, 1.684971e-002
1.454064e+003, 1.692855e-002
1.455992e+003, 1.696171e-002
1.457921e+003, 1.691615e-002
1.459849e+003, 1.681593e-002
1.461778e+003, 1.658737e-002
1.463706e+003, 1.675966e-002
1.465635e+003, 1.708830e-002
1.467563e+003, 1.713941e-002
1.469492e+003, 1.765509e-002
1.471420e+003, 1.846576e-002
1.473349e+003, 1.930371e-002
1.475277e+003, 1.961817e-002
1.477205e+003, 1.968151e-002
1.479134e+003, 2.004306e-002
1.481062e+003, 2.034558e-002
1.482991e+003, 2.055554e-002
1.484919e+003, 2.088936e-002
1.486848e+003, 2.117006e-002
1.488776e+003, 2.115776e-002
1.490705e+003, 2.135718e-002
1.492633e+003, 2.140648e-002
1.494562e+003, 2.147555e-002
1.496490e+003, 2.174235e-002
1.498419e+003, 2.207826e-002
1.500347e+003, 2.252636e-002
1.502276e+003, 2.287167e-002
1.504204e+003, 2.312684e-002
1.506132e+003, 2.351872e-002
1.508061e+003, 2.364897e-002
1.509989e+003, 2.345132e-002
1.511918e+003, 2.345116e-002
1.513846e+003, 2.357377e-002
1.515775e+003, 2.374416e-002
1.517703e+003, 2.376201e-002
1.519632e+003, 2.398506e-002
1.521560e+003, 2.439119e-002
1.523489e+003, 2.457067e-002
1.525417e+003, 2.496376e-002
1.527346e+003, 2.525066e-002
1.529274e+003, 2.519754e-002
1.531203e+003, 2.515164e-002
1.533131e+003, 2.563491e-002
1.535059e+003, 2.597132e-002
1.536988e+003, 2.615816e-002
1.538916e+003, 2.648700e-002
1.540845e+003, 2.674386e-002
1.542773e+003, 2.681068e-002
1.544702e+003, 2.716518e-002
1.546630e+003, 2.752870e-002
1.548559e+003, 2.775138e-002
1.550487e+003, 2.798834e-002
1.552416e+003, 2.836266e-002
1.554344e+003, 2.863020e-002
1.556273e+003, 2.896733e-002
1.558201e+003, 2.925494e-002
1.560130e+003, 2.914100e-002
1.562058e+003, 2.923024e-002
1.563986e+003, 2.978597e-002
1.565915e+003, 2.996144e-002
1.567843e+003, 2.982100e-002
1.569772e+003, 2.980329e-002
1.571700e+003, 2.999344e-002
1.573629e+003, 3.040884e-002
1.575557e+003, 3.064033e-002
1.577486e+003, 3.057672e-002
1.579414e+003, 3.054876e-002
1.581343e+003, 3.087784e-002
1.583271e+003, 3.117093e-002
1.585200e+003, 3.142810e-002
1.587128e+003, 3.168380e-002
1.589057e+003, 3.198972e-002
1.590985e+003, 3.232645e-002
1.592913e+003, 3.261461e-002
1.594842e+003, 3.262851e-002
1.596770e+003, 3.294038e-002
1.598699e+003, 3.333021e-002
1.600627e+003, 3.383981e-002
1.602556e+003, 3.459000e-002
1.604484e+003, 3.512638e-002
1.606413e+003, 3.547454e-002
1.608341e+003, 3.609287e-002
1.610270e+003, 3.636013e-002
1.612198e+003, 3.661730e-002
1.614127e+003, 3.752611e-002
1.616055e+003, 3.849354e-002
1.617984e+003, 3.922093e-002
1.619912e+003, 4.009918e-002
1.621840e+003, 4.125133e-002
1.623769e+003, 4.205164e-002
1.625697e+003, 4.262184e-002
1.627626e+003, 4.308189e-002
1.629554e+003, 4.423400e-002
1.631483e+003, 4.544146e-002
1.633411e+003, 4.663122e-002
1.635340e+003, 4.791765e-002
1.637268e+003, 4.839760e-002
1.639197e+003, 4.868324e-002
1.641125e+003, 4.950893e-002
1.643054e+003, 5.023216e-002
1.644982e+003, 5.074419e-002
1.646911e+003, 5.100706e-002
1.648839e+003, 5.134383e-002
1.650767e+003, 5.167236e-002
1.652696e+003, 5.179734e-002
1.654624e+003, 5.170335e-002
1.656553e+003, 5.186182e-002
1.658481e+003, 5.229083e-002
1.660410e+003, 5.291202e-002
1.662338e+003, 5.402208e-002
1.664267e+003, 5.512990e-002
1.666195e+003, 5.646282e-002
1.668124e+003, 5.769666e-002
1.670052e+003, 5.781004e-002
1.671981e+003, 5.753490e-002
1.673909e+003, 5.675260e-002
1.675838e+003, 5.479123e-002
1.677766e+003, 5.176213e-002
1.679694e+003, 4.846452e-002
1.681623e+003, 4.554616e-002
1.683551e+003, 4.285454e-002
1.685480e+003, 3.992512e-002
1.687408e+003, 3.734535e-002
1.689337e+003, 3.510429e-002
1.691265e+003, 3.356727e-002
1.693194e+003, 3.241695e-002
1.695122e+003, 3.099914e-002
1.697051e+003, 2.990242e-002
1.698979e+003, 2.912519e-002
1.700908e+003, 2.807281e-002
1.702836e+003, 2.653638e-002
1.704765e+003, 2.555469e-002
1.706693e+003, 2.449534e-002
1.708621e+003, 2.333745e-002
1.710550e+003, 2.228587e-002
1.712478e+003, 2.164790e-002
1.714407e+003, 2.112560e-002
1.716335e+003, 2.095936e-002
1.718264e+003, 2.080762e-002
1.720192e+003, 2.023293e-002
1.722121e+003, 1.975663e-002
1.724049e+003, 1.902484e-002
1.725978e+003, 1.867794e-002
1.727906e+003, 1.841043e-002
1.729835e+003, 1.748592e-002
1.731763e+003, 1.713514e-002
1.733692e+003, 1.723351e-002
1.735620e+003, 1.629267e-002
1.737548e+003, 1.501451e-002
1.739477e+003, 1.458130e-002
1.741405e+003, 1.413008e-002
1.743334e+003, 1.367840e-002
1.745262e+003, 1.380765e-002
1.747191e+003, 1.425323e-002
1.749119e+003, 1.442069e-002
1.751048e+003, 1.458029e-002
1.752976e+003, 1.512970e-002
1.754905e+003, 1.605973e-002
1.756833e+003, 1.667700e-002
1.758762e+003, 1.659757e-002
1.760690e+003, 1.669370e-002
1.762619e+003, 1.663248e-002
1.764547e+003, 1.614995e-002
1.766475e+003, 1.605540e-002
1.768404e+003, 1.622773e-002
1.770332e+003, 1.655751e-002
1.772261e+003, 1.658947e-002
1.774189e+003, 1.627614e-002
1.776118e+003, 1.612387e-002
1.778046e+003, 1.560603e-002
1.779975e+003, 1.547469e-002
1.781903e+003, 1.586675e-002
1.783832e+003, 1.605142e-002
1.785760e+003, 1.524276e-002
1.787689e+003, 1.495126e-002
1.789617e+003, 1.513002e-002
1.791546e+003, 1.543473e-002
1.793474e+003, 1.560581e-002
1.795402e+003, 1.536184e-002
1.797331e+003, 1.504666e-002
1.799259e+003, 1.522011e-002
1.801188e+003, 1.518817e-002
1.803116e+003, 1.490752e-002
1.805045e+003, 1.469155e-002
1.806973e+003, 1.450998e-002
1.808902e+003, 1.485077e-002
1.810830e+003, 1.485138e-002
1.812759e+003, 1.459529e-002
1.814687e+003, 1.416613e-002
1.816616e+003, 1.363613e-002
1.818544e+003, 1.295331e-002
1.820473e+003, 1.322002e-002
1.822401e+003, 1.383851e-002
1.824329e+003, 1.370578e-002
1.826258e+003, 1.324259e-002
1.828186e+003, 1.291812e-002
1.830115e+003, 1.386709e-002
1.832043e+003, 1.509446e-002
1.833972e+003, 1.507307e-002
1.835900e+003, 1.432262e-002
1.837829e+003, 1.453490e-002
1.839757e+003, 1.464005e-002
1.841686e+003, 1.390962e-002
1.843614e+003, 1.320423e-002
1.845543e+003, 1.300931e-002
1.847471e+003, 1.269926e-002
1.849400e+003, 1.290852e-002
1.851328e+003, 1.319244e-002
1.853256e+003, 1.385338e-002
1.855185e+003, 1.399532e-002
1.857113e+003, 1.334533e-002
1.859042e+003, 1.357082e-002
1.860970e+003, 1.408539e-002
1.862899e+003, 1.338872e-002
1.864827e+003, 1.284681e-002
1.866756e+003, 1.257918e-002
1.868684e+003, 1.262890e-002
1.870613e+003, 1.254581e-002
1.872541e+003, 1.230258e-002
1.874470e+003, 1.249107e-002
1.876398e+003, 1.297857e-002
1.878327e+003, 1.334636e-002
1.880255e+003, 1.398523e-002
1.882183e+003, 1.431119e-002
1.884112e+003, 1.387313e-002
1.886040e+003, 1.379511e-002
1.887969e+003, 1.342467e-002
1.889897e+003, 1.332158e-002
1.891826e+003, 1.375666e-002
1.893754e+003, 1.340234e-002
1.895683e+003, 1.279490e-002
1.897611e+003, 1.248746e-002
1.899540e+003, 1.163871e-002
1.901468e+003, 1.176160e-002
1.903397e+003, 1.283198e-002
1.905325e+003, 1.354012e-002
1.907254e+003, 1.439365e-002
1.909182e+003, 1.455819e-002
1.911110e+003, 1.307064e-002
1.913039e+003, 1.316052e-002
1.914967e+003, 1.278600e-002
1.916896e+003, 1.186463e-002
1.918824e+003, 1.225598e-002
1.920753e+003, 1.169924e-002
1.922681e+003, 1.226459e-002
1.924610e+003, 1.345492e-002
1.926538e+003, 1.328841e-002
1.928467e+003, 1.218582e-002
1.930395e+003, 1.158941e-002
1.932324e+003, 1.204546e-002
1.934252e+003, 1.165727e-002
1.936181e+003, 1.092200e-002
1.938109e+003, 9.770718e-003
1.940037e+003, 9.909083e-003
1.941966e+003, 9.585200e-003
1.943894e+003, 1.094554e-002
1.945823e+003, 1.261420e-002
1.947751e+003, 1.187848e-002
1.949680e+003, 1.097282e-002
1.951608e+003, 1.098990e-002
1.953537e+003, 1.093125e-002
1.955465e+003, 1.181113e-002
1.957394e+003, 1.015072e-002
1.959322e+003, 7.232906e-003
1.961251e+003, 8.603933e-003
1.963179e+003, 1.052593e-002
1.965108e+003, 1.033267e-002
1.967036e+003, 1.117370e-002
1.968964e+003, 1.089876e-002
1.970893e+003, 7.529750e-003
1.972821e+003, 5.374016e-003
1.974750e+003, 6.631664e-003
1.976678e+003, 9.050068e-003
1.978607e+003, 1.080693e-002
1.980535e+003, 1.146084e-002
1.982464e+003, 1.234062e-002
1.984392e+003, 1.278182e-002
1.986321e+003, 1.162126e-002
1.988249e+003, 1.139873e-002
1.990178e+003, 1.144046e-002
1.992106e+003, 1.100373e-002
1.994035e+003, 1.156092e-002
1.995963e+003, 1.030796e-002
1.997891e+003, 1.156289e-002
1.999820e+003, 1.204853e-002
2.001748e+003, 9.530100e-003
2.003677e+003, 9.102226e-003
2.005605e+003, 8.533130e-003
2.007534e+003, 8.140675e-003
2.009462e+003, 8.349196e-003
2.011391e+003, 9.079353e-003
2.013319e+003, 1.159296e-002
2.015248e+003, 1.296240e-002
2.017176e+003, 1.330434e-002
2.019105e+003, 1.444459e-002
2.021033e+003, 1.129197e-002
2.022962e+003, 9.977115e-003
2.024890e+003, 1.136015e-002
2.026818e+003, 1.163217e-002
2.028747e+003, 1.136245e-002
2.030675e+003, 1.233295e-002
2.032604e+003, 1.192891e-002
2.034532e+003, 1.165984e-002
2.036461e+003, 1.195476e-002
2.038389e+003, 1.504112e-002
2.040318e+003, 1.571950e-002
2.042246e+003, 1.445310e-002
2.044175e+003, 1.276386e-002
2.046103e+003, 1.267549e-002
2.048032e+003, 1.395070e-002
2.049960e+003, 1.588617e-002
2.051889e+003, 1.562548e-002
2.053817e+003, 1.584727e-002
2.055746e+003, 1.648431e-002
2.057674e+003, 1.732925e-002
2.059603e+003, 1.668167e-002
2.061531e+003, 1.694006e-002
2.063459e+003, 1.700998e-002
2.065388e+003, 1.708712e-002
2.067316e+003, 1.711633e-002
2.069245e+003, 1.668628e-002
2.071173e+003, 1.750759e-002
2.073102e+003, 1.982597e-002
2.075030e+003, 1.896432e-002
2.076959e+003, 1.684819e-002
2.078887e+003, 1.761388e-002
2.080816e+003, 1.879275e-002
2.082744e+003, 1.832116e-002
2.084673e+003, 1.813803e-002
2.086601e+003, 1.859302e-002
2.088530e+003, 1.887287e-002
2.090458e+003, 1.777379e-002
2.092386e+003, 1.610147e-002
2.094315e+003, 1.559229e-002
2.096243e+003, 1.658253e-002
2.098172e+003, 1.545934e-002
2.100100e+003, 1.637490e-002
2.102029e+003, 1.737825e-002
2.103957e+003, 1.853494e-002
2.105886e+003, 1.804729e-002
2.107814e+003, 1.731654e-002
2.109743e+003, 1.729278e-002
2.111671e+003, 1.628298e-002
2.113600e+003, 1.529561e-002
2.115528e+003, 1.581112e-002
2.117457e+003, 1.534114e-002
2.119385e+003, 1.522046e-002
2.121313e+003, 1.548531e-002
2.123242e+003, 1.472453e-002
2.125170e+003, 1.284523e-002
2.127099e+003, 1.332090e-002
2.129027e+003, 1.410236e-002
2.130956e+003, 1.225265e-002
2.132884e+003, 9.510881e-003
2.134813e+003, 9.838698e-003
2.136741e+003, 1.139401e-002
2.138670e+003, 1.024702e-002
2.140598e+003, 7.679942e-003
2.142527e+003, 7.982172e-003
2.144455e+003, 9.434560e-003
2.146384e+003, 8.292550e-003
2.148312e+003, 7.691971e-003
2.150240e+003, 9.854429e-003
2.152169e+003, 6.820746e-003
2.154097e+003, -1.779897e-004
2.156026e+003, -2.191789e-003
2.157954e+003, -3.237040e-004
2.159883e+003, 3.130490e-003
2.161811e+003, 5.886307e-003
2.163740e+003, 6.004758e-003
2.165668e+003, 6.169507e-003
2.167597e+003, 8.366826e-003
2.169525e+003, 8.168970e-003
2.171454e+003, 6.084458e-003
2.173382e+003, 6.172201e-003
2.175311e+003, 5.630304e-003
2.177239e+003, 7.355871e-003
2.179167e+003, 6.911329e-003
2.181096e+003, 7.474443e-003
2.183024e+003, 9.461042e-003
2.184953e+003, 9.793314e-003
2.186881e+003, 8.656224e-003
2.188810e+003, 7.909806e-003
2.190738e+003, 6.667141e-003
2.192667e+003, 8.604343e-003
2.194595e+003, 1.060997e-002
2.196524e+003, 8.656860e-003
2.198452e+003, 7.719913e-003
2.200381e+003, 9.848762e-003
2.202309e+003, 1.185055e-002
2.204238e+003, 1.151345e-002
2.206166e+003, 1.060552e-002
2.208094e+003, 1.086295e-002
2.210023e+003, 1.122748e-002
2.211951e+003, 1.142000e-002
2.213880e+003, 1.122822e-002
2.215808e+003, 1.070147e-002
2.217737e+003, 8.130532e-003
2.219665e+003, 9.342652e-003
2.221594e+003, 1.184976e-002
2.223522e+003, 1.209703e-002
2.225451e+003, 1.351970e-002
2.227379e+003, 1.513293e-002
2.229308e+003, 1.459097e-002
2.231236e+003, 1.502900e-002
2.233165e+003, 1.552315e-002
2.235093e+003, 1.461244e-002
2.237021e+003, 1.461309e-002
2.238950e+003, 1.681748e-002
2.240878e+003, 1.794477e-002
2.242807e+003, 1.773520e-002
2.244735e+003, 1.739285e-002
2.246664e+003, 1.810902e-002
2.248592e+003, 1.925888e-002
2.250521e+003, 2.005525e-002
2.252449e+003, 2.131291e-002
2.254378e+003, 1.980040e-002
2.256306e+003, 1.801158e-002
2.258235e+003, 1.873006e-002
2.260163e+003, 1.913375e-002
2.262092e+003, 1.957847e-002
2.264020e+003, 1.961743e-002
2.265948e+003, 2.059378e-002
2.267877e+003, 2.098783e-002
2.269805e+003, 2.065618e-002
2.271734e+003, 2.097624e-002
2.273662e+003, 2.227078e-002
2.275591e+003, 2.318721e-002
2.277519e+003, 2.507308e-002
2.279448e+003, 2.590626e-002
2.281376e+003, 2.502747e-002
2.283305e+003, 2.534848e-002
2.285233e+003, 2.667429e-002
2.287162e+003, 2.699803e-002
2.289090e+003, 2.590997e-002
2.291019e+003, 2.546628e-002
2.292947e+003, 2.574185e-002
2.294875e+003, 2.551594e-002
2.296804e+003, 2.573431e-002
2.298732e+003, 2.655125e-002
2.300661e+003, 2.703026e-002
2.302589e+003, 2.749409e-002
2.304518e+003, 2.745190e-002
2.306446e+003, 2.741054e-002
2.308375e+003, 2.770226e-002
2.310303e+003, 2.828405e-002
2.312232e+003, 2.852652e-002
2.314160e+003, 2.869209e-002
2.316089e+003, 2.876551e-002
2.318017e+003, 2.961570e-002
2.319946e+003, 3.112465e-002
2.321874e+003, 3.179415e-002
2.323802e+003, 3.224752e-002
2.325731e+003, 3.218621e-002
2.327659e+003, 3.221011e-002
2.329588e+003, 3.208955e-002
2.331516e+003, 3.156955e-002
2.333445e+003, 3.218857e-002
2.335373e+003, 3.306518e-002
2.337302e+003, 3.298424e-002
2.339230e+003, 3.313485e-002
2.341159e+003, 3.307577e-002
2.343087e+003, 3.239972e-002
2.345016e+003, 3.297142e-002
2.346944e+003, 3.260021e-002
2.348873e+003, 3.187947e-002
2.350801e+003, 3.304673e-002
2.352729e+003, 3.441941e-002
2.354658e+003, 3.443004e-002
2.356586e+003, 3.401602e-002
2.358515e+003, 3.478932e-002
2.360443e+003, 3.558810e-002
2.362372e+003, 3.525726e-002
2.364300e+003, 3.566313e-002
2.366229e+003, 3.640964e-002
2.368157e+003, 3.593238e-002
2.370086e+003, 3.539458e-002
2.372014e+003, 3.463505e-002
2.373942e+003, 3.420531e-002
2.375871e+003, 3.390301e-002
2.377799e+003, 3.447315e-002
2.379728e+003, 3.466459e-002
2.381656e+003, 3.381987e-002
2.383585e+003, 3.316886e-002
2.385513e+003, 3.364811e-002
2.387442e+003, 3.405030e-002
2.389370e+003, 3.438685e-002
2.391299e+003, 3.495670e-002
2.393227e+003, 3.408438e-002
2.395156e+003, 3.395662e-002
2.397084e+003, 3.442546e-002
2.399012e+003, 3.446721e-002
2.400941e+003, 3.444664e-002
2.402869e+003, 3.441301e-002
2.404798e+003, 3.404129e-002
2.406726e+003, 3.497647e-002
2.408655e+003, 3.486092e-002
2.410583e+003, 3.528140e-002
2.412512e+003, 3.608351e-002
2.414440e+003, 3.584187e-002
2.416369e+003, 3.603704e-002
2.418297e+003, 3.650200e-002
2.420226e+003, 3.638524e-002
2.422154e+003, 3.678286e-002
2.424083e+003, 3.751115e-002
2.426011e+003, 3.772560e-002
2.427939e+003, 3.741545e-002
2.429868e+003, 3.634961e-002
2.431796e+003, 3.500510e-002
2.433725e+003, 3.491266e-002
2.435653e+003, 3.591220e-002
2.437582e+003, 3.571715e-002
2.439510e+003, 3.512399e-002
2.441439e+003, 3.618616e-002
2.443367e+003, 3.681771e-002
2.445296e+003, 3.664531e-002
2.447224e+003, 3.669855e-002
2.449153e+003, 3.679131e-002
2.451081e+003, 3.755685e-002
2.453010e+003, 3.784743e-002
2.454938e+003, 3.809854e-002
2.456866e+003, 3.748123e-002
2.458795e+003, 3.683842e-002
2.460723e+003, 3.721980e-002
2.462652e+003, 3.763068e-002
2.464580e+003, 3.671802e-002
2.466509e+003, 3.631465e-002
2.468437e+003, 3.684354e-002
2.470366e+003, 3.713972e-002
2.472294e+003, 3.743748e-002
2.474223e+003, 3.776393e-002
2.476151e+003, 3.714058e-002
2.478080e+003, 3.554606e-002
2.480008e+003, 3.565586e-002
2.481937e+003, 3.617571e-002
2.483865e+003, 3.543742e-002
2.485793e+003, 3.572448e-002
2.487722e+003, 3.594783e-002
2.489650e+003, 3.542875e-002
2.491579e+003, 3.689669e-002
2.493507e+003, 3.771226e-002
2.495436e+003, 3.688066e-002
2.497364e+003, 3.561821e-002
2.499293e+003, 3.614157e-002
2.501221e+003, 3.726794e-002
2.503150e+003, 3.731195e-002
2.505078e+003, 3.648348e-002
2.507007e+003, 3.616338e-002
2.508935e+003, 3.664230e-002
2.510864e+003, 3.708345e-002
2.512792e+003, 3.686776e-002
2.514720e+003, 3.680849e-002
2.516649e+003, 3.556215e-002
2.518577e+003, 3.425129e-002
2.520506e+003, 3.493062e-002
2.522434e+003, 3.611293e-002
2.524363e+003, 3.603240e-002
2.526291e+003, 3.401284e-002
2.528220e+003, 3.338705e-002
2.530148e+003, 3.434740e-002
2.532077e+003, 3.443443e-002
2.534005e+003, 3.349643e-002
2.535934e+003, 3.403268e-002
2.537862e+003, 3.555999e-002
2.539791e+003, 3.514437e-002
2.541719e+003, 3.362071e-002
2.543647e+003, 3.287875e-002
2.545576e+003, 3.204507e-002
2.547504e+003, 3.231640e-002
2.549433e+003, 3.231312e-002
2.551361e+003, 3.211920e-002
2.553290e+003, 3.177855e-002
2.555218e+003, 3.101155e-002
2.557147e+003, 3.005736e-002
2.559075e+003, 3.174507e-002
2.561004e+003, 3.321578e-002
2.562932e+003, 3.281801e-002
2.564861e+003, 3.196725e-002
2.566789e+003, 3.216486e-002
2.568718e+003, 3.268874e-002
2.570646e+003, 3.133623e-002
2.572574e+003, 3.119669e-002
2.574503e+003, 3.119148e-002
2.576431e+003, 3.203547e-002
2.578360e+003, 3.294966e-002
2.580288e+003, 3.348026e-002
2.582217e+003, 3.378379e-002
2.584145e+003, 3.323277e-002
2.586074e+003, 3.156475e-002
2.588002e+003, 3.091732e-002
2.589931e+003, 3.094794e-002
2.591859e+003, 3.139788e-002
2.593788e+003, 3.182456e-002
2.595716e+003, 3.151473e-002
2.597645e+003, 3.099712e-002
2.599573e+003, 3.191885e-002
2.601501e+003, 3.273711e-002
2.603430e+003, 3.226821e-002
2.605358e+003, 3.148302e-002
2.607287e+003, 3.157393e-002
2.609215e+003, 3.242025e-002
2.611144e+003, 3.215117e-002
2.613072e+003, 3.117374e-002
2.615001e+003, 3.219268e-002
2.616929e+003, 3.364992e-002
2.618858e+003, 3.381720e-002
2.620786e+003, 3.360739e-002
2.622715e+003, 3.360187e-002
2.624643e+003, 3.339820e-002
2.626572e+003, 3.375257e-002
2.628500e+003, 3.399070e-002
2.630428e+003, 3.376515e-002
2.632357e+003, 3.472918e-002
2.634285e+003, 3.495564e-002
2.636214e+003, 3.585928e-002
2.638142e+003, 3.536909e-002
2.640071e+003, 3.412366e-002
2.641999e+003, 3.367205e-002
2.643928e+003, 3.478448e-002
2.645856e+003, 3.620439e-002
2.647785e+003, 3.640381e-002
2.649713e+003, 3.572815e-002
2.651642e+003, 3.531151e-002
2.653570e+003, 3.549686e-002
2.655499e+003, 3.578256e-002
2.657427e+003, 3.584542e-002
2.659355e+003, 3.559043e-002
2.661284e+003, 3.565734e-002
2.663212e+003, 3.656775e-002
2.665141e+003, 3.706453e-002
2.667069e+003, 3.767128e-002
2.668998e+003, 3.743132e-002
2.670926e+003, 3.748643e-002
2.672855e+003, 3.746986e-002
2.674783e+003, 3.786767e-002
2.676712e+003, 3.849585e-002
2.678640e+003, 3.798426e-002
2.680569e+003, 3.741813e-002
2.682497e+003, 3.812610e-002
2.684426e+003, 3.813954e-002
2.686354e+003, 3.829065e-002
2.688282e+003, 3.889338e-002
2.690211e+003, 3.958260e-002
2.692139e+003, 4.030750e-002
2.694068e+003, 3.995040e-002
2.695996e+003, 3.947009e-002
2.697925e+003, 3.955685e-002
2.699853e+003, 3.985885e-002
2.701782e+003, 4.050477e-002
2.703710e+003, 4.102944e-002
2.705639e+003, 4.149474e-002
2.707567e+003, 4.225159e-002
2.709496e+003, 4.255531e-002
2.711424e+003, 4.244244e-002
2.713353e+003, 4.233656e-002
2.715281e+003, 4.247195e-002
2.717209e+003, 4.315162e-002
2.719138e+003, 4.370512e-002
2.721066e+003, 4.406437e-002
2.722995e+003, 4.498787e-002
2.724923e+003, 4.529672e-002
2.726852e+003, 4.550942e-002
2.728780e+003, 4.641150e-002
2.730709e+003, 4.645597e-002
2.732637e+003, 4.625537e-002
2.734566e+003, 4.683389e-002
2.736494e+003, 4.747948e-002
2.738423e+003, 4.824002e-002
2.740351e+003, 4.840269e-002
2.742280e+003, 4.894277e-002
2.744208e+003, 4.984392e-002
2.746136e+003, 4.955689e-002
2.748065e+003, 4.927669e-002
2.749993e+003, 4.928564e-002
2.751922e+003, 4.964560e-002
2.753850e+003, 5.088365e-002
2.755779e+003, 5.240971e-002
2.757707e+003, 5.211650e-002
2.759636e+003, 5.146923e-002
2.761564e+003, 5.227799e-002
2.763493e+003, 5.383641e-002
2.765421e+003, 5.408502e-002
2.767350e+003, 5.361008e-002
2.769278e+003, 5.461147e-002
2.771207e+003, 5.545998e-002
2.773135e+003, 5.482773e-002
2.775063e+003, 5.546399e-002
2.776992e+003, 5.686574e-002
2.778920e+003, 5.737297e-002
2.780849e+003, 5.721733e-002
2.782777e+003, 5.781313e-002
2.784706e+003, 5.920475e-002
2.786634e+003, 5.919048e-002
2.788563e+003, 5.924541e-002
2.790491e+003, 5.993302e-002
2.792420e+003, 6.130507e-002
2.794348e+003, 6.171823e-002
2.796277e+003, 6.156986e-002
2.798205e+003, 6.210869e-002
2.800134e+003, 6.263952e-002
2.802062e+003, 6.289490e-002
2.803990e+003, 6.420651e-002
2.805919e+003, 6.527133e-002
2.807847e+003, 6.564445e-002
2.809776e+003, 6.618688e-002
2.811704e+003, 6.677466e-002
2.813633e+003, 6.717056e-002
2.815561e+003, 6.790880e-002
2.817490e+003, 6.883137e-002
2.819418e+003, 6.996711e-002
2.821347e+003, 7.002824e-002
2.823275e+003, 7.061405e-002
2.825204e+003, 7.171602e-002
2.827132e+003, 7.225488e-002
2.829061e+003, 7.321042e-002
2.830989e+003, 7.378363e-002
2.832917e+003, 7.347921e-002
2.834846e+003, 7.437985e-002
2.836774e+003, 7.458712e-002
2.838703e+003, 7.396160e-002
2.840631e+003, 7.349876e-002
2.842560e+003, 7.321300e-002
2.844488e+003, 7.248107e-002
2.846417e+003, 7.137170e-002
2.848345e+003, 6.956091e-002
2.850274e+003, 6.945395e-002
2.852202e+003, 6.876528e-002
2.854131e+003, 6.867302e-002
2.856059e+003, 7.088051e-002
2.857988e+003, 7.393266e-002
2.859916e+003, 7.783607e-002
2.861844e+003, 8.084516e-002
2.863773e+003, 8.243304e-002
2.865701e+003, 8.425346e-002
2.867630e+003, 8.647703e-002
2.869558e+003, 8.735915e-002
2.871487e+003, 8.845238e-002
2.873415e+003, 8.872215e-002
2.875344e+003, 8.934698e-002
2.877272e+003, 9.121878e-002
2.879201e+003, 9.240548e-002
2.881129e+003, 9.391595e-002
2.883058e+003, 9.607082e-002
2.884986e+003, 9.840579e-002
2.886915e+003, 9.977525e-002
2.888843e+003, 1.001736e-001
2.890771e+003, 1.002653e-001
2.892700e+003, 9.956262e-002
2.894628e+003, 1.000482e-001
2.896557e+003, 1.016990e-001
2.898485e+003, 1.024199e-001
2.900414e+003, 1.036538e-001
2.902342e+003, 1.038908e-001
2.904271e+003, 1.032423e-001
2.906199e+003, 1.037879e-001
2.908128e+003, 1.040154e-001
2.910056e+003, 1.033014e-001
2.911985e+003, 1.034950e-001
2.913913e+003, 1.047364e-001
2.915842e+003, 1.042830e-001
2.917770e+003, 1.031363e-001
2.919698e+003, 1.028858e-001
2.921627e+003, 1.020628e-001
2.923555e+003, 1.022298e-001
2.925484e+003, 1.046517e-001
2.927412e+003, 1.067047e-001
2.929341e+003, 1.096473e-001
2.931269e+003, 1.142400e-001
2.933198e+003, 1.186476e-001
2.935126e+003, 1.218630e-001
2.937055e+003, 1.256019e-001
2.938983e+003, 1.296846e-001
2.940912e+003, 1.334154e-001
2.942840e+003, 1.358048e-001
2.944769e+003, 1.379749e-001
2.946697e+003, 1.410774e-001
2.948625e+003, 1.436080e-001
2.950554e+003, 1.458841e-001
2.952482e+003, 1.480773e-001
2.954411e+003, 1.493170e-001
2.956339e+003, 1.512884e-001
2.958268e+003, 1.538281e-001
2.960196e+003, 1.572210e-001
2.962125e+003, 1.599487e-001
2.964053e+003, 1.626514e-001
2.965982e+003, 1.658898e-001
2.967910e+003, 1.678808e-001
2.969839e+003, 1.703932e-001
2.971767e+003, 1.743528e-001
2.973696e+003, 1.762252e-001
2.975624e+003, 1.776769e-001
2.977552e+003, 1.822617e-001
2.979481e+003, 1.865766e-001
2.981409e+003, 1.889829e-001
2.983338e+003, 1.911653e-001
2.985266e+003, 1.934338e-001
2.987195e+003, 1.959734e-001
2.989123e+003, 1.986307e-001
2.991052e+003, 2.020726e-001
2.992980e+003, 2.048892e-001
2.994909e+003, 2.068985e-001
2.996837e+003, 2.098152e-001
2.998766e+003, 2.137839e-001
3.000694e+003, 2.179779e-001
3.002623e+003, 2.209672e-001
3.004551e+003, 2.228914e-001
3.006479e+003, 2.254865e-001
3.008408e+003, 2.302052e-001
3.010336e+003, 2.341456e-001
3.012265e+003, 2.384333e-001
3.014193e+003, 2.421063e-001
3.016122e+003, 2.448888e-001
3.018050e+003, 2.469000e-001
3.019979e+003, 2.483668e-001
3.021907e+003, 2.514610e-001
3.023836e+003, 2.562183e-001
3.025764e+003, 2.615794e-001
3.027693e+003, 2.648614e-001
3.029621e+003, 2.668249e-001
3.031550e+003, 2.693653e-001
3.033478e+003, 2.732733e-001
3.035406e+003, 2.776781e-001
3.037335e+003, 2.812670e-001
3.039263e+003, 2.841487e-001
3.041192e+003, 2.879817e-001
3.043120e+003, 2.923205e-001
3.045049e+003, 2.962177e-001
3.046977e+003, 2.992454e-001
3.048906e+003, 3.009986e-001
3.050834e+003, 3.041567e-001
3.052763e+003, 3.097420e-001
3.054691e+003, 3.134724e-001
3.056620e+003, 3.157952e-001
3.058548e+003, 3.194176e-001
3.060477e+003, 3.228060e-001
3.062405e+003, 3.263682e-001
3.064333e+003, 3.303182e-001
3.066262e+003, 3.329081e-001
3.068190e+003, 3.357373e-001
3.070119e+003, 3.395748e-001
3.072047e+003, 3.434049e-001
3.073976e+003, 3.463302e-001
3.075904e+003, 3.486058e-001
3.077833e+003, 3.528222e-001
3.079761e+003, 3.559663e-001
3.081690e+003, 3.572333e-001
3.083618e+003, 3.594185e-001
3.085547e+003, 3.631912e-001
3.087475e+003, 3.656707e-001
3.089404e+003, 3.682162e-001
3.091332e+003, 3.713782e-001
3.093260e+003, 3.742053e-001
3.095189e+003, 3.769013e-001
3.097117e+003, 3.789143e-001
3.099046e+003, 3.801621e-001
3.100974e+003, 3.827335e-001
3.102903e+003, 3.850628e-001
3.104831e+003, 3.859571e-001
3.106760e+003, 3.872581e-001
3.108688e+003, 3.873150e-001
3.110617e+003, 3.880880e-001
3.112545e+003, 3.909316e-001
3.114474e+003, 3.916153e-001
3.116402e+003, 3.928432e-001
3.118331e+003, 3.946687e-001
3.120259e+003, 3.951417e-001
3.122188e+003, 3.971962e-001
3.124116e+003, 3.967799e-001
3.126044e+003, 3.955408e-001
3.127973e+003, 3.963694e-001
3.129901e+003, 3.986374e-001
3.131830e+003, 3.998243e-001
3.133758e+003, 3.992240e-001
3.135687e+003, 4.019664e-001
3.137615e+003, 4.035031e-001
3.139544e+003, 4.033250e-001
3.141472e+003, 4.002096e-001
3.143401e+003, 3.957615e-001
3.145329e+003, 3.952816e-001
3.147258e+003, 3.969719e-001
3.149186e+003, 3.973322e-001
3.151115e+003, 3.971772e-001
3.153043e+003, 3.968284e-001
3.154971e+003, 3.969286e-001
3.156900e+003, 3.965800e-001
3.158828e+003, 3.980210e-001
3.160757e+003, 3.975667e-001
3.162685e+003, 3.963399e-001
3.164614e+003, 3.962951e-001
3.166542e+003, 3.958661e-001
3.168471e+003, 3.937050e-001
3.170399e+003, 3.929206e-001
3.172328e+003, 3.938071e-001
3.174256e+003, 3.927063e-001
3.176185e+003, 3.913789e-001
3.178113e+003, 3.906345e-001
3.180042e+003, 3.896210e-001
3.181970e+003, 3.883312e-001
3.183898e+003, 3.861237e-001
3.185827e+003, 3.851127e-001
3.187755e+003, 3.836372e-001
3.189684e+003, 3.804880e-001
3.191612e+003, 3.785606e-001
3.193541e+003, 3.769542e-001
3.195469e+003, 3.762452e-001
3.197398e+003, 3.748002e-001
3.199326e+003, 3.717473e-001
3.201255e+003, 3.703056e-001
3.203183e+003, 3.673501e-001
3.205112e+003, 3.629355e-001
3.207040e+003, 3.599785e-001
3.208969e+003, 3.563284e-001
3.210897e+003, 3.505360e-001
3.212825e+003, 3.471334e-001
3.214754e+003, 3.457985e-001
3.216682e+003, 3.431019e-001
3.218611e+003, 3.412059e-001
3.220539e+003, 3.392873e-001
3.222468e+003, 3.373434e-001
3.224396e+003, 3.338312e-001
3.226325e+003, 3.308318e-001
3.228253e+003, 3.289866e-001
3.230182e+003, 3.275401e-001
3.232110e+003, 3.236538e-001
3.234039e+003, 3.180297e-001
3.235967e+003, 3.172856e-001
3.237896e+003, 3.169143e-001
3.239824e+003, 3.143555e-001
3.241752e+003, 3.129677e-001
3.243681e+003, 3.093675e-001
3.245609e+003, 3.067796e-001
3.247538e+003, 3.068622e-001
3.249466e+003, 3.044552e-001
3.251395e+003, 3.006963e-001
3.253323e+003, 2.990194e-001
3.255252e+003, 2.978694e-001
3.257180e+003, 2.978049e-001
3.259109e+003, 2.966743e-001
3.261037e+003, 2.942053e-001
3.262966e+003, 2.934628e-001
3.264894e+003, 2.922454e-001
3.266823e+003, 2.900035e-001
3.268751e+003, 2.887776e-001
3.270679e+003, 2.880381e-001
3.272608e+003, 2.874715e-001
3.274536e+003, 2.872424e-001
3.276465e+003, 2.875832e-001
3.278393e+003, 2.861852e-001
3.280322e+003, 2.848618e-001
3.282250e+003, 2.820040e-001
3.284179e+003, 2.799068e-001
3.286107e+003, 2.785763e-001
3.288036e+003, 2.785660e-001
3.289964e+003, 2.781781e-001
3.291893e+003, 2.786390e-001
3.293821e+003, 2.794831e-001
3.295750e+003, 2.762149e-001
3.297678e+003, 2.731786e-001
3.299606e+003, 2.732529e-001
3.301535e+003, 2.739239e-001
3.303463e+003, 2.740725e-001
3.305392e+003, 2.751662e-001
3.307320e+003, 2.749858e-001
3.309249e+003, 2.731437e-001
3.311177e+003, 2.717008e-001
3.313106e+003, 2.715262e-001
3.315034e+003, 2.699162e-001
3.316963e+003, 2.680524e-001
3.318891e+003, 2.669673e-001
3.320820e+003, 2.646724e-001
3.322748e+003, 2.643619e-001
3.324677e+003, 2.646703e-001
3.326605e+003, 2.627128e-001
3.328533e+003, 2.611510e-001
3.330462e+003, 2.591654e-001
3.332390e+003, 2.566172e-001
3.334319e+003, 2.564850e-001
3.336247e+003, 2.550039e-001
3.338176e+003, 2.508990e-001
3.340104e+003, 2.491926e-001
3.342033e+003, 2.480476e-001
3.343961e+003, 2.466012e-001
3.345890e+003, 2.459038e-001
3.347818e+003, 2.441179e-001
3.349747e+003, 2.402373e-001
3.351675e+003, 2.366788e-001
3.353604e+003, 2.351385e-001
3.355532e+003, 2.343605e-001
3.357460e+003, 2.324787e-001
3.359389e+003, 2.321290e-001
3.361317e+003, 2.300348e-001
3.363246e+003, 2.265610e-001
3.365174e+003, 2.253424e-001
3.367103e+003, 2.231758e-001
3.369031e+003, 2.185181e-001
3.370960e+003, 2.170337e-001
3.372888e+003, 2.158741e-001
3.374817e+003, 2.142204e-001
3.376745e+003, 2.118470e-001
3.378674e+003, 2.093815e-001
3.380602e+003, 2.058398e-001
3.382531e+003, 2.023192e-001
3.384459e+003, 1.990376e-001
3.386387e+003, 1.971866e-001
3.388316e+003, 1.944792e-001
3.390244e+003, 1.900386e-001
3.392173e+003, 1.859314e-001
3.394101e+003, 1.842155e-001
3.396030e+003, 1.843547e-001
3.397958e+003, 1.844128e-001
3.399887e+003, 1.816141e-001
3.401815e+003, 1.784964e-001
3.403744e+003, 1.761646e-001
3.405672e+003, 1.751900e-001
3.407601e+003, 1.743441e-001
3.409529e+003, 1.719265e-001
3.411458e+003, 1.694163e-001
3.413386e+003, 1.691765e-001
3.415314e+003, 1.669271e-001
3.417243e+003, 1.640712e-001
3.419171e+003, 1.611647e-001
3.421100e+003, 1.580661e-001
3.423028e+003, 1.555141e-001
3.424957e+003, 1.548029e-001
3.426885e+003, 1.540263e-001
3.428814e+003, 1.515984e-001
3.430742e+003, 1.521922e-001
3.432671e+003, 1.505024e-001
3.434599e+003, 1.476504e-001
3.436528e+003, 1.458618e-001
3.438456e+003, 1.430473e-001
3.440385e+003, 1.418246e-001
3.442313e+003, 1.409678e-001
3.444241e+003, 1.400994e-001
3.446170e+003, 1.403233e-001
3.448098e+003, 1.407917e-001
3.450027e+003, 1.390963e-001
3.451955e+003, 1.363201e-001
3.453884e+003, 1.350116e-001
3.455812e+003, 1.353593e-001
3.457741e+003, 1.367867e-001
3.459669e+003, 1.379068e-001
3.461598e+003, 1.368461e-001
3.463526e+003, 1.372515e-001
3.465455e+003, 1.402867e-001
3.467383e+003, 1.408036e-001
3.469312e+003, 1.387877e-001
3.471240e+003, 1.377923e-001
3.473168e+003, 1.356278e-001
3.475097e+003, 1.342521e-001
3.477025e+003, 1.364332e-001
3.478954e+003, 1.350183e-001
3.480882e+003, 1.334749e-001
3.482811e+003, 1.309464e-001
3.484739e+003, 1.285412e-001
3.486668e+003, 1.265092e-001
3.488596e+003, 1.215999e-001
3.490525e+003, 1.161005e-001
3.492453e+003, 1.121682e-001
3.494382e+003, 1.074877e-001
3.496310e+003, 1.026865e-001
3.498239e+003, 9.845440e-002
3.500167e+003, 9.587408e-002
3.502095e+003, 9.293050e-002
3.504024e+003, 8.802196e-002
3.505952e+003, 8.552408e-002
3.507881e+003, 8.142552e-002
3.509809e+003, 7.628941e-002
3.511738e+003, 7.511414e-002
3.513666e+003, 7.294178e-002
3.515595e+003, 6.958861e-002
3.517523e+003, 6.809200e-002
3.519452e+003, 6.438510e-002
3.521380e+003, 6.047723e-002
3.523309e+003, 5.994280e-002
3.525237e+003, 6.109879e-002
3.527166e+003, 5.872333e-002
3.529094e+003, 5.402691e-002
3.531022e+003, 5.232530e-002
3.532951e+003, 5.093883e-002
3.534879e+003, 4.757353e-002
3.536808e+003, 4.774164e-002
3.538736e+003, 4.712010e-002
3.540665e+003, 4.347584e-002
3.542593e+003, 4.297014e-002
3.544522e+003, 4.286299e-002
3.546450e+003, 4.091882e-002
3.548379e+003, 3.912915e-002
3.550307e+003, 3.813177e-002
3.552236e+003, 3.501847e-002
3.554164e+003, 3.247775e-002
3.556093e+003, 3.437817e-002
3.558021e+003, 3.393724e-002
3.559949e+003, 3.272855e-002
3.561878e+003, 3.467438e-002
3.563806e+003, 3.209212e-002
3.565735e+003, 2.737541e-002
3.567663e+003, 2.659331e-002
3.569592e+003, 2.919377e-002
3.571520e+003, 2.666095e-002
3.573449e+003, 2.329555e-002
3.575377e+003, 2.317668e-002
3.577306e+003, 2.200383e-002
3.579234e+003, 2.076931e-002
3.581163e+003, 1.868695e-002
3.583091e+003, 1.955638e-002
3.585020e+003, 2.115275e-002
3.586948e+003, 2.247486e-002
3.588876e+003, 2.033858e-002
3.590805e+003, 1.535064e-002
3.592733e+003, 1.393793e-002
3.594662e+003, 1.428002e-002
3.596590e+003, 1.361350e-002
3.598519e+003, 1.219376e-002
3.600447e+003, 1.267769e-002
3.602376e+003, 1.360602e-002
3.604304e+003, 1.294292e-002
3.606233e+003, 1.292141e-002
3.608161e+003, 1.373484e-002
3.610090e+003, 1.272225e-002
3.612018e+003, 1.034176e-002
3.613947e+003, 1.021204e-002
3.615875e+003, 1.128798e-002
3.617803e+003, 1.210218e-002
3.619732e+003, 8.173645e-003
3.621660e+003, 5.897294e-003
3.623589e+003, 6.150282e-003
3.625517e+003, 5.876082e-003
3.627446e+003, 4.119311e-003
3.629374e+003, 5.867171e-004
3.631303e+003, 3.423320e-003
3.633231e+003, 6.211727e-003
3.635160e+003, 6.658147e-003
3.637088e+003, 5.815729e-003
3.639017e+003, 6.178767e-003
3.640945e+003, 3.792979e-003
3.642874e+003, 1.570402e-003
3.644802e+003, 3.585040e-003
3.646730e+003, 5.055288e-003
3.648659e+003, 4.544054e-003
3.650587e+003, 2.802912e-003
3.652516e+003, 2.660855e-003
3.654444e+003, 3.379245e-003
3.656373e+003, 4.644787e-003
3.658301e+003, 5.786021e-003
3.660230e+003, 4.178063e-003
3.662158e+003, 1.076304e-003
3.664087e+003, 2.909968e-003
3.666015e+003, 3.811668e-003
3.667944e+003, 2.420117e-003
3.669872e+003, 3.194043e-003
3.671801e+003, 3.288738e-003
3.673729e+003, 3.188130e-003
3.675657e+003, 4.476184e-003
3.677586e+003, 6.109574e-003
3.679514e+003, 4.207532e-003
3.681443e+003, 2.771982e-003
3.683371e+003, 5.172565e-003
3.685300e+003, 2.955319e-003
3.687228e+003, -9.123706e-004
3.689157e+003, 1.501770e-003
3.691085e+003, 3.156749e-003
3.693014e+003, 2.454306e-003
3.694942e+003, 3.944466e-003
3.696871e+003, 4.175306e-003
3.698799e+003, 7.904365e-004
3.700728e+003, 1.464383e-003
3.702656e+003, -3.673965e-004
3.704584e+003, -1.998444e-003
3.706513e+003, 2.765958e-004
3.708441e+003, 2.508124e-003
3.710370e+003, 3.150576e-003
3.712298e+003, -8.573112e-005
3.714227e+003, 1.026585e-003
3.716155e+003, 5.276787e-003
3.718084e+003, 2.135151e-003
3.720012e+003, -3.167447e-004
3.721941e+003, 1.109670e-003
3.723869e+003, 1.411791e-003
3.725798e+003, 2.160719e-003
3.727726e+003, 2.737916e-003
3.729655e+003, 2.946318e-003
3.731583e+003, 4.619429e-003
3.733511e+003, 1.221317e-003
3.735440e+003, -9.345672e-004
3.737368e+003, 7.960770e-004
3.739297e+003, 2.424759e-003
3.741225e+003, 3.901795e-003
3.743154e+003, 4.236532e-003
3.745082e+003, 6.725651e-003
3.747011e+003, 4.476924e-003
3.748939e+003, 1.086645e-003
3.750868e+003, -1.628018e-003
3.752796e+003, -2.821150e-004
3.754725e+003, -6.596085e-004
3.756653e+003, -1.553350e-004
3.758582e+003, 1.884959e-003
3.760510e+003, 4.953912e-003
3.762438e+003, 7.282165e-003
3.764367e+003, 6.566164e-003
3.766295e+003, 5.644487e-003
3.768224e+003, 7.511473e-003
3.770152e+003, 8.629465e-003
3.772081e+003, 5.937501e-003
3.774009e+003, 2.155998e-003
3.775938e+003, 1.241707e-003
3.777866e+003, 1.559933e-003
3.779795e+003, 2.501568e-003
3.781723e+003, 3.528081e-003
3.783652e+003, 5.618544e-003
3.785580e+003, 4.086744e-003
3.787509e+003, 6.083333e-003
3.789437e+003, 8.290185e-003
3.791365e+003, 6.319656e-003
3.793294e+003, 5.522639e-003
3.795222e+003, 5.222154e-003
3.797151e+003, 4.706023e-003
3.799079e+003, 5.156115e-003
3.801008e+003, 5.968119e-003
3.802936e+003, 4.673388e-003
3.804865e+003, 6.192449e-003
3.806793e+003, 9.459343e-003
3.808722e+003, 8.709119e-003
3.810650e+003, 6.724608e-003
3.812579e+003, 3.783999e-003
3.814507e+003, 3.734735e-003
3.816436e+003, 3.782503e-003
3.818364e+003, 7.368169e-003
3.820292e+003, 9.026114e-003
3.822221e+003, 8.321049e-003
3.824149e+003, 7.678581e-003
3.826078e+003, 6.673933e-003
3.828006e+003, 5.163058e-003
3.829935e+003, 4.572057e-003
3.831863e+003, 1.814686e-003
3.833792e+003, 1.772744e-003
3.835720e+003, 3.943528e-003
3.837649e+003, 5.428636e-003
3.839577e+003, 6.089073e-003
3.841506e+003, 6.209410e-003
3.843434e+003, 4.753933e-003
3.845363e+003, 3.692413e-003
3.847291e+003, 5.034989e-003
3.849219e+003, 6.655781e-003
3.851148e+003, 6.851424e-003
3.853076e+003, 7.216780e-003
3.855005e+003, 7.817403e-003
3.856933e+003, 6.693497e-003
3.858862e+003, 5.986842e-003
3.860790e+003, 6.999473e-003
3.862719e+003, 5.704619e-003
3.864647e+003, 5.405677e-003
3.866576e+003, 4.704057e-003
3.868504e+003, 6.561470e-003
3.870433e+003, 7.035498e-003
3.872361e+003, 7.100077e-003
3.874290e+003, 3.880888e-003
3.876218e+003, 2.208085e-003
3.878146e+003, 2.624959e-003
3.880075e+003, 1.385831e-003
3.882003e+003, 2.732438e-003
3.883932e+003, 5.820012e-003
3.885860e+003, 8.072468e-003
3.887789e+003, 8.545357e-003
3.889717e+003, 5.940166e-003
3.891646e+003, 6.747136e-003
3.893574e+003, 8.245350e-003
3.895503e+003, 7.396193e-003
3.897431e+003, 6.144532e-003
3.899360e+003, 6.192439e-003
3.901288e+003, 7.483001e-003
3.903217e+003, 9.133616e-003
3.905145e+003, 9.431251e-003
3.907073e+003, 9.125069e-003
3.909002e+003, 6.901939e-003
3.910930e+003, 4.762827e-003
3.912859e+003, 2.774155e-003
3.914787e+003, 3.743477e-003
3.916716e+003, 6.785259e-003
3.918644e+003, 7.089888e-003
3.920573e+003, 6.442050e-003
3.922501e+003, 7.281548e-003
3.924430e+003, 7.769945e-003
3.926358e+003, 5.203058e-003
3.928287e+003, 4.042088e-003
3.930215e+003, 8.776567e-003
3.932144e+003, 1.097782e-002
3.934072e+003, 8.657961e-003
3.936000e+003, 3.951854e-003
3.937929e+003, 4.977985e-003
3.939857e+003, 6.562714e-003
3.941786e+003, 6.590314e-003
3.943714e+003, 5.697715e-003
3.945643e+003, 4.935290e-003
3.947571e+003, 8.128515e-003
3.949500e+003, 8.390084e-003
3.951428e+003, 9.820980e-003
3.953357e+003, 9.648324e-003
3.955285e+003, 9.250319e-003
3.957214e+003, 1.134067e-002
3.959142e+003, 1.234188e-002
3.961071e+003, 1.250811e-002
3.962999e+003, 9.678591e-003
3.964927e+003, 8.743296e-003
3.966856e+003, 1.007481e-002
3.968784e+003, 8.283582e-003
3.970713e+003, 7.217254e-003
3.972641e+003, 7.087261e-003
3.974570e+003, 6.778655e-003
3.976498e+003, 5.575347e-003
3.978427e+003, 3.051061e-003
3.980355e+003, 4.886919e-003
3.982284e+003, 6.963497e-003
3.984212e+003, 9.156451e-003
3.986141e+003, 9.519818e-003
3.988069e+003, 9.248342e-003
3.989998e+003, 9.293487e-003
3.991926e+003, 7.950485e-003
3.993854e+003, 9.625797e-003
3.995783e+003, 1.158154e-002
3.997711e+003, 8.043847e-003
3.999640e+003, 8.047727e-003
4.001568e+003, 0.000000e+000
##END=



