##NAMES=Chalcophanite
##RRUFFID=R050451
##IDEAL CHEMISTRY=Zn^2+^Mn^4+^_3_O_7_&#183;3H_2_O
##LOCALITY=Morenci mine, Morenci, Greenlee County, Arizona, USA
##OWNER=RRUFF
##SOURCE=University of Arizona Mineral Museum
##DESCRIPTION=A mass of small black hexagonal plates, not homogeneous
##STATUS=The identification of this mineral has been confirmed by X-ray diffraction and chemical analysis
##URL=rruff.info/R050451
##MEASURED CHEMISTRY=(Zn_0.60_Fe^2+^_0.20_Cu_0.12_Fe^3+^_0.08_)_Σ=1_(Mn^4+^_2.92_Fe^3+^_0.08_)_Σ=3_O_7_·3H_2_O ; = bright phase. The gray phase is jacobsite (Mn_0.65_Zn_0.25_Cu_0.09_)_Σ=1_(Fe^3+^_1.58_Mn^3+^_0.42_)_Σ=2_O_4_; dark phase: K-feldspar
3.953357e+002, 8.954012e-002
3.972641e+002, 8.763681e-002
3.991926e+002, 8.906147e-002
4.011211e+002, 9.322745e-002
4.030495e+002, 9.407004e-002
4.049780e+002, 9.323851e-002
4.069065e+002, 9.050775e-002
4.088349e+002, 9.163957e-002
4.107634e+002, 9.331612e-002
4.126919e+002, 9.491464e-002
4.146203e+002, 9.369411e-002
4.165488e+002, 9.349453e-002
4.184773e+002, 9.537234e-002
4.204057e+002, 9.558561e-002
4.223342e+002, 9.671250e-002
4.242627e+002, 9.619380e-002
4.261911e+002, 9.567082e-002
4.281196e+002, 9.690057e-002
4.300481e+002, 9.573127e-002
4.319765e+002, 9.512040e-002
4.339050e+002, 9.609887e-002
4.358335e+002, 9.561596e-002
4.377619e+002, 9.298620e-002
4.396904e+002, 9.262557e-002
4.416189e+002, 9.224376e-002
4.435473e+002, 9.140071e-002
4.454758e+002, 9.125020e-002
4.474043e+002, 8.975956e-002
4.493327e+002, 8.792453e-002
4.512612e+002, 8.588015e-002
4.531897e+002, 8.359516e-002
4.551181e+002, 8.228680e-002
4.570466e+002, 7.998461e-002
4.589751e+002, 7.793888e-002
4.609035e+002, 7.706141e-002
4.628320e+002, 7.766390e-002
4.647605e+002, 7.750534e-002
4.666889e+002, 7.837204e-002
4.686174e+002, 7.960604e-002
4.705459e+002, 8.067652e-002
4.724743e+002, 8.161836e-002
4.744028e+002, 8.076069e-002
4.763313e+002, 7.936697e-002
4.782597e+002, 7.758379e-002
4.801882e+002, 7.515991e-002
4.821167e+002, 7.356443e-002
4.840451e+002, 7.377937e-002
4.859736e+002, 7.534120e-002
4.879021e+002, 7.685769e-002
4.898305e+002, 7.870203e-002
4.917590e+002, 8.028667e-002
4.936875e+002, 8.153794e-002
4.956159e+002, 8.262277e-002
4.975444e+002, 8.292739e-002
4.994729e+002, 8.313476e-002
5.014013e+002, 8.316929e-002
5.033298e+002, 8.203834e-002
5.052583e+002, 8.104192e-002
5.071867e+002, 8.030083e-002
5.091152e+002, 7.912534e-002
5.110437e+002, 7.800861e-002
5.129721e+002, 7.652234e-002
5.149006e+002, 7.506290e-002
5.168290e+002, 7.455675e-002
5.187575e+002, 7.437660e-002
5.206860e+002, 7.469393e-002
5.226144e+002, 7.581301e-002
5.245429e+002, 7.720438e-002
5.264714e+002, 7.841386e-002
5.283998e+002, 7.986258e-002
5.303283e+002, 8.081117e-002
5.322568e+002, 8.109617e-002
5.341852e+002, 8.089337e-002
5.361137e+002, 8.051433e-002
5.380422e+002, 8.030340e-002
5.399706e+002, 7.958081e-002
5.418991e+002, 7.852962e-002
5.438276e+002, 7.731791e-002
5.457560e+002, 7.606136e-002
5.476845e+002, 7.469165e-002
5.496130e+002, 7.376707e-002
5.515414e+002, 7.299324e-002
5.534699e+002, 7.197879e-002
5.553984e+002, 7.112125e-002
5.573268e+002, 6.992969e-002
5.592553e+002, 6.889351e-002
5.611838e+002, 6.837680e-002
5.631122e+002, 6.772292e-002
5.650407e+002, 6.696789e-002
5.669692e+002, 6.633020e-002
5.688976e+002, 6.561335e-002
5.708261e+002, 6.479177e-002
5.727546e+002, 6.414235e-002
5.746830e+002, 6.327245e-002
5.766115e+002, 6.221009e-002
5.785400e+002, 6.139826e-002
5.804684e+002, 6.082357e-002
5.823969e+002, 6.042827e-002
5.843254e+002, 5.961582e-002
5.862538e+002, 5.877678e-002
5.881823e+002, 5.831175e-002
5.901108e+002, 5.765827e-002
5.920392e+002, 5.688693e-002
5.939677e+002, 5.605011e-002
5.958962e+002, 5.480089e-002
5.978246e+002, 5.370733e-002
5.997531e+002, 5.279408e-002
6.016816e+002, 5.176965e-002
6.036100e+002, 5.085055e-002
6.055385e+002, 5.019102e-002
6.074670e+002, 4.961645e-002
6.093954e+002, 4.952031e-002
6.113239e+002, 4.982167e-002
6.132524e+002, 4.996369e-002
6.151808e+002, 5.040120e-002
6.171093e+002, 5.101905e-002
6.190378e+002, 5.153316e-002
6.209662e+002, 5.162139e-002
6.228947e+002, 5.122017e-002
6.248232e+002, 5.038571e-002
6.267516e+002, 4.939401e-002
6.286801e+002, 4.826009e-002
6.306086e+002, 4.752183e-002
6.325370e+002, 4.723841e-002
6.344655e+002, 4.691857e-002
6.363940e+002, 4.677965e-002
6.383224e+002, 4.706710e-002
6.402509e+002, 4.693456e-002
6.421794e+002, 4.654700e-002
6.441078e+002, 4.645145e-002
6.460363e+002, 4.594011e-002
6.479648e+002, 4.540417e-002
6.498932e+002, 4.509270e-002
6.518217e+002, 4.471467e-002
6.537502e+002, 4.438866e-002
6.556786e+002, 4.423578e-002
6.576071e+002, 4.390311e-002
6.595356e+002, 4.370534e-002
6.614641e+002, 4.359310e-002
6.633925e+002, 4.328584e-002
6.653210e+002, 4.307222e-002
6.672495e+002, 4.246855e-002
6.691779e+002, 4.155406e-002
6.711064e+002, 4.077915e-002
6.730349e+002, 4.010278e-002
6.749633e+002, 3.928544e-002
6.768918e+002, 3.843348e-002
6.788203e+002, 3.749303e-002
6.807487e+002, 3.645216e-002
6.826772e+002, 3.542560e-002
6.846057e+002, 3.418744e-002
6.865341e+002, 3.303916e-002
6.884626e+002, 3.205965e-002
6.903911e+002, 3.105076e-002
6.923195e+002, 3.020995e-002
6.942480e+002, 2.935125e-002
6.961765e+002, 2.859043e-002
6.981049e+002, 2.799989e-002
7.000334e+002, 2.737745e-002
7.019619e+002, 2.659220e-002
7.038903e+002, 2.603565e-002
7.058188e+002, 2.555392e-002
7.077473e+002, 2.524470e-002
7.096757e+002, 2.516356e-002
7.116042e+002, 2.481095e-002
7.135327e+002, 2.431593e-002
7.154611e+002, 2.420839e-002
7.173896e+002, 2.410982e-002
7.193181e+002, 2.387366e-002
7.212465e+002, 2.379244e-002
7.231750e+002, 2.373469e-002
7.251035e+002, 2.362825e-002
7.270319e+002, 2.337605e-002
7.289604e+002, 2.317093e-002
7.308889e+002, 2.306584e-002
7.328173e+002, 2.291922e-002
7.347458e+002, 2.257454e-002
7.366743e+002, 2.216998e-002
7.386027e+002, 2.191774e-002
7.405312e+002, 2.175326e-002
7.424597e+002, 2.158091e-002
7.443881e+002, 2.127378e-002
7.463166e+002, 2.107927e-002
7.482451e+002, 2.123505e-002
7.501735e+002, 2.158233e-002
7.521020e+002, 2.151543e-002
7.540305e+002, 2.153262e-002
7.559589e+002, 2.168714e-002
7.578874e+002, 2.180885e-002
7.598159e+002, 2.194920e-002
7.617443e+002, 2.204681e-002
7.636728e+002, 2.228414e-002
7.656013e+002, 2.267261e-002
7.675297e+002, 2.303680e-002
7.694582e+002, 2.340280e-002
7.713867e+002, 2.378916e-002
7.733151e+002, 2.401023e-002
7.752436e+002, 2.419806e-002
7.771721e+002, 2.451618e-002
7.791005e+002, 2.461931e-002
7.810290e+002, 2.474107e-002
7.829575e+002, 2.495126e-002
7.848859e+002, 2.505552e-002
7.868144e+002, 2.511433e-002
7.887429e+002, 2.510518e-002
7.906713e+002, 2.516263e-002
7.925998e+002, 2.527668e-002
7.945283e+002, 2.518373e-002
7.964567e+002, 2.508654e-002
7.983852e+002, 2.484323e-002
8.003137e+002, 2.438330e-002
8.022421e+002, 2.399477e-002
8.041706e+002, 2.353500e-002
8.060991e+002, 2.289774e-002
8.080275e+002, 2.235001e-002
8.099560e+002, 2.196672e-002
8.118845e+002, 2.159468e-002
8.138129e+002, 2.131796e-002
8.157414e+002, 2.124008e-002
8.176699e+002, 2.112499e-002
8.195983e+002, 2.100712e-002
8.215268e+002, 2.068690e-002
8.234553e+002, 2.048605e-002
8.253837e+002, 2.040925e-002
8.273122e+002, 2.044797e-002
8.292407e+002, 2.064045e-002
8.311691e+002, 2.071030e-002
8.330976e+002, 2.077598e-002
8.350261e+002, 2.103255e-002
8.369545e+002, 2.114854e-002
8.388830e+002, 2.128748e-002
8.408115e+002, 2.147288e-002
8.427399e+002, 2.166852e-002
8.446684e+002, 2.186305e-002
8.465969e+002, 2.225789e-002
8.485253e+002, 2.259771e-002
8.504538e+002, 2.294389e-002
8.523823e+002, 2.352456e-002
8.543107e+002, 2.406310e-002
8.562392e+002, 2.458283e-002
8.581677e+002, 2.535173e-002
8.600961e+002, 2.591724e-002
8.620246e+002, 2.624539e-002
8.639531e+002, 2.670417e-002
8.658815e+002, 2.722930e-002
8.678100e+002, 2.787893e-002
8.697385e+002, 2.857955e-002
8.716669e+002, 2.913578e-002
8.735954e+002, 2.974205e-002
8.755239e+002, 3.026874e-002
8.774523e+002, 3.049576e-002
8.793808e+002, 3.072555e-002
8.813093e+002, 3.100997e-002
8.832377e+002, 3.109160e-002
8.851662e+002, 3.112085e-002
8.870947e+002, 3.123178e-002
8.890231e+002, 3.106547e-002
8.909516e+002, 3.080270e-002
8.928801e+002, 3.063367e-002
8.948085e+002, 3.041466e-002
8.967370e+002, 3.020890e-002
8.986655e+002, 3.003523e-002
9.005939e+002, 2.983293e-002
9.025224e+002, 2.964273e-002
9.044509e+002, 2.933603e-002
9.063793e+002, 2.909444e-002
9.083078e+002, 2.903373e-002
9.102363e+002, 2.884636e-002
9.121647e+002, 2.854877e-002
9.140932e+002, 2.830168e-002
9.160217e+002, 2.819143e-002
9.179501e+002, 2.826510e-002
9.198786e+002, 2.829080e-002
9.218071e+002, 2.826353e-002
9.237355e+002, 2.841507e-002
9.256640e+002, 2.856354e-002
9.275925e+002, 2.868712e-002
9.295209e+002, 2.886377e-002
9.314494e+002, 2.915419e-002
9.333779e+002, 2.945673e-002
9.353063e+002, 2.979874e-002
9.372348e+002, 3.023363e-002
9.391633e+002, 3.070862e-002
9.410917e+002, 3.119777e-002
9.430202e+002, 3.160773e-002
9.449487e+002, 3.218076e-002
9.468771e+002, 3.292102e-002
9.488056e+002, 3.347518e-002
9.507341e+002, 3.414511e-002
9.526625e+002, 3.495204e-002
9.545910e+002, 3.556609e-002
9.565195e+002, 3.623356e-002
9.584479e+002, 3.705722e-002
9.603764e+002, 3.774710e-002
9.623049e+002, 3.859767e-002
9.642333e+002, 3.938318e-002
9.661618e+002, 4.010531e-002
9.680903e+002, 4.084036e-002
9.700187e+002, 4.165247e-002
9.719472e+002, 4.243776e-002
9.738757e+002, 4.323232e-002
9.758041e+002, 4.405537e-002
9.777326e+002, 4.488070e-002
9.796611e+002, 4.571484e-002
9.815895e+002, 4.658107e-002
9.835180e+002, 4.739436e-002
9.854465e+002, 4.821020e-002
9.873749e+002, 4.911343e-002
9.893034e+002, 5.017535e-002
9.912319e+002, 5.102860e-002
9.931603e+002, 5.174920e-002
9.950888e+002, 5.266308e-002
9.970173e+002, 5.361252e-002
9.989457e+002, 5.432317e-002
1.000874e+003, 5.509607e-002
1.002803e+003, 5.589750e-002
1.004731e+003, 5.656847e-002
1.006660e+003, 5.731552e-002
1.008588e+003, 5.820585e-002
1.010517e+003, 5.898268e-002
1.012445e+003, 5.964486e-002
1.014373e+003, 6.014263e-002
1.016302e+003, 6.048673e-002
1.018230e+003, 6.066713e-002
1.020159e+003, 6.073191e-002
1.022087e+003, 6.067365e-002
1.024016e+003, 6.068040e-002
1.025944e+003, 6.073764e-002
1.027873e+003, 6.072405e-002
1.029801e+003, 6.066570e-002
1.031730e+003, 6.051696e-002
1.033658e+003, 6.032075e-002
1.035587e+003, 6.010872e-002
1.037515e+003, 5.978125e-002
1.039443e+003, 5.941623e-002
1.041372e+003, 5.889197e-002
1.043300e+003, 5.821490e-002
1.045229e+003, 5.765658e-002
1.047157e+003, 5.693239e-002
1.049086e+003, 5.599497e-002
1.051014e+003, 5.499288e-002
1.052943e+003, 5.392514e-002
1.054871e+003, 5.277147e-002
1.056800e+003, 5.139045e-002
1.058728e+003, 4.978999e-002
1.060657e+003, 4.801767e-002
1.062585e+003, 4.631510e-002
1.064514e+003, 4.461249e-002
1.066442e+003, 4.297958e-002
1.068370e+003, 4.158732e-002
1.070299e+003, 4.028698e-002
1.072227e+003, 3.906054e-002
1.074156e+003, 3.814119e-002
1.076084e+003, 3.736368e-002
1.078013e+003, 3.651338e-002
1.079941e+003, 3.586226e-002
1.081870e+003, 3.519576e-002
1.083798e+003, 3.464656e-002
1.085727e+003, 3.423795e-002
1.087655e+003, 3.399626e-002
1.089584e+003, 3.387922e-002
1.091512e+003, 3.363661e-002
1.093441e+003, 3.347285e-002
1.095369e+003, 3.336070e-002
1.097297e+003, 3.326425e-002
1.099226e+003, 3.322452e-002
1.101154e+003, 3.315794e-002
1.103083e+003, 3.303347e-002
1.105011e+003, 3.308594e-002
1.106940e+003, 3.320146e-002
1.108868e+003, 3.315603e-002
1.110797e+003, 3.300186e-002
1.112725e+003, 3.287650e-002
1.114654e+003, 3.279539e-002
1.116582e+003, 3.281813e-002
1.118511e+003, 3.287720e-002
1.120439e+003, 3.294177e-002
1.122368e+003, 3.287721e-002
1.124296e+003, 3.282446e-002
1.126224e+003, 3.273832e-002
1.128153e+003, 3.254683e-002
1.130081e+003, 3.234841e-002
1.132010e+003, 3.207354e-002
1.133938e+003, 3.162312e-002
1.135867e+003, 3.114334e-002
1.137795e+003, 3.063550e-002
1.139724e+003, 3.017399e-002
1.141652e+003, 2.957804e-002
1.143581e+003, 2.885930e-002
1.145509e+003, 2.813365e-002
1.147438e+003, 2.736841e-002
1.149366e+003, 2.650817e-002
1.151295e+003, 2.573128e-002
1.153223e+003, 2.492081e-002
1.155151e+003, 2.397271e-002
1.157080e+003, 2.310096e-002
1.159008e+003, 2.229224e-002
1.160937e+003, 2.150293e-002
1.162865e+003, 2.078681e-002
1.164794e+003, 1.998324e-002
1.166722e+003, 1.916331e-002
1.168651e+003, 1.848733e-002
1.170579e+003, 1.786328e-002
1.172508e+003, 1.733006e-002
1.174436e+003, 1.675276e-002
1.176365e+003, 1.609589e-002
1.178293e+003, 1.553541e-002
1.180222e+003, 1.495225e-002
1.182150e+003, 1.446641e-002
1.184078e+003, 1.400610e-002
1.186007e+003, 1.348669e-002
1.187935e+003, 1.314053e-002
1.189864e+003, 1.278502e-002
1.191792e+003, 1.242284e-002
1.193721e+003, 1.224849e-002
1.195649e+003, 1.194090e-002
1.197578e+003, 1.159212e-002
1.199506e+003, 1.126944e-002
1.201435e+003, 1.097242e-002
1.203363e+003, 1.067856e-002
1.205292e+003, 1.046167e-002
1.207220e+003, 1.031441e-002
1.209149e+003, 1.010623e-002
1.211077e+003, 9.824042e-003
1.213005e+003, 9.664519e-003
1.214934e+003, 9.467282e-003
1.216862e+003, 9.373070e-003
1.218791e+003, 9.360119e-003
1.220719e+003, 9.300032e-003
1.222648e+003, 9.191077e-003
1.224576e+003, 9.105454e-003
1.226505e+003, 9.053760e-003
1.228433e+003, 9.054191e-003
1.230362e+003, 8.951512e-003
1.232290e+003, 8.816740e-003
1.234219e+003, 8.744261e-003
1.236147e+003, 8.899220e-003
1.238076e+003, 8.944494e-003
1.240004e+003, 8.950764e-003
1.241932e+003, 8.964373e-003
1.243861e+003, 8.973541e-003
1.245789e+003, 8.952392e-003
1.247718e+003, 8.856419e-003
1.249646e+003, 8.733575e-003
1.251575e+003, 8.736543e-003
1.253503e+003, 8.749694e-003
1.255432e+003, 8.728520e-003
1.257360e+003, 8.715878e-003
1.259289e+003, 8.733341e-003
1.261217e+003, 8.748907e-003
1.263146e+003, 8.809600e-003
1.265074e+003, 9.064642e-003
1.267003e+003, 9.203974e-003
1.268931e+003, 9.213693e-003
1.270859e+003, 9.260478e-003
1.272788e+003, 9.394737e-003
1.274716e+003, 9.600632e-003
1.276645e+003, 9.850143e-003
1.278573e+003, 1.006785e-002
1.280502e+003, 1.030457e-002
1.282430e+003, 1.053871e-002
1.284359e+003, 1.054587e-002
1.286287e+003, 1.042086e-002
1.288216e+003, 1.040794e-002
1.290144e+003, 1.034686e-002
1.292073e+003, 1.032468e-002
1.294001e+003, 1.041948e-002
1.295930e+003, 1.032792e-002
1.297858e+003, 1.015519e-002
1.299786e+003, 1.007982e-002
1.301715e+003, 1.005924e-002
1.303643e+003, 1.003456e-002
1.305572e+003, 1.005776e-002
1.307500e+003, 1.005725e-002
1.309429e+003, 1.003940e-002
1.311357e+003, 1.013581e-002
1.313286e+003, 1.008879e-002
1.315214e+003, 9.933203e-003
1.317143e+003, 9.989901e-003
1.319071e+003, 1.010739e-002
1.321000e+003, 1.004354e-002
1.322928e+003, 9.953150e-003
1.324857e+003, 9.830366e-003
1.326785e+003, 9.830129e-003
1.328714e+003, 9.933757e-003
1.330642e+003, 9.970861e-003
1.332570e+003, 1.012161e-002
1.334499e+003, 1.009444e-002
1.336427e+003, 1.004432e-002
1.338356e+003, 1.018167e-002
1.340284e+003, 1.023994e-002
1.342213e+003, 1.024362e-002
1.344141e+003, 1.031522e-002
1.346070e+003, 1.034880e-002
1.347998e+003, 1.034007e-002
1.349927e+003, 1.038395e-002
1.351855e+003, 1.045161e-002
1.353784e+003, 1.046542e-002
1.355712e+003, 1.048928e-002
1.357641e+003, 1.053734e-002
1.359569e+003, 1.068242e-002
1.361497e+003, 1.085427e-002
1.363426e+003, 1.092375e-002
1.365354e+003, 1.084344e-002
1.367283e+003, 1.086106e-002
1.369211e+003, 1.079598e-002
1.371140e+003, 1.086841e-002
1.373068e+003, 1.108114e-002
1.374997e+003, 1.110951e-002
1.376925e+003, 1.107781e-002
1.378854e+003, 1.119288e-002
1.380782e+003, 1.128194e-002
1.382711e+003, 1.136590e-002
1.384639e+003, 1.142865e-002
1.386568e+003, 1.161553e-002
1.388496e+003, 1.168557e-002
1.390424e+003, 1.154526e-002
1.392353e+003, 1.151486e-002
1.394281e+003, 1.165832e-002
1.396210e+003, 1.172368e-002
1.398138e+003, 1.171432e-002
1.400067e+003, 1.177970e-002
1.401995e+003, 1.185878e-002
1.403924e+003, 1.188741e-002
1.405852e+003, 1.194668e-002
1.407781e+003, 1.213499e-002
1.409709e+003, 1.223685e-002
1.411638e+003, 1.215701e-002
1.413566e+003, 1.213497e-002
1.415495e+003, 1.226983e-002
1.417423e+003, 1.245262e-002
1.419351e+003, 1.245454e-002
1.421280e+003, 1.227788e-002
1.423208e+003, 1.231335e-002
1.425137e+003, 1.244184e-002
1.427065e+003, 1.243576e-002
1.428994e+003, 1.242193e-002
1.430922e+003, 1.239985e-002
1.432851e+003, 1.255606e-002
1.434779e+003, 1.279900e-002
1.436708e+003, 1.301857e-002
1.438636e+003, 1.299880e-002
1.440565e+003, 1.284090e-002
1.442493e+003, 1.268634e-002
1.444422e+003, 1.256857e-002
1.446350e+003, 1.255381e-002
1.448278e+003, 1.269755e-002
1.450207e+003, 1.280649e-002
1.452135e+003, 1.262179e-002
1.454064e+003, 1.263132e-002
1.455992e+003, 1.306237e-002
1.457921e+003, 1.303011e-002
1.459849e+003, 1.274978e-002
1.461778e+003, 1.253193e-002
1.463706e+003, 1.254164e-002
1.465635e+003, 1.266456e-002
1.467563e+003, 1.259641e-002
1.469492e+003, 1.258426e-002
1.471420e+003, 1.264870e-002
1.473349e+003, 1.244140e-002
1.475277e+003, 1.232153e-002
1.477205e+003, 1.242915e-002
1.479134e+003, 1.238877e-002
1.481062e+003, 1.241278e-002
1.482991e+003, 1.249522e-002
1.484919e+003, 1.235999e-002
1.486848e+003, 1.249351e-002
1.488776e+003, 1.260477e-002
1.490705e+003, 1.243770e-002
1.492633e+003, 1.236103e-002
1.494562e+003, 1.261770e-002
1.496490e+003, 1.288379e-002
1.498419e+003, 1.281365e-002
1.500347e+003, 1.262524e-002
1.502276e+003, 1.268131e-002
1.504204e+003, 1.296653e-002
1.506132e+003, 1.335450e-002
1.508061e+003, 1.327104e-002
1.509989e+003, 1.312618e-002
1.511918e+003, 1.311852e-002
1.513846e+003, 1.303446e-002
1.515775e+003, 1.298375e-002
1.517703e+003, 1.306116e-002
1.519632e+003, 1.331349e-002
1.521560e+003, 1.346774e-002
1.523489e+003, 1.342089e-002
1.525417e+003, 1.351726e-002
1.527346e+003, 1.347527e-002
1.529274e+003, 1.343784e-002
1.531203e+003, 1.350278e-002
1.533131e+003, 1.364469e-002
1.535059e+003, 1.368345e-002
1.536988e+003, 1.382765e-002
1.538916e+003, 1.426445e-002
1.540845e+003, 1.433324e-002
1.542773e+003, 1.414519e-002
1.544702e+003, 1.411191e-002
1.546630e+003, 1.400681e-002
1.548559e+003, 1.417246e-002
1.550487e+003, 1.437876e-002
1.552416e+003, 1.437258e-002
1.554344e+003, 1.450914e-002
1.556273e+003, 1.472448e-002
1.558201e+003, 1.499506e-002
1.560130e+003, 1.496040e-002
1.562058e+003, 1.454124e-002
1.563986e+003, 1.457450e-002
1.565915e+003, 1.478477e-002
1.567843e+003, 1.479922e-002
1.569772e+003, 1.487872e-002
1.571700e+003, 1.485927e-002
1.573629e+003, 1.494327e-002
1.575557e+003, 1.525827e-002
1.577486e+003, 1.522848e-002
1.579414e+003, 1.507563e-002
1.581343e+003, 1.526128e-002
1.583271e+003, 1.515520e-002
1.585200e+003, 1.497900e-002
1.587128e+003, 1.507984e-002
1.589057e+003, 1.516339e-002
1.590985e+003, 1.532688e-002
1.592913e+003, 1.544984e-002
1.594842e+003, 1.546590e-002
1.596770e+003, 1.550187e-002
1.598699e+003, 1.566801e-002
1.600627e+003, 1.577203e-002
1.602556e+003, 1.585052e-002
1.604484e+003, 1.598883e-002
1.606413e+003, 1.609700e-002
1.608341e+003, 1.613596e-002
1.610270e+003, 1.626770e-002
1.612198e+003, 1.634624e-002
1.614127e+003, 1.653461e-002
1.616055e+003, 1.684735e-002
1.617984e+003, 1.679718e-002
1.619912e+003, 1.671393e-002
1.621840e+003, 1.677258e-002
1.623769e+003, 1.673639e-002
1.625697e+003, 1.673608e-002
1.627626e+003, 1.681012e-002
1.629554e+003, 1.687655e-002
1.631483e+003, 1.687954e-002
1.633411e+003, 1.690466e-002
1.635340e+003, 1.698506e-002
1.637268e+003, 1.677455e-002
1.639197e+003, 1.650527e-002
1.641125e+003, 1.648741e-002
1.643054e+003, 1.660591e-002
1.644982e+003, 1.663774e-002
1.646911e+003, 1.646532e-002
1.648839e+003, 1.614770e-002
1.650767e+003, 1.617185e-002
1.652696e+003, 1.662081e-002
1.654624e+003, 1.617085e-002
1.656553e+003, 1.548481e-002
1.658481e+003, 1.526971e-002
1.660410e+003, 1.523679e-002
1.662338e+003, 1.513345e-002
1.664267e+003, 1.494140e-002
1.666195e+003, 1.476583e-002
1.668124e+003, 1.472432e-002
1.670052e+003, 1.460160e-002
1.671981e+003, 1.431550e-002
1.673909e+003, 1.420374e-002
1.675838e+003, 1.424707e-002
1.677766e+003, 1.402412e-002
1.679694e+003, 1.387721e-002
1.681623e+003, 1.390849e-002
1.683551e+003, 1.417318e-002
1.685480e+003, 1.410220e-002
1.687408e+003, 1.376442e-002
1.689337e+003, 1.367592e-002
1.691265e+003, 1.370518e-002
1.693194e+003, 1.372123e-002
1.695122e+003, 1.389219e-002
1.697051e+003, 1.387236e-002
1.698979e+003, 1.404178e-002
1.700908e+003, 1.425989e-002
1.702836e+003, 1.410416e-002
1.704765e+003, 1.420364e-002
1.706693e+003, 1.417239e-002
1.708621e+003, 1.410833e-002
1.710550e+003, 1.384514e-002
1.712478e+003, 1.374406e-002
1.714407e+003, 1.366587e-002
1.716335e+003, 1.380204e-002
1.718264e+003, 1.381246e-002
1.720192e+003, 1.351608e-002
1.722121e+003, 1.335870e-002
1.724049e+003, 1.329157e-002
1.725978e+003, 1.315744e-002
1.727906e+003, 1.310516e-002
1.729835e+003, 1.324013e-002
1.731763e+003, 1.334935e-002
1.733692e+003, 1.340885e-002
1.735620e+003, 1.335552e-002
1.737548e+003, 1.311720e-002
1.739477e+003, 1.310210e-002
1.741405e+003, 1.302236e-002
1.743334e+003, 1.289378e-002
1.745262e+003, 1.293288e-002
1.747191e+003, 1.297899e-002
1.749119e+003, 1.290201e-002
1.751048e+003, 1.295508e-002
1.752976e+003, 1.285287e-002
1.754905e+003, 1.285656e-002
1.756833e+003, 1.310695e-002
1.758762e+003, 1.297844e-002
1.760690e+003, 1.282009e-002
1.762619e+003, 1.309985e-002
1.764547e+003, 1.323310e-002
1.766475e+003, 1.321352e-002
1.768404e+003, 1.316781e-002
1.770332e+003, 1.309179e-002
1.772261e+003, 1.312328e-002
1.774189e+003, 1.307485e-002
1.776118e+003, 1.315438e-002
1.778046e+003, 1.324330e-002
1.779975e+003, 1.340499e-002
1.781903e+003, 1.327128e-002
1.783832e+003, 1.314636e-002
1.785760e+003, 1.316486e-002
1.787689e+003, 1.301789e-002
1.789617e+003, 1.294290e-002
1.791546e+003, 1.319181e-002
1.793474e+003, 1.329652e-002
1.795402e+003, 1.318008e-002
1.797331e+003, 1.317045e-002
1.799259e+003, 1.324336e-002
1.801188e+003, 1.333205e-002
1.803116e+003, 1.330551e-002
1.805045e+003, 1.321872e-002
1.806973e+003, 1.325917e-002
1.808902e+003, 1.324920e-002
1.810830e+003, 1.326701e-002
1.812759e+003, 1.322142e-002
1.814687e+003, 1.316549e-002
1.816616e+003, 1.304854e-002
1.818544e+003, 1.309329e-002
1.820473e+003, 1.322065e-002
1.822401e+003, 1.336431e-002
1.824329e+003, 1.344997e-002
1.826258e+003, 1.328895e-002
1.828186e+003, 1.314865e-002
1.830115e+003, 1.329979e-002
1.832043e+003, 1.339593e-002
1.833972e+003, 1.345083e-002
1.835900e+003, 1.340425e-002
1.837829e+003, 1.326262e-002
1.839757e+003, 1.328617e-002
1.841686e+003, 1.361394e-002
1.843614e+003, 1.358683e-002
1.845543e+003, 1.334567e-002
1.847471e+003, 1.338503e-002
1.849400e+003, 1.366064e-002
1.851328e+003, 1.379864e-002
1.853256e+003, 1.356783e-002
1.855185e+003, 1.334751e-002
1.857113e+003, 1.354717e-002
1.859042e+003, 1.381506e-002
1.860970e+003, 1.365029e-002
1.862899e+003, 1.363615e-002
1.864827e+003, 1.369069e-002
1.866756e+003, 1.350379e-002
1.868684e+003, 1.353501e-002
1.870613e+003, 1.371924e-002
1.872541e+003, 1.389743e-002
1.874470e+003, 1.400041e-002
1.876398e+003, 1.376816e-002
1.878327e+003, 1.380340e-002
1.880255e+003, 1.392592e-002
1.882183e+003, 1.372055e-002
1.884112e+003, 1.358624e-002
1.886040e+003, 1.329585e-002
1.887969e+003, 1.338632e-002
1.889897e+003, 1.369235e-002
1.891826e+003, 1.380701e-002
1.893754e+003, 1.380063e-002
1.895683e+003, 1.416424e-002
1.897611e+003, 1.435131e-002
1.899540e+003, 1.414386e-002
1.901468e+003, 1.414604e-002
1.903397e+003, 1.379077e-002
1.905325e+003, 1.372781e-002
1.907254e+003, 1.413481e-002
1.909182e+003, 1.385427e-002
1.911110e+003, 1.358614e-002
1.913039e+003, 1.395824e-002
1.914967e+003, 1.418792e-002
1.916896e+003, 1.418316e-002
1.918824e+003, 1.432209e-002
1.920753e+003, 1.435903e-002
1.922681e+003, 1.418133e-002
1.924610e+003, 1.402215e-002
1.926538e+003, 1.424320e-002
1.928467e+003, 1.464312e-002
1.930395e+003, 1.442541e-002
1.932324e+003, 1.417253e-002
1.934252e+003, 1.409997e-002
1.936181e+003, 1.421194e-002
1.938109e+003, 1.467526e-002
1.940037e+003, 1.476548e-002
1.941966e+003, 1.471303e-002
1.943894e+003, 1.442394e-002
1.945823e+003, 1.431025e-002
1.947751e+003, 1.406374e-002
1.949680e+003, 1.399212e-002
1.951608e+003, 1.436086e-002
1.953537e+003, 1.470054e-002
1.955465e+003, 1.428317e-002
1.957394e+003, 1.461186e-002
1.959322e+003, 1.512507e-002
1.961251e+003, 1.485605e-002
1.963179e+003, 1.448317e-002
1.965108e+003, 1.428762e-002
1.967036e+003, 1.375541e-002
1.968964e+003, 1.404066e-002
1.970893e+003, 1.434790e-002
1.972821e+003, 1.503502e-002
1.974750e+003, 1.549776e-002
1.976678e+003, 1.423381e-002
1.978607e+003, 1.389203e-002
1.980535e+003, 1.466354e-002
1.982464e+003, 1.465884e-002
1.984392e+003, 1.549334e-002
1.986321e+003, 1.518040e-002
1.988249e+003, 1.415850e-002
1.990178e+003, 1.340873e-002
1.992106e+003, 1.361037e-002
1.994035e+003, 1.386723e-002
1.995963e+003, 1.414308e-002
1.997891e+003, 1.440915e-002
1.999820e+003, 1.445237e-002
2.001748e+003, 1.466918e-002
2.003677e+003, 1.405488e-002
2.005605e+003, 1.368673e-002
2.007534e+003, 1.456142e-002
2.009462e+003, 1.441931e-002
2.011391e+003, 1.343605e-002
2.013319e+003, 1.423408e-002
2.015248e+003, 1.456964e-002
2.017176e+003, 1.400365e-002
2.019105e+003, 1.471041e-002
2.021033e+003, 1.448123e-002
2.022962e+003, 1.368373e-002
2.024890e+003, 1.366058e-002
2.026818e+003, 1.367954e-002
2.028747e+003, 1.399924e-002
2.030675e+003, 1.438883e-002
2.032604e+003, 1.418807e-002
2.034532e+003, 1.389028e-002
2.036461e+003, 1.373488e-002
2.038389e+003, 1.382548e-002
2.040318e+003, 1.426566e-002
2.042246e+003, 1.382626e-002
2.044175e+003, 1.312350e-002
2.046103e+003, 1.366842e-002
2.048031e+003, 1.335730e-002
2.049960e+003, 1.347111e-002
2.051888e+003, 1.469895e-002
2.053817e+003, 1.458650e-002
2.055745e+003, 1.385657e-002
2.057674e+003, 1.448521e-002
2.059602e+003, 1.492705e-002
2.061531e+003, 1.468150e-002
2.063459e+003, 1.448117e-002
2.065388e+003, 1.421569e-002
2.067316e+003, 1.333454e-002
2.069245e+003, 1.347500e-002
2.071173e+003, 1.433603e-002
2.073102e+003, 1.425183e-002
2.075030e+003, 1.435382e-002
2.076958e+003, 1.472388e-002
2.078887e+003, 1.474969e-002
2.080815e+003, 1.425765e-002
2.082744e+003, 1.410661e-002
2.084672e+003, 1.439367e-002
2.086601e+003, 1.416854e-002
2.088529e+003, 1.436380e-002
2.090458e+003, 1.465603e-002
2.092386e+003, 1.447431e-002
2.094315e+003, 1.437020e-002
2.096243e+003, 1.402267e-002
2.098172e+003, 1.437816e-002
2.100100e+003, 1.490602e-002
2.102029e+003, 1.468136e-002
2.103957e+003, 1.435542e-002
2.105885e+003, 1.518867e-002
2.107814e+003, 1.542540e-002
2.109742e+003, 1.407193e-002
2.111671e+003, 1.406750e-002
2.113599e+003, 1.428172e-002
2.115528e+003, 1.421551e-002
2.117456e+003, 1.461111e-002
2.119385e+003, 1.453925e-002
2.121313e+003, 1.484253e-002
2.123242e+003, 1.555321e-002
2.125170e+003, 1.512714e-002
2.127099e+003, 1.499129e-002
2.129027e+003, 1.581762e-002
2.130956e+003, 1.635059e-002
2.132884e+003, 1.672139e-002
2.134813e+003, 1.659287e-002
2.136741e+003, 1.595348e-002
2.138669e+003, 1.575334e-002
2.140598e+003, 1.603675e-002
2.142526e+003, 1.627990e-002
2.144455e+003, 1.614168e-002
2.146383e+003, 1.555209e-002
2.148312e+003, 1.512585e-002
2.150240e+003, 1.559129e-002
2.152169e+003, 1.645333e-002
2.154097e+003, 1.634683e-002
2.156026e+003, 1.621697e-002
2.157954e+003, 1.619981e-002
2.159883e+003, 1.442961e-002
2.161811e+003, 1.334819e-002
2.163740e+003, 1.385533e-002
2.165668e+003, 1.513829e-002
2.167596e+003, 1.495425e-002
2.169525e+003, 1.543715e-002
2.171453e+003, 1.580478e-002
2.173382e+003, 1.594309e-002
2.175310e+003, 1.553332e-002
2.177239e+003, 1.534251e-002
2.179167e+003, 1.534082e-002
2.181096e+003, 1.558723e-002
2.183024e+003, 1.597277e-002
2.184953e+003, 1.550651e-002
2.186881e+003, 1.485656e-002
2.188810e+003, 1.538098e-002
2.190738e+003, 1.530026e-002
2.192667e+003, 1.429028e-002
2.194595e+003, 1.457080e-002
2.196523e+003, 1.586459e-002
2.198452e+003, 1.640888e-002
2.200380e+003, 1.620225e-002
2.202309e+003, 1.624921e-002
2.204237e+003, 1.639456e-002
2.206166e+003, 1.623157e-002
2.208094e+003, 1.542362e-002
2.210023e+003, 1.608422e-002
2.211951e+003, 1.661313e-002
2.213880e+003, 1.568429e-002
2.215808e+003, 1.615389e-002
2.217737e+003, 1.651909e-002
2.219665e+003, 1.712978e-002
2.221594e+003, 1.693376e-002
2.223522e+003, 1.611494e-002
2.225450e+003, 1.643400e-002
2.227379e+003, 1.673122e-002
2.229307e+003, 1.597459e-002
2.231236e+003, 1.559879e-002
2.233164e+003, 1.634610e-002
2.235093e+003, 1.686935e-002
2.237021e+003, 1.755084e-002
2.238950e+003, 1.769722e-002
2.240878e+003, 1.649599e-002
2.242807e+003, 1.617479e-002
2.244735e+003, 1.681140e-002
2.246664e+003, 1.640230e-002
2.248592e+003, 1.661660e-002
2.250521e+003, 1.738033e-002
2.252449e+003, 1.691099e-002
2.254377e+003, 1.610330e-002
2.256306e+003, 1.615122e-002
2.258234e+003, 1.650255e-002
2.260163e+003, 1.644227e-002
2.262091e+003, 1.642896e-002
2.264020e+003, 1.636511e-002
2.265948e+003, 1.628297e-002
2.267877e+003, 1.636541e-002
2.269805e+003, 1.617329e-002
2.271734e+003, 1.590417e-002
2.273662e+003, 1.647666e-002
2.275591e+003, 1.697716e-002
2.277519e+003, 1.707186e-002
2.279448e+003, 1.671513e-002
2.281376e+003, 1.631347e-002
2.283304e+003, 1.633089e-002
2.285233e+003, 1.680284e-002
2.287161e+003, 1.687935e-002
2.289090e+003, 1.661665e-002
2.291018e+003, 1.696171e-002
2.292947e+003, 1.760350e-002
2.294875e+003, 1.751360e-002
2.296804e+003, 1.708399e-002
2.298732e+003, 1.694977e-002
2.300661e+003, 1.688410e-002
2.302589e+003, 1.706633e-002
2.304518e+003, 1.708121e-002
2.306446e+003, 1.684524e-002
2.308375e+003, 1.694224e-002
2.310303e+003, 1.710724e-002
2.312231e+003, 1.709376e-002
2.314160e+003, 1.726189e-002
2.316088e+003, 1.735589e-002
2.318017e+003, 1.740128e-002
2.319945e+003, 1.725615e-002
2.321874e+003, 1.700253e-002
2.323802e+003, 1.704045e-002
2.325731e+003, 1.758325e-002
2.327659e+003, 1.807322e-002
2.329588e+003, 1.830673e-002
2.331516e+003, 1.814329e-002
2.333445e+003, 1.804178e-002
2.335373e+003, 1.824838e-002
2.337302e+003, 1.841935e-002
2.339230e+003, 1.850195e-002
2.341158e+003, 1.840049e-002
2.343087e+003, 1.843381e-002
2.345015e+003, 1.849582e-002
2.346944e+003, 1.829737e-002
2.348872e+003, 1.797950e-002
2.350801e+003, 1.805039e-002
2.352729e+003, 1.815509e-002
2.354658e+003, 1.834929e-002
2.356586e+003, 1.845846e-002
2.358515e+003, 1.863575e-002
2.360443e+003, 1.896568e-002
2.362372e+003, 1.916596e-002
2.364300e+003, 1.922266e-002
2.366229e+003, 1.914147e-002
2.368157e+003, 1.878629e-002
2.370085e+003, 1.868968e-002
2.372014e+003, 1.876584e-002
2.373942e+003, 1.894148e-002
2.375871e+003, 1.913197e-002
2.377799e+003, 1.883330e-002
2.379728e+003, 1.837081e-002
2.381656e+003, 1.818672e-002
2.383585e+003, 1.822389e-002
2.385513e+003, 1.814863e-002
2.387442e+003, 1.816431e-002
2.389370e+003, 1.836380e-002
2.391299e+003, 1.842769e-002
2.393227e+003, 1.862882e-002
2.395156e+003, 1.877501e-002
2.397084e+003, 1.858816e-002
2.399012e+003, 1.841721e-002
2.400941e+003, 1.850771e-002
2.402869e+003, 1.834037e-002
2.404798e+003, 1.834924e-002
2.406726e+003, 1.807412e-002
2.408655e+003, 1.799564e-002
2.410583e+003, 1.854898e-002
2.412512e+003, 1.856104e-002
2.414440e+003, 1.865940e-002
2.416369e+003, 1.875827e-002
2.418297e+003, 1.876974e-002
2.420226e+003, 1.881832e-002
2.422154e+003, 1.883411e-002
2.424083e+003, 1.884617e-002
2.426011e+003, 1.862448e-002
2.427939e+003, 1.882964e-002
2.429868e+003, 1.913140e-002
2.431796e+003, 1.902767e-002
2.433725e+003, 1.882333e-002
2.435653e+003, 1.876896e-002
2.437582e+003, 1.889627e-002
2.439510e+003, 1.904690e-002
2.441439e+003, 1.903145e-002
2.443367e+003, 1.886885e-002
2.445296e+003, 1.896001e-002
2.447224e+003, 1.874681e-002
2.449153e+003, 1.862677e-002
2.451081e+003, 1.910384e-002
2.453010e+003, 1.916221e-002
2.454938e+003, 1.871531e-002
2.456866e+003, 1.847809e-002
2.458795e+003, 1.932968e-002
2.460723e+003, 1.970511e-002
2.462652e+003, 1.936287e-002
2.464580e+003, 1.943696e-002
2.466509e+003, 1.996691e-002
2.468437e+003, 2.024025e-002
2.470366e+003, 1.986250e-002
2.472294e+003, 1.916133e-002
2.474223e+003, 1.886500e-002
2.476151e+003, 1.917572e-002
2.478080e+003, 1.953697e-002
2.480008e+003, 1.983460e-002
2.481937e+003, 1.997582e-002
2.483865e+003, 1.979918e-002
2.485793e+003, 1.966982e-002
2.487722e+003, 1.989099e-002
2.489650e+003, 2.018824e-002
2.491579e+003, 2.007374e-002
2.493507e+003, 2.010988e-002
2.495436e+003, 2.019489e-002
2.497364e+003, 2.001635e-002
2.499293e+003, 1.998547e-002
2.501221e+003, 1.985045e-002
2.503150e+003, 2.007481e-002
2.505078e+003, 2.027094e-002
2.507007e+003, 1.985247e-002
2.508935e+003, 1.975927e-002
2.510864e+003, 2.017615e-002
2.512792e+003, 2.029441e-002
2.514720e+003, 2.029478e-002
2.516649e+003, 2.016608e-002
2.518577e+003, 2.000829e-002
2.520506e+003, 1.980816e-002
2.522434e+003, 1.968347e-002
2.524363e+003, 1.997845e-002
2.526291e+003, 2.040234e-002
2.528220e+003, 2.014269e-002
2.530148e+003, 1.996440e-002
2.532077e+003, 2.006905e-002
2.534005e+003, 2.010833e-002
2.535934e+003, 2.003898e-002
2.537862e+003, 2.024381e-002
2.539791e+003, 2.047167e-002
2.541719e+003, 2.041375e-002
2.543647e+003, 2.037221e-002
2.545576e+003, 2.038076e-002
2.547504e+003, 2.059919e-002
2.549433e+003, 2.072569e-002
2.551361e+003, 2.048987e-002
2.553290e+003, 2.050205e-002
2.555218e+003, 2.042998e-002
2.557147e+003, 2.039869e-002
2.559075e+003, 2.085182e-002
2.561004e+003, 2.117207e-002
2.562932e+003, 2.078076e-002
2.564861e+003, 2.047242e-002
2.566789e+003, 2.051022e-002
2.568718e+003, 2.048166e-002
2.570646e+003, 2.065231e-002
2.572574e+003, 2.089287e-002
2.574503e+003, 2.064832e-002
2.576431e+003, 2.053255e-002
2.578360e+003, 2.044131e-002
2.580288e+003, 2.084148e-002
2.582217e+003, 2.098910e-002
2.584145e+003, 2.098826e-002
2.586074e+003, 2.132051e-002
2.588002e+003, 2.134827e-002
2.589931e+003, 2.111746e-002
2.591859e+003, 2.094574e-002
2.593788e+003, 2.054759e-002
2.595716e+003, 2.057765e-002
2.597645e+003, 2.104284e-002
2.599573e+003, 2.109855e-002
2.601501e+003, 2.132787e-002
2.603430e+003, 2.151086e-002
2.605358e+003, 2.113971e-002
2.607287e+003, 2.074560e-002
2.609215e+003, 2.080151e-002
2.611144e+003, 2.115230e-002
2.613072e+003, 2.143150e-002
2.615001e+003, 2.135538e-002
2.616929e+003, 2.149384e-002
2.618858e+003, 2.149984e-002
2.620786e+003, 2.154963e-002
2.622715e+003, 2.175429e-002
2.624643e+003, 2.158422e-002
2.626572e+003, 2.129854e-002
2.628500e+003, 2.141408e-002
2.630428e+003, 2.163164e-002
2.632357e+003, 2.152615e-002
2.634285e+003, 2.164054e-002
2.636214e+003, 2.164701e-002
2.638142e+003, 2.163734e-002
2.640071e+003, 2.169807e-002
2.641999e+003, 2.179526e-002
2.643928e+003, 2.191159e-002
2.645856e+003, 2.198634e-002
2.647785e+003, 2.160609e-002
2.649713e+003, 2.170455e-002
2.651642e+003, 2.232034e-002
2.653570e+003, 2.221267e-002
2.655499e+003, 2.199846e-002
2.657427e+003, 2.221556e-002
2.659355e+003, 2.224414e-002
2.661284e+003, 2.224991e-002
2.663212e+003, 2.247815e-002
2.665141e+003, 2.267981e-002
2.667069e+003, 2.254787e-002
2.668998e+003, 2.248895e-002
2.670926e+003, 2.250157e-002
2.672855e+003, 2.265541e-002
2.674783e+003, 2.275912e-002
2.676712e+003, 2.270823e-002
2.678640e+003, 2.281325e-002
2.680569e+003, 2.283835e-002
2.682497e+003, 2.286228e-002
2.684426e+003, 2.290664e-002
2.686354e+003, 2.277076e-002
2.688282e+003, 2.258492e-002
2.690211e+003, 2.268326e-002
2.692139e+003, 2.286885e-002
2.694068e+003, 2.297997e-002
2.695996e+003, 2.307465e-002
2.697925e+003, 2.296861e-002
2.699853e+003, 2.292571e-002
2.701782e+003, 2.309452e-002
2.703710e+003, 2.334609e-002
2.705639e+003, 2.339390e-002
2.707567e+003, 2.335062e-002
2.709496e+003, 2.343380e-002
2.711424e+003, 2.344505e-002
2.713353e+003, 2.357717e-002
2.715281e+003, 2.348423e-002
2.717209e+003, 2.340804e-002
2.719138e+003, 2.341654e-002
2.721066e+003, 2.330815e-002
2.722995e+003, 2.345247e-002
2.724923e+003, 2.350359e-002
2.726852e+003, 2.355375e-002
2.728780e+003, 2.362877e-002
2.730709e+003, 2.385176e-002
2.732637e+003, 2.401870e-002
2.734566e+003, 2.372696e-002
2.736494e+003, 2.349496e-002
2.738423e+003, 2.379231e-002
2.740351e+003, 2.419622e-002
2.742280e+003, 2.429743e-002
2.744208e+003, 2.439523e-002
2.746136e+003, 2.453792e-002
2.748065e+003, 2.440364e-002
2.749993e+003, 2.418426e-002
2.751922e+003, 2.427760e-002
2.753850e+003, 2.440083e-002
2.755779e+003, 2.451221e-002
2.757707e+003, 2.440382e-002
2.759636e+003, 2.433240e-002
2.761564e+003, 2.444799e-002
2.763493e+003, 2.467597e-002
2.765421e+003, 2.465754e-002
2.767350e+003, 2.455295e-002
2.769278e+003, 2.467466e-002
2.771207e+003, 2.475546e-002
2.773135e+003, 2.484188e-002
2.775063e+003, 2.496755e-002
2.776992e+003, 2.490870e-002
2.778920e+003, 2.494233e-002
2.780849e+003, 2.504644e-002
2.782777e+003, 2.513665e-002
2.784706e+003, 2.534022e-002
2.786634e+003, 2.533464e-002
2.788563e+003, 2.517073e-002
2.790491e+003, 2.550327e-002
2.792420e+003, 2.561575e-002
2.794348e+003, 2.569214e-002
2.796277e+003, 2.577354e-002
2.798205e+003, 2.562121e-002
2.800134e+003, 2.562748e-002
2.802062e+003, 2.567137e-002
2.803990e+003, 2.569139e-002
2.805919e+003, 2.572271e-002
2.807847e+003, 2.587397e-002
2.809776e+003, 2.565772e-002
2.811704e+003, 2.560176e-002
2.813633e+003, 2.591493e-002
2.815561e+003, 2.607752e-002
2.817490e+003, 2.616241e-002
2.819418e+003, 2.612800e-002
2.821347e+003, 2.639407e-002
2.823275e+003, 2.658749e-002
2.825204e+003, 2.642236e-002
2.827132e+003, 2.634007e-002
2.829061e+003, 2.651595e-002
2.830989e+003, 2.663321e-002
2.832917e+003, 2.684626e-002
2.834846e+003, 2.703905e-002
2.836774e+003, 2.736655e-002
2.838703e+003, 2.745909e-002
2.840631e+003, 2.729757e-002
2.842560e+003, 2.730964e-002
2.844488e+003, 2.741535e-002
2.846417e+003, 2.761724e-002
2.848345e+003, 2.770840e-002
2.850274e+003, 2.785772e-002
2.852202e+003, 2.802522e-002
2.854131e+003, 2.813759e-002
2.856059e+003, 2.817933e-002
2.857988e+003, 2.800596e-002
2.859916e+003, 2.783915e-002
2.861844e+003, 2.802519e-002
2.863773e+003, 2.823196e-002
2.865701e+003, 2.809826e-002
2.867630e+003, 2.793009e-002
2.869558e+003, 2.770443e-002
2.871487e+003, 2.814393e-002
2.873415e+003, 2.838847e-002
2.875344e+003, 2.824990e-002
2.877272e+003, 2.824504e-002
2.879201e+003, 2.827927e-002
2.881129e+003, 2.824575e-002
2.883058e+003, 2.811858e-002
2.884986e+003, 2.807186e-002
2.886915e+003, 2.829996e-002
2.888843e+003, 2.850389e-002
2.890771e+003, 2.862530e-002
2.892700e+003, 2.867438e-002
2.894628e+003, 2.883724e-002
2.896557e+003, 2.906532e-002
2.898485e+003, 2.911030e-002
2.900414e+003, 2.936059e-002
2.902342e+003, 2.955403e-002
2.904271e+003, 2.973690e-002
2.906199e+003, 3.002866e-002
2.908128e+003, 3.011704e-002
2.910056e+003, 3.008319e-002
2.911985e+003, 3.000024e-002
2.913913e+003, 3.004115e-002
2.915842e+003, 3.032518e-002
2.917770e+003, 3.095226e-002
2.919698e+003, 3.124633e-002
2.921627e+003, 3.143196e-002
2.923555e+003, 3.140701e-002
2.925484e+003, 3.151465e-002
2.927412e+003, 3.148071e-002
2.929341e+003, 3.119622e-002
2.931269e+003, 3.089170e-002
2.933198e+003, 3.060505e-002
2.935126e+003, 3.048161e-002
2.937055e+003, 3.023502e-002
2.938983e+003, 3.007379e-002
2.940912e+003, 3.002707e-002
2.942840e+003, 3.011761e-002
2.944769e+003, 3.054737e-002
2.946697e+003, 3.062645e-002
2.948625e+003, 3.068430e-002
2.950554e+003, 3.105406e-002
2.952482e+003, 3.098173e-002
2.954411e+003, 3.064388e-002
2.956339e+003, 3.064420e-002
2.958268e+003, 3.071185e-002
2.960196e+003, 3.054050e-002
2.962125e+003, 3.050962e-002
2.964053e+003, 3.031930e-002
2.965982e+003, 3.031285e-002
2.967910e+003, 3.064357e-002
2.969839e+003, 3.027284e-002
2.971767e+003, 3.003263e-002
2.973696e+003, 3.011129e-002
2.975624e+003, 2.983665e-002
2.977552e+003, 3.002963e-002
2.979481e+003, 3.008281e-002
2.981409e+003, 3.002725e-002
2.983338e+003, 3.011372e-002
2.985266e+003, 3.010209e-002
2.987195e+003, 2.988023e-002
2.989123e+003, 3.016750e-002
2.991052e+003, 3.037349e-002
2.992980e+003, 3.015076e-002
2.994909e+003, 3.033522e-002
2.996837e+003, 3.073837e-002
2.998766e+003, 3.119658e-002
3.000694e+003, 3.102081e-002
3.002623e+003, 3.062877e-002
3.004551e+003, 3.077246e-002
3.006479e+003, 3.056742e-002
3.008408e+003, 3.035233e-002
3.010336e+003, 3.081521e-002
3.012265e+003, 3.119724e-002
3.014193e+003, 3.140980e-002
3.016122e+003, 3.192673e-002
3.018050e+003, 3.205544e-002
3.019979e+003, 3.142134e-002
3.021907e+003, 3.112863e-002
3.023836e+003, 3.110036e-002
3.025764e+003, 3.122448e-002
3.027693e+003, 3.149885e-002
3.029621e+003, 3.165668e-002
3.031550e+003, 3.163431e-002
3.033478e+003, 3.196002e-002
3.035406e+003, 3.261976e-002
3.037335e+003, 3.266346e-002
3.039263e+003, 3.232686e-002
3.041192e+003, 3.226732e-002
3.043120e+003, 3.208744e-002
3.045049e+003, 3.211674e-002
3.046977e+003, 3.238234e-002
3.048906e+003, 3.242880e-002
3.050834e+003, 3.242515e-002
3.052763e+003, 3.250192e-002
3.054691e+003, 3.296448e-002
3.056620e+003, 3.312554e-002
3.058548e+003, 3.282831e-002
3.060477e+003, 3.272344e-002
3.062405e+003, 3.284222e-002
3.064333e+003, 3.285414e-002
3.066262e+003, 3.321962e-002
3.068190e+003, 3.328970e-002
3.070119e+003, 3.284895e-002
3.072047e+003, 3.292747e-002
3.073976e+003, 3.345078e-002
3.075904e+003, 3.357072e-002
3.077833e+003, 3.356089e-002
3.079761e+003, 3.379769e-002
3.081690e+003, 3.356962e-002
3.083618e+003, 3.362790e-002
3.085547e+003, 3.402878e-002
3.087475e+003, 3.414458e-002
3.089404e+003, 3.420421e-002
3.091332e+003, 3.444085e-002
3.093260e+003, 3.448892e-002
3.095189e+003, 3.476707e-002
3.097117e+003, 3.484125e-002
3.099046e+003, 3.504366e-002
3.100974e+003, 3.493702e-002
3.102903e+003, 3.505474e-002
3.104831e+003, 3.532064e-002
3.106760e+003, 3.528054e-002
3.108688e+003, 3.526932e-002
3.110617e+003, 3.540333e-002
3.112545e+003, 3.528244e-002
3.114474e+003, 3.508928e-002
3.116402e+003, 3.536693e-002
3.118331e+003, 3.570744e-002
3.120259e+003, 3.598353e-002
3.122188e+003, 3.600118e-002
3.124116e+003, 3.624229e-002
3.126044e+003, 3.615231e-002
3.127973e+003, 3.582264e-002
3.129901e+003, 3.564359e-002
3.131830e+003, 3.584984e-002
3.133758e+003, 3.622544e-002
3.135687e+003, 3.615809e-002
3.137615e+003, 3.622974e-002
3.139544e+003, 3.661706e-002
3.141472e+003, 3.682014e-002
3.143401e+003, 3.644570e-002
3.145329e+003, 3.669605e-002
3.147258e+003, 3.694896e-002
3.149186e+003, 3.648068e-002
3.151115e+003, 3.660251e-002
3.153043e+003, 3.693342e-002
3.154971e+003, 3.679652e-002
3.156900e+003, 3.683532e-002
3.158828e+003, 3.700393e-002
3.160757e+003, 3.732886e-002
3.162685e+003, 3.741074e-002
3.164614e+003, 3.708027e-002
3.166542e+003, 3.732501e-002
3.168471e+003, 3.758798e-002
3.170399e+003, 3.755955e-002
3.172328e+003, 3.694382e-002
3.174256e+003, 3.665883e-002
3.176185e+003, 3.685131e-002
3.178113e+003, 3.711195e-002
3.180042e+003, 3.751117e-002
3.181970e+003, 3.759846e-002
3.183898e+003, 3.743555e-002
3.185827e+003, 3.724023e-002
3.187755e+003, 3.734868e-002
3.189684e+003, 3.717985e-002
3.191612e+003, 3.664506e-002
3.193541e+003, 3.656006e-002
3.195469e+003, 3.733490e-002
3.197398e+003, 3.790929e-002
3.199326e+003, 3.757399e-002
3.201255e+003, 3.750301e-002
3.203183e+003, 3.753900e-002
3.205112e+003, 3.794327e-002
3.207040e+003, 3.775807e-002
3.208969e+003, 3.749882e-002
3.210897e+003, 3.763412e-002
3.212825e+003, 3.731280e-002
3.214754e+003, 3.699334e-002
3.216682e+003, 3.739806e-002
3.218611e+003, 3.766936e-002
3.220539e+003, 3.780121e-002
3.222468e+003, 3.775636e-002
3.224396e+003, 3.795039e-002
3.226325e+003, 3.800921e-002
3.228253e+003, 3.779200e-002
3.230182e+003, 3.702334e-002
3.232110e+003, 3.686852e-002
3.234039e+003, 3.712087e-002
3.235967e+003, 3.723790e-002
3.237896e+003, 3.726117e-002
3.239824e+003, 3.713663e-002
3.241752e+003, 3.752369e-002
3.243681e+003, 3.779780e-002
3.245609e+003, 3.786312e-002
3.247538e+003, 3.800453e-002
3.249466e+003, 3.838240e-002
3.251395e+003, 3.830896e-002
3.253323e+003, 3.842504e-002
3.255252e+003, 3.846320e-002
3.257180e+003, 3.806849e-002
3.259109e+003, 3.770613e-002
3.261037e+003, 3.784594e-002
3.262966e+003, 3.821491e-002
3.264894e+003, 3.834505e-002
3.266823e+003, 3.818932e-002
3.268751e+003, 3.807400e-002
3.270679e+003, 3.811938e-002
3.272608e+003, 3.827895e-002
3.274536e+003, 3.822793e-002
3.276465e+003, 3.850036e-002
3.278393e+003, 3.865828e-002
3.280322e+003, 3.807101e-002
3.282250e+003, 3.817626e-002
3.284179e+003, 3.866338e-002
3.286107e+003, 3.907577e-002
3.288036e+003, 3.906363e-002
3.289964e+003, 3.917873e-002
3.291893e+003, 3.898432e-002
3.293821e+003, 3.868777e-002
3.295750e+003, 3.902626e-002
3.297678e+003, 3.959983e-002
3.299606e+003, 3.986710e-002
3.301535e+003, 3.986857e-002
3.303463e+003, 3.939280e-002
3.305392e+003, 3.907564e-002
3.307320e+003, 3.911012e-002
3.309249e+003, 3.914091e-002
3.311177e+003, 3.897149e-002
3.313106e+003, 3.855018e-002
3.315034e+003, 3.874286e-002
3.316963e+003, 3.884588e-002
3.318891e+003, 3.920684e-002
3.320820e+003, 3.973543e-002
3.322748e+003, 3.990358e-002
3.324677e+003, 3.941799e-002
3.326605e+003, 3.884820e-002
3.328533e+003, 3.864130e-002
3.330462e+003, 3.830488e-002
3.332390e+003, 3.817943e-002
3.334319e+003, 3.790661e-002
3.336247e+003, 3.753017e-002
3.338176e+003, 3.754980e-002
3.340104e+003, 3.700258e-002
3.342033e+003, 3.665967e-002
3.343961e+003, 3.704686e-002
3.345890e+003, 3.787361e-002
3.347818e+003, 3.800211e-002
3.349747e+003, 3.727908e-002
3.351675e+003, 3.677959e-002
3.353604e+003, 3.695162e-002
3.355532e+003, 3.712282e-002
3.357460e+003, 3.724627e-002
3.359389e+003, 3.721273e-002
3.361317e+003, 3.718425e-002
3.363246e+003, 3.747343e-002
3.365174e+003, 3.784065e-002
3.367103e+003, 3.807952e-002
3.369031e+003, 3.836474e-002
3.370960e+003, 3.851225e-002
3.372888e+003, 3.849961e-002
3.374817e+003, 3.905103e-002
3.376745e+003, 3.872130e-002
3.378674e+003, 3.833368e-002
3.380602e+003, 3.876285e-002
3.382531e+003, 3.886780e-002
3.384459e+003, 3.876892e-002
3.386387e+003, 3.892268e-002
3.388316e+003, 3.906092e-002
3.390244e+003, 3.849817e-002
3.392173e+003, 3.815379e-002
3.394101e+003, 3.837133e-002
3.396030e+003, 3.852605e-002
3.397958e+003, 3.766444e-002
3.399887e+003, 3.669679e-002
3.401815e+003, 3.636554e-002
3.403744e+003, 3.646971e-002
3.405672e+003, 3.611589e-002
3.407601e+003, 3.554638e-002
3.409529e+003, 3.592491e-002
3.411458e+003, 3.594555e-002
3.413386e+003, 3.519977e-002
3.415314e+003, 3.494247e-002
3.417243e+003, 3.469720e-002
3.419171e+003, 3.432043e-002
3.421100e+003, 3.350455e-002
3.423028e+003, 3.265642e-002
3.424957e+003, 3.257110e-002
3.426885e+003, 3.287019e-002
3.428814e+003, 3.256083e-002
3.430742e+003, 3.182828e-002
3.432671e+003, 3.119516e-002
3.434599e+003, 3.063254e-002
3.436528e+003, 3.066426e-002
3.438456e+003, 3.080402e-002
3.440385e+003, 3.062638e-002
3.442313e+003, 3.019434e-002
3.444241e+003, 2.937129e-002
3.446170e+003, 2.881525e-002
3.448098e+003, 2.920352e-002
3.450027e+003, 2.945427e-002
3.451955e+003, 2.915755e-002
3.453884e+003, 2.821041e-002
3.455812e+003, 2.790800e-002
3.457741e+003, 2.822133e-002
3.459669e+003, 2.758985e-002
3.461598e+003, 2.704924e-002
3.463526e+003, 2.700377e-002
3.465455e+003, 2.698558e-002
3.467383e+003, 2.660470e-002
3.469312e+003, 2.624794e-002
3.471240e+003, 2.684793e-002
3.473168e+003, 2.691882e-002
3.475097e+003, 2.650867e-002
3.477025e+003, 2.612747e-002
3.478954e+003, 2.516189e-002
3.480882e+003, 2.450611e-002
3.482811e+003, 2.461057e-002
3.484739e+003, 2.457149e-002
3.486668e+003, 2.453129e-002
3.488596e+003, 2.445521e-002
3.490525e+003, 2.462539e-002
3.492453e+003, 2.479882e-002
3.494382e+003, 2.437969e-002
3.496310e+003, 2.403954e-002
3.498239e+003, 2.415806e-002
3.500167e+003, 2.399840e-002
3.502095e+003, 2.360731e-002
3.504024e+003, 2.398376e-002
3.505952e+003, 2.411283e-002
3.507881e+003, 2.384813e-002
3.509809e+003, 2.400441e-002
3.511738e+003, 2.415363e-002
3.513666e+003, 2.434632e-002
3.515595e+003, 2.393671e-002
3.517523e+003, 2.323231e-002
3.519452e+003, 2.223920e-002
3.521380e+003, 2.161139e-002
3.523309e+003, 2.241113e-002
3.525237e+003, 2.308468e-002
3.527166e+003, 2.338788e-002
3.529094e+003, 2.391638e-002
3.531022e+003, 2.343777e-002
3.532951e+003, 2.274383e-002
3.534879e+003, 2.230921e-002
3.536808e+003, 2.173362e-002
3.538736e+003, 2.140002e-002
3.540665e+003, 2.156585e-002
3.542593e+003, 2.145688e-002
3.544522e+003, 2.158204e-002
3.546450e+003, 2.187061e-002
3.548379e+003, 2.187856e-002
3.550307e+003, 2.232027e-002
3.552236e+003, 2.232485e-002
3.554164e+003, 2.179259e-002
3.556093e+003, 2.158201e-002
3.558021e+003, 2.170262e-002
3.559949e+003, 2.240450e-002
3.561878e+003, 2.254355e-002
3.563806e+003, 2.210314e-002
3.565735e+003, 2.163913e-002
3.567663e+003, 2.101897e-002
3.569592e+003, 2.081141e-002
3.571520e+003, 2.089556e-002
3.573449e+003, 2.082234e-002
3.575377e+003, 2.030621e-002
3.577306e+003, 2.014038e-002
3.579234e+003, 1.988873e-002
3.581163e+003, 2.010761e-002
3.583091e+003, 2.006815e-002
3.585020e+003, 2.049315e-002
3.586948e+003, 2.099063e-002
3.588876e+003, 2.062288e-002
3.590805e+003, 1.972735e-002
3.592733e+003, 1.950780e-002
3.594662e+003, 2.056314e-002
3.596590e+003, 2.144730e-002
3.598519e+003, 2.073162e-002
3.600447e+003, 1.992462e-002
3.602376e+003, 2.048652e-002
3.604304e+003, 2.025851e-002
3.606233e+003, 1.988566e-002
3.608161e+003, 2.017309e-002
3.610090e+003, 1.965337e-002
3.612018e+003, 1.940634e-002
3.613947e+003, 1.924793e-002
3.615875e+003, 1.924909e-002
3.617803e+003, 2.005111e-002
3.619732e+003, 2.105176e-002
3.621660e+003, 2.020408e-002
3.623589e+003, 1.944276e-002
3.625517e+003, 1.938839e-002
3.627446e+003, 2.007537e-002
3.629374e+003, 2.011161e-002
3.631303e+003, 1.958275e-002
3.633231e+003, 1.905059e-002
3.635160e+003, 1.917162e-002
3.637088e+003, 1.937843e-002
3.639017e+003, 1.896177e-002
3.640945e+003, 1.903004e-002
3.642874e+003, 1.962379e-002
3.644802e+003, 1.934280e-002
3.646730e+003, 1.959718e-002
3.648659e+003, 2.010957e-002
3.650587e+003, 1.942501e-002
3.652516e+003, 1.863471e-002
3.654444e+003, 1.783307e-002
3.656373e+003, 1.730898e-002
3.658301e+003, 1.720291e-002
3.660230e+003, 1.681455e-002
3.662158e+003, 1.716679e-002
3.664087e+003, 1.817669e-002
3.666015e+003, 1.851236e-002
3.667944e+003, 1.812166e-002
3.669872e+003, 1.837004e-002
3.671801e+003, 1.847739e-002
3.673729e+003, 1.884178e-002
3.675657e+003, 1.891241e-002
3.677586e+003, 1.765069e-002
3.679514e+003, 1.754862e-002
3.681443e+003, 1.830632e-002
3.683371e+003, 1.852812e-002
3.685300e+003, 1.777938e-002
3.687228e+003, 1.827794e-002
3.689157e+003, 1.878669e-002
3.691085e+003, 1.753656e-002
3.693014e+003, 1.658069e-002
3.694942e+003, 1.689725e-002
3.696871e+003, 1.802325e-002
3.698799e+003, 1.851955e-002
3.700728e+003, 1.828943e-002
3.702656e+003, 1.825415e-002
3.704584e+003, 1.786716e-002
3.706513e+003, 1.766411e-002
3.708441e+003, 1.811585e-002
3.710370e+003, 1.835727e-002
3.712298e+003, 1.834676e-002
3.714227e+003, 1.834234e-002
3.716155e+003, 1.809008e-002
3.718084e+003, 1.817969e-002
3.720012e+003, 1.817390e-002
3.721941e+003, 1.768563e-002
3.723869e+003, 1.851730e-002
3.725798e+003, 1.925641e-002
3.727726e+003, 1.929248e-002
3.729655e+003, 1.893156e-002
3.731583e+003, 1.899626e-002
3.733511e+003, 1.964477e-002
3.735440e+003, 1.988568e-002
3.737368e+003, 1.921773e-002
3.739297e+003, 1.875940e-002
3.741225e+003, 1.920111e-002
3.743154e+003, 1.974367e-002
3.745082e+003, 1.963198e-002
3.747011e+003, 1.925192e-002
3.748939e+003, 1.941616e-002
3.750868e+003, 1.966283e-002
3.752796e+003, 1.947873e-002
3.754725e+003, 1.908284e-002
3.756653e+003, 1.905785e-002
3.758582e+003, 1.885971e-002
3.760510e+003, 1.894939e-002
3.762438e+003, 1.920591e-002
3.764367e+003, 1.892195e-002
3.766295e+003, 1.856970e-002
3.768224e+003, 1.852223e-002
3.770152e+003, 1.891264e-002
3.772081e+003, 1.913471e-002
3.774009e+003, 1.933525e-002
3.775938e+003, 1.889119e-002
3.777866e+003, 1.836311e-002
3.779795e+003, 1.842527e-002
3.781723e+003, 1.829551e-002
3.783652e+003, 1.826563e-002
3.785580e+003, 1.841456e-002
3.787509e+003, 1.826350e-002
3.789437e+003, 1.840024e-002
3.791365e+003, 1.848796e-002
3.793294e+003, 1.838840e-002
3.795222e+003, 1.865067e-002
3.797151e+003, 1.853809e-002
3.799079e+003, 1.876173e-002
3.801008e+003, 1.981329e-002
3.802936e+003, 2.006793e-002
3.804865e+003, 1.921539e-002
3.806793e+003, 1.884614e-002
3.808722e+003, 1.868233e-002
3.810650e+003, 1.867567e-002
3.812579e+003, 1.813351e-002
3.814507e+003, 1.745572e-002
3.816436e+003, 1.809273e-002
3.818364e+003, 1.862149e-002
3.820292e+003, 1.922545e-002
3.822221e+003, 1.938158e-002
3.824149e+003, 1.911098e-002
3.826078e+003, 1.918830e-002
3.828006e+003, 1.904115e-002
3.829935e+003, 1.922684e-002
3.831863e+003, 1.925178e-002
3.833792e+003, 1.931695e-002
3.835720e+003, 2.001210e-002
3.837649e+003, 2.020668e-002
3.839577e+003, 1.921642e-002
3.841506e+003, 1.840501e-002
3.843434e+003, 1.835332e-002
3.845363e+003, 1.911408e-002
3.847291e+003, 1.924318e-002
3.849219e+003, 1.940801e-002
3.851148e+003, 2.032833e-002
3.853076e+003, 2.133022e-002
3.855005e+003, 2.086563e-002
3.856933e+003, 1.997645e-002
3.858862e+003, 1.964743e-002
3.860790e+003, 1.918952e-002
3.862719e+003, 1.907908e-002
3.864647e+003, 1.891529e-002
3.866576e+003, 1.859629e-002
3.868504e+003, 1.915580e-002
3.870433e+003, 1.967362e-002
3.872361e+003, 1.898953e-002
3.874290e+003, 1.922722e-002
3.876218e+003, 1.916285e-002
3.878146e+003, 1.980738e-002
3.880075e+003, 1.988810e-002
3.882003e+003, 1.870175e-002
3.883932e+003, 1.925907e-002
3.885860e+003, 1.977685e-002
3.887789e+003, 1.883207e-002
3.889717e+003, 1.919304e-002
3.891646e+003, 1.949026e-002
3.893574e+003, 1.890424e-002
3.895503e+003, 1.918144e-002
3.897431e+003, 1.927241e-002
3.899360e+003, 1.931120e-002
3.901288e+003, 1.972701e-002
3.903217e+003, 1.952609e-002
3.905145e+003, 1.908079e-002
3.907073e+003, 1.915186e-002
3.909002e+003, 2.011661e-002
3.910930e+003, 1.995947e-002
3.912859e+003, 1.958365e-002
3.914787e+003, 1.931670e-002
3.916716e+003, 1.931858e-002
3.918644e+003, 1.879328e-002
3.920573e+003, 1.892781e-002
3.922501e+003, 1.968834e-002
3.924430e+003, 1.976719e-002
3.926358e+003, 1.907763e-002
3.928287e+003, 1.928271e-002
3.930215e+003, 2.019892e-002
3.932144e+003, 1.995873e-002
3.934072e+003, 1.941059e-002
3.936000e+003, 1.942839e-002
3.937929e+003, 1.969697e-002
3.939857e+003, 2.021468e-002
3.941786e+003, 2.016892e-002
3.943714e+003, 2.062904e-002
3.945643e+003, 2.054304e-002
3.947571e+003, 1.986616e-002
3.949500e+003, 1.947251e-002
3.951428e+003, 1.939553e-002
3.953357e+003, 1.990808e-002
3.955285e+003, 2.043360e-002
3.957214e+003, 2.029055e-002
3.959142e+003, 2.030932e-002
3.961071e+003, 2.075751e-002
3.962999e+003, 1.997872e-002
3.964927e+003, 1.909711e-002
3.966856e+003, 1.946525e-002
3.968784e+003, 2.001448e-002
3.970713e+003, 2.012095e-002
3.972641e+003, 2.004002e-002
3.974570e+003, 1.998259e-002
3.976498e+003, 2.036352e-002
3.978427e+003, 2.029175e-002
3.980355e+003, 1.956297e-002
3.982284e+003, 1.884461e-002
3.984212e+003, 1.903897e-002
3.986141e+003, 1.910867e-002
3.988069e+003, 1.929440e-002
3.989998e+003, 1.969211e-002
3.991926e+003, 1.964824e-002
3.993854e+003, 2.006732e-002
3.995783e+003, 2.042701e-002
3.997711e+003, 1.983033e-002
##END=



