##NAMES=Chalcopyrite
##RRUFFID=R050208
##IDEAL CHEMISTRY=Cu^1+^Fe^3+^S^2-^_2_
##LOCALITY=Kidd Creek mine, Timmins, Ontario, Canada
##OWNER=RRUFF
##SOURCE=Lloyd Twaites
##DESCRIPTION=Brass yellow metallic fine-grained massive
##STATUS=The identification of this mineral has been confirmed by X-ray diffraction and chemical analysis
##URL=rruff.info/R050208
##MEASURED CHEMISTRY=Cu_1.00_Fe_1.00_S_2.00_
3.741225e+002, 2.461430e-001
3.760510e+002, 2.559773e-001
3.779795e+002, 2.523936e-001
3.799079e+002, 2.449519e-001
3.818364e+002, 2.429645e-001
3.837649e+002, 2.521198e-001
3.856933e+002, 2.552780e-001
3.876218e+002, 2.494916e-001
3.895503e+002, 2.546695e-001
3.914787e+002, 2.691574e-001
3.934072e+002, 2.660631e-001
3.953357e+002, 2.565618e-001
3.972641e+002, 2.608433e-001
3.991926e+002, 2.645766e-001
4.011211e+002, 2.693234e-001
4.030495e+002, 2.735853e-001
4.049780e+002, 2.787158e-001
4.069065e+002, 2.867000e-001
4.088349e+002, 2.840141e-001
4.107634e+002, 2.848708e-001
4.126919e+002, 2.912253e-001
4.146203e+002, 2.950056e-001
4.165488e+002, 2.972089e-001
4.184773e+002, 2.948390e-001
4.204057e+002, 2.970918e-001
4.223342e+002, 2.997173e-001
4.242627e+002, 3.010396e-001
4.261911e+002, 3.064316e-001
4.281196e+002, 3.057252e-001
4.300481e+002, 3.042161e-001
4.319765e+002, 3.056763e-001
4.339050e+002, 3.089944e-001
4.358335e+002, 3.090050e-001
4.377619e+002, 3.099056e-001
4.396904e+002, 3.117093e-001
4.416189e+002, 3.133675e-001
4.435473e+002, 3.152475e-001
4.454758e+002, 3.165505e-001
4.474043e+002, 3.208116e-001
4.493327e+002, 3.220265e-001
4.512612e+002, 3.197536e-001
4.531897e+002, 3.215994e-001
4.551181e+002, 3.245026e-001
4.570466e+002, 3.264183e-001
4.589751e+002, 3.262038e-001
4.609035e+002, 3.251823e-001
4.628320e+002, 3.252938e-001
4.647605e+002, 3.278482e-001
4.666889e+002, 3.305890e-001
4.686174e+002, 3.331898e-001
4.705459e+002, 3.330493e-001
4.724743e+002, 3.314871e-001
4.744028e+002, 3.333554e-001
4.763313e+002, 3.372839e-001
4.782597e+002, 3.381432e-001
4.801882e+002, 3.376450e-001
4.821167e+002, 3.377690e-001
4.840451e+002, 3.392140e-001
4.859736e+002, 3.392379e-001
4.879021e+002, 3.397409e-001
4.898305e+002, 3.404074e-001
4.917590e+002, 3.399521e-001
4.936875e+002, 3.421940e-001
4.956159e+002, 3.437303e-001
4.975444e+002, 3.459744e-001
4.994729e+002, 3.468544e-001
5.014013e+002, 3.463216e-001
5.033298e+002, 3.466516e-001
5.052583e+002, 3.489922e-001
5.071867e+002, 3.512955e-001
5.091152e+002, 3.500560e-001
5.110437e+002, 3.508869e-001
5.129721e+002, 3.534160e-001
5.149006e+002, 3.554105e-001
5.168290e+002, 3.569722e-001
5.187575e+002, 3.562202e-001
5.206860e+002, 3.557171e-001
5.226144e+002, 3.561665e-001
5.245429e+002, 3.566360e-001
5.264714e+002, 3.572252e-001
5.283998e+002, 3.584043e-001
5.303283e+002, 3.600268e-001
5.322568e+002, 3.605736e-001
5.341852e+002, 3.606631e-001
5.361137e+002, 3.612375e-001
5.380422e+002, 3.611363e-001
5.399706e+002, 3.610226e-001
5.418991e+002, 3.632603e-001
5.438276e+002, 3.656766e-001
5.457560e+002, 3.647498e-001
5.476845e+002, 3.648351e-001
5.496130e+002, 3.640554e-001
5.515414e+002, 3.632077e-001
5.534699e+002, 3.654668e-001
5.553984e+002, 3.659391e-001
5.573268e+002, 3.652527e-001
5.592553e+002, 3.656938e-001
5.611838e+002, 3.662547e-001
5.631122e+002, 3.660246e-001
5.650407e+002, 3.669917e-001
5.669692e+002, 3.692025e-001
5.688976e+002, 3.703489e-001
5.708261e+002, 3.716854e-001
5.727546e+002, 3.714629e-001
5.746830e+002, 3.717367e-001
5.766115e+002, 3.715034e-001
5.785400e+002, 3.723097e-001
5.804684e+002, 3.730400e-001
5.823969e+002, 3.743449e-001
5.843254e+002, 3.752176e-001
5.862538e+002, 3.772704e-001
5.881823e+002, 3.781769e-001
5.901108e+002, 3.778399e-001
5.920392e+002, 3.797827e-001
5.939677e+002, 3.820756e-001
5.958962e+002, 3.830009e-001
5.978246e+002, 3.823497e-001
5.997531e+002, 3.816567e-001
6.016816e+002, 3.816176e-001
6.036100e+002, 3.823759e-001
6.055385e+002, 3.837432e-001
6.074670e+002, 3.840945e-001
6.093954e+002, 3.838267e-001
6.113239e+002, 3.846822e-001
6.132524e+002, 3.855571e-001
6.151808e+002, 3.874971e-001
6.171093e+002, 3.884955e-001
6.190378e+002, 3.888766e-001
6.209662e+002, 3.894782e-001
6.228947e+002, 3.902954e-001
6.248232e+002, 3.904245e-001
6.267516e+002, 3.903135e-001
6.286801e+002, 3.911176e-001
6.306086e+002, 3.922300e-001
6.325370e+002, 3.917522e-001
6.344655e+002, 3.921249e-001
6.363940e+002, 3.930031e-001
6.383224e+002, 3.940147e-001
6.402509e+002, 3.944645e-001
6.421794e+002, 3.937396e-001
6.441078e+002, 3.944161e-001
6.460363e+002, 3.955963e-001
6.479648e+002, 3.957725e-001
6.498932e+002, 3.952303e-001
6.518217e+002, 3.960367e-001
6.537502e+002, 3.970807e-001
6.556786e+002, 3.978168e-001
6.576071e+002, 3.983569e-001
6.595356e+002, 3.984272e-001
6.614641e+002, 3.988467e-001
6.633925e+002, 3.993373e-001
6.653210e+002, 3.999709e-001
6.672495e+002, 4.014422e-001
6.691779e+002, 4.023755e-001
6.711064e+002, 4.017197e-001
6.730349e+002, 4.023959e-001
6.749633e+002, 4.040649e-001
6.768918e+002, 4.042990e-001
6.788203e+002, 4.040735e-001
6.807487e+002, 4.051427e-001
6.826772e+002, 4.056187e-001
6.846057e+002, 4.057433e-001
6.865341e+002, 4.067412e-001
6.884626e+002, 4.070870e-001
6.903911e+002, 4.076115e-001
6.923195e+002, 4.090270e-001
6.942480e+002, 4.094599e-001
6.961765e+002, 4.108171e-001
6.981049e+002, 4.115714e-001
7.000334e+002, 4.116404e-001
7.019619e+002, 4.110844e-001
7.038903e+002, 4.121687e-001
7.058188e+002, 4.126844e-001
7.077473e+002, 4.128803e-001
7.096757e+002, 4.135884e-001
7.116042e+002, 4.157072e-001
7.135327e+002, 4.170485e-001
7.154611e+002, 4.166228e-001
7.173896e+002, 4.164460e-001
7.193181e+002, 4.169013e-001
7.212465e+002, 4.179276e-001
7.231750e+002, 4.192097e-001
7.251035e+002, 4.207932e-001
7.270319e+002, 4.211912e-001
7.289604e+002, 4.219744e-001
7.308889e+002, 4.228021e-001
7.328173e+002, 4.236203e-001
7.347458e+002, 4.247222e-001
7.366743e+002, 4.264895e-001
7.386027e+002, 4.276485e-001
7.405312e+002, 4.273910e-001
7.424597e+002, 4.262612e-001
7.443881e+002, 4.253463e-001
7.463166e+002, 4.251146e-001
7.482451e+002, 4.248648e-001
7.501735e+002, 4.254445e-001
7.521020e+002, 4.264990e-001
7.540305e+002, 4.270099e-001
7.559589e+002, 4.274478e-001
7.578874e+002, 4.276962e-001
7.598159e+002, 4.286857e-001
7.617443e+002, 4.293926e-001
7.636728e+002, 4.299386e-001
7.656013e+002, 4.311249e-001
7.675297e+002, 4.321006e-001
7.694582e+002, 4.322443e-001
7.713867e+002, 4.329691e-001
7.733151e+002, 4.331493e-001
7.752436e+002, 4.335808e-001
7.771721e+002, 4.346323e-001
7.791005e+002, 4.357486e-001
7.810290e+002, 4.364410e-001
7.829575e+002, 4.376577e-001
7.848859e+002, 4.381962e-001
7.868144e+002, 4.390388e-001
7.887429e+002, 4.398212e-001
7.906713e+002, 4.413801e-001
7.925998e+002, 4.422108e-001
7.945283e+002, 4.421031e-001
7.964567e+002, 4.428700e-001
7.983852e+002, 4.433674e-001
8.003137e+002, 4.436444e-001
8.022421e+002, 4.438408e-001
8.041706e+002, 4.449787e-001
8.060991e+002, 4.458242e-001
8.080275e+002, 4.462870e-001
8.099560e+002, 4.475634e-001
8.118845e+002, 4.486910e-001
8.138129e+002, 4.489278e-001
8.157414e+002, 4.494599e-001
8.176699e+002, 4.496545e-001
8.195983e+002, 4.501867e-001
8.215268e+002, 4.508857e-001
8.234553e+002, 4.517758e-001
8.253837e+002, 4.528812e-001
8.273122e+002, 4.541510e-001
8.292407e+002, 4.543955e-001
8.311691e+002, 4.549428e-001
8.330976e+002, 4.552172e-001
8.350261e+002, 4.561526e-001
8.369545e+002, 4.567580e-001
8.388830e+002, 4.572089e-001
8.408115e+002, 4.583277e-001
8.427399e+002, 4.596574e-001
8.446684e+002, 4.611604e-001
8.465969e+002, 4.624644e-001
8.485253e+002, 4.632464e-001
8.504538e+002, 4.644444e-001
8.523823e+002, 4.659214e-001
8.543107e+002, 4.669821e-001
8.562392e+002, 4.679012e-001
8.581677e+002, 4.704956e-001
8.600961e+002, 4.720306e-001
8.620246e+002, 4.725124e-001
8.639531e+002, 4.725794e-001
8.658815e+002, 4.730186e-001
8.678100e+002, 4.742480e-001
8.697385e+002, 4.745869e-001
8.716669e+002, 4.740125e-001
8.735954e+002, 4.736282e-001
8.755239e+002, 4.728639e-001
8.774523e+002, 4.723509e-001
8.793808e+002, 4.714520e-001
8.813093e+002, 4.707436e-001
8.832377e+002, 4.703819e-001
8.851662e+002, 4.702582e-001
8.870947e+002, 4.708940e-001
8.890231e+002, 4.716923e-001
8.909516e+002, 4.726926e-001
8.928801e+002, 4.734521e-001
8.948085e+002, 4.742116e-001
8.967370e+002, 4.747232e-001
8.986655e+002, 4.758946e-001
9.005939e+002, 4.771822e-001
9.025224e+002, 4.780972e-001
9.044509e+002, 4.787733e-001
9.063793e+002, 4.797742e-001
9.083078e+002, 4.806274e-001
9.102363e+002, 4.812746e-001
9.121647e+002, 4.822696e-001
9.140932e+002, 4.830568e-001
9.160217e+002, 4.833401e-001
9.179501e+002, 4.837922e-001
9.198786e+002, 4.846314e-001
9.218071e+002, 4.854367e-001
9.237355e+002, 4.857978e-001
9.256640e+002, 4.865298e-001
9.275925e+002, 4.869384e-001
9.295209e+002, 4.875313e-001
9.314494e+002, 4.884647e-001
9.333779e+002, 4.890174e-001
9.353063e+002, 4.893955e-001
9.372348e+002, 4.904236e-001
9.391633e+002, 4.913065e-001
9.410917e+002, 4.917397e-001
9.430202e+002, 4.925747e-001
9.449487e+002, 4.934053e-001
9.468771e+002, 4.940343e-001
9.488056e+002, 4.947466e-001
9.507341e+002, 4.956355e-001
9.526625e+002, 4.964410e-001
9.545910e+002, 4.971798e-001
9.565195e+002, 4.980072e-001
9.584479e+002, 4.987994e-001
9.603764e+002, 4.995524e-001
9.623049e+002, 5.005742e-001
9.642333e+002, 5.015789e-001
9.661618e+002, 5.020478e-001
9.680903e+002, 5.027974e-001
9.700187e+002, 5.037615e-001
9.719472e+002, 5.044321e-001
9.738757e+002, 5.046428e-001
9.758041e+002, 5.051928e-001
9.777326e+002, 5.056939e-001
9.796611e+002, 5.063142e-001
9.815895e+002, 5.067685e-001
9.835180e+002, 5.070905e-001
9.854465e+002, 5.076827e-001
9.873749e+002, 5.079269e-001
9.893034e+002, 5.080422e-001
9.912319e+002, 5.083373e-001
9.931603e+002, 5.085394e-001
9.950888e+002, 5.088709e-001
9.970173e+002, 5.090607e-001
9.989457e+002, 5.091746e-001
1.000874e+003, 5.095872e-001
1.002803e+003, 5.097464e-001
1.004731e+003, 5.096468e-001
1.006660e+003, 5.097967e-001
1.008588e+003, 5.097777e-001
1.010517e+003, 5.103598e-001
1.012445e+003, 5.108059e-001
1.014373e+003, 5.109113e-001
1.016302e+003, 5.110288e-001
1.018230e+003, 5.115852e-001
1.020159e+003, 5.117760e-001
1.022087e+003, 5.113473e-001
1.024016e+003, 5.113013e-001
1.025944e+003, 5.117486e-001
1.027873e+003, 5.120971e-001
1.029801e+003, 5.124704e-001
1.031730e+003, 5.124891e-001
1.033658e+003, 5.116848e-001
1.035587e+003, 5.113735e-001
1.037515e+003, 5.116721e-001
1.039443e+003, 5.114349e-001
1.041372e+003, 5.106465e-001
1.043300e+003, 5.102018e-001
1.045229e+003, 5.103446e-001
1.047157e+003, 5.105233e-001
1.049086e+003, 5.107901e-001
1.051014e+003, 5.108891e-001
1.052943e+003, 5.104309e-001
1.054871e+003, 5.100412e-001
1.056800e+003, 5.103610e-001
1.058728e+003, 5.107146e-001
1.060657e+003, 5.107495e-001
1.062585e+003, 5.104674e-001
1.064514e+003, 5.106918e-001
1.066442e+003, 5.105344e-001
1.068370e+003, 5.105212e-001
1.070299e+003, 5.109323e-001
1.072227e+003, 5.112836e-001
1.074156e+003, 5.115632e-001
1.076084e+003, 5.114865e-001
1.078013e+003, 5.117985e-001
1.079941e+003, 5.122504e-001
1.081870e+003, 5.119680e-001
1.083798e+003, 5.118154e-001
1.085727e+003, 5.116675e-001
1.087655e+003, 5.117393e-001
1.089584e+003, 5.116623e-001
1.091512e+003, 5.116642e-001
1.093441e+003, 5.118721e-001
1.095369e+003, 5.118034e-001
1.097297e+003, 5.114828e-001
1.099226e+003, 5.111295e-001
1.101154e+003, 5.109584e-001
1.103083e+003, 5.112139e-001
1.105011e+003, 5.116978e-001
1.106940e+003, 5.116417e-001
1.108868e+003, 5.114675e-001
1.110797e+003, 5.115973e-001
1.112725e+003, 5.115701e-001
1.114654e+003, 5.111969e-001
1.116582e+003, 5.112584e-001
1.118511e+003, 5.114184e-001
1.120439e+003, 5.115077e-001
1.122368e+003, 5.116894e-001
1.124296e+003, 5.117109e-001
1.126224e+003, 5.121019e-001
1.128153e+003, 5.123245e-001
1.130081e+003, 5.128027e-001
1.132010e+003, 5.130463e-001
1.133938e+003, 5.131693e-001
1.135867e+003, 5.136755e-001
1.137795e+003, 5.142662e-001
1.139724e+003, 5.149367e-001
1.141652e+003, 5.154859e-001
1.143581e+003, 5.158177e-001
1.145509e+003, 5.159389e-001
1.147438e+003, 5.157706e-001
1.149366e+003, 5.156423e-001
1.151295e+003, 5.157439e-001
1.153223e+003, 5.154232e-001
1.155151e+003, 5.151306e-001
1.157080e+003, 5.150102e-001
1.159008e+003, 5.149846e-001
1.160937e+003, 5.153047e-001
1.162865e+003, 5.152063e-001
1.164794e+003, 5.147699e-001
1.166722e+003, 5.145926e-001
1.168651e+003, 5.147906e-001
1.170579e+003, 5.145854e-001
1.172508e+003, 5.141459e-001
1.174436e+003, 5.140309e-001
1.176365e+003, 5.139650e-001
1.178293e+003, 5.141702e-001
1.180222e+003, 5.142832e-001
1.182150e+003, 5.143936e-001
1.184078e+003, 5.146700e-001
1.186007e+003, 5.148283e-001
1.187935e+003, 5.148306e-001
1.189864e+003, 5.149924e-001
1.191792e+003, 5.153772e-001
1.193721e+003, 5.153735e-001
1.195649e+003, 5.154750e-001
1.197578e+003, 5.160080e-001
1.199506e+003, 5.162786e-001
1.201435e+003, 5.164266e-001
1.203363e+003, 5.163130e-001
1.205292e+003, 5.159515e-001
1.207220e+003, 5.153191e-001
1.209149e+003, 5.149097e-001
1.211077e+003, 5.147514e-001
1.213005e+003, 5.148954e-001
1.214934e+003, 5.149882e-001
1.216862e+003, 5.147719e-001
1.218791e+003, 5.145671e-001
1.220719e+003, 5.148535e-001
1.222648e+003, 5.151619e-001
1.224576e+003, 5.149814e-001
1.226505e+003, 5.148717e-001
1.228433e+003, 5.148202e-001
1.230362e+003, 5.151566e-001
1.232290e+003, 5.155318e-001
1.234219e+003, 5.157719e-001
1.236147e+003, 5.160671e-001
1.238076e+003, 5.165048e-001
1.240004e+003, 5.171528e-001
1.241932e+003, 5.173617e-001
1.243861e+003, 5.178443e-001
1.245789e+003, 5.187858e-001
1.247718e+003, 5.192435e-001
1.249646e+003, 5.193709e-001
1.251575e+003, 5.195723e-001
1.253503e+003, 5.203245e-001
1.255432e+003, 5.210601e-001
1.257360e+003, 5.214665e-001
1.259289e+003, 5.217791e-001
1.261217e+003, 5.223354e-001
1.263146e+003, 5.227981e-001
1.265074e+003, 5.234643e-001
1.267003e+003, 5.242086e-001
1.268931e+003, 5.248715e-001
1.270859e+003, 5.258695e-001
1.272788e+003, 5.269420e-001
1.274716e+003, 5.275412e-001
1.276645e+003, 5.279042e-001
1.278573e+003, 5.284992e-001
1.280502e+003, 5.293176e-001
1.282430e+003, 5.299644e-001
1.284359e+003, 5.304899e-001
1.286287e+003, 5.311389e-001
1.288216e+003, 5.320790e-001
1.290144e+003, 5.328650e-001
1.292073e+003, 5.334921e-001
1.294001e+003, 5.341739e-001
1.295930e+003, 5.347566e-001
1.297858e+003, 5.352873e-001
1.299786e+003, 5.359101e-001
1.301715e+003, 5.363903e-001
1.303643e+003, 5.369739e-001
1.305572e+003, 5.376335e-001
1.307500e+003, 5.380074e-001
1.309429e+003, 5.384969e-001
1.311357e+003, 5.387989e-001
1.313286e+003, 5.393521e-001
1.315214e+003, 5.399411e-001
1.317143e+003, 5.405469e-001
1.319071e+003, 5.411549e-001
1.321000e+003, 5.414766e-001
1.322928e+003, 5.419986e-001
1.324857e+003, 5.426171e-001
1.326785e+003, 5.431321e-001
1.328714e+003, 5.435587e-001
1.330642e+003, 5.439263e-001
1.332570e+003, 5.445551e-001
1.334499e+003, 5.454566e-001
1.336427e+003, 5.456132e-001
1.338356e+003, 5.458686e-001
1.340284e+003, 5.466049e-001
1.342213e+003, 5.470210e-001
1.344141e+003, 5.477372e-001
1.346070e+003, 5.483931e-001
1.347998e+003, 5.486712e-001
1.349927e+003, 5.491864e-001
1.351855e+003, 5.496359e-001
1.353784e+003, 5.501446e-001
1.355712e+003, 5.508280e-001
1.357641e+003, 5.513042e-001
1.359569e+003, 5.519046e-001
1.361497e+003, 5.526941e-001
1.363426e+003, 5.530989e-001
1.365354e+003, 5.534506e-001
1.367283e+003, 5.537788e-001
1.369211e+003, 5.542257e-001
1.371140e+003, 5.545635e-001
1.373068e+003, 5.551785e-001
1.374997e+003, 5.554986e-001
1.376925e+003, 5.559506e-001
1.378854e+003, 5.566824e-001
1.380782e+003, 5.570850e-001
1.382711e+003, 5.575609e-001
1.384639e+003, 5.581663e-001
1.386568e+003, 5.591054e-001
1.388496e+003, 5.600670e-001
1.390424e+003, 5.604631e-001
1.392353e+003, 5.606017e-001
1.394281e+003, 5.609145e-001
1.396210e+003, 5.614936e-001
1.398138e+003, 5.619853e-001
1.400067e+003, 5.626380e-001
1.401995e+003, 5.633861e-001
1.403924e+003, 5.637318e-001
1.405852e+003, 5.641712e-001
1.407781e+003, 5.644336e-001
1.409709e+003, 5.647353e-001
1.411638e+003, 5.651365e-001
1.413566e+003, 5.653117e-001
1.415495e+003, 5.653276e-001
1.417423e+003, 5.655284e-001
1.419351e+003, 5.655811e-001
1.421280e+003, 5.653836e-001
1.423208e+003, 5.655605e-001
1.425137e+003, 5.656978e-001
1.427065e+003, 5.654692e-001
1.428994e+003, 5.652030e-001
1.430922e+003, 5.649658e-001
1.432851e+003, 5.650367e-001
1.434779e+003, 5.652137e-001
1.436708e+003, 5.647342e-001
1.438636e+003, 5.640730e-001
1.440565e+003, 5.638999e-001
1.442493e+003, 5.640060e-001
1.444422e+003, 5.640085e-001
1.446350e+003, 5.638229e-001
1.448278e+003, 5.635215e-001
1.450207e+003, 5.632395e-001
1.452135e+003, 5.632170e-001
1.454064e+003, 5.630643e-001
1.455992e+003, 5.628745e-001
1.457921e+003, 5.624914e-001
1.459849e+003, 5.621485e-001
1.461778e+003, 5.619649e-001
1.463706e+003, 5.617319e-001
1.465635e+003, 5.615150e-001
1.467563e+003, 5.611351e-001
1.469492e+003, 5.609750e-001
1.471420e+003, 5.612616e-001
1.473349e+003, 5.614148e-001
1.475277e+003, 5.611686e-001
1.477205e+003, 5.609308e-001
1.479134e+003, 5.608529e-001
1.481062e+003, 5.607963e-001
1.482991e+003, 5.603692e-001
1.484919e+003, 5.605025e-001
1.486848e+003, 5.611560e-001
1.488776e+003, 5.614522e-001
1.490705e+003, 5.610384e-001
1.492633e+003, 5.605559e-001
1.494562e+003, 5.604619e-001
1.496490e+003, 5.607228e-001
1.498419e+003, 5.610063e-001
1.500347e+003, 5.611019e-001
1.502276e+003, 5.610857e-001
1.504204e+003, 5.610754e-001
1.506132e+003, 5.612518e-001
1.508061e+003, 5.612839e-001
1.509989e+003, 5.611975e-001
1.511918e+003, 5.613295e-001
1.513846e+003, 5.614693e-001
1.515775e+003, 5.617634e-001
1.517703e+003, 5.620158e-001
1.519632e+003, 5.624000e-001
1.521560e+003, 5.626189e-001
1.523489e+003, 5.626404e-001
1.525417e+003, 5.626948e-001
1.527346e+003, 5.630633e-001
1.529274e+003, 5.633503e-001
1.531203e+003, 5.633675e-001
1.533131e+003, 5.635178e-001
1.535059e+003, 5.638939e-001
1.536988e+003, 5.638529e-001
1.538916e+003, 5.639684e-001
1.540845e+003, 5.642650e-001
1.542773e+003, 5.643240e-001
1.544702e+003, 5.643688e-001
1.546630e+003, 5.645564e-001
1.548559e+003, 5.651211e-001
1.550487e+003, 5.651410e-001
1.552416e+003, 5.649570e-001
1.554344e+003, 5.653191e-001
1.556273e+003, 5.655499e-001
1.558201e+003, 5.659587e-001
1.560130e+003, 5.660905e-001
1.562058e+003, 5.661030e-001
1.563986e+003, 5.661733e-001
1.565915e+003, 5.661475e-001
1.567843e+003, 5.661548e-001
1.569772e+003, 5.662278e-001
1.571700e+003, 5.665296e-001
1.573629e+003, 5.671228e-001
1.575557e+003, 5.675417e-001
1.577486e+003, 5.677924e-001
1.579414e+003, 5.679627e-001
1.581343e+003, 5.683452e-001
1.583271e+003, 5.688825e-001
1.585200e+003, 5.690485e-001
1.587128e+003, 5.689878e-001
1.589057e+003, 5.691854e-001
1.590985e+003, 5.697921e-001
1.592913e+003, 5.702035e-001
1.594842e+003, 5.705438e-001
1.596770e+003, 5.710666e-001
1.598699e+003, 5.713314e-001
1.600627e+003, 5.717271e-001
1.602556e+003, 5.723116e-001
1.604484e+003, 5.725301e-001
1.606413e+003, 5.723127e-001
1.608341e+003, 5.725419e-001
1.610270e+003, 5.730581e-001
1.612198e+003, 5.733929e-001
1.614127e+003, 5.738429e-001
1.616055e+003, 5.747455e-001
1.617984e+003, 5.750636e-001
1.619912e+003, 5.747074e-001
1.621840e+003, 5.746868e-001
1.623769e+003, 5.750837e-001
1.625697e+003, 5.753239e-001
1.627626e+003, 5.756561e-001
1.629554e+003, 5.757115e-001
1.631483e+003, 5.757410e-001
1.633411e+003, 5.759841e-001
1.635340e+003, 5.761067e-001
1.637268e+003, 5.761690e-001
1.639197e+003, 5.763171e-001
1.641125e+003, 5.766332e-001
1.643054e+003, 5.767221e-001
1.644982e+003, 5.768894e-001
1.646911e+003, 5.770552e-001
1.648839e+003, 5.770474e-001
1.650767e+003, 5.776988e-001
1.652696e+003, 5.781282e-001
1.654624e+003, 5.779244e-001
1.656553e+003, 5.779061e-001
1.658481e+003, 5.779683e-001
1.660410e+003, 5.782850e-001
1.662338e+003, 5.786955e-001
1.664267e+003, 5.789796e-001
1.666195e+003, 5.791903e-001
1.668124e+003, 5.794481e-001
1.670052e+003, 5.797356e-001
1.671981e+003, 5.798290e-001
1.673909e+003, 5.801225e-001
1.675838e+003, 5.803596e-001
1.677766e+003, 5.805943e-001
1.679694e+003, 5.809847e-001
1.681623e+003, 5.811096e-001
1.683551e+003, 5.813544e-001
1.685480e+003, 5.814402e-001
1.687408e+003, 5.816976e-001
1.689337e+003, 5.823163e-001
1.691265e+003, 5.828140e-001
1.693194e+003, 5.831964e-001
1.695122e+003, 5.835613e-001
1.697051e+003, 5.834424e-001
1.698979e+003, 5.839513e-001
1.700908e+003, 5.844662e-001
1.702836e+003, 5.842690e-001
1.704765e+003, 5.841333e-001
1.706693e+003, 5.844083e-001
1.708621e+003, 5.851381e-001
1.710550e+003, 5.854146e-001
1.712478e+003, 5.855348e-001
1.714407e+003, 5.860379e-001
1.716335e+003, 5.869738e-001
1.718264e+003, 5.873237e-001
1.720192e+003, 5.872728e-001
1.722121e+003, 5.876753e-001
1.724049e+003, 5.881919e-001
1.725978e+003, 5.888058e-001
1.727906e+003, 5.892408e-001
1.729835e+003, 5.893452e-001
1.731763e+003, 5.896835e-001
1.733692e+003, 5.901736e-001
1.735620e+003, 5.900311e-001
1.737548e+003, 5.897378e-001
1.739477e+003, 5.897821e-001
1.741405e+003, 5.895537e-001
1.743334e+003, 5.893514e-001
1.745262e+003, 5.893638e-001
1.747191e+003, 5.894663e-001
1.749119e+003, 5.900854e-001
1.751048e+003, 5.903100e-001
1.752976e+003, 5.900827e-001
1.754905e+003, 5.901869e-001
1.756833e+003, 5.903612e-001
1.758762e+003, 5.906519e-001
1.760690e+003, 5.913168e-001
1.762619e+003, 5.918398e-001
1.764547e+003, 5.922536e-001
1.766475e+003, 5.923062e-001
1.768404e+003, 5.923569e-001
1.770332e+003, 5.923923e-001
1.772261e+003, 5.931475e-001
1.774189e+003, 5.937071e-001
1.776118e+003, 5.932270e-001
1.778046e+003, 5.931031e-001
1.779975e+003, 5.937173e-001
1.781903e+003, 5.944043e-001
1.783832e+003, 5.945877e-001
1.785760e+003, 5.945598e-001
1.787689e+003, 5.944992e-001
1.789617e+003, 5.941418e-001
1.791546e+003, 5.945901e-001
1.793474e+003, 5.955321e-001
1.795402e+003, 5.959318e-001
1.797331e+003, 5.962444e-001
1.799259e+003, 5.963184e-001
1.801188e+003, 5.965514e-001
1.803116e+003, 5.969691e-001
1.805045e+003, 5.972050e-001
1.806973e+003, 5.973629e-001
1.808902e+003, 5.972757e-001
1.810830e+003, 5.973493e-001
1.812759e+003, 5.976749e-001
1.814687e+003, 5.972868e-001
1.816616e+003, 5.970123e-001
1.818544e+003, 5.975792e-001
1.820473e+003, 5.983061e-001
1.822401e+003, 5.988244e-001
1.824329e+003, 5.986905e-001
1.826258e+003, 5.981953e-001
1.828186e+003, 5.983408e-001
1.830115e+003, 5.988856e-001
1.832043e+003, 5.988951e-001
1.833972e+003, 5.989272e-001
1.835900e+003, 5.995367e-001
1.837829e+003, 5.995905e-001
1.839757e+003, 5.993193e-001
1.841686e+003, 5.998821e-001
1.843614e+003, 6.005913e-001
1.845543e+003, 6.006579e-001
1.847471e+003, 5.996141e-001
1.849400e+003, 5.997711e-001
1.851328e+003, 6.005161e-001
1.853256e+003, 6.008589e-001
1.855185e+003, 6.014735e-001
1.857113e+003, 6.014589e-001
1.859042e+003, 6.012292e-001
1.860970e+003, 6.017549e-001
1.862899e+003, 6.019477e-001
1.864827e+003, 6.023843e-001
1.866756e+003, 6.022909e-001
1.868684e+003, 6.024877e-001
1.870613e+003, 6.029549e-001
1.872541e+003, 6.025028e-001
1.874470e+003, 6.028686e-001
1.876398e+003, 6.036313e-001
1.878327e+003, 6.035845e-001
1.880255e+003, 6.035522e-001
1.882183e+003, 6.027448e-001
1.884112e+003, 6.021467e-001
1.886040e+003, 6.031795e-001
1.887969e+003, 6.043673e-001
1.889897e+003, 6.055704e-001
1.891826e+003, 6.058071e-001
1.893754e+003, 6.056586e-001
1.895683e+003, 6.052963e-001
1.897611e+003, 6.053777e-001
1.899540e+003, 6.065906e-001
1.901468e+003, 6.065427e-001
1.903397e+003, 6.063018e-001
1.905325e+003, 6.077769e-001
1.907254e+003, 6.078431e-001
1.909182e+003, 6.071931e-001
1.911110e+003, 6.081497e-001
1.913039e+003, 6.090490e-001
1.914967e+003, 6.100869e-001
1.916896e+003, 6.098747e-001
1.918824e+003, 6.088181e-001
1.920753e+003, 6.084601e-001
1.922681e+003, 6.088523e-001
1.924610e+003, 6.085945e-001
1.926538e+003, 6.094658e-001
1.928467e+003, 6.103088e-001
1.930395e+003, 6.095275e-001
1.932324e+003, 6.106750e-001
1.934252e+003, 6.113350e-001
1.936181e+003, 6.109326e-001
1.938109e+003, 6.105403e-001
1.940037e+003, 6.102027e-001
1.941966e+003, 6.112216e-001
1.943894e+003, 6.122051e-001
1.945823e+003, 6.120331e-001
1.947751e+003, 6.106375e-001
1.949680e+003, 6.104869e-001
1.951608e+003, 6.122199e-001
1.953537e+003, 6.132492e-001
1.955465e+003, 6.117096e-001
1.957394e+003, 6.124831e-001
1.959322e+003, 6.143966e-001
1.961251e+003, 6.150839e-001
1.963179e+003, 6.144730e-001
1.965108e+003, 6.146400e-001
1.967036e+003, 6.130564e-001
1.968964e+003, 6.108360e-001
1.970893e+003, 6.125511e-001
1.972821e+003, 6.145734e-001
1.974750e+003, 6.162201e-001
1.976678e+003, 6.181925e-001
1.978607e+003, 6.184492e-001
1.980535e+003, 6.182896e-001
1.982464e+003, 6.178529e-001
1.984392e+003, 6.190550e-001
1.986321e+003, 6.194478e-001
1.988249e+003, 6.170322e-001
1.990178e+003, 6.170563e-001
1.992106e+003, 6.220096e-001
1.994035e+003, 6.205516e-001
1.995963e+003, 6.195257e-001
1.997891e+003, 6.218466e-001
1.999820e+003, 6.217949e-001
2.001748e+003, 6.180539e-001
2.003677e+003, 6.156031e-001
2.005605e+003, 6.168805e-001
2.007534e+003, 6.196898e-001
2.009462e+003, 6.228852e-001
2.011391e+003, 6.271834e-001
2.013319e+003, 6.275403e-001
2.015248e+003, 6.253477e-001
2.017176e+003, 6.269264e-001
2.019105e+003, 6.260340e-001
2.021033e+003, 6.215900e-001
2.022962e+003, 6.200916e-001
2.024890e+003, 6.238099e-001
2.026818e+003, 6.248565e-001
2.028747e+003, 6.271189e-001
2.030675e+003, 6.291189e-001
2.032604e+003, 6.295692e-001
2.034532e+003, 6.278270e-001
2.036461e+003, 6.212795e-001
2.038389e+003, 6.180458e-001
2.040318e+003, 6.211584e-001
2.042246e+003, 6.241702e-001
2.044175e+003, 6.247129e-001
2.046103e+003, 6.242950e-001
2.048031e+003, 6.255183e-001
2.049960e+003, 6.268092e-001
2.051888e+003, 6.279986e-001
2.053817e+003, 6.268885e-001
2.055745e+003, 6.264482e-001
2.057674e+003, 6.295180e-001
2.059602e+003, 6.289275e-001
2.061531e+003, 6.270940e-001
2.063459e+003, 6.257892e-001
2.065388e+003, 6.256893e-001
2.067316e+003, 6.268480e-001
2.069245e+003, 6.278861e-001
2.071173e+003, 6.298117e-001
2.073102e+003, 6.305690e-001
2.075030e+003, 6.313321e-001
2.076958e+003, 6.302555e-001
2.078887e+003, 6.293685e-001
2.080815e+003, 6.314243e-001
2.082744e+003, 6.324514e-001
2.084672e+003, 6.330224e-001
2.086601e+003, 6.316129e-001
2.088529e+003, 6.303172e-001
2.090458e+003, 6.312367e-001
2.092386e+003, 6.324648e-001
2.094315e+003, 6.332431e-001
2.096243e+003, 6.331858e-001
2.098172e+003, 6.336904e-001
2.100100e+003, 6.344237e-001
2.102029e+003, 6.338891e-001
2.103957e+003, 6.338712e-001
2.105885e+003, 6.351358e-001
2.107814e+003, 6.352621e-001
2.109742e+003, 6.344534e-001
2.111671e+003, 6.342240e-001
2.113599e+003, 6.340835e-001
2.115528e+003, 6.347559e-001
2.117456e+003, 6.341357e-001
2.119385e+003, 6.345059e-001
2.121313e+003, 6.354947e-001
2.123242e+003, 6.379412e-001
2.125170e+003, 6.386529e-001
2.127099e+003, 6.370860e-001
2.129027e+003, 6.386052e-001
2.130956e+003, 6.397725e-001
2.132884e+003, 6.391963e-001
2.134813e+003, 6.394561e-001
2.136741e+003, 6.405144e-001
2.138669e+003, 6.386298e-001
2.140598e+003, 6.371320e-001
2.142526e+003, 6.388590e-001
2.144455e+003, 6.402678e-001
2.146383e+003, 6.402670e-001
2.148312e+003, 6.418874e-001
2.150240e+003, 6.414440e-001
2.152169e+003, 6.401703e-001
2.154097e+003, 6.449190e-001
2.156026e+003, 6.461103e-001
2.157954e+003, 6.438460e-001
2.159883e+003, 6.424345e-001
2.161811e+003, 6.411097e-001
2.163740e+003, 6.399019e-001
2.165668e+003, 6.428965e-001
2.167596e+003, 6.436268e-001
2.169525e+003, 6.426098e-001
2.171453e+003, 6.399081e-001
2.173382e+003, 6.409270e-001
2.175310e+003, 6.392140e-001
2.177239e+003, 6.383380e-001
2.179167e+003, 6.399639e-001
2.181096e+003, 6.422817e-001
2.183024e+003, 6.437250e-001
2.184953e+003, 6.447317e-001
2.186881e+003, 6.448556e-001
2.188810e+003, 6.452430e-001
2.190738e+003, 6.427854e-001
2.192667e+003, 6.388269e-001
2.194595e+003, 6.416166e-001
2.196523e+003, 6.468560e-001
2.198452e+003, 6.467770e-001
2.200380e+003, 6.453866e-001
2.202309e+003, 6.459101e-001
2.204237e+003, 6.457229e-001
2.206166e+003, 6.442848e-001
2.208094e+003, 6.453642e-001
2.210023e+003, 6.474376e-001
2.211951e+003, 6.471160e-001
2.213880e+003, 6.471415e-001
2.215808e+003, 6.459661e-001
2.217737e+003, 6.470463e-001
2.219665e+003, 6.474078e-001
2.221594e+003, 6.459934e-001
2.223522e+003, 6.463069e-001
2.225450e+003, 6.481833e-001
2.227379e+003, 6.488883e-001
2.229307e+003, 6.482384e-001
2.231236e+003, 6.480974e-001
2.233164e+003, 6.475363e-001
2.235093e+003, 6.485022e-001
2.237021e+003, 6.501572e-001
2.238950e+003, 6.509922e-001
2.240878e+003, 6.497068e-001
2.242807e+003, 6.481807e-001
2.244735e+003, 6.489887e-001
2.246664e+003, 6.505324e-001
2.248592e+003, 6.516928e-001
2.250521e+003, 6.535708e-001
2.252449e+003, 6.515257e-001
2.254377e+003, 6.486959e-001
2.256306e+003, 6.475577e-001
2.258234e+003, 6.475977e-001
2.260163e+003, 6.485927e-001
2.262091e+003, 6.492877e-001
2.264020e+003, 6.495429e-001
2.265948e+003, 6.490139e-001
2.267877e+003, 6.484303e-001
2.269805e+003, 6.514143e-001
2.271734e+003, 6.540961e-001
2.273662e+003, 6.551768e-001
2.275591e+003, 6.542596e-001
2.277519e+003, 6.538463e-001
2.279448e+003, 6.539198e-001
2.281376e+003, 6.535155e-001
2.283304e+003, 6.532913e-001
2.285233e+003, 6.539080e-001
2.287161e+003, 6.533068e-001
2.289090e+003, 6.526301e-001
2.291018e+003, 6.533659e-001
2.292947e+003, 6.538308e-001
2.294875e+003, 6.539264e-001
2.296804e+003, 6.537452e-001
2.298732e+003, 6.537994e-001
2.300661e+003, 6.551118e-001
2.302589e+003, 6.555052e-001
2.304518e+003, 6.550288e-001
2.306446e+003, 6.539579e-001
2.308375e+003, 6.533302e-001
2.310303e+003, 6.536254e-001
2.312231e+003, 6.543478e-001
2.314160e+003, 6.544103e-001
2.316088e+003, 6.545808e-001
2.318017e+003, 6.554388e-001
2.319945e+003, 6.558903e-001
2.321874e+003, 6.555076e-001
2.323802e+003, 6.550246e-001
2.325731e+003, 6.548604e-001
2.327659e+003, 6.549777e-001
2.329588e+003, 6.552610e-001
2.331516e+003, 6.550021e-001
2.333445e+003, 6.551562e-001
2.335373e+003, 6.558728e-001
2.337302e+003, 6.556637e-001
2.339230e+003, 6.553362e-001
2.341158e+003, 6.558236e-001
2.343087e+003, 6.570303e-001
2.345015e+003, 6.571993e-001
2.346944e+003, 6.576994e-001
2.348872e+003, 6.574559e-001
2.350801e+003, 6.574482e-001
2.352729e+003, 6.567384e-001
2.354658e+003, 6.561881e-001
2.356586e+003, 6.559483e-001
2.358515e+003, 6.553686e-001
2.360443e+003, 6.556536e-001
2.362372e+003, 6.569058e-001
2.364300e+003, 6.577592e-001
2.366229e+003, 6.577451e-001
2.368157e+003, 6.582938e-001
2.370085e+003, 6.590134e-001
2.372014e+003, 6.593106e-001
2.373942e+003, 6.596521e-001
2.375871e+003, 6.601394e-001
2.377799e+003, 6.601025e-001
2.379728e+003, 6.605180e-001
2.381656e+003, 6.614788e-001
2.383585e+003, 6.616182e-001
2.385513e+003, 6.624882e-001
2.387442e+003, 6.624639e-001
2.389370e+003, 6.621696e-001
2.391299e+003, 6.618713e-001
2.393227e+003, 6.619719e-001
2.395156e+003, 6.621574e-001
2.397084e+003, 6.611248e-001
2.399012e+003, 6.613565e-001
2.400941e+003, 6.623591e-001
2.402869e+003, 6.619894e-001
2.404798e+003, 6.620138e-001
2.406726e+003, 6.626227e-001
2.408655e+003, 6.627460e-001
2.410583e+003, 6.630716e-001
2.412512e+003, 6.640127e-001
2.414440e+003, 6.644778e-001
2.416369e+003, 6.644817e-001
2.418297e+003, 6.642662e-001
2.420226e+003, 6.635813e-001
2.422154e+003, 6.630830e-001
2.424083e+003, 6.641980e-001
2.426011e+003, 6.637506e-001
2.427939e+003, 6.637633e-001
2.429868e+003, 6.647173e-001
2.431796e+003, 6.651731e-001
2.433725e+003, 6.641567e-001
2.435653e+003, 6.648856e-001
2.437582e+003, 6.655051e-001
2.439510e+003, 6.658149e-001
2.441439e+003, 6.659752e-001
2.443367e+003, 6.659350e-001
2.445296e+003, 6.657506e-001
2.447224e+003, 6.657429e-001
2.449153e+003, 6.662184e-001
2.451081e+003, 6.674385e-001
2.453010e+003, 6.672110e-001
2.454938e+003, 6.669760e-001
2.456866e+003, 6.677496e-001
2.458795e+003, 6.682801e-001
2.460723e+003, 6.679493e-001
2.462652e+003, 6.674795e-001
2.464580e+003, 6.680784e-001
2.466509e+003, 6.692636e-001
2.468437e+003, 6.695938e-001
2.470366e+003, 6.694594e-001
2.472294e+003, 6.691870e-001
2.474223e+003, 6.692702e-001
2.476151e+003, 6.694812e-001
2.478080e+003, 6.704873e-001
2.480008e+003, 6.701672e-001
2.481937e+003, 6.698092e-001
2.483865e+003, 6.703812e-001
2.485793e+003, 6.706266e-001
2.487722e+003, 6.714028e-001
2.489650e+003, 6.718764e-001
2.491579e+003, 6.709758e-001
2.493507e+003, 6.712396e-001
2.495436e+003, 6.713675e-001
2.497364e+003, 6.718869e-001
2.499293e+003, 6.723932e-001
2.501221e+003, 6.722994e-001
2.503150e+003, 6.723653e-001
2.505078e+003, 6.726330e-001
2.507007e+003, 6.723229e-001
2.508935e+003, 6.733778e-001
2.510864e+003, 6.746708e-001
2.512792e+003, 6.747667e-001
2.514720e+003, 6.744916e-001
2.516649e+003, 6.741999e-001
2.518577e+003, 6.740714e-001
2.520506e+003, 6.738129e-001
2.522434e+003, 6.737496e-001
2.524363e+003, 6.739086e-001
2.526291e+003, 6.741343e-001
2.528220e+003, 6.740780e-001
2.530148e+003, 6.745315e-001
2.532077e+003, 6.751854e-001
2.534005e+003, 6.749836e-001
2.535934e+003, 6.751238e-001
2.537862e+003, 6.753218e-001
2.539791e+003, 6.757953e-001
2.541719e+003, 6.763557e-001
2.543647e+003, 6.763262e-001
2.545576e+003, 6.758284e-001
2.547504e+003, 6.763900e-001
2.549433e+003, 6.771291e-001
2.551361e+003, 6.766490e-001
2.553290e+003, 6.754865e-001
2.555218e+003, 6.763000e-001
2.557147e+003, 6.771104e-001
2.559075e+003, 6.772181e-001
2.561004e+003, 6.784178e-001
2.562932e+003, 6.789241e-001
2.564861e+003, 6.786010e-001
2.566789e+003, 6.783786e-001
2.568718e+003, 6.785439e-001
2.570646e+003, 6.788002e-001
2.572574e+003, 6.793017e-001
2.574503e+003, 6.795253e-001
2.576431e+003, 6.787556e-001
2.578360e+003, 6.787400e-001
2.580288e+003, 6.793662e-001
2.582217e+003, 6.795605e-001
2.584145e+003, 6.795528e-001
2.586074e+003, 6.800707e-001
2.588002e+003, 6.809171e-001
2.589931e+003, 6.811085e-001
2.591859e+003, 6.807618e-001
2.593788e+003, 6.807894e-001
2.595716e+003, 6.814614e-001
2.597645e+003, 6.819912e-001
2.599573e+003, 6.819256e-001
2.601501e+003, 6.819608e-001
2.603430e+003, 6.822504e-001
2.605358e+003, 6.827134e-001
2.607287e+003, 6.829018e-001
2.609215e+003, 6.835557e-001
2.611144e+003, 6.843417e-001
2.613072e+003, 6.850097e-001
2.615001e+003, 6.845962e-001
2.616929e+003, 6.849185e-001
2.618858e+003, 6.851941e-001
2.620786e+003, 6.851674e-001
2.622715e+003, 6.850855e-001
2.624643e+003, 6.857659e-001
2.626572e+003, 6.865066e-001
2.628500e+003, 6.873238e-001
2.630428e+003, 6.874744e-001
2.632357e+003, 6.875035e-001
2.634285e+003, 6.876629e-001
2.636214e+003, 6.878101e-001
2.638142e+003, 6.882090e-001
2.640071e+003, 6.891280e-001
2.641999e+003, 6.897697e-001
2.643928e+003, 6.892499e-001
2.645856e+003, 6.891991e-001
2.647785e+003, 6.898662e-001
2.649713e+003, 6.903966e-001
2.651642e+003, 6.908043e-001
2.653570e+003, 6.909889e-001
2.655499e+003, 6.911978e-001
2.657427e+003, 6.912489e-001
2.659355e+003, 6.916707e-001
2.661284e+003, 6.922571e-001
2.663212e+003, 6.922650e-001
2.665141e+003, 6.919521e-001
2.667069e+003, 6.920295e-001
2.668998e+003, 6.919175e-001
2.670926e+003, 6.915902e-001
2.672855e+003, 6.918803e-001
2.674783e+003, 6.922235e-001
2.676712e+003, 6.924292e-001
2.678640e+003, 6.927865e-001
2.680569e+003, 6.929444e-001
2.682497e+003, 6.930877e-001
2.684426e+003, 6.934229e-001
2.686354e+003, 6.932849e-001
2.688282e+003, 6.931608e-001
2.690211e+003, 6.933979e-001
2.692139e+003, 6.934448e-001
2.694068e+003, 6.936288e-001
2.695996e+003, 6.934651e-001
2.697925e+003, 6.934267e-001
2.699853e+003, 6.941260e-001
2.701782e+003, 6.949840e-001
2.703710e+003, 6.949953e-001
2.705639e+003, 6.949204e-001
2.707567e+003, 6.951215e-001
2.709496e+003, 6.952413e-001
2.711424e+003, 6.955031e-001
2.713353e+003, 6.960163e-001
2.715281e+003, 6.962351e-001
2.717209e+003, 6.959667e-001
2.719138e+003, 6.959025e-001
2.721066e+003, 6.963006e-001
2.722995e+003, 6.969733e-001
2.724923e+003, 6.971352e-001
2.726852e+003, 6.968464e-001
2.728780e+003, 6.970064e-001
2.730709e+003, 6.972409e-001
2.732637e+003, 6.972803e-001
2.734566e+003, 6.972002e-001
2.736494e+003, 6.972310e-001
2.738423e+003, 6.978034e-001
2.740351e+003, 6.975532e-001
2.742280e+003, 6.974525e-001
2.744208e+003, 6.979259e-001
2.746136e+003, 6.984883e-001
2.748065e+003, 6.988007e-001
2.749993e+003, 6.988879e-001
2.751922e+003, 6.989079e-001
2.753850e+003, 6.990368e-001
2.755779e+003, 6.992010e-001
2.757707e+003, 6.989147e-001
2.759636e+003, 6.989504e-001
2.761564e+003, 6.993244e-001
2.763493e+003, 6.997002e-001
2.765421e+003, 7.000042e-001
2.767350e+003, 7.001268e-001
2.769278e+003, 6.998246e-001
2.771207e+003, 6.996283e-001
2.773135e+003, 6.991328e-001
2.775063e+003, 6.994575e-001
2.776992e+003, 7.004523e-001
2.778920e+003, 7.013987e-001
2.780849e+003, 7.018572e-001
2.782777e+003, 7.017956e-001
2.784706e+003, 7.013586e-001
2.786634e+003, 7.013278e-001
2.788563e+003, 7.020968e-001
2.790491e+003, 7.021697e-001
2.792420e+003, 7.018517e-001
2.794348e+003, 7.020480e-001
2.796277e+003, 7.025192e-001
2.798205e+003, 7.027169e-001
2.800134e+003, 7.028397e-001
2.802062e+003, 7.029496e-001
2.803990e+003, 7.026890e-001
2.805919e+003, 7.029969e-001
2.807847e+003, 7.035396e-001
2.809776e+003, 7.041187e-001
2.811704e+003, 7.038633e-001
2.813633e+003, 7.041984e-001
2.815561e+003, 7.045649e-001
2.817490e+003, 7.048947e-001
2.819418e+003, 7.047374e-001
2.821347e+003, 7.045324e-001
2.823275e+003, 7.051429e-001
2.825204e+003, 7.051958e-001
2.827132e+003, 7.054956e-001
2.829061e+003, 7.065725e-001
2.830989e+003, 7.065235e-001
2.832917e+003, 7.060528e-001
2.834846e+003, 7.058290e-001
2.836774e+003, 7.061692e-001
2.838703e+003, 7.066528e-001
2.840631e+003, 7.067899e-001
2.842560e+003, 7.064342e-001
2.844488e+003, 7.066559e-001
2.846417e+003, 7.067644e-001
2.848345e+003, 7.066165e-001
2.850274e+003, 7.067432e-001
2.852202e+003, 7.071086e-001
2.854131e+003, 7.066340e-001
2.856059e+003, 7.067191e-001
2.857988e+003, 7.077031e-001
2.859916e+003, 7.082472e-001
2.861844e+003, 7.083384e-001
2.863773e+003, 7.078775e-001
2.865701e+003, 7.084230e-001
2.867630e+003, 7.091156e-001
2.869558e+003, 7.087216e-001
2.871487e+003, 7.087113e-001
2.873415e+003, 7.089838e-001
2.875344e+003, 7.087975e-001
2.877272e+003, 7.093399e-001
2.879201e+003, 7.100731e-001
2.881129e+003, 7.093706e-001
2.883058e+003, 7.091459e-001
2.884986e+003, 7.099519e-001
2.886915e+003, 7.105992e-001
2.888843e+003, 7.109604e-001
2.890771e+003, 7.108741e-001
2.892700e+003, 7.106815e-001
2.894628e+003, 7.108555e-001
2.896557e+003, 7.114412e-001
2.898485e+003, 7.123218e-001
2.900414e+003, 7.125897e-001
2.902342e+003, 7.118545e-001
2.904271e+003, 7.118147e-001
2.906199e+003, 7.116474e-001
2.908128e+003, 7.116847e-001
2.910056e+003, 7.120727e-001
2.911985e+003, 7.122151e-001
2.913913e+003, 7.126244e-001
2.915842e+003, 7.125048e-001
2.917770e+003, 7.131764e-001
2.919698e+003, 7.133842e-001
2.921627e+003, 7.125586e-001
2.923555e+003, 7.123205e-001
2.925484e+003, 7.127039e-001
2.927412e+003, 7.120894e-001
2.929341e+003, 7.116953e-001
2.931269e+003, 7.120317e-001
2.933198e+003, 7.125024e-001
2.935126e+003, 7.120864e-001
2.937055e+003, 7.115116e-001
2.938983e+003, 7.115062e-001
2.940912e+003, 7.123064e-001
2.942840e+003, 7.126647e-001
2.944769e+003, 7.125262e-001
2.946697e+003, 7.124881e-001
2.948625e+003, 7.129939e-001
2.950554e+003, 7.133099e-001
2.952482e+003, 7.135400e-001
2.954411e+003, 7.131341e-001
2.956339e+003, 7.128668e-001
2.958268e+003, 7.122878e-001
2.960196e+003, 7.115679e-001
2.962125e+003, 7.117428e-001
2.964053e+003, 7.117941e-001
2.965982e+003, 7.121229e-001
2.967910e+003, 7.119486e-001
2.969839e+003, 7.116342e-001
2.971767e+003, 7.116150e-001
2.973696e+003, 7.122751e-001
2.975624e+003, 7.122220e-001
2.977552e+003, 7.119889e-001
2.979481e+003, 7.128170e-001
2.981409e+003, 7.130865e-001
2.983338e+003, 7.126957e-001
2.985266e+003, 7.122859e-001
2.987195e+003, 7.125513e-001
2.989123e+003, 7.127966e-001
2.991052e+003, 7.130721e-001
2.992980e+003, 7.131410e-001
2.994909e+003, 7.134874e-001
2.996837e+003, 7.140086e-001
2.998766e+003, 7.147085e-001
3.000694e+003, 7.138062e-001
3.002623e+003, 7.130104e-001
3.004551e+003, 7.134743e-001
3.006479e+003, 7.137377e-001
3.008408e+003, 7.138937e-001
3.010336e+003, 7.146571e-001
3.012265e+003, 7.147813e-001
3.014193e+003, 7.144008e-001
3.016122e+003, 7.148082e-001
3.018050e+003, 7.156294e-001
3.019979e+003, 7.150523e-001
3.021907e+003, 7.147041e-001
3.023836e+003, 7.149200e-001
3.025764e+003, 7.154764e-001
3.027693e+003, 7.160444e-001
3.029621e+003, 7.157707e-001
3.031550e+003, 7.150746e-001
3.033478e+003, 7.154917e-001
3.035406e+003, 7.168545e-001
3.037335e+003, 7.166811e-001
3.039263e+003, 7.160835e-001
3.041192e+003, 7.161761e-001
3.043120e+003, 7.166131e-001
3.045049e+003, 7.172400e-001
3.046977e+003, 7.171299e-001
3.048906e+003, 7.168182e-001
3.050834e+003, 7.177054e-001
3.052763e+003, 7.183262e-001
3.054691e+003, 7.180839e-001
3.056620e+003, 7.187251e-001
3.058548e+003, 7.185357e-001
3.060477e+003, 7.173796e-001
3.062405e+003, 7.180091e-001
3.064333e+003, 7.188352e-001
3.066262e+003, 7.196125e-001
3.068190e+003, 7.200950e-001
3.070119e+003, 7.195455e-001
3.072047e+003, 7.186884e-001
3.073976e+003, 7.192647e-001
3.075904e+003, 7.193756e-001
3.077833e+003, 7.190619e-001
3.079761e+003, 7.199044e-001
3.081690e+003, 7.200422e-001
3.083618e+003, 7.197020e-001
3.085547e+003, 7.207448e-001
3.087475e+003, 7.216908e-001
3.089404e+003, 7.214096e-001
3.091332e+003, 7.202614e-001
3.093260e+003, 7.201707e-001
3.095189e+003, 7.206682e-001
3.097117e+003, 7.212964e-001
3.099046e+003, 7.212624e-001
3.100974e+003, 7.206372e-001
3.102903e+003, 7.206635e-001
3.104831e+003, 7.209824e-001
3.106760e+003, 7.216678e-001
3.108688e+003, 7.224602e-001
3.110617e+003, 7.222044e-001
3.112545e+003, 7.212041e-001
3.114474e+003, 7.213755e-001
3.116402e+003, 7.223017e-001
3.118331e+003, 7.225090e-001
3.120259e+003, 7.226415e-001
3.122188e+003, 7.231638e-001
3.124116e+003, 7.234925e-001
3.126044e+003, 7.229559e-001
3.127973e+003, 7.232911e-001
3.129901e+003, 7.240102e-001
3.131830e+003, 7.237014e-001
3.133758e+003, 7.240064e-001
3.135687e+003, 7.242432e-001
3.137615e+003, 7.242180e-001
3.139544e+003, 7.242865e-001
3.141472e+003, 7.239306e-001
3.143401e+003, 7.246661e-001
3.145329e+003, 7.250646e-001
3.147258e+003, 7.255476e-001
3.149186e+003, 7.256495e-001
3.151115e+003, 7.251628e-001
3.153043e+003, 7.258226e-001
3.154971e+003, 7.265748e-001
3.156900e+003, 7.263318e-001
3.158828e+003, 7.257727e-001
3.160757e+003, 7.265193e-001
3.162685e+003, 7.267377e-001
3.164614e+003, 7.268484e-001
3.166542e+003, 7.272019e-001
3.168471e+003, 7.271659e-001
3.170399e+003, 7.265497e-001
3.172328e+003, 7.260437e-001
3.174256e+003, 7.261931e-001
3.176185e+003, 7.264669e-001
3.178113e+003, 7.264315e-001
3.180042e+003, 7.274479e-001
3.181970e+003, 7.274737e-001
3.183898e+003, 7.274420e-001
3.185827e+003, 7.267746e-001
3.187755e+003, 7.263693e-001
3.189684e+003, 7.268861e-001
3.191612e+003, 7.275224e-001
3.193541e+003, 7.280704e-001
3.195469e+003, 7.273546e-001
3.197398e+003, 7.275184e-001
3.199326e+003, 7.279118e-001
3.201255e+003, 7.286851e-001
3.203183e+003, 7.287160e-001
3.205112e+003, 7.279989e-001
3.207040e+003, 7.275722e-001
3.208969e+003, 7.281405e-001
3.210897e+003, 7.287471e-001
3.212825e+003, 7.295187e-001
3.214754e+003, 7.293504e-001
3.216682e+003, 7.285276e-001
3.218611e+003, 7.294138e-001
3.220539e+003, 7.304036e-001
3.222468e+003, 7.306051e-001
3.224396e+003, 7.300963e-001
3.226325e+003, 7.297246e-001
3.228253e+003, 7.300323e-001
3.230182e+003, 7.308185e-001
3.232110e+003, 7.312986e-001
3.234039e+003, 7.316807e-001
3.235967e+003, 7.317886e-001
3.237896e+003, 7.311133e-001
3.239824e+003, 7.306913e-001
3.241752e+003, 7.314144e-001
3.243681e+003, 7.315362e-001
3.245609e+003, 7.326136e-001
3.247538e+003, 7.329952e-001
3.249466e+003, 7.328390e-001
3.251395e+003, 7.337158e-001
3.253323e+003, 7.342559e-001
3.255252e+003, 7.338585e-001
3.257180e+003, 7.328405e-001
3.259109e+003, 7.331418e-001
3.261037e+003, 7.341936e-001
3.262966e+003, 7.338256e-001
3.264894e+003, 7.342834e-001
3.266823e+003, 7.343339e-001
3.268751e+003, 7.339185e-001
3.270679e+003, 7.340217e-001
3.272608e+003, 7.339849e-001
3.274536e+003, 7.349253e-001
3.276465e+003, 7.348499e-001
3.278393e+003, 7.340364e-001
3.280322e+003, 7.336699e-001
3.282250e+003, 7.340391e-001
3.284179e+003, 7.349946e-001
3.286107e+003, 7.351943e-001
3.288036e+003, 7.362043e-001
3.289964e+003, 7.367723e-001
3.291893e+003, 7.364354e-001
3.293821e+003, 7.362247e-001
3.295750e+003, 7.361706e-001
3.297678e+003, 7.355495e-001
3.299606e+003, 7.360175e-001
3.301535e+003, 7.368212e-001
3.303463e+003, 7.365791e-001
3.305392e+003, 7.363862e-001
3.307320e+003, 7.381003e-001
3.309249e+003, 7.392843e-001
3.311177e+003, 7.385577e-001
3.313106e+003, 7.378185e-001
3.315034e+003, 7.380816e-001
3.316963e+003, 7.375503e-001
3.318891e+003, 7.374442e-001
3.320820e+003, 7.386990e-001
3.322748e+003, 7.389789e-001
3.324677e+003, 7.383455e-001
3.326605e+003, 7.379261e-001
3.328533e+003, 7.387097e-001
3.330462e+003, 7.390335e-001
3.332390e+003, 7.393090e-001
3.334319e+003, 7.392132e-001
3.336247e+003, 7.383519e-001
3.338176e+003, 7.384093e-001
3.340104e+003, 7.393441e-001
3.342033e+003, 7.394287e-001
3.343961e+003, 7.394992e-001
3.345890e+003, 7.400945e-001
3.347818e+003, 7.396263e-001
3.349747e+003, 7.392160e-001
3.351675e+003, 7.398219e-001
3.353604e+003, 7.402973e-001
3.355532e+003, 7.395566e-001
3.357460e+003, 7.393846e-001
3.359389e+003, 7.395881e-001
3.361317e+003, 7.400869e-001
3.363246e+003, 7.410740e-001
3.365174e+003, 7.405724e-001
3.367103e+003, 7.384953e-001
3.369031e+003, 7.381649e-001
3.370960e+003, 7.393698e-001
3.372888e+003, 7.400314e-001
3.374817e+003, 7.391633e-001
3.376745e+003, 7.387935e-001
3.378674e+003, 7.385720e-001
3.380602e+003, 7.389731e-001
3.382531e+003, 7.398110e-001
3.384459e+003, 7.393340e-001
3.386387e+003, 7.390661e-001
3.388316e+003, 7.390231e-001
3.390244e+003, 7.392151e-001
3.392173e+003, 7.395215e-001
3.394101e+003, 7.404355e-001
3.396030e+003, 7.402501e-001
3.397958e+003, 7.401862e-001
3.399887e+003, 7.398037e-001
3.401815e+003, 7.394046e-001
3.403744e+003, 7.401835e-001
3.405672e+003, 7.407882e-001
3.407601e+003, 7.412939e-001
3.409529e+003, 7.414446e-001
3.411458e+003, 7.417688e-001
3.413386e+003, 7.406212e-001
3.415314e+003, 7.400922e-001
3.417243e+003, 7.399493e-001
3.419171e+003, 7.400784e-001
3.421100e+003, 7.407201e-001
3.423028e+003, 7.405422e-001
3.424957e+003, 7.401172e-001
3.426885e+003, 7.403303e-001
3.428814e+003, 7.417002e-001
3.430742e+003, 7.412726e-001
3.432671e+003, 7.402814e-001
3.434599e+003, 7.408507e-001
3.436528e+003, 7.410042e-001
3.438456e+003, 7.406985e-001
3.440385e+003, 7.402079e-001
3.442313e+003, 7.407143e-001
3.444241e+003, 7.421702e-001
3.446170e+003, 7.421647e-001
3.448098e+003, 7.421441e-001
3.450027e+003, 7.427190e-001
3.451955e+003, 7.427032e-001
3.453884e+003, 7.432700e-001
3.455812e+003, 7.421173e-001
3.457741e+003, 7.411014e-001
3.459669e+003, 7.413119e-001
3.461598e+003, 7.418340e-001
3.463526e+003, 7.417758e-001
3.465455e+003, 7.417127e-001
3.467383e+003, 7.423142e-001
3.469312e+003, 7.425629e-001
3.471240e+003, 7.426441e-001
3.473168e+003, 7.423133e-001
3.475097e+003, 7.416739e-001
3.477025e+003, 7.410566e-001
3.478954e+003, 7.410979e-001
3.480882e+003, 7.410720e-001
3.482811e+003, 7.416632e-001
3.484739e+003, 7.423308e-001
3.486668e+003, 7.427183e-001
3.488596e+003, 7.439376e-001
3.490525e+003, 7.444896e-001
3.492453e+003, 7.439531e-001
3.494382e+003, 7.429227e-001
3.496310e+003, 7.422856e-001
3.498239e+003, 7.415217e-001
3.500167e+003, 7.420017e-001
3.502095e+003, 7.424740e-001
3.504024e+003, 7.421713e-001
3.505952e+003, 7.410687e-001
3.507881e+003, 7.412144e-001
3.509809e+003, 7.420180e-001
3.511738e+003, 7.420492e-001
3.513666e+003, 7.414793e-001
3.515595e+003, 7.423813e-001
3.517523e+003, 7.428561e-001
3.519452e+003, 7.428665e-001
3.521380e+003, 7.428564e-001
3.523309e+003, 7.425500e-001
3.525237e+003, 7.423600e-001
3.527166e+003, 7.431889e-001
3.529094e+003, 7.437060e-001
3.531022e+003, 7.433385e-001
3.532951e+003, 7.432653e-001
3.534879e+003, 7.436861e-001
3.536808e+003, 7.434688e-001
3.538736e+003, 7.431267e-001
3.540665e+003, 7.435088e-001
3.542593e+003, 7.446266e-001
3.544522e+003, 7.438980e-001
3.546450e+003, 7.435315e-001
3.548379e+003, 7.442085e-001
3.550307e+003, 7.441894e-001
3.552236e+003, 7.445115e-001
3.554164e+003, 7.443001e-001
3.556093e+003, 7.423374e-001
3.558021e+003, 7.412016e-001
3.559949e+003, 7.415802e-001
3.561878e+003, 7.422999e-001
3.563806e+003, 7.417363e-001
3.565735e+003, 7.423859e-001
3.567663e+003, 7.432655e-001
3.569592e+003, 7.436911e-001
3.571520e+003, 7.430338e-001
3.573449e+003, 7.434442e-001
3.575377e+003, 7.436163e-001
3.577306e+003, 7.432135e-001
3.579234e+003, 7.436380e-001
3.581163e+003, 7.436429e-001
3.583091e+003, 7.437211e-001
3.585020e+003, 7.433963e-001
3.586948e+003, 7.422957e-001
3.588876e+003, 7.418730e-001
3.590805e+003, 7.424796e-001
3.592733e+003, 7.433898e-001
3.594662e+003, 7.438250e-001
3.596590e+003, 7.447538e-001
3.598519e+003, 7.438632e-001
3.600447e+003, 7.444295e-001
3.602376e+003, 7.452387e-001
3.604304e+003, 7.455436e-001
3.606233e+003, 7.456278e-001
3.608161e+003, 7.457144e-001
3.610090e+003, 7.466013e-001
3.612018e+003, 7.468031e-001
3.613947e+003, 7.474315e-001
3.615875e+003, 7.471766e-001
3.617803e+003, 7.470300e-001
3.619732e+003, 7.479004e-001
3.621660e+003, 7.476170e-001
3.623589e+003, 7.470722e-001
3.625517e+003, 7.477218e-001
3.627446e+003, 7.474080e-001
3.629374e+003, 7.458028e-001
3.631303e+003, 7.451403e-001
3.633231e+003, 7.456111e-001
3.635160e+003, 7.460304e-001
3.637088e+003, 7.463920e-001
3.639017e+003, 7.475089e-001
3.640945e+003, 7.476875e-001
3.642874e+003, 7.476395e-001
3.644802e+003, 7.487481e-001
3.646730e+003, 7.496477e-001
3.648659e+003, 7.498564e-001
3.650587e+003, 7.498471e-001
3.652516e+003, 7.500869e-001
3.654444e+003, 7.496971e-001
3.656373e+003, 7.491291e-001
3.658301e+003, 7.487670e-001
3.660230e+003, 7.486382e-001
3.662158e+003, 7.505389e-001
3.664087e+003, 7.518969e-001
3.666015e+003, 7.513945e-001
3.667944e+003, 7.504681e-001
3.669872e+003, 7.501838e-001
3.671801e+003, 7.503592e-001
3.673729e+003, 7.504255e-001
3.675657e+003, 7.512408e-001
3.677586e+003, 7.507285e-001
3.679514e+003, 7.512921e-001
3.681443e+003, 7.532273e-001
3.683371e+003, 7.540527e-001
3.685300e+003, 7.533481e-001
3.687228e+003, 7.529853e-001
3.689157e+003, 7.529771e-001
3.691085e+003, 7.524205e-001
3.693014e+003, 7.535121e-001
3.694942e+003, 7.540568e-001
3.696871e+003, 7.531981e-001
3.698799e+003, 7.528147e-001
3.700728e+003, 7.534826e-001
3.702656e+003, 7.537849e-001
3.704584e+003, 7.543132e-001
3.706513e+003, 7.549466e-001
3.708441e+003, 7.566496e-001
3.710370e+003, 7.574803e-001
3.712298e+003, 7.568938e-001
3.714227e+003, 7.553234e-001
3.716155e+003, 7.541394e-001
3.718084e+003, 7.534136e-001
3.720012e+003, 7.538695e-001
3.721941e+003, 7.556096e-001
3.723869e+003, 7.572955e-001
3.725798e+003, 7.570724e-001
3.727726e+003, 7.564768e-001
3.729655e+003, 7.568972e-001
3.731583e+003, 7.575991e-001
3.733511e+003, 7.554811e-001
3.735440e+003, 7.555816e-001
3.737368e+003, 7.557234e-001
3.739297e+003, 7.561194e-001
3.741225e+003, 7.570426e-001
3.743154e+003, 7.577999e-001
3.745082e+003, 7.588003e-001
3.747011e+003, 7.582489e-001
3.748939e+003, 7.584391e-001
3.750868e+003, 7.600140e-001
3.752796e+003, 7.607151e-001
3.754725e+003, 7.604223e-001
3.756653e+003, 7.599825e-001
3.758582e+003, 7.598892e-001
3.760510e+003, 7.595646e-001
3.762438e+003, 7.602696e-001
3.764367e+003, 7.617744e-001
3.766295e+003, 7.614672e-001
3.768224e+003, 7.608526e-001
3.770152e+003, 7.618395e-001
3.772081e+003, 7.626265e-001
3.774009e+003, 7.626815e-001
3.775938e+003, 7.632302e-001
3.777866e+003, 7.636814e-001
3.779795e+003, 7.627591e-001
3.781723e+003, 7.615794e-001
3.783652e+003, 7.613235e-001
3.785580e+003, 7.616066e-001
3.787509e+003, 7.619312e-001
3.789437e+003, 7.630638e-001
3.791365e+003, 7.621195e-001
3.793294e+003, 7.603929e-001
3.795222e+003, 7.602592e-001
3.797151e+003, 7.606100e-001
3.799079e+003, 7.621790e-001
3.801008e+003, 7.638084e-001
3.802936e+003, 7.633611e-001
3.804865e+003, 7.632568e-001
3.806793e+003, 7.631841e-001
3.808722e+003, 7.627112e-001
3.810650e+003, 7.629543e-001
3.812579e+003, 7.645910e-001
3.814507e+003, 7.642676e-001
3.816436e+003, 7.648577e-001
3.818364e+003, 7.644004e-001
3.820292e+003, 7.639933e-001
3.822221e+003, 7.651747e-001
3.824149e+003, 7.651286e-001
3.826078e+003, 7.660634e-001
3.828006e+003, 7.665829e-001
3.829935e+003, 7.657520e-001
3.831863e+003, 7.655353e-001
3.833792e+003, 7.658042e-001
3.835720e+003, 7.648783e-001
3.837649e+003, 7.661954e-001
3.839577e+003, 7.665960e-001
3.841506e+003, 7.665581e-001
3.843434e+003, 7.657635e-001
3.845363e+003, 7.659973e-001
3.847291e+003, 7.678380e-001
3.849219e+003, 7.675966e-001
3.851148e+003, 7.668550e-001
3.853076e+003, 7.673205e-001
3.855005e+003, 7.679384e-001
3.856933e+003, 7.693977e-001
3.858862e+003, 7.702070e-001
3.860790e+003, 7.691368e-001
3.862719e+003, 7.677870e-001
3.864647e+003, 7.682101e-001
3.866576e+003, 7.695725e-001
3.868504e+003, 7.699282e-001
3.870433e+003, 7.704507e-001
3.872361e+003, 7.688481e-001
3.874290e+003, 7.676228e-001
3.876218e+003, 7.684392e-001
3.878146e+003, 7.695425e-001
3.880075e+003, 7.698748e-001
3.882003e+003, 7.695667e-001
3.883932e+003, 7.699554e-001
3.885860e+003, 7.701920e-001
3.887789e+003, 7.710146e-001
3.889717e+003, 7.716776e-001
3.891646e+003, 7.707604e-001
3.893574e+003, 7.703866e-001
3.895503e+003, 7.685727e-001
3.897431e+003, 7.685920e-001
3.899360e+003, 7.712510e-001
3.901288e+003, 7.722968e-001
3.903217e+003, 7.699034e-001
3.905145e+003, 7.696391e-001
3.907073e+003, 7.712305e-001
3.909002e+003, 7.709182e-001
3.910930e+003, 7.700255e-001
3.912859e+003, 7.709545e-001
3.914787e+003, 7.719803e-001
3.916716e+003, 7.718508e-001
3.918644e+003, 7.719646e-001
3.920573e+003, 7.720654e-001
3.922501e+003, 7.712280e-001
3.924430e+003, 7.707439e-001
3.926358e+003, 7.717293e-001
3.928287e+003, 7.724114e-001
3.930215e+003, 7.736725e-001
3.932144e+003, 7.756052e-001
3.934072e+003, 7.751838e-001
3.936000e+003, 7.733693e-001
3.937929e+003, 7.732219e-001
3.939857e+003, 7.740502e-001
3.941786e+003, 7.731552e-001
3.943714e+003, 7.718567e-001
3.945643e+003, 7.713817e-001
3.947571e+003, 7.725522e-001
3.949500e+003, 7.742302e-001
3.951428e+003, 7.746230e-001
3.953357e+003, 7.738945e-001
3.955285e+003, 7.741933e-001
3.957214e+003, 7.746774e-001
3.959142e+003, 7.748660e-001
3.961071e+003, 7.755026e-001
3.962999e+003, 7.747756e-001
3.964927e+003, 7.730930e-001
3.966856e+003, 7.727152e-001
3.968784e+003, 7.751432e-001
3.970713e+003, 7.758492e-001
3.972641e+003, 7.743864e-001
3.974570e+003, 7.758729e-001
3.976498e+003, 7.769845e-001
3.978427e+003, 7.750916e-001
3.980355e+003, 7.749960e-001
3.982284e+003, 7.758153e-001
3.984212e+003, 7.766762e-001
3.986141e+003, 7.756450e-001
3.988069e+003, 7.753682e-001
3.989998e+003, 7.766544e-001
3.991926e+003, 7.761660e-001
3.993854e+003, 7.762057e-001
3.995783e+003, 7.766736e-001
3.997711e+003, 7.775093e-001
3.999640e+003, 7.777168e-001
##END=



