##NAMES=Chiolite
##RRUFFID=R050412
##IDEAL CHEMISTRY=Na_5_Al_3_F_14_
##LOCALITY=Ivigtut cryolite deposit, Arsuk Fjord, Greenland
##OWNER=RRUFF
##SOURCE=G.R. Rossman
##DESCRIPTION=Colorless fragment
##STATUS=The identification of this mineral has been confirmed by X-ray diffraction and chemical analysis
##URL=rruff.info/R050412
##MEASURED CHEMISTRY=(Na_4.96_K_0.04_)_Î£=5_Al_3.00_F_14.00_ ; trace amounts of Si and Ca
3.991926e+002, 1.271002e-001
4.011211e+002, 1.532505e-001
4.030496e+002, 1.539872e-001
4.049780e+002, 1.501572e-001
4.069065e+002, 1.419352e-001
4.088350e+002, 1.310546e-001
4.107634e+002, 1.170696e-001
4.126919e+002, 1.053354e-001
4.146204e+002, 9.252117e-002
4.165488e+002, 8.292783e-002
4.184773e+002, 7.457190e-002
4.204058e+002, 6.613423e-002
4.223342e+002, 5.857914e-002
4.242627e+002, 5.199755e-002
4.261912e+002, 4.668187e-002
4.281196e+002, 4.280070e-002
4.300481e+002, 3.710927e-002
4.319766e+002, 3.293048e-002
4.339050e+002, 3.059835e-002
4.358335e+002, 2.626782e-002
4.377620e+002, 2.330078e-002
4.396904e+002, 2.206067e-002
4.416189e+002, 2.143384e-002
4.435474e+002, 1.974031e-002
4.454758e+002, 1.854219e-002
4.474043e+002, 1.800645e-002
4.493328e+002, 1.777780e-002
4.512612e+002, 1.781196e-002
4.531897e+002, 1.793293e-002
4.551182e+002, 1.797740e-002
4.570466e+002, 1.763441e-002
4.589751e+002, 1.751110e-002
4.609036e+002, 1.742247e-002
4.628320e+002, 1.792401e-002
4.647605e+002, 1.862403e-002
4.666890e+002, 1.968574e-002
4.686174e+002, 1.921397e-002
4.705459e+002, 1.811437e-002
4.724744e+002, 1.872793e-002
4.744028e+002, 1.928785e-002
4.763313e+002, 1.933983e-002
4.782598e+002, 2.008933e-002
4.801882e+002, 2.132208e-002
4.821167e+002, 2.175783e-002
4.840452e+002, 2.236271e-002
4.859736e+002, 2.361935e-002
4.879021e+002, 2.391122e-002
4.898306e+002, 2.401523e-002
4.917590e+002, 2.392319e-002
4.936875e+002, 2.430501e-002
4.956160e+002, 2.509019e-002
4.975444e+002, 2.557337e-002
4.994729e+002, 2.645594e-002
5.014014e+002, 2.777164e-002
5.033298e+002, 2.936035e-002
5.052583e+002, 3.039939e-002
5.071868e+002, 3.140292e-002
5.091152e+002, 3.316614e-002
5.110437e+002, 3.532913e-002
5.129722e+002, 3.739787e-002
5.149006e+002, 3.903280e-002
5.168291e+002, 4.070584e-002
5.187576e+002, 4.308185e-002
5.206860e+002, 4.568390e-002
5.226145e+002, 4.896098e-002
5.245430e+002, 5.199186e-002
5.264714e+002, 5.559032e-002
5.283999e+002, 5.937769e-002
5.303284e+002, 6.367221e-002
5.322568e+002, 6.906973e-002
5.341853e+002, 7.458921e-002
5.361138e+002, 8.106434e-002
5.380422e+002, 8.859596e-002
5.399707e+002, 9.638480e-002
5.418992e+002, 1.060173e-001
5.438276e+002, 1.175716e-001
5.457561e+002, 1.300888e-001
5.476846e+002, 1.444701e-001
5.496130e+002, 1.604041e-001
5.515415e+002, 1.773623e-001
5.534700e+002, 1.953664e-001
5.553984e+002, 2.157063e-001
5.573269e+002, 2.379195e-001
5.592554e+002, 2.586856e-001
5.611838e+002, 2.783175e-001
5.631123e+002, 2.955822e-001
5.650408e+002, 3.081943e-001
5.669692e+002, 3.155191e-001
5.688977e+002, 3.205333e-001
5.708262e+002, 3.221703e-001
5.727546e+002, 3.146947e-001
5.746831e+002, 3.024759e-001
5.766116e+002, 2.877180e-001
5.785400e+002, 2.705556e-001
5.804685e+002, 2.527107e-001
5.823970e+002, 2.363743e-001
5.843254e+002, 2.229654e-001
5.862539e+002, 2.143953e-001
5.881824e+002, 2.106996e-001
5.901108e+002, 2.105370e-001
5.920393e+002, 2.153945e-001
5.939678e+002, 2.254885e-001
5.958962e+002, 2.409158e-001
5.978247e+002, 2.592291e-001
5.997532e+002, 2.778326e-001
6.016816e+002, 2.975977e-001
6.036101e+002, 3.174693e-001
6.055386e+002, 3.346608e-001
6.074670e+002, 3.497171e-001
6.093955e+002, 3.621221e-001
6.113240e+002, 3.694571e-001
6.132524e+002, 3.710028e-001
6.151809e+002, 3.693912e-001
6.171094e+002, 3.637991e-001
6.190378e+002, 3.580998e-001
6.209663e+002, 3.530590e-001
6.228948e+002, 3.468060e-001
6.248232e+002, 3.416291e-001
6.267517e+002, 3.353501e-001
6.286802e+002, 3.273852e-001
6.306086e+002, 3.192828e-001
6.325371e+002, 3.097768e-001
6.344656e+002, 2.977621e-001
6.363940e+002, 2.845160e-001
6.383225e+002, 2.705469e-001
6.402510e+002, 2.555514e-001
6.421794e+002, 2.402387e-001
6.441079e+002, 2.258005e-001
6.460364e+002, 2.123465e-001
6.479648e+002, 1.992702e-001
6.498933e+002, 1.868437e-001
6.518218e+002, 1.759668e-001
6.537502e+002, 1.655548e-001
6.556787e+002, 1.563598e-001
6.576072e+002, 1.477005e-001
6.595356e+002, 1.393955e-001
6.614641e+002, 1.321385e-001
6.633926e+002, 1.252099e-001
6.653210e+002, 1.193433e-001
6.672495e+002, 1.147363e-001
6.691780e+002, 1.091832e-001
6.711064e+002, 1.029572e-001
6.730349e+002, 9.779796e-002
6.749634e+002, 9.346977e-002
6.768918e+002, 8.869144e-002
6.788203e+002, 8.447725e-002
6.807488e+002, 8.082632e-002
6.826772e+002, 7.703076e-002
6.846057e+002, 7.331429e-002
6.865342e+002, 6.974981e-002
6.884626e+002, 6.631026e-002
6.903911e+002, 6.320842e-002
6.923196e+002, 6.036760e-002
6.942480e+002, 5.675984e-002
6.961765e+002, 5.319048e-002
6.981050e+002, 5.028958e-002
7.000334e+002, 4.739580e-002
7.019619e+002, 4.461439e-002
7.038904e+002, 4.195543e-002
7.058188e+002, 3.942722e-002
7.077473e+002, 3.717059e-002
7.096758e+002, 3.458506e-002
7.116042e+002, 3.227211e-002
7.135327e+002, 3.016129e-002
7.154612e+002, 2.856198e-002
7.173896e+002, 2.697766e-002
7.193181e+002, 2.532134e-002
7.212466e+002, 2.373604e-002
7.231750e+002, 2.246802e-002
7.251035e+002, 2.151835e-002
7.270320e+002, 2.057598e-002
7.289604e+002, 1.969608e-002
7.308889e+002, 1.939881e-002
7.328174e+002, 1.862095e-002
7.347458e+002, 1.800722e-002
7.366743e+002, 1.774005e-002
7.386028e+002, 1.712706e-002
7.405313e+002, 1.625943e-002
7.424597e+002, 1.538774e-002
7.443882e+002, 1.476740e-002
7.463167e+002, 1.412071e-002
7.482451e+002, 1.340363e-002
7.501736e+002, 1.265685e-002
7.521021e+002, 1.187057e-002
7.540305e+002, 1.204452e-002
7.559590e+002, 1.211122e-002
7.578875e+002, 1.159126e-002
7.598159e+002, 1.115078e-002
7.617444e+002, 1.110619e-002
7.636729e+002, 1.102900e-002
7.656013e+002, 1.096112e-002
7.675298e+002, 1.089888e-002
7.694583e+002, 1.073388e-002
7.713867e+002, 1.035054e-002
7.733152e+002, 1.015902e-002
7.752437e+002, 1.001273e-002
7.771721e+002, 9.518002e-003
7.791006e+002, 9.230533e-003
7.810291e+002, 9.366215e-003
7.829575e+002, 9.079989e-003
7.848860e+002, 8.636124e-003
7.868145e+002, 8.691972e-003
7.887429e+002, 8.673120e-003
7.906714e+002, 8.498502e-003
7.925999e+002, 8.598869e-003
7.945283e+002, 8.726938e-003
7.964568e+002, 8.819742e-003
7.983853e+002, 9.073630e-003
8.003137e+002, 9.252294e-003
8.022422e+002, 9.359934e-003
8.041707e+002, 9.029089e-003
8.060991e+002, 8.411547e-003
8.080276e+002, 8.122488e-003
8.099561e+002, 8.037165e-003
8.118845e+002, 8.143971e-003
8.138130e+002, 8.166130e-003
8.157415e+002, 7.869102e-003
8.176699e+002, 7.401133e-003
8.195984e+002, 7.033288e-003
8.215269e+002, 6.987764e-003
8.234553e+002, 6.665791e-003
8.253838e+002, 5.984311e-003
8.273123e+002, 5.924631e-003
8.292407e+002, 6.054213e-003
8.311692e+002, 6.100027e-003
8.330977e+002, 6.282609e-003
8.350261e+002, 6.296279e-003
8.369546e+002, 5.918190e-003
8.388831e+002, 5.614329e-003
8.408115e+002, 5.626982e-003
8.427400e+002, 5.419507e-003
8.446685e+002, 5.255926e-003
8.465969e+002, 5.608559e-003
8.485254e+002, 5.655821e-003
8.504539e+002, 5.303303e-003
8.523823e+002, 5.247546e-003
8.543108e+002, 5.280779e-003
8.562393e+002, 4.934364e-003
8.581677e+002, 4.808000e-003
8.600962e+002, 4.895516e-003
8.620247e+002, 4.880912e-003
8.639531e+002, 4.529482e-003
8.658816e+002, 4.225294e-003
8.678101e+002, 4.438224e-003
8.697385e+002, 4.652024e-003
8.716670e+002, 4.780545e-003
8.735955e+002, 4.517109e-003
8.755239e+002, 4.613899e-003
8.774524e+002, 4.634509e-003
8.793809e+002, 4.353052e-003
8.813093e+002, 4.210105e-003
8.832378e+002, 4.392540e-003
8.851663e+002, 4.384390e-003
8.870947e+002, 4.090427e-003
8.890232e+002, 4.036566e-003
8.909517e+002, 4.027306e-003
8.928801e+002, 3.988105e-003
8.948085e+002, 4.139121e-003
8.967370e+002, 4.327366e-003
8.986655e+002, 4.097227e-003
9.005939e+002, 4.146942e-003
9.025224e+002, 4.189311e-003
9.044509e+002, 4.144017e-003
9.063793e+002, 4.220024e-003
9.083078e+002, 4.111872e-003
9.102363e+002, 4.021842e-003
9.121647e+002, 3.941675e-003
9.140932e+002, 4.032336e-003
9.160217e+002, 4.291794e-003
9.179501e+002, 4.479591e-003
9.198786e+002, 4.248711e-003
9.218071e+002, 3.864685e-003
9.237355e+002, 3.881206e-003
9.256640e+002, 3.988609e-003
9.275925e+002, 3.911657e-003
9.295209e+002, 3.704919e-003
9.314494e+002, 3.970431e-003
9.333779e+002, 3.940082e-003
9.353063e+002, 3.570659e-003
9.372348e+002, 3.506504e-003
9.391633e+002, 3.679071e-003
9.410917e+002, 3.715762e-003
9.430202e+002, 3.875512e-003
9.449487e+002, 3.849272e-003
9.468771e+002, 4.068322e-003
9.488056e+002, 4.267599e-003
9.507341e+002, 4.204980e-003
9.526625e+002, 3.887130e-003
9.545910e+002, 3.763636e-003
9.565195e+002, 3.721542e-003
9.584479e+002, 3.805763e-003
9.603764e+002, 3.961040e-003
9.623049e+002, 4.092619e-003
9.642333e+002, 4.118985e-003
9.661618e+002, 4.304620e-003
9.680903e+002, 4.433461e-003
9.700187e+002, 4.528929e-003
9.719472e+002, 4.638695e-003
9.738757e+002, 4.718080e-003
9.758041e+002, 4.850997e-003
9.777326e+002, 4.899056e-003
9.796611e+002, 4.830673e-003
9.815895e+002, 4.868407e-003
9.835180e+002, 5.089246e-003
9.854465e+002, 5.445426e-003
9.873749e+002, 5.460888e-003
9.893034e+002, 5.388130e-003
9.912319e+002, 5.497254e-003
9.931603e+002, 5.703076e-003
9.950888e+002, 5.796246e-003
9.970173e+002, 5.992034e-003
9.989457e+002, 6.056116e-003
1.000874e+003, 6.028933e-003
1.002803e+003, 6.308509e-003
1.004731e+003, 6.725742e-003
1.006660e+003, 7.141890e-003
1.008588e+003, 7.568931e-003
1.010517e+003, 7.769069e-003
1.012445e+003, 7.834126e-003
1.014373e+003, 8.096660e-003
1.016302e+003, 8.369885e-003
1.018230e+003, 8.527210e-003
1.020159e+003, 8.796162e-003
1.022087e+003, 8.864818e-003
1.024016e+003, 8.791627e-003
1.025944e+003, 8.989175e-003
1.027873e+003, 9.244810e-003
1.029801e+003, 9.308698e-003
1.031730e+003, 9.403554e-003
1.033658e+003, 9.244259e-003
1.035587e+003, 9.117287e-003
1.037515e+003, 8.990246e-003
1.039444e+003, 8.859940e-003
1.041372e+003, 9.062001e-003
1.043301e+003, 9.452254e-003
1.045229e+003, 9.484684e-003
1.047157e+003, 9.379863e-003
1.049086e+003, 9.503781e-003
1.051014e+003, 9.532486e-003
1.052943e+003, 9.497470e-003
1.054871e+003, 9.327840e-003
1.056800e+003, 8.987561e-003
1.058728e+003, 8.919436e-003
1.060657e+003, 8.986029e-003
1.062585e+003, 8.949989e-003
1.064514e+003, 8.789622e-003
1.066442e+003, 8.941985e-003
1.068371e+003, 9.028750e-003
1.070299e+003, 9.251965e-003
1.072228e+003, 9.155142e-003
1.074156e+003, 9.165911e-003
1.076084e+003, 9.270844e-003
1.078013e+003, 9.156494e-003
1.079941e+003, 8.916094e-003
1.081870e+003, 8.964350e-003
1.083798e+003, 9.321734e-003
1.085727e+003, 9.301849e-003
1.087655e+003, 9.279777e-003
1.089584e+003, 9.598350e-003
1.091512e+003, 9.821067e-003
1.093441e+003, 9.725506e-003
1.095369e+003, 9.514591e-003
1.097298e+003, 9.699363e-003
1.099226e+003, 9.738786e-003
1.101155e+003, 9.503616e-003
1.103083e+003, 9.409951e-003
1.105011e+003, 9.538697e-003
1.106940e+003, 9.688219e-003
1.108868e+003, 9.556063e-003
1.110797e+003, 9.588636e-003
1.112725e+003, 9.602199e-003
1.114654e+003, 9.591380e-003
1.116582e+003, 9.431056e-003
1.118511e+003, 9.047591e-003
1.120439e+003, 8.648603e-003
1.122368e+003, 8.490861e-003
1.124296e+003, 8.527059e-003
1.126225e+003, 8.280836e-003
1.128153e+003, 7.932491e-003
1.130082e+003, 7.534959e-003
1.132010e+003, 7.400361e-003
1.133938e+003, 7.139453e-003
1.135867e+003, 7.049804e-003
1.137795e+003, 7.189595e-003
1.139724e+003, 7.163657e-003
1.141652e+003, 7.087668e-003
1.143581e+003, 6.923784e-003
1.145509e+003, 6.766987e-003
1.147438e+003, 6.538025e-003
1.149366e+003, 6.346285e-003
1.151295e+003, 6.524328e-003
1.153223e+003, 6.558329e-003
1.155152e+003, 6.601912e-003
1.157080e+003, 6.955949e-003
1.159009e+003, 7.781730e-003
1.160937e+003, 8.850678e-003
1.162865e+003, 9.705663e-003
1.164794e+003, 9.921624e-003
1.166722e+003, 9.792597e-003
1.168651e+003, 9.337282e-003
1.170579e+003, 8.272514e-003
1.172508e+003, 7.263108e-003
1.174436e+003, 6.486129e-003
1.176365e+003, 5.813621e-003
1.178293e+003, 5.277515e-003
1.180222e+003, 4.672837e-003
1.182150e+003, 4.368057e-003
1.184079e+003, 4.199291e-003
1.186007e+003, 3.980072e-003
1.187936e+003, 3.600893e-003
1.189864e+003, 3.514282e-003
1.191792e+003, 3.277628e-003
1.193721e+003, 2.778501e-003
1.195649e+003, 2.564770e-003
1.197578e+003, 2.688153e-003
1.199506e+003, 2.903462e-003
1.201435e+003, 2.621748e-003
1.203363e+003, 2.131327e-003
1.205292e+003, 2.068343e-003
1.207220e+003, 2.176034e-003
1.209149e+003, 2.157424e-003
1.211077e+003, 2.046405e-003
1.213006e+003, 1.926857e-003
1.214934e+003, 1.815955e-003
1.216863e+003, 1.655613e-003
1.218791e+003, 1.605778e-003
1.220719e+003, 1.609333e-003
1.222648e+003, 1.447210e-003
1.224576e+003, 1.354906e-003
1.226505e+003, 1.324243e-003
1.228433e+003, 1.346809e-003
1.230362e+003, 1.164060e-003
1.232290e+003, 8.869661e-004
1.234219e+003, 9.464012e-004
1.236147e+003, 9.635540e-004
1.238076e+003, 6.903997e-004
1.240004e+003, 3.520607e-004
1.241933e+003, 1.972280e-004
1.243861e+003, 4.110201e-004
1.245790e+003, 4.499113e-004
1.247718e+003, 2.317711e-004
1.249646e+003, 1.991572e-004
1.251575e+003, 5.282077e-004
1.253503e+003, 8.202423e-004
1.255432e+003, 7.740136e-004
1.257360e+003, 9.737454e-004
1.259289e+003, 1.482338e-003
1.261217e+003, 1.900356e-003
1.263146e+003, 1.846483e-003
1.265074e+003, 1.644432e-003
1.267003e+003, 1.338046e-003
1.268931e+003, 9.129602e-004
1.270860e+003, 6.245728e-004
1.272788e+003, 1.450085e-004
1.274717e+003, -2.927483e-004
1.276645e+003, -5.325178e-004
1.278573e+003, -5.458499e-004
1.280502e+003, -4.944081e-004
1.282430e+003, -4.617826e-004
1.284359e+003, -5.623068e-004
1.286287e+003, -7.787193e-004
1.288216e+003, -9.235549e-004
1.290144e+003, -9.341130e-004
1.292073e+003, -9.427323e-004
1.294001e+003, -7.639505e-004
1.295930e+003, -8.733961e-004
1.297858e+003, -1.072856e-003
1.299787e+003, -1.124225e-003
1.301715e+003, -1.054993e-003
1.303644e+003, -8.915331e-004
1.305572e+003, -9.293901e-004
1.307500e+003, -1.098988e-003
1.309429e+003, -9.826830e-004
1.311357e+003, -9.397987e-004
1.313286e+003, -9.637704e-004
1.315214e+003, -8.097218e-004
1.317143e+003, -9.137063e-004
1.319071e+003, -9.492103e-004
1.321000e+003, -8.253470e-004
1.322928e+003, -8.275148e-004
1.324857e+003, -7.560386e-004
1.326785e+003, -8.768530e-004
1.328714e+003, -1.001419e-003
1.330642e+003, -1.090055e-003
1.332571e+003, -1.090269e-003
1.334499e+003, -1.010678e-003
1.336427e+003, -9.264208e-004
1.338356e+003, -9.432979e-004
1.340284e+003, -9.936474e-004
1.342213e+003, -1.202286e-003
1.344141e+003, -1.228146e-003
1.346070e+003, -1.320918e-003
1.347998e+003, -1.481481e-003
1.349927e+003, -1.450272e-003
1.351855e+003, -1.606833e-003
1.353784e+003, -1.505378e-003
1.355712e+003, -1.313170e-003
1.357641e+003, -1.338467e-003
1.359569e+003, -1.260898e-003
1.361498e+003, -1.086559e-003
1.363426e+003, -1.062575e-003
1.365354e+003, -1.154027e-003
1.367283e+003, -9.911853e-004
1.369211e+003, -9.665854e-004
1.371140e+003, -1.249596e-003
1.373068e+003, -1.319767e-003
1.374997e+003, -1.306892e-003
1.376925e+003, -1.648142e-003
1.378854e+003, -1.581330e-003
1.380782e+003, -1.400856e-003
1.382711e+003, -1.440658e-003
1.384639e+003, -1.470265e-003
1.386568e+003, -1.315873e-003
1.388496e+003, -1.284374e-003
1.390424e+003, -1.310293e-003
1.392353e+003, -1.244114e-003
1.394281e+003, -1.056646e-003
1.396210e+003, -1.049379e-003
1.398138e+003, -1.152284e-003
1.400067e+003, -1.351828e-003
1.401995e+003, -1.438366e-003
1.403924e+003, -1.426144e-003
1.405852e+003, -1.401427e-003
1.407781e+003, -1.109435e-003
1.409709e+003, -1.186668e-003
1.411638e+003, -1.447232e-003
1.413566e+003, -1.489066e-003
1.415495e+003, -1.520807e-003
1.417423e+003, -1.498283e-003
1.419351e+003, -1.542683e-003
1.421280e+003, -1.429022e-003
1.423208e+003, -9.586581e-004
1.425137e+003, -9.290277e-004
1.427065e+003, -1.150166e-003
1.428994e+003, -1.282052e-003
1.430922e+003, -1.320970e-003
1.432851e+003, -1.336110e-003
1.434779e+003, -1.358686e-003
1.436708e+003, -1.154897e-003
1.438636e+003, -1.305639e-003
1.440565e+003, -1.357401e-003
1.442493e+003, -1.317629e-003
1.444422e+003, -1.303773e-003
1.446350e+003, -1.253001e-003
1.448278e+003, -1.221913e-003
1.450207e+003, -1.515776e-003
1.452135e+003, -1.424234e-003
1.454064e+003, -1.056068e-003
1.455992e+003, -1.045235e-003
1.457921e+003, -1.283225e-003
1.459849e+003, -1.218447e-003
1.461778e+003, -1.248674e-003
1.463706e+003, -1.299788e-003
1.465635e+003, -1.439315e-003
1.467563e+003, -1.670844e-003
1.469492e+003, -1.483326e-003
1.471420e+003, -1.210976e-003
1.473349e+003, -1.090981e-003
1.475277e+003, -1.192975e-003
1.477205e+003, -1.146167e-003
1.479134e+003, -1.103827e-003
1.481062e+003, -1.426067e-003
1.482991e+003, -1.541856e-003
1.484919e+003, -1.136534e-003
1.486848e+003, -1.042350e-003
1.488776e+003, -1.186117e-003
1.490705e+003, -1.100825e-003
1.492633e+003, -1.240578e-003
1.494562e+003, -1.203231e-003
1.496490e+003, -1.000445e-003
1.498419e+003, -1.199448e-003
1.500347e+003, -1.374444e-003
1.502276e+003, -1.135855e-003
1.504204e+003, -9.061666e-004
1.506132e+003, -1.023085e-003
1.508061e+003, -1.406491e-003
1.509989e+003, -1.516967e-003
1.511918e+003, -1.566833e-003
1.513846e+003, -1.612216e-003
1.515775e+003, -1.714263e-003
1.517703e+003, -1.786108e-003
1.519632e+003, -1.843411e-003
1.521560e+003, -1.866664e-003
1.523489e+003, -1.904366e-003
1.525417e+003, -1.959743e-003
1.527346e+003, -2.026954e-003
1.529274e+003, -1.853491e-003
1.531203e+003, -2.053417e-003
1.533131e+003, -2.077273e-003
1.535059e+003, -1.782642e-003
1.536988e+003, -1.582196e-003
1.538916e+003, -1.646494e-003
1.540845e+003, -1.880701e-003
1.542773e+003, -1.920826e-003
1.544702e+003, -1.644770e-003
1.546630e+003, -1.520850e-003
1.548559e+003, -1.678000e-003
1.550487e+003, -2.006754e-003
1.552416e+003, -2.010686e-003
1.554344e+003, -1.773498e-003
1.556273e+003, -1.630341e-003
1.558201e+003, -1.388544e-003
1.560130e+003, -1.258701e-003
1.562058e+003, -1.572426e-003
1.563986e+003, -1.527990e-003
1.565915e+003, -1.274141e-003
1.567843e+003, -1.334093e-003
1.569772e+003, -1.423665e-003
1.571700e+003, -1.402600e-003
1.573629e+003, -1.281771e-003
1.575557e+003, -1.078167e-003
1.577486e+003, -1.032099e-003
1.579414e+003, -1.008279e-003
1.581343e+003, -8.484001e-004
1.583271e+003, -6.201667e-004
1.585200e+003, -1.043545e-003
1.587128e+003, -1.184735e-003
1.589057e+003, -9.524465e-004
1.590985e+003, -9.908200e-004
1.592913e+003, -1.101795e-003
1.594842e+003, -1.143436e-003
1.596770e+003, -1.273582e-003
1.598699e+003, -1.257672e-003
1.600627e+003, -1.161721e-003
1.602556e+003, -1.219627e-003
1.604484e+003, -1.303667e-003
1.606413e+003, -1.288339e-003
1.608341e+003, -1.179236e-003
1.610270e+003, -9.249860e-004
1.612198e+003, -8.659146e-004
1.614127e+003, -1.070277e-003
1.616055e+003, -1.062413e-003
1.617984e+003, -6.275503e-004
1.619912e+003, -6.398814e-004
1.621840e+003, -8.334686e-004
1.623769e+003, -7.401425e-004
1.625697e+003, -6.512079e-004
1.627626e+003, -9.799803e-004
1.629554e+003, -1.194520e-003
1.631483e+003, -9.690766e-004
1.633411e+003, -6.572718e-004
1.635340e+003, -7.371349e-004
1.637268e+003, -1.101655e-003
1.639197e+003, -1.274946e-003
1.641125e+003, -1.377400e-003
1.643054e+003, -9.777979e-004
1.644982e+003, -3.809966e-004
1.646911e+003, -4.759544e-004
1.648839e+003, -4.226231e-004
1.650767e+003, -4.175416e-004
1.652696e+003, -4.221340e-004
1.654624e+003, -3.644897e-004
1.656553e+003, -8.346958e-004
1.658481e+003, -1.190379e-003
1.660410e+003, -1.038011e-003
1.662338e+003, -1.276121e-003
1.664267e+003, -1.752057e-003
1.666195e+003, -1.532875e-003
1.668124e+003, -9.526992e-004
1.670052e+003, -1.091116e-003
1.671981e+003, -1.034181e-003
1.673909e+003, -7.268168e-004
1.675838e+003, -8.039238e-004
1.677766e+003, -1.207939e-003
1.679694e+003, -1.549016e-003
1.681623e+003, -1.160150e-003
1.683551e+003, -5.939577e-004
1.685480e+003, -8.580291e-004
1.687408e+003, -1.360440e-003
1.689337e+003, -1.320873e-003
1.691265e+003, -1.454662e-003
1.693194e+003, -1.551500e-003
1.695122e+003, -1.492788e-003
1.697051e+003, -1.526641e-003
1.698979e+003, -1.332852e-003
1.700908e+003, -1.490234e-003
1.702836e+003, -1.848437e-003
1.704765e+003, -1.788267e-003
1.706693e+003, -1.884155e-003
1.708621e+003, -1.832975e-003
1.710550e+003, -1.371913e-003
1.712478e+003, -1.353127e-003
1.714407e+003, -1.646042e-003
1.716335e+003, -1.638247e-003
1.718264e+003, -2.308022e-003
1.720192e+003, -2.641861e-003
1.722121e+003, -2.241524e-003
1.724049e+003, -2.359357e-003
1.725978e+003, -2.308463e-003
1.727906e+003, -2.192314e-003
1.729835e+003, -2.169843e-003
1.731763e+003, -2.241317e-003
1.733692e+003, -2.277718e-003
1.735620e+003, -2.551223e-003
1.737548e+003, -2.887920e-003
1.739477e+003, -3.234394e-003
1.741405e+003, -3.695801e-003
1.743334e+003, -3.609354e-003
1.745262e+003, -3.350574e-003
1.747191e+003, -3.350299e-003
1.749119e+003, -3.393752e-003
1.751048e+003, -3.029642e-003
1.752976e+003, -2.759057e-003
1.754905e+003, -2.701314e-003
1.756833e+003, -2.760197e-003
1.758762e+003, -2.513684e-003
1.760690e+003, -2.385540e-003
1.762619e+003, -2.776735e-003
1.764547e+003, -2.747674e-003
1.766475e+003, -2.225784e-003
1.768404e+003, -2.391143e-003
1.770332e+003, -2.450762e-003
1.772261e+003, -1.884024e-003
1.774189e+003, -2.146285e-003
1.776118e+003, -2.470328e-003
1.778046e+003, -2.279838e-003
1.779975e+003, -1.782963e-003
1.781903e+003, -1.765338e-003
1.783832e+003, -2.240817e-003
1.785760e+003, -2.425287e-003
1.787689e+003, -2.158481e-003
1.789617e+003, -1.933529e-003
1.791546e+003, -2.171188e-003
1.793474e+003, -2.573957e-003
1.795402e+003, -2.909523e-003
1.797331e+003, -2.993037e-003
1.799259e+003, -2.579111e-003
1.801188e+003, -2.115680e-003
1.803116e+003, -2.299295e-003
1.805045e+003, -2.677293e-003
1.806973e+003, -2.689521e-003
1.808902e+003, -2.340496e-003
1.810830e+003, -2.456285e-003
1.812759e+003, -3.083586e-003
1.814687e+003, -3.058896e-003
1.816616e+003, -2.204932e-003
1.818544e+003, -1.526187e-003
1.820473e+003, -2.075405e-003
1.822401e+003, -2.763632e-003
1.824329e+003, -3.013971e-003
1.826258e+003, -2.826222e-003
1.828186e+003, -2.620274e-003
1.830115e+003, -2.636818e-003
1.832043e+003, -2.395857e-003
1.833972e+003, -2.105704e-003
1.835900e+003, -2.336490e-003
1.837829e+003, -2.669114e-003
1.839757e+003, -2.241166e-003
1.841686e+003, -1.512415e-003
1.843614e+003, -1.130643e-003
1.845543e+003, -1.830765e-003
1.847471e+003, -2.534178e-003
1.849400e+003, -2.388129e-003
1.851328e+003, -2.123552e-003
1.853256e+003, -2.514875e-003
1.855185e+003, -2.980008e-003
1.857113e+003, -3.198875e-003
1.859042e+003, -2.757628e-003
1.860970e+003, -2.389607e-003
1.862899e+003, -2.517745e-003
1.864827e+003, -1.859266e-003
1.866756e+003, -1.584798e-003
1.868684e+003, -2.373830e-003
1.870613e+003, -2.734826e-003
1.872541e+003, -2.228202e-003
1.874470e+003, -2.230434e-003
1.876398e+003, -2.615133e-003
1.878327e+003, -2.531026e-003
1.880255e+003, -1.934876e-003
1.882183e+003, -1.933936e-003
1.884112e+003, -2.486045e-003
1.886040e+003, -2.527528e-003
1.887969e+003, -1.747578e-003
1.889897e+003, -1.824781e-003
1.891826e+003, -1.963542e-003
1.893754e+003, -2.387784e-003
1.895683e+003, -3.234217e-003
1.897611e+003, -3.328125e-003
1.899540e+003, -2.431665e-003
1.901468e+003, -1.666016e-003
1.903397e+003, -1.875886e-003
1.905325e+003, -1.976419e-003
1.907254e+003, -2.042722e-003
1.909182e+003, -1.981493e-003
1.911110e+003, -1.989307e-003
1.913039e+003, -2.421201e-003
1.914967e+003, -2.669456e-003
1.916896e+003, -2.831103e-003
1.918824e+003, -2.673249e-003
1.920753e+003, -2.710826e-003
1.922681e+003, -2.924085e-003
1.924610e+003, -2.758983e-003
1.926538e+003, -3.042153e-003
1.928467e+003, -3.474197e-003
1.930395e+003, -4.174991e-003
1.932324e+003, -3.134025e-003
1.934252e+003, -3.185805e-003
1.936181e+003, -4.073997e-003
1.938109e+003, -4.379578e-003
1.940037e+003, -3.670489e-003
1.941966e+003, -3.958861e-003
1.943894e+003, -3.337129e-003
1.945823e+003, -2.092907e-003
1.947751e+003, -1.917603e-003
1.949680e+003, -1.473359e-003
1.951608e+003, -1.990626e-003
1.953537e+003, -2.933277e-003
1.955465e+003, -4.470749e-003
1.957394e+003, -4.606502e-003
1.959322e+003, -3.442435e-003
1.961251e+003, -2.786312e-003
1.963179e+003, -3.588165e-003
1.965108e+003, -4.628282e-003
1.967036e+003, -3.358224e-003
1.968964e+003, -1.510401e-003
1.970893e+003, -1.262302e-003
1.972821e+003, -2.393486e-003
1.974750e+003, -4.500779e-003
1.976678e+003, -4.301353e-003
1.978607e+003, -1.423815e-003
1.980535e+003, -6.632598e-004
1.982464e+003, -2.859988e-003
1.984392e+003, -3.969826e-003
1.986321e+003, -5.078890e-003
1.988249e+003, -3.104678e-003
1.990178e+003, -2.005822e-003
1.992106e+003, -2.456309e-003
1.994035e+003, -3.873293e-003
1.995963e+003, -3.129903e-003
1.997891e+003, -3.774279e-003
1.999820e+003, -5.220114e-003
2.001748e+003, -4.490394e-003
2.003677e+003, -4.684785e-003
2.005605e+003, -4.555437e-003
2.007534e+003, -4.100207e-003
2.009462e+003, -3.633308e-003
2.011391e+003, -2.811775e-003
2.013319e+003, -1.635052e-003
2.015248e+003, -2.481612e-004
2.017176e+003, -7.287569e-004
2.019105e+003, -8.085283e-004
2.021033e+003, -2.428204e-003
2.022962e+003, -4.495568e-003
2.024890e+003, -3.413622e-003
2.026818e+003, -3.918253e-003
2.028747e+003, -3.420057e-003
2.030675e+003, 1.844108e-003
2.032604e+003, 2.944528e-003
2.034532e+003, -5.253226e-004
2.036461e+003, -4.276809e-003
2.038389e+003, -3.411351e-003
2.040318e+003, -1.207058e-003
2.042246e+003, -1.323813e-003
2.044175e+003, -1.753130e-003
2.046103e+003, -1.341680e-003
2.048032e+003, -8.790933e-004
2.049960e+003, -1.619148e-004
2.051889e+003, -1.365906e-003
2.053817e+003, -2.402238e-003
2.055746e+003, -3.019949e-003
2.057674e+003, -2.845350e-003
2.059603e+003, -2.443715e-003
2.061531e+003, -2.022602e-003
2.063459e+003, -2.194337e-003
2.065388e+003, -2.252911e-003
2.067316e+003, -1.576958e-003
2.069245e+003, -1.051270e-003
2.071173e+003, -1.281096e-003
2.073102e+003, -1.924702e-003
2.075030e+003, -2.293879e-003
2.076959e+003, -2.441110e-003
2.078887e+003, -1.850681e-003
2.080816e+003, -1.185711e-003
2.082744e+003, -1.510672e-003
2.084673e+003, -2.307432e-003
2.086601e+003, -2.316462e-003
2.088530e+003, -1.243389e-003
2.090458e+003, -2.349830e-003
2.092386e+003, -3.994761e-003
2.094315e+003, -3.112570e-003
2.096243e+003, -1.550696e-003
2.098172e+003, -1.549138e-003
2.100100e+003, -2.554080e-003
2.102029e+003, -3.935225e-003
2.103957e+003, -3.263824e-003
2.105886e+003, -2.159752e-003
2.107814e+003, -2.896722e-003
2.109743e+003, -2.617460e-003
2.111671e+003, -2.903138e-003
2.113600e+003, -3.596725e-003
2.115528e+003, -3.771614e-003
2.117457e+003, -3.511595e-003
2.119385e+003, -3.227019e-003
2.121313e+003, -3.523313e-003
2.123242e+003, -3.684539e-003
2.125170e+003, -4.178909e-003
2.127099e+003, -5.001186e-003
2.129027e+003, -5.490907e-003
2.130956e+003, -5.182995e-003
2.132884e+003, -4.964250e-003
2.134813e+003, -2.214259e-003
2.136741e+003, -4.396984e-004
2.138670e+003, -2.146290e-003
2.140598e+003, -4.809205e-003
2.142527e+003, -5.860730e-003
2.144455e+003, -3.958758e-003
2.146384e+003, -2.532566e-003
2.148312e+003, -4.810531e-003
2.150240e+003, -5.430096e-003
2.152169e+003, -5.735873e-003
2.154097e+003, -6.216243e-003
2.156026e+003, -5.947773e-003
2.157954e+003, -4.006461e-003
2.159883e+003, 1.350127e-003
2.161811e+003, -2.281840e-004
2.163740e+003, -1.981380e-003
2.165668e+003, 1.092063e-003
2.167597e+003, 1.942965e-004
2.169525e+003, -1.944068e-003
2.171454e+003, -4.501093e-003
2.173382e+003, -4.387616e-003
2.175311e+003, -2.074686e-003
2.177239e+003, -2.195361e-003
2.179167e+003, -1.865012e-003
2.181096e+003, -1.070126e-003
2.183024e+003, -2.465280e-003
2.184953e+003, -4.234194e-003
2.186881e+003, -3.395351e-003
2.188810e+003, -1.370950e-003
2.190738e+003, -1.704146e-003
2.192667e+003, -2.781770e-003
2.194595e+003, -2.198497e-003
2.196524e+003, -1.272577e-003
2.198452e+003, -1.359022e-003
2.200381e+003, -1.093206e-003
2.202309e+003, -1.615098e-003
2.204238e+003, -2.632950e-003
2.206166e+003, -4.158494e-003
2.208094e+003, -3.092295e-003
2.210023e+003, -1.710814e-003
2.211951e+003, -2.992784e-003
2.213880e+003, -3.256566e-003
2.215808e+003, -2.472426e-003
2.217737e+003, -3.227965e-003
2.219665e+003, -2.866474e-003
2.221594e+003, -3.940477e-003
2.223522e+003, -4.316492e-003
2.225451e+003, -4.584252e-003
2.227379e+003, -4.236175e-003
2.229308e+003, -4.448830e-003
2.231236e+003, -3.731439e-003
2.233165e+003, -1.616673e-003
2.235093e+003, -9.462178e-004
2.237021e+003, -2.424823e-003
2.238950e+003, -2.733745e-003
2.240878e+003, -7.484425e-004
2.242807e+003, 1.567393e-004
2.244735e+003, -9.515630e-004
2.246664e+003, -3.196913e-003
2.248592e+003, -4.543751e-003
2.250521e+003, -4.189012e-003
2.252449e+003, -3.938119e-003
2.254378e+003, -4.368657e-003
2.256306e+003, -2.472871e-003
2.258235e+003, -6.790211e-004
2.260163e+003, -2.425334e-004
2.262092e+003, -1.168934e-003
2.264020e+003, -6.655428e-004
2.265948e+003, 1.548272e-004
2.267877e+003, -1.644954e-003
2.269805e+003, -3.514881e-003
2.271734e+003, -3.694561e-003
2.273662e+003, -3.677507e-003
2.275591e+003, -3.600246e-003
2.277519e+003, -2.177814e-003
2.279448e+003, -1.178582e-003
2.281376e+003, -2.290636e-003
2.283305e+003, -2.428428e-003
2.285233e+003, -1.884295e-003
2.287162e+003, -2.145445e-003
2.289090e+003, -1.333402e-003
2.291019e+003, -2.527505e-004
2.292947e+003, 1.069780e-004
2.294875e+003, -5.619087e-005
2.296804e+003, -1.021304e-003
2.298732e+003, -1.109050e-003
2.300661e+003, -1.148129e-003
2.302589e+003, -7.359671e-004
2.304518e+003, -2.797366e-004
2.306446e+003, -7.703420e-004
2.308375e+003, -1.450879e-003
2.310303e+003, -1.849877e-003
2.312232e+003, -1.294854e-003
2.314160e+003, -3.945815e-004
2.316089e+003, -1.372809e-004
2.318017e+003, 7.103153e-004
2.319946e+003, 1.698702e-003
2.321874e+003, 2.587884e-003
2.323802e+003, 2.814155e-003
2.325731e+003, 1.752728e-003
2.327659e+003, 1.158152e-003
2.329588e+003, 1.414467e-003
2.331516e+003, 2.062270e-003
2.333445e+003, 2.167409e-003
2.335373e+003, 1.894492e-003
2.337302e+003, 1.946956e-003
2.339230e+003, 2.015815e-003
2.341159e+003, 2.125755e-003
2.343087e+003, 2.106968e-003
2.345016e+003, 7.625208e-004
2.346944e+003, -6.435250e-004
2.348873e+003, -6.942197e-004
2.350801e+003, 3.094320e-004
2.352729e+003, 9.996437e-004
2.354658e+003, 2.374386e-003
2.356586e+003, 4.073813e-003
2.358515e+003, 4.355713e-003
2.360443e+003, 3.925959e-003
2.362372e+003, 3.888229e-003
2.364300e+003, 3.729504e-003
2.366229e+003, 2.319337e-003
2.368157e+003, 1.376440e-003
2.370086e+003, 1.108269e-003
2.372014e+003, 7.213562e-004
2.373942e+003, -3.370744e-004
2.375871e+003, -1.506902e-003
2.377799e+003, -2.632902e-003
2.379728e+003, -3.126714e-003
2.381656e+003, -3.234511e-003
2.383585e+003, -2.818352e-003
2.385513e+003, -2.942807e-003
2.387442e+003, -4.130487e-003
2.389370e+003, -3.441643e-003
2.391299e+003, -3.346334e-003
2.393227e+003, -3.709955e-003
2.395156e+003, -3.521636e-003
2.397084e+003, -3.824353e-003
2.399012e+003, -3.373926e-003
2.400941e+003, -2.073630e-003
2.402869e+003, -2.336761e-003
2.404798e+003, -3.464579e-003
2.406726e+003, -2.469322e-003
2.408655e+003, -1.823868e-003
2.410583e+003, -2.373510e-003
2.412512e+003, -2.933069e-003
2.414440e+003, -2.185086e-003
2.416369e+003, -2.183875e-003
2.418297e+003, -3.690691e-003
2.420226e+003, -4.064594e-003
2.422154e+003, -2.927024e-003
2.424083e+003, -2.637683e-003
2.426011e+003, -2.466413e-003
2.427939e+003, -2.792251e-003
2.429868e+003, -3.565934e-003
2.431796e+003, -3.626180e-003
2.433725e+003, -3.411090e-003
2.435653e+003, -3.183137e-003
2.437582e+003, -3.063736e-003
2.439510e+003, -2.572871e-003
2.441439e+003, -3.059309e-003
2.443367e+003, -4.131201e-003
2.445296e+003, -4.326528e-003
2.447224e+003, -3.396871e-003
2.449153e+003, -3.161134e-003
2.451081e+003, -2.566603e-003
2.453010e+003, -2.208312e-003
2.454938e+003, -2.736815e-003
2.456866e+003, -4.166594e-003
2.458795e+003, -5.006379e-003
2.460723e+003, -5.035787e-003
2.462652e+003, -4.413065e-003
2.464580e+003, -3.841152e-003
2.466509e+003, -3.743992e-003
2.468437e+003, -5.083158e-003
2.470366e+003, -5.564251e-003
2.472294e+003, -5.028320e-003
2.474223e+003, -4.660255e-003
2.476151e+003, -3.345422e-003
2.478080e+003, -2.474949e-003
2.480008e+003, -3.511999e-003
2.481937e+003, -4.451718e-003
2.483865e+003, -3.904667e-003
2.485793e+003, -3.372983e-003
2.487722e+003, -3.871470e-003
2.489650e+003, -3.292853e-003
2.491579e+003, -3.035700e-003
2.493507e+003, -3.245484e-003
2.495436e+003, -2.808766e-003
2.497364e+003, -2.928046e-003
2.499293e+003, -3.517187e-003
2.501221e+003, -4.233394e-003
2.503150e+003, -4.230875e-003
2.505078e+003, -2.728134e-003
2.507007e+003, -2.484363e-003
2.508935e+003, -3.673104e-003
2.510864e+003, -4.790565e-003
2.512792e+003, -5.451893e-003
2.514720e+003, -5.403761e-003
2.516649e+003, -4.340157e-003
2.518577e+003, -3.035224e-003
2.520506e+003, -2.256324e-003
2.522434e+003, -2.589457e-003
2.524363e+003, -4.067500e-003
2.526291e+003, -4.460415e-003
2.528220e+003, -3.936247e-003
2.530148e+003, -4.754657e-003
2.532077e+003, -5.106152e-003
2.534005e+003, -3.938144e-003
2.535934e+003, -3.344099e-003
2.537862e+003, -3.382188e-003
2.539791e+003, -3.732199e-003
2.541719e+003, -4.121560e-003
2.543647e+003, -4.085978e-003
2.545576e+003, -4.164367e-003
2.547504e+003, -3.482467e-003
2.549433e+003, -2.004672e-003
2.551361e+003, -2.339876e-003
2.553290e+003, -3.759709e-003
2.555218e+003, -4.015991e-003
2.557147e+003, -3.967861e-003
2.559075e+003, -4.267459e-003
2.561004e+003, -4.193664e-003
2.562932e+003, -3.707637e-003
2.564861e+003, -3.194306e-003
2.566789e+003, -2.711689e-003
2.568718e+003, -2.995491e-003
2.570646e+003, -4.036165e-003
2.572574e+003, -3.487677e-003
2.574503e+003, -3.104578e-003
2.576431e+003, -3.374098e-003
2.578360e+003, -3.795432e-003
2.580288e+003, -4.112552e-003
2.582217e+003, -3.879299e-003
2.584145e+003, -3.110656e-003
2.586074e+003, -3.282241e-003
2.588002e+003, -3.700231e-003
2.589931e+003, -4.592434e-003
2.591859e+003, -4.577037e-003
2.593788e+003, -4.245207e-003
2.595716e+003, -4.681494e-003
2.597645e+003, -4.234370e-003
2.599573e+003, -3.389118e-003
2.601501e+003, -3.474389e-003
2.603430e+003, -3.018937e-003
2.605358e+003, -3.003954e-003
2.607287e+003, -3.991171e-003
2.609215e+003, -4.500398e-003
2.611144e+003, -3.640613e-003
2.613072e+003, -3.557081e-003
2.615001e+003, -3.788488e-003
2.616929e+003, -3.139657e-003
2.618858e+003, -4.096040e-003
2.620786e+003, -4.670670e-003
2.622715e+003, -3.986124e-003
2.624643e+003, -2.881160e-003
2.626572e+003, -2.837961e-003
2.628500e+003, -3.014740e-003
2.630428e+003, -3.717454e-003
2.632357e+003, -4.464902e-003
2.634285e+003, -4.328359e-003
2.636214e+003, -3.407278e-003
2.638142e+003, -3.261863e-003
2.640071e+003, -3.397088e-003
2.641999e+003, -2.924050e-003
2.643928e+003, -3.201839e-003
2.645856e+003, -3.189137e-003
2.647785e+003, -3.099332e-003
2.649713e+003, -3.200527e-003
2.651642e+003, -3.904794e-003
2.653570e+003, -4.204297e-003
2.655499e+003, -4.074441e-003
2.657427e+003, -4.262869e-003
2.659355e+003, -4.376837e-003
2.661284e+003, -3.873118e-003
2.663212e+003, -3.951733e-003
2.665141e+003, -4.854807e-003
2.667069e+003, -5.166458e-003
2.668998e+003, -5.301368e-003
2.670926e+003, -5.720755e-003
2.672855e+003, -5.657114e-003
2.674783e+003, -4.540130e-003
2.676712e+003, -4.067396e-003
2.678640e+003, -4.537041e-003
2.680569e+003, -4.761290e-003
2.682497e+003, -4.131808e-003
2.684426e+003, -4.219330e-003
2.686354e+003, -4.943085e-003
2.688282e+003, -4.404569e-003
2.690211e+003, -4.399825e-003
2.692139e+003, -3.933582e-003
2.694068e+003, -3.528333e-003
2.695996e+003, -4.182776e-003
2.697925e+003, -4.002439e-003
2.699853e+003, -3.303196e-003
2.701782e+003, -3.225210e-003
2.703710e+003, -4.119806e-003
2.705639e+003, -4.549766e-003
2.707567e+003, -4.597097e-003
2.709496e+003, -4.487437e-003
2.711424e+003, -4.486662e-003
2.713353e+003, -4.377528e-003
2.715281e+003, -4.501989e-003
2.717209e+003, -4.308184e-003
2.719138e+003, -4.782551e-003
2.721066e+003, -5.750938e-003
2.722995e+003, -5.977214e-003
2.724923e+003, -5.745654e-003
2.726852e+003, -5.365551e-003
2.728780e+003, -4.817266e-003
2.730709e+003, -4.670380e-003
2.732637e+003, -4.856546e-003
2.734566e+003, -4.436078e-003
2.736494e+003, -4.138684e-003
2.738423e+003, -4.226699e-003
2.740351e+003, -4.274254e-003
2.742280e+003, -4.273864e-003
2.744208e+003, -4.258476e-003
2.746136e+003, -3.915580e-003
2.748065e+003, -3.571188e-003
2.749993e+003, -3.360619e-003
2.751922e+003, -3.334753e-003
2.753850e+003, -4.511833e-003
2.755779e+003, -5.577249e-003
2.757707e+003, -5.238243e-003
2.759636e+003, -3.525835e-003
2.761564e+003, -3.284710e-003
2.763493e+003, -5.093025e-003
2.765421e+003, -5.782553e-003
2.767350e+003, -5.253570e-003
2.769278e+003, -5.051258e-003
2.771207e+003, -4.756656e-003
2.773135e+003, -4.599493e-003
2.775063e+003, -4.647315e-003
2.776992e+003, -5.644099e-003
2.778920e+003, -5.069452e-003
2.780849e+003, -3.954079e-003
2.782777e+003, -4.485749e-003
2.784706e+003, -5.327067e-003
2.786634e+003, -5.691079e-003
2.788563e+003, -4.668731e-003
2.790491e+003, -4.237684e-003
2.792420e+003, -4.845880e-003
2.794348e+003, -4.351811e-003
2.796277e+003, -3.603453e-003
2.798205e+003, -3.129162e-003
2.800134e+003, -3.836630e-003
2.802062e+003, -4.317156e-003
2.803990e+003, -4.162924e-003
2.805919e+003, -4.346111e-003
2.807847e+003, -4.224317e-003
2.809776e+003, -3.824666e-003
2.811704e+003, -4.731369e-003
2.813633e+003, -4.972015e-003
2.815561e+003, -5.014160e-003
2.817490e+003, -5.896953e-003
2.819418e+003, -5.545277e-003
2.821347e+003, -4.695779e-003
2.823275e+003, -4.283874e-003
2.825204e+003, -4.606982e-003
2.827132e+003, -5.241220e-003
2.829061e+003, -4.793418e-003
2.830989e+003, -4.331793e-003
2.832917e+003, -4.531321e-003
2.834846e+003, -4.678280e-003
2.836774e+003, -5.331308e-003
2.838703e+003, -4.916012e-003
2.840631e+003, -4.043442e-003
2.842560e+003, -3.869418e-003
2.844488e+003, -4.659536e-003
2.846417e+003, -5.469082e-003
2.848345e+003, -5.694897e-003
2.850274e+003, -5.725753e-003
2.852202e+003, -5.244805e-003
2.854131e+003, -5.138360e-003
2.856059e+003, -4.403731e-003
2.857988e+003, -3.764800e-003
2.859916e+003, -3.768681e-003
2.861844e+003, -4.508523e-003
2.863773e+003, -4.470498e-003
2.865701e+003, -5.211703e-003
2.867630e+003, -6.913096e-003
2.869558e+003, -7.286321e-003
2.871487e+003, -5.911963e-003
2.873415e+003, -4.706376e-003
2.875344e+003, -4.333793e-003
2.877272e+003, -3.955594e-003
2.879201e+003, -4.063373e-003
2.881129e+003, -3.959308e-003
2.883058e+003, -3.626483e-003
2.884986e+003, -4.170243e-003
2.886915e+003, -4.166797e-003
2.888843e+003, -4.918920e-003
2.890771e+003, -5.825169e-003
2.892700e+003, -4.866799e-003
2.894628e+003, -4.093394e-003
2.896557e+003, -4.553295e-003
2.898485e+003, -3.894026e-003
2.900414e+003, -4.153131e-003
2.902342e+003, -5.168298e-003
2.904271e+003, -4.954085e-003
2.906199e+003, -5.062657e-003
2.908128e+003, -5.154707e-003
2.910056e+003, -4.407110e-003
2.911985e+003, -4.065204e-003
2.913913e+003, -4.406588e-003
2.915842e+003, -5.479804e-003
2.917770e+003, -6.312796e-003
2.919698e+003, -5.442331e-003
2.921627e+003, -4.676745e-003
2.923555e+003, -5.058884e-003
2.925484e+003, -4.532479e-003
2.927412e+003, -4.698505e-003
2.929341e+003, -5.459440e-003
2.931269e+003, -4.985455e-003
2.933198e+003, -4.409159e-003
2.935126e+003, -4.513611e-003
2.937055e+003, -3.805855e-003
2.938983e+003, -4.002644e-003
2.940912e+003, -3.704801e-003
2.942840e+003, -4.084234e-003
2.944769e+003, -5.511645e-003
2.946697e+003, -5.619781e-003
2.948625e+003, -4.400581e-003
2.950554e+003, -3.054623e-003
2.952482e+003, -3.372715e-003
2.954411e+003, -4.029433e-003
2.956339e+003, -3.789329e-003
2.958268e+003, -3.071354e-003
2.960196e+003, -2.784824e-003
2.962125e+003, -2.460199e-003
2.964053e+003, -1.853410e-003
2.965982e+003, -1.098022e-003
2.967910e+003, -1.342216e-003
2.969839e+003, -2.663212e-003
2.971767e+003, -2.792295e-003
2.973696e+003, -3.384107e-003
2.975624e+003, -4.155486e-003
2.977552e+003, -4.574556e-003
2.979481e+003, -4.804289e-003
2.981409e+003, -4.889268e-003
2.983338e+003, -4.419407e-003
2.985266e+003, -3.711236e-003
2.987195e+003, -3.263637e-003
2.989123e+003, -3.327839e-003
2.991052e+003, -4.183511e-003
2.992980e+003, -4.064486e-003
2.994909e+003, -3.101113e-003
2.996837e+003, -3.494436e-003
2.998766e+003, -3.667708e-003
3.000694e+003, -3.452487e-003
3.002623e+003, -2.918811e-003
3.004551e+003, -2.602762e-003
3.006479e+003, -3.081033e-003
3.008408e+003, -3.762404e-003
3.010336e+003, -4.241657e-003
3.012265e+003, -3.845346e-003
3.014193e+003, -3.152985e-003
3.016122e+003, -3.668047e-003
3.018050e+003, -4.174803e-003
3.019979e+003, -5.531328e-003
3.021907e+003, -4.820211e-003
3.023836e+003, -3.084803e-003
3.025764e+003, -3.200941e-003
3.027693e+003, -3.409595e-003
3.029621e+003, -2.568721e-003
3.031550e+003, -3.724972e-003
3.033478e+003, -4.720522e-003
3.035406e+003, -3.974689e-003
3.037335e+003, -3.970494e-003
3.039263e+003, -4.306535e-003
3.041192e+003, -3.261006e-003
3.043120e+003, -3.051648e-003
3.045049e+003, -4.141046e-003
3.046977e+003, -5.130586e-003
3.048906e+003, -6.354589e-003
3.050834e+003, -5.815201e-003
3.052763e+003, -4.667694e-003
3.054691e+003, -3.629289e-003
3.056620e+003, -3.596926e-003
3.058548e+003, -3.358546e-003
3.060477e+003, -2.985340e-003
3.062405e+003, -3.055208e-003
3.064333e+003, -4.150729e-003
3.066262e+003, -4.704619e-003
3.068190e+003, -4.952844e-003
3.070119e+003, -4.317391e-003
3.072047e+003, -3.998399e-003
3.073976e+003, -4.373266e-003
3.075904e+003, -4.960932e-003
3.077833e+003, -4.826831e-003
3.079761e+003, -4.821185e-003
3.081690e+003, -5.805944e-003
3.083618e+003, -5.812830e-003
3.085547e+003, -6.077185e-003
3.087475e+003, -6.393425e-003
3.089404e+003, -5.428840e-003
3.091332e+003, -4.556209e-003
3.093260e+003, -4.329307e-003
3.095189e+003, -4.597308e-003
3.097117e+003, -4.800009e-003
3.099046e+003, -5.049224e-003
3.100974e+003, -6.270055e-003
3.102903e+003, -5.294085e-003
3.104831e+003, -4.194150e-003
3.106760e+003, -4.308629e-003
3.108688e+003, -4.705561e-003
3.110617e+003, -4.017365e-003
3.112545e+003, -4.136370e-003
3.114474e+003, -4.467673e-003
3.116402e+003, -4.770782e-003
3.118331e+003, -4.554988e-003
3.120259e+003, -4.755981e-003
3.122188e+003, -4.824331e-003
3.124116e+003, -4.354259e-003
3.126044e+003, -4.464524e-003
3.127973e+003, -4.746281e-003
3.129901e+003, -5.433954e-003
3.131830e+003, -4.052020e-003
3.133758e+003, -3.786479e-003
3.135687e+003, -5.332366e-003
3.137615e+003, -4.772142e-003
3.139544e+003, -4.852518e-003
3.141472e+003, -5.116389e-003
3.143401e+003, -3.995719e-003
3.145329e+003, -4.220991e-003
3.147258e+003, -4.768646e-003
3.149186e+003, -4.829639e-003
3.151115e+003, -4.999052e-003
3.153043e+003, -5.140027e-003
3.154971e+003, -5.434434e-003
3.156900e+003, -6.326806e-003
3.158828e+003, -5.522077e-003
3.160757e+003, -4.347411e-003
3.162685e+003, -3.629406e-003
3.164614e+003, -3.195034e-003
3.166542e+003, -4.343341e-003
3.168471e+003, -4.036283e-003
3.170399e+003, -3.504355e-003
3.172328e+003, -4.495237e-003
3.174256e+003, -4.059278e-003
3.176185e+003, -3.951667e-003
3.178113e+003, -3.881928e-003
3.180042e+003, -3.667819e-003
3.181970e+003, -3.487067e-003
3.183898e+003, -4.437394e-003
3.185827e+003, -4.990384e-003
3.187755e+003, -3.325563e-003
3.189684e+003, -3.142949e-003
3.191612e+003, -3.982040e-003
3.193541e+003, -3.361367e-003
3.195469e+003, -2.467957e-003
3.197398e+003, -2.658417e-003
3.199326e+003, -3.705075e-003
3.201255e+003, -5.776251e-003
3.203183e+003, -5.994591e-003
3.205112e+003, -5.350276e-003
3.207040e+003, -3.958269e-003
3.208969e+003, -3.752614e-003
3.210897e+003, -5.022977e-003
3.212825e+003, -3.979846e-003
3.214754e+003, -4.312098e-003
3.216682e+003, -5.035744e-003
3.218611e+003, -4.050178e-003
3.220539e+003, -5.131943e-003
3.222468e+003, -6.668315e-003
3.224396e+003, -3.613058e-003
3.226325e+003, -1.782085e-003
3.228253e+003, -3.086180e-003
3.230182e+003, -2.111269e-003
3.232110e+003, -2.769686e-003
3.234039e+003, -3.908137e-003
3.235967e+003, -3.884378e-003
3.237896e+003, -3.863797e-003
3.239824e+003, -3.253295e-003
3.241752e+003, -3.061787e-003
3.243681e+003, -2.656027e-003
3.245609e+003, -2.880851e-003
3.247538e+003, -2.560802e-003
3.249466e+003, -1.908630e-003
3.251395e+003, -1.138482e-003
3.253323e+003, -3.194705e-004
3.255252e+003, -1.928832e-003
3.257180e+003, -2.513894e-003
3.259109e+003, -4.756048e-004
3.261037e+003, -8.401740e-004
3.262966e+003, -1.189309e-003
3.264894e+003, -1.687779e-003
3.266823e+003, -1.319410e-003
3.268751e+003, -1.323760e-003
3.270679e+003, -1.095423e-003
3.272608e+003, -2.119619e-003
3.274536e+003, -3.229048e-003
3.276465e+003, -2.278964e-003
3.278393e+003, -2.417057e-003
3.280322e+003, -4.592906e-003
3.282250e+003, -5.249892e-003
3.284179e+003, -4.270153e-003
3.286107e+003, -2.698701e-003
3.288036e+003, -1.570898e-003
3.289964e+003, -2.833514e-003
3.291893e+003, -4.558659e-003
3.293821e+003, -4.581020e-003
3.295750e+003, -3.024087e-003
3.297678e+003, -3.161925e-003
3.299606e+003, -3.816846e-003
3.301535e+003, -2.681016e-003
3.303463e+003, -2.007133e-003
3.305392e+003, -4.137320e-003
3.307320e+003, -4.438009e-003
3.309249e+003, -5.494401e-003
3.311177e+003, -5.991746e-003
3.313106e+003, -5.123253e-003
3.315034e+003, -4.109522e-003
3.316963e+003, -3.044209e-003
3.318891e+003, -2.914181e-003
3.320820e+003, -3.594230e-003
3.322748e+003, -3.641453e-003
3.324677e+003, -2.968292e-003
3.326605e+003, -3.025561e-003
3.328533e+003, -3.743059e-003
3.330462e+003, -4.806977e-003
3.332390e+003, -2.730208e-003
3.334319e+003, -4.934276e-004
3.336247e+003, -2.034338e-003
3.338176e+003, -3.433273e-003
3.340104e+003, -1.733181e-003
3.342033e+003, -1.938119e-003
3.343961e+003, -4.235865e-003
3.345890e+003, -4.656089e-003
3.347818e+003, -3.340379e-003
3.349747e+003, -2.888215e-003
3.351675e+003, -3.514074e-003
3.353604e+003, -3.346706e-003
3.355532e+003, -3.304259e-003
3.357460e+003, -3.574628e-003
3.359389e+003, -2.306081e-003
3.361317e+003, -2.519444e-003
3.363246e+003, -3.206892e-003
3.365174e+003, -3.260910e-003
3.367103e+003, -2.293108e-003
3.369031e+003, -2.675101e-003
3.370960e+003, -2.313578e-003
3.372888e+003, -1.152548e-003
3.374817e+003, -2.614509e-003
3.376745e+003, -2.291632e-003
3.378674e+003, -8.528042e-004
3.380602e+003, -4.961338e-004
3.382531e+003, 2.167727e-004
3.384459e+003, -7.333300e-004
3.386387e+003, -2.399783e-003
3.388316e+003, -2.324369e-003
3.390244e+003, -3.272201e-003
3.392173e+003, -3.680427e-003
3.394101e+003, -3.341229e-003
3.396030e+003, -3.900440e-003
3.397958e+003, -4.287986e-003
3.399887e+003, -3.848579e-003
3.401815e+003, -3.430130e-003
3.403744e+003, -1.228789e-003
3.405672e+003, -1.259025e-003
3.407601e+003, -4.561654e-003
3.409529e+003, -5.926358e-003
3.411458e+003, -6.142702e-003
3.413386e+003, -5.557109e-003
3.415314e+003, -4.663245e-003
3.417243e+003, -4.745677e-003
3.419171e+003, -3.081713e-003
3.421100e+003, -1.888085e-003
3.423028e+003, -1.891981e-003
3.424957e+003, -1.765876e-003
3.426885e+003, -1.851927e-003
3.428814e+003, -4.052306e-003
3.430742e+003, -4.620964e-003
3.432671e+003, -2.532959e-003
3.434599e+003, -2.374980e-003
3.436528e+003, -4.457455e-003
3.438456e+003, -5.582828e-003
3.440385e+003, -5.983168e-003
3.442313e+003, -5.026164e-003
3.444241e+003, -3.161250e-003
3.446170e+003, -3.105135e-003
3.448098e+003, -3.791704e-003
3.450027e+003, -3.529037e-003
3.451955e+003, -3.514578e-003
3.453884e+003, -5.748563e-003
3.455812e+003, -4.594801e-003
3.457741e+003, -2.466704e-003
3.459669e+003, -2.449769e-003
3.461598e+003, -2.737839e-003
3.463526e+003, -3.868536e-003
3.465455e+003, -3.853739e-003
3.467383e+003, -2.489411e-003
3.469312e+003, -2.805442e-003
3.471240e+003, -3.273370e-003
3.473168e+003, -3.660855e-003
3.475097e+003, -4.105398e-003
3.477025e+003, -3.121785e-003
3.478954e+003, -2.438335e-003
3.480882e+003, -3.239305e-003
3.482811e+003, -3.827689e-003
3.484739e+003, -2.905964e-003
3.486668e+003, -4.250865e-003
3.488596e+003, -5.775363e-003
3.490525e+003, -5.083187e-003
3.492453e+003, -2.939885e-003
3.494382e+003, -2.629930e-003
3.496310e+003, -4.393502e-003
3.498239e+003, -2.675761e-003
3.500167e+003, -1.469269e-003
3.502095e+003, -2.585114e-003
3.504024e+003, -3.556240e-003
3.505952e+003, -4.933831e-003
3.507881e+003, -4.269310e-003
3.509809e+003, -2.065380e-003
3.511738e+003, -1.383452e-003
3.513666e+003, -2.670594e-003
3.515595e+003, -2.149514e-003
3.517523e+003, -2.731697e-003
3.519452e+003, -9.058196e-004
3.521380e+003, -4.588240e-004
3.523309e+003, -2.665569e-003
3.525237e+003, -1.302760e-003
3.527166e+003, -9.034834e-004
3.529094e+003, -2.101718e-003
3.531022e+003, -1.871863e-003
3.532951e+003, -3.908832e-003
3.534879e+003, -5.365005e-003
3.536808e+003, -4.450351e-003
3.538736e+003, -5.765856e-003
3.540665e+003, -5.978077e-003
3.542593e+003, -5.106720e-003
3.544522e+003, -6.195389e-003
3.546450e+003, -5.666503e-003
3.548379e+003, -4.317660e-003
3.550307e+003, -4.435667e-003
3.552236e+003, -3.581450e-003
3.554164e+003, -8.149460e-004
3.556093e+003, -2.284403e-003
3.558021e+003, -5.415870e-003
3.559949e+003, -5.383424e-003
3.561878e+003, -4.660992e-003
3.563806e+003, -2.957403e-003
3.565735e+003, -2.389691e-003
3.567663e+003, -1.727283e-003
3.569592e+003, -7.951954e-004
3.571520e+003, 3.893838e-004
3.573449e+003, -1.999127e-003
3.575377e+003, -4.399419e-003
3.577306e+003, -5.281034e-003
3.579234e+003, -6.516371e-003
3.581163e+003, -7.738364e-003
3.583091e+003, -6.800727e-003
3.585020e+003, -2.782692e-003
3.586948e+003, 2.018074e-003
3.588876e+003, 4.640503e-003
3.590805e+003, 3.914760e-003
3.592733e+003, 1.477055e-003
3.594662e+003, -7.812568e-004
3.596590e+003, -2.684965e-003
3.598519e+003, -4.535492e-003
3.600447e+003, -4.828614e-003
3.602376e+003, -4.179338e-003
3.604304e+003, -2.711348e-003
3.606233e+003, -2.870482e-003
3.608161e+003, -2.100333e-003
3.610090e+003, -1.073911e-003
3.612018e+003, -3.719334e-003
3.613947e+003, -6.538788e-003
3.615875e+003, -5.455221e-003
3.617803e+003, -3.807686e-003
3.619732e+003, -4.287269e-003
3.621660e+003, -6.865926e-003
3.623589e+003, -6.089143e-003
3.625517e+003, -5.040305e-003
3.627446e+003, -5.865132e-003
3.629374e+003, -6.550414e-003
3.631303e+003, -5.162522e-003
3.633231e+003, -3.235362e-003
3.635160e+003, -1.498258e-003
3.637088e+003, -4.796832e-004
3.639017e+003, -2.070489e-003
3.640945e+003, -5.808111e-003
3.642874e+003, -5.909438e-003
3.644802e+003, -4.170383e-003
3.646730e+003, -4.167529e-003
3.648659e+003, -5.569858e-003
3.650587e+003, -5.424055e-003
3.652516e+003, -6.329906e-003
3.654444e+003, -6.329872e-003
3.656373e+003, -4.133839e-003
3.658301e+003, -3.296395e-003
3.660230e+003, -4.037072e-003
3.662158e+003, -6.808956e-003
3.664087e+003, -6.595897e-003
3.666015e+003, -4.527178e-003
3.667944e+003, -6.842463e-003
3.669872e+003, -6.996793e-003
3.671801e+003, -7.150420e-003
3.673729e+003, -8.257631e-003
3.675657e+003, -6.629097e-003
3.677586e+003, -7.185099e-003
3.679514e+003, -9.701555e-003
3.681443e+003, -1.200085e-002
3.683371e+003, -1.007390e-002
3.685300e+003, -7.496508e-003
3.687228e+003, -7.758571e-003
3.689157e+003, -8.472274e-003
3.691085e+003, -9.774852e-003
3.693014e+003, -9.128304e-003
3.694942e+003, -6.549755e-003
3.696871e+003, -6.263047e-003
3.698799e+003, -4.115429e-003
3.700728e+003, -3.413426e-003
3.702656e+003, -3.752079e-003
3.704584e+003, -5.900091e-003
3.706513e+003, -7.712249e-003
3.708441e+003, -7.204771e-003
3.710370e+003, -8.406646e-003
3.712298e+003, -6.386343e-003
3.714227e+003, -2.911974e-003
3.716155e+003, -4.709418e-003
3.718084e+003, -7.771390e-003
3.720012e+003, -1.094595e-002
3.721941e+003, -7.501075e-003
3.723869e+003, -5.088971e-003
3.725798e+003, -6.876756e-003
3.727726e+003, -7.155300e-003
3.729655e+003, -6.790228e-003
3.731583e+003, -4.585832e-003
3.733511e+003, -1.154264e-003
3.735440e+003, -2.177883e-003
3.737368e+003, -5.657274e-003
3.739297e+003, -6.745722e-003
3.741225e+003, -6.333868e-003
3.743154e+003, -6.425588e-003
3.745082e+003, -5.777024e-003
3.747011e+003, -4.950041e-003
3.748939e+003, -4.945035e-003
3.750868e+003, -7.156289e-003
3.752796e+003, -6.445856e-003
3.754725e+003, -7.285773e-003
3.756653e+003, -5.007825e-003
3.758582e+003, -3.798439e-003
3.760510e+003, -6.002941e-003
3.762438e+003, -5.492589e-003
3.764367e+003, -5.172912e-003
3.766295e+003, -5.703548e-003
3.768224e+003, -4.315837e-003
3.770152e+003, -3.789069e-003
3.772081e+003, -8.266565e-003
3.774009e+003, -1.054955e-002
3.775938e+003, -9.089925e-003
3.777866e+003, -4.251097e-003
3.779795e+003, -5.429178e-003
3.781723e+003, -1.079035e-002
3.783652e+003, -7.035095e-003
3.785580e+003, -5.538248e-003
3.787509e+003, -7.845933e-003
3.789437e+003, -8.350699e-003
3.791365e+003, -6.587678e-003
3.793294e+003, -4.980233e-003
3.795222e+003, -4.290821e-003
3.797151e+003, -5.558186e-003
3.799079e+003, -6.685959e-003
3.801008e+003, -7.009930e-003
3.802936e+003, -6.085355e-003
3.804865e+003, -7.781257e-003
3.806793e+003, -1.047613e-002
3.808722e+003, -9.806645e-003
3.810650e+003, -9.826672e-003
3.812579e+003, -1.143011e-002
3.814507e+003, -7.448080e-003
3.816436e+003, -4.822128e-003
3.818364e+003, -4.348279e-003
3.820292e+003, -2.567621e-003
3.822221e+003, -8.130450e-005
3.824149e+003, -3.679999e-003
3.826078e+003, -6.427389e-003
3.828006e+003, -9.641936e-003
3.829935e+003, -1.132044e-002
3.831863e+003, -6.543344e-003
3.833792e+003, -4.092034e-003
3.835720e+003, -3.698489e-003
3.837649e+003, -5.507968e-003
3.839577e+003, -5.715126e-003
3.841506e+003, -2.585818e-003
3.843434e+003, -2.793597e-003
3.845363e+003, -6.319025e-003
3.847291e+003, -8.117825e-003
3.849219e+003, -7.515096e-003
3.851148e+003, -5.429918e-003
3.853076e+003, -3.792290e-003
3.855005e+003, -7.589843e-003
3.856933e+003, -9.664608e-003
3.858862e+003, -1.044472e-002
3.860790e+003, -9.299536e-003
3.862719e+003, -9.378002e-003
3.864647e+003, -1.054767e-002
3.866576e+003, -9.045769e-003
3.868504e+003, -8.272535e-003
3.870433e+003, -7.601451e-003
3.872361e+003, -4.286017e-003
3.874290e+003, -5.018229e-003
3.876218e+003, -6.840518e-003
3.878146e+003, -6.265875e-003
3.880075e+003, -5.469678e-003
3.882003e+003, -5.542526e-003
3.883932e+003, -6.365610e-003
3.885860e+003, -9.299742e-003
3.887789e+003, -1.002009e-002
3.889717e+003, -9.137596e-003
3.891646e+003, -8.134419e-003
3.893574e+003, -6.935132e-003
3.895503e+003, -6.857196e-003
3.897431e+003, -9.606613e-003
3.899360e+003, -1.107324e-002
3.901288e+003, -9.215175e-003
3.903217e+003, -8.623950e-003
3.905145e+003, -6.070862e-003
3.907073e+003, -4.754894e-003
3.909002e+003, -8.239013e-003
3.910930e+003, -9.441960e-003
3.912859e+003, -9.565871e-003
3.914787e+003, -8.762951e-003
3.916716e+003, -6.606540e-003
3.918644e+003, -5.327837e-003
3.920573e+003, -7.543960e-003
3.922501e+003, -7.755982e-003
3.924430e+003, -4.570740e-003
3.926358e+003, -5.202405e-003
3.928287e+003, -6.282436e-003
3.930215e+003, -6.659404e-003
3.932144e+003, -9.319806e-003
3.934072e+003, -7.837511e-003
3.936000e+003, -5.421378e-003
3.937929e+003, -5.502072e-003
3.939857e+003, -1.169358e-002
3.941786e+003, -1.068695e-002
3.943714e+003, -6.955337e-003
3.945643e+003, -5.169565e-003
3.947571e+003, -4.255100e-003
3.949500e+003, -5.229023e-003
3.951428e+003, -6.775423e-003
3.953357e+003, -5.841275e-003
3.955285e+003, -3.829860e-003
3.957214e+003, -8.810305e-003
3.959142e+003, -1.251141e-002
3.961071e+003, -1.081749e-002
3.962999e+003, -7.775928e-003
3.964927e+003, -7.227594e-003
3.966856e+003, -6.340059e-003
3.968784e+003, -8.481876e-003
3.970713e+003, -1.013977e-002
3.972641e+003, -9.496433e-003
3.974570e+003, -7.125172e-003
3.976498e+003, -8.197042e-003
3.978427e+003, -9.624576e-003
3.980355e+003, -7.285266e-003
3.982284e+003, -9.367780e-003
3.984212e+003, -8.343669e-003
3.986141e+003, -4.341995e-003
3.988069e+003, -8.705722e-003
3.989998e+003, -1.102786e-002
3.991926e+003, -1.104909e-002
3.993854e+003, -1.295213e-002
3.995783e+003, -1.359233e-002
3.997711e+003, -1.122778e-002
3.999640e+003, -1.123319e-002
4.001568e+003, 0.000000e+000
##END=



