##NAMES=Cinnabar
##RRUFFID=R050072
##IDEAL CHEMISTRY=HgS
##LOCALITY=Gui Zhu, Hunan Province, China
##OWNER=RRUFF
##SOURCE=Rock Currier
##DESCRIPTION=Red single crystal associated with calcite
##STATUS=The identification of this mineral has been confirmed by X-ray diffraction and chemical analysis
##URL=rruff.info/R050072
##MEASURED CHEMISTRY=Hg_1.00_S_1.00_
3.991926e+002, 0.000000e+000
4.011211e+002, 1.941173e-001
4.030496e+002, 1.950158e-001
4.049780e+002, 1.967462e-001
4.069065e+002, 2.002650e-001
4.088350e+002, 2.051374e-001
4.107634e+002, 2.077743e-001
4.126919e+002, 2.110781e-001
4.146204e+002, 2.146801e-001
4.165488e+002, 2.147287e-001
4.184773e+002, 2.182110e-001
4.204058e+002, 2.232367e-001
4.223342e+002, 2.249603e-001
4.242627e+002, 2.267817e-001
4.261912e+002, 2.292681e-001
4.281196e+002, 2.288001e-001
4.300481e+002, 2.315809e-001
4.319766e+002, 2.389788e-001
4.339050e+002, 2.438967e-001
4.358335e+002, 2.410753e-001
4.377620e+002, 2.403498e-001
4.396904e+002, 2.424861e-001
4.416189e+002, 2.443787e-001
4.435474e+002, 2.458181e-001
4.454758e+002, 2.482316e-001
4.474043e+002, 2.517940e-001
4.493328e+002, 2.555746e-001
4.512612e+002, 2.585477e-001
4.531897e+002, 2.584348e-001
4.551182e+002, 2.593319e-001
4.570466e+002, 2.613793e-001
4.589751e+002, 2.628289e-001
4.609036e+002, 2.631162e-001
4.628320e+002, 2.633292e-001
4.647605e+002, 2.651817e-001
4.666890e+002, 2.672657e-001
4.686174e+002, 2.686348e-001
4.705459e+002, 2.706088e-001
4.724744e+002, 2.730383e-001
4.744028e+002, 2.743653e-001
4.763313e+002, 2.757085e-001
4.782598e+002, 2.769005e-001
4.801882e+002, 2.767126e-001
4.821167e+002, 2.785987e-001
4.840452e+002, 2.788867e-001
4.859736e+002, 2.795321e-001
4.879021e+002, 2.810331e-001
4.898306e+002, 2.815509e-001
4.917590e+002, 2.839195e-001
4.936875e+002, 2.863977e-001
4.956160e+002, 2.869055e-001
4.975444e+002, 2.883444e-001
4.994729e+002, 2.906796e-001
5.014014e+002, 2.922409e-001
5.033298e+002, 2.934345e-001
5.052583e+002, 2.951841e-001
5.071868e+002, 2.965656e-001
5.091152e+002, 2.986603e-001
5.110437e+002, 3.000875e-001
5.129722e+002, 3.006021e-001
5.149006e+002, 3.018925e-001
5.168291e+002, 3.029394e-001
5.187576e+002, 3.035327e-001
5.206860e+002, 3.033834e-001
5.226145e+002, 3.033767e-001
5.245430e+002, 3.049405e-001
5.264714e+002, 3.077503e-001
5.283999e+002, 3.101562e-001
5.303284e+002, 3.106183e-001
5.322568e+002, 3.105428e-001
5.341853e+002, 3.118082e-001
5.361138e+002, 3.132494e-001
5.380422e+002, 3.142128e-001
5.399707e+002, 3.156673e-001
5.418992e+002, 3.173777e-001
5.438276e+002, 3.187228e-001
5.457561e+002, 3.206935e-001
5.476846e+002, 3.220844e-001
5.496130e+002, 3.229383e-001
5.515415e+002, 3.246137e-001
5.534700e+002, 3.255993e-001
5.553984e+002, 3.270023e-001
5.573269e+002, 3.280037e-001
5.592554e+002, 3.283350e-001
5.611838e+002, 3.297346e-001
5.631123e+002, 3.304944e-001
5.650408e+002, 3.295265e-001
5.669692e+002, 3.294197e-001
5.688977e+002, 3.301619e-001
5.708262e+002, 3.311571e-001
5.727546e+002, 3.321157e-001
5.746831e+002, 3.330122e-001
5.766116e+002, 3.346893e-001
5.785400e+002, 3.357062e-001
5.804685e+002, 3.364599e-001
5.823970e+002, 3.382126e-001
5.843254e+002, 3.399964e-001
5.862539e+002, 3.400499e-001
5.881824e+002, 3.405299e-001
5.901108e+002, 3.413441e-001
5.920393e+002, 3.424361e-001
5.939678e+002, 3.436119e-001
5.958962e+002, 3.451962e-001
5.978247e+002, 3.466520e-001
5.997532e+002, 3.472413e-001
6.016816e+002, 3.482568e-001
6.036101e+002, 3.501866e-001
6.055386e+002, 3.514985e-001
6.074670e+002, 3.523522e-001
6.093955e+002, 3.536246e-001
6.113240e+002, 3.551539e-001
6.132524e+002, 3.563357e-001
6.151809e+002, 3.572663e-001
6.171094e+002, 3.584112e-001
6.190378e+002, 3.592378e-001
6.209663e+002, 3.599901e-001
6.228948e+002, 3.608591e-001
6.248232e+002, 3.623165e-001
6.267517e+002, 3.637819e-001
6.286802e+002, 3.647251e-001
6.306086e+002, 3.650799e-001
6.325371e+002, 3.652723e-001
6.344656e+002, 3.658839e-001
6.363940e+002, 3.666995e-001
6.383225e+002, 3.667433e-001
6.402510e+002, 3.667435e-001
6.421794e+002, 3.672679e-001
6.441079e+002, 3.679854e-001
6.460364e+002, 3.688900e-001
6.479648e+002, 3.702922e-001
6.498933e+002, 3.709325e-001
6.518218e+002, 3.709994e-001
6.537502e+002, 3.717619e-001
6.556787e+002, 3.721765e-001
6.576072e+002, 3.730951e-001
6.595356e+002, 3.740970e-001
6.614641e+002, 3.747253e-001
6.633926e+002, 3.750625e-001
6.653210e+002, 3.754218e-001
6.672495e+002, 3.762722e-001
6.691780e+002, 3.770295e-001
6.711064e+002, 3.778129e-001
6.730349e+002, 3.787798e-001
6.749634e+002, 3.789952e-001
6.768918e+002, 3.795682e-001
6.788203e+002, 3.807051e-001
6.807488e+002, 3.818320e-001
6.826772e+002, 3.824876e-001
6.846057e+002, 3.833517e-001
6.865342e+002, 3.840487e-001
6.884626e+002, 3.846528e-001
6.903911e+002, 3.857675e-001
6.923196e+002, 3.861896e-001
6.942480e+002, 3.863969e-001
6.961765e+002, 3.873133e-001
6.981050e+002, 3.881472e-001
7.000334e+002, 3.896145e-001
7.019619e+002, 3.903686e-001
7.038904e+002, 3.909182e-001
7.058188e+002, 3.918589e-001
7.077473e+002, 3.926486e-001
7.096758e+002, 3.929648e-001
7.116042e+002, 3.937181e-001
7.135327e+002, 3.945313e-001
7.154612e+002, 3.951222e-001
7.173896e+002, 3.956500e-001
7.193181e+002, 3.962428e-001
7.212466e+002, 3.967048e-001
7.231750e+002, 3.969512e-001
7.251035e+002, 3.977371e-001
7.270320e+002, 3.987832e-001
7.289604e+002, 3.996524e-001
7.308889e+002, 4.003434e-001
7.328174e+002, 4.011983e-001
7.347458e+002, 4.017116e-001
7.366743e+002, 4.025882e-001
7.386028e+002, 4.037418e-001
7.405313e+002, 4.044147e-001
7.424597e+002, 4.053766e-001
7.443882e+002, 4.061634e-001
7.463167e+002, 4.067272e-001
7.482451e+002, 4.079698e-001
7.501736e+002, 4.086432e-001
7.521021e+002, 4.092918e-001
7.540305e+002, 4.104850e-001
7.559590e+002, 4.119980e-001
7.578875e+002, 4.127038e-001
7.598159e+002, 4.128205e-001
7.617444e+002, 4.136124e-001
7.636729e+002, 4.142199e-001
7.656013e+002, 4.149709e-001
7.675298e+002, 4.156075e-001
7.694583e+002, 4.159673e-001
7.713867e+002, 4.169129e-001
7.733152e+002, 4.173075e-001
7.752437e+002, 4.175077e-001
7.771721e+002, 4.187745e-001
7.791006e+002, 4.193606e-001
7.810291e+002, 4.193217e-001
7.829575e+002, 4.200618e-001
7.848860e+002, 4.204364e-001
7.868145e+002, 4.208055e-001
7.887429e+002, 4.215335e-001
7.906714e+002, 4.225837e-001
7.925999e+002, 4.235248e-001
7.945283e+002, 4.244722e-001
7.964568e+002, 4.256292e-001
7.983853e+002, 4.262038e-001
8.003137e+002, 4.268980e-001
8.022422e+002, 4.281570e-001
8.041707e+002, 4.294238e-001
8.060991e+002, 4.307340e-001
8.080276e+002, 4.315178e-001
8.099561e+002, 4.321823e-001
8.118845e+002, 4.331672e-001
8.138130e+002, 4.347397e-001
8.157415e+002, 4.353881e-001
8.176699e+002, 4.358352e-001
8.195984e+002, 4.368725e-001
8.215269e+002, 4.378466e-001
8.234553e+002, 4.390870e-001
8.253838e+002, 4.404671e-001
8.273123e+002, 4.408733e-001
8.292407e+002, 4.415678e-001
8.311692e+002, 4.427152e-001
8.330977e+002, 4.432339e-001
8.350261e+002, 4.433227e-001
8.369546e+002, 4.431323e-001
8.388831e+002, 4.433083e-001
8.408115e+002, 4.441349e-001
8.427400e+002, 4.447206e-001
8.446685e+002, 4.456729e-001
8.465969e+002, 4.465045e-001
8.485254e+002, 4.466915e-001
8.504539e+002, 4.470628e-001
8.523823e+002, 4.471979e-001
8.543108e+002, 4.473821e-001
8.562393e+002, 4.482844e-001
8.581677e+002, 4.490743e-001
8.600962e+002, 4.498976e-001
8.620247e+002, 4.509129e-001
8.639531e+002, 4.512205e-001
8.658816e+002, 4.515693e-001
8.678101e+002, 4.524884e-001
8.697385e+002, 4.535916e-001
8.716670e+002, 4.547908e-001
8.735955e+002, 4.555771e-001
8.755239e+002, 4.563425e-001
8.774524e+002, 4.579134e-001
8.793809e+002, 4.589479e-001
8.813093e+002, 4.595018e-001
8.832378e+002, 4.602067e-001
8.851663e+002, 4.613540e-001
8.870947e+002, 4.624112e-001
8.890232e+002, 4.629893e-001
8.909517e+002, 4.632644e-001
8.928801e+002, 4.630403e-001
8.948085e+002, 4.629419e-001
8.967370e+002, 4.635816e-001
8.986655e+002, 4.642991e-001
9.005939e+002, 4.653614e-001
9.025224e+002, 4.662762e-001
9.044509e+002, 4.666495e-001
9.063793e+002, 4.672435e-001
9.083078e+002, 4.682072e-001
9.102363e+002, 4.688772e-001
9.121647e+002, 4.701472e-001
9.140932e+002, 4.710651e-001
9.160217e+002, 4.719899e-001
9.179501e+002, 4.727015e-001
9.198786e+002, 4.735674e-001
9.218071e+002, 4.746297e-001
9.237355e+002, 4.750440e-001
9.256640e+002, 4.755387e-001
9.275925e+002, 4.759616e-001
9.295209e+002, 4.762537e-001
9.314494e+002, 4.769845e-001
9.333779e+002, 4.779693e-001
9.353063e+002, 4.789248e-001
9.372348e+002, 4.799068e-001
9.391633e+002, 4.810014e-001
9.410917e+002, 4.818124e-001
9.430202e+002, 4.825655e-001
9.449487e+002, 4.835894e-001
9.468771e+002, 4.844367e-001
9.488056e+002, 4.850394e-001
9.507341e+002, 4.861069e-001
9.526625e+002, 4.869056e-001
9.545910e+002, 4.878742e-001
9.565195e+002, 4.886311e-001
9.584479e+002, 4.891857e-001
9.603764e+002, 4.903132e-001
9.623049e+002, 4.916874e-001
9.642333e+002, 4.921489e-001
9.661618e+002, 4.927397e-001
9.680903e+002, 4.938105e-001
9.700187e+002, 4.949127e-001
9.719472e+002, 4.956453e-001
9.738757e+002, 4.959699e-001
9.758041e+002, 4.971197e-001
9.777326e+002, 4.980734e-001
9.796611e+002, 4.989085e-001
9.815895e+002, 5.000440e-001
9.835180e+002, 5.010192e-001
9.854465e+002, 5.017835e-001
9.873749e+002, 5.033649e-001
9.893034e+002, 5.047463e-001
9.912319e+002, 5.056286e-001
9.931603e+002, 5.065044e-001
9.950888e+002, 5.071660e-001
9.970173e+002, 5.081844e-001
9.989457e+002, 5.093311e-001
1.000874e+003, 5.104843e-001
1.002803e+003, 5.116171e-001
1.004731e+003, 5.123922e-001
1.006660e+003, 5.135398e-001
1.008588e+003, 5.147958e-001
1.010517e+003, 5.156516e-001
1.012445e+003, 5.167333e-001
1.014373e+003, 5.175751e-001
1.016302e+003, 5.178941e-001
1.018230e+003, 5.178076e-001
1.020159e+003, 5.179104e-001
1.022087e+003, 5.183457e-001
1.024016e+003, 5.184916e-001
1.025944e+003, 5.188143e-001
1.027873e+003, 5.193370e-001
1.029801e+003, 5.200953e-001
1.031730e+003, 5.205360e-001
1.033658e+003, 5.212095e-001
1.035587e+003, 5.220753e-001
1.037515e+003, 5.223379e-001
1.039444e+003, 5.227838e-001
1.041372e+003, 5.234983e-001
1.043301e+003, 5.238597e-001
1.045229e+003, 5.244809e-001
1.047157e+003, 5.252629e-001
1.049086e+003, 5.257502e-001
1.051014e+003, 5.258420e-001
1.052943e+003, 5.262656e-001
1.054871e+003, 5.266312e-001
1.056800e+003, 5.270504e-001
1.058728e+003, 5.272858e-001
1.060657e+003, 5.275192e-001
1.062585e+003, 5.278202e-001
1.064514e+003, 5.282728e-001
1.066442e+003, 5.288869e-001
1.068371e+003, 5.294236e-001
1.070299e+003, 5.301919e-001
1.072228e+003, 5.309471e-001
1.074156e+003, 5.313251e-001
1.076084e+003, 5.319824e-001
1.078013e+003, 5.327500e-001
1.079941e+003, 5.335056e-001
1.081870e+003, 5.342140e-001
1.083798e+003, 5.348260e-001
1.085727e+003, 5.346532e-001
1.087655e+003, 5.346310e-001
1.089584e+003, 5.355986e-001
1.091512e+003, 5.361836e-001
1.093441e+003, 5.363625e-001
1.095369e+003, 5.367105e-001
1.097298e+003, 5.376099e-001
1.099226e+003, 5.386109e-001
1.101155e+003, 5.391240e-001
1.103083e+003, 5.399387e-001
1.105011e+003, 5.409623e-001
1.106940e+003, 5.414522e-001
1.108868e+003, 5.417056e-001
1.110797e+003, 5.421951e-001
1.112725e+003, 5.427707e-001
1.114654e+003, 5.430481e-001
1.116582e+003, 5.434604e-001
1.118511e+003, 5.440940e-001
1.120439e+003, 5.448237e-001
1.122368e+003, 5.456525e-001
1.124296e+003, 5.461953e-001
1.126225e+003, 5.470169e-001
1.128153e+003, 5.483609e-001
1.130082e+003, 5.491688e-001
1.132010e+003, 5.497774e-001
1.133938e+003, 5.508124e-001
1.135867e+003, 5.519132e-001
1.137795e+003, 5.529920e-001
1.139724e+003, 5.541113e-001
1.141652e+003, 5.553712e-001
1.143581e+003, 5.562886e-001
1.145509e+003, 5.566614e-001
1.147438e+003, 5.569412e-001
1.149366e+003, 5.574039e-001
1.151295e+003, 5.576347e-001
1.153223e+003, 5.576618e-001
1.155152e+003, 5.579036e-001
1.157080e+003, 5.581091e-001
1.159009e+003, 5.582572e-001
1.160937e+003, 5.584550e-001
1.162865e+003, 5.586451e-001
1.164794e+003, 5.588124e-001
1.166722e+003, 5.587152e-001
1.168651e+003, 5.585248e-001
1.170579e+003, 5.579920e-001
1.172508e+003, 5.577016e-001
1.174436e+003, 5.584126e-001
1.176365e+003, 5.591478e-001
1.178293e+003, 5.600358e-001
1.180222e+003, 5.610406e-001
1.182150e+003, 5.620869e-001
1.184079e+003, 5.628323e-001
1.186007e+003, 5.632229e-001
1.187936e+003, 5.636832e-001
1.189864e+003, 5.643414e-001
1.191792e+003, 5.646488e-001
1.193721e+003, 5.651790e-001
1.195649e+003, 5.659176e-001
1.197578e+003, 5.666355e-001
1.199506e+003, 5.669630e-001
1.201435e+003, 5.672335e-001
1.203363e+003, 5.674874e-001
1.205292e+003, 5.675988e-001
1.207220e+003, 5.680169e-001
1.209149e+003, 5.685528e-001
1.211077e+003, 5.691632e-001
1.213006e+003, 5.699986e-001
1.214934e+003, 5.708049e-001
1.216863e+003, 5.714871e-001
1.218791e+003, 5.715603e-001
1.220719e+003, 5.716761e-001
1.222648e+003, 5.721859e-001
1.224576e+003, 5.724264e-001
1.226505e+003, 5.729496e-001
1.228433e+003, 5.730977e-001
1.230362e+003, 5.729870e-001
1.232290e+003, 5.733964e-001
1.234219e+003, 5.739586e-001
1.236147e+003, 5.745359e-001
1.238076e+003, 5.749404e-001
1.240004e+003, 5.747756e-001
1.241933e+003, 5.750662e-001
1.243861e+003, 5.752923e-001
1.245790e+003, 5.753464e-001
1.247718e+003, 5.754780e-001
1.249646e+003, 5.753528e-001
1.251575e+003, 5.753638e-001
1.253503e+003, 5.755189e-001
1.255432e+003, 5.753700e-001
1.257360e+003, 5.755449e-001
1.259289e+003, 5.753409e-001
1.261217e+003, 5.748435e-001
1.263146e+003, 5.745571e-001
1.265074e+003, 5.746290e-001
1.267003e+003, 5.753414e-001
1.268931e+003, 5.760090e-001
1.270860e+003, 5.763848e-001
1.272788e+003, 5.767733e-001
1.274717e+003, 5.771699e-001
1.276645e+003, 5.781223e-001
1.278573e+003, 5.790317e-001
1.280502e+003, 5.797141e-001
1.282430e+003, 5.805959e-001
1.284359e+003, 5.813113e-001
1.286287e+003, 5.817772e-001
1.288216e+003, 5.826068e-001
1.290144e+003, 5.831403e-001
1.292073e+003, 5.837120e-001
1.294001e+003, 5.842914e-001
1.295930e+003, 5.845635e-001
1.297858e+003, 5.848018e-001
1.299787e+003, 5.852228e-001
1.301715e+003, 5.858179e-001
1.303644e+003, 5.860052e-001
1.305572e+003, 5.863112e-001
1.307500e+003, 5.873480e-001
1.309429e+003, 5.880327e-001
1.311357e+003, 5.882642e-001
1.313286e+003, 5.886375e-001
1.315214e+003, 5.890843e-001
1.317143e+003, 5.893629e-001
1.319071e+003, 5.898892e-001
1.321000e+003, 5.902563e-001
1.322928e+003, 5.905772e-001
1.324857e+003, 5.912670e-001
1.326785e+003, 5.917922e-001
1.328714e+003, 5.921927e-001
1.330642e+003, 5.929688e-001
1.332571e+003, 5.935891e-001
1.334499e+003, 5.939828e-001
1.336427e+003, 5.942959e-001
1.338356e+003, 5.948516e-001
1.340284e+003, 5.958058e-001
1.342213e+003, 5.966395e-001
1.344141e+003, 5.972233e-001
1.346070e+003, 5.978152e-001
1.347998e+003, 5.985726e-001
1.349927e+003, 5.990155e-001
1.351855e+003, 5.995985e-001
1.353784e+003, 6.006267e-001
1.355712e+003, 6.012066e-001
1.357641e+003, 6.018917e-001
1.359569e+003, 6.029744e-001
1.361498e+003, 6.039782e-001
1.363426e+003, 6.047077e-001
1.365354e+003, 6.054689e-001
1.367283e+003, 6.056063e-001
1.369211e+003, 6.054546e-001
1.371140e+003, 6.058818e-001
1.373068e+003, 6.067663e-001
1.374997e+003, 6.073693e-001
1.376925e+003, 6.079462e-001
1.378854e+003, 6.084149e-001
1.380782e+003, 6.086456e-001
1.382711e+003, 6.092127e-001
1.384639e+003, 6.102462e-001
1.386568e+003, 6.105868e-001
1.388496e+003, 6.111583e-001
1.390424e+003, 6.116819e-001
1.392353e+003, 6.118646e-001
1.394281e+003, 6.121725e-001
1.396210e+003, 6.123417e-001
1.398138e+003, 6.131560e-001
1.400067e+003, 6.138512e-001
1.401995e+003, 6.147892e-001
1.403924e+003, 6.155015e-001
1.405852e+003, 6.161339e-001
1.407781e+003, 6.169944e-001
1.409709e+003, 6.175473e-001
1.411638e+003, 6.179801e-001
1.413566e+003, 6.183188e-001
1.415495e+003, 6.187642e-001
1.417423e+003, 6.193327e-001
1.419351e+003, 6.197892e-001
1.421280e+003, 6.205072e-001
1.423208e+003, 6.210842e-001
1.425137e+003, 6.220588e-001
1.427065e+003, 6.228089e-001
1.428994e+003, 6.229041e-001
1.430922e+003, 6.230863e-001
1.432851e+003, 6.236365e-001
1.434779e+003, 6.244336e-001
1.436708e+003, 6.251768e-001
1.438636e+003, 6.261569e-001
1.440565e+003, 6.268468e-001
1.442493e+003, 6.276593e-001
1.444422e+003, 6.285209e-001
1.446350e+003, 6.292499e-001
1.448278e+003, 6.300483e-001
1.450207e+003, 6.307907e-001
1.452135e+003, 6.313713e-001
1.454064e+003, 6.317139e-001
1.455992e+003, 6.320611e-001
1.457921e+003, 6.325709e-001
1.459849e+003, 6.339876e-001
1.461778e+003, 6.346952e-001
1.463706e+003, 6.345393e-001
1.465635e+003, 6.345638e-001
1.467563e+003, 6.353546e-001
1.469492e+003, 6.354632e-001
1.471420e+003, 6.354929e-001
1.473349e+003, 6.352227e-001
1.475277e+003, 6.355993e-001
1.477205e+003, 6.360106e-001
1.479134e+003, 6.367647e-001
1.481062e+003, 6.372054e-001
1.482991e+003, 6.376227e-001
1.484919e+003, 6.383641e-001
1.486848e+003, 6.390359e-001
1.488776e+003, 6.398394e-001
1.490705e+003, 6.406201e-001
1.492633e+003, 6.417888e-001
1.494562e+003, 6.428789e-001
1.496490e+003, 6.432393e-001
1.498419e+003, 6.441550e-001
1.500347e+003, 6.452248e-001
1.502276e+003, 6.458780e-001
1.504204e+003, 6.463925e-001
1.506132e+003, 6.462435e-001
1.508061e+003, 6.462231e-001
1.509989e+003, 6.466042e-001
1.511918e+003, 6.464450e-001
1.513846e+003, 6.464056e-001
1.515775e+003, 6.463959e-001
1.517703e+003, 6.457886e-001
1.519632e+003, 6.464238e-001
1.521560e+003, 6.467218e-001
1.523489e+003, 6.469877e-001
1.525417e+003, 6.474128e-001
1.527346e+003, 6.482390e-001
1.529274e+003, 6.487900e-001
1.531203e+003, 6.491261e-001
1.533131e+003, 6.495788e-001
1.535059e+003, 6.503073e-001
1.536988e+003, 6.510147e-001
1.538916e+003, 6.508306e-001
1.540845e+003, 6.505241e-001
1.542773e+003, 6.512287e-001
1.544702e+003, 6.524188e-001
1.546630e+003, 6.534820e-001
1.548559e+003, 6.546217e-001
1.550487e+003, 6.549701e-001
1.552416e+003, 6.553756e-001
1.554344e+003, 6.558158e-001
1.556273e+003, 6.563714e-001
1.558201e+003, 6.560745e-001
1.560130e+003, 6.562537e-001
1.562058e+003, 6.577367e-001
1.563986e+003, 6.587245e-001
1.565915e+003, 6.592011e-001
1.567843e+003, 6.600608e-001
1.569772e+003, 6.609920e-001
1.571700e+003, 6.619952e-001
1.573629e+003, 6.623187e-001
1.575557e+003, 6.624534e-001
1.577486e+003, 6.627278e-001
1.579414e+003, 6.639308e-001
1.581343e+003, 6.645166e-001
1.583271e+003, 6.653361e-001
1.585200e+003, 6.660624e-001
1.587128e+003, 6.663621e-001
1.589057e+003, 6.668966e-001
1.590985e+003, 6.675776e-001
1.592913e+003, 6.679825e-001
1.594842e+003, 6.684225e-001
1.596770e+003, 6.690908e-001
1.598699e+003, 6.699573e-001
1.600627e+003, 6.703749e-001
1.602556e+003, 6.705116e-001
1.604484e+003, 6.708897e-001
1.606413e+003, 6.715526e-001
1.608341e+003, 6.721996e-001
1.610270e+003, 6.730071e-001
1.612198e+003, 6.737919e-001
1.614127e+003, 6.741269e-001
1.616055e+003, 6.743705e-001
1.617984e+003, 6.745507e-001
1.619912e+003, 6.757466e-001
1.621840e+003, 6.758801e-001
1.623769e+003, 6.759069e-001
1.625697e+003, 6.766941e-001
1.627626e+003, 6.773567e-001
1.629554e+003, 6.780988e-001
1.631483e+003, 6.785745e-001
1.633411e+003, 6.785013e-001
1.635340e+003, 6.785101e-001
1.637268e+003, 6.792613e-001
1.639197e+003, 6.802235e-001
1.641125e+003, 6.807454e-001
1.643054e+003, 6.813993e-001
1.644982e+003, 6.820403e-001
1.646911e+003, 6.819888e-001
1.648839e+003, 6.825262e-001
1.650767e+003, 6.834195e-001
1.652696e+003, 6.835144e-001
1.654624e+003, 6.834756e-001
1.656553e+003, 6.845599e-001
1.658481e+003, 6.850587e-001
1.660410e+003, 6.857089e-001
1.662338e+003, 6.861669e-001
1.664267e+003, 6.864450e-001
1.666195e+003, 6.870132e-001
1.668124e+003, 6.869448e-001
1.670052e+003, 6.874146e-001
1.671981e+003, 6.883674e-001
1.673909e+003, 6.885355e-001
1.675838e+003, 6.884632e-001
1.677766e+003, 6.894535e-001
1.679694e+003, 6.901728e-001
1.681623e+003, 6.909773e-001
1.683551e+003, 6.912546e-001
1.685480e+003, 6.910276e-001
1.687408e+003, 6.923771e-001
1.689337e+003, 6.925894e-001
1.691265e+003, 6.930352e-001
1.693194e+003, 6.937670e-001
1.695122e+003, 6.939902e-001
1.697051e+003, 6.935284e-001
1.698979e+003, 6.943480e-001
1.700908e+003, 6.938502e-001
1.702836e+003, 6.948891e-001
1.704765e+003, 6.956837e-001
1.706693e+003, 6.960528e-001
1.708621e+003, 6.964506e-001
1.710550e+003, 6.967116e-001
1.712478e+003, 6.967259e-001
1.714407e+003, 6.972780e-001
1.716335e+003, 6.979743e-001
1.718264e+003, 6.984796e-001
1.720192e+003, 6.997063e-001
1.722121e+003, 7.000638e-001
1.724049e+003, 7.001746e-001
1.725978e+003, 7.008637e-001
1.727906e+003, 7.015243e-001
1.729835e+003, 7.017175e-001
1.731763e+003, 7.018767e-001
1.733692e+003, 7.023838e-001
1.735620e+003, 7.023419e-001
1.737548e+003, 7.025764e-001
1.739477e+003, 7.023097e-001
1.741405e+003, 7.024134e-001
1.743334e+003, 7.026677e-001
1.745262e+003, 7.024467e-001
1.747191e+003, 7.026153e-001
1.749119e+003, 7.032369e-001
1.751048e+003, 7.039584e-001
1.752976e+003, 7.047573e-001
1.754905e+003, 7.062349e-001
1.756833e+003, 7.076032e-001
1.758762e+003, 7.087617e-001
1.760690e+003, 7.095709e-001
1.762619e+003, 7.096955e-001
1.764547e+003, 7.111701e-001
1.766475e+003, 7.123108e-001
1.768404e+003, 7.125424e-001
1.770332e+003, 7.126949e-001
1.772261e+003, 7.120110e-001
1.774189e+003, 7.124512e-001
1.776118e+003, 7.131793e-001
1.778046e+003, 7.132277e-001
1.779975e+003, 7.132456e-001
1.781903e+003, 7.134150e-001
1.783832e+003, 7.135386e-001
1.785760e+003, 7.130643e-001
1.787689e+003, 7.133865e-001
1.789617e+003, 7.137068e-001
1.791546e+003, 7.127699e-001
1.793474e+003, 7.121481e-001
1.795402e+003, 7.128783e-001
1.797331e+003, 7.132961e-001
1.799259e+003, 7.134958e-001
1.801188e+003, 7.134134e-001
1.803116e+003, 7.136414e-001
1.805045e+003, 7.139049e-001
1.806973e+003, 7.139692e-001
1.808902e+003, 7.144389e-001
1.810830e+003, 7.148025e-001
1.812759e+003, 7.150422e-001
1.814687e+003, 7.159159e-001
1.816616e+003, 7.156000e-001
1.818544e+003, 7.152609e-001
1.820473e+003, 7.160875e-001
1.822401e+003, 7.164422e-001
1.824329e+003, 7.167606e-001
1.826258e+003, 7.165692e-001
1.828186e+003, 7.172245e-001
1.830115e+003, 7.174760e-001
1.832043e+003, 7.175840e-001
1.833972e+003, 7.179243e-001
1.835900e+003, 7.182867e-001
1.837829e+003, 7.194922e-001
1.839757e+003, 7.203560e-001
1.841686e+003, 7.204705e-001
1.843614e+003, 7.200010e-001
1.845543e+003, 7.199469e-001
1.847471e+003, 7.209871e-001
1.849400e+003, 7.215617e-001
1.851328e+003, 7.218325e-001
1.853256e+003, 7.218059e-001
1.855185e+003, 7.212063e-001
1.857113e+003, 7.212204e-001
1.859042e+003, 7.223567e-001
1.860970e+003, 7.231894e-001
1.862899e+003, 7.233831e-001
1.864827e+003, 7.240125e-001
1.866756e+003, 7.246178e-001
1.868684e+003, 7.243395e-001
1.870613e+003, 7.237493e-001
1.872541e+003, 7.243118e-001
1.874470e+003, 7.251935e-001
1.876398e+003, 7.259298e-001
1.878327e+003, 7.258341e-001
1.880255e+003, 7.266837e-001
1.882183e+003, 7.276598e-001
1.884112e+003, 7.272832e-001
1.886040e+003, 7.271160e-001
1.887969e+003, 7.277835e-001
1.889897e+003, 7.281390e-001
1.891826e+003, 7.280465e-001
1.893754e+003, 7.273690e-001
1.895683e+003, 7.262313e-001
1.897611e+003, 7.259730e-001
1.899540e+003, 7.265707e-001
1.901468e+003, 7.265596e-001
1.903397e+003, 7.284972e-001
1.905325e+003, 7.293192e-001
1.907254e+003, 7.291651e-001
1.909182e+003, 7.283753e-001
1.911110e+003, 7.282270e-001
1.913039e+003, 7.295969e-001
1.914967e+003, 7.303141e-001
1.916896e+003, 7.292277e-001
1.918824e+003, 7.285847e-001
1.920753e+003, 7.291098e-001
1.922681e+003, 7.284369e-001
1.924610e+003, 7.276783e-001
1.926538e+003, 7.283470e-001
1.928467e+003, 7.282907e-001
1.930395e+003, 7.272592e-001
1.932324e+003, 7.275701e-001
1.934252e+003, 7.271696e-001
1.936181e+003, 7.279142e-001
1.938109e+003, 7.269478e-001
1.940037e+003, 7.259601e-001
1.941966e+003, 7.267088e-001
1.943894e+003, 7.258614e-001
1.945823e+003, 7.245752e-001
1.947751e+003, 7.241004e-001
1.949680e+003, 7.221853e-001
1.951608e+003, 7.218738e-001
1.953537e+003, 7.220743e-001
1.955465e+003, 7.217698e-001
1.957394e+003, 7.202219e-001
1.959322e+003, 7.192664e-001
1.961251e+003, 7.194529e-001
1.963179e+003, 7.188842e-001
1.965108e+003, 7.157763e-001
1.967036e+003, 7.144743e-001
1.968964e+003, 7.144979e-001
1.970893e+003, 7.142084e-001
1.972821e+003, 7.142693e-001
1.974750e+003, 7.125444e-001
1.976678e+003, 7.121849e-001
1.978607e+003, 7.170532e-001
1.980535e+003, 7.204948e-001
1.982464e+003, 7.212777e-001
1.984392e+003, 7.231686e-001
1.986321e+003, 7.257898e-001
1.988249e+003, 7.249620e-001
1.990178e+003, 7.253200e-001
1.992106e+003, 7.279682e-001
1.994035e+003, 7.289819e-001
1.995963e+003, 7.285305e-001
1.997891e+003, 7.269730e-001
1.999820e+003, 7.236546e-001
2.001748e+003, 7.221561e-001
2.003677e+003, 7.212341e-001
2.005605e+003, 7.202600e-001
2.007534e+003, 7.213840e-001
2.009462e+003, 7.201219e-001
2.011391e+003, 7.194858e-001
2.013319e+003, 7.206267e-001
2.015248e+003, 7.205161e-001
2.017176e+003, 7.198769e-001
2.019105e+003, 7.216546e-001
2.021033e+003, 7.235891e-001
2.022962e+003, 7.199731e-001
2.024890e+003, 7.193790e-001
2.026818e+003, 7.215062e-001
2.028747e+003, 7.206947e-001
2.030675e+003, 7.200854e-001
2.032604e+003, 7.217184e-001
2.034532e+003, 7.249182e-001
2.036461e+003, 7.302330e-001
2.038389e+003, 7.323434e-001
2.040318e+003, 7.323928e-001
2.042246e+003, 7.339603e-001
2.044175e+003, 7.371296e-001
2.046103e+003, 7.394981e-001
2.048032e+003, 7.423633e-001
2.049960e+003, 7.448549e-001
2.051889e+003, 7.456473e-001
2.053817e+003, 7.454383e-001
2.055746e+003, 7.470459e-001
2.057674e+003, 7.488201e-001
2.059603e+003, 7.503722e-001
2.061531e+003, 7.520968e-001
2.063459e+003, 7.522754e-001
2.065388e+003, 7.534298e-001
2.067316e+003, 7.545779e-001
2.069245e+003, 7.558161e-001
2.071173e+003, 7.578767e-001
2.073102e+003, 7.580413e-001
2.075030e+003, 7.591385e-001
2.076959e+003, 7.599171e-001
2.078887e+003, 7.611827e-001
2.080816e+003, 7.630481e-001
2.082744e+003, 7.634572e-001
2.084673e+003, 7.625654e-001
2.086601e+003, 7.635874e-001
2.088530e+003, 7.638782e-001
2.090458e+003, 7.635041e-001
2.092386e+003, 7.643560e-001
2.094315e+003, 7.650717e-001
2.096243e+003, 7.642048e-001
2.098172e+003, 7.653785e-001
2.100100e+003, 7.677335e-001
2.102029e+003, 7.682878e-001
2.103957e+003, 7.672122e-001
2.105886e+003, 7.689484e-001
2.107814e+003, 7.709212e-001
2.109743e+003, 7.717913e-001
2.111671e+003, 7.725058e-001
2.113600e+003, 7.710899e-001
2.115528e+003, 7.705567e-001
2.117457e+003, 7.696006e-001
2.119385e+003, 7.694911e-001
2.121313e+003, 7.711247e-001
2.123242e+003, 7.714435e-001
2.125170e+003, 7.709193e-001
2.127099e+003, 7.712443e-001
2.129027e+003, 7.697606e-001
2.130956e+003, 7.692608e-001
2.132884e+003, 7.682119e-001
2.134813e+003, 7.656232e-001
2.136741e+003, 7.640853e-001
2.138670e+003, 7.642291e-001
2.140598e+003, 7.632608e-001
2.142527e+003, 7.608129e-001
2.144455e+003, 7.598590e-001
2.146384e+003, 7.592024e-001
2.148312e+003, 7.590031e-001
2.150240e+003, 7.581256e-001
2.152169e+003, 7.542104e-001
2.154097e+003, 7.494823e-001
2.156026e+003, 7.448273e-001
2.157954e+003, 7.435886e-001
2.159883e+003, 7.470628e-001
2.161811e+003, 7.480123e-001
2.163740e+003, 7.496693e-001
2.165668e+003, 7.544909e-001
2.167597e+003, 7.586244e-001
2.169525e+003, 7.578779e-001
2.171454e+003, 7.579558e-001
2.173382e+003, 7.602669e-001
2.175311e+003, 7.608283e-001
2.177239e+003, 7.621084e-001
2.179167e+003, 7.618162e-001
2.181096e+003, 7.622484e-001
2.183024e+003, 7.649457e-001
2.184953e+003, 7.679878e-001
2.186881e+003, 7.684528e-001
2.188810e+003, 7.674944e-001
2.190738e+003, 7.689254e-001
2.192667e+003, 7.729515e-001
2.194595e+003, 7.737469e-001
2.196524e+003, 7.704043e-001
2.198452e+003, 7.708255e-001
2.200381e+003, 7.763402e-001
2.202309e+003, 7.774486e-001
2.204238e+003, 7.756585e-001
2.206166e+003, 7.769461e-001
2.208094e+003, 7.806500e-001
2.210023e+003, 7.852759e-001
2.211951e+003, 7.852198e-001
2.213880e+003, 7.829778e-001
2.215808e+003, 7.839665e-001
2.217737e+003, 7.859886e-001
2.219665e+003, 7.857102e-001
2.221594e+003, 7.858607e-001
2.223522e+003, 7.872064e-001
2.225451e+003, 7.872117e-001
2.227379e+003, 7.891731e-001
2.229308e+003, 7.904567e-001
2.231236e+003, 7.910588e-001
2.233165e+003, 7.920240e-001
2.235093e+003, 7.935687e-001
2.237021e+003, 7.936604e-001
2.238950e+003, 7.948103e-001
2.240878e+003, 7.952760e-001
2.242807e+003, 7.955763e-001
2.244735e+003, 7.980564e-001
2.246664e+003, 7.997205e-001
2.248592e+003, 8.009963e-001
2.250521e+003, 8.036552e-001
2.252449e+003, 8.040839e-001
2.254378e+003, 8.035136e-001
2.256306e+003, 8.035023e-001
2.258235e+003, 8.042465e-001
2.260163e+003, 8.063616e-001
2.262092e+003, 8.070131e-001
2.264020e+003, 8.066507e-001
2.265948e+003, 8.081258e-001
2.267877e+003, 8.081610e-001
2.269805e+003, 8.083522e-001
2.271734e+003, 8.099973e-001
2.273662e+003, 8.122007e-001
2.275591e+003, 8.135783e-001
2.277519e+003, 8.148384e-001
2.279448e+003, 8.161677e-001
2.281376e+003, 8.185902e-001
2.283305e+003, 8.192116e-001
2.285233e+003, 8.196630e-001
2.287162e+003, 8.211151e-001
2.289090e+003, 8.216007e-001
2.291019e+003, 8.231860e-001
2.292947e+003, 8.252866e-001
2.294875e+003, 8.264381e-001
2.296804e+003, 8.275018e-001
2.298732e+003, 8.270798e-001
2.300661e+003, 8.274775e-001
2.302589e+003, 8.288816e-001
2.304518e+003, 8.300829e-001
2.306446e+003, 8.311876e-001
2.308375e+003, 8.320137e-001
2.310303e+003, 8.324017e-001
2.312232e+003, 8.331783e-001
2.314160e+003, 8.343408e-001
2.316089e+003, 8.351988e-001
2.318017e+003, 8.361617e-001
2.319946e+003, 8.374463e-001
2.321874e+003, 8.386334e-001
2.323802e+003, 8.396050e-001
2.325731e+003, 8.392773e-001
2.327659e+003, 8.387619e-001
2.329588e+003, 8.393864e-001
2.331516e+003, 8.397202e-001
2.333445e+003, 8.405135e-001
2.335373e+003, 8.419962e-001
2.337302e+003, 8.422608e-001
2.339230e+003, 8.423478e-001
2.341159e+003, 8.429618e-001
2.343087e+003, 8.434741e-001
2.345016e+003, 8.437774e-001
2.346944e+003, 8.441492e-001
2.348873e+003, 8.441673e-001
2.350801e+003, 8.443081e-001
2.352729e+003, 8.457837e-001
2.354658e+003, 8.461472e-001
2.356586e+003, 8.456426e-001
2.358515e+003, 8.452454e-001
2.360443e+003, 8.460996e-001
2.362372e+003, 8.474705e-001
2.364300e+003, 8.477034e-001
2.366229e+003, 8.475586e-001
2.368157e+003, 8.475555e-001
2.370086e+003, 8.475141e-001
2.372014e+003, 8.476421e-001
2.373942e+003, 8.482804e-001
2.375871e+003, 8.481240e-001
2.377799e+003, 8.476941e-001
2.379728e+003, 8.479880e-001
2.381656e+003, 8.489493e-001
2.383585e+003, 8.496503e-001
2.385513e+003, 8.498607e-001
2.387442e+003, 8.497137e-001
2.389370e+003, 8.490254e-001
2.391299e+003, 8.495660e-001
2.393227e+003, 8.506012e-001
2.395156e+003, 8.508424e-001
2.397084e+003, 8.511030e-001
2.399012e+003, 8.513725e-001
2.400941e+003, 8.505290e-001
2.402869e+003, 8.504284e-001
2.404798e+003, 8.520383e-001
2.406726e+003, 8.530328e-001
2.408655e+003, 8.530572e-001
2.410583e+003, 8.529997e-001
2.412512e+003, 8.530653e-001
2.414440e+003, 8.537509e-001
2.416369e+003, 8.531409e-001
2.418297e+003, 8.533870e-001
2.420226e+003, 8.555387e-001
2.422154e+003, 8.567001e-001
2.424083e+003, 8.561588e-001
2.426011e+003, 8.566385e-001
2.427939e+003, 8.574131e-001
2.429868e+003, 8.578387e-001
2.431796e+003, 8.582309e-001
2.433725e+003, 8.583168e-001
2.435653e+003, 8.577834e-001
2.437582e+003, 8.574881e-001
2.439510e+003, 8.573394e-001
2.441439e+003, 8.585134e-001
2.443367e+003, 8.595784e-001
2.445296e+003, 8.591341e-001
2.447224e+003, 8.597410e-001
2.449153e+003, 8.606434e-001
2.451081e+003, 8.609561e-001
2.453010e+003, 8.614486e-001
2.454938e+003, 8.626912e-001
2.456866e+003, 8.636827e-001
2.458795e+003, 8.635741e-001
2.460723e+003, 8.645765e-001
2.462652e+003, 8.656180e-001
2.464580e+003, 8.653225e-001
2.466509e+003, 8.650585e-001
2.468437e+003, 8.660879e-001
2.470366e+003, 8.667018e-001
2.472294e+003, 8.683046e-001
2.474223e+003, 8.695217e-001
2.476151e+003, 8.683439e-001
2.478080e+003, 8.666666e-001
2.480008e+003, 8.666635e-001
2.481937e+003, 8.671787e-001
2.483865e+003, 8.675283e-001
2.485793e+003, 8.687628e-001
2.487722e+003, 8.695940e-001
2.489650e+003, 8.705387e-001
2.491579e+003, 8.701716e-001
2.493507e+003, 8.693041e-001
2.495436e+003, 8.705829e-001
2.497364e+003, 8.729172e-001
2.499293e+003, 8.744138e-001
2.501221e+003, 8.739529e-001
2.503150e+003, 8.732131e-001
2.505078e+003, 8.737951e-001
2.507007e+003, 8.739144e-001
2.508935e+003, 8.746320e-001
2.510864e+003, 8.769561e-001
2.512792e+003, 8.774608e-001
2.514720e+003, 8.763362e-001
2.516649e+003, 8.761842e-001
2.518577e+003, 8.770133e-001
2.520506e+003, 8.771507e-001
2.522434e+003, 8.777143e-001
2.524363e+003, 8.781602e-001
2.526291e+003, 8.790617e-001
2.528220e+003, 8.788602e-001
2.530148e+003, 8.790838e-001
2.532077e+003, 8.800793e-001
2.534005e+003, 8.802733e-001
2.535934e+003, 8.804029e-001
2.537862e+003, 8.808882e-001
2.539791e+003, 8.811550e-001
2.541719e+003, 8.830325e-001
2.543647e+003, 8.845204e-001
2.545576e+003, 8.838328e-001
2.547504e+003, 8.836919e-001
2.549433e+003, 8.840000e-001
2.551361e+003, 8.838659e-001
2.553290e+003, 8.838363e-001
2.555218e+003, 8.854545e-001
2.557147e+003, 8.872979e-001
2.559075e+003, 8.877746e-001
2.561004e+003, 8.879656e-001
2.562932e+003, 8.883939e-001
2.564861e+003, 8.887742e-001
2.566789e+003, 8.899160e-001
2.568718e+003, 8.902243e-001
2.570646e+003, 8.893501e-001
2.572574e+003, 8.899341e-001
2.574503e+003, 8.903636e-001
2.576431e+003, 8.907378e-001
2.578360e+003, 8.918179e-001
2.580288e+003, 8.920804e-001
2.582217e+003, 8.930154e-001
2.584145e+003, 8.941855e-001
2.586074e+003, 8.934458e-001
2.588002e+003, 8.946663e-001
2.589931e+003, 8.960667e-001
2.591859e+003, 8.954534e-001
2.593788e+003, 8.960408e-001
2.595716e+003, 8.973012e-001
2.597645e+003, 8.977884e-001
2.599573e+003, 8.990365e-001
2.601501e+003, 8.998861e-001
2.603430e+003, 8.996556e-001
2.605358e+003, 8.996602e-001
2.607287e+003, 9.005359e-001
2.609215e+003, 9.018780e-001
2.611144e+003, 9.028879e-001
2.613072e+003, 9.029738e-001
2.615001e+003, 9.037724e-001
2.616929e+003, 9.031358e-001
2.618858e+003, 9.030507e-001
2.620786e+003, 9.044317e-001
2.622715e+003, 9.053299e-001
2.624643e+003, 9.059171e-001
2.626572e+003, 9.072354e-001
2.628500e+003, 9.086616e-001
2.630428e+003, 9.085321e-001
2.632357e+003, 9.084637e-001
2.634285e+003, 9.102447e-001
2.636214e+003, 9.119672e-001
2.638142e+003, 9.120149e-001
2.640071e+003, 9.116569e-001
2.641999e+003, 9.123153e-001
2.643928e+003, 9.140714e-001
2.645856e+003, 9.145026e-001
2.647785e+003, 9.147341e-001
2.649713e+003, 9.152507e-001
2.651642e+003, 9.159629e-001
2.653570e+003, 9.168569e-001
2.655499e+003, 9.167336e-001
2.657427e+003, 9.167782e-001
2.659355e+003, 9.173760e-001
2.661284e+003, 9.179517e-001
2.663212e+003, 9.184017e-001
2.665141e+003, 9.191169e-001
2.667069e+003, 9.196072e-001
2.668998e+003, 9.196973e-001
2.670926e+003, 9.198994e-001
2.672855e+003, 9.197496e-001
2.674783e+003, 9.211323e-001
2.676712e+003, 9.222405e-001
2.678640e+003, 9.224789e-001
2.680569e+003, 9.223917e-001
2.682497e+003, 9.221982e-001
2.684426e+003, 9.224024e-001
2.686354e+003, 9.234109e-001
2.688282e+003, 9.238509e-001
2.690211e+003, 9.243839e-001
2.692139e+003, 9.249312e-001
2.694068e+003, 9.248425e-001
2.695996e+003, 9.247189e-001
2.697925e+003, 9.247672e-001
2.699853e+003, 9.262547e-001
2.701782e+003, 9.280747e-001
2.703710e+003, 9.283174e-001
2.705639e+003, 9.284497e-001
2.707567e+003, 9.294050e-001
2.709496e+003, 9.291129e-001
2.711424e+003, 9.287209e-001
2.713353e+003, 9.293296e-001
2.715281e+003, 9.306011e-001
2.717209e+003, 9.308248e-001
2.719138e+003, 9.310760e-001
2.721066e+003, 9.318699e-001
2.722995e+003, 9.314995e-001
2.724923e+003, 9.312976e-001
2.726852e+003, 9.322503e-001
2.728780e+003, 9.332917e-001
2.730709e+003, 9.339011e-001
2.732637e+003, 9.336552e-001
2.734566e+003, 9.334703e-001
2.736494e+003, 9.343065e-001
2.738423e+003, 9.349675e-001
2.740351e+003, 9.355114e-001
2.742280e+003, 9.356380e-001
2.744208e+003, 9.356033e-001
2.746136e+003, 9.365394e-001
2.748065e+003, 9.369128e-001
2.749993e+003, 9.369994e-001
2.751922e+003, 9.374772e-001
2.753850e+003, 9.376836e-001
2.755779e+003, 9.375505e-001
2.757707e+003, 9.384426e-001
2.759636e+003, 9.393317e-001
2.761564e+003, 9.393873e-001
2.763493e+003, 9.396688e-001
2.765421e+003, 9.396498e-001
2.767350e+003, 9.398360e-001
2.769278e+003, 9.409874e-001
2.771207e+003, 9.407828e-001
2.773135e+003, 9.402245e-001
2.775063e+003, 9.419383e-001
2.776992e+003, 9.438533e-001
2.778920e+003, 9.441445e-001
2.780849e+003, 9.442891e-001
2.782777e+003, 9.441389e-001
2.784706e+003, 9.433873e-001
2.786634e+003, 9.435692e-001
2.788563e+003, 9.455430e-001
2.790491e+003, 9.465433e-001
2.792420e+003, 9.466164e-001
2.794348e+003, 9.469378e-001
2.796277e+003, 9.472992e-001
2.798205e+003, 9.471523e-001
2.800134e+003, 9.465659e-001
2.802062e+003, 9.479691e-001
2.803990e+003, 9.486985e-001
2.805919e+003, 9.487506e-001
2.807847e+003, 9.487130e-001
2.809776e+003, 9.489251e-001
2.811704e+003, 9.500216e-001
2.813633e+003, 9.510963e-001
2.815561e+003, 9.517342e-001
2.817490e+003, 9.517183e-001
2.819418e+003, 9.520962e-001
2.821347e+003, 9.537539e-001
2.823275e+003, 9.545164e-001
2.825204e+003, 9.545531e-001
2.827132e+003, 9.541196e-001
2.829061e+003, 9.543101e-001
2.830989e+003, 9.555535e-001
2.832917e+003, 9.561532e-001
2.834846e+003, 9.564931e-001
2.836774e+003, 9.572868e-001
2.838703e+003, 9.577115e-001
2.840631e+003, 9.583098e-001
2.842560e+003, 9.596850e-001
2.844488e+003, 9.604681e-001
2.846417e+003, 9.595904e-001
2.848345e+003, 9.586025e-001
2.850274e+003, 9.592221e-001
2.852202e+003, 9.597706e-001
2.854131e+003, 9.587075e-001
2.856059e+003, 9.580268e-001
2.857988e+003, 9.584905e-001
2.859916e+003, 9.596938e-001
2.861844e+003, 9.611957e-001
2.863773e+003, 9.619251e-001
2.865701e+003, 9.628752e-001
2.867630e+003, 9.638100e-001
2.869558e+003, 9.632832e-001
2.871487e+003, 9.635277e-001
2.873415e+003, 9.647955e-001
2.875344e+003, 9.662898e-001
2.877272e+003, 9.667885e-001
2.879201e+003, 9.664808e-001
2.881129e+003, 9.672286e-001
2.883058e+003, 9.672507e-001
2.884986e+003, 9.676461e-001
2.886915e+003, 9.687742e-001
2.888843e+003, 9.698522e-001
2.890771e+003, 9.693647e-001
2.892700e+003, 9.688380e-001
2.894628e+003, 9.691116e-001
2.896557e+003, 9.701525e-001
2.898485e+003, 9.712242e-001
2.900414e+003, 9.720036e-001
2.902342e+003, 9.725034e-001
2.904271e+003, 9.729847e-001
2.906199e+003, 9.727017e-001
2.908128e+003, 9.730759e-001
2.910056e+003, 9.738424e-001
2.911985e+003, 9.736943e-001
2.913913e+003, 9.732679e-001
2.915842e+003, 9.726560e-001
2.917770e+003, 9.720327e-001
2.919698e+003, 9.708595e-001
2.921627e+003, 9.706421e-001
2.923555e+003, 9.708210e-001
2.925484e+003, 9.710742e-001
2.927412e+003, 9.717619e-001
2.929341e+003, 9.717887e-001
2.931269e+003, 9.718444e-001
2.933198e+003, 9.726008e-001
2.935126e+003, 9.731213e-001
2.937055e+003, 9.743038e-001
2.938983e+003, 9.748868e-001
2.940912e+003, 9.748282e-001
2.942840e+003, 9.745852e-001
2.944769e+003, 9.749131e-001
2.946697e+003, 9.766951e-001
2.948625e+003, 9.772979e-001
2.950554e+003, 9.777564e-001
2.952482e+003, 9.786710e-001
2.954411e+003, 9.786142e-001
2.956339e+003, 9.782541e-001
2.958268e+003, 9.780563e-001
2.960196e+003, 9.785745e-001
2.962125e+003, 9.792579e-001
2.964053e+003, 9.798990e-001
2.965982e+003, 9.811759e-001
2.967910e+003, 9.814997e-001
2.969839e+003, 9.809429e-001
2.971767e+003, 9.797733e-001
2.973696e+003, 9.802737e-001
2.975624e+003, 9.806499e-001
2.977552e+003, 9.799710e-001
2.979481e+003, 9.809924e-001
2.981409e+003, 9.818420e-001
2.983338e+003, 9.817525e-001
2.985266e+003, 9.817265e-001
2.987195e+003, 9.819741e-001
2.989123e+003, 9.827928e-001
2.991052e+003, 9.833543e-001
2.992980e+003, 9.833550e-001
2.994909e+003, 9.833612e-001
2.996837e+003, 9.840208e-001
2.998766e+003, 9.852740e-001
3.000694e+003, 9.868552e-001
3.002623e+003, 9.868670e-001
3.004551e+003, 9.866946e-001
3.006479e+003, 9.864682e-001
3.008408e+003, 9.863291e-001
3.010336e+003, 9.865198e-001
3.012265e+003, 9.880808e-001
3.014193e+003, 9.897986e-001
3.016122e+003, 9.886405e-001
3.018050e+003, 9.879385e-001
3.019979e+003, 9.892927e-001
3.021907e+003, 9.900060e-001
3.023836e+003, 9.910656e-001
3.025764e+003, 9.912279e-001
3.027693e+003, 9.906888e-001
3.029621e+003, 9.913665e-001
3.031550e+003, 9.919503e-001
3.033478e+003, 9.923360e-001
3.035406e+003, 9.928629e-001
3.037335e+003, 9.928523e-001
3.039263e+003, 9.929842e-001
3.041192e+003, 9.946318e-001
3.043120e+003, 9.947524e-001
3.045049e+003, 9.932688e-001
3.046977e+003, 9.935117e-001
3.048906e+003, 9.951926e-001
3.050834e+003, 9.979140e-001
3.052763e+003, 9.990072e-001
3.054691e+003, 9.974629e-001
3.056620e+003, 9.962186e-001
3.058548e+003, 9.973097e-001
3.060477e+003, 9.991760e-001
3.062405e+003, 9.998400e-001
3.064333e+003, 9.998095e-001
3.066262e+003, 9.998904e-001
3.068190e+003, 1.000757e+000
3.070119e+003, 1.000600e+000
3.072047e+003, 1.000378e+000
3.073976e+003, 1.001373e+000
3.075904e+003, 1.001561e+000
3.077833e+003, 1.002544e+000
3.079761e+003, 1.003483e+000
3.081690e+003, 1.003914e+000
3.083618e+003, 1.003692e+000
3.085547e+003, 1.003734e+000
3.087475e+003, 1.005361e+000
3.089404e+003, 1.006145e+000
3.091332e+003, 1.006142e+000
3.093260e+003, 1.005256e+000
3.095189e+003, 1.004684e+000
3.097117e+003, 1.005002e+000
3.099046e+003, 1.006190e+000
3.100974e+003, 1.007397e+000
3.102903e+003, 1.007212e+000
3.104831e+003, 1.006710e+000
3.106760e+003, 1.008043e+000
3.108688e+003, 1.009394e+000
3.110617e+003, 1.008668e+000
3.112545e+003, 1.008839e+000
3.114474e+003, 1.010858e+000
3.116402e+003, 1.011350e+000
3.118331e+003, 1.011092e+000
3.120259e+003, 1.011787e+000
3.122188e+003, 1.011830e+000
3.124116e+003, 1.011111e+000
3.126044e+003, 1.011723e+000
3.127973e+003, 1.011901e+000
3.129901e+003, 1.012546e+000
3.131830e+003, 1.013421e+000
3.133758e+003, 1.014323e+000
3.135687e+003, 1.014357e+000
3.137615e+003, 1.014282e+000
3.139544e+003, 1.015003e+000
3.141472e+003, 1.015351e+000
3.143401e+003, 1.015984e+000
3.145329e+003, 1.015568e+000
3.147258e+003, 1.017391e+000
3.149186e+003, 1.019404e+000
3.151115e+003, 1.018648e+000
3.153043e+003, 1.017370e+000
3.154971e+003, 1.017773e+000
3.156900e+003, 1.018623e+000
3.158828e+003, 1.019459e+000
3.160757e+003, 1.020975e+000
3.162685e+003, 1.022360e+000
3.164614e+003, 1.022186e+000
3.166542e+003, 1.022245e+000
3.168471e+003, 1.021468e+000
3.170399e+003, 1.021248e+000
3.172328e+003, 1.021658e+000
3.174256e+003, 1.022133e+000
3.176185e+003, 1.023486e+000
3.178113e+003, 1.024832e+000
3.180042e+003, 1.024672e+000
3.181970e+003, 1.025673e+000
3.183898e+003, 1.025568e+000
3.185827e+003, 1.024028e+000
3.187755e+003, 1.025012e+000
3.189684e+003, 1.026890e+000
3.191612e+003, 1.027861e+000
3.193541e+003, 1.027966e+000
3.195469e+003, 1.028769e+000
3.197398e+003, 1.030056e+000
3.199326e+003, 1.030510e+000
3.201255e+003, 1.031198e+000
3.203183e+003, 1.031252e+000
3.205112e+003, 1.029134e+000
3.207040e+003, 1.028354e+000
3.208969e+003, 1.029762e+000
3.210897e+003, 1.029896e+000
3.212825e+003, 1.030967e+000
3.214754e+003, 1.032535e+000
3.216682e+003, 1.033649e+000
3.218611e+003, 1.034536e+000
3.220539e+003, 1.033893e+000
3.222468e+003, 1.034643e+000
3.224396e+003, 1.036220e+000
3.226325e+003, 1.036859e+000
3.228253e+003, 1.037234e+000
3.230182e+003, 1.036729e+000
3.232110e+003, 1.036331e+000
3.234039e+003, 1.037247e+000
3.235967e+003, 1.037172e+000
3.237896e+003, 1.036734e+000
3.239824e+003, 1.038188e+000
3.241752e+003, 1.038830e+000
3.243681e+003, 1.039008e+000
3.245609e+003, 1.039613e+000
3.247538e+003, 1.040399e+000
3.249466e+003, 1.041585e+000
3.251395e+003, 1.042529e+000
3.253323e+003, 1.042107e+000
3.255252e+003, 1.041750e+000
3.257180e+003, 1.041488e+000
3.259109e+003, 1.043175e+000
3.261037e+003, 1.045041e+000
3.262966e+003, 1.045045e+000
3.264894e+003, 1.045346e+000
3.266823e+003, 1.046284e+000
3.268751e+003, 1.046867e+000
3.270679e+003, 1.047940e+000
3.272608e+003, 1.048663e+000
3.274536e+003, 1.049645e+000
3.276465e+003, 1.049923e+000
3.278393e+003, 1.050934e+000
3.280322e+003, 1.050520e+000
3.282250e+003, 1.050015e+000
3.284179e+003, 1.051271e+000
3.286107e+003, 1.052546e+000
3.288036e+003, 1.052652e+000
3.289964e+003, 1.052090e+000
3.291893e+003, 1.052179e+000
3.293821e+003, 1.053560e+000
3.295750e+003, 1.054747e+000
3.297678e+003, 1.054277e+000
3.299606e+003, 1.054603e+000
3.301535e+003, 1.056173e+000
3.303463e+003, 1.056510e+000
3.305392e+003, 1.056780e+000
3.307320e+003, 1.056473e+000
3.309249e+003, 1.056771e+000
3.311177e+003, 1.058149e+000
3.313106e+003, 1.057912e+000
3.315034e+003, 1.055377e+000
3.316963e+003, 1.054782e+000
3.318891e+003, 1.056617e+000
3.320820e+003, 1.059302e+000
3.322748e+003, 1.059396e+000
3.324677e+003, 1.058354e+000
3.326605e+003, 1.058524e+000
3.328533e+003, 1.061137e+000
3.330462e+003, 1.060790e+000
3.332390e+003, 1.059895e+000
3.334319e+003, 1.060577e+000
3.336247e+003, 1.061487e+000
3.338176e+003, 1.063044e+000
3.340104e+003, 1.062870e+000
3.342033e+003, 1.060900e+000
3.343961e+003, 1.061762e+000
3.345890e+003, 1.063976e+000
3.347818e+003, 1.064072e+000
3.349747e+003, 1.064639e+000
3.351675e+003, 1.065296e+000
3.353604e+003, 1.066396e+000
3.355532e+003, 1.067546e+000
3.357460e+003, 1.066471e+000
3.359389e+003, 1.065682e+000
3.361317e+003, 1.065685e+000
3.363246e+003, 1.065580e+000
3.365174e+003, 1.066748e+000
3.367103e+003, 1.066699e+000
3.369031e+003, 1.066114e+000
3.370960e+003, 1.067509e+000
3.372888e+003, 1.068141e+000
3.374817e+003, 1.067659e+000
3.376745e+003, 1.070346e+000
3.378674e+003, 1.070993e+000
3.380602e+003, 1.069276e+000
3.382531e+003, 1.069768e+000
3.384459e+003, 1.071597e+000
3.386387e+003, 1.072432e+000
3.388316e+003, 1.072111e+000
3.390244e+003, 1.072578e+000
3.392173e+003, 1.072313e+000
3.394101e+003, 1.073161e+000
3.396030e+003, 1.074699e+000
3.397958e+003, 1.075068e+000
3.399887e+003, 1.074703e+000
3.401815e+003, 1.074545e+000
3.403744e+003, 1.074786e+000
3.405672e+003, 1.076269e+000
3.407601e+003, 1.077510e+000
3.409529e+003, 1.076444e+000
3.411458e+003, 1.076606e+000
3.413386e+003, 1.078514e+000
3.415314e+003, 1.078879e+000
3.417243e+003, 1.078437e+000
3.419171e+003, 1.078112e+000
3.421100e+003, 1.076783e+000
3.423028e+003, 1.078362e+000
3.424957e+003, 1.080217e+000
3.426885e+003, 1.080443e+000
3.428814e+003, 1.081548e+000
3.430742e+003, 1.082154e+000
3.432671e+003, 1.082618e+000
3.434599e+003, 1.082010e+000
3.436528e+003, 1.081784e+000
3.438456e+003, 1.082590e+000
3.440385e+003, 1.082957e+000
3.442313e+003, 1.082674e+000
3.444241e+003, 1.082499e+000
3.446170e+003, 1.084304e+000
3.448098e+003, 1.086168e+000
3.450027e+003, 1.085680e+000
3.451955e+003, 1.084800e+000
3.453884e+003, 1.085825e+000
3.455812e+003, 1.087040e+000
3.457741e+003, 1.087646e+000
3.459669e+003, 1.086562e+000
3.461598e+003, 1.086426e+000
3.463526e+003, 1.088229e+000
3.465455e+003, 1.089206e+000
3.467383e+003, 1.088009e+000
3.469312e+003, 1.089330e+000
3.471240e+003, 1.091678e+000
3.473168e+003, 1.090410e+000
3.475097e+003, 1.088298e+000
3.477025e+003, 1.089030e+000
3.478954e+003, 1.089375e+000
3.480882e+003, 1.090476e+000
3.482811e+003, 1.091993e+000
3.484739e+003, 1.092188e+000
3.486668e+003, 1.093414e+000
3.488596e+003, 1.092326e+000
3.490525e+003, 1.091548e+000
3.492453e+003, 1.094600e+000
3.494382e+003, 1.095628e+000
3.496310e+003, 1.095729e+000
3.498239e+003, 1.095602e+000
3.500167e+003, 1.093502e+000
3.502095e+003, 1.092508e+000
3.504024e+003, 1.094387e+000
3.505952e+003, 1.096541e+000
3.507881e+003, 1.098079e+000
3.509809e+003, 1.098459e+000
3.511738e+003, 1.097212e+000
3.513666e+003, 1.098165e+000
3.515595e+003, 1.099971e+000
3.517523e+003, 1.098461e+000
3.519452e+003, 1.097105e+000
3.521380e+003, 1.098459e+000
3.523309e+003, 1.100692e+000
3.525237e+003, 1.099869e+000
3.527166e+003, 1.099180e+000
3.529094e+003, 1.100846e+000
3.531022e+003, 1.101389e+000
3.532951e+003, 1.100244e+000
3.534879e+003, 1.100916e+000
3.536808e+003, 1.103281e+000
3.538736e+003, 1.104781e+000
3.540665e+003, 1.105080e+000
3.542593e+003, 1.104018e+000
3.544522e+003, 1.103393e+000
3.546450e+003, 1.102649e+000
3.548379e+003, 1.101541e+000
3.550307e+003, 1.102187e+000
3.552236e+003, 1.103736e+000
3.554164e+003, 1.104100e+000
3.556093e+003, 1.104429e+000
3.558021e+003, 1.103772e+000
3.559949e+003, 1.104581e+000
3.561878e+003, 1.105475e+000
3.563806e+003, 1.105180e+000
3.565735e+003, 1.106301e+000
3.567663e+003, 1.106435e+000
3.569592e+003, 1.106070e+000
3.571520e+003, 1.106545e+000
3.573449e+003, 1.107398e+000
3.575377e+003, 1.108407e+000
3.577306e+003, 1.109357e+000
3.579234e+003, 1.110345e+000
3.581163e+003, 1.110402e+000
3.583091e+003, 1.110830e+000
3.585020e+003, 1.111536e+000
3.586948e+003, 1.110444e+000
3.588876e+003, 1.110140e+000
3.590805e+003, 1.111292e+000
3.592733e+003, 1.111896e+000
3.594662e+003, 1.111262e+000
3.596590e+003, 1.111082e+000
3.598519e+003, 1.112233e+000
3.600447e+003, 1.112126e+000
3.602376e+003, 1.113783e+000
3.604304e+003, 1.114042e+000
3.606233e+003, 1.113807e+000
3.608161e+003, 1.115003e+000
3.610090e+003, 1.114726e+000
3.612018e+003, 1.113849e+000
3.613947e+003, 1.113180e+000
3.615875e+003, 1.112502e+000
3.617803e+003, 1.113117e+000
3.619732e+003, 1.115141e+000
3.621660e+003, 1.117274e+000
3.623589e+003, 1.116971e+000
3.625517e+003, 1.117878e+000
3.627446e+003, 1.118318e+000
3.629374e+003, 1.119988e+000
3.631303e+003, 1.121361e+000
3.633231e+003, 1.122086e+000
3.635160e+003, 1.121011e+000
3.637088e+003, 1.120822e+000
3.639017e+003, 1.120116e+000
3.640945e+003, 1.121124e+000
3.642874e+003, 1.123415e+000
3.644802e+003, 1.123254e+000
3.646730e+003, 1.121509e+000
3.648659e+003, 1.121190e+000
3.650587e+003, 1.121508e+000
3.652516e+003, 1.121503e+000
3.654444e+003, 1.121365e+000
3.656373e+003, 1.122416e+000
3.658301e+003, 1.123067e+000
3.660230e+003, 1.125395e+000
3.662158e+003, 1.127421e+000
3.664087e+003, 1.126588e+000
3.666015e+003, 1.124718e+000
3.667944e+003, 1.124431e+000
3.669872e+003, 1.124041e+000
3.671801e+003, 1.125190e+000
3.673729e+003, 1.125123e+000
3.675657e+003, 1.127079e+000
3.677586e+003, 1.128380e+000
3.679514e+003, 1.130591e+000
3.681443e+003, 1.128796e+000
3.683371e+003, 1.126605e+000
3.685300e+003, 1.127421e+000
3.687228e+003, 1.129037e+000
3.689157e+003, 1.130250e+000
3.691085e+003, 1.130542e+000
3.693014e+003, 1.131362e+000
3.694942e+003, 1.131994e+000
3.696871e+003, 1.131013e+000
3.698799e+003, 1.130274e+000
3.700728e+003, 1.132541e+000
3.702656e+003, 1.133893e+000
3.704584e+003, 1.132129e+000
3.706513e+003, 1.132395e+000
3.708441e+003, 1.132497e+000
3.710370e+003, 1.133133e+000
3.712298e+003, 1.135317e+000
3.714227e+003, 1.136698e+000
3.716155e+003, 1.135413e+000
3.718084e+003, 1.134343e+000
3.720012e+003, 1.136006e+000
3.721941e+003, 1.136640e+000
3.723869e+003, 1.134854e+000
3.725798e+003, 1.136143e+000
3.727726e+003, 1.137000e+000
3.729655e+003, 1.134961e+000
3.731583e+003, 1.138384e+000
3.733511e+003, 1.143302e+000
3.735440e+003, 1.144769e+000
3.737368e+003, 1.142969e+000
3.739297e+003, 1.142336e+000
3.741225e+003, 1.142645e+000
3.743154e+003, 1.143648e+000
3.745082e+003, 1.147398e+000
3.747011e+003, 1.143430e+000
3.748939e+003, 1.142101e+000
3.750868e+003, 1.143214e+000
3.752796e+003, 1.145082e+000
3.754725e+003, 1.146477e+000
3.756653e+003, 1.147249e+000
3.758582e+003, 1.145928e+000
3.760510e+003, 1.145961e+000
3.762438e+003, 1.148418e+000
3.764367e+003, 1.149863e+000
3.766295e+003, 1.149838e+000
3.768224e+003, 1.149456e+000
3.770152e+003, 1.150424e+000
3.772081e+003, 1.150357e+000
3.774009e+003, 1.149113e+000
3.775938e+003, 1.149012e+000
3.777866e+003, 1.149828e+000
3.779795e+003, 1.152506e+000
3.781723e+003, 1.151861e+000
3.783652e+003, 1.148633e+000
3.785580e+003, 1.149875e+000
3.787509e+003, 1.151959e+000
3.789437e+003, 1.152878e+000
3.791365e+003, 1.152444e+000
3.793294e+003, 1.151670e+000
3.795222e+003, 1.152310e+000
3.797151e+003, 1.153867e+000
3.799079e+003, 1.154766e+000
3.801008e+003, 1.155804e+000
3.802936e+003, 1.156986e+000
3.804865e+003, 1.157737e+000
3.806793e+003, 1.158574e+000
3.808722e+003, 1.156158e+000
3.810650e+003, 1.155664e+000
3.812579e+003, 1.157688e+000
3.814507e+003, 1.159042e+000
3.816436e+003, 1.160959e+000
3.818364e+003, 1.160040e+000
3.820292e+003, 1.160884e+000
3.822221e+003, 1.164276e+000
3.824149e+003, 1.163060e+000
3.826078e+003, 1.163021e+000
3.828006e+003, 1.163053e+000
3.829935e+003, 1.161549e+000
3.831863e+003, 1.161179e+000
3.833792e+003, 1.162055e+000
3.835720e+003, 1.164929e+000
3.837649e+003, 1.165074e+000
3.839577e+003, 1.164807e+000
3.841506e+003, 1.164147e+000
3.843434e+003, 1.162705e+000
3.845363e+003, 1.162080e+000
3.847291e+003, 1.162285e+000
3.849219e+003, 1.163615e+000
3.851148e+003, 1.165492e+000
3.853076e+003, 1.168841e+000
3.855005e+003, 1.171319e+000
3.856933e+003, 1.169078e+000
3.858862e+003, 1.169581e+000
3.860790e+003, 1.169689e+000
3.862719e+003, 1.169717e+000
3.864647e+003, 1.171421e+000
3.866576e+003, 1.172547e+000
3.868504e+003, 1.171457e+000
3.870433e+003, 1.172198e+000
3.872361e+003, 1.171098e+000
3.874290e+003, 1.171739e+000
3.876218e+003, 1.171496e+000
3.878146e+003, 1.171090e+000
3.880075e+003, 1.171882e+000
3.882003e+003, 1.173316e+000
3.883932e+003, 1.175451e+000
3.885860e+003, 1.176271e+000
3.887789e+003, 1.174517e+000
3.889717e+003, 1.175647e+000
3.891646e+003, 1.177830e+000
3.893574e+003, 1.175326e+000
3.895503e+003, 1.176056e+000
3.897431e+003, 1.178112e+000
3.899360e+003, 1.179261e+000
3.901288e+003, 1.179775e+000
3.903217e+003, 1.178899e+000
3.905145e+003, 1.176846e+000
3.907073e+003, 1.178362e+000
3.909002e+003, 1.180797e+000
3.910930e+003, 1.181674e+000
3.912859e+003, 1.182638e+000
3.914787e+003, 1.180740e+000
3.916716e+003, 1.179312e+000
3.918644e+003, 1.180330e+000
3.920573e+003, 1.179361e+000
3.922501e+003, 1.179945e+000
3.924430e+003, 1.181609e+000
3.926358e+003, 1.181889e+000
3.928287e+003, 1.182853e+000
3.930215e+003, 1.183395e+000
3.932144e+003, 1.184297e+000
3.934072e+003, 1.185058e+000
3.936000e+003, 1.185579e+000
3.937929e+003, 1.186985e+000
3.939857e+003, 1.189347e+000
3.941786e+003, 1.187692e+000
3.943714e+003, 1.184402e+000
3.945643e+003, 1.184373e+000
3.947571e+003, 1.186465e+000
3.949500e+003, 1.188529e+000
3.951428e+003, 1.189821e+000
3.953357e+003, 1.191333e+000
3.955285e+003, 1.190203e+000
3.957214e+003, 1.188879e+000
3.959142e+003, 1.189070e+000
3.961071e+003, 1.188329e+000
3.962999e+003, 1.189434e+000
3.964927e+003, 1.190958e+000
3.966856e+003, 1.191788e+000
3.968784e+003, 1.193151e+000
3.970713e+003, 1.192315e+000
3.972641e+003, 1.191578e+000
3.974570e+003, 1.193052e+000
3.976498e+003, 1.195215e+000
3.978427e+003, 1.194713e+000
3.980355e+003, 1.194763e+000
3.982284e+003, 1.196798e+000
3.984212e+003, 1.197207e+000
3.986141e+003, 1.195995e+000
3.988069e+003, 1.194584e+000
3.989998e+003, 1.194241e+000
3.991926e+003, 1.194908e+000
3.993854e+003, 1.194799e+000
3.995783e+003, 1.195719e+000
3.997711e+003, 1.197936e+000
3.999640e+003, 1.198511e+000
4.001568e+003, 0.000000e+000
##END=



