##NAMES=Colemanite
##RRUFFID=R050331
##IDEAL CHEMISTRY=CaB_3_O_4_(OH)_3_&#183;H_2_O
##LOCALITY=Thompson mine, Death Valley, Inyo County, California, USA
##OWNER=RRUFF
##SOURCE=California Institute of Technology
##DESCRIPTION=Colorless fragment
##STATUS=The identification of this mineral has been confirmed by X-ray diffraction and chemical analysis
##URL=rruff.info/R050331
##MEASURED CHEMISTRY=Ca_1.00_B_3.00_O_4_(OH)_3_Â·H_2_O ; B not measured but assumed by stoichiometry and charge balance.
399.1926, 0.1231818
401.1211, 0.1201733
403.0496, 0.1207510
404.9780, 0.1249024
406.9065, 0.1262819
408.8350, 0.1244138
410.7634, 0.1264789
412.6919, 0.1260738
414.6204, 0.1284462
416.5488, 0.1301933
418.4773, 0.1311387
420.4058, 0.1299368
422.3342, 0.1271454
424.2627, 0.1262424
426.1912, 0.1257960
428.1196, 0.1241149
430.0481, 0.1235166
431.9766, 0.1223853
433.9050, 0.1216289
435.8335, 0.1203638
437.7620, 0.1192160
439.6904, 0.1167134
441.6189, 0.1152469
443.5474, 0.1146715
445.4758, 0.1129646
447.4043, 0.1098491
449.3328, 0.1075519
451.2612, 0.1053725
453.1897, 0.1052979
455.1182, 0.1051133
457.0466, 0.1054380
458.9751, 0.1049880
460.9036, 0.1042933
462.8320, 0.1028890
464.7605, 0.1021359
466.6890, 0.1011135
468.6174, 9.9187188E-02
470.5459, 9.7837441E-02
472.4744, 9.6910499E-02
474.4028, 9.6076697E-02
476.3313, 9.5769927E-02
478.2598, 9.6266359E-02
480.1882, 9.7631156E-02
482.1167, 9.8630473E-02
484.0452, 0.1001804
485.9736, 0.1028831
487.9021, 0.1051229
489.8306, 0.1069433
491.7590, 0.1084576
493.6875, 0.1100106
495.6160, 0.1098495
497.5444, 0.1077356
499.4729, 0.1046857
501.4014, 0.1020862
503.3298, 0.1023022
505.2583, 0.1053566
507.1868, 0.1099149
509.1152, 0.1156486
511.0437, 0.1216336
512.9722, 0.1261074
514.9006, 0.1268428
516.8291, 0.1217122
518.7576, 0.1124680
520.6860, 0.1016572
522.6145, 9.4196223E-02
524.5430, 9.1203548E-02
526.4714, 9.1025293E-02
528.3999, 9.2216380E-02
530.3284, 9.4482847E-02
532.2568, 9.7399950E-02
534.1853, 9.9892773E-02
536.1138, 0.1025885
538.0422, 0.1061665
539.9707, 0.1078465
541.8992, 0.1072271
543.8276, 0.1074854
545.7561, 0.1101024
547.6846, 0.1143841
549.6130, 0.1157703
551.5415, 0.1107896
553.4700, 0.1039415
555.3984, 9.8761007E-02
557.3269, 9.6679300E-02
559.2554, 9.7532406E-02
561.1838, 9.9616490E-02
563.1123, 0.1034342
565.0408, 0.1074835
566.9692, 0.1123502
568.8977, 0.1188020
570.8262, 0.1263817
572.7546, 0.1353628
574.6831, 0.1459094
576.6116, 0.1564700
578.5400, 0.1650664
580.4685, 0.1677535
582.3970, 0.1590527
584.3254, 0.1409060
586.2539, 0.1220148
588.1824, 0.1076966
590.1108, 9.8527551E-02
592.0393, 9.3641989E-02
593.9678, 9.2110477E-02
595.8962, 9.2516467E-02
597.8247, 9.3990557E-02
599.7532, 9.7001188E-02
601.6816, 0.1018052
603.6101, 0.1065237
605.5386, 0.1084297
607.4670, 0.1081703
609.3955, 0.1077423
611.3240, 0.1070457
613.2524, 0.1080733
615.1809, 0.1116310
617.1094, 0.1149689
619.0378, 0.1180221
620.9663, 0.1208656
622.8948, 0.1225906
624.8232, 0.1231606
626.7517, 0.1235247
628.6802, 0.1235153
630.6086, 0.1227666
632.5371, 0.1213491
634.4656, 0.1203472
636.3940, 0.1201142
638.3225, 0.1193665
640.2510, 0.1179591
642.1794, 0.1165886
644.1079, 0.1162084
646.0364, 0.1161359
647.9648, 0.1158698
649.8933, 0.1155884
651.8218, 0.1158886
653.7502, 0.1168744
655.6787, 0.1185227
657.6072, 0.1208276
659.5356, 0.1233532
661.4641, 0.1260325
663.3926, 0.1297720
665.3210, 0.1336904
667.2495, 0.1374049
669.1780, 0.1415968
671.1064, 0.1465283
673.0349, 0.1490045
674.9634, 0.1455882
676.8918, 0.1384258
678.8203, 0.1335783
680.7488, 0.1337973
682.6772, 0.1384310
684.6057, 0.1456369
686.5342, 0.1528606
688.4626, 0.1585216
690.3911, 0.1618593
692.3196, 0.1627401
694.2480, 0.1621192
696.1765, 0.1609925
698.1050, 0.1602575
700.0334, 0.1601195
701.9619, 0.1613315
703.8904, 0.1637007
705.8188, 0.1662194
707.7473, 0.1690396
709.6758, 0.1723966
711.6042, 0.1765368
713.5327, 0.1807854
715.4612, 0.1852973
717.3896, 0.1910020
719.3181, 0.1977496
721.2466, 0.2049933
723.1750, 0.2135448
725.1035, 0.2229527
727.0320, 0.2306667
728.9604, 0.2344085
730.8889, 0.2316228
732.8174, 0.2212213
734.7458, 0.2041188
736.6743, 0.1864748
738.6028, 0.1733554
740.5313, 0.1670250
742.4597, 0.1670588
744.3882, 0.1716029
746.3167, 0.1794849
748.2451, 0.1899543
750.1736, 0.2020784
752.1021, 0.2149463
754.0305, 0.2273516
755.9590, 0.2372833
757.8875, 0.2421732
759.8159, 0.2387028
761.7444, 0.2255501
763.6729, 0.2042879
765.6013, 0.1789595
767.5298, 0.1549808
769.4583, 0.1368773
771.3867, 0.1265155
773.3152, 0.1231909
775.2437, 0.1248813
777.1721, 0.1298774
779.1006, 0.1374929
781.0291, 0.1475093
782.9575, 0.1586543
784.8860, 0.1690642
786.8145, 0.1778022
788.7429, 0.1843380
790.6714, 0.1885361
792.5999, 0.1909856
794.5283, 0.1928625
796.4568, 0.1955331
798.3853, 0.2003554
800.3137, 0.2070729
802.2422, 0.2151888
804.1707, 0.2244289
806.0991, 0.2337819
808.0276, 0.2415119
809.9561, 0.2465391
811.8845, 0.2475476
813.8130, 0.2447140
815.7415, 0.2397984
817.6699, 0.2343026
819.5984, 0.2299295
821.5269, 0.2280644
823.4553, 0.2285920
825.3838, 0.2310807
827.3123, 0.2356416
829.2407, 0.2422498
831.1692, 0.2497875
833.0977, 0.2582588
835.0261, 0.2676521
836.9546, 0.2773747
838.8831, 0.2858295
840.8115, 0.2938936
842.7400, 0.3021370
844.6685, 0.3098647
846.5969, 0.3172057
848.5254, 0.3232709
850.4539, 0.3287758
852.3823, 0.3339805
854.3108, 0.3380547
856.2393, 0.3403745
858.1677, 0.3415283
860.0962, 0.3420343
862.0247, 0.3421137
863.9531, 0.3417374
865.8816, 0.3417113
867.8101, 0.3417673
869.7385, 0.3423030
871.6670, 0.3440413
873.5955, 0.3460526
875.5239, 0.3482354
877.4524, 0.3511305
879.3809, 0.3540144
881.3093, 0.3562337
883.2378, 0.3574062
885.1663, 0.3573027
887.0947, 0.3560134
889.0232, 0.3536746
890.9517, 0.3508253
892.8801, 0.3474115
894.8085, 0.3439095
896.7370, 0.3400650
898.6655, 0.3360015
900.5939, 0.3327250
902.5224, 0.3301082
904.4509, 0.3280004
906.3793, 0.3256896
908.3078, 0.3233272
910.2363, 0.3212788
912.1647, 0.3194402
914.0932, 0.3179831
916.0217, 0.3167224
917.9501, 0.3157980
919.8786, 0.3154648
921.8071, 0.3149857
923.7355, 0.3148792
925.6640, 0.3145031
927.5925, 0.3125499
929.5209, 0.3087608
931.4494, 0.3040018
933.3779, 0.2983096
935.3063, 0.2919279
937.2348, 0.2855042
939.1633, 0.2784782
941.0917, 0.2714729
943.0202, 0.2647678
944.9487, 0.2580489
946.8771, 0.2517381
948.8056, 0.2449419
950.7341, 0.2377955
952.6625, 0.2304952
954.5910, 0.2229675
956.5195, 0.2147574
958.4479, 0.2059498
960.3764, 0.1969106
962.3049, 0.1876698
964.2333, 0.1785606
966.1618, 0.1694994
968.0903, 0.1608596
970.0187, 0.1526607
971.9472, 0.1451652
973.8757, 0.1382430
975.8041, 0.1326528
977.7326, 0.1281183
979.6611, 0.1241312
981.5895, 0.1204898
983.5180, 0.1178827
985.4465, 0.1160249
987.3749, 0.1150396
989.3034, 0.1152669
991.2319, 0.1160598
993.1603, 0.1172045
995.0888, 0.1193277
997.0173, 0.1221527
998.9457, 0.1247032
1000.874, 0.1275621
1002.803, 0.1312204
1004.731, 0.1349948
1006.660, 0.1388467
1008.588, 0.1430441
1010.517, 0.1475469
1012.445, 0.1516030
1014.373, 0.1549998
1016.302, 0.1578006
1018.230, 0.1600988
1020.159, 0.1618304
1022.087, 0.1629175
1024.016, 0.1638263
1025.944, 0.1645192
1027.873, 0.1648488
1029.801, 0.1652483
1031.730, 0.1657834
1033.658, 0.1663339
1035.587, 0.1672158
1037.515, 0.1681274
1039.444, 0.1684940
1041.372, 0.1679384
1043.301, 0.1659889
1045.229, 0.1622694
1047.157, 0.1567155
1049.086, 0.1499550
1051.014, 0.1426439
1052.943, 0.1357430
1054.871, 0.1296694
1056.800, 0.1245833
1058.728, 0.1209897
1060.657, 0.1184851
1062.585, 0.1167529
1064.514, 0.1158716
1066.442, 0.1156288
1068.371, 0.1158121
1070.299, 0.1155440
1072.228, 0.1146457
1074.156, 0.1131655
1076.084, 0.1107317
1078.013, 0.1076165
1079.941, 0.1043524
1081.870, 0.1010024
1083.798, 9.7477503E-02
1085.727, 9.4247513E-02
1087.655, 9.1668501E-02
1089.584, 8.9732692E-02
1091.512, 8.8742040E-02
1093.441, 8.8402383E-02
1095.369, 8.8758543E-02
1097.298, 8.9642309E-02
1099.226, 9.0903372E-02
1101.155, 9.2385620E-02
1103.083, 9.3675233E-02
1105.011, 9.5223017E-02
1106.940, 9.6687600E-02
1108.868, 9.8357983E-02
1110.797, 0.1005600
1112.725, 0.1023295
1114.654, 0.1036491
1116.582, 0.1047395
1118.511, 0.1052315
1120.439, 0.1052596
1122.368, 0.1050469
1124.296, 0.1043902
1126.225, 0.1035195
1128.153, 0.1030896
1130.082, 0.1031281
1132.010, 0.1027034
1133.938, 0.1019511
1135.867, 0.1013754
1137.795, 0.1002477
1139.724, 9.9154629E-02
1141.652, 9.8430000E-02
1143.581, 9.7538993E-02
1145.509, 9.6751727E-02
1147.438, 9.6301563E-02
1149.366, 9.6612029E-02
1151.295, 9.7017869E-02
1153.223, 9.7092919E-02
1155.152, 9.7066186E-02
1157.080, 9.6901417E-02
1159.009, 9.5740162E-02
1160.937, 9.3759842E-02
1162.865, 9.1277070E-02
1164.794, 8.8199817E-02
1166.722, 8.4601030E-02
1168.651, 8.0572590E-02
1170.579, 7.6354511E-02
1172.508, 7.2326437E-02
1174.436, 6.8455957E-02
1176.365, 6.4876743E-02
1178.293, 6.1659820E-02
1180.222, 5.8622099E-02
1182.150, 5.6341160E-02
1184.079, 5.4581799E-02
1186.007, 5.3257361E-02
1187.936, 5.2499998E-02
1189.864, 5.1939819E-02
1191.792, 5.1937722E-02
1193.721, 5.2532401E-02
1195.649, 5.3292219E-02
1197.578, 5.4408431E-02
1199.506, 5.5795491E-02
1201.435, 5.7658650E-02
1203.363, 6.0013980E-02
1205.292, 6.2901847E-02
1207.220, 6.6576019E-02
1209.149, 7.0772022E-02
1211.077, 7.5416557E-02
1213.006, 8.0523089E-02
1214.934, 8.6482562E-02
1216.863, 9.3144320E-02
1218.791, 0.1001550
1220.719, 0.1072362
1222.648, 0.1140323
1224.576, 0.1199660
1226.505, 0.1241155
1228.433, 0.1261679
1230.362, 0.1256032
1232.290, 0.1226130
1234.219, 0.1180250
1236.147, 0.1126818
1238.076, 0.1075051
1240.004, 0.1030389
1241.933, 9.9802680E-02
1243.861, 9.8355196E-02
1245.790, 9.8530337E-02
1247.718, 0.1004192
1249.646, 0.1038591
1251.575, 0.1082153
1253.503, 0.1136926
1255.432, 0.1197046
1257.360, 0.1263487
1259.289, 0.1333437
1261.217, 0.1400532
1263.146, 0.1455677
1265.074, 0.1498543
1267.003, 0.1533907
1268.931, 0.1554856
1270.860, 0.1561716
1272.788, 0.1559705
1274.717, 0.1554321
1276.645, 0.1547545
1278.573, 0.1542836
1280.502, 0.1541293
1282.430, 0.1539466
1284.359, 0.1538837
1286.287, 0.1536821
1288.216, 0.1533753
1290.144, 0.1534327
1292.073, 0.1541390
1294.001, 0.1555574
1295.930, 0.1582210
1297.858, 0.1632130
1299.787, 0.1709904
1301.715, 0.1812997
1303.644, 0.1944162
1305.572, 0.2103124
1307.500, 0.2270911
1309.429, 0.2422734
1311.357, 0.2538382
1313.286, 0.2605931
1315.214, 0.2626081
1317.143, 0.2609950
1319.071, 0.2574657
1321.000, 0.2534186
1322.928, 0.2496604
1324.857, 0.2462930
1326.785, 0.2433986
1328.714, 0.2407627
1330.642, 0.2378699
1332.571, 0.2347111
1334.499, 0.2304474
1336.427, 0.2248007
1338.356, 0.2189628
1340.284, 0.2128540
1342.213, 0.2067615
1344.141, 0.2020286
1346.070, 0.2002518
1347.998, 0.2028945
1349.927, 0.2105639
1351.855, 0.2214881
1353.784, 0.2329209
1355.712, 0.2416949
1357.641, 0.2465457
1359.569, 0.2469137
1361.498, 0.2432787
1363.426, 0.2367336
1365.354, 0.2282283
1367.283, 0.2184937
1369.211, 0.2077332
1371.140, 0.1962452
1373.068, 0.1845424
1374.997, 0.1733058
1376.925, 0.1628811
1378.854, 0.1530025
1380.782, 0.1440008
1382.711, 0.1354958
1384.639, 0.1273348
1386.568, 0.1198785
1388.496, 0.1124746
1390.424, 0.1053200
1392.353, 9.8754883E-02
1394.281, 9.2609227E-02
1396.210, 8.6666077E-02
1398.138, 8.0975570E-02
1400.067, 7.5778604E-02
1401.995, 7.0952304E-02
1403.924, 6.6489063E-02
1405.852, 6.2263750E-02
1407.781, 5.8691800E-02
1409.709, 5.5911042E-02
1411.638, 5.3137351E-02
1413.566, 5.0839759E-02
1415.495, 4.9134638E-02
1417.423, 4.7989201E-02
1419.351, 4.7149971E-02
1421.280, 4.6717100E-02
1423.208, 4.6793461E-02
1425.137, 4.7115270E-02
1427.065, 4.7466662E-02
1428.994, 4.7531370E-02
1430.922, 4.7324490E-02
1432.851, 4.6412740E-02
1434.779, 4.4741571E-02
1436.708, 4.2580839E-02
1438.636, 4.0276311E-02
1440.565, 3.8545240E-02
1442.493, 3.7191261E-02
1444.422, 3.5779729E-02
1446.350, 3.5017811E-02
1448.278, 3.4656290E-02
1450.207, 3.4696851E-02
1452.135, 3.5291228E-02
1454.064, 3.5720348E-02
1455.992, 3.5948779E-02
1457.921, 3.5975229E-02
1459.849, 3.5568431E-02
1461.778, 3.4777090E-02
1463.706, 3.3818848E-02
1465.635, 3.2112852E-02
1467.563, 2.9640179E-02
1469.492, 2.7692201E-02
1471.420, 2.6371790E-02
1473.349, 2.4874920E-02
1475.277, 2.3138810E-02
1477.205, 2.1305950E-02
1479.134, 1.9403100E-02
1481.062, 1.7825590E-02
1482.991, 1.6972050E-02
1484.919, 1.6443180E-02
1486.848, 1.5836511E-02
1488.776, 1.5017540E-02
1490.705, 1.4333920E-02
1492.633, 1.3832060E-02
1494.562, 1.3424160E-02
1496.490, 1.3074080E-02
1498.419, 1.2681090E-02
1500.347, 1.2419430E-02
1502.276, 1.2208140E-02
1504.204, 1.2456690E-02
1506.132, 1.2567730E-02
1508.061, 1.2104120E-02
1509.989, 1.1753870E-02
1511.918, 1.1658520E-02
1513.846, 1.1549130E-02
1515.775, 1.1713210E-02
1517.703, 1.1559980E-02
1519.632, 1.1127010E-02
1521.560, 1.1295890E-02
1523.489, 1.1603480E-02
1525.417, 1.1747340E-02
1527.346, 1.1870990E-02
1529.274, 1.2071770E-02
1531.203, 1.2155140E-02
1533.131, 1.2092700E-02
1535.059, 1.2137270E-02
1536.988, 1.2090760E-02
1538.916, 1.2641260E-02
1540.845, 1.3245860E-02
1542.773, 1.3108540E-02
1544.702, 1.2973680E-02
1546.630, 1.3097940E-02
1548.559, 1.3472550E-02
1550.487, 1.3846090E-02
1552.416, 1.3833230E-02
1554.344, 1.3778500E-02
1556.273, 1.4184220E-02
1558.201, 1.4137520E-02
1560.130, 1.3753710E-02
1562.058, 1.3880480E-02
1563.986, 1.4039700E-02
1565.915, 1.4071000E-02
1567.843, 1.3856120E-02
1569.772, 1.3848540E-02
1571.700, 1.4075880E-02
1573.629, 1.4567300E-02
1575.557, 1.4667980E-02
1577.486, 1.4551370E-02
1579.414, 1.4746870E-02
1581.343, 1.4833780E-02
1583.271, 1.5176530E-02
1585.200, 1.5772279E-02
1587.128, 1.6150771E-02
1589.057, 1.6180580E-02
1590.985, 1.6273780E-02
1592.913, 1.6525690E-02
1594.842, 1.6908079E-02
1596.770, 1.7145740E-02
1598.699, 1.7127410E-02
1600.627, 1.7156171E-02
1602.556, 1.7189410E-02
1604.484, 1.7413380E-02
1606.413, 1.7352950E-02
1608.341, 1.7227979E-02
1610.270, 1.7008711E-02
1612.198, 1.7001770E-02
1614.127, 1.7069669E-02
1616.055, 1.7137690E-02
1617.984, 1.7230770E-02
1619.912, 1.7032750E-02
1621.840, 1.6625211E-02
1623.769, 1.6556401E-02
1625.697, 1.6717261E-02
1627.626, 1.7260900E-02
1629.554, 1.7047070E-02
1631.483, 1.6702360E-02
1633.411, 1.6777741E-02
1635.340, 1.7137229E-02
1637.268, 1.7132880E-02
1639.197, 1.7020540E-02
1641.125, 1.7241590E-02
1643.054, 1.7200841E-02
1644.982, 1.7139170E-02
1646.911, 1.6937520E-02
1648.839, 1.6569220E-02
1650.767, 1.6832359E-02
1652.696, 1.7146351E-02
1654.624, 1.7005401E-02
1656.553, 1.6659761E-02
1658.481, 1.6561460E-02
1660.410, 1.6576501E-02
1662.338, 1.6587749E-02
1664.267, 1.6175689E-02
1666.195, 1.6160561E-02
1668.124, 1.6190911E-02
1670.052, 1.6443480E-02
1671.981, 1.6632270E-02
1673.909, 1.6591189E-02
1675.838, 1.6623080E-02
1677.766, 1.6764220E-02
1679.694, 1.6446590E-02
1681.623, 1.5997799E-02
1683.551, 1.6245110E-02
1685.480, 1.6250350E-02
1687.408, 1.6036490E-02
1689.337, 1.5777269E-02
1691.265, 1.5234150E-02
1693.194, 1.4663460E-02
1695.122, 1.4481990E-02
1697.051, 1.4785770E-02
1698.979, 1.4575690E-02
1700.908, 1.3766620E-02
1702.836, 1.3291880E-02
1704.765, 1.2992020E-02
1706.693, 1.2251920E-02
1708.621, 1.1367730E-02
1710.550, 1.0615560E-02
1712.478, 1.0305100E-02
1714.407, 1.0460310E-02
1716.335, 1.0131250E-02
1718.264, 9.4137946E-03
1720.192, 9.3362834E-03
1722.121, 9.1938842E-03
1724.049, 8.5513750E-03
1725.978, 7.9254881E-03
1727.906, 7.8884615E-03
1729.835, 7.5140931E-03
1731.763, 7.3488499E-03
1733.692, 6.6920882E-03
1735.620, 5.3417762E-03
1737.548, 4.3389858E-03
1739.477, 3.4606510E-03
1741.405, 2.3769820E-03
1743.334, 1.9424260E-03
1745.262, 2.1929841E-03
1747.191, 2.6665300E-03
1749.119, 2.9530539E-03
1751.048, 3.3953730E-03
1752.976, 3.5921361E-03
1754.905, 4.1482588E-03
1756.833, 5.1704901E-03
1758.762, 5.8376770E-03
1760.690, 5.8873449E-03
1762.619, 5.8519491E-03
1764.547, 5.5489908E-03
1766.475, 5.5407882E-03
1768.404, 5.9407139E-03
1770.332, 6.1395140E-03
1772.261, 6.4452430E-03
1774.189, 6.5987520E-03
1776.118, 6.0942071E-03
1778.046, 5.8477242E-03
1779.975, 5.9802979E-03
1781.903, 5.5659278E-03
1783.832, 5.5907639E-03
1785.760, 5.7691252E-03
1787.689, 5.2167531E-03
1789.617, 4.9970569E-03
1791.546, 5.5708750E-03
1793.474, 5.5152271E-03
1795.402, 4.7853100E-03
1797.331, 4.8292181E-03
1799.259, 5.4068230E-03
1801.188, 5.7732719E-03
1803.116, 5.6901402E-03
1805.045, 5.2618622E-03
1806.973, 5.1501361E-03
1808.902, 4.9460712E-03
1810.830, 4.6558450E-03
1812.759, 4.5052338E-03
1814.687, 4.2425999E-03
1816.616, 4.0453719E-03
1818.544, 4.3787272E-03
1820.473, 4.6030320E-03
1822.401, 4.7915350E-03
1824.329, 4.7238739E-03
1826.258, 4.5230221E-03
1828.186, 3.7472281E-03
1830.115, 3.7486211E-03
1832.043, 4.0915040E-03
1833.972, 3.8600150E-03
1835.900, 4.2002779E-03
1837.829, 4.6246219E-03
1839.757, 4.1496009E-03
1841.686, 4.2616720E-03
1843.614, 4.2038020E-03
1845.543, 3.6316139E-03
1847.471, 3.8215050E-03
1849.400, 5.0226422E-03
1851.328, 5.2474719E-03
1853.256, 3.9948928E-03
1855.185, 3.4641270E-03
1857.113, 3.2294060E-03
1859.042, 3.1796361E-03
1860.970, 3.5878939E-03
1862.899, 4.1362792E-03
1864.827, 4.2772670E-03
1866.756, 4.3275808E-03
1868.684, 4.3966058E-03
1870.613, 4.3504192E-03
1872.541, 4.4637602E-03
1874.470, 4.2715371E-03
1876.398, 3.6040240E-03
1878.327, 3.3179091E-03
1880.255, 3.1962791E-03
1882.183, 3.4993209E-03
1884.112, 3.5985869E-03
1886.040, 3.2734959E-03
1887.969, 3.4547311E-03
1889.897, 4.3206052E-03
1891.826, 4.3145539E-03
1893.754, 3.5278290E-03
1895.683, 3.2689171E-03
1897.611, 3.2909911E-03
1899.540, 3.8863970E-03
1901.468, 4.9406020E-03
1903.397, 3.9012590E-03
1905.325, 1.9517260E-03
1907.254, 1.9739710E-03
1909.182, 3.1559761E-03
1911.110, 3.2247650E-03
1913.039, 3.6797491E-03
1914.967, 4.3854462E-03
1916.896, 3.9189719E-03
1918.824, 2.8131921E-03
1920.753, 2.5148580E-03
1922.681, 1.9935151E-03
1924.610, 1.5706019E-03
1926.538, 1.1711520E-03
1928.467, 2.4838119E-03
1930.395, 4.4620591E-03
1932.324, 4.5447261E-03
1934.252, 2.5916749E-03
1936.181, 2.1706740E-03
1938.109, 2.2225410E-03
1940.037, 1.6530070E-03
1941.966, 1.2744820E-03
1943.894, 3.3847310E-04
1945.823, 1.1844890E-03
1947.751, 2.2039630E-03
1949.680, 1.7976140E-03
1951.608, 3.1161169E-04
1953.537, 3.9383530E-04
1955.465, 4.2981241E-04
1957.394, 5.6768273E-04
1959.322, 1.2544040E-03
1961.251, 1.1394140E-03
1963.179, 1.2984579E-04
1965.108, -3.8693770E-04
1967.036, -1.3157990E-04
1968.964, 7.2185620E-04
1970.893, 8.8296871E-04
1972.821, -3.1155051E-04
1974.750, 6.2254438E-04
1976.678, 9.8613999E-04
1978.607, 4.2355151E-04
1980.535, 1.6395150E-03
1982.464, 2.9096571E-03
1984.392, 2.5748359E-03
1986.321, 7.8743888E-04
1988.249, -4.3291229E-04
1990.178, 1.4640500E-04
1992.106, 6.3673517E-04
1994.035, 1.0822490E-03
1995.963, 1.2973350E-03
1997.891, -1.2809160E-03
1999.820, -2.4596751E-03
2001.748, -1.7937260E-03
2003.677, -1.3710000E-03
2005.605, -2.3581081E-03
2007.534, -2.7314569E-03
2009.462, -1.9574990E-03
2011.391, -1.7805510E-03
2013.319, -2.6639800E-03
2015.248, -2.6403691E-03
2017.176, -4.3763109E-03
2019.105, -4.4000000E-03
2021.033, -1.0281140E-03
2022.962, 9.7044383E-04
2024.890, -2.2575229E-03
2026.818, -4.3081520E-03
2028.747, -3.3069539E-03
2030.675, -3.7813440E-03
2032.604, -4.2278911E-03
2034.532, -8.9053920E-04
2036.461, -1.5740791E-04
2038.389, -3.4513150E-03
2040.318, -4.3462641E-03
2042.246, -3.3350261E-03
2044.175, -2.4743800E-03
2046.103, -3.2606090E-03
2048.032, -1.5959140E-03
2049.960, 1.6317940E-03
2051.889, 1.5962759E-03
2053.817, -2.4229760E-04
2055.746, -1.0247490E-03
2057.674, 5.2498031E-06
2059.603, 2.8994310E-04
2061.531, -3.0637209E-04
2063.459, 3.5375170E-04
2065.388, 1.1849750E-03
2067.316, 1.3675190E-03
2069.245, 1.3089870E-03
2071.173, 8.8145671E-04
2073.102, 1.9354339E-03
2075.030, 1.8810120E-03
2076.959, 1.5585599E-03
2078.887, 2.6720921E-03
2080.816, 3.4644729E-03
2082.744, 3.4750269E-03
2084.673, 2.5170159E-03
2086.601, 3.1457490E-03
2088.530, 3.7930990E-03
2090.458, 2.9285459E-03
2092.386, 1.8991770E-03
2094.315, 3.5113990E-03
2096.243, 5.0699362E-03
2098.172, 3.8019549E-03
2100.100, 2.6651609E-03
2102.029, 3.1043610E-03
2103.957, 3.3310070E-03
2105.886, 4.0136171E-03
2107.814, 4.4700662E-03
2109.743, 4.5440542E-03
2111.671, 4.7286558E-03
2113.600, 4.4189999E-03
2115.528, 2.8697909E-03
2117.457, 2.7775411E-03
2119.385, 3.0588990E-03
2121.313, 2.8707299E-03
2123.242, 2.4163630E-03
2125.170, 3.3477009E-03
2127.099, 4.1065742E-03
2129.027, 3.5540201E-03
2130.956, 4.0390589E-03
2132.884, 3.1794291E-03
2134.813, 2.3710241E-03
2136.741, 9.2665327E-04
2138.670, -6.5036328E-04
2140.598, 2.6388469E-04
2142.527, 9.0872360E-05
2144.455, -1.5020160E-03
2146.384, -8.1970531E-04
2148.312, -1.6195560E-03
2150.240, -3.0523210E-03
2152.169, -3.1411289E-03
2154.097, -3.9774110E-03
2156.026, -8.7567111E-03
2157.954, -5.9520970E-03
2159.883, -8.6361438E-04
2161.811, 1.7253490E-03
2163.740, 4.4224039E-03
2165.668, 4.0688179E-03
2167.597, 3.8136649E-03
2169.525, 3.5185099E-03
2171.454, 1.5336890E-03
2173.382, 7.1665662E-04
2175.311, 2.9088820E-03
2177.239, 3.5605640E-03
2179.167, 2.4701641E-03
2181.096, 3.8013639E-04
2183.024, -9.9043653E-04
2184.953, -3.6929411E-04
2186.881, 2.2615651E-03
2188.810, 4.1409219E-03
2190.738, 3.2633401E-03
2192.667, 1.7628580E-03
2194.595, 1.8494290E-03
2196.524, 1.6110280E-03
2198.452, 3.0219590E-03
2200.381, 3.5941640E-03
2202.309, 1.0430380E-03
2204.238, 2.9487361E-03
2206.166, 3.2156869E-03
2208.094, 3.6783700E-03
2210.023, 3.6193959E-03
2211.951, 1.6623560E-03
2213.880, 1.4234760E-03
2215.808, 7.2726648E-04
2217.737, 1.0738120E-03
2219.665, 1.2827680E-03
2221.594, 8.8800251E-04
2223.522, 1.0898890E-03
2225.451, 1.5925070E-03
2227.379, 1.8155359E-03
2229.308, 2.4271731E-03
2231.236, 3.1483851E-03
2233.165, 4.2760409E-03
2235.093, 4.1282228E-03
2237.021, 3.4127620E-03
2238.950, 4.2033689E-03
2240.878, 3.8966001E-03
2242.807, 2.9939220E-03
2244.735, 3.1151271E-03
2246.664, 3.7320091E-03
2248.592, 5.5854111E-03
2250.521, 6.5497281E-03
2252.449, 5.6944522E-03
2254.378, 4.3388680E-03
2256.306, 4.7030151E-03
2258.235, 6.0333582E-03
2260.163, 6.5874411E-03
2262.092, 5.0387471E-03
2264.020, 4.9304739E-03
2265.948, 5.9670950E-03
2267.877, 4.9039070E-03
2269.805, 4.9596261E-03
2271.734, 5.9494651E-03
2273.662, 6.1968500E-03
2275.591, 5.1211859E-03
2277.519, 4.5993049E-03
2279.448, 5.6301509E-03
2281.376, 7.3929690E-03
2283.305, 8.0447989E-03
2285.233, 7.6965429E-03
2287.162, 7.9081962E-03
2289.090, 7.8942226E-03
2291.019, 8.5572889E-03
2292.947, 7.8691570E-03
2294.875, 7.0582670E-03
2296.804, 7.0587569E-03
2298.732, 7.0877732E-03
2300.661, 7.4707470E-03
2302.589, 7.1079629E-03
2304.518, 6.0366290E-03
2306.446, 6.1244108E-03
2308.375, 7.1300589E-03
2310.303, 7.7439481E-03
2312.232, 7.9222145E-03
2314.160, 8.5937679E-03
2316.089, 8.7716877E-03
2318.017, 9.1259200E-03
2319.946, 9.4110155E-03
2321.874, 1.0365740E-02
2323.802, 1.0760820E-02
2325.731, 9.7762477E-03
2327.659, 9.2388317E-03
2329.588, 9.7803799E-03
2331.516, 1.0156330E-02
2333.445, 9.7786169E-03
2335.373, 9.7086485E-03
2337.302, 1.0314210E-02
2339.230, 9.9532092E-03
2341.159, 9.6607273E-03
2343.087, 9.2737423E-03
2345.016, 9.1863461E-03
2346.944, 8.9578154E-03
2348.873, 8.2094390E-03
2350.801, 8.3625522E-03
2352.729, 9.2818541E-03
2354.658, 1.0007510E-02
2356.586, 1.0859840E-02
2358.515, 1.0794250E-02
2360.443, 1.0704830E-02
2362.372, 1.0980960E-02
2364.300, 1.0365610E-02
2366.229, 9.9787014E-03
2368.157, 1.0240490E-02
2370.086, 1.0549800E-02
2372.014, 1.0197320E-02
2373.942, 9.5601911E-03
2375.871, 9.5187752E-03
2377.799, 9.6218456E-03
2379.728, 8.9792218E-03
2381.656, 8.7551996E-03
2383.585, 9.4362590E-03
2385.513, 9.1045480E-03
2387.442, 8.3684027E-03
2389.370, 8.8416832E-03
2391.299, 8.6349985E-03
2393.227, 8.1516868E-03
2395.156, 9.5429365E-03
2397.084, 1.0742520E-02
2399.012, 9.8004388E-03
2400.941, 8.8428594E-03
2402.869, 8.3349980E-03
2404.798, 8.1099914E-03
2406.726, 9.0314616E-03
2408.655, 9.7007081E-03
2410.583, 9.6039195E-03
2412.512, 9.5372256E-03
2414.440, 9.2620030E-03
2416.369, 9.4159357E-03
2418.297, 1.0030570E-02
2420.226, 1.0592160E-02
2422.154, 9.5450543E-03
2424.083, 8.2628569E-03
2426.011, 8.7262224E-03
2427.939, 8.9567387E-03
2429.868, 9.9531477E-03
2431.796, 1.1316620E-02
2433.725, 1.1351920E-02
2435.653, 1.0936810E-02
2437.582, 1.0662410E-02
2439.510, 1.0116190E-02
2441.439, 8.9121489E-03
2443.367, 8.6032813E-03
2445.296, 9.6171983E-03
2447.224, 1.0050190E-02
2449.153, 9.5121628E-03
2451.081, 1.0011180E-02
2453.010, 1.0725220E-02
2454.938, 1.1076660E-02
2456.866, 1.1857620E-02
2458.795, 1.1740560E-02
2460.723, 1.1537190E-02
2462.652, 1.2440970E-02
2464.580, 1.2875530E-02
2466.509, 1.1976960E-02
2468.437, 1.2017920E-02
2470.366, 1.1819640E-02
2472.294, 1.1208860E-02
2474.223, 9.6799256E-03
2476.151, 8.9184027E-03
2478.080, 1.0518790E-02
2480.008, 1.2156770E-02
2481.937, 1.2455860E-02
2483.865, 1.2632900E-02
2485.793, 1.1979070E-02
2487.722, 1.1020540E-02
2489.650, 1.2228070E-02
2491.579, 1.3643760E-02
2493.507, 1.2838110E-02
2495.436, 1.1795890E-02
2497.364, 1.1742610E-02
2499.293, 1.1627790E-02
2501.221, 1.1573770E-02
2503.150, 1.1217510E-02
2505.078, 1.1512420E-02
2507.007, 1.2403630E-02
2508.935, 1.2608600E-02
2510.864, 1.2474470E-02
2512.792, 1.2494910E-02
2514.720, 1.1835750E-02
2516.649, 1.1239930E-02
2518.577, 1.2077910E-02
2520.506, 1.2837850E-02
2522.434, 1.2002770E-02
2524.363, 1.1046740E-02
2526.291, 1.1113020E-02
2528.220, 1.1452930E-02
2530.148, 1.0364840E-02
2532.077, 9.7226622E-03
2534.005, 1.0336230E-02
2535.934, 1.0505690E-02
2537.862, 1.0018170E-02
2539.791, 8.9739310E-03
2541.719, 1.0194710E-02
2543.647, 1.1728000E-02
2545.576, 1.1363410E-02
2547.504, 9.9466108E-03
2549.433, 9.0795401E-03
2551.361, 9.4714724E-03
2553.290, 1.0729290E-02
2555.218, 1.1603470E-02
2557.147, 1.1686200E-02
2559.075, 1.1874810E-02
2561.004, 1.1543050E-02
2562.932, 1.0356420E-02
2564.861, 9.5746433E-03
2566.789, 9.2624361E-03
2568.718, 9.2056310E-03
2570.646, 1.0630660E-02
2572.574, 1.1317130E-02
2574.503, 1.0296070E-02
2576.431, 9.3517201E-03
2578.360, 9.8758172E-03
2580.288, 1.0770920E-02
2582.217, 1.0364310E-02
2584.145, 9.9812513E-03
2586.074, 1.1434430E-02
2588.002, 1.2188380E-02
2589.931, 1.0905970E-02
2591.859, 1.0850000E-02
2593.788, 1.1153930E-02
2595.716, 1.1552220E-02
2597.645, 1.1372120E-02
2599.573, 9.9814003E-03
2601.501, 1.0091600E-02
2603.430, 1.0355080E-02
2605.358, 9.7556012E-03
2607.287, 9.7668311E-03
2609.215, 1.0587160E-02
2611.144, 1.1139100E-02
2613.072, 1.0797980E-02
2615.001, 1.0435470E-02
2616.929, 1.0386810E-02
2618.858, 1.0805330E-02
2620.786, 1.0290740E-02
2622.715, 9.6785128E-03
2624.643, 9.1069089E-03
2626.572, 9.9337054E-03
2628.500, 1.0092730E-02
2630.428, 9.5341802E-03
2632.357, 9.8723546E-03
2634.285, 1.0801750E-02
2636.214, 1.1229110E-02
2638.142, 1.0678510E-02
2640.071, 1.0914050E-02
2641.999, 1.2324190E-02
2643.928, 1.2926800E-02
2645.856, 1.2156200E-02
2647.785, 1.0784310E-02
2649.713, 1.0767440E-02
2651.642, 1.1031250E-02
2653.570, 1.1522730E-02
2655.499, 1.2378530E-02
2657.427, 1.2379690E-02
2659.355, 1.1349570E-02
2661.284, 1.1130120E-02
2663.212, 1.1258570E-02
2665.141, 1.1468260E-02
2667.069, 1.1027540E-02
2668.998, 1.1076040E-02
2670.926, 1.1555810E-02
2672.855, 1.2009790E-02
2674.783, 1.2285250E-02
2676.712, 1.2382220E-02
2678.640, 1.2244930E-02
2680.569, 1.2382290E-02
2682.497, 1.2217830E-02
2684.426, 1.2313180E-02
2686.354, 1.2238730E-02
2688.282, 1.2135360E-02
2690.211, 1.2605400E-02
2692.139, 1.2973720E-02
2694.068, 1.3142250E-02
2695.996, 1.3527170E-02
2697.925, 1.3330760E-02
2699.853, 1.3157450E-02
2701.782, 1.2960720E-02
2703.710, 1.2738610E-02
2705.639, 1.3648710E-02
2707.567, 1.3622270E-02
2709.496, 1.3310500E-02
2711.424, 1.3506650E-02
2713.353, 1.3500990E-02
2715.281, 1.4268400E-02
2717.209, 1.4519610E-02
2719.138, 1.4088730E-02
2721.066, 1.3850340E-02
2722.995, 1.4048410E-02
2724.923, 1.4623940E-02
2726.852, 1.5470790E-02
2728.780, 1.5680511E-02
2730.709, 1.5622470E-02
2732.637, 1.4814200E-02
2734.566, 1.4222190E-02
2736.494, 1.5419070E-02
2738.423, 1.6461540E-02
2740.351, 1.5760159E-02
2742.280, 1.5284120E-02
2744.208, 1.5657989E-02
2746.136, 1.7151499E-02
2748.065, 1.7732659E-02
2749.993, 1.7089151E-02
2751.922, 1.7228790E-02
2753.850, 1.7178411E-02
2755.779, 1.7247410E-02
2757.707, 1.7889990E-02
2759.636, 1.7891550E-02
2761.564, 1.7967740E-02
2763.493, 1.8482549E-02
2765.421, 1.8618841E-02
2767.350, 1.8216681E-02
2769.278, 1.8335640E-02
2771.207, 1.9093180E-02
2773.135, 1.9135751E-02
2775.063, 1.9440221E-02
2776.992, 2.0536739E-02
2778.920, 2.1326160E-02
2780.849, 2.1104811E-02
2782.777, 2.0529149E-02
2784.706, 2.0571200E-02
2786.634, 2.1266410E-02
2788.563, 1.9875299E-02
2790.491, 1.9468781E-02
2792.420, 2.0848630E-02
2794.348, 2.1757079E-02
2796.277, 2.1605659E-02
2798.205, 2.1703821E-02
2800.134, 2.2361860E-02
2802.062, 2.2080980E-02
2803.990, 2.2221660E-02
2805.919, 2.3024639E-02
2807.847, 2.4027079E-02
2809.776, 2.3924870E-02
2811.704, 2.3430770E-02
2813.633, 2.3880569E-02
2815.561, 2.3658270E-02
2817.490, 2.3397179E-02
2819.418, 2.2844970E-02
2821.347, 2.3258369E-02
2823.275, 2.4830190E-02
2825.204, 2.5712240E-02
2827.132, 2.4778049E-02
2829.061, 2.5345290E-02
2830.989, 2.6870809E-02
2832.917, 2.6567690E-02
2834.846, 2.4852050E-02
2836.774, 2.5083579E-02
2838.703, 2.6083911E-02
2840.631, 2.4468590E-02
2842.560, 2.5055040E-02
2844.488, 2.6892081E-02
2846.417, 2.7446050E-02
2848.345, 2.7054450E-02
2850.274, 2.7101450E-02
2852.202, 2.8050290E-02
2854.131, 2.8394820E-02
2856.059, 2.7346730E-02
2857.988, 2.8802060E-02
2859.916, 3.0397020E-02
2861.844, 2.9810799E-02
2863.773, 2.9257029E-02
2865.701, 3.0218169E-02
2867.630, 3.0788479E-02
2869.558, 3.0370651E-02
2871.487, 3.1091901E-02
2873.415, 3.2421481E-02
2875.344, 3.2738231E-02
2877.272, 3.2708880E-02
2879.201, 3.2328490E-02
2881.129, 3.2736652E-02
2883.058, 3.1992961E-02
2884.986, 3.1603940E-02
2886.915, 3.2713450E-02
2888.843, 3.3152949E-02
2890.771, 3.3114810E-02
2892.700, 3.4652770E-02
2894.628, 3.4230050E-02
2896.557, 3.3471920E-02
2898.485, 3.5460450E-02
2900.414, 3.7365321E-02
2902.342, 3.6032099E-02
2904.271, 3.3893690E-02
2906.199, 3.4642700E-02
2908.128, 3.5704721E-02
2910.056, 3.7142791E-02
2911.985, 3.7919160E-02
2913.913, 3.8633700E-02
2915.842, 3.7942130E-02
2917.770, 3.7758071E-02
2919.698, 4.0266849E-02
2921.627, 4.1239850E-02
2923.555, 3.9728452E-02
2925.484, 4.0518250E-02
2927.412, 4.1171659E-02
2929.341, 4.1623190E-02
2931.269, 4.1643139E-02
2933.198, 4.1811179E-02
2935.126, 4.2304799E-02
2937.055, 4.1846581E-02
2938.983, 4.2530090E-02
2940.912, 4.4123869E-02
2942.840, 4.5438308E-02
2944.769, 4.5669310E-02
2946.697, 4.4815831E-02
2948.625, 4.4398408E-02
2950.554, 4.5664512E-02
2952.482, 4.6180930E-02
2954.411, 4.5480549E-02
2956.339, 4.5993030E-02
2958.268, 4.7898121E-02
2960.196, 4.8022460E-02
2962.125, 4.7275029E-02
2964.053, 4.8856821E-02
2965.982, 4.9470369E-02
2967.910, 4.8735909E-02
2969.839, 5.0693471E-02
2971.767, 5.2728072E-02
2973.696, 5.1252700E-02
2975.624, 5.0537761E-02
2977.552, 5.1487990E-02
2979.481, 5.2172191E-02
2981.409, 5.1297531E-02
2983.338, 5.1776338E-02
2985.266, 5.3854890E-02
2987.195, 5.5561651E-02
2989.123, 5.5173319E-02
2991.052, 5.5459049E-02
2992.980, 5.6699719E-02
2994.909, 5.6244209E-02
2996.837, 5.6207791E-02
2998.766, 5.5932239E-02
3000.694, 5.7585400E-02
3002.623, 6.0816240E-02
3004.551, 6.2364981E-02
3006.479, 6.0916811E-02
3008.408, 6.0191330E-02
3010.336, 6.1757609E-02
3012.265, 6.2103629E-02
3014.193, 6.1890211E-02
3016.122, 6.1540749E-02
3018.050, 6.1540041E-02
3019.979, 6.3273869E-02
3021.907, 6.4963527E-02
3023.836, 6.5853141E-02
3025.764, 6.6266946E-02
3027.693, 6.5741777E-02
3029.621, 6.4972930E-02
3031.550, 6.5121479E-02
3033.478, 6.5313078E-02
3035.406, 6.6348478E-02
3037.335, 6.7444406E-02
3039.263, 6.7232408E-02
3041.192, 6.8044163E-02
3043.120, 6.8451963E-02
3045.049, 6.6795357E-02
3046.977, 6.7753047E-02
3048.906, 6.9875672E-02
3050.834, 7.1055338E-02
3052.763, 7.2607107E-02
3054.691, 7.4379690E-02
3056.620, 7.5888284E-02
3058.548, 7.5772807E-02
3060.477, 7.5223438E-02
3062.405, 7.5310111E-02
3064.333, 7.6268323E-02
3066.262, 7.7286720E-02
3068.190, 7.8071646E-02
3070.119, 7.7629291E-02
3072.047, 7.7823907E-02
3073.976, 7.8427382E-02
3075.904, 8.0728658E-02
3077.833, 8.3488278E-02
3079.761, 8.4879883E-02
3081.690, 8.6199850E-02
3083.618, 8.5156508E-02
3085.547, 8.3909467E-02
3087.475, 8.5485756E-02
3089.404, 8.8696703E-02
3091.332, 8.8756673E-02
3093.260, 8.7823227E-02
3095.189, 8.8851057E-02
3097.117, 9.0745889E-02
3099.046, 9.1954567E-02
3100.974, 9.3615487E-02
3102.903, 9.5496342E-02
3104.831, 9.5834091E-02
3106.760, 9.6373938E-02
3108.688, 9.6615463E-02
3110.617, 9.8899692E-02
3112.545, 0.1017095
3114.474, 0.1018893
3116.402, 0.1010422
3118.331, 0.1011410
3120.259, 0.1019976
3122.188, 0.1030908
3124.116, 0.1042703
3126.044, 0.1066070
3127.973, 0.1075833
3129.901, 0.1089277
3131.830, 0.1111522
3133.758, 0.1119811
3135.687, 0.1118844
3137.615, 0.1133134
3139.544, 0.1136499
3141.472, 0.1147698
3143.401, 0.1153581
3145.329, 0.1153919
3147.258, 0.1170094
3149.186, 0.1171726
3151.115, 0.1174210
3153.043, 0.1181414
3154.971, 0.1178601
3156.900, 0.1188240
3158.828, 0.1199144
3160.757, 0.1189129
3162.685, 0.1188722
3164.614, 0.1201263
3166.542, 0.1197585
3168.471, 0.1196297
3170.399, 0.1208803
3172.328, 0.1221837
3174.256, 0.1228925
3176.185, 0.1217730
3178.113, 0.1218378
3180.042, 0.1237636
3181.970, 0.1243739
3183.898, 0.1236325
3185.827, 0.1239396
3187.755, 0.1243654
3189.684, 0.1233524
3191.612, 0.1224775
3193.541, 0.1238786
3195.469, 0.1242781
3197.398, 0.1245495
3199.326, 0.1256230
3201.255, 0.1253964
3203.183, 0.1256641
3205.112, 0.1274578
3207.040, 0.1279867
3208.969, 0.1283979
3210.897, 0.1284387
3212.825, 0.1272903
3214.754, 0.1281466
3216.682, 0.1299287
3218.611, 0.1304367
3220.539, 0.1309771
3222.468, 0.1316141
3224.396, 0.1302688
3226.325, 0.1299586
3228.253, 0.1313889
3230.182, 0.1308080
3232.110, 0.1302630
3234.039, 0.1303034
3235.967, 0.1303895
3237.896, 0.1315740
3239.824, 0.1314230
3241.752, 0.1300747
3243.681, 0.1308439
3245.609, 0.1311378
3247.538, 0.1279106
3249.466, 0.1271141
3251.395, 0.1275695
3253.323, 0.1281053
3255.252, 0.1281860
3257.180, 0.1263992
3259.109, 0.1256705
3261.037, 0.1250305
3262.966, 0.1244993
3264.894, 0.1235508
3266.823, 0.1228308
3268.751, 0.1230614
3270.679, 0.1214113
3272.608, 0.1222617
3274.536, 0.1231132
3276.465, 0.1202984
3278.393, 0.1187453
3280.322, 0.1192886
3282.250, 0.1194466
3284.179, 0.1195241
3286.107, 0.1201042
3288.036, 0.1195882
3289.964, 0.1175982
3291.893, 0.1175950
3293.821, 0.1172371
3295.750, 0.1172896
3297.678, 0.1166766
3299.606, 0.1138257
3301.535, 0.1131508
3303.463, 0.1132666
3305.392, 0.1112226
3307.320, 0.1095346
3309.249, 0.1090947
3311.177, 0.1096175
3313.106, 0.1085956
3315.034, 0.1073969
3316.963, 0.1055574
3318.891, 0.1040756
3320.820, 0.1042324
3322.748, 0.1027614
3324.677, 0.1003368
3326.605, 0.1000972
3328.533, 0.1005354
3330.462, 9.9370718E-02
3332.390, 9.6626371E-02
3334.319, 9.2723891E-02
3336.247, 9.1870807E-02
3338.176, 8.9867637E-02
3340.104, 8.7466218E-02
3342.033, 8.6858802E-02
3343.961, 8.5932776E-02
3345.890, 8.5807219E-02
3347.818, 8.4998608E-02
3349.747, 8.2514986E-02
3351.675, 8.0446497E-02
3353.604, 7.9192340E-02
3355.532, 7.7580027E-02
3357.460, 7.6494239E-02
3359.389, 7.4515827E-02
3361.317, 7.2901718E-02
3363.246, 7.0928767E-02
3365.174, 6.9476180E-02
3367.103, 6.7292847E-02
3369.031, 6.5587208E-02
3370.960, 6.3959569E-02
3372.888, 6.3366562E-02
3374.817, 6.2972918E-02
3376.745, 6.1731230E-02
3378.674, 6.1761580E-02
3380.602, 6.0018741E-02
3382.531, 5.6813840E-02
3384.459, 5.4460149E-02
3386.387, 5.3455461E-02
3388.316, 5.2937061E-02
3390.244, 5.2511722E-02
3392.173, 5.3785861E-02
3394.101, 5.3962011E-02
3396.030, 5.3333469E-02
3397.958, 5.3550310E-02
3399.887, 5.1023971E-02
3401.815, 4.7284439E-02
3403.744, 4.4958770E-02
3405.672, 4.4741139E-02
3407.601, 4.4113051E-02
3409.529, 4.4046432E-02
3411.458, 4.5267511E-02
3413.386, 4.5333799E-02
3415.314, 4.4521671E-02
3417.243, 4.4424769E-02
3419.171, 4.2691711E-02
3421.100, 4.1512329E-02
3423.028, 4.3083321E-02
3424.957, 4.1962959E-02
3426.885, 3.9952580E-02
3428.814, 3.9508101E-02
3430.742, 3.9884180E-02
3432.671, 3.7507210E-02
3434.599, 3.7096310E-02
3436.528, 3.9600141E-02
3438.456, 3.8792290E-02
3440.385, 3.6286779E-02
3442.313, 3.5942789E-02
3444.241, 3.6265261E-02
3446.170, 3.7177742E-02
3448.098, 3.6455002E-02
3450.027, 3.6553640E-02
3451.955, 3.5302378E-02
3453.884, 3.4982231E-02
3455.812, 3.5858799E-02
3457.741, 3.4042161E-02
3459.669, 3.4287479E-02
3461.598, 3.5687778E-02
3463.526, 3.5771009E-02
3465.455, 3.3466712E-02
3467.383, 3.0745691E-02
3469.312, 3.0679841E-02
3471.240, 3.0340560E-02
3473.168, 2.9621851E-02
3475.097, 3.1658810E-02
3477.025, 3.4048539E-02
3478.954, 3.2592390E-02
3480.882, 3.2488361E-02
3482.811, 3.4243889E-02
3484.739, 3.4379430E-02
3486.668, 3.4764390E-02
3488.596, 3.6032651E-02
3490.525, 3.4499209E-02
3492.453, 3.1665560E-02
3494.382, 3.1679738E-02
3496.310, 3.4805059E-02
3498.239, 3.6334399E-02
3500.167, 3.6972821E-02
3502.095, 3.6238629E-02
3504.024, 3.4816861E-02
3505.952, 3.5698090E-02
3507.881, 3.6805179E-02
3509.809, 3.7834249E-02
3511.738, 3.8352519E-02
3513.666, 3.8682710E-02
3515.595, 3.9253991E-02
3517.523, 3.7596520E-02
3519.452, 3.6310740E-02
3521.380, 3.5474669E-02
3523.309, 3.6299132E-02
3525.237, 3.7299149E-02
3527.166, 3.7224241E-02
3529.094, 3.7471291E-02
3531.022, 3.8014829E-02
3532.951, 3.7774850E-02
3534.879, 3.6675390E-02
3536.808, 3.4816399E-02
3538.736, 3.4712330E-02
3540.665, 3.4400448E-02
3542.593, 3.2892250E-02
3544.522, 3.2099649E-02
3546.450, 2.9718701E-02
3548.379, 2.8788470E-02
3550.307, 2.9239850E-02
3552.236, 2.9025190E-02
3554.164, 3.0443439E-02
3556.093, 2.9940279E-02
3558.021, 2.7536880E-02
3559.949, 2.7986420E-02
3561.878, 2.8803119E-02
3563.806, 2.7625769E-02
3565.735, 2.9122010E-02
3567.663, 2.9384600E-02
3569.592, 2.7972620E-02
3571.520, 2.6752319E-02
3573.449, 2.7617710E-02
3575.377, 2.9148741E-02
3577.306, 3.2814149E-02
3579.234, 3.3296790E-02
3581.163, 3.5412531E-02
3583.091, 4.0328410E-02
3585.020, 4.5578230E-02
3586.948, 4.8155379E-02
3588.876, 5.1785380E-02
3590.805, 5.7350401E-02
3592.733, 6.4218730E-02
3594.662, 6.9961153E-02
3596.590, 7.8311749E-02
3598.519, 8.5545696E-02
3600.447, 8.7986939E-02
3602.376, 8.6122356E-02
3604.304, 8.0139942E-02
3606.233, 7.2347239E-02
3608.161, 6.2830418E-02
3610.090, 5.3045161E-02
3612.018, 4.4573002E-02
3613.947, 3.9473560E-02
3615.875, 3.1311762E-02
3617.803, 2.5979960E-02
3619.732, 2.3778319E-02
3621.660, 2.2162501E-02
3623.589, 2.0223320E-02
3625.517, 1.7207000E-02
3627.446, 1.6891871E-02
3629.374, 1.3462000E-02
3631.303, 9.7751683E-03
3633.231, 9.6065449E-03
3635.160, 1.0836920E-02
3637.088, 1.3719010E-02
3639.017, 1.2493350E-02
3640.945, 8.2867900E-03
3642.874, 7.3942649E-03
3644.802, 7.3148259E-03
3646.730, 6.9850292E-03
3648.659, 9.0598362E-03
3650.587, 6.9251112E-03
3652.516, 2.8856229E-03
3654.444, 5.4904670E-03
3656.373, 8.7908534E-03
3658.301, 8.3234906E-03
3660.230, 7.3230048E-03
3662.158, 7.9222238E-03
3664.087, 6.2778881E-03
3666.015, 8.7749492E-03
3667.944, 9.2276325E-03
3669.872, 6.1801309E-03
3671.801, 5.6023700E-03
3673.729, 7.1318671E-03
3675.657, 9.1192806E-03
3677.586, 8.3662644E-03
3679.514, 6.5186559E-03
3681.443, 8.9122122E-03
3683.371, 1.0058400E-02
3685.300, 8.0979532E-03
3687.228, 4.9898489E-03
3689.157, 5.0244629E-03
3691.085, 3.8879991E-03
3693.014, 5.1253401E-03
3694.942, 5.7555051E-03
3696.871, 7.8273183E-03
3698.799, 5.9350701E-03
3700.728, 6.0889372E-03
3702.656, 6.5610092E-03
3704.584, 5.9341281E-03
3706.513, 8.1632053E-03
3708.441, 8.3488850E-03
3710.370, 7.2091720E-03
3712.298, 8.7854275E-03
3714.227, 9.1867512E-03
3716.155, 8.2724346E-03
3718.084, 9.0133026E-03
3720.012, 7.7825552E-03
3721.941, 7.1626571E-03
3723.869, 1.0141680E-02
3725.798, 1.2062900E-02
3727.726, 8.3432598E-03
3729.655, 4.5171562E-03
3731.583, 5.0664940E-03
3733.511, 6.9550672E-03
3735.440, 8.4901648E-03
3737.368, 9.0150982E-03
3739.297, 5.7630460E-03
3741.225, 4.3878490E-03
3743.154, 6.9448790E-03
3745.082, 7.1061109E-03
3747.011, 6.7964359E-03
3748.939, 1.0175210E-02
3750.868, 1.0364420E-02
3752.796, 8.3928714E-03
3754.725, 6.6242930E-03
3756.653, 6.1857011E-03
3758.582, 7.5440481E-03
3760.510, 7.1282508E-03
3762.438, 7.7538178E-03
3764.367, 8.4722843E-03
3766.295, 9.2713600E-03
3768.224, 9.4018038E-03
3770.152, 8.3137853E-03
3772.081, 7.5652418E-03
3774.009, 6.5694242E-03
3775.938, 5.0571882E-03
3777.866, 6.1750198E-03
3779.795, 9.2166783E-03
3781.723, 7.1989181E-03
3783.652, 6.6476339E-03
3785.580, 5.5151838E-03
3787.509, 4.7045192E-03
3789.437, 5.0554941E-03
3791.365, 4.5769061E-03
3793.294, 5.7916520E-03
3795.222, 5.7538361E-03
3797.151, 5.5344398E-03
3799.079, 6.8083392E-03
3801.008, 7.4299378E-03
3802.936, 9.2219142E-03
3804.865, 9.8418249E-03
3806.793, 9.6084084E-03
3808.722, 1.3273530E-02
3810.650, 1.2930140E-02
3812.579, 9.0014106E-03
3814.507, 9.2858160E-03
3816.436, 8.2497392E-03
3818.364, 7.0724781E-03
3820.292, 7.1131699E-03
3822.221, 7.8063998E-03
3824.149, 9.0330606E-03
3826.078, 6.1873989E-03
3828.006, 4.8285988E-03
3829.935, 5.4764170E-03
3831.863, 8.3063124E-03
3833.792, 7.5791338E-03
3835.720, 8.0465907E-03
3837.649, 9.5525123E-03
3839.577, 8.8637006E-03
3841.506, 7.5772498E-03
3843.434, 8.1830649E-03
3845.363, 7.7774972E-03
3847.291, 6.4781401E-03
3849.219, 4.7341022E-03
3851.148, 5.6984150E-03
3853.076, 9.5784599E-03
3855.005, 1.0641240E-02
3856.933, 6.7385342E-03
3858.862, 6.7974902E-03
3860.790, 7.6903380E-03
3862.719, 7.0791850E-03
3864.647, 7.4659698E-03
3866.576, 1.0670470E-02
3868.504, 1.3510810E-02
3870.433, 1.0288300E-02
3872.361, 1.0799170E-02
3874.290, 1.1531570E-02
3876.218, 8.3248857E-03
3878.146, 1.0192450E-02
3880.075, 1.4037690E-02
3882.003, 1.3612030E-02
3883.932, 1.0995550E-02
3885.860, 1.0511460E-02
3887.789, 1.0712680E-02
3889.717, 7.9621216E-03
3891.646, 8.4817773E-03
3893.574, 1.0269600E-02
3895.503, 9.8634707E-03
3897.431, 9.5566399E-03
3899.360, 7.9682292E-03
3901.288, 6.7685260E-03
3903.217, 8.6605093E-03
3905.145, 1.2919050E-02
3907.073, 1.2283360E-02
3909.002, 1.1983120E-02
3910.930, 1.0488660E-02
3912.859, 1.0373690E-02
3914.787, 1.1012140E-02
3916.716, 1.1740040E-02
3918.644, 1.0667690E-02
3920.573, 1.1942460E-02
3922.501, 1.3247970E-02
3924.430, 1.4587370E-02
3926.358, 1.6074620E-02
3928.287, 1.1671980E-02
3930.215, 6.9969269E-03
3932.144, 7.5684879E-03
3934.072, 1.0613940E-02
3936.000, 1.1254930E-02
3937.929, 9.5776068E-03
3939.857, 1.1245200E-02
3941.786, 9.6510826E-03
3943.714, 5.4414198E-03
3945.643, 6.3000550E-03
3947.571, 1.0328330E-02
3949.500, 1.1605230E-02
3951.428, 1.2042380E-02
3953.357, 1.5197140E-02
3955.285, 1.5314170E-02
3957.214, 1.0726110E-02
3959.142, 1.0097580E-02
3961.071, 9.7716860E-03
3962.999, 7.4143559E-03
3964.927, 9.9639362E-03
3966.856, 9.5157893E-03
3968.784, 1.0993430E-02
3970.713, 1.2309310E-02
3972.641, 7.9230517E-03
3974.570, 8.4077427E-03
3976.498, 8.5520400E-03
3978.427, 6.8159350E-03
3980.355, 6.3127261E-03
3982.284, 9.9726496E-03
3984.212, 1.1425610E-02
3986.141, 1.0759600E-02
3988.069, 1.0850040E-02
3989.998, 1.2243400E-02
3991.926, 1.3996670E-02
3993.854, 1.4251850E-02
3995.783, 1.3700710E-02
3997.711, 1.3459540E-02
3999.640, 1.3466030E-02
##END=



