##NAMES=Columbite-(Mn)
##RRUFFID=R040083
##IDEAL CHEMISTRY=Mn^2+^Nb^5+^_2_O_6_
##LOCALITY=Mina Miramica, Santa Cruz, Bolivia
##OWNER=RRUFF
##SOURCE=University of Arizona Mineral Museum
##DESCRIPTION=Fragment consisting of multiple phases as shown by both X-ray diffraction and microprobe.
##STATUS=The identification of this mineral has been confirmed by X-ray diffraction and chemical analysis
##URL=rruff.info/R040083
##MEASURED CHEMISTRY=Light bands: (Mn^2+^_0.78_Fe^2+^_0.21_Ti_0.01_)(Nb_0.74_Ta_0.25_Ti_0.01_)_2_O_6_; Dark bands:(Mn^2+^_0.73_Fe^2+^_0.26_Ti_0.01_)(Nb_0.86_Ta_0.13_Ti_0.01_)_2_O_6_
3.741225e+002, 2.442859e-001
3.760510e+002, 2.386865e-001
3.779795e+002, 2.360804e-001
3.799079e+002, 2.467596e-001
3.818364e+002, 2.600188e-001
3.837649e+002, 2.573705e-001
3.856933e+002, 2.603147e-001
3.876218e+002, 2.600764e-001
3.895503e+002, 2.562383e-001
3.914787e+002, 2.547875e-001
3.934072e+002, 2.590635e-001
3.953357e+002, 2.555769e-001
3.972641e+002, 2.565143e-001
3.991926e+002, 2.564139e-001
4.011211e+002, 2.566352e-001
4.030495e+002, 2.589948e-001
4.049780e+002, 2.590443e-001
4.069065e+002, 2.624570e-001
4.088349e+002, 2.712707e-001
4.107634e+002, 2.728241e-001
4.126919e+002, 2.730118e-001
4.146203e+002, 2.797996e-001
4.165488e+002, 2.826429e-001
4.184773e+002, 2.829056e-001
4.204057e+002, 2.833752e-001
4.223342e+002, 2.853701e-001
4.242627e+002, 2.869518e-001
4.261911e+002, 2.871452e-001
4.281196e+002, 2.904354e-001
4.300481e+002, 2.946055e-001
4.319765e+002, 2.968014e-001
4.339050e+002, 2.991832e-001
4.358335e+002, 3.014458e-001
4.377619e+002, 3.006423e-001
4.396904e+002, 3.008943e-001
4.416189e+002, 3.016509e-001
4.435473e+002, 3.014973e-001
4.454758e+002, 3.020271e-001
4.474043e+002, 3.025371e-001
4.493327e+002, 3.001615e-001
4.512612e+002, 3.002144e-001
4.531897e+002, 3.040054e-001
4.551181e+002, 3.060715e-001
4.570466e+002, 3.064098e-001
4.589751e+002, 3.059817e-001
4.609035e+002, 3.050089e-001
4.628320e+002, 3.052820e-001
4.647605e+002, 3.055191e-001
4.666889e+002, 3.057869e-001
4.686174e+002, 3.055539e-001
4.705459e+002, 3.038678e-001
4.724743e+002, 3.037374e-001
4.744028e+002, 3.041755e-001
4.763313e+002, 3.041413e-001
4.782597e+002, 3.047257e-001
4.801882e+002, 3.042742e-001
4.821167e+002, 3.023935e-001
4.840451e+002, 3.007208e-001
4.859736e+002, 2.990513e-001
4.879021e+002, 2.971215e-001
4.898305e+002, 2.961581e-001
4.917590e+002, 2.950933e-001
4.936875e+002, 2.937805e-001
4.956159e+002, 2.930607e-001
4.975444e+002, 2.911498e-001
4.994729e+002, 2.898745e-001
5.014013e+002, 2.893482e-001
5.033298e+002, 2.877650e-001
5.052583e+002, 2.861816e-001
5.071867e+002, 2.857867e-001
5.091152e+002, 2.853512e-001
5.110437e+002, 2.852379e-001
5.129721e+002, 2.843286e-001
5.149006e+002, 2.835248e-001
5.168290e+002, 2.820399e-001
5.187575e+002, 2.811786e-001
5.206860e+002, 2.810340e-001
5.226144e+002, 2.796438e-001
5.245429e+002, 2.768402e-001
5.264714e+002, 2.748210e-001
5.283998e+002, 2.739942e-001
5.303283e+002, 2.726753e-001
5.322568e+002, 2.716132e-001
5.341852e+002, 2.716085e-001
5.361137e+002, 2.708569e-001
5.380422e+002, 2.690879e-001
5.399706e+002, 2.674631e-001
5.418991e+002, 2.665942e-001
5.438276e+002, 2.662600e-001
5.457560e+002, 2.649728e-001
5.476845e+002, 2.647055e-001
5.496130e+002, 2.645805e-001
5.515414e+002, 2.626176e-001
5.534699e+002, 2.611617e-001
5.553984e+002, 2.614469e-001
5.573268e+002, 2.608922e-001
5.592553e+002, 2.594593e-001
5.611838e+002, 2.578632e-001
5.631122e+002, 2.566987e-001
5.650407e+002, 2.561453e-001
5.669692e+002, 2.556925e-001
5.688976e+002, 2.546385e-001
5.708261e+002, 2.532675e-001
5.727546e+002, 2.523720e-001
5.746830e+002, 2.513359e-001
5.766115e+002, 2.502088e-001
5.785400e+002, 2.491776e-001
5.804684e+002, 2.484997e-001
5.823969e+002, 2.474320e-001
5.843254e+002, 2.456627e-001
5.862538e+002, 2.441363e-001
5.881823e+002, 2.432741e-001
5.901108e+002, 2.423424e-001
5.920392e+002, 2.413022e-001
5.939677e+002, 2.405098e-001
5.958962e+002, 2.395929e-001
5.978246e+002, 2.390011e-001
5.997531e+002, 2.388714e-001
6.016816e+002, 2.386045e-001
6.036100e+002, 2.382084e-001
6.055385e+002, 2.384695e-001
6.074670e+002, 2.392454e-001
6.093954e+002, 2.398843e-001
6.113239e+002, 2.399973e-001
6.132524e+002, 2.401680e-001
6.151808e+002, 2.405403e-001
6.171093e+002, 2.409506e-001
6.190378e+002, 2.414908e-001
6.209662e+002, 2.416269e-001
6.228947e+002, 2.413046e-001
6.248232e+002, 2.411280e-001
6.267516e+002, 2.404042e-001
6.286801e+002, 2.389464e-001
6.306086e+002, 2.379570e-001
6.325370e+002, 2.370064e-001
6.344655e+002, 2.360808e-001
6.363940e+002, 2.351122e-001
6.383224e+002, 2.339789e-001
6.402509e+002, 2.331487e-001
6.421794e+002, 2.326526e-001
6.441078e+002, 2.325012e-001
6.460363e+002, 2.318804e-001
6.479648e+002, 2.311009e-001
6.498932e+002, 2.309003e-001
6.518217e+002, 2.307342e-001
6.537502e+002, 2.308149e-001
6.556786e+002, 2.310237e-001
6.576071e+002, 2.310294e-001
6.595356e+002, 2.311741e-001
6.614641e+002, 2.312799e-001
6.633925e+002, 2.313841e-001
6.653210e+002, 2.316021e-001
6.672495e+002, 2.322660e-001
6.691779e+002, 2.326897e-001
6.711064e+002, 2.331485e-001
6.730349e+002, 2.333740e-001
6.749633e+002, 2.333800e-001
6.768918e+002, 2.337827e-001
6.788203e+002, 2.341234e-001
6.807487e+002, 2.340942e-001
6.826772e+002, 2.340611e-001
6.846057e+002, 2.341512e-001
6.865341e+002, 2.341224e-001
6.884626e+002, 2.336690e-001
6.903911e+002, 2.327958e-001
6.923195e+002, 2.320432e-001
6.942480e+002, 2.309113e-001
6.961765e+002, 2.291419e-001
6.981049e+002, 2.272017e-001
7.000334e+002, 2.249166e-001
7.019619e+002, 2.221948e-001
7.038903e+002, 2.193334e-001
7.058188e+002, 2.164989e-001
7.077473e+002, 2.134589e-001
7.096757e+002, 2.100069e-001
7.116042e+002, 2.067153e-001
7.135327e+002, 2.033549e-001
7.154611e+002, 1.995993e-001
7.173896e+002, 1.958620e-001
7.193181e+002, 1.923287e-001
7.212465e+002, 1.887882e-001
7.231750e+002, 1.852421e-001
7.251035e+002, 1.817241e-001
7.270319e+002, 1.781959e-001
7.289604e+002, 1.749878e-001
7.308889e+002, 1.720026e-001
7.328173e+002, 1.688378e-001
7.347458e+002, 1.657728e-001
7.366743e+002, 1.628186e-001
7.386027e+002, 1.601665e-001
7.405312e+002, 1.575043e-001
7.424597e+002, 1.547436e-001
7.443881e+002, 1.522955e-001
7.463166e+002, 1.499737e-001
7.482451e+002, 1.477339e-001
7.501735e+002, 1.458645e-001
7.521020e+002, 1.441774e-001
7.540305e+002, 1.426838e-001
7.559589e+002, 1.409836e-001
7.578874e+002, 1.393153e-001
7.598159e+002, 1.381792e-001
7.617443e+002, 1.371669e-001
7.636728e+002, 1.362147e-001
7.656013e+002, 1.353058e-001
7.675297e+002, 1.345333e-001
7.694582e+002, 1.335764e-001
7.713867e+002, 1.326250e-001
7.733151e+002, 1.319029e-001
7.752436e+002, 1.312573e-001
7.771721e+002, 1.305864e-001
7.791005e+002, 1.297335e-001
7.810290e+002, 1.287938e-001
7.829575e+002, 1.276858e-001
7.848859e+002, 1.268189e-001
7.868144e+002, 1.261412e-001
7.887429e+002, 1.256430e-001
7.906713e+002, 1.251772e-001
7.925998e+002, 1.245896e-001
7.945283e+002, 1.240577e-001
7.964567e+002, 1.236302e-001
7.983852e+002, 1.228903e-001
8.003137e+002, 1.217889e-001
8.022421e+002, 1.206867e-001
8.041706e+002, 1.197252e-001
8.060991e+002, 1.186718e-001
8.080275e+002, 1.175670e-001
8.099560e+002, 1.166119e-001
8.118845e+002, 1.159158e-001
8.138129e+002, 1.153691e-001
8.157414e+002, 1.147062e-001
8.176699e+002, 1.140743e-001
8.195983e+002, 1.135397e-001
8.215268e+002, 1.129282e-001
8.234553e+002, 1.124645e-001
8.253837e+002, 1.118948e-001
8.273122e+002, 1.110930e-001
8.292407e+002, 1.103029e-001
8.311691e+002, 1.091859e-001
8.330976e+002, 1.080888e-001
8.350261e+002, 1.069823e-001
8.369545e+002, 1.057848e-001
8.388830e+002, 1.042924e-001
8.408115e+002, 1.026365e-001
8.427399e+002, 1.007808e-001
8.446684e+002, 9.855004e-002
8.465969e+002, 9.600814e-002
8.485253e+002, 9.336687e-002
8.504538e+002, 9.071194e-002
8.523823e+002, 8.813191e-002
8.543107e+002, 8.557383e-002
8.562392e+002, 8.313916e-002
8.581677e+002, 8.082863e-002
8.600961e+002, 7.849794e-002
8.620246e+002, 7.623235e-002
8.639531e+002, 7.400298e-002
8.658815e+002, 7.169950e-002
8.678100e+002, 6.906987e-002
8.697385e+002, 6.612030e-002
8.716669e+002, 6.303629e-002
8.735954e+002, 5.961647e-002
8.755239e+002, 5.612307e-002
8.774523e+002, 5.260872e-002
8.793808e+002, 4.906272e-002
8.813093e+002, 4.571195e-002
8.832377e+002, 4.241780e-002
8.851662e+002, 3.945030e-002
8.870947e+002, 3.685712e-002
8.890231e+002, 3.480712e-002
8.909516e+002, 3.342959e-002
8.928801e+002, 3.254877e-002
8.948085e+002, 3.191787e-002
8.967370e+002, 3.131032e-002
8.986655e+002, 3.077797e-002
9.005939e+002, 3.047316e-002
9.025224e+002, 3.011613e-002
9.044509e+002, 2.976023e-002
9.063793e+002, 2.951967e-002
9.083078e+002, 2.934104e-002
9.102363e+002, 2.918361e-002
9.121647e+002, 2.887973e-002
9.140932e+002, 2.849420e-002
9.160217e+002, 2.810946e-002
9.179501e+002, 2.792100e-002
9.198786e+002, 2.763744e-002
9.218071e+002, 2.730904e-002
9.237355e+002, 2.701754e-002
9.256640e+002, 2.666540e-002
9.275925e+002, 2.648256e-002
9.295209e+002, 2.637428e-002
9.314494e+002, 2.631733e-002
9.333779e+002, 2.621886e-002
9.353063e+002, 2.592680e-002
9.372348e+002, 2.581554e-002
9.391633e+002, 2.582331e-002
9.410917e+002, 2.583521e-002
9.430202e+002, 2.577090e-002
9.449487e+002, 2.571028e-002
9.468771e+002, 2.577047e-002
9.488056e+002, 2.586911e-002
9.507341e+002, 2.589939e-002
9.526625e+002, 2.624933e-002
9.545910e+002, 2.663588e-002
9.565195e+002, 2.692325e-002
9.584479e+002, 2.729765e-002
9.603764e+002, 2.778547e-002
9.623049e+002, 2.827252e-002
9.642333e+002, 2.886757e-002
9.661618e+002, 2.954648e-002
9.680903e+002, 3.028722e-002
9.700187e+002, 3.111725e-002
9.719472e+002, 3.193130e-002
9.738757e+002, 3.298051e-002
9.758041e+002, 3.401149e-002
9.777326e+002, 3.485861e-002
9.796611e+002, 3.581969e-002
9.815895e+002, 3.695803e-002
9.835180e+002, 3.801354e-002
9.854465e+002, 3.891079e-002
9.873749e+002, 3.972731e-002
9.893034e+002, 4.052780e-002
9.912319e+002, 4.135073e-002
9.931603e+002, 4.206402e-002
9.950888e+002, 4.273961e-002
9.970173e+002, 4.354788e-002
9.989457e+002, 4.431592e-002
1.000874e+003, 4.494755e-002
1.002803e+003, 4.553017e-002
1.004731e+003, 4.626511e-002
1.006660e+003, 4.699953e-002
1.008588e+003, 4.761016e-002
1.010517e+003, 4.823160e-002
1.012445e+003, 4.885911e-002
1.014373e+003, 4.947488e-002
1.016302e+003, 5.005335e-002
1.018230e+003, 5.054245e-002
1.020159e+003, 5.109235e-002
1.022087e+003, 5.184341e-002
1.024016e+003, 5.243517e-002
1.025944e+003, 5.282615e-002
1.027873e+003, 5.331892e-002
1.029801e+003, 5.379963e-002
1.031730e+003, 5.414773e-002
1.033658e+003, 5.420968e-002
1.035587e+003, 5.414722e-002
1.037515e+003, 5.394323e-002
1.039443e+003, 5.346400e-002
1.041372e+003, 5.265226e-002
1.043300e+003, 5.166848e-002
1.045229e+003, 5.087721e-002
1.047157e+003, 4.995706e-002
1.049086e+003, 4.908889e-002
1.051014e+003, 4.862208e-002
1.052943e+003, 4.803483e-002
1.054871e+003, 4.740366e-002
1.056800e+003, 4.711772e-002
1.058728e+003, 4.690436e-002
1.060657e+003, 4.672807e-002
1.062585e+003, 4.640998e-002
1.064514e+003, 4.613539e-002
1.066442e+003, 4.614756e-002
1.068370e+003, 4.610952e-002
1.070299e+003, 4.617121e-002
1.072227e+003, 4.644277e-002
1.074156e+003, 4.670884e-002
1.076084e+003, 4.684736e-002
1.078013e+003, 4.702384e-002
1.079941e+003, 4.722287e-002
1.081870e+003, 4.733265e-002
1.083798e+003, 4.739284e-002
1.085727e+003, 4.737015e-002
1.087655e+003, 4.719998e-002
1.089584e+003, 4.699340e-002
1.091512e+003, 4.682915e-002
1.093441e+003, 4.645980e-002
1.095369e+003, 4.602994e-002
1.097297e+003, 4.566517e-002
1.099226e+003, 4.523462e-002
1.101154e+003, 4.488100e-002
1.103083e+003, 4.464131e-002
1.105011e+003, 4.433008e-002
1.106940e+003, 4.386264e-002
1.108868e+003, 4.341824e-002
1.110797e+003, 4.305151e-002
1.112725e+003, 4.261530e-002
1.114654e+003, 4.218306e-002
1.116582e+003, 4.182614e-002
1.118511e+003, 4.152160e-002
1.120439e+003, 4.107787e-002
1.122368e+003, 4.067102e-002
1.124296e+003, 4.042134e-002
1.126224e+003, 4.005255e-002
1.128153e+003, 3.955421e-002
1.130081e+003, 3.907162e-002
1.132010e+003, 3.880612e-002
1.133938e+003, 3.850657e-002
1.135867e+003, 3.804117e-002
1.137795e+003, 3.790206e-002
1.139724e+003, 3.784183e-002
1.141652e+003, 3.758074e-002
1.143581e+003, 3.737497e-002
1.145509e+003, 3.708373e-002
1.147438e+003, 3.669665e-002
1.149366e+003, 3.665806e-002
1.151295e+003, 3.676592e-002
1.153223e+003, 3.651537e-002
1.155151e+003, 3.630174e-002
1.157080e+003, 3.637871e-002
1.159008e+003, 3.659968e-002
1.160937e+003, 3.699991e-002
1.162865e+003, 3.724339e-002
1.164794e+003, 3.738822e-002
1.166722e+003, 3.761164e-002
1.168651e+003, 3.761898e-002
1.170579e+003, 3.736341e-002
1.172508e+003, 3.726518e-002
1.174436e+003, 3.740309e-002
1.176365e+003, 3.749630e-002
1.178293e+003, 3.743476e-002
1.180222e+003, 3.734813e-002
1.182150e+003, 3.735889e-002
1.184078e+003, 3.743186e-002
1.186007e+003, 3.755466e-002
1.187935e+003, 3.750468e-002
1.189864e+003, 3.737503e-002
1.191792e+003, 3.735291e-002
1.193721e+003, 3.725506e-002
1.195649e+003, 3.710883e-002
1.197578e+003, 3.706815e-002
1.199506e+003, 3.717561e-002
1.201435e+003, 3.704422e-002
1.203363e+003, 3.684853e-002
1.205292e+003, 3.684580e-002
1.207220e+003, 3.682398e-002
1.209149e+003, 3.668446e-002
1.211077e+003, 3.640123e-002
1.213005e+003, 3.614448e-002
1.214934e+003, 3.602197e-002
1.216862e+003, 3.603494e-002
1.218791e+003, 3.607277e-002
1.220719e+003, 3.608685e-002
1.222648e+003, 3.601148e-002
1.224576e+003, 3.601757e-002
1.226505e+003, 3.622821e-002
1.228433e+003, 3.644683e-002
1.230362e+003, 3.664488e-002
1.232290e+003, 3.692166e-002
1.234219e+003, 3.702431e-002
1.236147e+003, 3.712579e-002
1.238076e+003, 3.731658e-002
1.240004e+003, 3.749221e-002
1.241932e+003, 3.775853e-002
1.243861e+003, 3.793975e-002
1.245789e+003, 3.801743e-002
1.247718e+003, 3.821614e-002
1.249646e+003, 3.845816e-002
1.251575e+003, 3.876935e-002
1.253503e+003, 3.906371e-002
1.255432e+003, 3.920224e-002
1.257360e+003, 3.941415e-002
1.259289e+003, 3.959122e-002
1.261217e+003, 3.973223e-002
1.263146e+003, 3.989861e-002
1.265074e+003, 4.018673e-002
1.267003e+003, 4.040948e-002
1.268931e+003, 4.055674e-002
1.270859e+003, 4.086486e-002
1.272788e+003, 4.120574e-002
1.274716e+003, 4.140575e-002
1.276645e+003, 4.155588e-002
1.278573e+003, 4.180910e-002
1.280502e+003, 4.218034e-002
1.282430e+003, 4.248591e-002
1.284359e+003, 4.275027e-002
1.286287e+003, 4.306350e-002
1.288216e+003, 4.322904e-002
1.290144e+003, 4.324804e-002
1.292073e+003, 4.356418e-002
1.294001e+003, 4.399483e-002
1.295930e+003, 4.420367e-002
1.297858e+003, 4.437426e-002
1.299786e+003, 4.468790e-002
1.301715e+003, 4.498903e-002
1.303643e+003, 4.527007e-002
1.305572e+003, 4.544741e-002
1.307500e+003, 4.586518e-002
1.309429e+003, 4.619366e-002
1.311357e+003, 4.643765e-002
1.313286e+003, 4.672528e-002
1.315214e+003, 4.706824e-002
1.317143e+003, 4.742845e-002
1.319071e+003, 4.767836e-002
1.321000e+003, 4.790050e-002
1.322928e+003, 4.812984e-002
1.324857e+003, 4.843457e-002
1.326785e+003, 4.875284e-002
1.328714e+003, 4.895984e-002
1.330642e+003, 4.918325e-002
1.332570e+003, 4.962219e-002
1.334499e+003, 4.999113e-002
1.336427e+003, 5.024422e-002
1.338356e+003, 5.049817e-002
1.340284e+003, 5.084866e-002
1.342213e+003, 5.110472e-002
1.344141e+003, 5.144527e-002
1.346070e+003, 5.181467e-002
1.347998e+003, 5.202368e-002
1.349927e+003, 5.234204e-002
1.351855e+003, 5.262373e-002
1.353784e+003, 5.295176e-002
1.355712e+003, 5.320644e-002
1.357641e+003, 5.334353e-002
1.359569e+003, 5.359468e-002
1.361497e+003, 5.387821e-002
1.363426e+003, 5.415899e-002
1.365354e+003, 5.438249e-002
1.367283e+003, 5.451944e-002
1.369211e+003, 5.478852e-002
1.371140e+003, 5.521451e-002
1.373068e+003, 5.556156e-002
1.374997e+003, 5.587139e-002
1.376925e+003, 5.613218e-002
1.378854e+003, 5.633336e-002
1.380782e+003, 5.659548e-002
1.382711e+003, 5.690260e-002
1.384639e+003, 5.709224e-002
1.386568e+003, 5.752473e-002
1.388496e+003, 5.794093e-002
1.390424e+003, 5.810377e-002
1.392353e+003, 5.827301e-002
1.394281e+003, 5.853449e-002
1.396210e+003, 5.873765e-002
1.398138e+003, 5.890040e-002
1.400067e+003, 5.921426e-002
1.401995e+003, 5.952983e-002
1.403924e+003, 5.986172e-002
1.405852e+003, 6.016367e-002
1.407781e+003, 6.028749e-002
1.409709e+003, 6.049798e-002
1.411638e+003, 6.076860e-002
1.413566e+003, 6.106002e-002
1.415495e+003, 6.134416e-002
1.417423e+003, 6.159553e-002
1.419351e+003, 6.190033e-002
1.421280e+003, 6.202733e-002
1.423208e+003, 6.226753e-002
1.425137e+003, 6.258874e-002
1.427065e+003, 6.277934e-002
1.428994e+003, 6.303301e-002
1.430922e+003, 6.337864e-002
1.432851e+003, 6.359435e-002
1.434779e+003, 6.397419e-002
1.436708e+003, 6.436262e-002
1.438636e+003, 6.433303e-002
1.440565e+003, 6.436763e-002
1.442493e+003, 6.460819e-002
1.444422e+003, 6.490954e-002
1.446350e+003, 6.518713e-002
1.448278e+003, 6.544975e-002
1.450207e+003, 6.575108e-002
1.452135e+003, 6.621580e-002
1.454064e+003, 6.658554e-002
1.455992e+003, 6.710742e-002
1.457921e+003, 6.729574e-002
1.459849e+003, 6.709756e-002
1.461778e+003, 6.716175e-002
1.463706e+003, 6.748810e-002
1.465635e+003, 6.777906e-002
1.467563e+003, 6.785456e-002
1.469492e+003, 6.799642e-002
1.471420e+003, 6.827518e-002
1.473349e+003, 6.859487e-002
1.475277e+003, 6.873243e-002
1.477205e+003, 6.875417e-002
1.479134e+003, 6.874613e-002
1.481062e+003, 6.892549e-002
1.482991e+003, 6.906545e-002
1.484919e+003, 6.927391e-002
1.486848e+003, 6.960850e-002
1.488776e+003, 7.002161e-002
1.490705e+003, 7.028214e-002
1.492633e+003, 7.041358e-002
1.494562e+003, 7.070000e-002
1.496490e+003, 7.113225e-002
1.498419e+003, 7.131049e-002
1.500347e+003, 7.149014e-002
1.502276e+003, 7.174531e-002
1.504204e+003, 7.225434e-002
1.506132e+003, 7.302664e-002
1.508061e+003, 7.321262e-002
1.509989e+003, 7.310027e-002
1.511918e+003, 7.332401e-002
1.513846e+003, 7.358526e-002
1.515775e+003, 7.393019e-002
1.517703e+003, 7.433018e-002
1.519632e+003, 7.482458e-002
1.521560e+003, 7.519589e-002
1.523489e+003, 7.513413e-002
1.525417e+003, 7.545769e-002
1.527346e+003, 7.585770e-002
1.529274e+003, 7.603739e-002
1.531203e+003, 7.637186e-002
1.533131e+003, 7.683156e-002
1.535059e+003, 7.699313e-002
1.536988e+003, 7.747860e-002
1.538916e+003, 7.842624e-002
1.540845e+003, 7.875880e-002
1.542773e+003, 7.878073e-002
1.544702e+003, 7.905319e-002
1.546630e+003, 7.925608e-002
1.548559e+003, 7.938666e-002
1.550487e+003, 7.971350e-002
1.552416e+003, 8.017956e-002
1.554344e+003, 8.068497e-002
1.556273e+003, 8.124980e-002
1.558201e+003, 8.220511e-002
1.560130e+003, 8.251537e-002
1.562058e+003, 8.221207e-002
1.563986e+003, 8.237125e-002
1.565915e+003, 8.271688e-002
1.567843e+003, 8.309196e-002
1.569772e+003, 8.356835e-002
1.571700e+003, 8.389323e-002
1.573629e+003, 8.426426e-002
1.575557e+003, 8.488308e-002
1.577486e+003, 8.499166e-002
1.579414e+003, 8.499609e-002
1.581343e+003, 8.531134e-002
1.583271e+003, 8.545594e-002
1.585200e+003, 8.571176e-002
1.587128e+003, 8.587798e-002
1.589057e+003, 8.617469e-002
1.590985e+003, 8.659285e-002
1.592913e+003, 8.676248e-002
1.594842e+003, 8.694696e-002
1.596770e+003, 8.721749e-002
1.598699e+003, 8.737798e-002
1.600627e+003, 8.764772e-002
1.602556e+003, 8.787645e-002
1.604484e+003, 8.802328e-002
1.606413e+003, 8.824443e-002
1.608341e+003, 8.838618e-002
1.610270e+003, 8.853606e-002
1.612198e+003, 8.869818e-002
1.614127e+003, 8.911327e-002
1.616055e+003, 8.963704e-002
1.617984e+003, 8.947373e-002
1.619912e+003, 8.921225e-002
1.621840e+003, 8.952620e-002
1.623769e+003, 8.979426e-002
1.625697e+003, 8.996473e-002
1.627626e+003, 9.006353e-002
1.629554e+003, 8.992404e-002
1.631483e+003, 9.002543e-002
1.633411e+003, 9.041730e-002
1.635340e+003, 9.080885e-002
1.637268e+003, 9.081631e-002
1.639197e+003, 9.065475e-002
1.641125e+003, 9.065104e-002
1.643054e+003, 9.079868e-002
1.644982e+003, 9.131980e-002
1.646911e+003, 9.144107e-002
1.648839e+003, 9.128582e-002
1.650767e+003, 9.178109e-002
1.652696e+003, 9.238896e-002
1.654624e+003, 9.187391e-002
1.656553e+003, 9.146272e-002
1.658481e+003, 9.153663e-002
1.660410e+003, 9.174421e-002
1.662338e+003, 9.199640e-002
1.664267e+003, 9.194943e-002
1.666195e+003, 9.201548e-002
1.668124e+003, 9.230144e-002
1.670052e+003, 9.241531e-002
1.671981e+003, 9.236781e-002
1.673909e+003, 9.260040e-002
1.675838e+003, 9.276662e-002
1.677766e+003, 9.277190e-002
1.679694e+003, 9.293012e-002
1.681623e+003, 9.321125e-002
1.683551e+003, 9.389987e-002
1.685480e+003, 9.401194e-002
1.687408e+003, 9.363759e-002
1.689337e+003, 9.367438e-002
1.691265e+003, 9.368964e-002
1.693194e+003, 9.380552e-002
1.695122e+003, 9.447230e-002
1.697051e+003, 9.474665e-002
1.698979e+003, 9.501258e-002
1.700908e+003, 9.512010e-002
1.702836e+003, 9.457941e-002
1.704765e+003, 9.467503e-002
1.706693e+003, 9.477455e-002
1.708621e+003, 9.485475e-002
1.710550e+003, 9.482883e-002
1.712478e+003, 9.507100e-002
1.714407e+003, 9.559008e-002
1.716335e+003, 9.608210e-002
1.718264e+003, 9.615968e-002
1.720192e+003, 9.600792e-002
1.722121e+003, 9.599488e-002
1.724049e+003, 9.600913e-002
1.725978e+003, 9.606912e-002
1.727906e+003, 9.629922e-002
1.729835e+003, 9.661551e-002
1.731763e+003, 9.701940e-002
1.733692e+003, 9.740322e-002
1.735620e+003, 9.727140e-002
1.737548e+003, 9.695389e-002
1.739477e+003, 9.699715e-002
1.741405e+003, 9.682257e-002
1.743334e+003, 9.671947e-002
1.745262e+003, 9.678953e-002
1.747191e+003, 9.689569e-002
1.749119e+003, 9.709286e-002
1.751048e+003, 9.737800e-002
1.752976e+003, 9.738478e-002
1.754905e+003, 9.753354e-002
1.756833e+003, 9.785385e-002
1.758762e+003, 9.793153e-002
1.760690e+003, 9.817574e-002
1.762619e+003, 9.844086e-002
1.764547e+003, 9.851319e-002
1.766475e+003, 9.859609e-002
1.768404e+003, 9.890951e-002
1.770332e+003, 9.933770e-002
1.772261e+003, 9.983177e-002
1.774189e+003, 9.992018e-002
1.776118e+003, 9.972455e-002
1.778046e+003, 9.992280e-002
1.779975e+003, 1.003060e-001
1.781903e+003, 1.005010e-001
1.783832e+003, 1.007459e-001
1.785760e+003, 1.010780e-001
1.787689e+003, 1.011304e-001
1.789617e+003, 1.012155e-001
1.791546e+003, 1.014561e-001
1.793474e+003, 1.015125e-001
1.795402e+003, 1.015812e-001
1.797331e+003, 1.019554e-001
1.799259e+003, 1.023133e-001
1.801188e+003, 1.023951e-001
1.803116e+003, 1.023947e-001
1.805045e+003, 1.025070e-001
1.806973e+003, 1.025818e-001
1.808902e+003, 1.027486e-001
1.810830e+003, 1.030885e-001
1.812759e+003, 1.035062e-001
1.814687e+003, 1.035289e-001
1.816616e+003, 1.036397e-001
1.818544e+003, 1.041152e-001
1.820473e+003, 1.044018e-001
1.822401e+003, 1.045079e-001
1.824329e+003, 1.048059e-001
1.826258e+003, 1.049809e-001
1.828186e+003, 1.049988e-001
1.830115e+003, 1.051446e-001
1.832043e+003, 1.055414e-001
1.833972e+003, 1.055578e-001
1.835900e+003, 1.053827e-001
1.837829e+003, 1.057448e-001
1.839757e+003, 1.061156e-001
1.841686e+003, 1.064294e-001
1.843614e+003, 1.066035e-001
1.845543e+003, 1.067539e-001
1.847471e+003, 1.071761e-001
1.849400e+003, 1.072920e-001
1.851328e+003, 1.073513e-001
1.853256e+003, 1.076197e-001
1.855185e+003, 1.075848e-001
1.857113e+003, 1.077334e-001
1.859042e+003, 1.081686e-001
1.860970e+003, 1.085010e-001
1.862899e+003, 1.085713e-001
1.864827e+003, 1.087916e-001
1.866756e+003, 1.091455e-001
1.868684e+003, 1.096392e-001
1.870613e+003, 1.098583e-001
1.872541e+003, 1.098036e-001
1.874470e+003, 1.096667e-001
1.876398e+003, 1.098763e-001
1.878327e+003, 1.102360e-001
1.880255e+003, 1.102415e-001
1.882183e+003, 1.103376e-001
1.884112e+003, 1.105514e-001
1.886040e+003, 1.112985e-001
1.887969e+003, 1.117999e-001
1.889897e+003, 1.117889e-001
1.891826e+003, 1.115227e-001
1.893754e+003, 1.113828e-001
1.895683e+003, 1.118101e-001
1.897611e+003, 1.123865e-001
1.899540e+003, 1.122336e-001
1.901468e+003, 1.121555e-001
1.903397e+003, 1.123683e-001
1.905325e+003, 1.127806e-001
1.907254e+003, 1.130231e-001
1.909182e+003, 1.131187e-001
1.911110e+003, 1.126627e-001
1.913039e+003, 1.131783e-001
1.914967e+003, 1.136552e-001
1.916896e+003, 1.138835e-001
1.918824e+003, 1.142184e-001
1.920753e+003, 1.143592e-001
1.922681e+003, 1.138621e-001
1.924610e+003, 1.135552e-001
1.926538e+003, 1.140242e-001
1.928467e+003, 1.143296e-001
1.930395e+003, 1.146016e-001
1.932324e+003, 1.150383e-001
1.934252e+003, 1.154587e-001
1.936181e+003, 1.159420e-001
1.938109e+003, 1.162329e-001
1.940037e+003, 1.158527e-001
1.941966e+003, 1.159780e-001
1.943894e+003, 1.164348e-001
1.945823e+003, 1.166438e-001
1.947751e+003, 1.163699e-001
1.949680e+003, 1.155793e-001
1.951608e+003, 1.153100e-001
1.953537e+003, 1.155275e-001
1.955465e+003, 1.157360e-001
1.957394e+003, 1.161111e-001
1.959322e+003, 1.169401e-001
1.961251e+003, 1.177629e-001
1.963179e+003, 1.183494e-001
1.965108e+003, 1.183378e-001
1.967036e+003, 1.180959e-001
1.968964e+003, 1.174928e-001
1.970893e+003, 1.176256e-001
1.972821e+003, 1.190410e-001
1.974750e+003, 1.194640e-001
1.976678e+003, 1.188628e-001
1.978607e+003, 1.203199e-001
1.980535e+003, 1.223168e-001
1.982464e+003, 1.210804e-001
1.984392e+003, 1.198714e-001
1.986321e+003, 1.206806e-001
1.988249e+003, 1.205228e-001
1.990178e+003, 1.198462e-001
1.992106e+003, 1.200621e-001
1.994035e+003, 1.203527e-001
1.995963e+003, 1.209390e-001
1.997891e+003, 1.212820e-001
1.999820e+003, 1.211015e-001
2.001748e+003, 1.211215e-001
2.003677e+003, 1.208853e-001
2.005605e+003, 1.205341e-001
2.007534e+003, 1.211990e-001
2.009462e+003, 1.210619e-001
2.011391e+003, 1.203703e-001
2.013319e+003, 1.211601e-001
2.015248e+003, 1.220272e-001
2.017176e+003, 1.225999e-001
2.019105e+003, 1.238201e-001
2.021033e+003, 1.236206e-001
2.022962e+003, 1.234791e-001
2.024890e+003, 1.232281e-001
2.026818e+003, 1.234922e-001
2.028747e+003, 1.237629e-001
2.030675e+003, 1.226904e-001
2.032604e+003, 1.220043e-001
2.034532e+003, 1.234552e-001
2.036461e+003, 1.244847e-001
2.038389e+003, 1.244122e-001
2.040318e+003, 1.243603e-001
2.042246e+003, 1.250163e-001
2.044175e+003, 1.249901e-001
2.046103e+003, 1.243661e-001
2.048031e+003, 1.248142e-001
2.049960e+003, 1.260365e-001
2.051888e+003, 1.251172e-001
2.053817e+003, 1.240168e-001
2.055745e+003, 1.241888e-001
2.057674e+003, 1.242205e-001
2.059602e+003, 1.241745e-001
2.061531e+003, 1.243173e-001
2.063459e+003, 1.242032e-001
2.065388e+003, 1.244220e-001
2.067316e+003, 1.254951e-001
2.069245e+003, 1.257812e-001
2.071173e+003, 1.256153e-001
2.073102e+003, 1.254259e-001
2.075030e+003, 1.255427e-001
2.076958e+003, 1.261183e-001
2.078887e+003, 1.265449e-001
2.080815e+003, 1.263798e-001
2.082744e+003, 1.260926e-001
2.084672e+003, 1.265464e-001
2.086601e+003, 1.269272e-001
2.088529e+003, 1.270505e-001
2.090458e+003, 1.267315e-001
2.092386e+003, 1.263276e-001
2.094315e+003, 1.265663e-001
2.096243e+003, 1.270454e-001
2.098172e+003, 1.269672e-001
2.100100e+003, 1.268786e-001
2.102029e+003, 1.274589e-001
2.103957e+003, 1.280570e-001
2.105885e+003, 1.285400e-001
2.107814e+003, 1.287360e-001
2.109742e+003, 1.288459e-001
2.111671e+003, 1.289719e-001
2.113599e+003, 1.292189e-001
2.115528e+003, 1.290690e-001
2.117456e+003, 1.285967e-001
2.119385e+003, 1.285454e-001
2.121313e+003, 1.289201e-001
2.123242e+003, 1.286128e-001
2.125170e+003, 1.284938e-001
2.127099e+003, 1.287035e-001
2.129027e+003, 1.285844e-001
2.130956e+003, 1.284653e-001
2.132884e+003, 1.286007e-001
2.134813e+003, 1.282486e-001
2.136741e+003, 1.294323e-001
2.138669e+003, 1.303494e-001
2.140598e+003, 1.295775e-001
2.142526e+003, 1.293125e-001
2.144455e+003, 1.293268e-001
2.146383e+003, 1.297397e-001
2.148312e+003, 1.304177e-001
2.150240e+003, 1.297673e-001
2.152169e+003, 1.295121e-001
2.154097e+003, 1.293679e-001
2.156026e+003, 1.287540e-001
2.157954e+003, 1.307604e-001
2.159883e+003, 1.341112e-001
2.161811e+003, 1.354576e-001
2.163740e+003, 1.349315e-001
2.165668e+003, 1.338938e-001
2.167596e+003, 1.338815e-001
2.169525e+003, 1.342282e-001
2.171453e+003, 1.345127e-001
2.173382e+003, 1.334854e-001
2.175310e+003, 1.342584e-001
2.177239e+003, 1.356698e-001
2.179167e+003, 1.343308e-001
2.181096e+003, 1.337341e-001
2.183024e+003, 1.346558e-001
2.184953e+003, 1.352056e-001
2.186881e+003, 1.353839e-001
2.188810e+003, 1.346615e-001
2.190738e+003, 1.352959e-001
2.192667e+003, 1.366696e-001
2.194595e+003, 1.369433e-001
2.196523e+003, 1.365733e-001
2.198452e+003, 1.362679e-001
2.200380e+003, 1.360849e-001
2.202309e+003, 1.359067e-001
2.204237e+003, 1.362417e-001
2.206166e+003, 1.366833e-001
2.208094e+003, 1.368128e-001
2.210023e+003, 1.367062e-001
2.211951e+003, 1.366557e-001
2.213880e+003, 1.371778e-001
2.215808e+003, 1.379217e-001
2.217737e+003, 1.381697e-001
2.219665e+003, 1.378973e-001
2.221594e+003, 1.380310e-001
2.223522e+003, 1.381183e-001
2.225450e+003, 1.378344e-001
2.227379e+003, 1.379228e-001
2.229307e+003, 1.385442e-001
2.231236e+003, 1.386089e-001
2.233164e+003, 1.387518e-001
2.235093e+003, 1.388678e-001
2.237021e+003, 1.389812e-001
2.238950e+003, 1.389838e-001
2.240878e+003, 1.395848e-001
2.242807e+003, 1.396380e-001
2.244735e+003, 1.397481e-001
2.246664e+003, 1.400854e-001
2.248592e+003, 1.396305e-001
2.250521e+003, 1.397668e-001
2.252449e+003, 1.397456e-001
2.254377e+003, 1.396527e-001
2.256306e+003, 1.400205e-001
2.258234e+003, 1.404327e-001
2.260163e+003, 1.404674e-001
2.262091e+003, 1.404403e-001
2.264020e+003, 1.403227e-001
2.265948e+003, 1.404661e-001
2.267877e+003, 1.407657e-001
2.269805e+003, 1.406781e-001
2.271734e+003, 1.404902e-001
2.273662e+003, 1.408163e-001
2.275591e+003, 1.415357e-001
2.277519e+003, 1.415573e-001
2.279448e+003, 1.416103e-001
2.281376e+003, 1.421756e-001
2.283304e+003, 1.424039e-001
2.285233e+003, 1.424827e-001
2.287161e+003, 1.420630e-001
2.289090e+003, 1.418949e-001
2.291018e+003, 1.420198e-001
2.292947e+003, 1.421048e-001
2.294875e+003, 1.424675e-001
2.296804e+003, 1.423950e-001
2.298732e+003, 1.424184e-001
2.300661e+003, 1.425436e-001
2.302589e+003, 1.423239e-001
2.304518e+003, 1.424556e-001
2.306446e+003, 1.428055e-001
2.308375e+003, 1.431509e-001
2.310303e+003, 1.432720e-001
2.312231e+003, 1.432008e-001
2.314160e+003, 1.430874e-001
2.316088e+003, 1.434255e-001
2.318017e+003, 1.441881e-001
2.319945e+003, 1.446471e-001
2.321874e+003, 1.452777e-001
2.323802e+003, 1.457657e-001
2.325731e+003, 1.450530e-001
2.327659e+003, 1.442852e-001
2.329588e+003, 1.444669e-001
2.331516e+003, 1.448154e-001
2.333445e+003, 1.447230e-001
2.335373e+003, 1.447933e-001
2.337302e+003, 1.452474e-001
2.339230e+003, 1.454436e-001
2.341158e+003, 1.455191e-001
2.343087e+003, 1.455632e-001
2.345015e+003, 1.450339e-001
2.346944e+003, 1.445174e-001
2.348872e+003, 1.447507e-001
2.350801e+003, 1.452518e-001
2.352729e+003, 1.454269e-001
2.354658e+003, 1.458050e-001
2.356586e+003, 1.461233e-001
2.358515e+003, 1.464877e-001
2.360443e+003, 1.468694e-001
2.362372e+003, 1.468667e-001
2.364300e+003, 1.470736e-001
2.366229e+003, 1.470317e-001
2.368157e+003, 1.465451e-001
2.370085e+003, 1.464603e-001
2.372014e+003, 1.463573e-001
2.373942e+003, 1.456435e-001
2.375871e+003, 1.454341e-001
2.377799e+003, 1.454867e-001
2.379728e+003, 1.453418e-001
2.381656e+003, 1.453775e-001
2.383585e+003, 1.457721e-001
2.385513e+003, 1.459788e-001
2.387442e+003, 1.463474e-001
2.389370e+003, 1.464876e-001
2.391299e+003, 1.461401e-001
2.393227e+003, 1.459510e-001
2.395156e+003, 1.459411e-001
2.397084e+003, 1.461623e-001
2.399012e+003, 1.467214e-001
2.400941e+003, 1.468620e-001
2.402869e+003, 1.468649e-001
2.404798e+003, 1.471313e-001
2.406726e+003, 1.477127e-001
2.408655e+003, 1.481870e-001
2.410583e+003, 1.478550e-001
2.412512e+003, 1.474601e-001
2.414440e+003, 1.473814e-001
2.416369e+003, 1.473511e-001
2.418297e+003, 1.476907e-001
2.420226e+003, 1.482866e-001
2.422154e+003, 1.485951e-001
2.424083e+003, 1.485583e-001
2.426011e+003, 1.484811e-001
2.427939e+003, 1.489240e-001
2.429868e+003, 1.491731e-001
2.431796e+003, 1.494160e-001
2.433725e+003, 1.496257e-001
2.435653e+003, 1.492763e-001
2.437582e+003, 1.490045e-001
2.439510e+003, 1.496463e-001
2.441439e+003, 1.502436e-001
2.443367e+003, 1.503069e-001
2.445296e+003, 1.502305e-001
2.447224e+003, 1.501670e-001
2.449153e+003, 1.502186e-001
2.451081e+003, 1.503498e-001
2.453010e+003, 1.504184e-001
2.454938e+003, 1.502832e-001
2.456866e+003, 1.508450e-001
2.458795e+003, 1.510879e-001
2.460723e+003, 1.510781e-001
2.462652e+003, 1.513612e-001
2.464580e+003, 1.513602e-001
2.466509e+003, 1.512390e-001
2.468437e+003, 1.508945e-001
2.470366e+003, 1.513023e-001
2.472294e+003, 1.516351e-001
2.474223e+003, 1.517580e-001
2.476151e+003, 1.519384e-001
2.478080e+003, 1.519642e-001
2.480008e+003, 1.522482e-001
2.481937e+003, 1.523836e-001
2.483865e+003, 1.517098e-001
2.485793e+003, 1.516427e-001
2.487722e+003, 1.521005e-001
2.489650e+003, 1.523900e-001
2.491579e+003, 1.528622e-001
2.493507e+003, 1.531060e-001
2.495436e+003, 1.531195e-001
2.497364e+003, 1.531609e-001
2.499293e+003, 1.529206e-001
2.501221e+003, 1.527999e-001
2.503150e+003, 1.536641e-001
2.505078e+003, 1.537764e-001
2.507007e+003, 1.535540e-001
2.508935e+003, 1.538086e-001
2.510864e+003, 1.538419e-001
2.512792e+003, 1.535859e-001
2.514720e+003, 1.540523e-001
2.516649e+003, 1.542919e-001
2.518577e+003, 1.543105e-001
2.520506e+003, 1.549072e-001
2.522434e+003, 1.554275e-001
2.524363e+003, 1.550170e-001
2.526291e+003, 1.547231e-001
2.528220e+003, 1.546135e-001
2.530148e+003, 1.546510e-001
2.532077e+003, 1.550516e-001
2.534005e+003, 1.553369e-001
2.535934e+003, 1.557850e-001
2.537862e+003, 1.561763e-001
2.539791e+003, 1.563735e-001
2.541719e+003, 1.563056e-001
2.543647e+003, 1.561096e-001
2.545576e+003, 1.565617e-001
2.547504e+003, 1.566634e-001
2.549433e+003, 1.564851e-001
2.551361e+003, 1.562088e-001
2.553290e+003, 1.565636e-001
2.555218e+003, 1.569804e-001
2.557147e+003, 1.572852e-001
2.559075e+003, 1.570772e-001
2.561004e+003, 1.568325e-001
2.562932e+003, 1.570591e-001
2.564861e+003, 1.574773e-001
2.566789e+003, 1.572885e-001
2.568718e+003, 1.572013e-001
2.570646e+003, 1.577321e-001
2.572574e+003, 1.580822e-001
2.574503e+003, 1.580149e-001
2.576431e+003, 1.584374e-001
2.578360e+003, 1.588014e-001
2.580288e+003, 1.587344e-001
2.582217e+003, 1.586292e-001
2.584145e+003, 1.588023e-001
2.586074e+003, 1.589007e-001
2.588002e+003, 1.590687e-001
2.589931e+003, 1.590582e-001
2.591859e+003, 1.590636e-001
2.593788e+003, 1.592541e-001
2.595716e+003, 1.591610e-001
2.597645e+003, 1.589185e-001
2.599573e+003, 1.589970e-001
2.601501e+003, 1.592348e-001
2.603430e+003, 1.598418e-001
2.605358e+003, 1.599961e-001
2.607287e+003, 1.594638e-001
2.609215e+003, 1.593032e-001
2.611144e+003, 1.601083e-001
2.613072e+003, 1.604021e-001
2.615001e+003, 1.600697e-001
2.616929e+003, 1.600177e-001
2.618858e+003, 1.600751e-001
2.620786e+003, 1.601486e-001
2.622715e+003, 1.602385e-001
2.624643e+003, 1.604418e-001
2.626572e+003, 1.606579e-001
2.628500e+003, 1.606830e-001
2.630428e+003, 1.608402e-001
2.632357e+003, 1.607746e-001
2.634285e+003, 1.606663e-001
2.636214e+003, 1.606699e-001
2.638142e+003, 1.608316e-001
2.640071e+003, 1.610717e-001
2.641999e+003, 1.617193e-001
2.643928e+003, 1.620050e-001
2.645856e+003, 1.615177e-001
2.647785e+003, 1.610493e-001
2.649713e+003, 1.612895e-001
2.651642e+003, 1.615793e-001
2.653570e+003, 1.616622e-001
2.655499e+003, 1.617416e-001
2.657427e+003, 1.617213e-001
2.659355e+003, 1.615643e-001
2.661284e+003, 1.613929e-001
2.663212e+003, 1.615787e-001
2.665141e+003, 1.616349e-001
2.667069e+003, 1.614777e-001
2.668998e+003, 1.616646e-001
2.670926e+003, 1.618111e-001
2.672855e+003, 1.618771e-001
2.674783e+003, 1.618735e-001
2.676712e+003, 1.619788e-001
2.678640e+003, 1.622840e-001
2.680569e+003, 1.626018e-001
2.682497e+003, 1.625939e-001
2.684426e+003, 1.624437e-001
2.686354e+003, 1.624922e-001
2.688282e+003, 1.626731e-001
2.690211e+003, 1.628101e-001
2.692139e+003, 1.628670e-001
2.694068e+003, 1.627907e-001
2.695996e+003, 1.629122e-001
2.697925e+003, 1.632183e-001
2.699853e+003, 1.633671e-001
2.701782e+003, 1.633033e-001
2.703710e+003, 1.633641e-001
2.705639e+003, 1.634739e-001
2.707567e+003, 1.634386e-001
2.709496e+003, 1.635214e-001
2.711424e+003, 1.639674e-001
2.713353e+003, 1.641596e-001
2.715281e+003, 1.644636e-001
2.717209e+003, 1.645344e-001
2.719138e+003, 1.644820e-001
2.721066e+003, 1.642060e-001
2.722995e+003, 1.642745e-001
2.724923e+003, 1.643661e-001
2.726852e+003, 1.643760e-001
2.728780e+003, 1.646723e-001
2.730709e+003, 1.649164e-001
2.732637e+003, 1.652490e-001
2.734566e+003, 1.653969e-001
2.736494e+003, 1.653047e-001
2.738423e+003, 1.654052e-001
2.740351e+003, 1.654930e-001
2.742280e+003, 1.658439e-001
2.744208e+003, 1.657126e-001
2.746136e+003, 1.657784e-001
2.748065e+003, 1.660474e-001
2.749993e+003, 1.662452e-001
2.751922e+003, 1.662194e-001
2.753850e+003, 1.659802e-001
2.755779e+003, 1.659341e-001
2.757707e+003, 1.662821e-001
2.759636e+003, 1.663813e-001
2.761564e+003, 1.665625e-001
2.763493e+003, 1.670638e-001
2.765421e+003, 1.671894e-001
2.767350e+003, 1.669545e-001
2.769278e+003, 1.669651e-001
2.771207e+003, 1.671370e-001
2.773135e+003, 1.673517e-001
2.775063e+003, 1.673315e-001
2.776992e+003, 1.673207e-001
2.778920e+003, 1.675275e-001
2.780849e+003, 1.676610e-001
2.782777e+003, 1.678936e-001
2.784706e+003, 1.679624e-001
2.786634e+003, 1.679692e-001
2.788563e+003, 1.682642e-001
2.790491e+003, 1.688163e-001
2.792420e+003, 1.689133e-001
2.794348e+003, 1.687996e-001
2.796277e+003, 1.688872e-001
2.798205e+003, 1.688247e-001
2.800134e+003, 1.688106e-001
2.802062e+003, 1.688783e-001
2.803990e+003, 1.689008e-001
2.805919e+003, 1.692845e-001
2.807847e+003, 1.695392e-001
2.809776e+003, 1.695580e-001
2.811704e+003, 1.697432e-001
2.813633e+003, 1.700749e-001
2.815561e+003, 1.704856e-001
2.817490e+003, 1.704508e-001
2.819418e+003, 1.700055e-001
2.821347e+003, 1.699544e-001
2.823275e+003, 1.700885e-001
2.825204e+003, 1.701344e-001
2.827132e+003, 1.703537e-001
2.829061e+003, 1.705613e-001
2.830989e+003, 1.707117e-001
2.832917e+003, 1.711326e-001
2.834846e+003, 1.713353e-001
2.836774e+003, 1.713624e-001
2.838703e+003, 1.715546e-001
2.840631e+003, 1.717545e-001
2.842560e+003, 1.721511e-001
2.844488e+003, 1.721679e-001
2.846417e+003, 1.720524e-001
2.848345e+003, 1.720592e-001
2.850274e+003, 1.722338e-001
2.852202e+003, 1.726827e-001
2.854131e+003, 1.726087e-001
2.856059e+003, 1.727698e-001
2.857988e+003, 1.728471e-001
2.859916e+003, 1.727927e-001
2.861844e+003, 1.726357e-001
2.863773e+003, 1.727017e-001
2.865701e+003, 1.729783e-001
2.867630e+003, 1.733160e-001
2.869558e+003, 1.734627e-001
2.871487e+003, 1.732689e-001
2.873415e+003, 1.732401e-001
2.875344e+003, 1.734976e-001
2.877272e+003, 1.738878e-001
2.879201e+003, 1.741270e-001
2.881129e+003, 1.740347e-001
2.883058e+003, 1.735895e-001
2.884986e+003, 1.734069e-001
2.886915e+003, 1.738966e-001
2.888843e+003, 1.743345e-001
2.890771e+003, 1.747020e-001
2.892700e+003, 1.751130e-001
2.894628e+003, 1.751086e-001
2.896557e+003, 1.747334e-001
2.898485e+003, 1.744351e-001
2.900414e+003, 1.748956e-001
2.902342e+003, 1.752519e-001
2.904271e+003, 1.754516e-001
2.906199e+003, 1.756580e-001
2.908128e+003, 1.758115e-001
2.910056e+003, 1.758447e-001
2.911985e+003, 1.757103e-001
2.913913e+003, 1.759023e-001
2.915842e+003, 1.762982e-001
2.917770e+003, 1.766322e-001
2.919698e+003, 1.768065e-001
2.921627e+003, 1.767330e-001
2.923555e+003, 1.767068e-001
2.925484e+003, 1.765929e-001
2.927412e+003, 1.765109e-001
2.929341e+003, 1.769143e-001
2.931269e+003, 1.772014e-001
2.933198e+003, 1.775194e-001
2.935126e+003, 1.774765e-001
2.937055e+003, 1.770779e-001
2.938983e+003, 1.768629e-001
2.940912e+003, 1.768485e-001
2.942840e+003, 1.769968e-001
2.944769e+003, 1.772432e-001
2.946697e+003, 1.774516e-001
2.948625e+003, 1.771373e-001
2.950554e+003, 1.771008e-001
2.952482e+003, 1.778701e-001
2.954411e+003, 1.781829e-001
2.956339e+003, 1.780834e-001
2.958268e+003, 1.785898e-001
2.960196e+003, 1.791216e-001
2.962125e+003, 1.790978e-001
2.964053e+003, 1.790872e-001
2.965982e+003, 1.786438e-001
2.967910e+003, 1.779098e-001
2.969839e+003, 1.776351e-001
2.971767e+003, 1.777587e-001
2.973696e+003, 1.775215e-001
2.975624e+003, 1.772361e-001
2.977552e+003, 1.773299e-001
2.979481e+003, 1.773042e-001
2.981409e+003, 1.772406e-001
2.983338e+003, 1.773917e-001
2.985266e+003, 1.774540e-001
2.987195e+003, 1.772941e-001
2.989123e+003, 1.776752e-001
2.991052e+003, 1.779461e-001
2.992980e+003, 1.776014e-001
2.994909e+003, 1.779215e-001
2.996837e+003, 1.782717e-001
2.998766e+003, 1.782448e-001
3.000694e+003, 1.781133e-001
3.002623e+003, 1.781273e-001
3.004551e+003, 1.784323e-001
3.006479e+003, 1.785783e-001
3.008408e+003, 1.785749e-001
3.010336e+003, 1.785571e-001
3.012265e+003, 1.783477e-001
3.014193e+003, 1.781960e-001
3.016122e+003, 1.782020e-001
3.018050e+003, 1.784219e-001
3.019979e+003, 1.789134e-001
3.021907e+003, 1.790925e-001
3.023836e+003, 1.790176e-001
3.025764e+003, 1.791875e-001
3.027693e+003, 1.793469e-001
3.029621e+003, 1.794716e-001
3.031550e+003, 1.799242e-001
3.033478e+003, 1.801611e-001
3.035406e+003, 1.802512e-001
3.037335e+003, 1.803887e-001
3.039263e+003, 1.804048e-001
3.041192e+003, 1.802076e-001
3.043120e+003, 1.801102e-001
3.045049e+003, 1.802816e-001
3.046977e+003, 1.804031e-001
3.048906e+003, 1.805819e-001
3.050834e+003, 1.810680e-001
3.052763e+003, 1.811460e-001
3.054691e+003, 1.809507e-001
3.056620e+003, 1.810316e-001
3.058548e+003, 1.813840e-001
3.060477e+003, 1.814830e-001
3.062405e+003, 1.813838e-001
3.064333e+003, 1.817030e-001
3.066262e+003, 1.815882e-001
3.068190e+003, 1.814197e-001
3.070119e+003, 1.818012e-001
3.072047e+003, 1.822492e-001
3.073976e+003, 1.820589e-001
3.075904e+003, 1.814116e-001
3.077833e+003, 1.816266e-001
3.079761e+003, 1.823880e-001
3.081690e+003, 1.826535e-001
3.083618e+003, 1.823125e-001
3.085547e+003, 1.822591e-001
3.087475e+003, 1.825404e-001
3.089404e+003, 1.825506e-001
3.091332e+003, 1.828264e-001
3.093260e+003, 1.828494e-001
3.095189e+003, 1.829711e-001
3.097117e+003, 1.832492e-001
3.099046e+003, 1.836153e-001
3.100974e+003, 1.839156e-001
3.102903e+003, 1.839360e-001
3.104831e+003, 1.837413e-001
3.106760e+003, 1.837889e-001
3.108688e+003, 1.841832e-001
3.110617e+003, 1.845223e-001
3.112545e+003, 1.839604e-001
3.114474e+003, 1.833447e-001
3.116402e+003, 1.835712e-001
3.118331e+003, 1.840624e-001
3.120259e+003, 1.844115e-001
3.122188e+003, 1.843838e-001
3.124116e+003, 1.841594e-001
3.126044e+003, 1.842563e-001
3.127973e+003, 1.843711e-001
3.129901e+003, 1.846434e-001
3.131830e+003, 1.847781e-001
3.133758e+003, 1.849396e-001
3.135687e+003, 1.853471e-001
3.137615e+003, 1.853076e-001
3.139544e+003, 1.852834e-001
3.141472e+003, 1.854279e-001
3.143401e+003, 1.857234e-001
3.145329e+003, 1.860385e-001
3.147258e+003, 1.860692e-001
3.149186e+003, 1.858320e-001
3.151115e+003, 1.854237e-001
3.153043e+003, 1.854697e-001
3.154971e+003, 1.860847e-001
3.156900e+003, 1.861987e-001
3.158828e+003, 1.857607e-001
3.160757e+003, 1.855870e-001
3.162685e+003, 1.863168e-001
3.164614e+003, 1.868626e-001
3.166542e+003, 1.869434e-001
3.168471e+003, 1.869574e-001
3.170399e+003, 1.867040e-001
3.172328e+003, 1.868698e-001
3.174256e+003, 1.866762e-001
3.176185e+003, 1.866993e-001
3.178113e+003, 1.871551e-001
3.180042e+003, 1.873651e-001
3.181970e+003, 1.875569e-001
3.183898e+003, 1.873350e-001
3.185827e+003, 1.871576e-001
3.187755e+003, 1.872280e-001
3.189684e+003, 1.872248e-001
3.191612e+003, 1.872156e-001
3.193541e+003, 1.882052e-001
3.195469e+003, 1.884155e-001
3.197398e+003, 1.879190e-001
3.199326e+003, 1.877408e-001
3.201255e+003, 1.876957e-001
3.203183e+003, 1.878260e-001
3.205112e+003, 1.881970e-001
3.207040e+003, 1.883911e-001
3.208969e+003, 1.880775e-001
3.210897e+003, 1.882467e-001
3.212825e+003, 1.883294e-001
3.214754e+003, 1.879035e-001
3.216682e+003, 1.878293e-001
3.218611e+003, 1.884491e-001
3.220539e+003, 1.889128e-001
3.222468e+003, 1.888447e-001
3.224396e+003, 1.890660e-001
3.226325e+003, 1.889841e-001
3.228253e+003, 1.886200e-001
3.230182e+003, 1.884889e-001
3.232110e+003, 1.886704e-001
3.234039e+003, 1.886381e-001
3.235967e+003, 1.884993e-001
3.237896e+003, 1.887717e-001
3.239824e+003, 1.893738e-001
3.241752e+003, 1.890044e-001
3.243681e+003, 1.883516e-001
3.245609e+003, 1.890074e-001
3.247538e+003, 1.896442e-001
3.249466e+003, 1.897269e-001
3.251395e+003, 1.895084e-001
3.253323e+003, 1.900133e-001
3.255252e+003, 1.903504e-001
3.257180e+003, 1.899470e-001
3.259109e+003, 1.898554e-001
3.261037e+003, 1.901806e-001
3.262966e+003, 1.899869e-001
3.264894e+003, 1.899711e-001
3.266823e+003, 1.895690e-001
3.268751e+003, 1.895400e-001
3.270679e+003, 1.902688e-001
3.272608e+003, 1.899520e-001
3.274536e+003, 1.895263e-001
3.276465e+003, 1.903643e-001
3.278393e+003, 1.909513e-001
3.280322e+003, 1.910338e-001
3.282250e+003, 1.908028e-001
3.284179e+003, 1.906220e-001
3.286107e+003, 1.909147e-001
3.288036e+003, 1.905433e-001
3.289964e+003, 1.903650e-001
3.291893e+003, 1.912659e-001
3.293821e+003, 1.913378e-001
3.295750e+003, 1.909747e-001
3.297678e+003, 1.910129e-001
3.299606e+003, 1.914722e-001
3.301535e+003, 1.912723e-001
3.303463e+003, 1.911315e-001
3.305392e+003, 1.919277e-001
3.307320e+003, 1.924511e-001
3.309249e+003, 1.924662e-001
3.311177e+003, 1.922784e-001
3.313106e+003, 1.920676e-001
3.315034e+003, 1.921382e-001
3.316963e+003, 1.922978e-001
3.318891e+003, 1.920163e-001
3.320820e+003, 1.922942e-001
3.322748e+003, 1.923942e-001
3.324677e+003, 1.920549e-001
3.326605e+003, 1.921443e-001
3.328533e+003, 1.923002e-001
3.330462e+003, 1.920758e-001
3.332390e+003, 1.915763e-001
3.334319e+003, 1.914117e-001
3.336247e+003, 1.917653e-001
3.338176e+003, 1.923091e-001
3.340104e+003, 1.922822e-001
3.342033e+003, 1.924337e-001
3.343961e+003, 1.923365e-001
3.345890e+003, 1.926523e-001
3.347818e+003, 1.930892e-001
3.349747e+003, 1.930164e-001
3.351675e+003, 1.928763e-001
3.353604e+003, 1.931427e-001
3.355532e+003, 1.934482e-001
3.357460e+003, 1.930640e-001
3.359389e+003, 1.919883e-001
3.361317e+003, 1.920606e-001
3.363246e+003, 1.927905e-001
3.365174e+003, 1.926777e-001
3.367103e+003, 1.925799e-001
3.369031e+003, 1.928440e-001
3.370960e+003, 1.932092e-001
3.372888e+003, 1.933410e-001
3.374817e+003, 1.932687e-001
3.376745e+003, 1.926023e-001
3.378674e+003, 1.929913e-001
3.380602e+003, 1.932086e-001
3.382531e+003, 1.924714e-001
3.384459e+003, 1.923939e-001
3.386387e+003, 1.928367e-001
3.388316e+003, 1.934716e-001
3.390244e+003, 1.933241e-001
3.392173e+003, 1.928280e-001
3.394101e+003, 1.931580e-001
3.396030e+003, 1.939649e-001
3.397958e+003, 1.940668e-001
3.399887e+003, 1.935095e-001
3.401815e+003, 1.932737e-001
3.403744e+003, 1.934351e-001
3.405672e+003, 1.938835e-001
3.407601e+003, 1.940534e-001
3.409529e+003, 1.937616e-001
3.411458e+003, 1.936299e-001
3.413386e+003, 1.941618e-001
3.415314e+003, 1.943685e-001
3.417243e+003, 1.931667e-001
3.419171e+003, 1.927925e-001
3.421100e+003, 1.935684e-001
3.423028e+003, 1.938216e-001
3.424957e+003, 1.943425e-001
3.426885e+003, 1.937358e-001
3.428814e+003, 1.925913e-001
3.430742e+003, 1.929625e-001
3.432671e+003, 1.936089e-001
3.434599e+003, 1.936226e-001
3.436528e+003, 1.938006e-001
3.438456e+003, 1.935447e-001
3.440385e+003, 1.936546e-001
3.442313e+003, 1.938647e-001
3.444241e+003, 1.938957e-001
3.446170e+003, 1.937786e-001
3.448098e+003, 1.941725e-001
3.450027e+003, 1.946405e-001
3.451955e+003, 1.942784e-001
3.453884e+003, 1.941772e-001
3.455812e+003, 1.937015e-001
3.457741e+003, 1.935922e-001
3.459669e+003, 1.941254e-001
3.461598e+003, 1.937297e-001
3.463526e+003, 1.935266e-001
3.465455e+003, 1.938201e-001
3.467383e+003, 1.940256e-001
3.469312e+003, 1.939983e-001
3.471240e+003, 1.942442e-001
3.473168e+003, 1.943452e-001
3.475097e+003, 1.941063e-001
3.477025e+003, 1.941150e-001
3.478954e+003, 1.944607e-001
3.480882e+003, 1.943753e-001
3.482811e+003, 1.941816e-001
3.484739e+003, 1.938433e-001
3.486668e+003, 1.935033e-001
3.488596e+003, 1.932294e-001
3.490525e+003, 1.934590e-001
3.492453e+003, 1.941243e-001
3.494382e+003, 1.944482e-001
3.496310e+003, 1.945536e-001
3.498239e+003, 1.939838e-001
3.500167e+003, 1.938201e-001
3.502095e+003, 1.941978e-001
3.504024e+003, 1.942167e-001
3.505952e+003, 1.935155e-001
3.507881e+003, 1.933052e-001
3.509809e+003, 1.937317e-001
3.511738e+003, 1.934768e-001
3.513666e+003, 1.935305e-001
3.515595e+003, 1.936364e-001
3.517523e+003, 1.939686e-001
3.519452e+003, 1.933235e-001
3.521380e+003, 1.930445e-001
3.523309e+003, 1.938062e-001
3.525237e+003, 1.943830e-001
3.527166e+003, 1.935661e-001
3.529094e+003, 1.931219e-001
3.531022e+003, 1.931292e-001
3.532951e+003, 1.928530e-001
3.534879e+003, 1.933697e-001
3.536808e+003, 1.934925e-001
3.538736e+003, 1.938569e-001
3.540665e+003, 1.942730e-001
3.542593e+003, 1.940801e-001
3.544522e+003, 1.943230e-001
3.546450e+003, 1.943385e-001
3.548379e+003, 1.948873e-001
3.550307e+003, 1.960282e-001
3.552236e+003, 1.952727e-001
3.554164e+003, 1.939239e-001
3.556093e+003, 1.940190e-001
3.558021e+003, 1.939435e-001
3.559949e+003, 1.934086e-001
3.561878e+003, 1.934246e-001
3.563806e+003, 1.936334e-001
3.565735e+003, 1.937826e-001
3.567663e+003, 1.938775e-001
3.569592e+003, 1.939337e-001
3.571520e+003, 1.934619e-001
3.573449e+003, 1.934179e-001
3.575377e+003, 1.937810e-001
3.577306e+003, 1.938300e-001
3.579234e+003, 1.935206e-001
3.581163e+003, 1.934412e-001
3.583091e+003, 1.942332e-001
3.585020e+003, 1.950836e-001
3.586948e+003, 1.952948e-001
3.588876e+003, 1.945910e-001
3.590805e+003, 1.937633e-001
3.592733e+003, 1.938725e-001
3.594662e+003, 1.942644e-001
3.596590e+003, 1.945100e-001
3.598519e+003, 1.951013e-001
3.600447e+003, 1.949451e-001
3.602376e+003, 1.942724e-001
3.604304e+003, 1.941919e-001
3.606233e+003, 1.946857e-001
3.608161e+003, 1.951426e-001
3.610090e+003, 1.949188e-001
3.612018e+003, 1.948190e-001
3.613947e+003, 1.951104e-001
3.615875e+003, 1.951811e-001
3.617803e+003, 1.955431e-001
3.619732e+003, 1.959188e-001
3.621660e+003, 1.953109e-001
3.623589e+003, 1.952087e-001
3.625517e+003, 1.959960e-001
3.627446e+003, 1.965791e-001
3.629374e+003, 1.966518e-001
3.631303e+003, 1.962853e-001
3.633231e+003, 1.957654e-001
3.635160e+003, 1.950725e-001
3.637088e+003, 1.949072e-001
3.639017e+003, 1.957454e-001
3.640945e+003, 1.959538e-001
3.642874e+003, 1.952982e-001
3.644802e+003, 1.950575e-001
3.646730e+003, 1.957660e-001
3.648659e+003, 1.962418e-001
3.650587e+003, 1.958491e-001
3.652516e+003, 1.952153e-001
3.654444e+003, 1.946567e-001
3.656373e+003, 1.948274e-001
3.658301e+003, 1.945548e-001
3.660230e+003, 1.942355e-001
3.662158e+003, 1.938658e-001
3.664087e+003, 1.942629e-001
3.666015e+003, 1.944099e-001
3.667944e+003, 1.953808e-001
3.669872e+003, 1.963154e-001
3.671801e+003, 1.956792e-001
3.673729e+003, 1.956288e-001
3.675657e+003, 1.959243e-001
3.677586e+003, 1.952698e-001
3.679514e+003, 1.954601e-001
3.681443e+003, 1.963594e-001
3.683371e+003, 1.963191e-001
3.685300e+003, 1.952932e-001
3.687228e+003, 1.962937e-001
3.689157e+003, 1.971222e-001
3.691085e+003, 1.966859e-001
3.693014e+003, 1.957074e-001
3.694942e+003, 1.952057e-001
3.696871e+003, 1.950450e-001
3.698799e+003, 1.955945e-001
3.700728e+003, 1.958268e-001
3.702656e+003, 1.956161e-001
3.704584e+003, 1.961966e-001
3.706513e+003, 1.968384e-001
3.708441e+003, 1.972628e-001
3.710370e+003, 1.976147e-001
3.712298e+003, 1.979885e-001
3.714227e+003, 1.968834e-001
3.716155e+003, 1.967194e-001
3.718084e+003, 1.968405e-001
3.720012e+003, 1.959773e-001
3.721941e+003, 1.963122e-001
3.723869e+003, 1.961681e-001
3.725798e+003, 1.961105e-001
3.727726e+003, 1.965743e-001
3.729655e+003, 1.973733e-001
3.731583e+003, 1.983416e-001
3.733511e+003, 1.981860e-001
3.735440e+003, 1.981242e-001
3.737368e+003, 1.976865e-001
3.739297e+003, 1.972025e-001
3.741225e+003, 1.975951e-001
3.743154e+003, 1.983880e-001
3.745082e+003, 1.981704e-001
3.747011e+003, 1.982821e-001
3.748939e+003, 1.994270e-001
3.750868e+003, 2.000640e-001
3.752796e+003, 1.991107e-001
3.754725e+003, 1.973827e-001
3.756653e+003, 1.969560e-001
3.758582e+003, 1.973984e-001
3.760510e+003, 1.980019e-001
3.762438e+003, 1.976917e-001
3.764367e+003, 1.976248e-001
3.766295e+003, 1.980162e-001
3.768224e+003, 1.982525e-001
3.770152e+003, 1.980301e-001
3.772081e+003, 1.983098e-001
3.774009e+003, 1.988104e-001
3.775938e+003, 1.976867e-001
3.777866e+003, 1.970736e-001
3.779795e+003, 1.978927e-001
3.781723e+003, 1.984026e-001
3.783652e+003, 1.986387e-001
3.785580e+003, 1.982635e-001
3.787509e+003, 1.979045e-001
3.789437e+003, 1.982194e-001
3.791365e+003, 1.988034e-001
3.793294e+003, 1.991520e-001
3.795222e+003, 1.994518e-001
3.797151e+003, 1.991686e-001
3.799079e+003, 1.995493e-001
3.801008e+003, 1.996822e-001
3.802936e+003, 1.987818e-001
3.804865e+003, 1.996667e-001
3.806793e+003, 2.009801e-001
3.808722e+003, 1.999658e-001
3.810650e+003, 1.990658e-001
3.812579e+003, 1.988123e-001
3.814507e+003, 1.995962e-001
3.816436e+003, 2.002669e-001
3.818364e+003, 2.001929e-001
3.820292e+003, 2.007011e-001
3.822221e+003, 2.006953e-001
3.824149e+003, 1.999479e-001
3.826078e+003, 1.994420e-001
3.828006e+003, 1.991473e-001
3.829935e+003, 2.000602e-001
3.831863e+003, 2.011564e-001
3.833792e+003, 2.011070e-001
3.835720e+003, 2.013153e-001
3.837649e+003, 2.017328e-001
3.839577e+003, 2.010311e-001
3.841506e+003, 2.000700e-001
3.843434e+003, 1.999409e-001
3.845363e+003, 2.000538e-001
3.847291e+003, 1.997516e-001
3.849219e+003, 1.999251e-001
3.851148e+003, 2.011713e-001
3.853076e+003, 2.024926e-001
3.855005e+003, 2.020107e-001
3.856933e+003, 2.007654e-001
3.858862e+003, 2.002581e-001
3.860790e+003, 2.004732e-001
3.862719e+003, 2.009004e-001
3.864647e+003, 2.019322e-001
3.866576e+003, 2.016511e-001
3.868504e+003, 2.016281e-001
3.870433e+003, 2.016876e-001
3.872361e+003, 2.012183e-001
3.874290e+003, 2.020065e-001
3.876218e+003, 2.019287e-001
3.878146e+003, 2.009037e-001
3.880075e+003, 2.007367e-001
3.882003e+003, 2.009806e-001
3.883932e+003, 2.018704e-001
3.885860e+003, 2.025058e-001
3.887789e+003, 2.018204e-001
3.889717e+003, 2.020620e-001
3.891646e+003, 2.022541e-001
3.893574e+003, 2.018865e-001
3.895503e+003, 2.015745e-001
3.897431e+003, 2.018287e-001
3.899360e+003, 2.023293e-001
3.901288e+003, 2.027136e-001
3.903217e+003, 2.023898e-001
3.905145e+003, 2.025713e-001
3.907073e+003, 2.028781e-001
3.909002e+003, 2.028450e-001
3.910930e+003, 2.031823e-001
3.912859e+003, 2.029246e-001
3.914787e+003, 2.020963e-001
3.916716e+003, 2.021784e-001
3.918644e+003, 2.023908e-001
3.920573e+003, 2.027699e-001
3.922501e+003, 2.030073e-001
3.924430e+003, 2.034301e-001
3.926358e+003, 2.039733e-001
3.928287e+003, 2.033449e-001
3.930215e+003, 2.028019e-001
3.932144e+003, 2.030583e-001
3.934072e+003, 2.030953e-001
3.936000e+003, 2.026713e-001
3.937929e+003, 2.025913e-001
3.939857e+003, 2.022652e-001
3.941786e+003, 2.021216e-001
3.943714e+003, 2.028638e-001
3.945643e+003, 2.032769e-001
3.947571e+003, 2.025826e-001
3.949500e+003, 2.028657e-001
3.951428e+003, 2.035953e-001
3.953357e+003, 2.030433e-001
3.955285e+003, 2.023107e-001
3.957214e+003, 2.029095e-001
3.959142e+003, 2.037376e-001
3.961071e+003, 2.035954e-001
3.962999e+003, 2.037889e-001
3.964927e+003, 2.039376e-001
3.966856e+003, 2.035438e-001
3.968784e+003, 2.038700e-001
3.970713e+003, 2.042401e-001
3.972641e+003, 2.037194e-001
3.974570e+003, 2.031024e-001
3.976498e+003, 2.036793e-001
3.978427e+003, 2.039731e-001
3.980355e+003, 2.042588e-001
3.982284e+003, 2.041176e-001
3.984212e+003, 2.042872e-001
3.986141e+003, 2.044698e-001
3.988069e+003, 2.042626e-001
3.989998e+003, 2.044411e-001
3.991926e+003, 2.054543e-001
3.993854e+003, 2.060334e-001
3.995783e+003, 2.059038e-001
3.997711e+003, 2.052950e-001
3.999640e+003, 2.042371e-001
##END=



