##NAMES=Columbite-(Fe)
##RRUFFID=R070161
##IDEAL CHEMISTRY=Fe^2+^Nb^5+^_2_O_6_
##LOCALITY=Tveit mine, Iveland, Setesdal Valley, Aust-Agder, Norway
##OWNER=RRUFF
##SOURCE=James Shigley
##DESCRIPTION=Black vitreous dense prismatic crystal
##STATUS=The identification of this mineral has been made only by X-ray diffraction.
##URL=rruff.info/R070161
3.741225e+002, 2.193370e-001
3.760510e+002, 2.241297e-001
3.779795e+002, 2.183344e-001
3.799079e+002, 2.160271e-001
3.818364e+002, 2.312992e-001
3.837649e+002, 2.218760e-001
3.856933e+002, 2.124636e-001
3.876218e+002, 2.114282e-001
3.895503e+002, 2.224243e-001
3.914787e+002, 2.253722e-001
3.934072e+002, 2.123402e-001
3.953357e+002, 2.070782e-001
3.972641e+002, 2.120947e-001
3.991926e+002, 2.260645e-001
4.011211e+002, 2.303354e-001
4.030495e+002, 2.187843e-001
4.049780e+002, 2.182762e-001
4.069065e+002, 2.227856e-001
4.088349e+002, 2.210445e-001
4.107634e+002, 2.129746e-001
4.126919e+002, 2.077399e-001
4.146203e+002, 2.112535e-001
4.165488e+002, 2.152911e-001
4.184773e+002, 2.150519e-001
4.204057e+002, 2.153893e-001
4.223342e+002, 2.152500e-001
4.242627e+002, 2.138631e-001
4.261911e+002, 2.137810e-001
4.281196e+002, 2.138091e-001
4.300481e+002, 2.128812e-001
4.319765e+002, 2.106705e-001
4.339050e+002, 2.092210e-001
4.358335e+002, 2.108375e-001
4.377619e+002, 2.104423e-001
4.396904e+002, 2.101463e-001
4.416189e+002, 2.115534e-001
4.435473e+002, 2.119016e-001
4.454758e+002, 2.110738e-001
4.474043e+002, 2.119338e-001
4.493327e+002, 2.126094e-001
4.512612e+002, 2.109598e-001
4.531897e+002, 2.100226e-001
4.551181e+002, 2.117059e-001
4.570466e+002, 2.113549e-001
4.589751e+002, 2.093614e-001
4.609035e+002, 2.081123e-001
4.628320e+002, 2.091345e-001
4.647605e+002, 2.103051e-001
4.666889e+002, 2.088012e-001
4.686174e+002, 2.076132e-001
4.705459e+002, 2.068294e-001
4.724743e+002, 2.067648e-001
4.744028e+002, 2.069900e-001
4.763313e+002, 2.058672e-001
4.782597e+002, 2.049662e-001
4.801882e+002, 2.050395e-001
4.821167e+002, 2.052719e-001
4.840451e+002, 2.058630e-001
4.859736e+002, 2.060232e-001
4.879021e+002, 2.061061e-001
4.898305e+002, 2.060664e-001
4.917590e+002, 2.063639e-001
4.936875e+002, 2.076750e-001
4.956159e+002, 2.084565e-001
4.975444e+002, 2.083843e-001
4.994729e+002, 2.078674e-001
5.014013e+002, 2.074535e-001
5.033298e+002, 2.082136e-001
5.052583e+002, 2.089669e-001
5.071867e+002, 2.091961e-001
5.091152e+002, 2.096056e-001
5.110437e+002, 2.096041e-001
5.129721e+002, 2.095737e-001
5.149006e+002, 2.091047e-001
5.168290e+002, 2.088930e-001
5.187575e+002, 2.094413e-001
5.206860e+002, 2.103974e-001
5.226144e+002, 2.100801e-001
5.245429e+002, 2.093753e-001
5.264714e+002, 2.093109e-001
5.283998e+002, 2.093503e-001
5.303283e+002, 2.087298e-001
5.322568e+002, 2.079693e-001
5.341852e+002, 2.083407e-001
5.361137e+002, 2.089068e-001
5.380422e+002, 2.090098e-001
5.399706e+002, 2.083196e-001
5.418991e+002, 2.087091e-001
5.438276e+002, 2.094421e-001
5.457560e+002, 2.089014e-001
5.476845e+002, 2.085513e-001
5.496130e+002, 2.088808e-001
5.515414e+002, 2.089193e-001
5.534699e+002, 2.091448e-001
5.553984e+002, 2.089116e-001
5.573268e+002, 2.082886e-001
5.592553e+002, 2.082074e-001
5.611838e+002, 2.076124e-001
5.631122e+002, 2.073151e-001
5.650407e+002, 2.076442e-001
5.669692e+002, 2.073052e-001
5.688976e+002, 2.066478e-001
5.708261e+002, 2.061545e-001
5.727546e+002, 2.055395e-001
5.746830e+002, 2.049990e-001
5.766115e+002, 2.044065e-001
5.785400e+002, 2.036527e-001
5.804684e+002, 2.028291e-001
5.823969e+002, 2.023327e-001
5.843254e+002, 2.016846e-001
5.862538e+002, 2.007911e-001
5.881823e+002, 2.003133e-001
5.901108e+002, 2.001010e-001
5.920392e+002, 1.999690e-001
5.939677e+002, 1.996415e-001
5.958962e+002, 1.993800e-001
5.978246e+002, 1.991301e-001
5.997531e+002, 1.984945e-001
6.016816e+002, 1.976239e-001
6.036100e+002, 1.969856e-001
6.055385e+002, 1.963832e-001
6.074670e+002, 1.956472e-001
6.093954e+002, 1.946189e-001
6.113239e+002, 1.936199e-001
6.132524e+002, 1.928374e-001
6.151808e+002, 1.919554e-001
6.171093e+002, 1.912149e-001
6.190378e+002, 1.907570e-001
6.209662e+002, 1.898449e-001
6.228947e+002, 1.888219e-001
6.248232e+002, 1.881159e-001
6.267516e+002, 1.875100e-001
6.286801e+002, 1.866565e-001
6.306086e+002, 1.857948e-001
6.325370e+002, 1.853484e-001
6.344655e+002, 1.849094e-001
6.363940e+002, 1.844667e-001
6.383224e+002, 1.837969e-001
6.402509e+002, 1.829821e-001
6.421794e+002, 1.822539e-001
6.441078e+002, 1.811142e-001
6.460363e+002, 1.800664e-001
6.479648e+002, 1.791871e-001
6.498932e+002, 1.782884e-001
6.518217e+002, 1.775502e-001
6.537502e+002, 1.767501e-001
6.556786e+002, 1.758375e-001
6.576071e+002, 1.748226e-001
6.595356e+002, 1.737841e-001
6.614641e+002, 1.729916e-001
6.633925e+002, 1.721665e-001
6.653210e+002, 1.708429e-001
6.672495e+002, 1.696651e-001
6.691779e+002, 1.690354e-001
6.711064e+002, 1.681144e-001
6.730349e+002, 1.670912e-001
6.749633e+002, 1.660081e-001
6.768918e+002, 1.648717e-001
6.788203e+002, 1.637413e-001
6.807487e+002, 1.625627e-001
6.826772e+002, 1.613703e-001
6.846057e+002, 1.603276e-001
6.865341e+002, 1.592779e-001
6.884626e+002, 1.579963e-001
6.903911e+002, 1.566064e-001
6.923195e+002, 1.551949e-001
6.942480e+002, 1.537253e-001
6.961765e+002, 1.525084e-001
6.981049e+002, 1.512201e-001
7.000334e+002, 1.498744e-001
7.019619e+002, 1.483842e-001
7.038903e+002, 1.468697e-001
7.058188e+002, 1.455234e-001
7.077473e+002, 1.441649e-001
7.096757e+002, 1.427234e-001
7.116042e+002, 1.411925e-001
7.135327e+002, 1.395055e-001
7.154611e+002, 1.378547e-001
7.173896e+002, 1.364966e-001
7.193181e+002, 1.350747e-001
7.212465e+002, 1.334509e-001
7.231750e+002, 1.318710e-001
7.251035e+002, 1.303783e-001
7.270319e+002, 1.288523e-001
7.289604e+002, 1.272991e-001
7.308889e+002, 1.257913e-001
7.328173e+002, 1.243252e-001
7.347458e+002, 1.228846e-001
7.366743e+002, 1.214176e-001
7.386027e+002, 1.199211e-001
7.405312e+002, 1.184575e-001
7.424597e+002, 1.171653e-001
7.443881e+002, 1.160037e-001
7.463166e+002, 1.148235e-001
7.482451e+002, 1.136764e-001
7.501735e+002, 1.125305e-001
7.521020e+002, 1.112933e-001
7.540305e+002, 1.102216e-001
7.559589e+002, 1.093638e-001
7.578874e+002, 1.083392e-001
7.598159e+002, 1.072073e-001
7.617443e+002, 1.061746e-001
7.636728e+002, 1.052699e-001
7.656013e+002, 1.044527e-001
7.675297e+002, 1.036631e-001
7.694582e+002, 1.029645e-001
7.713867e+002, 1.021593e-001
7.733151e+002, 1.012921e-001
7.752436e+002, 1.005694e-001
7.771721e+002, 1.001038e-001
7.791005e+002, 9.968487e-002
7.810290e+002, 9.904383e-002
7.829575e+002, 9.839159e-002
7.848859e+002, 9.783405e-002
7.868144e+002, 9.733884e-002
7.887429e+002, 9.689867e-002
7.906713e+002, 9.646946e-002
7.925998e+002, 9.590597e-002
7.945283e+002, 9.533079e-002
7.964567e+002, 9.503184e-002
7.983852e+002, 9.474370e-002
8.003137e+002, 9.437939e-002
8.022421e+002, 9.387682e-002
8.041706e+002, 9.328319e-002
8.060991e+002, 9.284498e-002
8.080275e+002, 9.242029e-002
8.099560e+002, 9.210132e-002
8.118845e+002, 9.163648e-002
8.138129e+002, 9.106821e-002
8.157414e+002, 9.061466e-002
8.176699e+002, 9.023022e-002
8.195983e+002, 8.978976e-002
8.215268e+002, 8.928432e-002
8.234553e+002, 8.875951e-002
8.253837e+002, 8.826596e-002
8.273122e+002, 8.780918e-002
8.292407e+002, 8.730526e-002
8.311691e+002, 8.675493e-002
8.330976e+002, 8.623961e-002
8.350261e+002, 8.562609e-002
8.369545e+002, 8.488408e-002
8.388830e+002, 8.422028e-002
8.408115e+002, 8.372428e-002
8.427399e+002, 8.315617e-002
8.446684e+002, 8.225127e-002
8.465969e+002, 8.123727e-002
8.485253e+002, 8.036745e-002
8.504538e+002, 7.956326e-002
8.523823e+002, 7.856678e-002
8.543107e+002, 7.752645e-002
8.562392e+002, 7.657913e-002
8.581677e+002, 7.556067e-002
8.600961e+002, 7.464848e-002
8.620246e+002, 7.372484e-002
8.639531e+002, 7.259929e-002
8.658815e+002, 7.146885e-002
8.678100e+002, 7.033842e-002
8.697385e+002, 6.905368e-002
8.716669e+002, 6.779724e-002
8.735954e+002, 6.662558e-002
8.755239e+002, 6.542569e-002
8.774523e+002, 6.423948e-002
8.793808e+002, 6.302238e-002
8.813093e+002, 6.181870e-002
8.832377e+002, 6.079183e-002
8.851662e+002, 5.981912e-002
8.870947e+002, 5.899462e-002
8.890231e+002, 5.820750e-002
8.909516e+002, 5.740027e-002
8.928801e+002, 5.651591e-002
8.948085e+002, 5.581430e-002
8.967370e+002, 5.506690e-002
8.986655e+002, 5.428745e-002
9.005939e+002, 5.348459e-002
9.025224e+002, 5.273691e-002
9.044509e+002, 5.218621e-002
9.063793e+002, 5.146499e-002
9.083078e+002, 5.071585e-002
9.102363e+002, 5.001246e-002
9.121647e+002, 4.918242e-002
9.140932e+002, 4.848004e-002
9.160217e+002, 4.783260e-002
9.179501e+002, 4.713673e-002
9.198786e+002, 4.643239e-002
9.218071e+002, 4.586023e-002
9.237355e+002, 4.529489e-002
9.256640e+002, 4.466213e-002
9.275925e+002, 4.419734e-002
9.295209e+002, 4.374153e-002
9.314494e+002, 4.325998e-002
9.333779e+002, 4.275584e-002
9.353063e+002, 4.230971e-002
9.372348e+002, 4.206637e-002
9.391633e+002, 4.190348e-002
9.410917e+002, 4.158577e-002
9.430202e+002, 4.132997e-002
9.449487e+002, 4.116219e-002
9.468771e+002, 4.080549e-002
9.488056e+002, 4.050064e-002
9.507341e+002, 4.033800e-002
9.526625e+002, 4.013908e-002
9.545910e+002, 4.006593e-002
9.565195e+002, 4.002202e-002
9.584479e+002, 3.987313e-002
9.603764e+002, 3.975978e-002
9.623049e+002, 3.968963e-002
9.642333e+002, 3.951472e-002
9.661618e+002, 3.933026e-002
9.680903e+002, 3.918590e-002
9.700187e+002, 3.904863e-002
9.719472e+002, 3.892226e-002
9.738757e+002, 3.876922e-002
9.758041e+002, 3.869290e-002
9.777326e+002, 3.865527e-002
9.796611e+002, 3.847657e-002
9.815895e+002, 3.835273e-002
9.835180e+002, 3.832722e-002
9.854465e+002, 3.844031e-002
9.873749e+002, 3.832725e-002
9.893034e+002, 3.816639e-002
9.912319e+002, 3.805798e-002
9.931603e+002, 3.793262e-002
9.950888e+002, 3.773770e-002
9.970173e+002, 3.748925e-002
9.989457e+002, 3.734530e-002
1.000874e+003, 3.719716e-002
1.002803e+003, 3.700562e-002
1.004731e+003, 3.694492e-002
1.006660e+003, 3.677521e-002
1.008588e+003, 3.640560e-002
1.010517e+003, 3.616707e-002
1.012445e+003, 3.603946e-002
1.014373e+003, 3.605609e-002
1.016302e+003, 3.603116e-002
1.018230e+003, 3.575592e-002
1.020159e+003, 3.532612e-002
1.022087e+003, 3.504097e-002
1.024016e+003, 3.494788e-002
1.025944e+003, 3.490806e-002
1.027873e+003, 3.490580e-002
1.029801e+003, 3.485570e-002
1.031730e+003, 3.479135e-002
1.033658e+003, 3.472811e-002
1.035587e+003, 3.461339e-002
1.037515e+003, 3.461870e-002
1.039443e+003, 3.475029e-002
1.041372e+003, 3.468085e-002
1.043300e+003, 3.456257e-002
1.045229e+003, 3.472495e-002
1.047157e+003, 3.470955e-002
1.049086e+003, 3.442664e-002
1.051014e+003, 3.443345e-002
1.052943e+003, 3.439318e-002
1.054871e+003, 3.404916e-002
1.056800e+003, 3.369636e-002
1.058728e+003, 3.338422e-002
1.060657e+003, 3.310960e-002
1.062585e+003, 3.283602e-002
1.064514e+003, 3.250932e-002
1.066442e+003, 3.213818e-002
1.068370e+003, 3.178525e-002
1.070299e+003, 3.149142e-002
1.072227e+003, 3.107428e-002
1.074156e+003, 3.059607e-002
1.076084e+003, 3.007897e-002
1.078013e+003, 2.980767e-002
1.079941e+003, 2.954630e-002
1.081870e+003, 2.923930e-002
1.083798e+003, 2.893240e-002
1.085727e+003, 2.867618e-002
1.087655e+003, 2.866174e-002
1.089584e+003, 2.892321e-002
1.091512e+003, 2.910640e-002
1.093441e+003, 2.905856e-002
1.095369e+003, 2.894223e-002
1.097297e+003, 2.878122e-002
1.099226e+003, 2.852676e-002
1.101154e+003, 2.837060e-002
1.103083e+003, 2.820016e-002
1.105011e+003, 2.786055e-002
1.106940e+003, 2.762799e-002
1.108868e+003, 2.741691e-002
1.110797e+003, 2.707926e-002
1.112725e+003, 2.671829e-002
1.114654e+003, 2.640110e-002
1.116582e+003, 2.613123e-002
1.118511e+003, 2.594061e-002
1.120439e+003, 2.571751e-002
1.122368e+003, 2.553760e-002
1.124296e+003, 2.551012e-002
1.126224e+003, 2.554000e-002
1.128153e+003, 2.554864e-002
1.130081e+003, 2.546022e-002
1.132010e+003, 2.534844e-002
1.133938e+003, 2.538181e-002
1.135867e+003, 2.543603e-002
1.137795e+003, 2.543261e-002
1.139724e+003, 2.557131e-002
1.141652e+003, 2.558116e-002
1.143581e+003, 2.550238e-002
1.145509e+003, 2.559928e-002
1.147438e+003, 2.568341e-002
1.149366e+003, 2.565176e-002
1.151295e+003, 2.571889e-002
1.153223e+003, 2.572593e-002
1.155151e+003, 2.561244e-002
1.157080e+003, 2.551533e-002
1.159008e+003, 2.532911e-002
1.160937e+003, 2.532636e-002
1.162865e+003, 2.537674e-002
1.164794e+003, 2.546833e-002
1.166722e+003, 2.558543e-002
1.168651e+003, 2.560447e-002
1.170579e+003, 2.545324e-002
1.172508e+003, 2.536134e-002
1.174436e+003, 2.555072e-002
1.176365e+003, 2.569338e-002
1.178293e+003, 2.570651e-002
1.180222e+003, 2.578749e-002
1.182150e+003, 2.589355e-002
1.184078e+003, 2.600805e-002
1.186007e+003, 2.614111e-002
1.187935e+003, 2.623869e-002
1.189864e+003, 2.636189e-002
1.191792e+003, 2.642673e-002
1.193721e+003, 2.638528e-002
1.195649e+003, 2.637339e-002
1.197578e+003, 2.639576e-002
1.199506e+003, 2.653546e-002
1.201435e+003, 2.667715e-002
1.203363e+003, 2.666098e-002
1.205292e+003, 2.663588e-002
1.207220e+003, 2.667534e-002
1.209149e+003, 2.674902e-002
1.211077e+003, 2.688652e-002
1.213005e+003, 2.701454e-002
1.214934e+003, 2.711613e-002
1.216862e+003, 2.727727e-002
1.218791e+003, 2.741814e-002
1.220719e+003, 2.757574e-002
1.222648e+003, 2.755559e-002
1.224576e+003, 2.762513e-002
1.226505e+003, 2.791097e-002
1.228433e+003, 2.817519e-002
1.230362e+003, 2.838388e-002
1.232290e+003, 2.848779e-002
1.234219e+003, 2.859902e-002
1.236147e+003, 2.882329e-002
1.238076e+003, 2.901644e-002
1.240004e+003, 2.913198e-002
1.241932e+003, 2.925066e-002
1.243861e+003, 2.935970e-002
1.245789e+003, 2.944518e-002
1.247718e+003, 2.964074e-002
1.249646e+003, 2.987547e-002
1.251575e+003, 3.007789e-002
1.253503e+003, 3.007393e-002
1.255432e+003, 3.028103e-002
1.257360e+003, 3.060912e-002
1.259289e+003, 3.078751e-002
1.261217e+003, 3.097070e-002
1.263146e+003, 3.111364e-002
1.265074e+003, 3.128701e-002
1.267003e+003, 3.150338e-002
1.268931e+003, 3.163914e-002
1.270859e+003, 3.184396e-002
1.272788e+003, 3.210155e-002
1.274716e+003, 3.227137e-002
1.276645e+003, 3.225514e-002
1.278573e+003, 3.237678e-002
1.280502e+003, 3.255120e-002
1.282430e+003, 3.266938e-002
1.284359e+003, 3.279600e-002
1.286287e+003, 3.291567e-002
1.288216e+003, 3.311626e-002
1.290144e+003, 3.324889e-002
1.292073e+003, 3.336323e-002
1.294001e+003, 3.362406e-002
1.295930e+003, 3.377575e-002
1.297858e+003, 3.390172e-002
1.299786e+003, 3.419949e-002
1.301715e+003, 3.445332e-002
1.303643e+003, 3.448233e-002
1.305572e+003, 3.467422e-002
1.307500e+003, 3.494756e-002
1.309429e+003, 3.514184e-002
1.311357e+003, 3.532095e-002
1.313286e+003, 3.552954e-002
1.315214e+003, 3.569568e-002
1.317143e+003, 3.584396e-002
1.319071e+003, 3.610829e-002
1.321000e+003, 3.633070e-002
1.322928e+003, 3.655282e-002
1.324857e+003, 3.682297e-002
1.326785e+003, 3.699394e-002
1.328714e+003, 3.707856e-002
1.330642e+003, 3.728990e-002
1.332570e+003, 3.754772e-002
1.334499e+003, 3.773969e-002
1.336427e+003, 3.792133e-002
1.338356e+003, 3.807244e-002
1.340284e+003, 3.828322e-002
1.342213e+003, 3.854585e-002
1.344141e+003, 3.881434e-002
1.346070e+003, 3.908248e-002
1.347998e+003, 3.930606e-002
1.349927e+003, 3.949514e-002
1.351855e+003, 3.965243e-002
1.353784e+003, 3.985327e-002
1.355712e+003, 4.010168e-002
1.357641e+003, 4.037860e-002
1.359569e+003, 4.050055e-002
1.361497e+003, 4.059356e-002
1.363426e+003, 4.071914e-002
1.365354e+003, 4.102466e-002
1.367283e+003, 4.141331e-002
1.369211e+003, 4.167699e-002
1.371140e+003, 4.178769e-002
1.373068e+003, 4.199064e-002
1.374997e+003, 4.224308e-002
1.376925e+003, 4.251150e-002
1.378854e+003, 4.276199e-002
1.380782e+003, 4.290966e-002
1.382711e+003, 4.320389e-002
1.384639e+003, 4.331616e-002
1.386568e+003, 4.322558e-002
1.388496e+003, 4.355040e-002
1.390424e+003, 4.401873e-002
1.392353e+003, 4.415556e-002
1.394281e+003, 4.416652e-002
1.396210e+003, 4.446463e-002
1.398138e+003, 4.470767e-002
1.400067e+003, 4.506807e-002
1.401995e+003, 4.529887e-002
1.403924e+003, 4.528912e-002
1.405852e+003, 4.547723e-002
1.407781e+003, 4.581400e-002
1.409709e+003, 4.605218e-002
1.411638e+003, 4.621277e-002
1.413566e+003, 4.637439e-002
1.415495e+003, 4.645308e-002
1.417423e+003, 4.628296e-002
1.419351e+003, 4.623754e-002
1.421280e+003, 4.677806e-002
1.423208e+003, 4.724099e-002
1.425137e+003, 4.756378e-002
1.427065e+003, 4.782783e-002
1.428994e+003, 4.793691e-002
1.430922e+003, 4.820247e-002
1.432851e+003, 4.844995e-002
1.434779e+003, 4.838680e-002
1.436708e+003, 4.818868e-002
1.438636e+003, 4.869277e-002
1.440565e+003, 4.913241e-002
1.442493e+003, 4.937337e-002
1.444422e+003, 4.962371e-002
1.446350e+003, 4.974417e-002
1.448278e+003, 4.984805e-002
1.450207e+003, 5.018579e-002
1.452135e+003, 5.030255e-002
1.454064e+003, 5.021606e-002
1.455992e+003, 4.966606e-002
1.457921e+003, 4.991151e-002
1.459849e+003, 5.070850e-002
1.461778e+003, 5.090913e-002
1.463706e+003, 5.078300e-002
1.465635e+003, 5.104451e-002
1.467563e+003, 5.146598e-002
1.469492e+003, 5.147586e-002
1.471420e+003, 5.118430e-002
1.473349e+003, 5.114656e-002
1.475277e+003, 5.157293e-002
1.477205e+003, 5.200882e-002
1.479134e+003, 5.241818e-002
1.481062e+003, 5.251772e-002
1.482991e+003, 5.274939e-002
1.484919e+003, 5.293595e-002
1.486848e+003, 5.296138e-002
1.488776e+003, 5.295768e-002
1.490705e+003, 5.316048e-002
1.492633e+003, 5.359374e-002
1.494562e+003, 5.363114e-002
1.496490e+003, 5.343963e-002
1.498419e+003, 5.366139e-002
1.500347e+003, 5.388659e-002
1.502276e+003, 5.412733e-002
1.504204e+003, 5.399605e-002
1.506132e+003, 5.345267e-002
1.508061e+003, 5.410589e-002
1.509989e+003, 5.501252e-002
1.511918e+003, 5.515415e-002
1.513846e+003, 5.529897e-002
1.515775e+003, 5.540389e-002
1.517703e+003, 5.556913e-002
1.519632e+003, 5.539541e-002
1.521560e+003, 5.531023e-002
1.523489e+003, 5.599353e-002
1.525417e+003, 5.631589e-002
1.527346e+003, 5.669422e-002
1.529274e+003, 5.720837e-002
1.531203e+003, 5.729677e-002
1.533131e+003, 5.700503e-002
1.535059e+003, 5.735617e-002
1.536988e+003, 5.742068e-002
1.538916e+003, 5.676997e-002
1.540845e+003, 5.706669e-002
1.542773e+003, 5.781712e-002
1.544702e+003, 5.831401e-002
1.546630e+003, 5.889010e-002
1.548559e+003, 5.922112e-002
1.550487e+003, 5.936949e-002
1.552416e+003, 5.948277e-002
1.554344e+003, 5.946279e-002
1.556273e+003, 5.930408e-002
1.558201e+003, 5.858302e-002
1.560130e+003, 5.893736e-002
1.562058e+003, 6.025548e-002
1.563986e+003, 6.070863e-002
1.565915e+003, 6.094515e-002
1.567843e+003, 6.098923e-002
1.569772e+003, 6.111556e-002
1.571700e+003, 6.166616e-002
1.573629e+003, 6.169097e-002
1.575557e+003, 6.127098e-002
1.577486e+003, 6.171450e-002
1.579414e+003, 6.250757e-002
1.581343e+003, 6.286869e-002
1.583271e+003, 6.309939e-002
1.585200e+003, 6.330591e-002
1.587128e+003, 6.352101e-002
1.589057e+003, 6.365709e-002
1.590985e+003, 6.396308e-002
1.592913e+003, 6.415983e-002
1.594842e+003, 6.441385e-002
1.596770e+003, 6.462517e-002
1.598699e+003, 6.477382e-002
1.600627e+003, 6.499834e-002
1.602556e+003, 6.524744e-002
1.604484e+003, 6.556889e-002
1.606413e+003, 6.593512e-002
1.608341e+003, 6.616056e-002
1.610270e+003, 6.648963e-002
1.612198e+003, 6.676925e-002
1.614127e+003, 6.674976e-002
1.616055e+003, 6.639770e-002
1.617984e+003, 6.693603e-002
1.619912e+003, 6.769018e-002
1.621840e+003, 6.768119e-002
1.623769e+003, 6.776853e-002
1.625697e+003, 6.804064e-002
1.627626e+003, 6.814439e-002
1.629554e+003, 6.847079e-002
1.631483e+003, 6.868356e-002
1.633411e+003, 6.837302e-002
1.635340e+003, 6.804389e-002
1.637268e+003, 6.836902e-002
1.639197e+003, 6.881768e-002
1.641125e+003, 6.880077e-002
1.643054e+003, 6.867982e-002
1.644982e+003, 6.835619e-002
1.646911e+003, 6.812175e-002
1.648839e+003, 6.839805e-002
1.650767e+003, 6.776084e-002
1.652696e+003, 6.651238e-002
1.654624e+003, 6.730568e-002
1.656553e+003, 6.842919e-002
1.658481e+003, 6.861529e-002
1.660410e+003, 6.851216e-002
1.662338e+003, 6.840011e-002
1.664267e+003, 6.846753e-002
1.666195e+003, 6.854127e-002
1.668124e+003, 6.810649e-002
1.670052e+003, 6.792418e-002
1.671981e+003, 6.818686e-002
1.673909e+003, 6.794201e-002
1.675838e+003, 6.781686e-002
1.677766e+003, 6.827815e-002
1.679694e+003, 6.823097e-002
1.681623e+003, 6.769640e-002
1.683551e+003, 6.680942e-002
1.685480e+003, 6.709494e-002
1.687408e+003, 6.798495e-002
1.689337e+003, 6.824777e-002
1.691265e+003, 6.851482e-002
1.693194e+003, 6.842926e-002
1.695122e+003, 6.766274e-002
1.697051e+003, 6.782860e-002
1.698979e+003, 6.767322e-002
1.700908e+003, 6.744859e-002
1.702836e+003, 6.842589e-002
1.704765e+003, 6.884915e-002
1.706693e+003, 6.915918e-002
1.708621e+003, 6.946632e-002
1.710550e+003, 6.977225e-002
1.712478e+003, 6.991455e-002
1.714407e+003, 6.984252e-002
1.716335e+003, 6.960853e-002
1.718264e+003, 7.001066e-002
1.720192e+003, 7.099722e-002
1.722121e+003, 7.148255e-002
1.724049e+003, 7.169516e-002
1.725978e+003, 7.202758e-002
1.727906e+003, 7.209431e-002
1.729835e+003, 7.186977e-002
1.731763e+003, 7.134398e-002
1.733692e+003, 7.069069e-002
1.735620e+003, 7.117706e-002
1.737548e+003, 7.163671e-002
1.739477e+003, 7.120095e-002
1.741405e+003, 7.113332e-002
1.743334e+003, 7.115999e-002
1.745262e+003, 7.107972e-002
1.747191e+003, 7.088223e-002
1.749119e+003, 7.067464e-002
1.751048e+003, 7.059783e-002
1.752976e+003, 7.100286e-002
1.754905e+003, 7.113875e-002
1.756833e+003, 7.120606e-002
1.758762e+003, 7.156666e-002
1.760690e+003, 7.156736e-002
1.762619e+003, 7.165979e-002
1.764547e+003, 7.211959e-002
1.766475e+003, 7.216324e-002
1.768404e+003, 7.204880e-002
1.770332e+003, 7.202332e-002
1.772261e+003, 7.190634e-002
1.774189e+003, 7.238647e-002
1.776118e+003, 7.298740e-002
1.778046e+003, 7.314035e-002
1.779975e+003, 7.305897e-002
1.781903e+003, 7.329012e-002
1.783832e+003, 7.377597e-002
1.785760e+003, 7.395856e-002
1.787689e+003, 7.404423e-002
1.789617e+003, 7.397833e-002
1.791546e+003, 7.378159e-002
1.793474e+003, 7.380594e-002
1.795402e+003, 7.402882e-002
1.797331e+003, 7.413230e-002
1.799259e+003, 7.442459e-002
1.801188e+003, 7.471833e-002
1.803116e+003, 7.496800e-002
1.805045e+003, 7.509334e-002
1.806973e+003, 7.530509e-002
1.808902e+003, 7.535505e-002
1.810830e+003, 7.544555e-002
1.812759e+003, 7.555684e-002
1.814687e+003, 7.570936e-002
1.816616e+003, 7.589088e-002
1.818544e+003, 7.594795e-002
1.820473e+003, 7.614531e-002
1.822401e+003, 7.657465e-002
1.824329e+003, 7.658437e-002
1.826258e+003, 7.669918e-002
1.828186e+003, 7.674988e-002
1.830115e+003, 7.669993e-002
1.832043e+003, 7.687356e-002
1.833972e+003, 7.702785e-002
1.835900e+003, 7.739649e-002
1.837829e+003, 7.754476e-002
1.839757e+003, 7.775807e-002
1.841686e+003, 7.787920e-002
1.843614e+003, 7.765713e-002
1.845543e+003, 7.802800e-002
1.847471e+003, 7.833047e-002
1.849400e+003, 7.828597e-002
1.851328e+003, 7.839614e-002
1.853256e+003, 7.870205e-002
1.855185e+003, 7.874225e-002
1.857113e+003, 7.876908e-002
1.859042e+003, 7.894420e-002
1.860970e+003, 7.904186e-002
1.862899e+003, 7.927769e-002
1.864827e+003, 7.960288e-002
1.866756e+003, 7.949954e-002
1.868684e+003, 7.956828e-002
1.870613e+003, 7.986736e-002
1.872541e+003, 8.004773e-002
1.874470e+003, 8.016656e-002
1.876398e+003, 8.052007e-002
1.878327e+003, 8.065092e-002
1.880255e+003, 8.065340e-002
1.882183e+003, 8.061793e-002
1.884112e+003, 8.067518e-002
1.886040e+003, 8.086266e-002
1.887969e+003, 8.092697e-002
1.889897e+003, 8.095559e-002
1.891826e+003, 8.076386e-002
1.893754e+003, 8.091985e-002
1.895683e+003, 8.160738e-002
1.897611e+003, 8.204261e-002
1.899540e+003, 8.223571e-002
1.901468e+003, 8.190478e-002
1.903397e+003, 8.159816e-002
1.905325e+003, 8.155583e-002
1.907254e+003, 8.188216e-002
1.909182e+003, 8.243066e-002
1.911110e+003, 8.273042e-002
1.913039e+003, 8.273988e-002
1.914967e+003, 8.289689e-002
1.916896e+003, 8.308311e-002
1.918824e+003, 8.308830e-002
1.920753e+003, 8.310114e-002
1.922681e+003, 8.332753e-002
1.924610e+003, 8.326773e-002
1.926538e+003, 8.338219e-002
1.928467e+003, 8.348253e-002
1.930395e+003, 8.346949e-002
1.932324e+003, 8.363633e-002
1.934252e+003, 8.384422e-002
1.936181e+003, 8.389832e-002
1.938109e+003, 8.428492e-002
1.940037e+003, 8.419799e-002
1.941966e+003, 8.391599e-002
1.943894e+003, 8.431735e-002
1.945823e+003, 8.433325e-002
1.947751e+003, 8.494326e-002
1.949680e+003, 8.504629e-002
1.951608e+003, 8.512884e-002
1.953537e+003, 8.547128e-002
1.955465e+003, 8.477220e-002
1.957394e+003, 8.376691e-002
1.959322e+003, 8.422823e-002
1.961251e+003, 8.493152e-002
1.963179e+003, 8.539610e-002
1.965108e+003, 8.545826e-002
1.967036e+003, 8.540395e-002
1.968964e+003, 8.555827e-002
1.970893e+003, 8.542586e-002
1.972821e+003, 8.480082e-002
1.974750e+003, 8.450815e-002
1.976678e+003, 8.565866e-002
1.978607e+003, 8.787929e-002
1.980535e+003, 8.873804e-002
1.982464e+003, 8.877239e-002
1.984392e+003, 8.898333e-002
1.986321e+003, 8.871646e-002
1.988249e+003, 8.832076e-002
1.990178e+003, 8.808663e-002
1.992106e+003, 8.851527e-002
1.994035e+003, 8.898719e-002
1.995963e+003, 8.900993e-002
1.997891e+003, 8.874616e-002
1.999820e+003, 8.838758e-002
2.001748e+003, 8.798023e-002
2.003677e+003, 8.821250e-002
2.005605e+003, 8.819468e-002
2.007534e+003, 8.779469e-002
2.009462e+003, 8.837776e-002
2.011391e+003, 8.964164e-002
2.013319e+003, 8.987737e-002
2.015248e+003, 9.007484e-002
2.017176e+003, 8.951594e-002
2.019105e+003, 8.953047e-002
2.021033e+003, 8.840639e-002
2.022962e+003, 8.788811e-002
2.024890e+003, 8.858846e-002
2.026818e+003, 8.878410e-002
2.028747e+003, 8.847369e-002
2.030675e+003, 8.984444e-002
2.032604e+003, 9.124319e-002
2.034532e+003, 9.151763e-002
2.036461e+003, 9.164644e-002
2.038389e+003, 9.185024e-002
2.040318e+003, 9.159643e-002
2.042246e+003, 9.210008e-002
2.044175e+003, 9.219668e-002
2.046103e+003, 9.205090e-002
2.048031e+003, 9.272666e-002
2.049960e+003, 9.348026e-002
2.051888e+003, 9.261383e-002
2.053817e+003, 9.219348e-002
2.055745e+003, 9.274197e-002
2.057674e+003, 9.328286e-002
2.059602e+003, 9.330393e-002
2.061531e+003, 9.334148e-002
2.063459e+003, 9.339670e-002
2.065388e+003, 9.353253e-002
2.067316e+003, 9.372629e-002
2.069245e+003, 9.384508e-002
2.071173e+003, 9.420013e-002
2.073102e+003, 9.443987e-002
2.075030e+003, 9.444854e-002
2.076958e+003, 9.463055e-002
2.078887e+003, 9.463144e-002
2.080815e+003, 9.421718e-002
2.082744e+003, 9.416695e-002
2.084672e+003, 9.431217e-002
2.086601e+003, 9.439313e-002
2.088529e+003, 9.450594e-002
2.090458e+003, 9.412494e-002
2.092386e+003, 9.363034e-002
2.094315e+003, 9.368163e-002
2.096243e+003, 9.434151e-002
2.098172e+003, 9.476921e-002
2.100100e+003, 9.537593e-002
2.102029e+003, 9.571478e-002
2.103957e+003, 9.592863e-002
2.105885e+003, 9.578433e-002
2.107814e+003, 9.549390e-002
2.109742e+003, 9.565506e-002
2.111671e+003, 9.580765e-002
2.113599e+003, 9.598433e-002
2.115528e+003, 9.617940e-002
2.117456e+003, 9.594788e-002
2.119385e+003, 9.559738e-002
2.121313e+003, 9.537251e-002
2.123242e+003, 9.578589e-002
2.125170e+003, 9.612158e-002
2.127099e+003, 9.531961e-002
2.129027e+003, 9.414331e-002
2.130956e+003, 9.383795e-002
2.132884e+003, 9.379046e-002
2.134813e+003, 9.441386e-002
2.136741e+003, 9.552103e-002
2.138669e+003, 9.581078e-002
2.140598e+003, 9.599751e-002
2.142526e+003, 9.604314e-002
2.144455e+003, 9.550963e-002
2.146383e+003, 9.563863e-002
2.148312e+003, 9.590085e-002
2.150240e+003, 9.569839e-002
2.152169e+003, 9.480634e-002
2.154097e+003, 9.349218e-002
2.156026e+003, 9.282200e-002
2.157954e+003, 9.465239e-002
2.159883e+003, 9.806282e-002
2.161811e+003, 9.960336e-002
2.163740e+003, 1.010442e-001
2.165668e+003, 1.020890e-001
2.167596e+003, 1.012032e-001
2.169525e+003, 9.984983e-002
2.171453e+003, 9.827134e-002
2.173382e+003, 9.780692e-002
2.175310e+003, 9.907293e-002
2.177239e+003, 1.003694e-001
2.179167e+003, 9.959473e-002
2.181096e+003, 9.926867e-002
2.183024e+003, 9.959038e-002
2.184953e+003, 9.995808e-002
2.186881e+003, 9.947204e-002
2.188810e+003, 9.945758e-002
2.190738e+003, 1.004748e-001
2.192667e+003, 1.013624e-001
2.194595e+003, 1.018958e-001
2.196523e+003, 1.021792e-001
2.198452e+003, 1.012004e-001
2.200380e+003, 1.005672e-001
2.202309e+003, 1.006037e-001
2.204237e+003, 1.011743e-001
2.206166e+003, 1.012950e-001
2.208094e+003, 1.012380e-001
2.210023e+003, 1.019298e-001
2.211951e+003, 1.018328e-001
2.213880e+003, 1.012087e-001
2.215808e+003, 1.011720e-001
2.217737e+003, 1.019503e-001
2.219665e+003, 1.026130e-001
2.221594e+003, 1.023760e-001
2.223522e+003, 1.023063e-001
2.225450e+003, 1.032275e-001
2.227379e+003, 1.027383e-001
2.229307e+003, 1.022402e-001
2.231236e+003, 1.029263e-001
2.233164e+003, 1.031925e-001
2.235093e+003, 1.030666e-001
2.237021e+003, 1.033526e-001
2.238950e+003, 1.035942e-001
2.240878e+003, 1.036626e-001
2.242807e+003, 1.037430e-001
2.244735e+003, 1.035352e-001
2.246664e+003, 1.034726e-001
2.248592e+003, 1.036860e-001
2.250521e+003, 1.042168e-001
2.252449e+003, 1.040458e-001
2.254377e+003, 1.041243e-001
2.256306e+003, 1.045063e-001
2.258234e+003, 1.052903e-001
2.260163e+003, 1.057166e-001
2.262091e+003, 1.056711e-001
2.264020e+003, 1.056557e-001
2.265948e+003, 1.058779e-001
2.267877e+003, 1.058829e-001
2.269805e+003, 1.064446e-001
2.271734e+003, 1.067205e-001
2.273662e+003, 1.063610e-001
2.275591e+003, 1.069114e-001
2.277519e+003, 1.070414e-001
2.279448e+003, 1.067231e-001
2.281376e+003, 1.069905e-001
2.283304e+003, 1.076214e-001
2.285233e+003, 1.078724e-001
2.287161e+003, 1.077700e-001
2.289090e+003, 1.076901e-001
2.291018e+003, 1.075780e-001
2.292947e+003, 1.078723e-001
2.294875e+003, 1.079068e-001
2.296804e+003, 1.077356e-001
2.298732e+003, 1.079991e-001
2.300661e+003, 1.079588e-001
2.302589e+003, 1.076437e-001
2.304518e+003, 1.074657e-001
2.306446e+003, 1.077261e-001
2.308375e+003, 1.082712e-001
2.310303e+003, 1.085139e-001
2.312231e+003, 1.084033e-001
2.314160e+003, 1.084783e-001
2.316088e+003, 1.088534e-001
2.318017e+003, 1.090224e-001
2.319945e+003, 1.090676e-001
2.321874e+003, 1.096066e-001
2.323802e+003, 1.098461e-001
2.325731e+003, 1.089774e-001
2.327659e+003, 1.083413e-001
2.329588e+003, 1.081568e-001
2.331516e+003, 1.079569e-001
2.333445e+003, 1.080607e-001
2.335373e+003, 1.082310e-001
2.337302e+003, 1.082710e-001
2.339230e+003, 1.083413e-001
2.341158e+003, 1.085114e-001
2.343087e+003, 1.086808e-001
2.345015e+003, 1.088674e-001
2.346944e+003, 1.091210e-001
2.348872e+003, 1.092615e-001
2.350801e+003, 1.093324e-001
2.352729e+003, 1.092583e-001
2.354658e+003, 1.092046e-001
2.356586e+003, 1.091935e-001
2.358515e+003, 1.088727e-001
2.360443e+003, 1.086022e-001
2.362372e+003, 1.086566e-001
2.364300e+003, 1.087306e-001
2.366229e+003, 1.087933e-001
2.368157e+003, 1.089167e-001
2.370085e+003, 1.093487e-001
2.372014e+003, 1.097317e-001
2.373942e+003, 1.096937e-001
2.375871e+003, 1.100427e-001
2.377799e+003, 1.105253e-001
2.379728e+003, 1.105656e-001
2.381656e+003, 1.107872e-001
2.383585e+003, 1.110436e-001
2.385513e+003, 1.113549e-001
2.387442e+003, 1.113864e-001
2.389370e+003, 1.114364e-001
2.391299e+003, 1.114466e-001
2.393227e+003, 1.112129e-001
2.395156e+003, 1.114923e-001
2.397084e+003, 1.116562e-001
2.399012e+003, 1.118158e-001
2.400941e+003, 1.119818e-001
2.402869e+003, 1.117221e-001
2.404798e+003, 1.115630e-001
2.406726e+003, 1.122052e-001
2.408655e+003, 1.128329e-001
2.410583e+003, 1.127914e-001
2.412512e+003, 1.127115e-001
2.414440e+003, 1.128305e-001
2.416369e+003, 1.134052e-001
2.418297e+003, 1.135799e-001
2.420226e+003, 1.134500e-001
2.422154e+003, 1.134001e-001
2.424083e+003, 1.133760e-001
2.426011e+003, 1.134043e-001
2.427939e+003, 1.132176e-001
2.429868e+003, 1.131850e-001
2.431796e+003, 1.136307e-001
2.433725e+003, 1.138705e-001
2.435653e+003, 1.138774e-001
2.437582e+003, 1.144325e-001
2.439510e+003, 1.150385e-001
2.441439e+003, 1.149509e-001
2.443367e+003, 1.146739e-001
2.445296e+003, 1.145839e-001
2.447224e+003, 1.148449e-001
2.449153e+003, 1.151184e-001
2.451081e+003, 1.153140e-001
2.453010e+003, 1.156284e-001
2.454938e+003, 1.157432e-001
2.456866e+003, 1.161138e-001
2.458795e+003, 1.166407e-001
2.460723e+003, 1.162849e-001
2.462652e+003, 1.160226e-001
2.464580e+003, 1.161014e-001
2.466509e+003, 1.162641e-001
2.468437e+003, 1.160841e-001
2.470366e+003, 1.160138e-001
2.472294e+003, 1.161720e-001
2.474223e+003, 1.165849e-001
2.476151e+003, 1.164917e-001
2.478080e+003, 1.163892e-001
2.480008e+003, 1.168926e-001
2.481937e+003, 1.172774e-001
2.483865e+003, 1.171517e-001
2.485793e+003, 1.169621e-001
2.487722e+003, 1.168755e-001
2.489650e+003, 1.167501e-001
2.491579e+003, 1.168390e-001
2.493507e+003, 1.171927e-001
2.495436e+003, 1.172366e-001
2.497364e+003, 1.169052e-001
2.499293e+003, 1.171719e-001
2.501221e+003, 1.176151e-001
2.503150e+003, 1.177284e-001
2.505078e+003, 1.179779e-001
2.507007e+003, 1.181120e-001
2.508935e+003, 1.183536e-001
2.510864e+003, 1.182919e-001
2.512792e+003, 1.184832e-001
2.514720e+003, 1.187333e-001
2.516649e+003, 1.188618e-001
2.518577e+003, 1.188121e-001
2.520506e+003, 1.188749e-001
2.522434e+003, 1.195309e-001
2.524363e+003, 1.197125e-001
2.526291e+003, 1.194563e-001
2.528220e+003, 1.196871e-001
2.530148e+003, 1.201787e-001
2.532077e+003, 1.202108e-001
2.534005e+003, 1.201912e-001
2.535934e+003, 1.201114e-001
2.537862e+003, 1.203278e-001
2.539791e+003, 1.204200e-001
2.541719e+003, 1.207363e-001
2.543647e+003, 1.206858e-001
2.545576e+003, 1.207733e-001
2.547504e+003, 1.207267e-001
2.549433e+003, 1.208668e-001
2.551361e+003, 1.210828e-001
2.553290e+003, 1.213955e-001
2.555218e+003, 1.218388e-001
2.557147e+003, 1.216678e-001
2.559075e+003, 1.217080e-001
2.561004e+003, 1.219189e-001
2.562932e+003, 1.219297e-001
2.564861e+003, 1.218915e-001
2.566789e+003, 1.217388e-001
2.568718e+003, 1.218809e-001
2.570646e+003, 1.225622e-001
2.572574e+003, 1.229188e-001
2.574503e+003, 1.229480e-001
2.576431e+003, 1.228720e-001
2.578360e+003, 1.230747e-001
2.580288e+003, 1.234729e-001
2.582217e+003, 1.235108e-001
2.584145e+003, 1.233965e-001
2.586074e+003, 1.236492e-001
2.588002e+003, 1.242320e-001
2.589931e+003, 1.242785e-001
2.591859e+003, 1.238501e-001
2.593788e+003, 1.239552e-001
2.595716e+003, 1.243760e-001
2.597645e+003, 1.247197e-001
2.599573e+003, 1.248385e-001
2.601501e+003, 1.249192e-001
2.603430e+003, 1.249194e-001
2.605358e+003, 1.249788e-001
2.607287e+003, 1.251063e-001
2.609215e+003, 1.253198e-001
2.611144e+003, 1.254589e-001
2.613072e+003, 1.255275e-001
2.615001e+003, 1.259194e-001
2.616929e+003, 1.259666e-001
2.618858e+003, 1.259063e-001
2.620786e+003, 1.262223e-001
2.622715e+003, 1.262892e-001
2.624643e+003, 1.262323e-001
2.626572e+003, 1.262479e-001
2.628500e+003, 1.265569e-001
2.630428e+003, 1.269107e-001
2.632357e+003, 1.270342e-001
2.634285e+003, 1.273019e-001
2.636214e+003, 1.275225e-001
2.638142e+003, 1.276974e-001
2.640071e+003, 1.279168e-001
2.641999e+003, 1.281547e-001
2.643928e+003, 1.282029e-001
2.645856e+003, 1.280135e-001
2.647785e+003, 1.278425e-001
2.649713e+003, 1.280873e-001
2.651642e+003, 1.282213e-001
2.653570e+003, 1.280152e-001
2.655499e+003, 1.279773e-001
2.657427e+003, 1.284471e-001
2.659355e+003, 1.287867e-001
2.661284e+003, 1.287422e-001
2.663212e+003, 1.285443e-001
2.665141e+003, 1.285326e-001
2.667069e+003, 1.285352e-001
2.668998e+003, 1.287096e-001
2.670926e+003, 1.288708e-001
2.672855e+003, 1.287070e-001
2.674783e+003, 1.286894e-001
2.676712e+003, 1.289838e-001
2.678640e+003, 1.293301e-001
2.680569e+003, 1.294755e-001
2.682497e+003, 1.294099e-001
2.684426e+003, 1.295264e-001
2.686354e+003, 1.297759e-001
2.688282e+003, 1.296311e-001
2.690211e+003, 1.296189e-001
2.692139e+003, 1.298497e-001
2.694068e+003, 1.299425e-001
2.695996e+003, 1.299288e-001
2.697925e+003, 1.300655e-001
2.699853e+003, 1.304550e-001
2.701782e+003, 1.308718e-001
2.703710e+003, 1.309645e-001
2.705639e+003, 1.309309e-001
2.707567e+003, 1.308524e-001
2.709496e+003, 1.307807e-001
2.711424e+003, 1.309330e-001
2.713353e+003, 1.312651e-001
2.715281e+003, 1.318261e-001
2.717209e+003, 1.321233e-001
2.719138e+003, 1.317136e-001
2.721066e+003, 1.314505e-001
2.722995e+003, 1.317866e-001
2.724923e+003, 1.321822e-001
2.726852e+003, 1.323287e-001
2.728780e+003, 1.324903e-001
2.730709e+003, 1.327389e-001
2.732637e+003, 1.326738e-001
2.734566e+003, 1.326335e-001
2.736494e+003, 1.327609e-001
2.738423e+003, 1.328834e-001
2.740351e+003, 1.328956e-001
2.742280e+003, 1.327724e-001
2.744208e+003, 1.330975e-001
2.746136e+003, 1.334384e-001
2.748065e+003, 1.333977e-001
2.749993e+003, 1.334462e-001
2.751922e+003, 1.336813e-001
2.753850e+003, 1.334162e-001
2.755779e+003, 1.334626e-001
2.757707e+003, 1.338184e-001
2.759636e+003, 1.340907e-001
2.761564e+003, 1.341129e-001
2.763493e+003, 1.341580e-001
2.765421e+003, 1.343061e-001
2.767350e+003, 1.347241e-001
2.769278e+003, 1.348948e-001
2.771207e+003, 1.349766e-001
2.773135e+003, 1.350653e-001
2.775063e+003, 1.353220e-001
2.776992e+003, 1.352721e-001
2.778920e+003, 1.352184e-001
2.780849e+003, 1.353818e-001
2.782777e+003, 1.354043e-001
2.784706e+003, 1.355664e-001
2.786634e+003, 1.356910e-001
2.788563e+003, 1.355135e-001
2.790491e+003, 1.355027e-001
2.792420e+003, 1.358869e-001
2.794348e+003, 1.363083e-001
2.796277e+003, 1.365202e-001
2.798205e+003, 1.363801e-001
2.800134e+003, 1.365356e-001
2.802062e+003, 1.367003e-001
2.803990e+003, 1.369524e-001
2.805919e+003, 1.371457e-001
2.807847e+003, 1.372692e-001
2.809776e+003, 1.374486e-001
2.811704e+003, 1.376044e-001
2.813633e+003, 1.377849e-001
2.815561e+003, 1.376817e-001
2.817490e+003, 1.378593e-001
2.819418e+003, 1.377719e-001
2.821347e+003, 1.377670e-001
2.823275e+003, 1.381685e-001
2.825204e+003, 1.382346e-001
2.827132e+003, 1.381942e-001
2.829061e+003, 1.384976e-001
2.830989e+003, 1.387137e-001
2.832917e+003, 1.388368e-001
2.834846e+003, 1.390723e-001
2.836774e+003, 1.390907e-001
2.838703e+003, 1.391619e-001
2.840631e+003, 1.395882e-001
2.842560e+003, 1.397376e-001
2.844488e+003, 1.397036e-001
2.846417e+003, 1.397603e-001
2.848345e+003, 1.396249e-001
2.850274e+003, 1.395918e-001
2.852202e+003, 1.399464e-001
2.854131e+003, 1.401999e-001
2.856059e+003, 1.401776e-001
2.857988e+003, 1.402643e-001
2.859916e+003, 1.402454e-001
2.861844e+003, 1.402677e-001
2.863773e+003, 1.404744e-001
2.865701e+003, 1.405684e-001
2.867630e+003, 1.406930e-001
2.869558e+003, 1.411371e-001
2.871487e+003, 1.412975e-001
2.873415e+003, 1.410817e-001
2.875344e+003, 1.413526e-001
2.877272e+003, 1.415597e-001
2.879201e+003, 1.418495e-001
2.881129e+003, 1.418961e-001
2.883058e+003, 1.415688e-001
2.884986e+003, 1.413677e-001
2.886915e+003, 1.416515e-001
2.888843e+003, 1.421949e-001
2.890771e+003, 1.425469e-001
2.892700e+003, 1.429867e-001
2.894628e+003, 1.429148e-001
2.896557e+003, 1.429273e-001
2.898485e+003, 1.431762e-001
2.900414e+003, 1.432896e-001
2.902342e+003, 1.431655e-001
2.904271e+003, 1.434259e-001
2.906199e+003, 1.437089e-001
2.908128e+003, 1.434617e-001
2.910056e+003, 1.433539e-001
2.911985e+003, 1.435232e-001
2.913913e+003, 1.436320e-001
2.915842e+003, 1.439650e-001
2.917770e+003, 1.441183e-001
2.919698e+003, 1.439717e-001
2.921627e+003, 1.439791e-001
2.923555e+003, 1.438914e-001
2.925484e+003, 1.441240e-001
2.927412e+003, 1.446242e-001
2.929341e+003, 1.445313e-001
2.931269e+003, 1.440875e-001
2.933198e+003, 1.443493e-001
2.935126e+003, 1.447291e-001
2.937055e+003, 1.446212e-001
2.938983e+003, 1.446835e-001
2.940912e+003, 1.447792e-001
2.942840e+003, 1.447405e-001
2.944769e+003, 1.449129e-001
2.946697e+003, 1.453068e-001
2.948625e+003, 1.454186e-001
2.950554e+003, 1.455730e-001
2.952482e+003, 1.455586e-001
2.954411e+003, 1.459240e-001
2.956339e+003, 1.465502e-001
2.958268e+003, 1.462177e-001
2.960196e+003, 1.455692e-001
2.962125e+003, 1.455942e-001
2.964053e+003, 1.458923e-001
2.965982e+003, 1.461638e-001
2.967910e+003, 1.460596e-001
2.969839e+003, 1.454371e-001
2.971767e+003, 1.453095e-001
2.973696e+003, 1.457725e-001
2.975624e+003, 1.462129e-001
2.977552e+003, 1.462354e-001
2.979481e+003, 1.464506e-001
2.981409e+003, 1.466094e-001
2.983338e+003, 1.469641e-001
2.985266e+003, 1.472152e-001
2.987195e+003, 1.472163e-001
2.989123e+003, 1.468215e-001
2.991052e+003, 1.465717e-001
2.992980e+003, 1.465509e-001
2.994909e+003, 1.470412e-001
2.996837e+003, 1.476570e-001
2.998766e+003, 1.479849e-001
3.000694e+003, 1.478021e-001
3.002623e+003, 1.477238e-001
3.004551e+003, 1.476797e-001
3.006479e+003, 1.474724e-001
3.008408e+003, 1.476918e-001
3.010336e+003, 1.480216e-001
3.012265e+003, 1.484359e-001
3.014193e+003, 1.487817e-001
3.016122e+003, 1.485631e-001
3.018050e+003, 1.486222e-001
3.019979e+003, 1.489963e-001
3.021907e+003, 1.490672e-001
3.023836e+003, 1.493654e-001
3.025764e+003, 1.495874e-001
3.027693e+003, 1.492717e-001
3.029621e+003, 1.489748e-001
3.031550e+003, 1.489324e-001
3.033478e+003, 1.490446e-001
3.035406e+003, 1.496652e-001
3.037335e+003, 1.496068e-001
3.039263e+003, 1.493415e-001
3.041192e+003, 1.497151e-001
3.043120e+003, 1.502954e-001
3.045049e+003, 1.501382e-001
3.046977e+003, 1.496826e-001
3.048906e+003, 1.500399e-001
3.050834e+003, 1.501511e-001
3.052763e+003, 1.502258e-001
3.054691e+003, 1.503767e-001
3.056620e+003, 1.503192e-001
3.058548e+003, 1.506356e-001
3.060477e+003, 1.508263e-001
3.062405e+003, 1.508451e-001
3.064333e+003, 1.507996e-001
3.066262e+003, 1.510416e-001
3.068190e+003, 1.514441e-001
3.070119e+003, 1.513825e-001
3.072047e+003, 1.512984e-001
3.073976e+003, 1.515135e-001
3.075904e+003, 1.517852e-001
3.077833e+003, 1.521144e-001
3.079761e+003, 1.519233e-001
3.081690e+003, 1.516196e-001
3.083618e+003, 1.514317e-001
3.085547e+003, 1.516950e-001
3.087475e+003, 1.524959e-001
3.089404e+003, 1.529591e-001
3.091332e+003, 1.529273e-001
3.093260e+003, 1.524305e-001
3.095189e+003, 1.523713e-001
3.097117e+003, 1.525410e-001
3.099046e+003, 1.525562e-001
3.100974e+003, 1.528023e-001
3.102903e+003, 1.532475e-001
3.104831e+003, 1.533068e-001
3.106760e+003, 1.533848e-001
3.108688e+003, 1.534903e-001
3.110617e+003, 1.535393e-001
3.112545e+003, 1.541969e-001
3.114474e+003, 1.545182e-001
3.116402e+003, 1.543013e-001
3.118331e+003, 1.539555e-001
3.120259e+003, 1.538096e-001
3.122188e+003, 1.538542e-001
3.124116e+003, 1.536396e-001
3.126044e+003, 1.538022e-001
3.127973e+003, 1.541090e-001
3.129901e+003, 1.541793e-001
3.131830e+003, 1.541079e-001
3.133758e+003, 1.545053e-001
3.135687e+003, 1.548908e-001
3.137615e+003, 1.547194e-001
3.139544e+003, 1.545586e-001
3.141472e+003, 1.545885e-001
3.143401e+003, 1.547459e-001
3.145329e+003, 1.548115e-001
3.147258e+003, 1.547085e-001
3.149186e+003, 1.547689e-001
3.151115e+003, 1.549302e-001
3.153043e+003, 1.551635e-001
3.154971e+003, 1.554120e-001
3.156900e+003, 1.556043e-001
3.158828e+003, 1.554967e-001
3.160757e+003, 1.552493e-001
3.162685e+003, 1.554919e-001
3.164614e+003, 1.556161e-001
3.166542e+003, 1.554562e-001
3.168471e+003, 1.555493e-001
3.170399e+003, 1.556692e-001
3.172328e+003, 1.554055e-001
3.174256e+003, 1.552159e-001
3.176185e+003, 1.555983e-001
3.178113e+003, 1.554187e-001
3.180042e+003, 1.554444e-001
3.181970e+003, 1.559186e-001
3.183898e+003, 1.558673e-001
3.185827e+003, 1.561899e-001
3.187755e+003, 1.564301e-001
3.189684e+003, 1.560581e-001
3.191612e+003, 1.563298e-001
3.193541e+003, 1.565943e-001
3.195469e+003, 1.568904e-001
3.197398e+003, 1.568746e-001
3.199326e+003, 1.566823e-001
3.201255e+003, 1.566284e-001
3.203183e+003, 1.567942e-001
3.205112e+003, 1.564080e-001
3.207040e+003, 1.558904e-001
3.208969e+003, 1.559555e-001
3.210897e+003, 1.562319e-001
3.212825e+003, 1.566430e-001
3.214754e+003, 1.568323e-001
3.216682e+003, 1.569102e-001
3.218611e+003, 1.569391e-001
3.220539e+003, 1.570918e-001
3.222468e+003, 1.570167e-001
3.224396e+003, 1.568779e-001
3.226325e+003, 1.569322e-001
3.228253e+003, 1.568453e-001
3.230182e+003, 1.567952e-001
3.232110e+003, 1.568810e-001
3.234039e+003, 1.570199e-001
3.235967e+003, 1.569913e-001
3.237896e+003, 1.566470e-001
3.239824e+003, 1.564431e-001
3.241752e+003, 1.567763e-001
3.243681e+003, 1.572382e-001
3.245609e+003, 1.571333e-001
3.247538e+003, 1.574994e-001
3.249466e+003, 1.578732e-001
3.251395e+003, 1.576686e-001
3.253323e+003, 1.576887e-001
3.255252e+003, 1.579444e-001
3.257180e+003, 1.578092e-001
3.259109e+003, 1.572638e-001
3.261037e+003, 1.571731e-001
3.262966e+003, 1.576299e-001
3.264894e+003, 1.576705e-001
3.266823e+003, 1.569874e-001
3.268751e+003, 1.569613e-001
3.270679e+003, 1.574766e-001
3.272608e+003, 1.581299e-001
3.274536e+003, 1.583443e-001
3.276465e+003, 1.576782e-001
3.278393e+003, 1.569410e-001
3.280322e+003, 1.570423e-001
3.282250e+003, 1.572546e-001
3.284179e+003, 1.568738e-001
3.286107e+003, 1.565018e-001
3.288036e+003, 1.572181e-001
3.289964e+003, 1.574517e-001
3.291893e+003, 1.570902e-001
3.293821e+003, 1.573089e-001
3.295750e+003, 1.580042e-001
3.297678e+003, 1.583055e-001
3.299606e+003, 1.585273e-001
3.301535e+003, 1.581865e-001
3.303463e+003, 1.581435e-001
3.305392e+003, 1.585468e-001
3.307320e+003, 1.582212e-001
3.309249e+003, 1.578509e-001
3.311177e+003, 1.579144e-001
3.313106e+003, 1.573951e-001
3.315034e+003, 1.574699e-001
3.316963e+003, 1.580361e-001
3.318891e+003, 1.579425e-001
3.320820e+003, 1.573689e-001
3.322748e+003, 1.571796e-001
3.324677e+003, 1.577105e-001
3.326605e+003, 1.582088e-001
3.328533e+003, 1.581430e-001
3.330462e+003, 1.577397e-001
3.332390e+003, 1.578011e-001
3.334319e+003, 1.578691e-001
3.336247e+003, 1.577511e-001
3.338176e+003, 1.575470e-001
3.340104e+003, 1.575362e-001
3.342033e+003, 1.579848e-001
3.343961e+003, 1.580993e-001
3.345890e+003, 1.575387e-001
3.347818e+003, 1.576835e-001
3.349747e+003, 1.578436e-001
3.351675e+003, 1.578783e-001
3.353604e+003, 1.579154e-001
3.355532e+003, 1.581782e-001
3.357460e+003, 1.581486e-001
3.359389e+003, 1.577735e-001
3.361317e+003, 1.579368e-001
3.363246e+003, 1.580507e-001
3.365174e+003, 1.573523e-001
3.367103e+003, 1.567919e-001
3.369031e+003, 1.572506e-001
3.370960e+003, 1.575228e-001
3.372888e+003, 1.570733e-001
3.374817e+003, 1.568464e-001
3.376745e+003, 1.572817e-001
3.378674e+003, 1.573619e-001
3.380602e+003, 1.573416e-001
3.382531e+003, 1.575652e-001
3.384459e+003, 1.575560e-001
3.386387e+003, 1.574084e-001
3.388316e+003, 1.574475e-001
3.390244e+003, 1.576952e-001
3.392173e+003, 1.575570e-001
3.394101e+003, 1.574625e-001
3.396030e+003, 1.569174e-001
3.397958e+003, 1.567515e-001
3.399887e+003, 1.574474e-001
3.401815e+003, 1.575553e-001
3.403744e+003, 1.569440e-001
3.405672e+003, 1.564245e-001
3.407601e+003, 1.564290e-001
3.409529e+003, 1.563531e-001
3.411458e+003, 1.560500e-001
3.413386e+003, 1.560981e-001
3.415314e+003, 1.565448e-001
3.417243e+003, 1.561554e-001
3.419171e+003, 1.557995e-001
3.421100e+003, 1.560476e-001
3.423028e+003, 1.562595e-001
3.424957e+003, 1.558463e-001
3.426885e+003, 1.552698e-001
3.428814e+003, 1.555262e-001
3.430742e+003, 1.552814e-001
3.432671e+003, 1.550384e-001
3.434599e+003, 1.553318e-001
3.436528e+003, 1.556147e-001
3.438456e+003, 1.555376e-001
3.440385e+003, 1.549907e-001
3.442313e+003, 1.550539e-001
3.444241e+003, 1.555704e-001
3.446170e+003, 1.551934e-001
3.448098e+003, 1.550953e-001
3.450027e+003, 1.551413e-001
3.451955e+003, 1.549552e-001
3.453884e+003, 1.549631e-001
3.455812e+003, 1.552897e-001
3.457741e+003, 1.548313e-001
3.459669e+003, 1.542240e-001
3.461598e+003, 1.542153e-001
3.463526e+003, 1.541202e-001
3.465455e+003, 1.541471e-001
3.467383e+003, 1.539748e-001
3.469312e+003, 1.538767e-001
3.471240e+003, 1.529807e-001
3.473168e+003, 1.528334e-001
3.475097e+003, 1.532600e-001
3.477025e+003, 1.533058e-001
3.478954e+003, 1.533687e-001
3.480882e+003, 1.530286e-001
3.482811e+003, 1.526018e-001
3.484739e+003, 1.528052e-001
3.486668e+003, 1.526937e-001
3.488596e+003, 1.526618e-001
3.490525e+003, 1.528954e-001
3.492453e+003, 1.527505e-001
3.494382e+003, 1.531331e-001
3.496310e+003, 1.531328e-001
3.498239e+003, 1.522799e-001
3.500167e+003, 1.511968e-001
3.502095e+003, 1.508723e-001
3.504024e+003, 1.516499e-001
3.505952e+003, 1.517655e-001
3.507881e+003, 1.512011e-001
3.509809e+003, 1.502669e-001
3.511738e+003, 1.501703e-001
3.513666e+003, 1.507246e-001
3.515595e+003, 1.503814e-001
3.517523e+003, 1.496961e-001
3.519452e+003, 1.506429e-001
3.521380e+003, 1.512688e-001
3.523309e+003, 1.504431e-001
3.525237e+003, 1.499108e-001
3.527166e+003, 1.502364e-001
3.529094e+003, 1.500944e-001
3.531022e+003, 1.490554e-001
3.532951e+003, 1.486830e-001
3.534879e+003, 1.489332e-001
3.536808e+003, 1.483089e-001
3.538736e+003, 1.480828e-001
3.540665e+003, 1.484068e-001
3.542593e+003, 1.485161e-001
3.544522e+003, 1.475977e-001
3.546450e+003, 1.472623e-001
3.548379e+003, 1.473087e-001
3.550307e+003, 1.471794e-001
3.552236e+003, 1.471502e-001
3.554164e+003, 1.468209e-001
3.556093e+003, 1.469504e-001
3.558021e+003, 1.468901e-001
3.559949e+003, 1.458640e-001
3.561878e+003, 1.459290e-001
3.563806e+003, 1.462277e-001
3.565735e+003, 1.456924e-001
3.567663e+003, 1.455230e-001
3.569592e+003, 1.458915e-001
3.571520e+003, 1.459863e-001
3.573449e+003, 1.452161e-001
3.575377e+003, 1.445727e-001
3.577306e+003, 1.450124e-001
3.579234e+003, 1.451771e-001
3.581163e+003, 1.454300e-001
3.583091e+003, 1.446544e-001
3.585020e+003, 1.434229e-001
3.586948e+003, 1.428519e-001
3.588876e+003, 1.436030e-001
3.590805e+003, 1.439536e-001
3.592733e+003, 1.439673e-001
3.594662e+003, 1.443383e-001
3.596590e+003, 1.439550e-001
3.598519e+003, 1.441572e-001
3.600447e+003, 1.449763e-001
3.602376e+003, 1.454136e-001
3.604304e+003, 1.452161e-001
3.606233e+003, 1.440518e-001
3.608161e+003, 1.426103e-001
3.610090e+003, 1.425867e-001
3.612018e+003, 1.426625e-001
3.613947e+003, 1.430723e-001
3.615875e+003, 1.434611e-001
3.617803e+003, 1.426646e-001
3.619732e+003, 1.425045e-001
3.621660e+003, 1.432634e-001
3.623589e+003, 1.439160e-001
3.625517e+003, 1.437410e-001
3.627446e+003, 1.424550e-001
3.629374e+003, 1.418316e-001
3.631303e+003, 1.436224e-001
3.633231e+003, 1.442580e-001
3.635160e+003, 1.438963e-001
3.637088e+003, 1.442259e-001
3.639017e+003, 1.444548e-001
3.640945e+003, 1.437540e-001
3.642874e+003, 1.434335e-001
3.644802e+003, 1.432597e-001
3.646730e+003, 1.428960e-001
3.648659e+003, 1.424942e-001
3.650587e+003, 1.432315e-001
3.652516e+003, 1.441600e-001
3.654444e+003, 1.440340e-001
3.656373e+003, 1.436066e-001
3.658301e+003, 1.448071e-001
3.660230e+003, 1.454625e-001
3.662158e+003, 1.452665e-001
3.664087e+003, 1.447742e-001
3.666015e+003, 1.438124e-001
3.667944e+003, 1.430602e-001
3.669872e+003, 1.424289e-001
3.671801e+003, 1.429673e-001
3.673729e+003, 1.432146e-001
3.675657e+003, 1.430810e-001
3.677586e+003, 1.443475e-001
3.679514e+003, 1.452242e-001
3.681443e+003, 1.453550e-001
3.683371e+003, 1.454552e-001
3.685300e+003, 1.464916e-001
3.687228e+003, 1.455105e-001
3.689157e+003, 1.449564e-001
3.691085e+003, 1.453430e-001
3.693014e+003, 1.456735e-001
3.694942e+003, 1.467960e-001
3.696871e+003, 1.471161e-001
3.698799e+003, 1.469804e-001
3.700728e+003, 1.463234e-001
3.702656e+003, 1.465340e-001
3.704584e+003, 1.476430e-001
3.706513e+003, 1.471787e-001
3.708441e+003, 1.465818e-001
3.710370e+003, 1.465351e-001
3.712298e+003, 1.470020e-001
3.714227e+003, 1.478888e-001
3.716155e+003, 1.483602e-001
3.718084e+003, 1.486769e-001
3.720012e+003, 1.483120e-001
3.721941e+003, 1.480400e-001
3.723869e+003, 1.484006e-001
3.725798e+003, 1.485092e-001
3.727726e+003, 1.490354e-001
3.729655e+003, 1.493331e-001
3.731583e+003, 1.486075e-001
3.733511e+003, 1.487529e-001
3.735440e+003, 1.485156e-001
3.737368e+003, 1.488758e-001
3.739297e+003, 1.496983e-001
3.741225e+003, 1.498841e-001
3.743154e+003, 1.478972e-001
3.745082e+003, 1.464731e-001
3.747011e+003, 1.476003e-001
3.748939e+003, 1.474301e-001
3.750868e+003, 1.476542e-001
3.752796e+003, 1.480704e-001
3.754725e+003, 1.492222e-001
3.756653e+003, 1.496284e-001
3.758582e+003, 1.496600e-001
3.760510e+003, 1.498616e-001
3.762438e+003, 1.508705e-001
3.764367e+003, 1.511166e-001
3.766295e+003, 1.509654e-001
3.768224e+003, 1.506010e-001
3.770152e+003, 1.499893e-001
3.772081e+003, 1.499014e-001
3.774009e+003, 1.501357e-001
3.775938e+003, 1.500286e-001
3.777866e+003, 1.500083e-001
3.779795e+003, 1.502062e-001
3.781723e+003, 1.505614e-001
3.783652e+003, 1.511703e-001
3.785580e+003, 1.509640e-001
3.787509e+003, 1.511936e-001
3.789437e+003, 1.517619e-001
3.791365e+003, 1.510878e-001
3.793294e+003, 1.504549e-001
3.795222e+003, 1.511259e-001
3.797151e+003, 1.513178e-001
3.799079e+003, 1.510008e-001
3.801008e+003, 1.501696e-001
3.802936e+003, 1.504931e-001
3.804865e+003, 1.507803e-001
3.806793e+003, 1.507256e-001
3.808722e+003, 1.514876e-001
3.810650e+003, 1.514466e-001
3.812579e+003, 1.517345e-001
3.814507e+003, 1.509666e-001
3.816436e+003, 1.509409e-001
3.818364e+003, 1.522446e-001
3.820292e+003, 1.516444e-001
3.822221e+003, 1.513912e-001
3.824149e+003, 1.519301e-001
3.826078e+003, 1.517605e-001
3.828006e+003, 1.525871e-001
3.829935e+003, 1.529460e-001
3.831863e+003, 1.527133e-001
3.833792e+003, 1.523646e-001
3.835720e+003, 1.511340e-001
3.837649e+003, 1.504583e-001
3.839577e+003, 1.518114e-001
3.841506e+003, 1.528297e-001
3.843434e+003, 1.524132e-001
3.845363e+003, 1.529690e-001
3.847291e+003, 1.543754e-001
3.849219e+003, 1.541806e-001
3.851148e+003, 1.522056e-001
3.853076e+003, 1.503060e-001
3.855005e+003, 1.512446e-001
3.856933e+003, 1.535786e-001
3.858862e+003, 1.544636e-001
3.860790e+003, 1.542694e-001
3.862719e+003, 1.537689e-001
3.864647e+003, 1.535418e-001
3.866576e+003, 1.536549e-001
3.868504e+003, 1.530592e-001
3.870433e+003, 1.533806e-001
3.872361e+003, 1.542700e-001
3.874290e+003, 1.547577e-001
3.876218e+003, 1.551398e-001
3.878146e+003, 1.544894e-001
3.880075e+003, 1.542570e-001
3.882003e+003, 1.552067e-001
3.883932e+003, 1.553318e-001
3.885860e+003, 1.551183e-001
3.887789e+003, 1.550156e-001
3.889717e+003, 1.545332e-001
3.891646e+003, 1.542964e-001
3.893574e+003, 1.543469e-001
3.895503e+003, 1.546687e-001
3.897431e+003, 1.551356e-001
3.899360e+003, 1.546091e-001
3.901288e+003, 1.543455e-001
3.903217e+003, 1.542913e-001
3.905145e+003, 1.545131e-001
3.907073e+003, 1.546920e-001
3.909002e+003, 1.555449e-001
3.910930e+003, 1.563364e-001
3.912859e+003, 1.559511e-001
3.914787e+003, 1.549829e-001
3.916716e+003, 1.554926e-001
3.918644e+003, 1.560478e-001
3.920573e+003, 1.558417e-001
3.922501e+003, 1.567580e-001
3.924430e+003, 1.566956e-001
3.926358e+003, 1.561177e-001
3.928287e+003, 1.560151e-001
3.930215e+003, 1.562869e-001
3.932144e+003, 1.563361e-001
3.934072e+003, 1.560067e-001
3.936000e+003, 1.561222e-001
3.937929e+003, 1.567568e-001
3.939857e+003, 1.575245e-001
3.941786e+003, 1.577417e-001
3.943714e+003, 1.582500e-001
3.945643e+003, 1.578115e-001
3.947571e+003, 1.560510e-001
3.949500e+003, 1.558802e-001
3.951428e+003, 1.572576e-001
3.953357e+003, 1.576240e-001
3.955285e+003, 1.569435e-001
3.957214e+003, 1.578042e-001
3.959142e+003, 1.581704e-001
3.961071e+003, 1.572295e-001
3.962999e+003, 1.574952e-001
3.964927e+003, 1.583480e-001
3.966856e+003, 1.584906e-001
3.968784e+003, 1.586514e-001
3.970713e+003, 1.590060e-001
3.972641e+003, 1.589000e-001
3.974570e+003, 1.587556e-001
3.976498e+003, 1.588705e-001
3.978427e+003, 1.583809e-001
3.980355e+003, 1.582233e-001
3.982284e+003, 1.590669e-001
3.984212e+003, 1.598640e-001
3.986141e+003, 1.598904e-001
3.988069e+003, 1.596774e-001
3.989998e+003, 1.592137e-001
3.991926e+003, 1.587822e-001
3.993854e+003, 1.597287e-001
3.995783e+003, 1.594419e-001
3.997711e+003, 1.597504e-001
3.999640e+003, 1.605978e-001
##END=



