##NAMES=Columbite-(Mn)
##RRUFFID=R050359
##IDEAL CHEMISTRY=Mn^2+^Nb^5+^_2_O_6_
##LOCALITY=Black Hills, South Dakota, USA
##OWNER=RRUFF
##SOURCE=University of Arizona Mineral Museum
##DESCRIPTION=Black cleavage fragment
##STATUS=The identification of this mineral has been confirmed by X-ray diffraction and chemical analysis
##URL=rruff.info/R050359
##MEASURED CHEMISTRY=(Mn^2+^_0.58_Fe^2+^_0.38_Ti_0.02_[box]_0.02_)(Nb_0.66_Ta_0.34_)_2_O_6_
3.991926e+002, 2.050266e-001
4.011211e+002, 2.091763e-001
4.030496e+002, 2.101819e-001
4.049780e+002, 2.122205e-001
4.069065e+002, 2.091220e-001
4.088350e+002, 2.101096e-001
4.107634e+002, 2.107313e-001
4.126919e+002, 2.076540e-001
4.146204e+002, 2.124048e-001
4.165488e+002, 2.166204e-001
4.184773e+002, 2.143531e-001
4.204058e+002, 2.137772e-001
4.223342e+002, 2.132706e-001
4.242627e+002, 2.149022e-001
4.261912e+002, 2.175156e-001
4.281196e+002, 2.220578e-001
4.300481e+002, 2.243937e-001
4.319766e+002, 2.264817e-001
4.339050e+002, 2.282042e-001
4.358335e+002, 2.306116e-001
4.377620e+002, 2.296894e-001
4.396904e+002, 2.300364e-001
4.416189e+002, 2.324124e-001
4.435474e+002, 2.340845e-001
4.454758e+002, 2.354861e-001
4.474043e+002, 2.391042e-001
4.493328e+002, 2.382230e-001
4.512612e+002, 2.370343e-001
4.531897e+002, 2.355925e-001
4.551182e+002, 2.353570e-001
4.570466e+002, 2.354980e-001
4.589751e+002, 2.361362e-001
4.609036e+002, 2.359045e-001
4.628320e+002, 2.360462e-001
4.647605e+002, 2.360323e-001
4.666890e+002, 2.358534e-001
4.686174e+002, 2.351663e-001
4.705459e+002, 2.350255e-001
4.724744e+002, 2.362773e-001
4.744028e+002, 2.358983e-001
4.763313e+002, 2.354583e-001
4.782598e+002, 2.364339e-001
4.801882e+002, 2.360714e-001
4.821167e+002, 2.365754e-001
4.840452e+002, 2.363660e-001
4.859736e+002, 2.374877e-001
4.879021e+002, 2.366019e-001
4.898306e+002, 2.354028e-001
4.917590e+002, 2.356555e-001
4.936875e+002, 2.367018e-001
4.956160e+002, 2.352288e-001
4.975444e+002, 2.338551e-001
4.994729e+002, 2.346203e-001
5.014014e+002, 2.353231e-001
5.033298e+002, 2.344402e-001
5.052583e+002, 2.330743e-001
5.071868e+002, 2.322500e-001
5.091152e+002, 2.309471e-001
5.110437e+002, 2.296550e-001
5.129722e+002, 2.291330e-001
5.149006e+002, 2.285715e-001
5.168291e+002, 2.276672e-001
5.187576e+002, 2.268509e-001
5.206860e+002, 2.275504e-001
5.226145e+002, 2.270956e-001
5.245430e+002, 2.256787e-001
5.264714e+002, 2.255799e-001
5.283999e+002, 2.255251e-001
5.303284e+002, 2.243669e-001
5.322568e+002, 2.244801e-001
5.341853e+002, 2.253484e-001
5.361138e+002, 2.243992e-001
5.380422e+002, 2.235307e-001
5.399707e+002, 2.242117e-001
5.418992e+002, 2.246437e-001
5.438276e+002, 2.237508e-001
5.457561e+002, 2.239070e-001
5.476846e+002, 2.243735e-001
5.496130e+002, 2.232886e-001
5.515415e+002, 2.226653e-001
5.534700e+002, 2.239962e-001
5.553984e+002, 2.235458e-001
5.573269e+002, 2.218742e-001
5.592554e+002, 2.213065e-001
5.611838e+002, 2.212326e-001
5.631123e+002, 2.205913e-001
5.650408e+002, 2.196324e-001
5.669692e+002, 2.186810e-001
5.688977e+002, 2.183967e-001
5.708262e+002, 2.172768e-001
5.727546e+002, 2.158736e-001
5.746831e+002, 2.157446e-001
5.766116e+002, 2.148206e-001
5.785400e+002, 2.129118e-001
5.804685e+002, 2.110427e-001
5.823970e+002, 2.103092e-001
5.843254e+002, 2.098934e-001
5.862539e+002, 2.096445e-001
5.881824e+002, 2.085823e-001
5.901108e+002, 2.086467e-001
5.920393e+002, 2.086405e-001
5.939678e+002, 2.076916e-001
5.958962e+002, 2.069656e-001
5.978247e+002, 2.063849e-001
5.997532e+002, 2.059959e-001
6.016816e+002, 2.049267e-001
6.036101e+002, 2.039326e-001
6.055386e+002, 2.032374e-001
6.074670e+002, 2.027246e-001
6.093955e+002, 2.024581e-001
6.113240e+002, 2.011660e-001
6.132524e+002, 2.003378e-001
6.151809e+002, 2.006849e-001
6.171094e+002, 2.008245e-001
6.190378e+002, 2.007206e-001
6.209663e+002, 2.005797e-001
6.228948e+002, 2.006342e-001
6.248232e+002, 2.008892e-001
6.267517e+002, 2.007651e-001
6.286802e+002, 2.001461e-001
6.306086e+002, 1.990439e-001
6.325371e+002, 1.984514e-001
6.344656e+002, 1.980659e-001
6.363940e+002, 1.969727e-001
6.383225e+002, 1.957690e-001
6.402510e+002, 1.951613e-001
6.421794e+002, 1.944378e-001
6.441079e+002, 1.935393e-001
6.460364e+002, 1.925220e-001
6.479648e+002, 1.921878e-001
6.498933e+002, 1.920256e-001
6.518218e+002, 1.915456e-001
6.537502e+002, 1.912854e-001
6.556787e+002, 1.916188e-001
6.576072e+002, 1.912852e-001
6.595356e+002, 1.906465e-001
6.614641e+002, 1.902512e-001
6.633926e+002, 1.902861e-001
6.653210e+002, 1.904262e-001
6.672495e+002, 1.904119e-001
6.691780e+002, 1.902106e-001
6.711064e+002, 1.900152e-001
6.730349e+002, 1.896407e-001
6.749634e+002, 1.893601e-001
6.768918e+002, 1.893502e-001
6.788203e+002, 1.891452e-001
6.807488e+002, 1.892549e-001
6.826772e+002, 1.892609e-001
6.846057e+002, 1.886136e-001
6.865342e+002, 1.881633e-001
6.884626e+002, 1.878214e-001
6.903911e+002, 1.868563e-001
6.923196e+002, 1.855519e-001
6.942480e+002, 1.841334e-001
6.961765e+002, 1.827370e-001
6.981050e+002, 1.811834e-001
7.000334e+002, 1.794520e-001
7.019619e+002, 1.775414e-001
7.038904e+002, 1.760067e-001
7.058188e+002, 1.740508e-001
7.077473e+002, 1.714940e-001
7.096758e+002, 1.689315e-001
7.116042e+002, 1.664476e-001
7.135327e+002, 1.638138e-001
7.154612e+002, 1.609078e-001
7.173896e+002, 1.582626e-001
7.193181e+002, 1.557038e-001
7.212466e+002, 1.528354e-001
7.231750e+002, 1.497923e-001
7.251035e+002, 1.471247e-001
7.270320e+002, 1.446480e-001
7.289604e+002, 1.418554e-001
7.308889e+002, 1.388157e-001
7.328174e+002, 1.360671e-001
7.347458e+002, 1.332602e-001
7.366743e+002, 1.311716e-001
7.386028e+002, 1.292117e-001
7.405313e+002, 1.267682e-001
7.424597e+002, 1.245832e-001
7.443882e+002, 1.225747e-001
7.463167e+002, 1.205465e-001
7.482451e+002, 1.187881e-001
7.501736e+002, 1.170720e-001
7.521021e+002, 1.156746e-001
7.540305e+002, 1.142140e-001
7.559590e+002, 1.127029e-001
7.578875e+002, 1.114655e-001
7.598159e+002, 1.102640e-001
7.617444e+002, 1.092360e-001
7.636729e+002, 1.082940e-001
7.656013e+002, 1.070989e-001
7.675298e+002, 1.064227e-001
7.694583e+002, 1.056122e-001
7.713867e+002, 1.044803e-001
7.733152e+002, 1.033950e-001
7.752437e+002, 1.027386e-001
7.771721e+002, 1.017713e-001
7.791006e+002, 1.007180e-001
7.810291e+002, 9.997125e-002
7.829575e+002, 9.916836e-002
7.848860e+002, 9.860976e-002
7.868145e+002, 9.796985e-002
7.887429e+002, 9.718025e-002
7.906714e+002, 9.636471e-002
7.925999e+002, 9.542593e-002
7.945283e+002, 9.485532e-002
7.964568e+002, 9.416267e-002
7.983853e+002, 9.306476e-002
8.003137e+002, 9.230728e-002
8.022422e+002, 9.147257e-002
8.041707e+002, 9.086333e-002
8.060991e+002, 9.000205e-002
8.080276e+002, 8.906868e-002
8.099561e+002, 8.860000e-002
8.118845e+002, 8.827630e-002
8.138130e+002, 8.765006e-002
8.157415e+002, 8.727382e-002
8.176699e+002, 8.713571e-002
8.195984e+002, 8.674368e-002
8.215269e+002, 8.607254e-002
8.234553e+002, 8.589577e-002
8.253838e+002, 8.590089e-002
8.273123e+002, 8.546492e-002
8.292407e+002, 8.482055e-002
8.311692e+002, 8.450689e-002
8.330977e+002, 8.408806e-002
8.350261e+002, 8.341586e-002
8.369546e+002, 8.271627e-002
8.388831e+002, 8.180344e-002
8.408115e+002, 8.055711e-002
8.427400e+002, 7.931769e-002
8.446685e+002, 7.778813e-002
8.465969e+002, 7.627839e-002
8.485254e+002, 7.437681e-002
8.504539e+002, 7.208610e-002
8.523823e+002, 7.014369e-002
8.543108e+002, 6.810162e-002
8.562393e+002, 6.578421e-002
8.581677e+002, 6.351925e-002
8.600962e+002, 6.166811e-002
8.620247e+002, 5.991718e-002
8.639531e+002, 5.772502e-002
8.658816e+002, 5.543373e-002
8.678101e+002, 5.332036e-002
8.697385e+002, 5.105523e-002
8.716670e+002, 4.833106e-002
8.735955e+002, 4.562697e-002
8.755239e+002, 4.277335e-002
8.774524e+002, 3.974653e-002
8.793809e+002, 3.675504e-002
8.813093e+002, 3.400998e-002
8.832378e+002, 3.150396e-002
8.851663e+002, 2.923862e-002
8.870947e+002, 2.689488e-002
8.890232e+002, 2.486713e-002
8.909517e+002, 2.310521e-002
8.928801e+002, 2.179563e-002
8.948085e+002, 2.083476e-002
8.967370e+002, 2.007560e-002
8.986655e+002, 1.978205e-002
9.005939e+002, 1.938125e-002
9.025224e+002, 1.905975e-002
9.044509e+002, 1.895145e-002
9.063793e+002, 1.871026e-002
9.083078e+002, 1.823993e-002
9.102363e+002, 1.798204e-002
9.121647e+002, 1.777897e-002
9.140932e+002, 1.770390e-002
9.160217e+002, 1.761245e-002
9.179501e+002, 1.707612e-002
9.198786e+002, 1.658962e-002
9.218071e+002, 1.622674e-002
9.237355e+002, 1.574483e-002
9.256640e+002, 1.561190e-002
9.275925e+002, 1.543130e-002
9.295209e+002, 1.496373e-002
9.314494e+002, 1.473008e-002
9.333779e+002, 1.451911e-002
9.353063e+002, 1.424992e-002
9.372348e+002, 1.427361e-002
9.391633e+002, 1.439561e-002
9.410917e+002, 1.435379e-002
9.430202e+002, 1.411743e-002
9.449487e+002, 1.394785e-002
9.468771e+002, 1.398232e-002
9.488056e+002, 1.401912e-002
9.507341e+002, 1.404276e-002
9.526625e+002, 1.391148e-002
9.545910e+002, 1.392953e-002
9.565195e+002, 1.365244e-002
9.584479e+002, 1.359645e-002
9.603764e+002, 1.390886e-002
9.623049e+002, 1.421485e-002
9.642333e+002, 1.430178e-002
9.661618e+002, 1.413354e-002
9.680903e+002, 1.381086e-002
9.700187e+002, 1.372822e-002
9.719472e+002, 1.398904e-002
9.738757e+002, 1.409495e-002
9.758041e+002, 1.420009e-002
9.777326e+002, 1.436221e-002
9.796611e+002, 1.422752e-002
9.815895e+002, 1.420108e-002
9.835180e+002, 1.472096e-002
9.854465e+002, 1.528963e-002
9.873749e+002, 1.548393e-002
9.893034e+002, 1.562443e-002
9.912319e+002, 1.585854e-002
9.931603e+002, 1.632473e-002
9.950888e+002, 1.674903e-002
9.970173e+002, 1.682881e-002
9.989457e+002, 1.685431e-002
1.000874e+003, 1.723106e-002
1.002803e+003, 1.774350e-002
1.004731e+003, 1.825612e-002
1.006660e+003, 1.878309e-002
1.008588e+003, 1.908763e-002
1.010517e+003, 1.978406e-002
1.012445e+003, 2.045640e-002
1.014373e+003, 2.084540e-002
1.016302e+003, 2.128449e-002
1.018230e+003, 2.185301e-002
1.020159e+003, 2.274468e-002
1.022087e+003, 2.370618e-002
1.024016e+003, 2.437662e-002
1.025944e+003, 2.502340e-002
1.027873e+003, 2.584204e-002
1.029801e+003, 2.662779e-002
1.031730e+003, 2.782089e-002
1.033658e+003, 2.901194e-002
1.035587e+003, 3.006621e-002
1.037515e+003, 3.132057e-002
1.039444e+003, 3.256611e-002
1.041372e+003, 3.371450e-002
1.043301e+003, 3.461037e-002
1.045229e+003, 3.540047e-002
1.047157e+003, 3.599323e-002
1.049086e+003, 3.616182e-002
1.051014e+003, 3.631048e-002
1.052943e+003, 3.654872e-002
1.054871e+003, 3.669844e-002
1.056800e+003, 3.677509e-002
1.058728e+003, 3.677018e-002
1.060657e+003, 3.636019e-002
1.062585e+003, 3.576556e-002
1.064514e+003, 3.523883e-002
1.066442e+003, 3.477351e-002
1.068371e+003, 3.448626e-002
1.070299e+003, 3.416819e-002
1.072228e+003, 3.374876e-002
1.074156e+003, 3.345437e-002
1.076084e+003, 3.335747e-002
1.078013e+003, 3.323189e-002
1.079941e+003, 3.315587e-002
1.081870e+003, 3.283377e-002
1.083798e+003, 3.228759e-002
1.085727e+003, 3.221906e-002
1.087655e+003, 3.257710e-002
1.089584e+003, 3.317750e-002
1.091512e+003, 3.387518e-002
1.093441e+003, 3.444114e-002
1.095369e+003, 3.441019e-002
1.097298e+003, 3.430504e-002
1.099226e+003, 3.455732e-002
1.101155e+003, 3.477345e-002
1.103083e+003, 3.452581e-002
1.105011e+003, 3.402499e-002
1.106940e+003, 3.333712e-002
1.108868e+003, 3.304346e-002
1.110797e+003, 3.289083e-002
1.112725e+003, 3.197864e-002
1.114654e+003, 3.103661e-002
1.116582e+003, 3.028091e-002
1.118511e+003, 2.949284e-002
1.120439e+003, 2.885478e-002
1.122368e+003, 2.851465e-002
1.124296e+003, 2.809110e-002
1.126225e+003, 2.777862e-002
1.128153e+003, 2.742564e-002
1.130082e+003, 2.719817e-002
1.132010e+003, 2.716506e-002
1.133938e+003, 2.679170e-002
1.135867e+003, 2.644963e-002
1.137795e+003, 2.626457e-002
1.139724e+003, 2.633883e-002
1.141652e+003, 2.622931e-002
1.143581e+003, 2.589076e-002
1.145509e+003, 2.560552e-002
1.147438e+003, 2.549879e-002
1.149366e+003, 2.524580e-002
1.151295e+003, 2.530999e-002
1.153223e+003, 2.550583e-002
1.155152e+003, 2.558892e-002
1.157080e+003, 2.566416e-002
1.159009e+003, 2.555213e-002
1.160937e+003, 2.577574e-002
1.162865e+003, 2.592684e-002
1.164794e+003, 2.605581e-002
1.166722e+003, 2.598830e-002
1.168651e+003, 2.579302e-002
1.170579e+003, 2.594068e-002
1.172508e+003, 2.618669e-002
1.174436e+003, 2.643107e-002
1.176365e+003, 2.655137e-002
1.178293e+003, 2.647811e-002
1.180222e+003, 2.670606e-002
1.182150e+003, 2.692237e-002
1.184079e+003, 2.703138e-002
1.186007e+003, 2.736035e-002
1.187936e+003, 2.738845e-002
1.189864e+003, 2.733867e-002
1.191792e+003, 2.748103e-002
1.193721e+003, 2.776397e-002
1.195649e+003, 2.782671e-002
1.197578e+003, 2.769203e-002
1.199506e+003, 2.770241e-002
1.201435e+003, 2.793721e-002
1.203363e+003, 2.798575e-002
1.205292e+003, 2.785140e-002
1.207220e+003, 2.791018e-002
1.209149e+003, 2.818751e-002
1.211077e+003, 2.843646e-002
1.213006e+003, 2.842892e-002
1.214934e+003, 2.845564e-002
1.216863e+003, 2.877663e-002
1.218791e+003, 2.881678e-002
1.220719e+003, 2.888189e-002
1.222648e+003, 2.879487e-002
1.224576e+003, 2.893587e-002
1.226505e+003, 2.921029e-002
1.228433e+003, 2.914835e-002
1.230362e+003, 2.906005e-002
1.232290e+003, 2.922426e-002
1.234219e+003, 2.946183e-002
1.236147e+003, 2.984091e-002
1.238076e+003, 3.002205e-002
1.240004e+003, 3.004422e-002
1.241933e+003, 3.033710e-002
1.243861e+003, 3.068059e-002
1.245790e+003, 3.063655e-002
1.247718e+003, 3.068638e-002
1.249646e+003, 3.100896e-002
1.251575e+003, 3.143122e-002
1.253503e+003, 3.143895e-002
1.255432e+003, 3.135846e-002
1.257360e+003, 3.161426e-002
1.259289e+003, 3.186134e-002
1.261217e+003, 3.230796e-002
1.263146e+003, 3.265614e-002
1.265074e+003, 3.259630e-002
1.267003e+003, 3.283201e-002
1.268931e+003, 3.315157e-002
1.270860e+003, 3.353167e-002
1.272788e+003, 3.408470e-002
1.274717e+003, 3.431031e-002
1.276645e+003, 3.426619e-002
1.278573e+003, 3.439375e-002
1.280502e+003, 3.476942e-002
1.282430e+003, 3.510696e-002
1.284359e+003, 3.504641e-002
1.286287e+003, 3.495841e-002
1.288216e+003, 3.527198e-002
1.290144e+003, 3.528945e-002
1.292073e+003, 3.533230e-002
1.294001e+003, 3.553744e-002
1.295930e+003, 3.601395e-002
1.297858e+003, 3.633896e-002
1.299787e+003, 3.652012e-002
1.301715e+003, 3.671844e-002
1.303644e+003, 3.680252e-002
1.305572e+003, 3.718805e-002
1.307500e+003, 3.758694e-002
1.309429e+003, 3.761220e-002
1.311357e+003, 3.768983e-002
1.313286e+003, 3.810209e-002
1.315214e+003, 3.826973e-002
1.317143e+003, 3.853570e-002
1.319071e+003, 3.876550e-002
1.321000e+003, 3.896686e-002
1.322928e+003, 3.931122e-002
1.324857e+003, 3.953839e-002
1.326785e+003, 3.972220e-002
1.328714e+003, 3.991400e-002
1.330642e+003, 3.999187e-002
1.332571e+003, 4.034928e-002
1.334499e+003, 4.054376e-002
1.336427e+003, 4.073277e-002
1.338356e+003, 4.095578e-002
1.340284e+003, 4.095943e-002
1.342213e+003, 4.127827e-002
1.344141e+003, 4.191358e-002
1.346070e+003, 4.205610e-002
1.347998e+003, 4.192660e-002
1.349927e+003, 4.198452e-002
1.351855e+003, 4.250887e-002
1.353784e+003, 4.287505e-002
1.355712e+003, 4.285553e-002
1.357641e+003, 4.296497e-002
1.359569e+003, 4.314851e-002
1.361498e+003, 4.330479e-002
1.363426e+003, 4.384638e-002
1.365354e+003, 4.430674e-002
1.367283e+003, 4.436673e-002
1.369211e+003, 4.446892e-002
1.371140e+003, 4.473540e-002
1.373068e+003, 4.524425e-002
1.374997e+003, 4.573339e-002
1.376925e+003, 4.584087e-002
1.378854e+003, 4.606912e-002
1.380782e+003, 4.620890e-002
1.382711e+003, 4.639519e-002
1.384639e+003, 4.670979e-002
1.386568e+003, 4.683170e-002
1.388496e+003, 4.702456e-002
1.390424e+003, 4.748072e-002
1.392353e+003, 4.787581e-002
1.394281e+003, 4.832428e-002
1.396210e+003, 4.877325e-002
1.398138e+003, 4.907903e-002
1.400067e+003, 4.920100e-002
1.401995e+003, 4.933627e-002
1.403924e+003, 4.980182e-002
1.405852e+003, 4.995641e-002
1.407781e+003, 5.018117e-002
1.409709e+003, 5.072302e-002
1.411638e+003, 5.089862e-002
1.413566e+003, 5.114370e-002
1.415495e+003, 5.156857e-002
1.417423e+003, 5.193953e-002
1.419351e+003, 5.213895e-002
1.421280e+003, 5.244122e-002
1.423208e+003, 5.254611e-002
1.425137e+003, 5.253979e-002
1.427065e+003, 5.300154e-002
1.428994e+003, 5.334312e-002
1.430922e+003, 5.332076e-002
1.432851e+003, 5.347151e-002
1.434779e+003, 5.383398e-002
1.436708e+003, 5.404093e-002
1.438636e+003, 5.389976e-002
1.440565e+003, 5.377292e-002
1.442493e+003, 5.386385e-002
1.444422e+003, 5.420281e-002
1.446350e+003, 5.443341e-002
1.448278e+003, 5.455000e-002
1.450207e+003, 5.482940e-002
1.452135e+003, 5.546411e-002
1.454064e+003, 5.572824e-002
1.455992e+003, 5.601946e-002
1.457921e+003, 5.627324e-002
1.459849e+003, 5.595061e-002
1.461778e+003, 5.555449e-002
1.463706e+003, 5.569559e-002
1.465635e+003, 5.579060e-002
1.467563e+003, 5.561166e-002
1.469492e+003, 5.588757e-002
1.471420e+003, 5.652094e-002
1.473349e+003, 5.699913e-002
1.475277e+003, 5.709149e-002
1.477205e+003, 5.725472e-002
1.479134e+003, 5.751908e-002
1.481062e+003, 5.760148e-002
1.482991e+003, 5.790342e-002
1.484919e+003, 5.819622e-002
1.486848e+003, 5.848686e-002
1.488776e+003, 5.861089e-002
1.490705e+003, 5.859900e-002
1.492633e+003, 5.838326e-002
1.494562e+003, 5.866908e-002
1.496490e+003, 5.933845e-002
1.498419e+003, 5.940757e-002
1.500347e+003, 5.933731e-002
1.502276e+003, 5.931681e-002
1.504204e+003, 6.001639e-002
1.506132e+003, 6.094791e-002
1.508061e+003, 6.075352e-002
1.509989e+003, 6.041403e-002
1.511918e+003, 6.038589e-002
1.513846e+003, 6.074189e-002
1.515775e+003, 6.115378e-002
1.517703e+003, 6.128721e-002
1.519632e+003, 6.149959e-002
1.521560e+003, 6.178287e-002
1.523489e+003, 6.179710e-002
1.525417e+003, 6.212109e-002
1.527346e+003, 6.218395e-002
1.529274e+003, 6.224805e-002
1.531203e+003, 6.250192e-002
1.533131e+003, 6.291237e-002
1.535059e+003, 6.306619e-002
1.536988e+003, 6.340270e-002
1.538916e+003, 6.364247e-002
1.540845e+003, 6.374289e-002
1.542773e+003, 6.417367e-002
1.544702e+003, 6.443342e-002
1.546630e+003, 6.426925e-002
1.548559e+003, 6.428311e-002
1.550487e+003, 6.460524e-002
1.552416e+003, 6.485377e-002
1.554344e+003, 6.504180e-002
1.556273e+003, 6.537312e-002
1.558201e+003, 6.612198e-002
1.560130e+003, 6.596941e-002
1.562058e+003, 6.571849e-002
1.563986e+003, 6.592146e-002
1.565915e+003, 6.602877e-002
1.567843e+003, 6.613436e-002
1.569772e+003, 6.654897e-002
1.571700e+003, 6.680357e-002
1.573629e+003, 6.676319e-002
1.575557e+003, 6.702364e-002
1.577486e+003, 6.715261e-002
1.579414e+003, 6.699301e-002
1.581343e+003, 6.687165e-002
1.583271e+003, 6.702098e-002
1.585200e+003, 6.734022e-002
1.587128e+003, 6.716298e-002
1.589057e+003, 6.701896e-002
1.590985e+003, 6.782013e-002
1.592913e+003, 6.840446e-002
1.594842e+003, 6.870746e-002
1.596770e+003, 6.883093e-002
1.598699e+003, 6.875952e-002
1.600627e+003, 6.890968e-002
1.602556e+003, 6.920012e-002
1.604484e+003, 6.932103e-002
1.606413e+003, 6.972428e-002
1.608341e+003, 7.028021e-002
1.610270e+003, 7.053850e-002
1.612198e+003, 7.049813e-002
1.614127e+003, 7.041828e-002
1.616055e+003, 7.068484e-002
1.617984e+003, 7.102075e-002
1.619912e+003, 7.093500e-002
1.621840e+003, 7.120010e-002
1.623769e+003, 7.141871e-002
1.625697e+003, 7.161864e-002
1.627626e+003, 7.192943e-002
1.629554e+003, 7.183804e-002
1.631483e+003, 7.198773e-002
1.633411e+003, 7.238976e-002
1.635340e+003, 7.275665e-002
1.637268e+003, 7.302903e-002
1.639197e+003, 7.278980e-002
1.641125e+003, 7.282154e-002
1.643054e+003, 7.369285e-002
1.644982e+003, 7.431705e-002
1.646911e+003, 7.423957e-002
1.648839e+003, 7.393894e-002
1.650767e+003, 7.419150e-002
1.652696e+003, 7.507710e-002
1.654624e+003, 7.486419e-002
1.656553e+003, 7.407419e-002
1.658481e+003, 7.373752e-002
1.660410e+003, 7.397473e-002
1.662338e+003, 7.451913e-002
1.664267e+003, 7.478132e-002
1.666195e+003, 7.461055e-002
1.668124e+003, 7.480098e-002
1.670052e+003, 7.495978e-002
1.671981e+003, 7.518722e-002
1.673909e+003, 7.548133e-002
1.675838e+003, 7.540389e-002
1.677766e+003, 7.519095e-002
1.679694e+003, 7.539814e-002
1.681623e+003, 7.557040e-002
1.683551e+003, 7.613531e-002
1.685480e+003, 7.655063e-002
1.687408e+003, 7.612833e-002
1.689337e+003, 7.587100e-002
1.691265e+003, 7.588360e-002
1.693194e+003, 7.599283e-002
1.695122e+003, 7.660303e-002
1.697051e+003, 7.686423e-002
1.698979e+003, 7.710668e-002
1.700908e+003, 7.710955e-002
1.702836e+003, 7.653064e-002
1.704765e+003, 7.663780e-002
1.706693e+003, 7.713973e-002
1.708621e+003, 7.712683e-002
1.710550e+003, 7.695559e-002
1.712478e+003, 7.696362e-002
1.714407e+003, 7.725973e-002
1.716335e+003, 7.783370e-002
1.718264e+003, 7.796781e-002
1.720192e+003, 7.744875e-002
1.722121e+003, 7.742894e-002
1.724049e+003, 7.758451e-002
1.725978e+003, 7.773967e-002
1.727906e+003, 7.803164e-002
1.729835e+003, 7.816369e-002
1.731763e+003, 7.810510e-002
1.733692e+003, 7.805615e-002
1.735620e+003, 7.756877e-002
1.737548e+003, 7.725884e-002
1.739477e+003, 7.727698e-002
1.741405e+003, 7.720876e-002
1.743334e+003, 7.731493e-002
1.745262e+003, 7.732732e-002
1.747191e+003, 7.753650e-002
1.749119e+003, 7.831695e-002
1.751048e+003, 7.892595e-002
1.752976e+003, 7.885250e-002
1.754905e+003, 7.868958e-002
1.756833e+003, 7.915778e-002
1.758762e+003, 7.943405e-002
1.760690e+003, 8.000939e-002
1.762619e+003, 8.032271e-002
1.764547e+003, 8.033637e-002
1.766475e+003, 8.074911e-002
1.768404e+003, 8.130259e-002
1.770332e+003, 8.155384e-002
1.772261e+003, 8.171483e-002
1.774189e+003, 8.171557e-002
1.776118e+003, 8.140613e-002
1.778046e+003, 8.152469e-002
1.779975e+003, 8.211890e-002
1.781903e+003, 8.243509e-002
1.783832e+003, 8.254534e-002
1.785760e+003, 8.254243e-002
1.787689e+003, 8.278648e-002
1.789617e+003, 8.290917e-002
1.791546e+003, 8.342097e-002
1.793474e+003, 8.408815e-002
1.795402e+003, 8.391532e-002
1.797331e+003, 8.369540e-002
1.799259e+003, 8.388775e-002
1.801188e+003, 8.439691e-002
1.803116e+003, 8.467509e-002
1.805045e+003, 8.453944e-002
1.806973e+003, 8.454460e-002
1.808902e+003, 8.492213e-002
1.810830e+003, 8.510894e-002
1.812759e+003, 8.460099e-002
1.814687e+003, 8.455857e-002
1.816616e+003, 8.538688e-002
1.818544e+003, 8.611947e-002
1.820473e+003, 8.641223e-002
1.822401e+003, 8.644267e-002
1.824329e+003, 8.687113e-002
1.826258e+003, 8.728398e-002
1.828186e+003, 8.750896e-002
1.830115e+003, 8.734485e-002
1.832043e+003, 8.719775e-002
1.833972e+003, 8.729821e-002
1.835900e+003, 8.726017e-002
1.837829e+003, 8.739477e-002
1.839757e+003, 8.752872e-002
1.841686e+003, 8.700873e-002
1.843614e+003, 8.678266e-002
1.845543e+003, 8.745238e-002
1.847471e+003, 8.759025e-002
1.849400e+003, 8.786302e-002
1.851328e+003, 8.824548e-002
1.853256e+003, 8.847810e-002
1.855185e+003, 8.828794e-002
1.857113e+003, 8.906242e-002
1.859042e+003, 8.954269e-002
1.860970e+003, 8.914597e-002
1.862899e+003, 8.929624e-002
1.864827e+003, 8.915239e-002
1.866756e+003, 8.917105e-002
1.868684e+003, 9.049395e-002
1.870613e+003, 9.133618e-002
1.872541e+003, 9.073990e-002
1.874470e+003, 8.987126e-002
1.876398e+003, 8.963282e-002
1.878327e+003, 8.993325e-002
1.880255e+003, 9.104216e-002
1.882183e+003, 9.159666e-002
1.884112e+003, 9.130213e-002
1.886040e+003, 9.138636e-002
1.887969e+003, 9.205239e-002
1.889897e+003, 9.135421e-002
1.891826e+003, 9.049127e-002
1.893754e+003, 9.088662e-002
1.895683e+003, 9.154478e-002
1.897611e+003, 9.189780e-002
1.899540e+003, 9.201948e-002
1.901468e+003, 9.153257e-002
1.903397e+003, 9.195472e-002
1.905325e+003, 9.256137e-002
1.907254e+003, 9.267709e-002
1.909182e+003, 9.235689e-002
1.911110e+003, 9.300780e-002
1.913039e+003, 9.329432e-002
1.914967e+003, 9.303696e-002
1.916896e+003, 9.310323e-002
1.918824e+003, 9.336735e-002
1.920753e+003, 9.370732e-002
1.922681e+003, 9.273900e-002
1.924610e+003, 9.229040e-002
1.926538e+003, 9.315019e-002
1.928467e+003, 9.381123e-002
1.930395e+003, 9.405178e-002
1.932324e+003, 9.437419e-002
1.934252e+003, 9.402571e-002
1.936181e+003, 9.347867e-002
1.938109e+003, 9.507228e-002
1.940037e+003, 9.527714e-002
1.941966e+003, 9.417410e-002
1.943894e+003, 9.388241e-002
1.945823e+003, 9.392533e-002
1.947751e+003, 9.325468e-002
1.949680e+003, 9.390973e-002
1.951608e+003, 9.507997e-002
1.953537e+003, 9.556157e-002
1.955465e+003, 9.514336e-002
1.957394e+003, 9.332972e-002
1.959322e+003, 9.246582e-002
1.961251e+003, 9.474905e-002
1.963179e+003, 9.527148e-002
1.965108e+003, 9.613908e-002
1.967036e+003, 9.537295e-002
1.968964e+003, 9.604568e-002
1.970893e+003, 9.769653e-002
1.972821e+003, 9.835672e-002
1.974750e+003, 9.800735e-002
1.976678e+003, 9.871740e-002
1.978607e+003, 9.777487e-002
1.980535e+003, 9.891745e-002
1.982464e+003, 1.006158e-001
1.984392e+003, 9.958224e-002
1.986321e+003, 1.002754e-001
1.988249e+003, 1.016961e-001
1.990178e+003, 1.001326e-001
1.992106e+003, 9.900202e-002
1.994035e+003, 9.803020e-002
1.995963e+003, 9.840463e-002
1.997891e+003, 9.969809e-002
1.999820e+003, 1.018040e-001
2.001748e+003, 1.007805e-001
2.003677e+003, 9.979571e-002
2.005605e+003, 1.009648e-001
2.007534e+003, 1.008838e-001
2.009462e+003, 1.007572e-001
2.011391e+003, 1.016191e-001
2.013319e+003, 1.006202e-001
2.015248e+003, 9.857596e-002
2.017176e+003, 9.935135e-002
2.019105e+003, 9.782586e-002
2.021033e+003, 9.802951e-002
2.022962e+003, 9.871078e-002
2.024890e+003, 9.839509e-002
2.026818e+003, 9.770277e-002
2.028747e+003, 1.014666e-001
2.030675e+003, 1.043973e-001
2.032604e+003, 1.023327e-001
2.034532e+003, 1.015432e-001
2.036461e+003, 1.021016e-001
2.038389e+003, 1.002503e-001
2.040318e+003, 9.799544e-002
2.042246e+003, 9.926654e-002
2.044175e+003, 9.962319e-002
2.046103e+003, 1.006296e-001
2.048032e+003, 1.033597e-001
2.049960e+003, 1.035340e-001
2.051889e+003, 1.027192e-001
2.053817e+003, 1.031640e-001
2.055746e+003, 1.042855e-001
2.057674e+003, 1.050855e-001
2.059603e+003, 1.039977e-001
2.061531e+003, 1.033561e-001
2.063459e+003, 1.036187e-001
2.065388e+003, 1.026950e-001
2.067316e+003, 1.018046e-001
2.069245e+003, 1.010810e-001
2.071173e+003, 1.026842e-001
2.073102e+003, 1.050417e-001
2.075030e+003, 1.043613e-001
2.076959e+003, 1.034388e-001
2.078887e+003, 1.044923e-001
2.080816e+003, 1.043079e-001
2.082744e+003, 1.025300e-001
2.084673e+003, 1.023915e-001
2.086601e+003, 1.034862e-001
2.088530e+003, 1.032419e-001
2.090458e+003, 1.017051e-001
2.092386e+003, 1.021317e-001
2.094315e+003, 1.029047e-001
2.096243e+003, 1.036730e-001
2.098172e+003, 1.052586e-001
2.100100e+003, 1.058194e-001
2.102029e+003, 1.052503e-001
2.103957e+003, 1.057417e-001
2.105886e+003, 1.064984e-001
2.107814e+003, 1.048717e-001
2.109743e+003, 1.044923e-001
2.111671e+003, 1.052026e-001
2.113600e+003, 1.055554e-001
2.115528e+003, 1.062089e-001
2.117457e+003, 1.042593e-001
2.119385e+003, 1.034903e-001
2.121313e+003, 1.061005e-001
2.123242e+003, 1.072836e-001
2.125170e+003, 1.068758e-001
2.127099e+003, 1.059910e-001
2.129027e+003, 1.041314e-001
2.130956e+003, 1.035797e-001
2.132884e+003, 1.035280e-001
2.134813e+003, 1.035613e-001
2.136741e+003, 1.041375e-001
2.138670e+003, 1.056375e-001
2.140598e+003, 1.064838e-001
2.142527e+003, 1.054621e-001
2.144455e+003, 1.034197e-001
2.146384e+003, 1.015899e-001
2.148312e+003, 1.000843e-001
2.150240e+003, 1.011581e-001
2.152169e+003, 1.028628e-001
2.154097e+003, 1.012424e-001
2.156026e+003, 9.839156e-002
2.157954e+003, 1.018464e-001
2.159883e+003, 1.072442e-001
2.161811e+003, 1.066879e-001
2.163740e+003, 1.038782e-001
2.165668e+003, 1.046346e-001
2.167597e+003, 1.080041e-001
2.169525e+003, 1.097376e-001
2.171454e+003, 1.081319e-001
2.173382e+003, 1.074902e-001
2.175311e+003, 1.091694e-001
2.177239e+003, 1.097144e-001
2.179167e+003, 1.118044e-001
2.181096e+003, 1.121067e-001
2.183024e+003, 1.100416e-001
2.184953e+003, 1.107098e-001
2.186881e+003, 1.116385e-001
2.188810e+003, 1.115829e-001
2.190738e+003, 1.099903e-001
2.192667e+003, 1.091656e-001
2.194595e+003, 1.099687e-001
2.196524e+003, 1.116106e-001
2.198452e+003, 1.127848e-001
2.200381e+003, 1.126317e-001
2.202309e+003, 1.110325e-001
2.204238e+003, 1.088478e-001
2.206166e+003, 1.098194e-001
2.208094e+003, 1.098314e-001
2.210023e+003, 1.090437e-001
2.211951e+003, 1.101434e-001
2.213880e+003, 1.094675e-001
2.215808e+003, 1.104549e-001
2.217737e+003, 1.125931e-001
2.219665e+003, 1.110449e-001
2.221594e+003, 1.101792e-001
2.223522e+003, 1.113349e-001
2.225451e+003, 1.114946e-001
2.227379e+003, 1.114120e-001
2.229308e+003, 1.122564e-001
2.231236e+003, 1.121581e-001
2.233165e+003, 1.140682e-001
2.235093e+003, 1.149880e-001
2.237021e+003, 1.152594e-001
2.238950e+003, 1.141557e-001
2.240878e+003, 1.129145e-001
2.242807e+003, 1.124838e-001
2.244735e+003, 1.127535e-001
2.246664e+003, 1.142813e-001
2.248592e+003, 1.149428e-001
2.250521e+003, 1.140909e-001
2.252449e+003, 1.135301e-001
2.254378e+003, 1.137757e-001
2.256306e+003, 1.150709e-001
2.258235e+003, 1.152471e-001
2.260163e+003, 1.150739e-001
2.262092e+003, 1.142626e-001
2.264020e+003, 1.133582e-001
2.265948e+003, 1.154391e-001
2.267877e+003, 1.169011e-001
2.269805e+003, 1.171672e-001
2.271734e+003, 1.167593e-001
2.273662e+003, 1.159743e-001
2.275591e+003, 1.158828e-001
2.277519e+003, 1.145598e-001
2.279448e+003, 1.141641e-001
2.281376e+003, 1.150604e-001
2.283305e+003, 1.158527e-001
2.285233e+003, 1.167260e-001
2.287162e+003, 1.161276e-001
2.289090e+003, 1.153621e-001
2.291019e+003, 1.160218e-001
2.292947e+003, 1.168245e-001
2.294875e+003, 1.169540e-001
2.296804e+003, 1.176001e-001
2.298732e+003, 1.172313e-001
2.300661e+003, 1.169856e-001
2.302589e+003, 1.178982e-001
2.304518e+003, 1.182728e-001
2.306446e+003, 1.181926e-001
2.308375e+003, 1.180333e-001
2.310303e+003, 1.182299e-001
2.312232e+003, 1.183741e-001
2.314160e+003, 1.182938e-001
2.316089e+003, 1.183899e-001
2.318017e+003, 1.182030e-001
2.319946e+003, 1.181877e-001
2.321874e+003, 1.194763e-001
2.323802e+003, 1.203582e-001
2.325731e+003, 1.193202e-001
2.327659e+003, 1.185859e-001
2.329588e+003, 1.191015e-001
2.331516e+003, 1.194513e-001
2.333445e+003, 1.189692e-001
2.335373e+003, 1.184746e-001
2.337302e+003, 1.191967e-001
2.339230e+003, 1.197108e-001
2.341159e+003, 1.194591e-001
2.343087e+003, 1.192114e-001
2.345016e+003, 1.195053e-001
2.346944e+003, 1.190170e-001
2.348873e+003, 1.185221e-001
2.350801e+003, 1.186637e-001
2.352729e+003, 1.197211e-001
2.354658e+003, 1.207313e-001
2.356586e+003, 1.202462e-001
2.358515e+003, 1.193653e-001
2.360443e+003, 1.198494e-001
2.362372e+003, 1.209993e-001
2.364300e+003, 1.202615e-001
2.366229e+003, 1.196966e-001
2.368157e+003, 1.200833e-001
2.370086e+003, 1.198362e-001
2.372014e+003, 1.202377e-001
2.373942e+003, 1.208710e-001
2.375871e+003, 1.203550e-001
2.377799e+003, 1.195341e-001
2.379728e+003, 1.193572e-001
2.381656e+003, 1.198590e-001
2.383585e+003, 1.186994e-001
2.385513e+003, 1.180241e-001
2.387442e+003, 1.191304e-001
2.389370e+003, 1.194900e-001
2.391299e+003, 1.194472e-001
2.393227e+003, 1.196355e-001
2.395156e+003, 1.199209e-001
2.397084e+003, 1.202103e-001
2.399012e+003, 1.216423e-001
2.400941e+003, 1.218106e-001
2.402869e+003, 1.210908e-001
2.404798e+003, 1.211722e-001
2.406726e+003, 1.215723e-001
2.408655e+003, 1.217687e-001
2.410583e+003, 1.226141e-001
2.412512e+003, 1.226599e-001
2.414440e+003, 1.211137e-001
2.416369e+003, 1.218618e-001
2.418297e+003, 1.224501e-001
2.420226e+003, 1.227844e-001
2.422154e+003, 1.217915e-001
2.424083e+003, 1.213495e-001
2.426011e+003, 1.225804e-001
2.427939e+003, 1.226562e-001
2.429868e+003, 1.222629e-001
2.431796e+003, 1.223041e-001
2.433725e+003, 1.219159e-001
2.435653e+003, 1.218842e-001
2.437582e+003, 1.218624e-001
2.439510e+003, 1.226924e-001
2.441439e+003, 1.236442e-001
2.443367e+003, 1.239235e-001
2.445296e+003, 1.234656e-001
2.447224e+003, 1.237507e-001
2.449153e+003, 1.234458e-001
2.451081e+003, 1.233657e-001
2.453010e+003, 1.248155e-001
2.454938e+003, 1.254242e-001
2.456866e+003, 1.244742e-001
2.458795e+003, 1.237073e-001
2.460723e+003, 1.245769e-001
2.462652e+003, 1.241008e-001
2.464580e+003, 1.246427e-001
2.466509e+003, 1.250062e-001
2.468437e+003, 1.242710e-001
2.470366e+003, 1.247767e-001
2.472294e+003, 1.246078e-001
2.474223e+003, 1.246648e-001
2.476151e+003, 1.248473e-001
2.478080e+003, 1.250507e-001
2.480008e+003, 1.251353e-001
2.481937e+003, 1.257522e-001
2.483865e+003, 1.260771e-001
2.485793e+003, 1.258734e-001
2.487722e+003, 1.261688e-001
2.489650e+003, 1.256742e-001
2.491579e+003, 1.251217e-001
2.493507e+003, 1.250110e-001
2.495436e+003, 1.260836e-001
2.497364e+003, 1.265011e-001
2.499293e+003, 1.270056e-001
2.501221e+003, 1.260687e-001
2.503150e+003, 1.253183e-001
2.505078e+003, 1.261665e-001
2.507007e+003, 1.271979e-001
2.508935e+003, 1.266602e-001
2.510864e+003, 1.260452e-001
2.512792e+003, 1.256967e-001
2.514720e+003, 1.251912e-001
2.516649e+003, 1.257157e-001
2.518577e+003, 1.261342e-001
2.520506e+003, 1.265504e-001
2.522434e+003, 1.266483e-001
2.524363e+003, 1.265972e-001
2.526291e+003, 1.264628e-001
2.528220e+003, 1.263553e-001
2.530148e+003, 1.266232e-001
2.532077e+003, 1.270258e-001
2.534005e+003, 1.263401e-001
2.535934e+003, 1.263836e-001
2.537862e+003, 1.276352e-001
2.539791e+003, 1.284302e-001
2.541719e+003, 1.270200e-001
2.543647e+003, 1.258948e-001
2.545576e+003, 1.260623e-001
2.547504e+003, 1.265302e-001
2.549433e+003, 1.272299e-001
2.551361e+003, 1.280132e-001
2.553290e+003, 1.287209e-001
2.555218e+003, 1.293480e-001
2.557147e+003, 1.295806e-001
2.559075e+003, 1.293831e-001
2.561004e+003, 1.278744e-001
2.562932e+003, 1.271346e-001
2.564861e+003, 1.282079e-001
2.566789e+003, 1.291863e-001
2.568718e+003, 1.285896e-001
2.570646e+003, 1.281927e-001
2.572574e+003, 1.285348e-001
2.574503e+003, 1.295270e-001
2.576431e+003, 1.309682e-001
2.578360e+003, 1.314328e-001
2.580288e+003, 1.317975e-001
2.582217e+003, 1.318535e-001
2.584145e+003, 1.305706e-001
2.586074e+003, 1.294838e-001
2.588002e+003, 1.289248e-001
2.589931e+003, 1.289589e-001
2.591859e+003, 1.292615e-001
2.593788e+003, 1.287075e-001
2.595716e+003, 1.293840e-001
2.597645e+003, 1.297531e-001
2.599573e+003, 1.303010e-001
2.601501e+003, 1.296287e-001
2.603430e+003, 1.304811e-001
2.605358e+003, 1.318346e-001
2.607287e+003, 1.321508e-001
2.609215e+003, 1.320234e-001
2.611144e+003, 1.306076e-001
2.613072e+003, 1.311042e-001
2.615001e+003, 1.319547e-001
2.616929e+003, 1.322798e-001
2.618858e+003, 1.323598e-001
2.620786e+003, 1.319093e-001
2.622715e+003, 1.318858e-001
2.624643e+003, 1.326845e-001
2.626572e+003, 1.324931e-001
2.628500e+003, 1.319091e-001
2.630428e+003, 1.322582e-001
2.632357e+003, 1.313753e-001
2.634285e+003, 1.306028e-001
2.636214e+003, 1.314564e-001
2.638142e+003, 1.322207e-001
2.640071e+003, 1.320964e-001
2.641999e+003, 1.321778e-001
2.643928e+003, 1.322514e-001
2.645856e+003, 1.320826e-001
2.647785e+003, 1.316692e-001
2.649713e+003, 1.317930e-001
2.651642e+003, 1.320723e-001
2.653570e+003, 1.326577e-001
2.655499e+003, 1.326320e-001
2.657427e+003, 1.320767e-001
2.659355e+003, 1.314559e-001
2.661284e+003, 1.320833e-001
2.663212e+003, 1.327596e-001
2.665141e+003, 1.322329e-001
2.667069e+003, 1.313424e-001
2.668998e+003, 1.312134e-001
2.670926e+003, 1.312749e-001
2.672855e+003, 1.316403e-001
2.674783e+003, 1.326369e-001
2.676712e+003, 1.324027e-001
2.678640e+003, 1.319257e-001
2.680569e+003, 1.327555e-001
2.682497e+003, 1.339608e-001
2.684426e+003, 1.339235e-001
2.686354e+003, 1.327834e-001
2.688282e+003, 1.334518e-001
2.690211e+003, 1.335878e-001
2.692139e+003, 1.327765e-001
2.694068e+003, 1.324123e-001
2.695996e+003, 1.337028e-001
2.697925e+003, 1.349015e-001
2.699853e+003, 1.348574e-001
2.701782e+003, 1.339157e-001
2.703710e+003, 1.333996e-001
2.705639e+003, 1.342846e-001
2.707567e+003, 1.346162e-001
2.709496e+003, 1.343195e-001
2.711424e+003, 1.339923e-001
2.713353e+003, 1.343821e-001
2.715281e+003, 1.350883e-001
2.717209e+003, 1.352807e-001
2.719138e+003, 1.348420e-001
2.721066e+003, 1.345860e-001
2.722995e+003, 1.355078e-001
2.724923e+003, 1.361820e-001
2.726852e+003, 1.364761e-001
2.728780e+003, 1.364618e-001
2.730709e+003, 1.357367e-001
2.732637e+003, 1.354067e-001
2.734566e+003, 1.348777e-001
2.736494e+003, 1.350524e-001
2.738423e+003, 1.360757e-001
2.740351e+003, 1.364225e-001
2.742280e+003, 1.366581e-001
2.744208e+003, 1.362222e-001
2.746136e+003, 1.368144e-001
2.748065e+003, 1.369763e-001
2.749993e+003, 1.363152e-001
2.751922e+003, 1.360319e-001
2.753850e+003, 1.368267e-001
2.755779e+003, 1.377993e-001
2.757707e+003, 1.375963e-001
2.759636e+003, 1.369762e-001
2.761564e+003, 1.365509e-001
2.763493e+003, 1.367048e-001
2.765421e+003, 1.376133e-001
2.767350e+003, 1.378891e-001
2.769278e+003, 1.373513e-001
2.771207e+003, 1.373550e-001
2.773135e+003, 1.377229e-001
2.775063e+003, 1.370531e-001
2.776992e+003, 1.362170e-001
2.778920e+003, 1.370102e-001
2.780849e+003, 1.378298e-001
2.782777e+003, 1.380203e-001
2.784706e+003, 1.386279e-001
2.786634e+003, 1.381228e-001
2.788563e+003, 1.379284e-001
2.790491e+003, 1.381908e-001
2.792420e+003, 1.392664e-001
2.794348e+003, 1.395256e-001
2.796277e+003, 1.388517e-001
2.798205e+003, 1.390542e-001
2.800134e+003, 1.401047e-001
2.802062e+003, 1.401566e-001
2.803990e+003, 1.392809e-001
2.805919e+003, 1.390925e-001
2.807847e+003, 1.392724e-001
2.809776e+003, 1.382027e-001
2.811704e+003, 1.378527e-001
2.813633e+003, 1.386576e-001
2.815561e+003, 1.385746e-001
2.817490e+003, 1.388485e-001
2.819418e+003, 1.388254e-001
2.821347e+003, 1.387006e-001
2.823275e+003, 1.392280e-001
2.825204e+003, 1.395048e-001
2.827132e+003, 1.400120e-001
2.829061e+003, 1.398358e-001
2.830989e+003, 1.388105e-001
2.832917e+003, 1.393843e-001
2.834846e+003, 1.412134e-001
2.836774e+003, 1.405440e-001
2.838703e+003, 1.385212e-001
2.840631e+003, 1.372557e-001
2.842560e+003, 1.378823e-001
2.844488e+003, 1.378280e-001
2.846417e+003, 1.367530e-001
2.848345e+003, 1.356851e-001
2.850274e+003, 1.347626e-001
2.852202e+003, 1.349785e-001
2.854131e+003, 1.353469e-001
2.856059e+003, 1.357453e-001
2.857988e+003, 1.366447e-001
2.859916e+003, 1.376154e-001
2.861844e+003, 1.386342e-001
2.863773e+003, 1.387472e-001
2.865701e+003, 1.376877e-001
2.867630e+003, 1.381508e-001
2.869558e+003, 1.387089e-001
2.871487e+003, 1.393661e-001
2.873415e+003, 1.391903e-001
2.875344e+003, 1.386689e-001
2.877272e+003, 1.396435e-001
2.879201e+003, 1.409286e-001
2.881129e+003, 1.412093e-001
2.883058e+003, 1.401322e-001
2.884986e+003, 1.395763e-001
2.886915e+003, 1.397264e-001
2.888843e+003, 1.397946e-001
2.890771e+003, 1.401758e-001
2.892700e+003, 1.405060e-001
2.894628e+003, 1.401017e-001
2.896557e+003, 1.404495e-001
2.898485e+003, 1.386123e-001
2.900414e+003, 1.367309e-001
2.902342e+003, 1.382513e-001
2.904271e+003, 1.393606e-001
2.906199e+003, 1.397831e-001
2.908128e+003, 1.400217e-001
2.910056e+003, 1.391100e-001
2.911985e+003, 1.382631e-001
2.913913e+003, 1.380268e-001
2.915842e+003, 1.372524e-001
2.917770e+003, 1.354008e-001
2.919698e+003, 1.348798e-001
2.921627e+003, 1.335640e-001
2.923555e+003, 1.332752e-001
2.925484e+003, 1.338641e-001
2.927412e+003, 1.345931e-001
2.929341e+003, 1.351128e-001
2.931269e+003, 1.354152e-001
2.933198e+003, 1.366177e-001
2.935126e+003, 1.374736e-001
2.937055e+003, 1.386124e-001
2.938983e+003, 1.387998e-001
2.940912e+003, 1.388294e-001
2.942840e+003, 1.392837e-001
2.944769e+003, 1.398423e-001
2.946697e+003, 1.400684e-001
2.948625e+003, 1.397208e-001
2.950554e+003, 1.381874e-001
2.952482e+003, 1.382940e-001
2.954411e+003, 1.396631e-001
2.956339e+003, 1.397304e-001
2.958268e+003, 1.393791e-001
2.960196e+003, 1.401882e-001
2.962125e+003, 1.412539e-001
2.964053e+003, 1.422227e-001
2.965982e+003, 1.425228e-001
2.967910e+003, 1.422819e-001
2.969839e+003, 1.422829e-001
2.971767e+003, 1.422366e-001
2.973696e+003, 1.435565e-001
2.975624e+003, 1.446932e-001
2.977552e+003, 1.444961e-001
2.979481e+003, 1.433253e-001
2.981409e+003, 1.431691e-001
2.983338e+003, 1.437491e-001
2.985266e+003, 1.443802e-001
2.987195e+003, 1.444899e-001
2.989123e+003, 1.436925e-001
2.991052e+003, 1.421091e-001
2.992980e+003, 1.418750e-001
2.994909e+003, 1.424229e-001
2.996837e+003, 1.442393e-001
2.998766e+003, 1.458179e-001
3.000694e+003, 1.457145e-001
3.002623e+003, 1.452629e-001
3.004551e+003, 1.443803e-001
3.006479e+003, 1.442079e-001
3.008408e+003, 1.441536e-001
3.010336e+003, 1.444471e-001
3.012265e+003, 1.443185e-001
3.014193e+003, 1.433137e-001
3.016122e+003, 1.429320e-001
3.018050e+003, 1.455982e-001
3.019979e+003, 1.453362e-001
3.021907e+003, 1.436395e-001
3.023836e+003, 1.445203e-001
3.025764e+003, 1.460255e-001
3.027693e+003, 1.460454e-001
3.029621e+003, 1.464265e-001
3.031550e+003, 1.459396e-001
3.033478e+003, 1.451137e-001
3.035406e+003, 1.464630e-001
3.037335e+003, 1.473710e-001
3.039263e+003, 1.474153e-001
3.041192e+003, 1.473511e-001
3.043120e+003, 1.470215e-001
3.045049e+003, 1.465553e-001
3.046977e+003, 1.468065e-001
3.048906e+003, 1.465896e-001
3.050834e+003, 1.463556e-001
3.052763e+003, 1.473882e-001
3.054691e+003, 1.483697e-001
3.056620e+003, 1.487718e-001
3.058548e+003, 1.467117e-001
3.060477e+003, 1.465820e-001
3.062405e+003, 1.473909e-001
3.064333e+003, 1.471351e-001
3.066262e+003, 1.482510e-001
3.068190e+003, 1.490136e-001
3.070119e+003, 1.484816e-001
3.072047e+003, 1.480503e-001
3.073976e+003, 1.487202e-001
3.075904e+003, 1.481409e-001
3.077833e+003, 1.482491e-001
3.079761e+003, 1.490379e-001
3.081690e+003, 1.492831e-001
3.083618e+003, 1.490109e-001
3.085547e+003, 1.485532e-001
3.087475e+003, 1.479171e-001
3.089404e+003, 1.490607e-001
3.091332e+003, 1.497608e-001
3.093260e+003, 1.488299e-001
3.095189e+003, 1.485778e-001
3.097117e+003, 1.487056e-001
3.099046e+003, 1.478180e-001
3.100974e+003, 1.476682e-001
3.102903e+003, 1.486074e-001
3.104831e+003, 1.495439e-001
3.106760e+003, 1.507806e-001
3.108688e+003, 1.521377e-001
3.110617e+003, 1.519855e-001
3.112545e+003, 1.504188e-001
3.114474e+003, 1.506344e-001
3.116402e+003, 1.518058e-001
3.118331e+003, 1.522893e-001
3.120259e+003, 1.510871e-001
3.122188e+003, 1.516693e-001
3.124116e+003, 1.504524e-001
3.126044e+003, 1.488755e-001
3.127973e+003, 1.497383e-001
3.129901e+003, 1.498176e-001
3.131830e+003, 1.490666e-001
3.133758e+003, 1.492494e-001
3.135687e+003, 1.495452e-001
3.137615e+003, 1.508292e-001
3.139544e+003, 1.517302e-001
3.141472e+003, 1.528917e-001
3.143401e+003, 1.536935e-001
3.145329e+003, 1.507819e-001
3.147258e+003, 1.479508e-001
3.149186e+003, 1.500245e-001
3.151115e+003, 1.515750e-001
3.153043e+003, 1.505816e-001
3.154971e+003, 1.507951e-001
3.156900e+003, 1.511870e-001
3.158828e+003, 1.493378e-001
3.160757e+003, 1.483126e-001
3.162685e+003, 1.491903e-001
3.164614e+003, 1.500569e-001
3.166542e+003, 1.509630e-001
3.168471e+003, 1.519819e-001
3.170399e+003, 1.523525e-001
3.172328e+003, 1.523651e-001
3.174256e+003, 1.527496e-001
3.176185e+003, 1.525583e-001
3.178113e+003, 1.530617e-001
3.180042e+003, 1.521857e-001
3.181970e+003, 1.512920e-001
3.183898e+003, 1.517930e-001
3.185827e+003, 1.531023e-001
3.187755e+003, 1.539485e-001
3.189684e+003, 1.543606e-001
3.191612e+003, 1.532090e-001
3.193541e+003, 1.534935e-001
3.195469e+003, 1.546321e-001
3.197398e+003, 1.556579e-001
3.199326e+003, 1.547646e-001
3.201255e+003, 1.541689e-001
3.203183e+003, 1.547273e-001
3.205112e+003, 1.542773e-001
3.207040e+003, 1.540542e-001
3.208969e+003, 1.535815e-001
3.210897e+003, 1.528723e-001
3.212825e+003, 1.533880e-001
3.214754e+003, 1.543496e-001
3.216682e+003, 1.546141e-001
3.218611e+003, 1.546275e-001
3.220539e+003, 1.548416e-001
3.222468e+003, 1.553232e-001
3.224396e+003, 1.546776e-001
3.226325e+003, 1.553302e-001
3.228253e+003, 1.544730e-001
3.230182e+003, 1.523803e-001
3.232110e+003, 1.525191e-001
3.234039e+003, 1.537320e-001
3.235967e+003, 1.548208e-001
3.237896e+003, 1.557443e-001
3.239824e+003, 1.544025e-001
3.241752e+003, 1.526297e-001
3.243681e+003, 1.538679e-001
3.245609e+003, 1.547243e-001
3.247538e+003, 1.542930e-001
3.249466e+003, 1.543067e-001
3.251395e+003, 1.546708e-001
3.253323e+003, 1.558955e-001
3.255252e+003, 1.568191e-001
3.257180e+003, 1.558766e-001
3.259109e+003, 1.545783e-001
3.261037e+003, 1.534715e-001
3.262966e+003, 1.526487e-001
3.264894e+003, 1.533825e-001
3.266823e+003, 1.552213e-001
3.268751e+003, 1.550254e-001
3.270679e+003, 1.541504e-001
3.272608e+003, 1.550782e-001
3.274536e+003, 1.574893e-001
3.276465e+003, 1.577518e-001
3.278393e+003, 1.555136e-001
3.280322e+003, 1.547667e-001
3.282250e+003, 1.553609e-001
3.284179e+003, 1.559433e-001
3.286107e+003, 1.578956e-001
3.288036e+003, 1.569764e-001
3.289964e+003, 1.547918e-001
3.291893e+003, 1.558299e-001
3.293821e+003, 1.570780e-001
3.295750e+003, 1.575264e-001
3.297678e+003, 1.572276e-001
3.299606e+003, 1.559802e-001
3.301535e+003, 1.565103e-001
3.303463e+003, 1.572434e-001
3.305392e+003, 1.568151e-001
3.307320e+003, 1.562198e-001
3.309249e+003, 1.571088e-001
3.311177e+003, 1.578429e-001
3.313106e+003, 1.570719e-001
3.315034e+003, 1.583089e-001
3.316963e+003, 1.567427e-001
3.318891e+003, 1.530509e-001
3.320820e+003, 1.544578e-001
3.322748e+003, 1.576386e-001
3.324677e+003, 1.581731e-001
3.326605e+003, 1.555730e-001
3.328533e+003, 1.555439e-001
3.330462e+003, 1.572508e-001
3.332390e+003, 1.571541e-001
3.334319e+003, 1.576861e-001
3.336247e+003, 1.564963e-001
3.338176e+003, 1.560280e-001
3.340104e+003, 1.571155e-001
3.342033e+003, 1.564466e-001
3.343961e+003, 1.557151e-001
3.345890e+003, 1.579502e-001
3.347818e+003, 1.594377e-001
3.349747e+003, 1.562688e-001
3.351675e+003, 1.550082e-001
3.353604e+003, 1.558243e-001
3.355532e+003, 1.569284e-001
3.357460e+003, 1.587879e-001
3.359389e+003, 1.586511e-001
3.361317e+003, 1.576874e-001
3.363246e+003, 1.577598e-001
3.365174e+003, 1.582409e-001
3.367103e+003, 1.574645e-001
3.369031e+003, 1.554414e-001
3.370960e+003, 1.562962e-001
3.372888e+003, 1.563316e-001
3.374817e+003, 1.565794e-001
3.376745e+003, 1.596207e-001
3.378674e+003, 1.596825e-001
3.380602e+003, 1.584872e-001
3.382531e+003, 1.594784e-001
3.384459e+003, 1.587508e-001
3.386387e+003, 1.575739e-001
3.388316e+003, 1.571481e-001
3.390244e+003, 1.572099e-001
3.392173e+003, 1.572430e-001
3.394101e+003, 1.570037e-001
3.396030e+003, 1.593070e-001
3.397958e+003, 1.604326e-001
3.399887e+003, 1.585491e-001
3.401815e+003, 1.556432e-001
3.403744e+003, 1.572266e-001
3.405672e+003, 1.578859e-001
3.407601e+003, 1.569661e-001
3.409529e+003, 1.580945e-001
3.411458e+003, 1.606762e-001
3.413386e+003, 1.596405e-001
3.415314e+003, 1.588551e-001
3.417243e+003, 1.616582e-001
3.419171e+003, 1.618049e-001
3.421100e+003, 1.588895e-001
3.423028e+003, 1.586124e-001
3.424957e+003, 1.594854e-001
3.426885e+003, 1.587135e-001
3.428814e+003, 1.578053e-001
3.430742e+003, 1.571632e-001
3.432671e+003, 1.571471e-001
3.434599e+003, 1.564732e-001
3.436528e+003, 1.563041e-001
3.438456e+003, 1.557995e-001
3.440385e+003, 1.553701e-001
3.442313e+003, 1.555244e-001
3.444241e+003, 1.578523e-001
3.446170e+003, 1.598812e-001
3.448098e+003, 1.587976e-001
3.450027e+003, 1.585656e-001
3.451955e+003, 1.613096e-001
3.453884e+003, 1.620531e-001
3.455812e+003, 1.586383e-001
3.457741e+003, 1.585615e-001
3.459669e+003, 1.601163e-001
3.461598e+003, 1.602803e-001
3.463526e+003, 1.602381e-001
3.465455e+003, 1.608517e-001
3.467383e+003, 1.609245e-001
3.469312e+003, 1.594278e-001
3.471240e+003, 1.602966e-001
3.473168e+003, 1.596681e-001
3.475097e+003, 1.581337e-001
3.477025e+003, 1.589537e-001
3.478954e+003, 1.597857e-001
3.480882e+003, 1.606447e-001
3.482811e+003, 1.605778e-001
3.484739e+003, 1.585472e-001
3.486668e+003, 1.541709e-001
3.488596e+003, 1.538065e-001
3.490525e+003, 1.554219e-001
3.492453e+003, 1.570047e-001
3.494382e+003, 1.598890e-001
3.496310e+003, 1.595507e-001
3.498239e+003, 1.587034e-001
3.500167e+003, 1.601169e-001
3.502095e+003, 1.590346e-001
3.504024e+003, 1.581323e-001
3.505952e+003, 1.571610e-001
3.507881e+003, 1.563181e-001
3.509809e+003, 1.563782e-001
3.511738e+003, 1.565023e-001
3.513666e+003, 1.581767e-001
3.515595e+003, 1.569767e-001
3.517523e+003, 1.555066e-001
3.519452e+003, 1.561857e-001
3.521380e+003, 1.565860e-001
3.523309e+003, 1.586605e-001
3.525237e+003, 1.601026e-001
3.527166e+003, 1.582271e-001
3.529094e+003, 1.581512e-001
3.531022e+003, 1.586068e-001
3.532951e+003, 1.573578e-001
3.534879e+003, 1.538041e-001
3.536808e+003, 1.571395e-001
3.538736e+003, 1.592151e-001
3.540665e+003, 1.571279e-001
3.542593e+003, 1.579123e-001
3.544522e+003, 1.576879e-001
3.546450e+003, 1.562254e-001
3.548379e+003, 1.548438e-001
3.550307e+003, 1.550169e-001
3.552236e+003, 1.588572e-001
3.554164e+003, 1.594372e-001
3.556093e+003, 1.576208e-001
3.558021e+003, 1.583302e-001
3.559949e+003, 1.587274e-001
3.561878e+003, 1.562547e-001
3.563806e+003, 1.568482e-001
3.565735e+003, 1.597422e-001
3.567663e+003, 1.581988e-001
3.569592e+003, 1.560240e-001
3.571520e+003, 1.550117e-001
3.573449e+003, 1.576745e-001
3.575377e+003, 1.581575e-001
3.577306e+003, 1.558388e-001
3.579234e+003, 1.543386e-001
3.581163e+003, 1.545967e-001
3.583091e+003, 1.575646e-001
3.585020e+003, 1.588975e-001
3.586948e+003, 1.578851e-001
3.588876e+003, 1.569208e-001
3.590805e+003, 1.580308e-001
3.592733e+003, 1.595885e-001
3.594662e+003, 1.587244e-001
3.596590e+003, 1.566482e-001
3.598519e+003, 1.564086e-001
3.600447e+003, 1.603609e-001
3.602376e+003, 1.630968e-001
3.604304e+003, 1.612998e-001
3.606233e+003, 1.589556e-001
3.608161e+003, 1.588569e-001
3.610090e+003, 1.579762e-001
3.612018e+003, 1.581480e-001
3.613947e+003, 1.607755e-001
3.615875e+003, 1.620598e-001
3.617803e+003, 1.601822e-001
3.619732e+003, 1.556497e-001
3.621660e+003, 1.540614e-001
3.623589e+003, 1.568252e-001
3.625517e+003, 1.587674e-001
3.627446e+003, 1.595162e-001
3.629374e+003, 1.590902e-001
3.631303e+003, 1.552075e-001
3.633231e+003, 1.522208e-001
3.635160e+003, 1.541066e-001
3.637088e+003, 1.569045e-001
3.639017e+003, 1.565370e-001
3.640945e+003, 1.559256e-001
3.642874e+003, 1.561991e-001
3.644802e+003, 1.594245e-001
3.646730e+003, 1.593234e-001
3.648659e+003, 1.557176e-001
3.650587e+003, 1.545431e-001
3.652516e+003, 1.573625e-001
3.654444e+003, 1.573810e-001
3.656373e+003, 1.561045e-001
3.658301e+003, 1.553632e-001
3.660230e+003, 1.577540e-001
3.662158e+003, 1.611201e-001
3.664087e+003, 1.601507e-001
3.666015e+003, 1.575518e-001
3.667944e+003, 1.562159e-001
3.669872e+003, 1.590721e-001
3.671801e+003, 1.622915e-001
3.673729e+003, 1.617039e-001
3.675657e+003, 1.613884e-001
3.677586e+003, 1.580951e-001
3.679514e+003, 1.584086e-001
3.681443e+003, 1.602976e-001
3.683371e+003, 1.601288e-001
3.685300e+003, 1.614048e-001
3.687228e+003, 1.636053e-001
3.689157e+003, 1.610072e-001
3.691085e+003, 1.588455e-001
3.693014e+003, 1.594704e-001
3.694942e+003, 1.567572e-001
3.696871e+003, 1.563630e-001
3.698799e+003, 1.598318e-001
3.700728e+003, 1.615031e-001
3.702656e+003, 1.637302e-001
3.704584e+003, 1.628366e-001
3.706513e+003, 1.616559e-001
3.708441e+003, 1.592993e-001
3.710370e+003, 1.594002e-001
3.712298e+003, 1.588133e-001
3.714227e+003, 1.575692e-001
3.716155e+003, 1.608738e-001
3.718084e+003, 1.632083e-001
3.720012e+003, 1.594662e-001
3.721941e+003, 1.591984e-001
3.723869e+003, 1.650018e-001
3.725798e+003, 1.676991e-001
3.727726e+003, 1.633583e-001
3.729655e+003, 1.594959e-001
3.731583e+003, 1.595218e-001
3.733511e+003, 1.613893e-001
3.735440e+003, 1.624492e-001
3.737368e+003, 1.609378e-001
3.739297e+003, 1.603427e-001
3.741225e+003, 1.631737e-001
3.743154e+003, 1.673690e-001
3.745082e+003, 1.667853e-001
3.747011e+003, 1.621256e-001
3.748939e+003, 1.611778e-001
3.750868e+003, 1.623316e-001
3.752796e+003, 1.616274e-001
3.754725e+003, 1.615703e-001
3.756653e+003, 1.635497e-001
3.758582e+003, 1.643825e-001
3.760510e+003, 1.640642e-001
3.762438e+003, 1.641718e-001
3.764367e+003, 1.618116e-001
3.766295e+003, 1.630018e-001
3.768224e+003, 1.659527e-001
3.770152e+003, 1.657818e-001
3.772081e+003, 1.591377e-001
3.774009e+003, 1.562269e-001
3.775938e+003, 1.607343e-001
3.777866e+003, 1.629270e-001
3.779795e+003, 1.638866e-001
3.781723e+003, 1.647284e-001
3.783652e+003, 1.638685e-001
3.785580e+003, 1.651129e-001
3.787509e+003, 1.647654e-001
3.789437e+003, 1.640344e-001
3.791365e+003, 1.608603e-001
3.793294e+003, 1.607241e-001
3.795222e+003, 1.633279e-001
3.797151e+003, 1.649962e-001
3.799079e+003, 1.672622e-001
3.801008e+003, 1.687097e-001
3.802936e+003, 1.671706e-001
3.804865e+003, 1.649726e-001
3.806793e+003, 1.648521e-001
3.808722e+003, 1.660347e-001
3.810650e+003, 1.647762e-001
3.812579e+003, 1.642809e-001
3.814507e+003, 1.676051e-001
3.816436e+003, 1.663892e-001
3.818364e+003, 1.637481e-001
3.820292e+003, 1.647297e-001
3.822221e+003, 1.678252e-001
3.824149e+003, 1.682575e-001
3.826078e+003, 1.673499e-001
3.828006e+003, 1.654331e-001
3.829935e+003, 1.667323e-001
3.831863e+003, 1.684683e-001
3.833792e+003, 1.686063e-001
3.835720e+003, 1.679465e-001
3.837649e+003, 1.675773e-001
3.839577e+003, 1.676873e-001
3.841506e+003, 1.688117e-001
3.843434e+003, 1.658351e-001
3.845363e+003, 1.659383e-001
3.847291e+003, 1.665447e-001
3.849219e+003, 1.643169e-001
3.851148e+003, 1.646663e-001
3.853076e+003, 1.654729e-001
3.855005e+003, 1.608158e-001
3.856933e+003, 1.579725e-001
3.858862e+003, 1.603475e-001
3.860790e+003, 1.666740e-001
3.862719e+003, 1.687148e-001
3.864647e+003, 1.681858e-001
3.866576e+003, 1.680215e-001
3.868504e+003, 1.688990e-001
3.870433e+003, 1.680613e-001
3.872361e+003, 1.685747e-001
3.874290e+003, 1.682410e-001
3.876218e+003, 1.646194e-001
3.878146e+003, 1.653178e-001
3.880075e+003, 1.669440e-001
3.882003e+003, 1.695985e-001
3.883932e+003, 1.666238e-001
3.885860e+003, 1.595068e-001
3.887789e+003, 1.590540e-001
3.889717e+003, 1.637730e-001
3.891646e+003, 1.667067e-001
3.893574e+003, 1.653624e-001
3.895503e+003, 1.636893e-001
3.897431e+003, 1.652538e-001
3.899360e+003, 1.674402e-001
3.901288e+003, 1.698020e-001
3.903217e+003, 1.673477e-001
3.905145e+003, 1.649364e-001
3.907073e+003, 1.651698e-001
3.909002e+003, 1.603780e-001
3.910930e+003, 1.606527e-001
3.912859e+003, 1.657507e-001
3.914787e+003, 1.686080e-001
3.916716e+003, 1.683836e-001
3.918644e+003, 1.677039e-001
3.920573e+003, 1.629434e-001
3.922501e+003, 1.626287e-001
3.924430e+003, 1.645533e-001
3.926358e+003, 1.649461e-001
3.928287e+003, 1.637897e-001
3.930215e+003, 1.625868e-001
3.932144e+003, 1.658270e-001
3.934072e+003, 1.669474e-001
3.936000e+003, 1.674090e-001
3.937929e+003, 1.676314e-001
3.939857e+003, 1.682322e-001
3.941786e+003, 1.706263e-001
3.943714e+003, 1.670315e-001
3.945643e+003, 1.644686e-001
3.947571e+003, 1.679661e-001
3.949500e+003, 1.700537e-001
3.951428e+003, 1.672386e-001
3.953357e+003, 1.646460e-001
3.955285e+003, 1.629499e-001
3.957214e+003, 1.636653e-001
3.959142e+003, 1.654577e-001
3.961071e+003, 1.646875e-001
3.962999e+003, 1.651051e-001
3.964927e+003, 1.663862e-001
3.966856e+003, 1.680838e-001
3.968784e+003, 1.683113e-001
3.970713e+003, 1.691111e-001
3.972641e+003, 1.694600e-001
3.974570e+003, 1.673974e-001
3.976498e+003, 1.665299e-001
3.978427e+003, 1.628862e-001
3.980355e+003, 1.633352e-001
3.982284e+003, 1.671022e-001
3.984212e+003, 1.658577e-001
3.986141e+003, 1.643718e-001
3.988069e+003, 1.689395e-001
3.989998e+003, 1.717793e-001
3.991926e+003, 1.685238e-001
3.993854e+003, 1.661736e-001
3.995783e+003, 1.664435e-001
3.997711e+003, 1.701509e-001
3.999640e+003, 1.702330e-001
4.001568e+003, 0.000000e+000
##END=



