##NAMES=Conichalcite
##RRUFFID=R050028
##IDEAL CHEMISTRY=CaCu^2+^As^5+^O_4_(OH)
##LOCALITY=Mapimi, Durango, Mexico
##OWNER=RRUFF
##SOURCE=Eugene Schlepp
##DESCRIPTION=Green botryoidal groups covering adamite
##STATUS=The identification of this mineral has been confirmed by X-ray diffraction and chemical analysis
##URL=rruff.info/R050028
##MEASURED CHEMISTRY=Ca_1.00_(Cu_0.70_Zn_0.30_)_Î£=1_(As_1.00_O_4_)(OH)
3.991926e+002, 0.000000e+000
4.011211e+002, 1.969267e-001
4.030496e+002, 1.978219e-001
4.049780e+002, 2.002193e-001
4.069065e+002, 2.002227e-001
4.088350e+002, 1.916150e-001
4.107634e+002, 1.889589e-001
4.126919e+002, 1.884200e-001
4.146204e+002, 1.869093e-001
4.165488e+002, 1.857629e-001
4.184773e+002, 1.842699e-001
4.204058e+002, 1.811542e-001
4.223342e+002, 1.806510e-001
4.242627e+002, 1.815012e-001
4.261912e+002, 1.832879e-001
4.281196e+002, 1.834906e-001
4.300481e+002, 1.836756e-001
4.319766e+002, 1.827932e-001
4.339050e+002, 1.813449e-001
4.358335e+002, 1.824789e-001
4.377620e+002, 1.810209e-001
4.396904e+002, 1.787468e-001
4.416189e+002, 1.799563e-001
4.435474e+002, 1.805083e-001
4.454758e+002, 1.802175e-001
4.474043e+002, 1.805070e-001
4.493328e+002, 1.796657e-001
4.512612e+002, 1.785942e-001
4.531897e+002, 1.790553e-001
4.551182e+002, 1.780269e-001
4.570466e+002, 1.770960e-001
4.589751e+002, 1.773425e-001
4.609036e+002, 1.770585e-001
4.628320e+002, 1.751706e-001
4.647605e+002, 1.708801e-001
4.666890e+002, 1.667973e-001
4.686174e+002, 1.625405e-001
4.705459e+002, 1.568382e-001
4.724744e+002, 1.513363e-001
4.744028e+002, 1.462557e-001
4.763313e+002, 1.423221e-001
4.782598e+002, 1.397304e-001
4.801882e+002, 1.369036e-001
4.821167e+002, 1.335572e-001
4.840452e+002, 1.319029e-001
4.859736e+002, 1.319129e-001
4.879021e+002, 1.321083e-001
4.898306e+002, 1.319375e-001
4.917590e+002, 1.321713e-001
4.936875e+002, 1.322558e-001
4.956160e+002, 1.324681e-001
4.975444e+002, 1.326856e-001
4.994729e+002, 1.332780e-001
5.014014e+002, 1.346374e-001
5.033298e+002, 1.369665e-001
5.052583e+002, 1.407812e-001
5.071868e+002, 1.457717e-001
5.091152e+002, 1.497426e-001
5.110437e+002, 1.523408e-001
5.129722e+002, 1.549656e-001
5.149006e+002, 1.578805e-001
5.168291e+002, 1.601446e-001
5.187576e+002, 1.619413e-001
5.206860e+002, 1.639430e-001
5.226145e+002, 1.656365e-001
5.245430e+002, 1.676325e-001
5.264714e+002, 1.675160e-001
5.283999e+002, 1.655801e-001
5.303284e+002, 1.634741e-001
5.322568e+002, 1.608949e-001
5.341853e+002, 1.583172e-001
5.361138e+002, 1.547344e-001
5.380422e+002, 1.508498e-001
5.399707e+002, 1.479976e-001
5.418992e+002, 1.446759e-001
5.438276e+002, 1.411127e-001
5.457561e+002, 1.386142e-001
5.476846e+002, 1.366443e-001
5.496130e+002, 1.350670e-001
5.515415e+002, 1.339290e-001
5.534700e+002, 1.331432e-001
5.553984e+002, 1.335536e-001
5.573269e+002, 1.352824e-001
5.592554e+002, 1.372684e-001
5.611838e+002, 1.383709e-001
5.631123e+002, 1.383800e-001
5.650408e+002, 1.379205e-001
5.669692e+002, 1.365045e-001
5.688977e+002, 1.339607e-001
5.708262e+002, 1.308835e-001
5.727546e+002, 1.273867e-001
5.746831e+002, 1.230764e-001
5.766116e+002, 1.183658e-001
5.785400e+002, 1.135717e-001
5.804685e+002, 1.086541e-001
5.823970e+002, 1.042100e-001
5.843254e+002, 1.006830e-001
5.862539e+002, 9.774691e-002
5.881824e+002, 9.582933e-002
5.901108e+002, 9.485224e-002
5.920393e+002, 9.398014e-002
5.939678e+002, 9.298214e-002
5.958962e+002, 9.212533e-002
5.978247e+002, 9.123722e-002
5.997532e+002, 9.025638e-002
6.016816e+002, 8.897599e-002
6.036101e+002, 8.799799e-002
6.055386e+002, 8.736612e-002
6.074670e+002, 8.716054e-002
6.093955e+002, 8.668190e-002
6.113240e+002, 8.608860e-002
6.132524e+002, 8.544235e-002
6.151809e+002, 8.487351e-002
6.171094e+002, 8.424652e-002
6.190378e+002, 8.371796e-002
6.209663e+002, 8.291303e-002
6.228948e+002, 8.204497e-002
6.248232e+002, 8.128428e-002
6.267517e+002, 8.067776e-002
6.286802e+002, 7.988720e-002
6.306086e+002, 7.904047e-002
6.325371e+002, 7.832243e-002
6.344656e+002, 7.712115e-002
6.363940e+002, 7.615434e-002
6.383225e+002, 7.538220e-002
6.402510e+002, 7.452531e-002
6.421794e+002, 7.374787e-002
6.441079e+002, 7.268855e-002
6.460364e+002, 7.140034e-002
6.479648e+002, 7.057550e-002
6.498933e+002, 7.007275e-002
6.518218e+002, 6.933839e-002
6.537502e+002, 6.839614e-002
6.556787e+002, 6.747241e-002
6.576072e+002, 6.661610e-002
6.595356e+002, 6.613947e-002
6.614641e+002, 6.560058e-002
6.633926e+002, 6.501843e-002
6.653210e+002, 6.490640e-002
6.672495e+002, 6.512799e-002
6.691780e+002, 6.492275e-002
6.711064e+002, 6.474348e-002
6.730349e+002, 6.458176e-002
6.749634e+002, 6.440581e-002
6.768918e+002, 6.441338e-002
6.788203e+002, 6.449609e-002
6.807488e+002, 6.438780e-002
6.826772e+002, 6.420244e-002
6.846057e+002, 6.415281e-002
6.865342e+002, 6.444418e-002
6.884626e+002, 6.463890e-002
6.903911e+002, 6.480118e-002
6.923196e+002, 6.534092e-002
6.942480e+002, 6.594398e-002
6.961765e+002, 6.637247e-002
6.981050e+002, 6.687247e-002
7.000334e+002, 6.747297e-002
7.019619e+002, 6.835706e-002
7.038904e+002, 6.966125e-002
7.058188e+002, 7.088474e-002
7.077473e+002, 7.196873e-002
7.096758e+002, 7.320505e-002
7.116042e+002, 7.450314e-002
7.135327e+002, 7.594705e-002
7.154612e+002, 7.752178e-002
7.173896e+002, 7.963131e-002
7.193181e+002, 8.209129e-002
7.212466e+002, 8.440206e-002
7.231750e+002, 8.696674e-002
7.251035e+002, 9.001698e-002
7.270320e+002, 9.326670e-002
7.289604e+002, 9.661298e-002
7.308889e+002, 1.000875e-001
7.328174e+002, 1.035738e-001
7.347458e+002, 1.070495e-001
7.366743e+002, 1.107453e-001
7.386028e+002, 1.143441e-001
7.405313e+002, 1.180274e-001
7.424597e+002, 1.228283e-001
7.443882e+002, 1.286423e-001
7.463167e+002, 1.349934e-001
7.482451e+002, 1.417788e-001
7.501736e+002, 1.492273e-001
7.521021e+002, 1.576731e-001
7.540305e+002, 1.668011e-001
7.559590e+002, 1.764421e-001
7.578875e+002, 1.866700e-001
7.598159e+002, 1.971534e-001
7.617444e+002, 2.081000e-001
7.636729e+002, 2.191374e-001
7.656013e+002, 2.293313e-001
7.675298e+002, 2.383547e-001
7.694583e+002, 2.464481e-001
7.713867e+002, 2.535011e-001
7.733152e+002, 2.593945e-001
7.752437e+002, 2.648892e-001
7.771721e+002, 2.695224e-001
7.791006e+002, 2.732719e-001
7.810291e+002, 2.764887e-001
7.829575e+002, 2.790504e-001
7.848860e+002, 2.810211e-001
7.868145e+002, 2.821831e-001
7.887429e+002, 2.824969e-001
7.906714e+002, 2.829303e-001
7.925999e+002, 2.825522e-001
7.945283e+002, 2.814099e-001
7.964568e+002, 2.794066e-001
7.983853e+002, 2.761616e-001
8.003137e+002, 2.724519e-001
8.022422e+002, 2.684262e-001
8.041707e+002, 2.640435e-001
8.060991e+002, 2.603126e-001
8.080276e+002, 2.578936e-001
8.099561e+002, 2.564079e-001
8.118845e+002, 2.537548e-001
8.138130e+002, 2.492868e-001
8.157415e+002, 2.433250e-001
8.176699e+002, 2.367201e-001
8.195984e+002, 2.314311e-001
8.215269e+002, 2.280028e-001
8.234553e+002, 2.255029e-001
8.253838e+002, 2.234693e-001
8.273123e+002, 2.215065e-001
8.292407e+002, 2.196148e-001
8.311692e+002, 2.183527e-001
8.330977e+002, 2.171733e-001
8.350261e+002, 2.159356e-001
8.369546e+002, 2.153288e-001
8.388831e+002, 2.144392e-001
8.408115e+002, 2.124060e-001
8.427400e+002, 2.080065e-001
8.446685e+002, 2.011483e-001
8.465969e+002, 1.918026e-001
8.485254e+002, 1.801364e-001
8.504539e+002, 1.680848e-001
8.523823e+002, 1.569036e-001
8.543108e+002, 1.468742e-001
8.562393e+002, 1.378535e-001
8.581677e+002, 1.292597e-001
8.600962e+002, 1.209254e-001
8.620247e+002, 1.127701e-001
8.639531e+002, 1.052131e-001
8.658816e+002, 9.811214e-002
8.678101e+002, 9.191804e-002
8.697385e+002, 8.742505e-002
8.716670e+002, 8.414669e-002
8.735955e+002, 8.207756e-002
8.755239e+002, 8.099711e-002
8.774524e+002, 8.043734e-002
8.793809e+002, 8.025992e-002
8.813093e+002, 7.983887e-002
8.832378e+002, 7.962340e-002
8.851663e+002, 7.945197e-002
8.870947e+002, 7.888634e-002
8.890232e+002, 7.831717e-002
8.909517e+002, 7.789033e-002
8.928801e+002, 7.710873e-002
8.948085e+002, 7.585047e-002
8.967370e+002, 7.461786e-002
8.986655e+002, 7.356961e-002
9.005939e+002, 7.216980e-002
9.025224e+002, 7.042049e-002
9.044509e+002, 6.876302e-002
9.063793e+002, 6.737012e-002
9.083078e+002, 6.611791e-002
9.102363e+002, 6.497844e-002
9.121647e+002, 6.390700e-002
9.140932e+002, 6.274851e-002
9.160217e+002, 6.169000e-002
9.179501e+002, 6.073093e-002
9.198786e+002, 5.976430e-002
9.218071e+002, 5.885704e-002
9.237355e+002, 5.792120e-002
9.256640e+002, 5.735121e-002
9.275925e+002, 5.697099e-002
9.295209e+002, 5.658500e-002
9.314494e+002, 5.585612e-002
9.333779e+002, 5.457127e-002
9.353063e+002, 5.310412e-002
9.372348e+002, 5.142795e-002
9.391633e+002, 4.985736e-002
9.410917e+002, 4.834102e-002
9.430202e+002, 4.652292e-002
9.449487e+002, 4.481571e-002
9.468771e+002, 4.322663e-002
9.488056e+002, 4.155692e-002
9.507341e+002, 4.004645e-002
9.526625e+002, 3.841465e-002
9.545910e+002, 3.694835e-002
9.565195e+002, 3.578365e-002
9.584479e+002, 3.460790e-002
9.603764e+002, 3.384229e-002
9.623049e+002, 3.347296e-002
9.642333e+002, 3.353856e-002
9.661618e+002, 3.362733e-002
9.680903e+002, 3.347661e-002
9.700187e+002, 3.328658e-002
9.719472e+002, 3.336630e-002
9.738757e+002, 3.313696e-002
9.758041e+002, 3.286271e-002
9.777326e+002, 3.301067e-002
9.796611e+002, 3.314128e-002
9.815895e+002, 3.292983e-002
9.835180e+002, 3.268952e-002
9.854465e+002, 3.253787e-002
9.873749e+002, 3.242261e-002
9.893034e+002, 3.217873e-002
9.912319e+002, 3.204590e-002
9.931603e+002, 3.190979e-002
9.950888e+002, 3.208248e-002
9.970173e+002, 3.239989e-002
9.989457e+002, 3.244361e-002
1.000874e+003, 3.238137e-002
1.002803e+003, 3.252995e-002
1.004731e+003, 3.297823e-002
1.006660e+003, 3.338513e-002
1.008588e+003, 3.372559e-002
1.010517e+003, 3.403804e-002
1.012445e+003, 3.427753e-002
1.014373e+003, 3.458985e-002
1.016302e+003, 3.504723e-002
1.018230e+003, 3.553338e-002
1.020159e+003, 3.574645e-002
1.022087e+003, 3.573819e-002
1.024016e+003, 3.595743e-002
1.025944e+003, 3.648959e-002
1.027873e+003, 3.706619e-002
1.029801e+003, 3.761314e-002
1.031730e+003, 3.813825e-002
1.033658e+003, 3.855122e-002
1.035587e+003, 3.869725e-002
1.037515e+003, 3.870531e-002
1.039444e+003, 3.884324e-002
1.041372e+003, 3.883848e-002
1.043301e+003, 3.852075e-002
1.045229e+003, 3.861861e-002
1.047157e+003, 3.885200e-002
1.049086e+003, 3.916618e-002
1.051014e+003, 3.979488e-002
1.052943e+003, 4.058264e-002
1.054871e+003, 4.115161e-002
1.056800e+003, 4.133648e-002
1.058728e+003, 4.091267e-002
1.060657e+003, 3.994823e-002
1.062585e+003, 3.877665e-002
1.064514e+003, 3.733499e-002
1.066442e+003, 3.540231e-002
1.068371e+003, 3.333643e-002
1.070299e+003, 3.131701e-002
1.072228e+003, 2.954965e-002
1.074156e+003, 2.805342e-002
1.076084e+003, 2.690510e-002
1.078013e+003, 2.606869e-002
1.079941e+003, 2.513925e-002
1.081870e+003, 2.441479e-002
1.083798e+003, 2.389679e-002
1.085727e+003, 2.339661e-002
1.087655e+003, 2.275210e-002
1.089584e+003, 2.250743e-002
1.091512e+003, 2.239273e-002
1.093441e+003, 2.215359e-002
1.095369e+003, 2.185465e-002
1.097298e+003, 2.169544e-002
1.099226e+003, 2.158291e-002
1.101155e+003, 2.131057e-002
1.103083e+003, 2.133754e-002
1.105011e+003, 2.132799e-002
1.106940e+003, 2.135698e-002
1.108868e+003, 2.155834e-002
1.110797e+003, 2.152686e-002
1.112725e+003, 2.134754e-002
1.114654e+003, 2.124034e-002
1.116582e+003, 2.119699e-002
1.118511e+003, 2.115727e-002
1.120439e+003, 2.109794e-002
1.122368e+003, 2.112149e-002
1.124296e+003, 2.133561e-002
1.126225e+003, 2.127035e-002
1.128153e+003, 2.120337e-002
1.130082e+003, 2.113847e-002
1.132010e+003, 2.098544e-002
1.133938e+003, 2.095882e-002
1.135867e+003, 2.096031e-002
1.137795e+003, 2.100353e-002
1.139724e+003, 2.095800e-002
1.141652e+003, 2.105304e-002
1.143581e+003, 2.130308e-002
1.145509e+003, 2.126611e-002
1.147438e+003, 2.103380e-002
1.149366e+003, 2.111436e-002
1.151295e+003, 2.113311e-002
1.153223e+003, 2.090161e-002
1.155152e+003, 2.083348e-002
1.157080e+003, 2.078867e-002
1.159009e+003, 2.067516e-002
1.160937e+003, 2.080842e-002
1.162865e+003, 2.105465e-002
1.164794e+003, 2.108569e-002
1.166722e+003, 2.098917e-002
1.168651e+003, 2.080970e-002
1.170579e+003, 2.081463e-002
1.172508e+003, 2.102530e-002
1.174436e+003, 2.091186e-002
1.176365e+003, 2.080178e-002
1.178293e+003, 2.098513e-002
1.180222e+003, 2.107202e-002
1.182150e+003, 2.103857e-002
1.184079e+003, 2.068757e-002
1.186007e+003, 2.058005e-002
1.187936e+003, 2.083425e-002
1.189864e+003, 2.109338e-002
1.191792e+003, 2.122090e-002
1.193721e+003, 2.127445e-002
1.195649e+003, 2.146597e-002
1.197578e+003, 2.158083e-002
1.199506e+003, 2.157293e-002
1.201435e+003, 2.160149e-002
1.203363e+003, 2.158921e-002
1.205292e+003, 2.162435e-002
1.207220e+003, 2.173882e-002
1.209149e+003, 2.188304e-002
1.211077e+003, 2.193398e-002
1.213006e+003, 2.182670e-002
1.214934e+003, 2.187354e-002
1.216863e+003, 2.208508e-002
1.218791e+003, 2.224587e-002
1.220719e+003, 2.223474e-002
1.222648e+003, 2.231919e-002
1.224576e+003, 2.256585e-002
1.226505e+003, 2.265413e-002
1.228433e+003, 2.265257e-002
1.230362e+003, 2.287762e-002
1.232290e+003, 2.303401e-002
1.234219e+003, 2.326597e-002
1.236147e+003, 2.332187e-002
1.238076e+003, 2.315016e-002
1.240004e+003, 2.333033e-002
1.241933e+003, 2.372781e-002
1.243861e+003, 2.382411e-002
1.245790e+003, 2.410639e-002
1.247718e+003, 2.438895e-002
1.249646e+003, 2.433786e-002
1.251575e+003, 2.434979e-002
1.253503e+003, 2.442524e-002
1.255432e+003, 2.458217e-002
1.257360e+003, 2.471507e-002
1.259289e+003, 2.473388e-002
1.261217e+003, 2.481022e-002
1.263146e+003, 2.491932e-002
1.265074e+003, 2.486431e-002
1.267003e+003, 2.491893e-002
1.268931e+003, 2.514045e-002
1.270860e+003, 2.546982e-002
1.272788e+003, 2.578131e-002
1.274717e+003, 2.595722e-002
1.276645e+003, 2.619009e-002
1.278573e+003, 2.617339e-002
1.280502e+003, 2.625055e-002
1.282430e+003, 2.647381e-002
1.284359e+003, 2.649518e-002
1.286287e+003, 2.649367e-002
1.288216e+003, 2.670212e-002
1.290144e+003, 2.696419e-002
1.292073e+003, 2.710858e-002
1.294001e+003, 2.731439e-002
1.295930e+003, 2.753289e-002
1.297858e+003, 2.757393e-002
1.299787e+003, 2.786774e-002
1.301715e+003, 2.812532e-002
1.303644e+003, 2.811554e-002
1.305572e+003, 2.833767e-002
1.307500e+003, 2.871433e-002
1.309429e+003, 2.890001e-002
1.311357e+003, 2.891030e-002
1.313286e+003, 2.915516e-002
1.315214e+003, 2.971429e-002
1.317143e+003, 2.984267e-002
1.319071e+003, 2.969976e-002
1.321000e+003, 2.982773e-002
1.322928e+003, 3.025182e-002
1.324857e+003, 3.039103e-002
1.326785e+003, 3.054700e-002
1.328714e+003, 3.054919e-002
1.330642e+003, 3.087039e-002
1.332571e+003, 3.124784e-002
1.334499e+003, 3.156636e-002
1.336427e+003, 3.197060e-002
1.338356e+003, 3.222897e-002
1.340284e+003, 3.238358e-002
1.342213e+003, 3.256117e-002
1.344141e+003, 3.293275e-002
1.346070e+003, 3.338744e-002
1.347998e+003, 3.382868e-002
1.349927e+003, 3.442407e-002
1.351855e+003, 3.492735e-002
1.353784e+003, 3.551776e-002
1.355712e+003, 3.613584e-002
1.357641e+003, 3.665845e-002
1.359569e+003, 3.710015e-002
1.361498e+003, 3.748116e-002
1.363426e+003, 3.800445e-002
1.365354e+003, 3.860098e-002
1.367283e+003, 3.873037e-002
1.369211e+003, 3.884905e-002
1.371140e+003, 3.910407e-002
1.373068e+003, 3.934851e-002
1.374997e+003, 3.966219e-002
1.376925e+003, 3.995660e-002
1.378854e+003, 4.053981e-002
1.380782e+003, 4.102968e-002
1.382711e+003, 4.129844e-002
1.384639e+003, 4.143542e-002
1.386568e+003, 4.158084e-002
1.388496e+003, 4.207386e-002
1.390424e+003, 4.232956e-002
1.392353e+003, 4.288965e-002
1.394281e+003, 4.331938e-002
1.396210e+003, 4.377306e-002
1.398138e+003, 4.413681e-002
1.400067e+003, 4.444770e-002
1.401995e+003, 4.434384e-002
1.403924e+003, 4.468419e-002
1.405852e+003, 4.518679e-002
1.407781e+003, 4.515517e-002
1.409709e+003, 4.499893e-002
1.411638e+003, 4.499415e-002
1.413566e+003, 4.507351e-002
1.415495e+003, 4.515176e-002
1.417423e+003, 4.527482e-002
1.419351e+003, 4.557255e-002
1.421280e+003, 4.529447e-002
1.423208e+003, 4.502375e-002
1.425137e+003, 4.517815e-002
1.427065e+003, 4.499679e-002
1.428994e+003, 4.494713e-002
1.430922e+003, 4.542036e-002
1.432851e+003, 4.582686e-002
1.434779e+003, 4.590746e-002
1.436708e+003, 4.656551e-002
1.438636e+003, 4.730796e-002
1.440565e+003, 4.775193e-002
1.442493e+003, 4.830834e-002
1.444422e+003, 4.873053e-002
1.446350e+003, 4.906484e-002
1.448278e+003, 4.940123e-002
1.450207e+003, 4.963056e-002
1.452135e+003, 4.968217e-002
1.454064e+003, 4.908732e-002
1.455992e+003, 4.830559e-002
1.457921e+003, 4.836026e-002
1.459849e+003, 4.743805e-002
1.461778e+003, 4.638727e-002
1.463706e+003, 4.563550e-002
1.465635e+003, 4.526641e-002
1.467563e+003, 4.435451e-002
1.469492e+003, 4.372638e-002
1.471420e+003, 4.330074e-002
1.473349e+003, 4.324920e-002
1.475277e+003, 4.268749e-002
1.477205e+003, 4.257743e-002
1.479134e+003, 4.222285e-002
1.481062e+003, 4.223124e-002
1.482991e+003, 4.200826e-002
1.484919e+003, 4.149877e-002
1.486848e+003, 4.123119e-002
1.488776e+003, 4.113929e-002
1.490705e+003, 4.131375e-002
1.492633e+003, 4.106239e-002
1.494562e+003, 4.057610e-002
1.496490e+003, 4.053645e-002
1.498419e+003, 4.012579e-002
1.500347e+003, 4.022127e-002
1.502276e+003, 4.015420e-002
1.504204e+003, 3.956102e-002
1.506132e+003, 3.947327e-002
1.508061e+003, 4.000833e-002
1.509989e+003, 3.989855e-002
1.511918e+003, 3.982713e-002
1.513846e+003, 3.992011e-002
1.515775e+003, 3.975825e-002
1.517703e+003, 3.985894e-002
1.519632e+003, 3.954262e-002
1.521560e+003, 3.999107e-002
1.523489e+003, 4.006834e-002
1.525417e+003, 4.016829e-002
1.527346e+003, 4.021490e-002
1.529274e+003, 4.023708e-002
1.531203e+003, 4.008009e-002
1.533131e+003, 4.005676e-002
1.535059e+003, 4.055726e-002
1.536988e+003, 4.043180e-002
1.538916e+003, 4.025196e-002
1.540845e+003, 4.079759e-002
1.542773e+003, 4.128979e-002
1.544702e+003, 4.150158e-002
1.546630e+003, 4.176276e-002
1.548559e+003, 4.175164e-002
1.550487e+003, 4.195311e-002
1.552416e+003, 4.185637e-002
1.554344e+003, 4.229487e-002
1.556273e+003, 4.242851e-002
1.558201e+003, 4.270761e-002
1.560130e+003, 4.315907e-002
1.562058e+003, 4.307435e-002
1.563986e+003, 4.312195e-002
1.565915e+003, 4.363948e-002
1.567843e+003, 4.399220e-002
1.569772e+003, 4.427782e-002
1.571700e+003, 4.411663e-002
1.573629e+003, 4.395824e-002
1.575557e+003, 4.384667e-002
1.577486e+003, 4.455478e-002
1.579414e+003, 4.455319e-002
1.581343e+003, 4.475059e-002
1.583271e+003, 4.494685e-002
1.585200e+003, 4.504611e-002
1.587128e+003, 4.503675e-002
1.589057e+003, 4.537037e-002
1.590985e+003, 4.544497e-002
1.592913e+003, 4.528144e-002
1.594842e+003, 4.518439e-002
1.596770e+003, 4.517740e-002
1.598699e+003, 4.518945e-002
1.600627e+003, 4.511719e-002
1.602556e+003, 4.504652e-002
1.604484e+003, 4.533217e-002
1.606413e+003, 4.569713e-002
1.608341e+003, 4.561201e-002
1.610270e+003, 4.524645e-002
1.612198e+003, 4.499504e-002
1.614127e+003, 4.490855e-002
1.616055e+003, 4.497422e-002
1.617984e+003, 4.555923e-002
1.619912e+003, 4.511132e-002
1.621840e+003, 4.503861e-002
1.623769e+003, 4.539334e-002
1.625697e+003, 4.518034e-002
1.627626e+003, 4.515044e-002
1.629554e+003, 4.516562e-002
1.631483e+003, 4.510991e-002
1.633411e+003, 4.476039e-002
1.635340e+003, 4.489759e-002
1.637268e+003, 4.491414e-002
1.639197e+003, 4.466425e-002
1.641125e+003, 4.484271e-002
1.643054e+003, 4.496379e-002
1.644982e+003, 4.475119e-002
1.646911e+003, 4.513536e-002
1.648839e+003, 4.485874e-002
1.650767e+003, 4.423571e-002
1.652696e+003, 4.428018e-002
1.654624e+003, 4.495813e-002
1.656553e+003, 4.456029e-002
1.658481e+003, 4.467306e-002
1.660410e+003, 4.461265e-002
1.662338e+003, 4.489079e-002
1.664267e+003, 4.524580e-002
1.666195e+003, 4.480625e-002
1.668124e+003, 4.456944e-002
1.670052e+003, 4.481562e-002
1.671981e+003, 4.436812e-002
1.673909e+003, 4.413178e-002
1.675838e+003, 4.458477e-002
1.677766e+003, 4.444382e-002
1.679694e+003, 4.413242e-002
1.681623e+003, 4.377824e-002
1.683551e+003, 4.367447e-002
1.685480e+003, 4.432171e-002
1.687408e+003, 4.386909e-002
1.689337e+003, 4.422627e-002
1.691265e+003, 4.450317e-002
1.693194e+003, 4.457434e-002
1.695122e+003, 4.417987e-002
1.697051e+003, 4.450489e-002
1.698979e+003, 4.377528e-002
1.700908e+003, 4.463596e-002
1.702836e+003, 4.374202e-002
1.704765e+003, 4.367616e-002
1.706693e+003, 4.391703e-002
1.708621e+003, 4.409351e-002
1.710550e+003, 4.436093e-002
1.712478e+003, 4.405499e-002
1.714407e+003, 4.398447e-002
1.716335e+003, 4.407078e-002
1.718264e+003, 4.500873e-002
1.720192e+003, 4.495885e-002
1.722121e+003, 4.474837e-002
1.724049e+003, 4.534065e-002
1.725978e+003, 4.562735e-002
1.727906e+003, 4.497190e-002
1.729835e+003, 4.455368e-002
1.731763e+003, 4.451641e-002
1.733692e+003, 4.448561e-002
1.735620e+003, 4.451429e-002
1.737548e+003, 4.385426e-002
1.739477e+003, 4.357646e-002
1.741405e+003, 4.350543e-002
1.743334e+003, 4.364556e-002
1.745262e+003, 4.382108e-002
1.747191e+003, 4.413254e-002
1.749119e+003, 4.453588e-002
1.751048e+003, 4.497792e-002
1.752976e+003, 4.528146e-002
1.754905e+003, 4.523446e-002
1.756833e+003, 4.544471e-002
1.758762e+003, 4.576928e-002
1.760690e+003, 4.589044e-002
1.762619e+003, 4.626253e-002
1.764547e+003, 4.608050e-002
1.766475e+003, 4.606500e-002
1.768404e+003, 4.647312e-002
1.770332e+003, 4.656937e-002
1.772261e+003, 4.668609e-002
1.774189e+003, 4.702188e-002
1.776118e+003, 4.734910e-002
1.778046e+003, 4.745549e-002
1.779975e+003, 4.752856e-002
1.781903e+003, 4.808742e-002
1.783832e+003, 4.828921e-002
1.785760e+003, 4.821070e-002
1.787689e+003, 4.823602e-002
1.789617e+003, 4.873638e-002
1.791546e+003, 4.868252e-002
1.793474e+003, 4.855324e-002
1.795402e+003, 4.838444e-002
1.797331e+003, 4.894017e-002
1.799259e+003, 4.899261e-002
1.801188e+003, 4.896622e-002
1.803116e+003, 4.926113e-002
1.805045e+003, 4.923848e-002
1.806973e+003, 4.887273e-002
1.808902e+003, 4.875711e-002
1.810830e+003, 4.917911e-002
1.812759e+003, 4.933874e-002
1.814687e+003, 4.919342e-002
1.816616e+003, 4.933459e-002
1.818544e+003, 5.002511e-002
1.820473e+003, 5.032404e-002
1.822401e+003, 4.998542e-002
1.824329e+003, 4.971758e-002
1.826258e+003, 5.020706e-002
1.828186e+003, 5.006715e-002
1.830115e+003, 5.035137e-002
1.832043e+003, 5.009454e-002
1.833972e+003, 4.972074e-002
1.835900e+003, 4.996831e-002
1.837829e+003, 4.985671e-002
1.839757e+003, 4.988356e-002
1.841686e+003, 5.063780e-002
1.843614e+003, 5.023171e-002
1.845543e+003, 5.033613e-002
1.847471e+003, 5.023757e-002
1.849400e+003, 5.001026e-002
1.851328e+003, 4.962251e-002
1.853256e+003, 4.908703e-002
1.855185e+003, 4.953071e-002
1.857113e+003, 4.897278e-002
1.859042e+003, 4.877153e-002
1.860970e+003, 4.908176e-002
1.862899e+003, 4.880616e-002
1.864827e+003, 4.875764e-002
1.866756e+003, 4.934684e-002
1.868684e+003, 4.960432e-002
1.870613e+003, 4.967300e-002
1.872541e+003, 4.962277e-002
1.874470e+003, 4.926018e-002
1.876398e+003, 4.898882e-002
1.878327e+003, 4.836345e-002
1.880255e+003, 4.820246e-002
1.882183e+003, 4.853813e-002
1.884112e+003, 4.817101e-002
1.886040e+003, 4.828659e-002
1.887969e+003, 4.947911e-002
1.889897e+003, 5.007539e-002
1.891826e+003, 4.952208e-002
1.893754e+003, 4.952989e-002
1.895683e+003, 5.016427e-002
1.897611e+003, 5.023413e-002
1.899540e+003, 5.002004e-002
1.901468e+003, 4.982595e-002
1.903397e+003, 4.951771e-002
1.905325e+003, 5.023424e-002
1.907254e+003, 5.215631e-002
1.909182e+003, 5.226636e-002
1.911110e+003, 5.101543e-002
1.913039e+003, 5.116097e-002
1.914967e+003, 5.123235e-002
1.916896e+003, 5.134632e-002
1.918824e+003, 5.057773e-002
1.920753e+003, 5.034109e-002
1.922681e+003, 5.111121e-002
1.924610e+003, 5.095652e-002
1.926538e+003, 5.105699e-002
1.928467e+003, 5.019586e-002
1.930395e+003, 5.052151e-002
1.932324e+003, 5.112242e-002
1.934252e+003, 5.121502e-002
1.936181e+003, 5.131304e-002
1.938109e+003, 5.152683e-002
1.940037e+003, 5.183363e-002
1.941966e+003, 5.134787e-002
1.943894e+003, 5.149852e-002
1.945823e+003, 5.074488e-002
1.947751e+003, 5.054411e-002
1.949680e+003, 5.142653e-002
1.951608e+003, 5.180347e-002
1.953537e+003, 5.225840e-002
1.955465e+003, 5.078917e-002
1.957394e+003, 4.952902e-002
1.959322e+003, 5.021956e-002
1.961251e+003, 5.070933e-002
1.963179e+003, 5.181410e-002
1.965108e+003, 5.270587e-002
1.967036e+003, 5.266752e-002
1.968964e+003, 5.241648e-002
1.970893e+003, 5.174349e-002
1.972821e+003, 5.208978e-002
1.974750e+003, 5.291939e-002
1.976678e+003, 5.348124e-002
1.978607e+003, 5.359842e-002
1.980535e+003, 5.322039e-002
1.982464e+003, 5.414921e-002
1.984392e+003, 5.430012e-002
1.986321e+003, 5.414896e-002
1.988249e+003, 5.384409e-002
1.990178e+003, 5.404809e-002
1.992106e+003, 5.525089e-002
1.994035e+003, 5.386915e-002
1.995963e+003, 5.316534e-002
1.997891e+003, 5.234003e-002
1.999820e+003, 5.179293e-002
2.001748e+003, 5.190865e-002
2.003677e+003, 5.146900e-002
2.005605e+003, 5.053839e-002
2.007534e+003, 5.233526e-002
2.009462e+003, 5.384132e-002
2.011391e+003, 5.484484e-002
2.013319e+003, 5.521253e-002
2.015248e+003, 5.382218e-002
2.017176e+003, 5.237411e-002
2.019105e+003, 5.177071e-002
2.021033e+003, 5.238640e-002
2.022962e+003, 5.339007e-002
2.024890e+003, 5.352328e-002
2.026818e+003, 5.424079e-002
2.028747e+003, 5.619865e-002
2.030675e+003, 5.714176e-002
2.032604e+003, 5.699079e-002
2.034532e+003, 5.785555e-002
2.036461e+003, 5.516565e-002
2.038389e+003, 5.390905e-002
2.040318e+003, 5.598897e-002
2.042246e+003, 5.632009e-002
2.044175e+003, 5.606839e-002
2.046103e+003, 5.790696e-002
2.048032e+003, 5.874537e-002
2.049960e+003, 5.904212e-002
2.051889e+003, 5.734006e-002
2.053817e+003, 5.564292e-002
2.055746e+003, 5.606878e-002
2.057674e+003, 5.689090e-002
2.059603e+003, 5.927483e-002
2.061531e+003, 5.957981e-002
2.063459e+003, 5.728945e-002
2.065388e+003, 5.596460e-002
2.067316e+003, 5.631408e-002
2.069245e+003, 5.726953e-002
2.071173e+003, 5.839619e-002
2.073102e+003, 5.915499e-002
2.075030e+003, 5.980906e-002
2.076959e+003, 5.939606e-002
2.078887e+003, 5.920711e-002
2.080816e+003, 6.039279e-002
2.082744e+003, 6.085992e-002
2.084673e+003, 5.931181e-002
2.086601e+003, 5.751644e-002
2.088530e+003, 5.700907e-002
2.090458e+003, 5.598701e-002
2.092386e+003, 5.597798e-002
2.094315e+003, 5.646740e-002
2.096243e+003, 5.665265e-002
2.098172e+003, 5.750022e-002
2.100100e+003, 5.820579e-002
2.102029e+003, 5.869789e-002
2.103957e+003, 5.764565e-002
2.105886e+003, 5.607875e-002
2.107814e+003, 5.631392e-002
2.109743e+003, 5.821385e-002
2.111671e+003, 5.827577e-002
2.113600e+003, 5.715253e-002
2.115528e+003, 5.676617e-002
2.117457e+003, 5.773122e-002
2.119385e+003, 5.763390e-002
2.121313e+003, 5.685231e-002
2.123242e+003, 5.572790e-002
2.125170e+003, 5.556253e-002
2.127099e+003, 5.626461e-002
2.129027e+003, 5.613789e-002
2.130956e+003, 5.458583e-002
2.132884e+003, 5.403037e-002
2.134813e+003, 5.568465e-002
2.136741e+003, 5.688142e-002
2.138670e+003, 5.688541e-002
2.140598e+003, 5.790024e-002
2.142527e+003, 5.813628e-002
2.144455e+003, 5.758709e-002
2.146384e+003, 5.710717e-002
2.148312e+003, 5.710473e-002
2.150240e+003, 5.630640e-002
2.152169e+003, 5.499948e-002
2.154097e+003, 5.437057e-002
2.156026e+003, 5.243600e-002
2.157954e+003, 5.593526e-002
2.159883e+003, 6.294611e-002
2.161811e+003, 6.258269e-002
2.163740e+003, 6.356675e-002
2.165668e+003, 6.348426e-002
2.167597e+003, 6.204312e-002
2.169525e+003, 5.978351e-002
2.171454e+003, 5.797239e-002
2.173382e+003, 5.924223e-002
2.175311e+003, 6.147645e-002
2.177239e+003, 6.250411e-002
2.179167e+003, 6.118502e-002
2.181096e+003, 6.029444e-002
2.183024e+003, 6.000407e-002
2.184953e+003, 6.040810e-002
2.186881e+003, 6.249121e-002
2.188810e+003, 6.209375e-002
2.190738e+003, 6.094840e-002
2.192667e+003, 6.131238e-002
2.194595e+003, 6.139151e-002
2.196524e+003, 6.004025e-002
2.198452e+003, 5.980160e-002
2.200381e+003, 6.111590e-002
2.202309e+003, 6.183625e-002
2.204238e+003, 6.117118e-002
2.206166e+003, 6.129515e-002
2.208094e+003, 6.238890e-002
2.210023e+003, 6.106798e-002
2.211951e+003, 6.056074e-002
2.213880e+003, 6.246376e-002
2.215808e+003, 6.259993e-002
2.217737e+003, 6.238776e-002
2.219665e+003, 6.388067e-002
2.221594e+003, 6.405321e-002
2.223522e+003, 6.299119e-002
2.225451e+003, 6.285484e-002
2.227379e+003, 6.189156e-002
2.229308e+003, 6.094030e-002
2.231236e+003, 6.154505e-002
2.233165e+003, 6.429781e-002
2.235093e+003, 6.555974e-002
2.237021e+003, 6.310064e-002
2.238950e+003, 6.176016e-002
2.240878e+003, 6.208434e-002
2.242807e+003, 6.266646e-002
2.244735e+003, 6.247371e-002
2.246664e+003, 6.202744e-002
2.248592e+003, 6.193342e-002
2.250521e+003, 6.187154e-002
2.252449e+003, 6.149152e-002
2.254378e+003, 6.203803e-002
2.256306e+003, 6.236301e-002
2.258235e+003, 6.277595e-002
2.260163e+003, 6.369649e-002
2.262092e+003, 6.259960e-002
2.264020e+003, 6.169995e-002
2.265948e+003, 6.238680e-002
2.267877e+003, 6.240516e-002
2.269805e+003, 6.223478e-002
2.271734e+003, 6.323242e-002
2.273662e+003, 6.392702e-002
2.275591e+003, 6.508331e-002
2.277519e+003, 6.459992e-002
2.279448e+003, 6.472629e-002
2.281376e+003, 6.602257e-002
2.283305e+003, 6.573323e-002
2.285233e+003, 6.499451e-002
2.287162e+003, 6.404008e-002
2.289090e+003, 6.411072e-002
2.291019e+003, 6.474789e-002
2.292947e+003, 6.440937e-002
2.294875e+003, 6.409374e-002
2.296804e+003, 6.402750e-002
2.298732e+003, 6.378859e-002
2.300661e+003, 6.419516e-002
2.302589e+003, 6.518859e-002
2.304518e+003, 6.532315e-002
2.306446e+003, 6.517687e-002
2.308375e+003, 6.527442e-002
2.310303e+003, 6.519260e-002
2.312232e+003, 6.558427e-002
2.314160e+003, 6.589942e-002
2.316089e+003, 6.578425e-002
2.318017e+003, 6.581657e-002
2.319946e+003, 6.653517e-002
2.321874e+003, 6.747380e-002
2.323802e+003, 6.798311e-002
2.325731e+003, 6.700381e-002
2.327659e+003, 6.631943e-002
2.329588e+003, 6.629606e-002
2.331516e+003, 6.623067e-002
2.333445e+003, 6.635424e-002
2.335373e+003, 6.599271e-002
2.337302e+003, 6.563114e-002
2.339230e+003, 6.556877e-002
2.341159e+003, 6.569894e-002
2.343087e+003, 6.632005e-002
2.345016e+003, 6.670098e-002
2.346944e+003, 6.649668e-002
2.348873e+003, 6.566373e-002
2.350801e+003, 6.555172e-002
2.352729e+003, 6.575119e-002
2.354658e+003, 6.614360e-002
2.356586e+003, 6.663882e-002
2.358515e+003, 6.727721e-002
2.360443e+003, 6.754179e-002
2.362372e+003, 6.710809e-002
2.364300e+003, 6.635842e-002
2.366229e+003, 6.617810e-002
2.368157e+003, 6.624777e-002
2.370086e+003, 6.610508e-002
2.372014e+003, 6.606996e-002
2.373942e+003, 6.616121e-002
2.375871e+003, 6.630829e-002
2.377799e+003, 6.607204e-002
2.379728e+003, 6.573800e-002
2.381656e+003, 6.649365e-002
2.383585e+003, 6.738565e-002
2.385513e+003, 6.681111e-002
2.387442e+003, 6.677168e-002
2.389370e+003, 6.724592e-002
2.391299e+003, 6.789216e-002
2.393227e+003, 6.755017e-002
2.395156e+003, 6.720143e-002
2.397084e+003, 6.725237e-002
2.399012e+003, 6.722815e-002
2.400941e+003, 6.781476e-002
2.402869e+003, 6.808028e-002
2.404798e+003, 6.811271e-002
2.406726e+003, 6.773063e-002
2.408655e+003, 6.770200e-002
2.410583e+003, 6.750094e-002
2.412512e+003, 6.696762e-002
2.414440e+003, 6.787305e-002
2.416369e+003, 6.907097e-002
2.418297e+003, 6.880504e-002
2.420226e+003, 6.779222e-002
2.422154e+003, 6.767850e-002
2.424083e+003, 6.837167e-002
2.426011e+003, 6.877464e-002
2.427939e+003, 6.830562e-002
2.429868e+003, 6.909122e-002
2.431796e+003, 6.938403e-002
2.433725e+003, 6.914153e-002
2.435653e+003, 6.912174e-002
2.437582e+003, 6.888901e-002
2.439510e+003, 6.871162e-002
2.441439e+003, 6.962015e-002
2.443367e+003, 7.039434e-002
2.445296e+003, 6.995235e-002
2.447224e+003, 6.959594e-002
2.449153e+003, 6.969821e-002
2.451081e+003, 7.036151e-002
2.453010e+003, 7.081364e-002
2.454938e+003, 7.105845e-002
2.456866e+003, 7.078186e-002
2.458795e+003, 7.034557e-002
2.460723e+003, 7.097472e-002
2.462652e+003, 7.119968e-002
2.464580e+003, 7.057248e-002
2.466509e+003, 7.065018e-002
2.468437e+003, 7.125487e-002
2.470366e+003, 7.004315e-002
2.472294e+003, 6.968158e-002
2.474223e+003, 7.023341e-002
2.476151e+003, 7.063989e-002
2.478080e+003, 7.023617e-002
2.480008e+003, 7.019041e-002
2.481937e+003, 7.074796e-002
2.483865e+003, 7.097954e-002
2.485793e+003, 7.190983e-002
2.487722e+003, 7.257629e-002
2.489650e+003, 7.200943e-002
2.491579e+003, 7.240462e-002
2.493507e+003, 7.240633e-002
2.495436e+003, 7.148790e-002
2.497364e+003, 7.156006e-002
2.499293e+003, 7.253654e-002
2.501221e+003, 7.327624e-002
2.503150e+003, 7.405585e-002
2.505078e+003, 7.390380e-002
2.507007e+003, 7.317211e-002
2.508935e+003, 7.351749e-002
2.510864e+003, 7.446869e-002
2.512792e+003, 7.338430e-002
2.514720e+003, 7.297984e-002
2.516649e+003, 7.294858e-002
2.518577e+003, 7.324332e-002
2.520506e+003, 7.301962e-002
2.522434e+003, 7.383759e-002
2.524363e+003, 7.459495e-002
2.526291e+003, 7.345676e-002
2.528220e+003, 7.324747e-002
2.530148e+003, 7.499227e-002
2.532077e+003, 7.612304e-002
2.534005e+003, 7.498875e-002
2.535934e+003, 7.435554e-002
2.537862e+003, 7.596436e-002
2.539791e+003, 7.592771e-002
2.541719e+003, 7.467728e-002
2.543647e+003, 7.506430e-002
2.545576e+003, 7.530025e-002
2.547504e+003, 7.442873e-002
2.549433e+003, 7.494084e-002
2.551361e+003, 7.570346e-002
2.553290e+003, 7.556973e-002
2.555218e+003, 7.512632e-002
2.557147e+003, 7.536837e-002
2.559075e+003, 7.509343e-002
2.561004e+003, 7.500084e-002
2.562932e+003, 7.515860e-002
2.564861e+003, 7.533012e-002
2.566789e+003, 7.550207e-002
2.568718e+003, 7.538776e-002
2.570646e+003, 7.485044e-002
2.572574e+003, 7.477558e-002
2.574503e+003, 7.482979e-002
2.576431e+003, 7.537074e-002
2.578360e+003, 7.587036e-002
2.580288e+003, 7.622968e-002
2.582217e+003, 7.650383e-002
2.584145e+003, 7.687145e-002
2.586074e+003, 7.731359e-002
2.588002e+003, 7.634299e-002
2.589931e+003, 7.587156e-002
2.591859e+003, 7.666302e-002
2.593788e+003, 7.724451e-002
2.595716e+003, 7.730179e-002
2.597645e+003, 7.751471e-002
2.599573e+003, 7.750543e-002
2.601501e+003, 7.662773e-002
2.603430e+003, 7.632980e-002
2.605358e+003, 7.701691e-002
2.607287e+003, 7.838089e-002
2.609215e+003, 7.867923e-002
2.611144e+003, 7.789882e-002
2.613072e+003, 7.761227e-002
2.615001e+003, 7.812431e-002
2.616929e+003, 7.909773e-002
2.618858e+003, 7.898924e-002
2.620786e+003, 7.840069e-002
2.622715e+003, 7.818717e-002
2.624643e+003, 7.825052e-002
2.626572e+003, 7.854117e-002
2.628500e+003, 7.827219e-002
2.630428e+003, 7.848298e-002
2.632357e+003, 7.843537e-002
2.634285e+003, 7.905602e-002
2.636214e+003, 8.034820e-002
2.638142e+003, 8.034911e-002
2.640071e+003, 8.046260e-002
2.641999e+003, 8.106004e-002
2.643928e+003, 8.156042e-002
2.645856e+003, 8.151180e-002
2.647785e+003, 8.100440e-002
2.649713e+003, 8.108088e-002
2.651642e+003, 8.107921e-002
2.653570e+003, 8.044574e-002
2.655499e+003, 7.999007e-002
2.657427e+003, 7.995455e-002
2.659355e+003, 7.977910e-002
2.661284e+003, 7.968397e-002
2.663212e+003, 8.013072e-002
2.665141e+003, 8.040448e-002
2.667069e+003, 8.014641e-002
2.668998e+003, 7.986294e-002
2.670926e+003, 8.020954e-002
2.672855e+003, 8.061799e-002
2.674783e+003, 8.128557e-002
2.676712e+003, 8.214037e-002
2.678640e+003, 8.238468e-002
2.680569e+003, 8.203050e-002
2.682497e+003, 8.170953e-002
2.684426e+003, 8.192486e-002
2.686354e+003, 8.186321e-002
2.688282e+003, 8.157760e-002
2.690211e+003, 8.172216e-002
2.692139e+003, 8.179560e-002
2.694068e+003, 8.201846e-002
2.695996e+003, 8.273137e-002
2.697925e+003, 8.328882e-002
2.699853e+003, 8.325623e-002
2.701782e+003, 8.315291e-002
2.703710e+003, 8.310324e-002
2.705639e+003, 8.337785e-002
2.707567e+003, 8.341436e-002
2.709496e+003, 8.366370e-002
2.711424e+003, 8.378310e-002
2.713353e+003, 8.345366e-002
2.715281e+003, 8.376927e-002
2.717209e+003, 8.447426e-002
2.719138e+003, 8.432794e-002
2.721066e+003, 8.390354e-002
2.722995e+003, 8.380339e-002
2.724923e+003, 8.358858e-002
2.726852e+003, 8.420882e-002
2.728780e+003, 8.440234e-002
2.730709e+003, 8.409920e-002
2.732637e+003, 8.435509e-002
2.734566e+003, 8.527179e-002
2.736494e+003, 8.548622e-002
2.738423e+003, 8.549494e-002
2.740351e+003, 8.525347e-002
2.742280e+003, 8.437318e-002
2.744208e+003, 8.493835e-002
2.746136e+003, 8.581305e-002
2.748065e+003, 8.540686e-002
2.749993e+003, 8.600771e-002
2.751922e+003, 8.686922e-002
2.753850e+003, 8.708075e-002
2.755779e+003, 8.732690e-002
2.757707e+003, 8.683432e-002
2.759636e+003, 8.710064e-002
2.761564e+003, 8.773256e-002
2.763493e+003, 8.770139e-002
2.765421e+003, 8.779559e-002
2.767350e+003, 8.815935e-002
2.769278e+003, 8.777129e-002
2.771207e+003, 8.753477e-002
2.773135e+003, 8.830989e-002
2.775063e+003, 8.904479e-002
2.776992e+003, 8.911072e-002
2.778920e+003, 8.889078e-002
2.780849e+003, 8.944199e-002
2.782777e+003, 8.984536e-002
2.784706e+003, 8.967102e-002
2.786634e+003, 8.964240e-002
2.788563e+003, 8.941162e-002
2.790491e+003, 8.884518e-002
2.792420e+003, 8.883416e-002
2.794348e+003, 8.977017e-002
2.796277e+003, 9.085102e-002
2.798205e+003, 9.151792e-002
2.800134e+003, 9.148906e-002
2.802062e+003, 9.106490e-002
2.803990e+003, 9.071131e-002
2.805919e+003, 9.050262e-002
2.807847e+003, 9.075610e-002
2.809776e+003, 9.142312e-002
2.811704e+003, 9.218960e-002
2.813633e+003, 9.206861e-002
2.815561e+003, 9.221935e-002
2.817490e+003, 9.249854e-002
2.819418e+003, 9.261870e-002
2.821347e+003, 9.294543e-002
2.823275e+003, 9.376515e-002
2.825204e+003, 9.379417e-002
2.827132e+003, 9.344060e-002
2.829061e+003, 9.334283e-002
2.830989e+003, 9.381768e-002
2.832917e+003, 9.459712e-002
2.834846e+003, 9.441759e-002
2.836774e+003, 9.418596e-002
2.838703e+003, 9.489241e-002
2.840631e+003, 9.539113e-002
2.842560e+003, 9.523954e-002
2.844488e+003, 9.481254e-002
2.846417e+003, 9.514111e-002
2.848345e+003, 9.562933e-002
2.850274e+003, 9.557853e-002
2.852202e+003, 9.528673e-002
2.854131e+003, 9.525898e-002
2.856059e+003, 9.517322e-002
2.857988e+003, 9.531408e-002
2.859916e+003, 9.582329e-002
2.861844e+003, 9.656906e-002
2.863773e+003, 9.642048e-002
2.865701e+003, 9.689358e-002
2.867630e+003, 9.734857e-002
2.869558e+003, 9.708270e-002
2.871487e+003, 9.683166e-002
2.873415e+003, 9.728537e-002
2.875344e+003, 9.838866e-002
2.877272e+003, 9.991502e-002
2.879201e+003, 1.007709e-001
2.881129e+003, 1.002903e-001
2.883058e+003, 9.978624e-002
2.884986e+003, 1.001957e-001
2.886915e+003, 1.002849e-001
2.888843e+003, 1.003893e-001
2.890771e+003, 1.011174e-001
2.892700e+003, 1.016427e-001
2.894628e+003, 1.019230e-001
2.896557e+003, 1.015871e-001
2.898485e+003, 1.011044e-001
2.900414e+003, 1.011487e-001
2.902342e+003, 1.015691e-001
2.904271e+003, 1.015459e-001
2.906199e+003, 1.020460e-001
2.908128e+003, 1.033819e-001
2.910056e+003, 1.035973e-001
2.911985e+003, 1.039263e-001
2.913913e+003, 1.028939e-001
2.915842e+003, 1.019021e-001
2.917770e+003, 1.028882e-001
2.919698e+003, 1.039673e-001
2.921627e+003, 1.033167e-001
2.923555e+003, 1.035322e-001
2.925484e+003, 1.035108e-001
2.927412e+003, 1.029192e-001
2.929341e+003, 1.024680e-001
2.931269e+003, 1.020497e-001
2.933198e+003, 1.024787e-001
2.935126e+003, 1.039244e-001
2.937055e+003, 1.055546e-001
2.938983e+003, 1.054622e-001
2.940912e+003, 1.043506e-001
2.942840e+003, 1.047069e-001
2.944769e+003, 1.057636e-001
2.946697e+003, 1.067311e-001
2.948625e+003, 1.064996e-001
2.950554e+003, 1.064956e-001
2.952482e+003, 1.070411e-001
2.954411e+003, 1.070803e-001
2.956339e+003, 1.069980e-001
2.958268e+003, 1.061924e-001
2.960196e+003, 1.055392e-001
2.962125e+003, 1.064920e-001
2.964053e+003, 1.076946e-001
2.965982e+003, 1.086394e-001
2.967910e+003, 1.093573e-001
2.969839e+003, 1.099477e-001
2.971767e+003, 1.101778e-001
2.973696e+003, 1.098166e-001
2.975624e+003, 1.075265e-001
2.977552e+003, 1.079468e-001
2.979481e+003, 1.113867e-001
2.981409e+003, 1.129016e-001
2.983338e+003, 1.121472e-001
2.985266e+003, 1.120375e-001
2.987195e+003, 1.116022e-001
2.989123e+003, 1.117390e-001
2.991052e+003, 1.116955e-001
2.992980e+003, 1.121295e-001
2.994909e+003, 1.131078e-001
2.996837e+003, 1.137946e-001
2.998766e+003, 1.134536e-001
3.000694e+003, 1.128120e-001
3.002623e+003, 1.137819e-001
3.004551e+003, 1.145752e-001
3.006479e+003, 1.154651e-001
3.008408e+003, 1.163148e-001
3.010336e+003, 1.160449e-001
3.012265e+003, 1.159954e-001
3.014193e+003, 1.166349e-001
3.016122e+003, 1.165735e-001
3.018050e+003, 1.179173e-001
3.019979e+003, 1.195286e-001
3.021907e+003, 1.185571e-001
3.023836e+003, 1.180879e-001
3.025764e+003, 1.188815e-001
3.027693e+003, 1.193176e-001
3.029621e+003, 1.199474e-001
3.031550e+003, 1.205504e-001
3.033478e+003, 1.203305e-001
3.035406e+003, 1.198682e-001
3.037335e+003, 1.214241e-001
3.039263e+003, 1.220147e-001
3.041192e+003, 1.226087e-001
3.043120e+003, 1.238343e-001
3.045049e+003, 1.240222e-001
3.046977e+003, 1.250468e-001
3.048906e+003, 1.264160e-001
3.050834e+003, 1.251694e-001
3.052763e+003, 1.248409e-001
3.054691e+003, 1.259997e-001
3.056620e+003, 1.260411e-001
3.058548e+003, 1.260048e-001
3.060477e+003, 1.270214e-001
3.062405e+003, 1.270090e-001
3.064333e+003, 1.273267e-001
3.066262e+003, 1.291085e-001
3.068190e+003, 1.306166e-001
3.070119e+003, 1.309220e-001
3.072047e+003, 1.306437e-001
3.073976e+003, 1.304745e-001
3.075904e+003, 1.314978e-001
3.077833e+003, 1.324608e-001
3.079761e+003, 1.332667e-001
3.081690e+003, 1.326239e-001
3.083618e+003, 1.326129e-001
3.085547e+003, 1.334984e-001
3.087475e+003, 1.348757e-001
3.089404e+003, 1.365862e-001
3.091332e+003, 1.365499e-001
3.093260e+003, 1.368510e-001
3.095189e+003, 1.381942e-001
3.097117e+003, 1.393194e-001
3.099046e+003, 1.400319e-001
3.100974e+003, 1.399453e-001
3.102903e+003, 1.406666e-001
3.104831e+003, 1.422562e-001
3.106760e+003, 1.429987e-001
3.108688e+003, 1.428081e-001
3.110617e+003, 1.437742e-001
3.112545e+003, 1.439880e-001
3.114474e+003, 1.451848e-001
3.116402e+003, 1.469461e-001
3.118331e+003, 1.479734e-001
3.120259e+003, 1.489710e-001
3.122188e+003, 1.495335e-001
3.124116e+003, 1.508245e-001
3.126044e+003, 1.507238e-001
3.127973e+003, 1.507699e-001
3.129901e+003, 1.510143e-001
3.131830e+003, 1.513833e-001
3.133758e+003, 1.534218e-001
3.135687e+003, 1.553498e-001
3.137615e+003, 1.575559e-001
3.139544e+003, 1.569153e-001
3.141472e+003, 1.564730e-001
3.143401e+003, 1.570893e-001
3.145329e+003, 1.569457e-001
3.147258e+003, 1.566727e-001
3.149186e+003, 1.561108e-001
3.151115e+003, 1.588844e-001
3.153043e+003, 1.613494e-001
3.154971e+003, 1.613418e-001
3.156900e+003, 1.611994e-001
3.158828e+003, 1.597976e-001
3.160757e+003, 1.585551e-001
3.162685e+003, 1.595555e-001
3.164614e+003, 1.607600e-001
3.166542e+003, 1.610376e-001
3.168471e+003, 1.619498e-001
3.170399e+003, 1.615633e-001
3.172328e+003, 1.610979e-001
3.174256e+003, 1.598874e-001
3.176185e+003, 1.578140e-001
3.178113e+003, 1.557873e-001
3.180042e+003, 1.557001e-001
3.181970e+003, 1.553378e-001
3.183898e+003, 1.552748e-001
3.185827e+003, 1.562507e-001
3.187755e+003, 1.558721e-001
3.189684e+003, 1.559084e-001
3.191612e+003, 1.549454e-001
3.193541e+003, 1.550873e-001
3.195469e+003, 1.552041e-001
3.197398e+003, 1.527904e-001
3.199326e+003, 1.516178e-001
3.201255e+003, 1.511299e-001
3.203183e+003, 1.499735e-001
3.205112e+003, 1.504284e-001
3.207040e+003, 1.513592e-001
3.208969e+003, 1.494861e-001
3.210897e+003, 1.489248e-001
3.212825e+003, 1.495514e-001
3.214754e+003, 1.486861e-001
3.216682e+003, 1.472675e-001
3.218611e+003, 1.462909e-001
3.220539e+003, 1.462191e-001
3.222468e+003, 1.465569e-001
3.224396e+003, 1.454432e-001
3.226325e+003, 1.430281e-001
3.228253e+003, 1.434279e-001
3.230182e+003, 1.437840e-001
3.232110e+003, 1.427877e-001
3.234039e+003, 1.415970e-001
3.235967e+003, 1.410411e-001
3.237896e+003, 1.399457e-001
3.239824e+003, 1.383515e-001
3.241752e+003, 1.367688e-001
3.243681e+003, 1.355630e-001
3.245609e+003, 1.364022e-001
3.247538e+003, 1.356079e-001
3.249466e+003, 1.347532e-001
3.251395e+003, 1.363507e-001
3.253323e+003, 1.347514e-001
3.255252e+003, 1.319109e-001
3.257180e+003, 1.306201e-001
3.259109e+003, 1.321879e-001
3.261037e+003, 1.324345e-001
3.262966e+003, 1.301994e-001
3.264894e+003, 1.288795e-001
3.266823e+003, 1.268462e-001
3.268751e+003, 1.269566e-001
3.270679e+003, 1.265189e-001
3.272608e+003, 1.260658e-001
3.274536e+003, 1.255419e-001
3.276465e+003, 1.248536e-001
3.278393e+003, 1.231524e-001
3.280322e+003, 1.228728e-001
3.282250e+003, 1.226924e-001
3.284179e+003, 1.206494e-001
3.286107e+003, 1.205611e-001
3.288036e+003, 1.213206e-001
3.289964e+003, 1.204573e-001
3.291893e+003, 1.180813e-001
3.293821e+003, 1.176327e-001
3.295750e+003, 1.187830e-001
3.297678e+003, 1.172889e-001
3.299606e+003, 1.152652e-001
3.301535e+003, 1.157866e-001
3.303463e+003, 1.156379e-001
3.305392e+003, 1.135272e-001
3.307320e+003, 1.134694e-001
3.309249e+003, 1.137100e-001
3.311177e+003, 1.123559e-001
3.313106e+003, 1.125188e-001
3.315034e+003, 1.118303e-001
3.316963e+003, 1.117817e-001
3.318891e+003, 1.122287e-001
3.320820e+003, 1.130522e-001
3.322748e+003, 1.134642e-001
3.324677e+003, 1.128977e-001
3.326605e+003, 1.121503e-001
3.328533e+003, 1.107865e-001
3.330462e+003, 1.095454e-001
3.332390e+003, 1.088691e-001
3.334319e+003, 1.087306e-001
3.336247e+003, 1.091952e-001
3.338176e+003, 1.081799e-001
3.340104e+003, 1.081279e-001
3.342033e+003, 1.080258e-001
3.343961e+003, 1.089476e-001
3.345890e+003, 1.088111e-001
3.347818e+003, 1.068859e-001
3.349747e+003, 1.067642e-001
3.351675e+003, 1.083404e-001
3.353604e+003, 1.095784e-001
3.355532e+003, 1.090081e-001
3.357460e+003, 1.077561e-001
3.359389e+003, 1.070402e-001
3.361317e+003, 1.065296e-001
3.363246e+003, 1.045033e-001
3.365174e+003, 1.048016e-001
3.367103e+003, 1.061622e-001
3.369031e+003, 1.061799e-001
3.370960e+003, 1.046541e-001
3.372888e+003, 1.024427e-001
3.374817e+003, 1.024588e-001
3.376745e+003, 1.042584e-001
3.378674e+003, 1.046051e-001
3.380602e+003, 1.033261e-001
3.382531e+003, 1.038064e-001
3.384459e+003, 1.057935e-001
3.386387e+003, 1.050677e-001
3.388316e+003, 1.040363e-001
3.390244e+003, 1.037813e-001
3.392173e+003, 1.038232e-001
3.394101e+003, 1.025814e-001
3.396030e+003, 1.021999e-001
3.397958e+003, 1.034206e-001
3.399887e+003, 1.035269e-001
3.401815e+003, 1.040847e-001
3.403744e+003, 1.040217e-001
3.405672e+003, 1.023348e-001
3.407601e+003, 1.018645e-001
3.409529e+003, 1.020953e-001
3.411458e+003, 1.028954e-001
3.413386e+003, 1.032642e-001
3.415314e+003, 1.034770e-001
3.417243e+003, 1.027166e-001
3.419171e+003, 1.008022e-001
3.421100e+003, 1.000172e-001
3.423028e+003, 1.005907e-001
3.424957e+003, 1.007171e-001
3.426885e+003, 1.010514e-001
3.428814e+003, 1.014961e-001
3.430742e+003, 9.880837e-002
3.432671e+003, 9.931841e-002
3.434599e+003, 1.001453e-001
3.436528e+003, 1.012669e-001
3.438456e+003, 1.021166e-001
3.440385e+003, 1.031396e-001
3.442313e+003, 1.040327e-001
3.444241e+003, 1.035420e-001
3.446170e+003, 9.994792e-002
3.448098e+003, 9.939307e-002
3.450027e+003, 1.015846e-001
3.451955e+003, 1.031148e-001
3.453884e+003, 1.018814e-001
3.455812e+003, 1.002763e-001
3.457741e+003, 9.919511e-002
3.459669e+003, 9.974284e-002
3.461598e+003, 1.001255e-001
3.463526e+003, 9.992778e-002
3.465455e+003, 1.015329e-001
3.467383e+003, 1.020718e-001
3.469312e+003, 1.008088e-001
3.471240e+003, 1.017714e-001
3.473168e+003, 1.012675e-001
3.475097e+003, 1.018827e-001
3.477025e+003, 1.031999e-001
3.478954e+003, 1.030634e-001
3.480882e+003, 1.035897e-001
3.482811e+003, 1.039596e-001
3.484739e+003, 1.037197e-001
3.486668e+003, 1.038121e-001
3.488596e+003, 1.019581e-001
3.490525e+003, 9.974870e-002
3.492453e+003, 9.967914e-002
3.494382e+003, 1.016194e-001
3.496310e+003, 1.014798e-001
3.498239e+003, 1.030030e-001
3.500167e+003, 1.036139e-001
3.502095e+003, 1.025982e-001
3.504024e+003, 1.039275e-001
3.505952e+003, 1.040492e-001
3.507881e+003, 1.057604e-001
3.509809e+003, 1.064732e-001
3.511738e+003, 1.047399e-001
3.513666e+003, 1.032289e-001
3.515595e+003, 1.039515e-001
3.517523e+003, 1.036763e-001
3.519452e+003, 1.008300e-001
3.521380e+003, 1.009658e-001
3.523309e+003, 1.004408e-001
3.525237e+003, 9.935862e-002
3.527166e+003, 9.940059e-002
3.529094e+003, 1.003838e-001
3.531022e+003, 1.018418e-001
3.532951e+003, 1.018262e-001
3.534879e+003, 1.017613e-001
3.536808e+003, 1.042273e-001
3.538736e+003, 1.063028e-001
3.540665e+003, 1.077925e-001
3.542593e+003, 1.078025e-001
3.544522e+003, 1.077942e-001
3.546450e+003, 1.093774e-001
3.548379e+003, 1.088836e-001
3.550307e+003, 1.045041e-001
3.552236e+003, 1.021437e-001
3.554164e+003, 1.019136e-001
3.556093e+003, 9.757303e-002
3.558021e+003, 9.589387e-002
3.559949e+003, 9.642784e-002
3.561878e+003, 9.388792e-002
3.563806e+003, 9.143830e-002
3.565735e+003, 9.175611e-002
3.567663e+003, 9.052264e-002
3.569592e+003, 9.039698e-002
3.571520e+003, 9.269166e-002
3.573449e+003, 9.152406e-002
3.575377e+003, 9.176004e-002
3.577306e+003, 9.121840e-002
3.579234e+003, 9.001223e-002
3.581163e+003, 8.851692e-002
3.583091e+003, 9.055890e-002
3.585020e+003, 9.220937e-002
3.586948e+003, 9.194653e-002
3.588876e+003, 9.099635e-002
3.590805e+003, 9.062140e-002
3.592733e+003, 9.078196e-002
3.594662e+003, 8.993433e-002
3.596590e+003, 9.283705e-002
3.598519e+003, 9.440798e-002
3.600447e+003, 9.153722e-002
3.602376e+003, 9.109872e-002
3.604304e+003, 9.189828e-002
3.606233e+003, 9.206531e-002
3.608161e+003, 9.231780e-002
3.610090e+003, 9.114004e-002
3.612018e+003, 9.083088e-002
3.613947e+003, 8.969633e-002
3.615875e+003, 9.108760e-002
3.617803e+003, 9.215355e-002
3.619732e+003, 9.108178e-002
3.621660e+003, 9.220070e-002
3.623589e+003, 9.234579e-002
3.625517e+003, 8.994579e-002
3.627446e+003, 8.894733e-002
3.629374e+003, 9.179170e-002
3.631303e+003, 9.420933e-002
3.633231e+003, 9.171741e-002
3.635160e+003, 9.312443e-002
3.637088e+003, 9.161999e-002
3.639017e+003, 8.871516e-002
3.640945e+003, 8.968256e-002
3.642874e+003, 9.310674e-002
3.644802e+003, 9.452211e-002
3.646730e+003, 9.350301e-002
3.648659e+003, 9.226067e-002
3.650587e+003, 8.994019e-002
3.652516e+003, 9.063289e-002
3.654444e+003, 9.036344e-002
3.656373e+003, 9.026743e-002
3.658301e+003, 9.293777e-002
3.660230e+003, 9.433638e-002
3.662158e+003, 9.266374e-002
3.664087e+003, 9.212911e-002
3.666015e+003, 8.892109e-002
3.667944e+003, 8.763738e-002
3.669872e+003, 8.949506e-002
3.671801e+003, 9.170888e-002
3.673729e+003, 9.258007e-002
3.675657e+003, 9.162740e-002
3.677586e+003, 9.185627e-002
3.679514e+003, 9.413500e-002
3.681443e+003, 9.666174e-002
3.683371e+003, 9.729385e-002
3.685300e+003, 9.723071e-002
3.687228e+003, 9.411460e-002
3.689157e+003, 9.045383e-002
3.691085e+003, 9.171920e-002
3.693014e+003, 9.561034e-002
3.694942e+003, 9.742290e-002
3.696871e+003, 9.844542e-002
3.698799e+003, 9.622896e-002
3.700728e+003, 9.475628e-002
3.702656e+003, 9.298461e-002
3.704584e+003, 9.156577e-002
3.706513e+003, 9.075531e-002
3.708441e+003, 9.500689e-002
3.710370e+003, 9.804922e-002
3.712298e+003, 9.559315e-002
3.714227e+003, 9.623247e-002
3.716155e+003, 9.670848e-002
3.718084e+003, 9.676463e-002
3.720012e+003, 9.469949e-002
3.721941e+003, 9.346256e-002
3.723869e+003, 9.519634e-002
3.725798e+003, 9.510706e-002
3.727726e+003, 9.467670e-002
3.729655e+003, 9.550025e-002
3.731583e+003, 9.673130e-002
3.733511e+003, 9.500217e-002
3.735440e+003, 9.362835e-002
3.737368e+003, 9.469869e-002
3.739297e+003, 9.651192e-002
3.741225e+003, 9.662157e-002
3.743154e+003, 9.716897e-002
3.745082e+003, 9.800860e-002
3.747011e+003, 9.961520e-002
3.748939e+003, 9.733552e-002
3.750868e+003, 9.474403e-002
3.752796e+003, 9.681311e-002
3.754725e+003, 9.899656e-002
3.756653e+003, 9.769529e-002
3.758582e+003, 9.594680e-002
3.760510e+003, 9.656127e-002
3.762438e+003, 9.850321e-002
3.764367e+003, 9.463325e-002
3.766295e+003, 9.306015e-002
3.768224e+003, 9.410338e-002
3.770152e+003, 9.777303e-002
3.772081e+003, 9.936141e-002
3.774009e+003, 9.543352e-002
3.775938e+003, 9.714872e-002
3.777866e+003, 1.000232e-001
3.779795e+003, 9.890297e-002
3.781723e+003, 1.020819e-001
3.783652e+003, 1.052853e-001
3.785580e+003, 1.037018e-001
3.787509e+003, 1.012861e-001
3.789437e+003, 9.917693e-002
3.791365e+003, 9.887812e-002
3.793294e+003, 1.015227e-001
3.795222e+003, 1.016357e-001
3.797151e+003, 9.983364e-002
3.799079e+003, 1.002526e-001
3.801008e+003, 1.017855e-001
3.802936e+003, 1.021646e-001
3.804865e+003, 1.032196e-001
3.806793e+003, 1.047040e-001
3.808722e+003, 1.034435e-001
3.810650e+003, 1.019208e-001
3.812579e+003, 1.013464e-001
3.814507e+003, 1.017174e-001
3.816436e+003, 1.005563e-001
3.818364e+003, 1.006652e-001
3.820292e+003, 1.029756e-001
3.822221e+003, 1.029815e-001
3.824149e+003, 1.015889e-001
3.826078e+003, 1.015095e-001
3.828006e+003, 1.030646e-001
3.829935e+003, 1.014890e-001
3.831863e+003, 9.815940e-002
3.833792e+003, 9.821710e-002
3.835720e+003, 9.945486e-002
3.837649e+003, 9.710037e-002
3.839577e+003, 1.005116e-001
3.841506e+003, 1.081337e-001
3.843434e+003, 1.071661e-001
3.845363e+003, 1.022093e-001
3.847291e+003, 1.020496e-001
3.849219e+003, 1.041402e-001
3.851148e+003, 1.013843e-001
3.853076e+003, 9.940656e-002
3.855005e+003, 1.028536e-001
3.856933e+003, 1.041059e-001
3.858862e+003, 1.062009e-001
3.860790e+003, 1.058433e-001
3.862719e+003, 1.045440e-001
3.864647e+003, 1.020068e-001
3.866576e+003, 9.996443e-002
3.868504e+003, 1.016452e-001
3.870433e+003, 1.020056e-001
3.872361e+003, 1.023139e-001
3.874290e+003, 1.032801e-001
3.876218e+003, 1.049505e-001
3.878146e+003, 1.056531e-001
3.880075e+003, 1.075084e-001
3.882003e+003, 1.069720e-001
3.883932e+003, 1.069515e-001
3.885860e+003, 1.084054e-001
3.887789e+003, 1.132926e-001
3.889717e+003, 1.145790e-001
3.891646e+003, 1.098764e-001
3.893574e+003, 1.058022e-001
3.895503e+003, 1.043404e-001
3.897431e+003, 1.030605e-001
3.899360e+003, 1.040957e-001
3.901288e+003, 1.069366e-001
3.903217e+003, 1.074934e-001
3.905145e+003, 1.059172e-001
3.907073e+003, 1.047203e-001
3.909002e+003, 1.050949e-001
3.910930e+003, 1.050145e-001
3.912859e+003, 1.066754e-001
3.914787e+003, 1.083261e-001
3.916716e+003, 1.083508e-001
3.918644e+003, 1.084727e-001
3.920573e+003, 1.080587e-001
3.922501e+003, 1.076454e-001
3.924430e+003, 1.032804e-001
3.926358e+003, 1.027738e-001
3.928287e+003, 1.073970e-001
3.930215e+003, 1.092843e-001
3.932144e+003, 1.051547e-001
3.934072e+003, 1.023050e-001
3.936000e+003, 1.037471e-001
3.937929e+003, 1.071041e-001
3.939857e+003, 1.101186e-001
3.941786e+003, 1.064992e-001
3.943714e+003, 1.069170e-001
3.945643e+003, 1.098674e-001
3.947571e+003, 1.095822e-001
3.949500e+003, 1.102348e-001
3.951428e+003, 1.096372e-001
3.953357e+003, 1.096200e-001
3.955285e+003, 1.109128e-001
3.957214e+003, 1.141884e-001
3.959142e+003, 1.148157e-001
3.961071e+003, 1.144929e-001
3.962999e+003, 1.114482e-001
3.964927e+003, 1.082841e-001
3.966856e+003, 1.062757e-001
3.968784e+003, 1.108368e-001
3.970713e+003, 1.150028e-001
3.972641e+003, 1.124538e-001
3.974570e+003, 1.106677e-001
3.976498e+003, 1.091580e-001
3.978427e+003, 1.088268e-001
3.980355e+003, 1.060319e-001
3.982284e+003, 1.051146e-001
3.984212e+003, 1.070668e-001
3.986141e+003, 1.077622e-001
3.988069e+003, 1.088895e-001
3.989998e+003, 1.112031e-001
3.991926e+003, 1.122621e-001
3.993854e+003, 1.130506e-001
3.995783e+003, 1.103076e-001
3.997711e+003, 1.102487e-001
3.999640e+003, 1.103019e-001
4.001568e+003, 0.000000e+000
##END=



