##NAMES=Conichalcite
##RRUFFID=R040167
##IDEAL CHEMISTRY=CaCu^2+^As^5+^O_4_(OH)
##LOCALITY=Ojuela mine, Mapimi, Durango, Mexico
##OWNER=RRUFF
##SOURCE=University of Arizona Mineral Museum
##DESCRIPTION=Green druse
##STATUS=The identification of this mineral is confirmed by single-crystal X-ray diffraction and chemical analysis.
##URL=rruff.info/R040167
##MEASURED CHEMISTRY=Ca_1.00_(Cu_0.70_Zn_0.30_)_Î£=1_(As_1.00_O_4_)(OH) ; OH estimated by difference and stoichiometry
3.991926e+002, 0.000000e+000
4.011211e+002, 1.156775e-001
4.030496e+002, 1.162076e-001
4.049780e+002, 1.161922e-001
4.069065e+002, 1.143632e-001
4.088350e+002, 1.107423e-001
4.107634e+002, 1.103533e-001
4.126919e+002, 1.074596e-001
4.146204e+002, 1.036973e-001
4.165488e+002, 1.013802e-001
4.184773e+002, 9.842490e-002
4.204058e+002, 9.642499e-002
4.223342e+002, 9.450222e-002
4.242627e+002, 9.276280e-002
4.261912e+002, 9.037443e-002
4.281196e+002, 8.788628e-002
4.300481e+002, 8.534640e-002
4.319766e+002, 8.372407e-002
4.339050e+002, 8.303782e-002
4.358335e+002, 8.112042e-002
4.377620e+002, 7.813624e-002
4.396904e+002, 7.664785e-002
4.416189e+002, 7.584168e-002
4.435474e+002, 7.397126e-002
4.454758e+002, 7.235617e-002
4.474043e+002, 7.173155e-002
4.493328e+002, 7.107382e-002
4.512612e+002, 7.079580e-002
4.531897e+002, 7.064949e-002
4.551182e+002, 6.955627e-002
4.570466e+002, 6.913611e-002
4.589751e+002, 6.917193e-002
4.609036e+002, 6.936880e-002
4.628320e+002, 6.772890e-002
4.647605e+002, 6.540645e-002
4.666890e+002, 6.308708e-002
4.686174e+002, 5.985155e-002
4.705459e+002, 5.667722e-002
4.724744e+002, 5.364805e-002
4.744028e+002, 5.044348e-002
4.763313e+002, 4.787024e-002
4.782598e+002, 4.510762e-002
4.801882e+002, 4.209922e-002
4.821167e+002, 3.937811e-002
4.840452e+002, 3.804253e-002
4.859736e+002, 3.658779e-002
4.879021e+002, 3.527256e-002
4.898306e+002, 3.442061e-002
4.917590e+002, 3.372250e-002
4.936875e+002, 3.242769e-002
4.956160e+002, 3.135110e-002
4.975444e+002, 3.096696e-002
4.994729e+002, 3.085500e-002
5.014014e+002, 3.062970e-002
5.033298e+002, 3.048585e-002
5.052583e+002, 3.131129e-002
5.071868e+002, 3.266405e-002
5.091152e+002, 3.418111e-002
5.110437e+002, 3.580509e-002
5.129722e+002, 3.749493e-002
5.149006e+002, 3.911572e-002
5.168291e+002, 4.069766e-002
5.187576e+002, 4.216482e-002
5.206860e+002, 4.462347e-002
5.226145e+002, 4.712228e-002
5.245430e+002, 4.892718e-002
5.264714e+002, 5.008452e-002
5.283999e+002, 5.068740e-002
5.303284e+002, 5.077291e-002
5.322568e+002, 4.992170e-002
5.341853e+002, 4.862666e-002
5.361138e+002, 4.699545e-002
5.380422e+002, 4.527327e-002
5.399707e+002, 4.371741e-002
5.418992e+002, 4.265112e-002
5.438276e+002, 4.195214e-002
5.457561e+002, 4.185545e-002
5.476846e+002, 4.258486e-002
5.496130e+002, 4.436819e-002
5.515415e+002, 4.723596e-002
5.534700e+002, 5.088589e-002
5.553984e+002, 5.528731e-002
5.573269e+002, 5.904508e-002
5.592554e+002, 6.254273e-002
5.611838e+002, 6.631177e-002
5.631123e+002, 6.953421e-002
5.650408e+002, 7.140839e-002
5.669692e+002, 7.196347e-002
5.688977e+002, 7.083978e-002
5.708262e+002, 6.752230e-002
5.727546e+002, 6.329624e-002
5.746831e+002, 5.827309e-002
5.766116e+002, 5.301867e-002
5.785400e+002, 4.827735e-002
5.804685e+002, 4.383826e-002
5.823970e+002, 3.977888e-002
5.843254e+002, 3.605051e-002
5.862539e+002, 3.316701e-002
5.881824e+002, 3.082109e-002
5.901108e+002, 2.950000e-002
5.920393e+002, 2.900481e-002
5.939678e+002, 2.808807e-002
5.958962e+002, 2.668184e-002
5.978247e+002, 2.523664e-002
5.997532e+002, 2.416258e-002
6.016816e+002, 2.308644e-002
6.036101e+002, 2.203933e-002
6.055386e+002, 2.146179e-002
6.074670e+002, 2.101856e-002
6.093955e+002, 2.101163e-002
6.113240e+002, 2.089395e-002
6.132524e+002, 2.061438e-002
6.151809e+002, 2.073180e-002
6.171094e+002, 2.114209e-002
6.190378e+002, 2.151536e-002
6.209663e+002, 2.175341e-002
6.228948e+002, 2.186020e-002
6.248232e+002, 2.224267e-002
6.267517e+002, 2.294448e-002
6.286802e+002, 2.331605e-002
6.306086e+002, 2.349727e-002
6.325371e+002, 2.393716e-002
6.344656e+002, 2.433058e-002
6.363940e+002, 2.461934e-002
6.383225e+002, 2.510886e-002
6.402510e+002, 2.592272e-002
6.421794e+002, 2.646147e-002
6.441079e+002, 2.687855e-002
6.460364e+002, 2.768358e-002
6.479648e+002, 2.839285e-002
6.498933e+002, 2.877601e-002
6.518218e+002, 2.929318e-002
6.537502e+002, 3.019549e-002
6.556787e+002, 3.114784e-002
6.576072e+002, 3.181609e-002
6.595356e+002, 3.238105e-002
6.614641e+002, 3.339197e-002
6.633926e+002, 3.440962e-002
6.653210e+002, 3.553203e-002
6.672495e+002, 3.661271e-002
6.691780e+002, 3.773718e-002
6.711064e+002, 3.905782e-002
6.730349e+002, 4.059249e-002
6.749634e+002, 4.202588e-002
6.768918e+002, 4.309892e-002
6.788203e+002, 4.421244e-002
6.807488e+002, 4.506329e-002
6.826772e+002, 4.587402e-002
6.846057e+002, 4.726669e-002
6.865342e+002, 4.872376e-002
6.884626e+002, 5.030835e-002
6.903911e+002, 5.197579e-002
6.923196e+002, 5.351530e-002
6.942480e+002, 5.527129e-002
6.961765e+002, 5.730598e-002
6.981050e+002, 5.949862e-002
7.000334e+002, 6.177131e-002
7.019619e+002, 6.406249e-002
7.038904e+002, 6.626449e-002
7.058188e+002, 6.867738e-002
7.077473e+002, 7.114898e-002
7.096758e+002, 7.367310e-002
7.116042e+002, 7.632153e-002
7.135327e+002, 7.944123e-002
7.154612e+002, 8.254504e-002
7.173896e+002, 8.565986e-002
7.193181e+002, 8.911964e-002
7.212466e+002, 9.245424e-002
7.231750e+002, 9.554917e-002
7.251035e+002, 9.891284e-002
7.270320e+002, 1.025256e-001
7.289604e+002, 1.061594e-001
7.308889e+002, 1.099922e-001
7.328174e+002, 1.139499e-001
7.347458e+002, 1.177803e-001
7.366743e+002, 1.217668e-001
7.386028e+002, 1.259090e-001
7.405313e+002, 1.301081e-001
7.424597e+002, 1.343180e-001
7.443882e+002, 1.383309e-001
7.463167e+002, 1.422977e-001
7.482451e+002, 1.465314e-001
7.501736e+002, 1.508533e-001
7.521021e+002, 1.546859e-001
7.540305e+002, 1.583860e-001
7.559590e+002, 1.624822e-001
7.578875e+002, 1.661586e-001
7.598159e+002, 1.693081e-001
7.617444e+002, 1.722910e-001
7.636729e+002, 1.749583e-001
7.656013e+002, 1.771506e-001
7.675298e+002, 1.790819e-001
7.694583e+002, 1.804916e-001
7.713867e+002, 1.814534e-001
7.733152e+002, 1.824129e-001
7.752437e+002, 1.831488e-001
7.771721e+002, 1.830703e-001
7.791006e+002, 1.825029e-001
7.810291e+002, 1.815297e-001
7.829575e+002, 1.799154e-001
7.848860e+002, 1.778947e-001
7.868145e+002, 1.752724e-001
7.887429e+002, 1.723678e-001
7.906714e+002, 1.700165e-001
7.925999e+002, 1.679595e-001
7.945283e+002, 1.657524e-001
7.964568e+002, 1.634684e-001
7.983853e+002, 1.611436e-001
8.003137e+002, 1.584967e-001
8.022422e+002, 1.556673e-001
8.041707e+002, 1.526555e-001
8.060991e+002, 1.494372e-001
8.080276e+002, 1.457272e-001
8.099561e+002, 1.413709e-001
8.118845e+002, 1.361974e-001
8.138130e+002, 1.307370e-001
8.157415e+002, 1.256976e-001
8.176699e+002, 1.222055e-001
8.195984e+002, 1.206658e-001
8.215269e+002, 1.203447e-001
8.234553e+002, 1.208432e-001
8.253838e+002, 1.217274e-001
8.273123e+002, 1.226527e-001
8.292407e+002, 1.245654e-001
8.311692e+002, 1.276516e-001
8.330977e+002, 1.314593e-001
8.350261e+002, 1.355766e-001
8.369546e+002, 1.388619e-001
8.388831e+002, 1.398211e-001
8.408115e+002, 1.378341e-001
8.427400e+002, 1.328737e-001
8.446685e+002, 1.251441e-001
8.465969e+002, 1.155406e-001
8.485254e+002, 1.053463e-001
8.504539e+002, 9.587130e-002
8.523823e+002, 8.707822e-002
8.543108e+002, 7.909168e-002
8.562393e+002, 7.188943e-002
8.581677e+002, 6.521857e-002
8.600962e+002, 5.900861e-002
8.620247e+002, 5.318372e-002
8.639531e+002, 4.778798e-002
8.658816e+002, 4.284677e-002
8.678101e+002, 3.851287e-002
8.697385e+002, 3.492497e-002
8.716670e+002, 3.196082e-002
8.735955e+002, 2.963819e-002
8.755239e+002, 2.796982e-002
8.774524e+002, 2.705852e-002
8.793809e+002, 2.663769e-002
8.813093e+002, 2.640650e-002
8.832378e+002, 2.660787e-002
8.851663e+002, 2.711038e-002
8.870947e+002, 2.777966e-002
8.890232e+002, 2.868620e-002
8.909517e+002, 2.961891e-002
8.928801e+002, 3.072207e-002
8.948085e+002, 3.197749e-002
8.967370e+002, 3.334796e-002
8.986655e+002, 3.510166e-002
9.005939e+002, 3.706534e-002
9.025224e+002, 3.905760e-002
9.044509e+002, 4.094265e-002
9.063793e+002, 4.297690e-002
9.083078e+002, 4.504047e-002
9.102363e+002, 4.676028e-002
9.121647e+002, 4.799028e-002
9.140932e+002, 4.895352e-002
9.160217e+002, 4.950066e-002
9.179501e+002, 5.012093e-002
9.198786e+002, 5.051021e-002
9.218071e+002, 5.030161e-002
9.237355e+002, 4.992492e-002
9.256640e+002, 4.935088e-002
9.275925e+002, 4.868131e-002
9.295209e+002, 4.819246e-002
9.314494e+002, 4.772287e-002
9.333779e+002, 4.700944e-002
9.353063e+002, 4.616619e-002
9.372348e+002, 4.520145e-002
9.391633e+002, 4.378504e-002
9.410917e+002, 4.210811e-002
9.430202e+002, 4.067896e-002
9.449487e+002, 3.916708e-002
9.468771e+002, 3.739960e-002
9.488056e+002, 3.600108e-002
9.507341e+002, 3.478784e-002
9.526625e+002, 3.388024e-002
9.545910e+002, 3.345167e-002
9.565195e+002, 3.323543e-002
9.584479e+002, 3.368029e-002
9.603764e+002, 3.482226e-002
9.623049e+002, 3.625655e-002
9.642333e+002, 3.817626e-002
9.661618e+002, 4.041474e-002
9.680903e+002, 4.251517e-002
9.700187e+002, 4.411050e-002
9.719472e+002, 4.531392e-002
9.738757e+002, 4.618323e-002
9.758041e+002, 4.636372e-002
9.777326e+002, 4.610221e-002
9.796611e+002, 4.585577e-002
9.815895e+002, 4.533730e-002
9.835180e+002, 4.449337e-002
9.854465e+002, 4.330323e-002
9.873749e+002, 4.212275e-002
9.893034e+002, 4.094402e-002
9.912319e+002, 4.011132e-002
9.931603e+002, 3.962685e-002
9.950888e+002, 3.931087e-002
9.970173e+002, 3.927098e-002
9.989457e+002, 3.930418e-002
1.000874e+003, 3.934695e-002
1.002803e+003, 3.956790e-002
1.004731e+003, 3.971761e-002
1.006660e+003, 3.970491e-002
1.008588e+003, 3.964050e-002
1.010517e+003, 3.973221e-002
1.012445e+003, 4.015634e-002
1.014373e+003, 4.070186e-002
1.016302e+003, 4.120076e-002
1.018230e+003, 4.183292e-002
1.020159e+003, 4.267902e-002
1.022087e+003, 4.361283e-002
1.024016e+003, 4.443180e-002
1.025944e+003, 4.540114e-002
1.027873e+003, 4.608782e-002
1.029801e+003, 4.613385e-002
1.031730e+003, 4.572915e-002
1.033658e+003, 4.479995e-002
1.035587e+003, 4.350677e-002
1.037515e+003, 4.220932e-002
1.039444e+003, 4.072625e-002
1.041372e+003, 3.930188e-002
1.043301e+003, 3.824658e-002
1.045229e+003, 3.736591e-002
1.047157e+003, 3.662958e-002
1.049086e+003, 3.615117e-002
1.051014e+003, 3.586267e-002
1.052943e+003, 3.541856e-002
1.054871e+003, 3.495312e-002
1.056800e+003, 3.428775e-002
1.058728e+003, 3.309534e-002
1.060657e+003, 3.155828e-002
1.062585e+003, 3.007232e-002
1.064514e+003, 2.836977e-002
1.066442e+003, 2.647403e-002
1.068371e+003, 2.466961e-002
1.070299e+003, 2.298577e-002
1.072228e+003, 2.130249e-002
1.074156e+003, 1.974680e-002
1.076084e+003, 1.836868e-002
1.078013e+003, 1.707978e-002
1.079941e+003, 1.583011e-002
1.081870e+003, 1.486409e-002
1.083798e+003, 1.405759e-002
1.085727e+003, 1.345499e-002
1.087655e+003, 1.308095e-002
1.089584e+003, 1.260168e-002
1.091512e+003, 1.228592e-002
1.093441e+003, 1.205747e-002
1.095369e+003, 1.164606e-002
1.097298e+003, 1.151223e-002
1.099226e+003, 1.168398e-002
1.101155e+003, 1.160287e-002
1.103083e+003, 1.129392e-002
1.105011e+003, 1.086096e-002
1.106940e+003, 1.059345e-002
1.108868e+003, 1.062341e-002
1.110797e+003, 1.050777e-002
1.112725e+003, 1.052500e-002
1.114654e+003, 1.058727e-002
1.116582e+003, 1.043353e-002
1.118511e+003, 1.037878e-002
1.120439e+003, 1.029690e-002
1.122368e+003, 1.007319e-002
1.124296e+003, 9.976349e-003
1.126225e+003, 9.919773e-003
1.128153e+003, 9.799992e-003
1.130082e+003, 9.772668e-003
1.132010e+003, 9.882299e-003
1.133938e+003, 9.861844e-003
1.135867e+003, 9.734883e-003
1.137795e+003, 9.778027e-003
1.139724e+003, 9.728589e-003
1.141652e+003, 9.664164e-003
1.143581e+003, 9.591984e-003
1.145509e+003, 9.634210e-003
1.147438e+003, 9.672608e-003
1.149366e+003, 9.601123e-003
1.151295e+003, 9.435430e-003
1.153223e+003, 9.269818e-003
1.155152e+003, 9.157183e-003
1.157080e+003, 9.204807e-003
1.159009e+003, 9.243388e-003
1.160937e+003, 9.184885e-003
1.162865e+003, 9.183629e-003
1.164794e+003, 9.051385e-003
1.166722e+003, 9.034066e-003
1.168651e+003, 9.029216e-003
1.170579e+003, 9.138257e-003
1.172508e+003, 9.289366e-003
1.174436e+003, 9.392560e-003
1.176365e+003, 9.616987e-003
1.178293e+003, 9.648791e-003
1.180222e+003, 9.471670e-003
1.182150e+003, 9.387412e-003
1.184079e+003, 9.351549e-003
1.186007e+003, 9.215377e-003
1.187936e+003, 9.232772e-003
1.189864e+003, 9.367630e-003
1.191792e+003, 9.234459e-003
1.193721e+003, 9.112606e-003
1.195649e+003, 9.078832e-003
1.197578e+003, 9.147998e-003
1.199506e+003, 9.288429e-003
1.201435e+003, 9.313338e-003
1.203363e+003, 9.317738e-003
1.205292e+003, 9.352274e-003
1.207220e+003, 9.356044e-003
1.209149e+003, 9.311534e-003
1.211077e+003, 9.158541e-003
1.213006e+003, 9.130557e-003
1.214934e+003, 9.120831e-003
1.216863e+003, 9.161285e-003
1.218791e+003, 9.195287e-003
1.220719e+003, 9.151114e-003
1.222648e+003, 9.165782e-003
1.224576e+003, 9.190566e-003
1.226505e+003, 9.463534e-003
1.228433e+003, 9.537215e-003
1.230362e+003, 9.346753e-003
1.232290e+003, 9.408448e-003
1.234219e+003, 9.687365e-003
1.236147e+003, 9.808993e-003
1.238076e+003, 9.902685e-003
1.240004e+003, 1.012377e-002
1.241933e+003, 1.035869e-002
1.243861e+003, 1.052345e-002
1.245790e+003, 1.050261e-002
1.247718e+003, 1.050062e-002
1.249646e+003, 1.061126e-002
1.251575e+003, 1.066380e-002
1.253503e+003, 1.048276e-002
1.255432e+003, 1.020158e-002
1.257360e+003, 1.021755e-002
1.259289e+003, 1.022953e-002
1.261217e+003, 1.025470e-002
1.263146e+003, 1.044773e-002
1.265074e+003, 1.044822e-002
1.267003e+003, 1.045542e-002
1.268931e+003, 1.052238e-002
1.270860e+003, 1.046340e-002
1.272788e+003, 1.047086e-002
1.274717e+003, 1.049452e-002
1.276645e+003, 1.065506e-002
1.278573e+003, 1.076527e-002
1.280502e+003, 1.081504e-002
1.282430e+003, 1.094066e-002
1.284359e+003, 1.119609e-002
1.286287e+003, 1.135516e-002
1.288216e+003, 1.146372e-002
1.290144e+003, 1.153582e-002
1.292073e+003, 1.153419e-002
1.294001e+003, 1.156949e-002
1.295930e+003, 1.158726e-002
1.297858e+003, 1.172072e-002
1.299787e+003, 1.193240e-002
1.301715e+003, 1.197077e-002
1.303644e+003, 1.211259e-002
1.305572e+003, 1.236072e-002
1.307500e+003, 1.268211e-002
1.309429e+003, 1.294902e-002
1.311357e+003, 1.314544e-002
1.313286e+003, 1.331852e-002
1.315214e+003, 1.333826e-002
1.317143e+003, 1.344436e-002
1.319071e+003, 1.368192e-002
1.321000e+003, 1.392445e-002
1.322928e+003, 1.422734e-002
1.324857e+003, 1.438603e-002
1.326785e+003, 1.453238e-002
1.328714e+003, 1.474819e-002
1.330642e+003, 1.476467e-002
1.332571e+003, 1.509440e-002
1.334499e+003, 1.545366e-002
1.336427e+003, 1.549700e-002
1.338356e+003, 1.565616e-002
1.340284e+003, 1.605044e-002
1.342213e+003, 1.626050e-002
1.344141e+003, 1.668033e-002
1.346070e+003, 1.742837e-002
1.347998e+003, 1.815800e-002
1.349927e+003, 1.890686e-002
1.351855e+003, 1.974993e-002
1.353784e+003, 2.053078e-002
1.355712e+003, 2.086781e-002
1.357641e+003, 2.095940e-002
1.359569e+003, 2.120842e-002
1.361498e+003, 2.156042e-002
1.363426e+003, 2.160085e-002
1.365354e+003, 2.163896e-002
1.367283e+003, 2.187584e-002
1.369211e+003, 2.193711e-002
1.371140e+003, 2.190278e-002
1.373068e+003, 2.213205e-002
1.374997e+003, 2.234624e-002
1.376925e+003, 2.252145e-002
1.378854e+003, 2.304113e-002
1.380782e+003, 2.355209e-002
1.382711e+003, 2.392746e-002
1.384639e+003, 2.450699e-002
1.386568e+003, 2.517313e-002
1.388496e+003, 2.610774e-002
1.390424e+003, 2.675385e-002
1.392353e+003, 2.730627e-002
1.394281e+003, 2.793874e-002
1.396210e+003, 2.827230e-002
1.398138e+003, 2.861722e-002
1.400067e+003, 2.910171e-002
1.401995e+003, 2.910472e-002
1.403924e+003, 2.867314e-002
1.405852e+003, 2.819121e-002
1.407781e+003, 2.734600e-002
1.409709e+003, 2.616635e-002
1.411638e+003, 2.496606e-002
1.413566e+003, 2.419926e-002
1.415495e+003, 2.377503e-002
1.417423e+003, 2.340691e-002
1.419351e+003, 2.299618e-002
1.421280e+003, 2.289556e-002
1.423208e+003, 2.283678e-002
1.425137e+003, 2.261099e-002
1.427065e+003, 2.269799e-002
1.428994e+003, 2.304667e-002
1.430922e+003, 2.317216e-002
1.432851e+003, 2.346729e-002
1.434779e+003, 2.407587e-002
1.436708e+003, 2.497343e-002
1.438636e+003, 2.585819e-002
1.440565e+003, 2.653754e-002
1.442493e+003, 2.706729e-002
1.444422e+003, 2.729591e-002
1.446350e+003, 2.751314e-002
1.448278e+003, 2.789189e-002
1.450207e+003, 2.780563e-002
1.452135e+003, 2.744542e-002
1.454064e+003, 2.684974e-002
1.455992e+003, 2.592075e-002
1.457921e+003, 2.506152e-002
1.459849e+003, 2.419161e-002
1.461778e+003, 2.307869e-002
1.463706e+003, 2.223719e-002
1.465635e+003, 2.163730e-002
1.467563e+003, 2.108172e-002
1.469492e+003, 2.068037e-002
1.471420e+003, 2.047676e-002
1.473349e+003, 2.006792e-002
1.475277e+003, 1.955422e-002
1.477205e+003, 1.919713e-002
1.479134e+003, 1.906679e-002
1.481062e+003, 1.888619e-002
1.482991e+003, 1.872662e-002
1.484919e+003, 1.872322e-002
1.486848e+003, 1.864540e-002
1.488776e+003, 1.828225e-002
1.490705e+003, 1.808815e-002
1.492633e+003, 1.813057e-002
1.494562e+003, 1.812599e-002
1.496490e+003, 1.800633e-002
1.498419e+003, 1.784657e-002
1.500347e+003, 1.772920e-002
1.502276e+003, 1.779915e-002
1.504204e+003, 1.768025e-002
1.506132e+003, 1.751580e-002
1.508061e+003, 1.750148e-002
1.509989e+003, 1.752890e-002
1.511918e+003, 1.743796e-002
1.513846e+003, 1.750692e-002
1.515775e+003, 1.752495e-002
1.517703e+003, 1.753398e-002
1.519632e+003, 1.744355e-002
1.521560e+003, 1.747485e-002
1.523489e+003, 1.760555e-002
1.525417e+003, 1.757433e-002
1.527346e+003, 1.753903e-002
1.529274e+003, 1.752377e-002
1.531203e+003, 1.754795e-002
1.533131e+003, 1.763348e-002
1.535059e+003, 1.770623e-002
1.536988e+003, 1.768633e-002
1.538916e+003, 1.764402e-002
1.540845e+003, 1.798204e-002
1.542773e+003, 1.833934e-002
1.544702e+003, 1.845607e-002
1.546630e+003, 1.861050e-002
1.548559e+003, 1.855712e-002
1.550487e+003, 1.845218e-002
1.552416e+003, 1.865839e-002
1.554344e+003, 1.875793e-002
1.556273e+003, 1.877257e-002
1.558201e+003, 1.897549e-002
1.560130e+003, 1.923103e-002
1.562058e+003, 1.954938e-002
1.563986e+003, 1.955656e-002
1.565915e+003, 1.971078e-002
1.567843e+003, 2.003588e-002
1.569772e+003, 2.010686e-002
1.571700e+003, 2.014332e-002
1.573629e+003, 2.034334e-002
1.575557e+003, 2.054675e-002
1.577486e+003, 2.068589e-002
1.579414e+003, 2.076927e-002
1.581343e+003, 2.091600e-002
1.583271e+003, 2.109983e-002
1.585200e+003, 2.118750e-002
1.587128e+003, 2.115271e-002
1.589057e+003, 2.117950e-002
1.590985e+003, 2.127218e-002
1.592913e+003, 2.164124e-002
1.594842e+003, 2.172480e-002
1.596770e+003, 2.149006e-002
1.598699e+003, 2.162329e-002
1.600627e+003, 2.170113e-002
1.602556e+003, 2.161909e-002
1.604484e+003, 2.180900e-002
1.606413e+003, 2.176245e-002
1.608341e+003, 2.173652e-002
1.610270e+003, 2.164635e-002
1.612198e+003, 2.158991e-002
1.614127e+003, 2.162235e-002
1.616055e+003, 2.155084e-002
1.617984e+003, 2.153720e-002
1.619912e+003, 2.155214e-002
1.621840e+003, 2.164036e-002
1.623769e+003, 2.183167e-002
1.625697e+003, 2.191539e-002
1.627626e+003, 2.213685e-002
1.629554e+003, 2.218982e-002
1.631483e+003, 2.188009e-002
1.633411e+003, 2.175047e-002
1.635340e+003, 2.192283e-002
1.637268e+003, 2.205047e-002
1.639197e+003, 2.207634e-002
1.641125e+003, 2.214320e-002
1.643054e+003, 2.214255e-002
1.644982e+003, 2.205032e-002
1.646911e+003, 2.203216e-002
1.648839e+003, 2.199673e-002
1.650767e+003, 2.174535e-002
1.652696e+003, 2.155205e-002
1.654624e+003, 2.121109e-002
1.656553e+003, 2.099622e-002
1.658481e+003, 2.081667e-002
1.660410e+003, 2.059656e-002
1.662338e+003, 2.052613e-002
1.664267e+003, 2.059856e-002
1.666195e+003, 2.056302e-002
1.668124e+003, 2.041347e-002
1.670052e+003, 2.044760e-002
1.671981e+003, 2.023865e-002
1.673909e+003, 2.003020e-002
1.675838e+003, 1.992412e-002
1.677766e+003, 1.987924e-002
1.679694e+003, 1.976078e-002
1.681623e+003, 1.996383e-002
1.683551e+003, 2.009044e-002
1.685480e+003, 1.982988e-002
1.687408e+003, 1.948277e-002
1.689337e+003, 1.947246e-002
1.691265e+003, 1.986544e-002
1.693194e+003, 2.015346e-002
1.695122e+003, 2.002392e-002
1.697051e+003, 1.973457e-002
1.698979e+003, 1.979037e-002
1.700908e+003, 1.976311e-002
1.702836e+003, 1.972300e-002
1.704765e+003, 2.005154e-002
1.706693e+003, 2.002803e-002
1.708621e+003, 2.005858e-002
1.710550e+003, 2.009974e-002
1.712478e+003, 2.008702e-002
1.714407e+003, 2.039000e-002
1.716335e+003, 2.076851e-002
1.718264e+003, 2.102570e-002
1.720192e+003, 2.098728e-002
1.722121e+003, 2.126656e-002
1.724049e+003, 2.149194e-002
1.725978e+003, 2.162516e-002
1.727906e+003, 2.172724e-002
1.729835e+003, 2.168146e-002
1.731763e+003, 2.188739e-002
1.733692e+003, 2.192903e-002
1.735620e+003, 2.185420e-002
1.737548e+003, 2.201031e-002
1.739477e+003, 2.200567e-002
1.741405e+003, 2.205632e-002
1.743334e+003, 2.219067e-002
1.745262e+003, 2.234975e-002
1.747191e+003, 2.226606e-002
1.749119e+003, 2.218293e-002
1.751048e+003, 2.225363e-002
1.752976e+003, 2.251268e-002
1.754905e+003, 2.275957e-002
1.756833e+003, 2.253572e-002
1.758762e+003, 2.248526e-002
1.760690e+003, 2.266273e-002
1.762619e+003, 2.257668e-002
1.764547e+003, 2.284898e-002
1.766475e+003, 2.344179e-002
1.768404e+003, 2.380795e-002
1.770332e+003, 2.392444e-002
1.772261e+003, 2.392651e-002
1.774189e+003, 2.385923e-002
1.776118e+003, 2.401727e-002
1.778046e+003, 2.461085e-002
1.779975e+003, 2.468614e-002
1.781903e+003, 2.459848e-002
1.783832e+003, 2.477515e-002
1.785760e+003, 2.476370e-002
1.787689e+003, 2.475449e-002
1.789617e+003, 2.493493e-002
1.791546e+003, 2.535181e-002
1.793474e+003, 2.559978e-002
1.795402e+003, 2.537499e-002
1.797331e+003, 2.550156e-002
1.799259e+003, 2.555892e-002
1.801188e+003, 2.560322e-002
1.803116e+003, 2.575997e-002
1.805045e+003, 2.569810e-002
1.806973e+003, 2.586811e-002
1.808902e+003, 2.631750e-002
1.810830e+003, 2.637063e-002
1.812759e+003, 2.593325e-002
1.814687e+003, 2.560777e-002
1.816616e+003, 2.565955e-002
1.818544e+003, 2.596895e-002
1.820473e+003, 2.623036e-002
1.822401e+003, 2.606092e-002
1.824329e+003, 2.618377e-002
1.826258e+003, 2.626738e-002
1.828186e+003, 2.582971e-002
1.830115e+003, 2.587663e-002
1.832043e+003, 2.581078e-002
1.833972e+003, 2.534467e-002
1.835900e+003, 2.548449e-002
1.837829e+003, 2.538930e-002
1.839757e+003, 2.506758e-002
1.841686e+003, 2.470343e-002
1.843614e+003, 2.423822e-002
1.845543e+003, 2.399209e-002
1.847471e+003, 2.433733e-002
1.849400e+003, 2.434764e-002
1.851328e+003, 2.387197e-002
1.853256e+003, 2.367339e-002
1.855185e+003, 2.371638e-002
1.857113e+003, 2.375751e-002
1.859042e+003, 2.375777e-002
1.860970e+003, 2.316787e-002
1.862899e+003, 2.278336e-002
1.864827e+003, 2.275820e-002
1.866756e+003, 2.276412e-002
1.868684e+003, 2.242761e-002
1.870613e+003, 2.261313e-002
1.872541e+003, 2.302129e-002
1.874470e+003, 2.273467e-002
1.876398e+003, 2.227181e-002
1.878327e+003, 2.197617e-002
1.880255e+003, 2.207126e-002
1.882183e+003, 2.247227e-002
1.884112e+003, 2.247932e-002
1.886040e+003, 2.241942e-002
1.887969e+003, 2.221812e-002
1.889897e+003, 2.209285e-002
1.891826e+003, 2.183128e-002
1.893754e+003, 2.214813e-002
1.895683e+003, 2.276306e-002
1.897611e+003, 2.219118e-002
1.899540e+003, 2.232644e-002
1.901468e+003, 2.280158e-002
1.903397e+003, 2.207889e-002
1.905325e+003, 2.207655e-002
1.907254e+003, 2.263940e-002
1.909182e+003, 2.315478e-002
1.911110e+003, 2.318951e-002
1.913039e+003, 2.292713e-002
1.914967e+003, 2.277618e-002
1.916896e+003, 2.313915e-002
1.918824e+003, 2.349831e-002
1.920753e+003, 2.305898e-002
1.922681e+003, 2.295162e-002
1.924610e+003, 2.234405e-002
1.926538e+003, 2.222300e-002
1.928467e+003, 2.300900e-002
1.930395e+003, 2.348695e-002
1.932324e+003, 2.407701e-002
1.934252e+003, 2.430547e-002
1.936181e+003, 2.347753e-002
1.938109e+003, 2.306334e-002
1.940037e+003, 2.289512e-002
1.941966e+003, 2.240463e-002
1.943894e+003, 2.310427e-002
1.945823e+003, 2.303880e-002
1.947751e+003, 2.279275e-002
1.949680e+003, 2.233782e-002
1.951608e+003, 2.284540e-002
1.953537e+003, 2.399872e-002
1.955465e+003, 2.398242e-002
1.957394e+003, 2.212309e-002
1.959322e+003, 2.237293e-002
1.961251e+003, 2.369678e-002
1.963179e+003, 2.269698e-002
1.965108e+003, 2.215128e-002
1.967036e+003, 2.231872e-002
1.968964e+003, 2.268870e-002
1.970893e+003, 2.360443e-002
1.972821e+003, 2.335261e-002
1.974750e+003, 2.210025e-002
1.976678e+003, 2.176525e-002
1.978607e+003, 2.397939e-002
1.980535e+003, 2.513326e-002
1.982464e+003, 2.558929e-002
1.984392e+003, 2.764259e-002
1.986321e+003, 2.581538e-002
1.988249e+003, 2.344746e-002
1.990178e+003, 2.344825e-002
1.992106e+003, 2.464218e-002
1.994035e+003, 2.483314e-002
1.995963e+003, 2.447360e-002
1.997891e+003, 2.473868e-002
1.999820e+003, 2.518687e-002
2.001748e+003, 2.600102e-002
2.003677e+003, 2.570647e-002
2.005605e+003, 2.481917e-002
2.007534e+003, 2.589601e-002
2.009462e+003, 2.656704e-002
2.011391e+003, 2.620484e-002
2.013319e+003, 2.603903e-002
2.015248e+003, 2.517433e-002
2.017176e+003, 2.460292e-002
2.019105e+003, 2.517659e-002
2.021033e+003, 2.522773e-002
2.022962e+003, 2.461566e-002
2.024890e+003, 2.453371e-002
2.026818e+003, 2.569407e-002
2.028747e+003, 2.683250e-002
2.030675e+003, 2.740519e-002
2.032604e+003, 2.833319e-002
2.034532e+003, 2.864420e-002
2.036461e+003, 2.745579e-002
2.038389e+003, 2.674409e-002
2.040318e+003, 2.656498e-002
2.042246e+003, 2.475912e-002
2.044175e+003, 2.480919e-002
2.046103e+003, 2.693392e-002
2.048032e+003, 2.814061e-002
2.049960e+003, 2.957773e-002
2.051889e+003, 2.868067e-002
2.053817e+003, 2.689638e-002
2.055746e+003, 2.628459e-002
2.057674e+003, 2.601165e-002
2.059603e+003, 2.782880e-002
2.061531e+003, 2.842821e-002
2.063459e+003, 2.693495e-002
2.065388e+003, 2.551444e-002
2.067316e+003, 2.636970e-002
2.069245e+003, 2.776016e-002
2.071173e+003, 2.776084e-002
2.073102e+003, 2.692316e-002
2.075030e+003, 2.745204e-002
2.076959e+003, 2.776224e-002
2.078887e+003, 2.683637e-002
2.080816e+003, 2.758403e-002
2.082744e+003, 2.782464e-002
2.084673e+003, 2.702691e-002
2.086601e+003, 2.679644e-002
2.088530e+003, 2.685543e-002
2.090458e+003, 2.652991e-002
2.092386e+003, 2.595195e-002
2.094315e+003, 2.549181e-002
2.096243e+003, 2.489390e-002
2.098172e+003, 2.481679e-002
2.100100e+003, 2.496696e-002
2.102029e+003, 2.466382e-002
2.103957e+003, 2.480213e-002
2.105886e+003, 2.573996e-002
2.107814e+003, 2.482715e-002
2.109743e+003, 2.390900e-002
2.111671e+003, 2.380504e-002
2.113600e+003, 2.429904e-002
2.115528e+003, 2.428422e-002
2.117457e+003, 2.455421e-002
2.119385e+003, 2.426953e-002
2.121313e+003, 2.336842e-002
2.123242e+003, 2.341319e-002
2.125170e+003, 2.246021e-002
2.127099e+003, 2.183636e-002
2.129027e+003, 2.145717e-002
2.130956e+003, 2.125536e-002
2.132884e+003, 2.046519e-002
2.134813e+003, 2.019433e-002
2.136741e+003, 2.069599e-002
2.138670e+003, 2.096672e-002
2.140598e+003, 2.110607e-002
2.142527e+003, 2.234759e-002
2.144455e+003, 2.226538e-002
2.146384e+003, 2.184447e-002
2.148312e+003, 2.239205e-002
2.150240e+003, 2.354545e-002
2.152169e+003, 2.223616e-002
2.154097e+003, 2.001112e-002
2.156026e+003, 1.930620e-002
2.157954e+003, 2.110433e-002
2.159883e+003, 2.578401e-002
2.161811e+003, 2.942698e-002
2.163740e+003, 2.974867e-002
2.165668e+003, 2.780489e-002
2.167597e+003, 2.751167e-002
2.169525e+003, 2.773788e-002
2.171454e+003, 2.578646e-002
2.173382e+003, 2.613943e-002
2.175311e+003, 2.618478e-002
2.177239e+003, 2.562054e-002
2.179167e+003, 2.614897e-002
2.181096e+003, 2.642950e-002
2.183024e+003, 2.674612e-002
2.184953e+003, 2.763159e-002
2.186881e+003, 2.800003e-002
2.188810e+003, 2.748036e-002
2.190738e+003, 2.582216e-002
2.192667e+003, 2.487873e-002
2.194595e+003, 2.573875e-002
2.196524e+003, 2.595445e-002
2.198452e+003, 2.532579e-002
2.200381e+003, 2.544415e-002
2.202309e+003, 2.602768e-002
2.204238e+003, 2.738376e-002
2.206166e+003, 2.814329e-002
2.208094e+003, 2.621780e-002
2.210023e+003, 2.480087e-002
2.211951e+003, 2.517436e-002
2.213880e+003, 2.537441e-002
2.215808e+003, 2.486188e-002
2.217737e+003, 2.614260e-002
2.219665e+003, 2.652525e-002
2.221594e+003, 2.581677e-002
2.223522e+003, 2.672563e-002
2.225451e+003, 2.703232e-002
2.227379e+003, 2.550082e-002
2.229308e+003, 2.524882e-002
2.231236e+003, 2.601567e-002
2.233165e+003, 2.682452e-002
2.235093e+003, 2.654121e-002
2.237021e+003, 2.561989e-002
2.238950e+003, 2.543895e-002
2.240878e+003, 2.636409e-002
2.242807e+003, 2.730744e-002
2.244735e+003, 2.689228e-002
2.246664e+003, 2.658543e-002
2.248592e+003, 2.705233e-002
2.250521e+003, 2.710437e-002
2.252449e+003, 2.648140e-002
2.254378e+003, 2.724441e-002
2.256306e+003, 2.745729e-002
2.258235e+003, 2.651119e-002
2.260163e+003, 2.599988e-002
2.262092e+003, 2.606935e-002
2.264020e+003, 2.640157e-002
2.265948e+003, 2.662867e-002
2.267877e+003, 2.752264e-002
2.269805e+003, 2.752783e-002
2.271734e+003, 2.620687e-002
2.273662e+003, 2.637203e-002
2.275591e+003, 2.711486e-002
2.277519e+003, 2.701180e-002
2.279448e+003, 2.668173e-002
2.281376e+003, 2.662417e-002
2.283305e+003, 2.721297e-002
2.285233e+003, 2.805494e-002
2.287162e+003, 2.840014e-002
2.289090e+003, 2.789866e-002
2.291019e+003, 2.745223e-002
2.292947e+003, 2.699957e-002
2.294875e+003, 2.696160e-002
2.296804e+003, 2.707445e-002
2.298732e+003, 2.744316e-002
2.300661e+003, 2.761737e-002
2.302589e+003, 2.688618e-002
2.304518e+003, 2.740241e-002
2.306446e+003, 2.767858e-002
2.308375e+003, 2.705444e-002
2.310303e+003, 2.721378e-002
2.312232e+003, 2.762931e-002
2.314160e+003, 2.798045e-002
2.316089e+003, 2.817908e-002
2.318017e+003, 2.849982e-002
2.319946e+003, 2.855050e-002
2.321874e+003, 2.852686e-002
2.323802e+003, 2.848075e-002
2.325731e+003, 2.764410e-002
2.327659e+003, 2.686714e-002
2.329588e+003, 2.691103e-002
2.331516e+003, 2.715853e-002
2.333445e+003, 2.716069e-002
2.335373e+003, 2.703729e-002
2.337302e+003, 2.744090e-002
2.339230e+003, 2.764555e-002
2.341159e+003, 2.752196e-002
2.343087e+003, 2.750228e-002
2.345016e+003, 2.732657e-002
2.346944e+003, 2.696242e-002
2.348873e+003, 2.673180e-002
2.350801e+003, 2.673563e-002
2.352729e+003, 2.722045e-002
2.354658e+003, 2.749364e-002
2.356586e+003, 2.767346e-002
2.358515e+003, 2.782706e-002
2.360443e+003, 2.758767e-002
2.362372e+003, 2.688837e-002
2.364300e+003, 2.672087e-002
2.366229e+003, 2.676824e-002
2.368157e+003, 2.712619e-002
2.370086e+003, 2.715656e-002
2.372014e+003, 2.705029e-002
2.373942e+003, 2.706097e-002
2.375871e+003, 2.686958e-002
2.377799e+003, 2.673224e-002
2.379728e+003, 2.636310e-002
2.381656e+003, 2.625277e-002
2.383585e+003, 2.639802e-002
2.385513e+003, 2.639659e-002
2.387442e+003, 2.704955e-002
2.389370e+003, 2.732229e-002
2.391299e+003, 2.729341e-002
2.393227e+003, 2.778011e-002
2.395156e+003, 2.762178e-002
2.397084e+003, 2.684710e-002
2.399012e+003, 2.685704e-002
2.400941e+003, 2.749941e-002
2.402869e+003, 2.751469e-002
2.404798e+003, 2.775649e-002
2.406726e+003, 2.792903e-002
2.408655e+003, 2.854275e-002
2.410583e+003, 2.886319e-002
2.412512e+003, 2.822855e-002
2.414440e+003, 2.771170e-002
2.416369e+003, 2.778884e-002
2.418297e+003, 2.831740e-002
2.420226e+003, 2.816230e-002
2.422154e+003, 2.767904e-002
2.424083e+003, 2.747763e-002
2.426011e+003, 2.806153e-002
2.427939e+003, 2.903223e-002
2.429868e+003, 2.906390e-002
2.431796e+003, 2.900754e-002
2.433725e+003, 2.846666e-002
2.435653e+003, 2.774747e-002
2.437582e+003, 2.895104e-002
2.439510e+003, 3.013677e-002
2.441439e+003, 3.000846e-002
2.443367e+003, 2.991682e-002
2.445296e+003, 2.956947e-002
2.447224e+003, 2.927768e-002
2.449153e+003, 2.918773e-002
2.451081e+003, 2.967351e-002
2.453010e+003, 3.010805e-002
2.454938e+003, 3.024083e-002
2.456866e+003, 3.070897e-002
2.458795e+003, 3.078682e-002
2.460723e+003, 3.026421e-002
2.462652e+003, 2.988945e-002
2.464580e+003, 2.960664e-002
2.466509e+003, 2.914648e-002
2.468437e+003, 2.942681e-002
2.470366e+003, 2.983250e-002
2.472294e+003, 2.931578e-002
2.474223e+003, 2.993050e-002
2.476151e+003, 3.040721e-002
2.478080e+003, 3.026029e-002
2.480008e+003, 3.007096e-002
2.481937e+003, 2.990773e-002
2.483865e+003, 2.945823e-002
2.485793e+003, 2.915992e-002
2.487722e+003, 2.966409e-002
2.489650e+003, 3.008168e-002
2.491579e+003, 2.935061e-002
2.493507e+003, 2.919389e-002
2.495436e+003, 2.960966e-002
2.497364e+003, 2.983436e-002
2.499293e+003, 2.961100e-002
2.501221e+003, 2.979483e-002
2.503150e+003, 3.004151e-002
2.505078e+003, 3.040995e-002
2.507007e+003, 3.108260e-002
2.508935e+003, 3.141509e-002
2.510864e+003, 3.142391e-002
2.512792e+003, 3.139355e-002
2.514720e+003, 3.136353e-002
2.516649e+003, 3.126847e-002
2.518577e+003, 3.082780e-002
2.520506e+003, 2.984723e-002
2.522434e+003, 2.973326e-002
2.524363e+003, 3.001901e-002
2.526291e+003, 3.044447e-002
2.528220e+003, 3.051913e-002
2.530148e+003, 3.047371e-002
2.532077e+003, 3.089216e-002
2.534005e+003, 3.068463e-002
2.535934e+003, 3.040069e-002
2.537862e+003, 3.092236e-002
2.539791e+003, 3.166800e-002
2.541719e+003, 3.182613e-002
2.543647e+003, 3.162094e-002
2.545576e+003, 3.174656e-002
2.547504e+003, 3.146670e-002
2.549433e+003, 3.094590e-002
2.551361e+003, 3.073452e-002
2.553290e+003, 3.096340e-002
2.555218e+003, 3.184747e-002
2.557147e+003, 3.276850e-002
2.559075e+003, 3.247127e-002
2.561004e+003, 3.185653e-002
2.562932e+003, 3.183910e-002
2.564861e+003, 3.238334e-002
2.566789e+003, 3.337255e-002
2.568718e+003, 3.283500e-002
2.570646e+003, 3.264038e-002
2.572574e+003, 3.283927e-002
2.574503e+003, 3.311112e-002
2.576431e+003, 3.298522e-002
2.578360e+003, 3.289888e-002
2.580288e+003, 3.371643e-002
2.582217e+003, 3.410672e-002
2.584145e+003, 3.374512e-002
2.586074e+003, 3.338758e-002
2.588002e+003, 3.298844e-002
2.589931e+003, 3.291273e-002
2.591859e+003, 3.313303e-002
2.593788e+003, 3.283149e-002
2.595716e+003, 3.219338e-002
2.597645e+003, 3.335770e-002
2.599573e+003, 3.429984e-002
2.601501e+003, 3.379333e-002
2.603430e+003, 3.390140e-002
2.605358e+003, 3.445868e-002
2.607287e+003, 3.431827e-002
2.609215e+003, 3.416776e-002
2.611144e+003, 3.382187e-002
2.613072e+003, 3.305491e-002
2.615001e+003, 3.279523e-002
2.616929e+003, 3.373986e-002
2.618858e+003, 3.413200e-002
2.620786e+003, 3.435759e-002
2.622715e+003, 3.474280e-002
2.624643e+003, 3.517951e-002
2.626572e+003, 3.465725e-002
2.628500e+003, 3.385021e-002
2.630428e+003, 3.390090e-002
2.632357e+003, 3.405748e-002
2.634285e+003, 3.436006e-002
2.636214e+003, 3.464448e-002
2.638142e+003, 3.500504e-002
2.640071e+003, 3.524990e-002
2.641999e+003, 3.457453e-002
2.643928e+003, 3.460293e-002
2.645856e+003, 3.559099e-002
2.647785e+003, 3.548020e-002
2.649713e+003, 3.501710e-002
2.651642e+003, 3.526642e-002
2.653570e+003, 3.505049e-002
2.655499e+003, 3.486310e-002
2.657427e+003, 3.521028e-002
2.659355e+003, 3.496078e-002
2.661284e+003, 3.458184e-002
2.663212e+003, 3.466491e-002
2.665141e+003, 3.473169e-002
2.667069e+003, 3.457635e-002
2.668998e+003, 3.448409e-002
2.670926e+003, 3.472210e-002
2.672855e+003, 3.507180e-002
2.674783e+003, 3.502047e-002
2.676712e+003, 3.499024e-002
2.678640e+003, 3.504216e-002
2.680569e+003, 3.535237e-002
2.682497e+003, 3.548923e-002
2.684426e+003, 3.551722e-002
2.686354e+003, 3.540464e-002
2.688282e+003, 3.472024e-002
2.690211e+003, 3.477509e-002
2.692139e+003, 3.582308e-002
2.694068e+003, 3.580043e-002
2.695996e+003, 3.513648e-002
2.697925e+003, 3.548435e-002
2.699853e+003, 3.628100e-002
2.701782e+003, 3.635660e-002
2.703710e+003, 3.600958e-002
2.705639e+003, 3.571888e-002
2.707567e+003, 3.613903e-002
2.709496e+003, 3.643328e-002
2.711424e+003, 3.607285e-002
2.713353e+003, 3.580052e-002
2.715281e+003, 3.584618e-002
2.717209e+003, 3.633838e-002
2.719138e+003, 3.671423e-002
2.721066e+003, 3.725016e-002
2.722995e+003, 3.775191e-002
2.724923e+003, 3.749818e-002
2.726852e+003, 3.748994e-002
2.728780e+003, 3.727654e-002
2.730709e+003, 3.701852e-002
2.732637e+003, 3.720553e-002
2.734566e+003, 3.748359e-002
2.736494e+003, 3.728143e-002
2.738423e+003, 3.740181e-002
2.740351e+003, 3.780704e-002
2.742280e+003, 3.794536e-002
2.744208e+003, 3.759465e-002
2.746136e+003, 3.735779e-002
2.748065e+003, 3.774326e-002
2.749993e+003, 3.803611e-002
2.751922e+003, 3.826387e-002
2.753850e+003, 3.841873e-002
2.755779e+003, 3.815167e-002
2.757707e+003, 3.818838e-002
2.759636e+003, 3.898762e-002
2.761564e+003, 3.905466e-002
2.763493e+003, 3.868517e-002
2.765421e+003, 3.883595e-002
2.767350e+003, 3.871056e-002
2.769278e+003, 3.857172e-002
2.771207e+003, 3.876831e-002
2.773135e+003, 3.900930e-002
2.775063e+003, 3.994189e-002
2.776992e+003, 4.041106e-002
2.778920e+003, 4.011858e-002
2.780849e+003, 4.021453e-002
2.782777e+003, 4.031515e-002
2.784706e+003, 4.026334e-002
2.786634e+003, 4.015167e-002
2.788563e+003, 4.030688e-002
2.790491e+003, 4.100063e-002
2.792420e+003, 4.100532e-002
2.794348e+003, 4.051620e-002
2.796277e+003, 4.093326e-002
2.798205e+003, 4.138226e-002
2.800134e+003, 4.096477e-002
2.802062e+003, 4.101709e-002
2.803990e+003, 4.139313e-002
2.805919e+003, 4.178207e-002
2.807847e+003, 4.220771e-002
2.809776e+003, 4.224692e-002
2.811704e+003, 4.246892e-002
2.813633e+003, 4.239699e-002
2.815561e+003, 4.266251e-002
2.817490e+003, 4.313939e-002
2.819418e+003, 4.304990e-002
2.821347e+003, 4.316776e-002
2.823275e+003, 4.354287e-002
2.825204e+003, 4.413812e-002
2.827132e+003, 4.477152e-002
2.829061e+003, 4.439478e-002
2.830989e+003, 4.337136e-002
2.832917e+003, 4.358324e-002
2.834846e+003, 4.457858e-002
2.836774e+003, 4.511482e-002
2.838703e+003, 4.513203e-002
2.840631e+003, 4.445351e-002
2.842560e+003, 4.410431e-002
2.844488e+003, 4.408275e-002
2.846417e+003, 4.440736e-002
2.848345e+003, 4.501282e-002
2.850274e+003, 4.477301e-002
2.852202e+003, 4.461361e-002
2.854131e+003, 4.517742e-002
2.856059e+003, 4.530463e-002
2.857988e+003, 4.516325e-002
2.859916e+003, 4.552956e-002
2.861844e+003, 4.610887e-002
2.863773e+003, 4.606196e-002
2.865701e+003, 4.566068e-002
2.867630e+003, 4.627555e-002
2.869558e+003, 4.637456e-002
2.871487e+003, 4.620983e-002
2.873415e+003, 4.686920e-002
2.875344e+003, 4.731747e-002
2.877272e+003, 4.734673e-002
2.879201e+003, 4.749143e-002
2.881129e+003, 4.799930e-002
2.883058e+003, 4.844731e-002
2.884986e+003, 4.907066e-002
2.886915e+003, 4.931985e-002
2.888843e+003, 4.892635e-002
2.890771e+003, 4.916131e-002
2.892700e+003, 4.962078e-002
2.894628e+003, 5.012320e-002
2.896557e+003, 4.948258e-002
2.898485e+003, 4.888048e-002
2.900414e+003, 4.932668e-002
2.902342e+003, 5.004832e-002
2.904271e+003, 5.006666e-002
2.906199e+003, 5.026333e-002
2.908128e+003, 5.056494e-002
2.910056e+003, 5.088996e-002
2.911985e+003, 5.164754e-002
2.913913e+003, 5.257889e-002
2.915842e+003, 5.308239e-002
2.917770e+003, 5.217693e-002
2.919698e+003, 5.165759e-002
2.921627e+003, 5.169110e-002
2.923555e+003, 5.215523e-002
2.925484e+003, 5.219811e-002
2.927412e+003, 5.165506e-002
2.929341e+003, 5.235663e-002
2.931269e+003, 5.334340e-002
2.933198e+003, 5.344550e-002
2.935126e+003, 5.357881e-002
2.937055e+003, 5.463840e-002
2.938983e+003, 5.533137e-002
2.940912e+003, 5.547127e-002
2.942840e+003, 5.549034e-002
2.944769e+003, 5.625051e-002
2.946697e+003, 5.629490e-002
2.948625e+003, 5.678451e-002
2.950554e+003, 5.759716e-002
2.952482e+003, 5.764922e-002
2.954411e+003, 5.742284e-002
2.956339e+003, 5.812266e-002
2.958268e+003, 5.931601e-002
2.960196e+003, 5.993116e-002
2.962125e+003, 6.006388e-002
2.964053e+003, 5.996655e-002
2.965982e+003, 6.023807e-002
2.967910e+003, 6.059229e-002
2.969839e+003, 6.178704e-002
2.971767e+003, 6.289985e-002
2.973696e+003, 6.301485e-002
2.975624e+003, 6.253808e-002
2.977552e+003, 6.243986e-002
2.979481e+003, 6.337775e-002
2.981409e+003, 6.500549e-002
2.983338e+003, 6.548125e-002
2.985266e+003, 6.634223e-002
2.987195e+003, 6.655397e-002
2.989123e+003, 6.647903e-002
2.991052e+003, 6.685065e-002
2.992980e+003, 6.707961e-002
2.994909e+003, 6.786304e-002
2.996837e+003, 6.839487e-002
2.998766e+003, 6.858067e-002
3.000694e+003, 6.962990e-002
3.002623e+003, 6.991952e-002
3.004551e+003, 6.911507e-002
3.006479e+003, 6.967725e-002
3.008408e+003, 7.081138e-002
3.010336e+003, 7.160041e-002
3.012265e+003, 7.241602e-002
3.014193e+003, 7.281563e-002
3.016122e+003, 7.377230e-002
3.018050e+003, 7.514883e-002
3.019979e+003, 7.557203e-002
3.021907e+003, 7.549036e-002
3.023836e+003, 7.626356e-002
3.025764e+003, 7.738365e-002
3.027693e+003, 7.794029e-002
3.029621e+003, 7.813779e-002
3.031550e+003, 7.851417e-002
3.033478e+003, 7.873003e-002
3.035406e+003, 7.929129e-002
3.037335e+003, 8.063596e-002
3.039263e+003, 8.153486e-002
3.041192e+003, 8.121374e-002
3.043120e+003, 8.204307e-002
3.045049e+003, 8.357860e-002
3.046977e+003, 8.424555e-002
3.048906e+003, 8.397903e-002
3.050834e+003, 8.456680e-002
3.052763e+003, 8.618561e-002
3.054691e+003, 8.749631e-002
3.056620e+003, 8.816206e-002
3.058548e+003, 8.864251e-002
3.060477e+003, 8.872149e-002
3.062405e+003, 8.910514e-002
3.064333e+003, 8.946723e-002
3.066262e+003, 9.073122e-002
3.068190e+003, 9.320357e-002
3.070119e+003, 9.542859e-002
3.072047e+003, 9.535263e-002
3.073976e+003, 9.493263e-002
3.075904e+003, 9.495226e-002
3.077833e+003, 9.544908e-002
3.079761e+003, 9.735864e-002
3.081690e+003, 9.938725e-002
3.083618e+003, 1.000640e-001
3.085547e+003, 9.973719e-002
3.087475e+003, 1.008340e-001
3.089404e+003, 1.020741e-001
3.091332e+003, 1.029053e-001
3.093260e+003, 1.045001e-001
3.095189e+003, 1.060259e-001
3.097117e+003, 1.077613e-001
3.099046e+003, 1.078075e-001
3.100974e+003, 1.073620e-001
3.102903e+003, 1.081354e-001
3.104831e+003, 1.100025e-001
3.106760e+003, 1.110576e-001
3.108688e+003, 1.120886e-001
3.110617e+003, 1.139949e-001
3.112545e+003, 1.152775e-001
3.114474e+003, 1.159410e-001
3.116402e+003, 1.174578e-001
3.118331e+003, 1.192024e-001
3.120259e+003, 1.199331e-001
3.122188e+003, 1.205597e-001
3.124116e+003, 1.216013e-001
3.126044e+003, 1.234606e-001
3.127973e+003, 1.254713e-001
3.129901e+003, 1.266235e-001
3.131830e+003, 1.271055e-001
3.133758e+003, 1.290820e-001
3.135687e+003, 1.313962e-001
3.137615e+003, 1.327135e-001
3.139544e+003, 1.340900e-001
3.141472e+003, 1.354165e-001
3.143401e+003, 1.349802e-001
3.145329e+003, 1.357111e-001
3.147258e+003, 1.366596e-001
3.149186e+003, 1.374036e-001
3.151115e+003, 1.392092e-001
3.153043e+003, 1.404030e-001
3.154971e+003, 1.407734e-001
3.156900e+003, 1.412412e-001
3.158828e+003, 1.429287e-001
3.160757e+003, 1.437546e-001
3.162685e+003, 1.427290e-001
3.164614e+003, 1.426238e-001
3.166542e+003, 1.442170e-001
3.168471e+003, 1.454404e-001
3.170399e+003, 1.453355e-001
3.172328e+003, 1.451949e-001
3.174256e+003, 1.455473e-001
3.176185e+003, 1.455382e-001
3.178113e+003, 1.458507e-001
3.180042e+003, 1.466518e-001
3.181970e+003, 1.465499e-001
3.183898e+003, 1.468206e-001
3.185827e+003, 1.479723e-001
3.187755e+003, 1.485695e-001
3.189684e+003, 1.478712e-001
3.191612e+003, 1.480490e-001
3.193541e+003, 1.482356e-001
3.195469e+003, 1.478808e-001
3.197398e+003, 1.476960e-001
3.199326e+003, 1.487845e-001
3.201255e+003, 1.490945e-001
3.203183e+003, 1.490371e-001
3.205112e+003, 1.478718e-001
3.207040e+003, 1.472811e-001
3.208969e+003, 1.475464e-001
3.210897e+003, 1.470033e-001
3.212825e+003, 1.457965e-001
3.214754e+003, 1.448498e-001
3.216682e+003, 1.443431e-001
3.218611e+003, 1.440041e-001
3.220539e+003, 1.437231e-001
3.222468e+003, 1.431904e-001
3.224396e+003, 1.420319e-001
3.226325e+003, 1.413988e-001
3.228253e+003, 1.401925e-001
3.230182e+003, 1.381237e-001
3.232110e+003, 1.375278e-001
3.234039e+003, 1.374001e-001
3.235967e+003, 1.357392e-001
3.237896e+003, 1.335454e-001
3.239824e+003, 1.326622e-001
3.241752e+003, 1.327488e-001
3.243681e+003, 1.318630e-001
3.245609e+003, 1.299003e-001
3.247538e+003, 1.280601e-001
3.249466e+003, 1.271050e-001
3.251395e+003, 1.261780e-001
3.253323e+003, 1.244231e-001
3.255252e+003, 1.234233e-001
3.257180e+003, 1.216368e-001
3.259109e+003, 1.191210e-001
3.261037e+003, 1.177664e-001
3.262966e+003, 1.172973e-001
3.264894e+003, 1.167655e-001
3.266823e+003, 1.150389e-001
3.268751e+003, 1.122486e-001
3.270679e+003, 1.100098e-001
3.272608e+003, 1.077724e-001
3.274536e+003, 1.051286e-001
3.276465e+003, 1.036012e-001
3.278393e+003, 1.021705e-001
3.280322e+003, 1.002593e-001
3.282250e+003, 9.904812e-002
3.284179e+003, 9.772527e-002
3.286107e+003, 9.571199e-002
3.288036e+003, 9.446658e-002
3.289964e+003, 9.333163e-002
3.291893e+003, 9.144899e-002
3.293821e+003, 8.970612e-002
3.295750e+003, 8.782720e-002
3.297678e+003, 8.727388e-002
3.299606e+003, 8.709127e-002
3.301535e+003, 8.676929e-002
3.303463e+003, 8.555568e-002
3.305392e+003, 8.273941e-002
3.307320e+003, 8.157949e-002
3.309249e+003, 8.206224e-002
3.311177e+003, 8.100823e-002
3.313106e+003, 8.013171e-002
3.315034e+003, 7.887815e-002
3.316963e+003, 7.834867e-002
3.318891e+003, 7.707819e-002
3.320820e+003, 7.609212e-002
3.322748e+003, 7.693887e-002
3.324677e+003, 7.644112e-002
3.326605e+003, 7.440981e-002
3.328533e+003, 7.431558e-002
3.330462e+003, 7.507014e-002
3.332390e+003, 7.372022e-002
3.334319e+003, 7.185537e-002
3.336247e+003, 7.048804e-002
3.338176e+003, 6.965419e-002
3.340104e+003, 6.879606e-002
3.342033e+003, 6.878760e-002
3.343961e+003, 6.928046e-002
3.345890e+003, 6.799588e-002
3.347818e+003, 6.735476e-002
3.349747e+003, 6.671596e-002
3.351675e+003, 6.551670e-002
3.353604e+003, 6.467356e-002
3.355532e+003, 6.430382e-002
3.357460e+003, 6.334583e-002
3.359389e+003, 6.151801e-002
3.361317e+003, 6.204999e-002
3.363246e+003, 6.342885e-002
3.365174e+003, 6.362992e-002
3.367103e+003, 6.303911e-002
3.369031e+003, 6.105311e-002
3.370960e+003, 6.071585e-002
3.372888e+003, 6.129945e-002
3.374817e+003, 6.113128e-002
3.376745e+003, 6.017549e-002
3.378674e+003, 5.992094e-002
3.380602e+003, 5.992740e-002
3.382531e+003, 5.819822e-002
3.384459e+003, 5.691821e-002
3.386387e+003, 5.749895e-002
3.388316e+003, 5.749676e-002
3.390244e+003, 5.724859e-002
3.392173e+003, 5.695419e-002
3.394101e+003, 5.709419e-002
3.396030e+003, 5.693341e-002
3.397958e+003, 5.658820e-002
3.399887e+003, 5.629899e-002
3.401815e+003, 5.600745e-002
3.403744e+003, 5.491817e-002
3.405672e+003, 5.379375e-002
3.407601e+003, 5.462512e-002
3.409529e+003, 5.563926e-002
3.411458e+003, 5.501566e-002
3.413386e+003, 5.307580e-002
3.415314e+003, 5.257625e-002
3.417243e+003, 5.404660e-002
3.419171e+003, 5.499920e-002
3.421100e+003, 5.403684e-002
3.423028e+003, 5.242772e-002
3.424957e+003, 5.152738e-002
3.426885e+003, 5.169206e-002
3.428814e+003, 5.194421e-002
3.430742e+003, 5.089711e-002
3.432671e+003, 4.960062e-002
3.434599e+003, 4.961983e-002
3.436528e+003, 5.068080e-002
3.438456e+003, 5.174818e-002
3.440385e+003, 5.079769e-002
3.442313e+003, 5.026846e-002
3.444241e+003, 5.102024e-002
3.446170e+003, 5.108633e-002
3.448098e+003, 5.161414e-002
3.450027e+003, 5.167664e-002
3.451955e+003, 5.154890e-002
3.453884e+003, 5.125777e-002
3.455812e+003, 5.078736e-002
3.457741e+003, 5.045003e-002
3.459669e+003, 4.969521e-002
3.461598e+003, 5.009559e-002
3.463526e+003, 5.097846e-002
3.465455e+003, 5.087001e-002
3.467383e+003, 5.046811e-002
3.469312e+003, 4.997754e-002
3.471240e+003, 4.861079e-002
3.473168e+003, 4.748290e-002
3.475097e+003, 4.713917e-002
3.477025e+003, 4.737828e-002
3.478954e+003, 4.884914e-002
3.480882e+003, 4.901950e-002
3.482811e+003, 4.899313e-002
3.484739e+003, 5.051838e-002
3.486668e+003, 5.016636e-002
3.488596e+003, 4.881692e-002
3.490525e+003, 5.087279e-002
3.492453e+003, 5.138241e-002
3.494382e+003, 4.825888e-002
3.496310e+003, 4.650605e-002
3.498239e+003, 4.637022e-002
3.500167e+003, 4.572531e-002
3.502095e+003, 4.487498e-002
3.504024e+003, 4.638402e-002
3.505952e+003, 4.738762e-002
3.507881e+003, 4.724235e-002
3.509809e+003, 4.785865e-002
3.511738e+003, 4.720106e-002
3.513666e+003, 4.569619e-002
3.515595e+003, 4.596081e-002
3.517523e+003, 4.667375e-002
3.519452e+003, 4.523801e-002
3.521380e+003, 4.540128e-002
3.523309e+003, 4.637052e-002
3.525237e+003, 4.483610e-002
3.527166e+003, 4.467561e-002
3.529094e+003, 4.492103e-002
3.531022e+003, 4.464885e-002
3.532951e+003, 4.405849e-002
3.534879e+003, 4.559919e-002
3.536808e+003, 4.528452e-002
3.538736e+003, 4.316276e-002
3.540665e+003, 4.363326e-002
3.542593e+003, 4.502792e-002
3.544522e+003, 4.421290e-002
3.546450e+003, 4.374851e-002
3.548379e+003, 4.313457e-002
3.550307e+003, 4.348861e-002
3.552236e+003, 4.445305e-002
3.554164e+003, 4.282394e-002
3.556093e+003, 4.266117e-002
3.558021e+003, 4.358967e-002
3.559949e+003, 4.182363e-002
3.561878e+003, 4.103476e-002
3.563806e+003, 4.046631e-002
3.565735e+003, 3.947059e-002
3.567663e+003, 3.840767e-002
3.569592e+003, 3.831272e-002
3.571520e+003, 3.728905e-002
3.573449e+003, 3.836277e-002
3.575377e+003, 4.102170e-002
3.577306e+003, 4.236624e-002
3.579234e+003, 4.236687e-002
3.581163e+003, 4.214131e-002
3.583091e+003, 4.029827e-002
3.585020e+003, 3.903014e-002
3.586948e+003, 3.809235e-002
3.588876e+003, 3.844992e-002
3.590805e+003, 3.949050e-002
3.592733e+003, 4.141937e-002
3.594662e+003, 4.089536e-002
3.596590e+003, 3.994435e-002
3.598519e+003, 4.040785e-002
3.600447e+003, 4.099158e-002
3.602376e+003, 3.972226e-002
3.604304e+003, 3.893555e-002
3.606233e+003, 3.992830e-002
3.608161e+003, 4.218837e-002
3.610090e+003, 4.058008e-002
3.612018e+003, 3.920297e-002
3.613947e+003, 3.857736e-002
3.615875e+003, 3.835632e-002
3.617803e+003, 4.015727e-002
3.619732e+003, 4.194373e-002
3.621660e+003, 4.170754e-002
3.623589e+003, 3.929661e-002
3.625517e+003, 3.780296e-002
3.627446e+003, 3.861837e-002
3.629374e+003, 3.938132e-002
3.631303e+003, 3.920499e-002
3.633231e+003, 3.971548e-002
3.635160e+003, 4.047578e-002
3.637088e+003, 3.930932e-002
3.639017e+003, 3.848302e-002
3.640945e+003, 3.902493e-002
3.642874e+003, 3.955761e-002
3.644802e+003, 3.801415e-002
3.646730e+003, 3.741999e-002
3.648659e+003, 3.757955e-002
3.650587e+003, 3.781679e-002
3.652516e+003, 3.867625e-002
3.654444e+003, 3.940429e-002
3.656373e+003, 3.905274e-002
3.658301e+003, 3.922014e-002
3.660230e+003, 4.014650e-002
3.662158e+003, 3.897789e-002
3.664087e+003, 3.584465e-002
3.666015e+003, 3.559339e-002
3.667944e+003, 3.796734e-002
3.669872e+003, 3.910247e-002
3.671801e+003, 3.845708e-002
3.673729e+003, 3.686083e-002
3.675657e+003, 3.673486e-002
3.677586e+003, 3.622349e-002
3.679514e+003, 3.761147e-002
3.681443e+003, 3.951172e-002
3.683371e+003, 3.866697e-002
3.685300e+003, 3.904365e-002
3.687228e+003, 3.880265e-002
3.689157e+003, 3.902798e-002
3.691085e+003, 3.747752e-002
3.693014e+003, 3.707391e-002
3.694942e+003, 3.768381e-002
3.696871e+003, 3.647203e-002
3.698799e+003, 3.650750e-002
3.700728e+003, 3.737719e-002
3.702656e+003, 3.758068e-002
3.704584e+003, 3.871756e-002
3.706513e+003, 3.950252e-002
3.708441e+003, 3.697332e-002
3.710370e+003, 3.657035e-002
3.712298e+003, 3.757513e-002
3.714227e+003, 3.761132e-002
3.716155e+003, 3.710471e-002
3.718084e+003, 3.647788e-002
3.720012e+003, 3.841500e-002
3.721941e+003, 3.866097e-002
3.723869e+003, 3.856304e-002
3.725798e+003, 4.062419e-002
3.727726e+003, 4.107298e-002
3.729655e+003, 3.781000e-002
3.731583e+003, 3.721523e-002
3.733511e+003, 3.854716e-002
3.735440e+003, 3.861064e-002
3.737368e+003, 3.792410e-002
3.739297e+003, 3.921233e-002
3.741225e+003, 3.982821e-002
3.743154e+003, 3.870609e-002
3.745082e+003, 3.926077e-002
3.747011e+003, 3.944097e-002
3.748939e+003, 3.890893e-002
3.750868e+003, 3.737746e-002
3.752796e+003, 3.673984e-002
3.754725e+003, 3.669815e-002
3.756653e+003, 3.674668e-002
3.758582e+003, 3.597566e-002
3.760510e+003, 3.736395e-002
3.762438e+003, 3.966688e-002
3.764367e+003, 3.805115e-002
3.766295e+003, 3.663940e-002
3.768224e+003, 3.745669e-002
3.770152e+003, 3.858456e-002
3.772081e+003, 3.916940e-002
3.774009e+003, 3.967056e-002
3.775938e+003, 3.905251e-002
3.777866e+003, 3.774236e-002
3.779795e+003, 3.830589e-002
3.781723e+003, 3.828232e-002
3.783652e+003, 3.706888e-002
3.785580e+003, 3.791122e-002
3.787509e+003, 4.125173e-002
3.789437e+003, 4.146004e-002
3.791365e+003, 4.051411e-002
3.793294e+003, 3.949131e-002
3.795222e+003, 4.046934e-002
3.797151e+003, 4.177790e-002
3.799079e+003, 4.177184e-002
3.801008e+003, 4.128028e-002
3.802936e+003, 4.139601e-002
3.804865e+003, 4.037212e-002
3.806793e+003, 3.900764e-002
3.808722e+003, 3.860516e-002
3.810650e+003, 3.879744e-002
3.812579e+003, 3.790322e-002
3.814507e+003, 3.884406e-002
3.816436e+003, 4.119102e-002
3.818364e+003, 4.137356e-002
3.820292e+003, 4.001380e-002
3.822221e+003, 4.005701e-002
3.824149e+003, 4.126194e-002
3.826078e+003, 4.108678e-002
3.828006e+003, 3.850607e-002
3.829935e+003, 3.692809e-002
3.831863e+003, 3.788523e-002
3.833792e+003, 3.926086e-002
3.835720e+003, 4.157665e-002
3.837649e+003, 4.066347e-002
3.839577e+003, 3.775424e-002
3.841506e+003, 3.759952e-002
3.843434e+003, 3.819724e-002
3.845363e+003, 3.772692e-002
3.847291e+003, 3.893119e-002
3.849219e+003, 3.984318e-002
3.851148e+003, 3.701722e-002
3.853076e+003, 3.466251e-002
3.855005e+003, 3.725158e-002
3.856933e+003, 3.937584e-002
3.858862e+003, 3.998281e-002
3.860790e+003, 4.022826e-002
3.862719e+003, 4.011700e-002
3.864647e+003, 3.988890e-002
3.866576e+003, 4.005807e-002
3.868504e+003, 3.928828e-002
3.870433e+003, 3.835539e-002
3.872361e+003, 3.757959e-002
3.874290e+003, 3.739982e-002
3.876218e+003, 3.861141e-002
3.878146e+003, 4.017299e-002
3.880075e+003, 4.137070e-002
3.882003e+003, 4.115939e-002
3.883932e+003, 4.113514e-002
3.885860e+003, 4.052277e-002
3.887789e+003, 4.025041e-002
3.889717e+003, 4.102539e-002
3.891646e+003, 4.116918e-002
3.893574e+003, 4.039405e-002
3.895503e+003, 4.057073e-002
3.897431e+003, 3.961010e-002
3.899360e+003, 3.964973e-002
3.901288e+003, 4.187551e-002
3.903217e+003, 4.152161e-002
3.905145e+003, 3.929310e-002
3.907073e+003, 3.880204e-002
3.909002e+003, 4.070385e-002
3.910930e+003, 4.169483e-002
3.912859e+003, 4.237025e-002
3.914787e+003, 4.341142e-002
3.916716e+003, 4.249838e-002
3.918644e+003, 4.098454e-002
3.920573e+003, 3.958402e-002
3.922501e+003, 4.003448e-002
3.924430e+003, 4.287849e-002
3.926358e+003, 4.314722e-002
3.928287e+003, 4.164830e-002
3.930215e+003, 4.122700e-002
3.932144e+003, 3.890296e-002
3.934072e+003, 3.960036e-002
3.936000e+003, 4.145006e-002
3.937929e+003, 4.160596e-002
3.939857e+003, 4.206786e-002
3.941786e+003, 4.124216e-002
3.943714e+003, 3.985851e-002
3.945643e+003, 4.100515e-002
3.947571e+003, 4.279597e-002
3.949500e+003, 4.195212e-002
3.951428e+003, 4.221744e-002
3.953357e+003, 4.027303e-002
3.955285e+003, 3.799114e-002
3.957214e+003, 3.868505e-002
3.959142e+003, 4.217629e-002
3.961071e+003, 4.206992e-002
3.962999e+003, 3.987768e-002
3.964927e+003, 3.838591e-002
3.966856e+003, 4.054580e-002
3.968784e+003, 4.382916e-002
3.970713e+003, 4.281696e-002
3.972641e+003, 4.137372e-002
3.974570e+003, 4.090379e-002
3.976498e+003, 4.144400e-002
3.978427e+003, 4.304091e-002
3.980355e+003, 4.200707e-002
3.982284e+003, 4.124720e-002
3.984212e+003, 4.094759e-002
3.986141e+003, 4.397433e-002
3.988069e+003, 4.421566e-002
3.989998e+003, 4.146414e-002
3.991926e+003, 4.002146e-002
3.993854e+003, 4.186051e-002
3.995783e+003, 4.331512e-002
3.997711e+003, 4.296643e-002
3.999640e+003, 4.298606e-002
4.001568e+003, 0.000000e+000
##END=



