##NAMES=Cordierite
##RRUFFID=R040082
##IDEAL CHEMISTRY=Mg_2_Al_3_(AlSi_5_)O_18_
##LOCALITY=Madagascar
##OWNER=RRUFF
##SOURCE=University of Arizona Mineral Museum
##DESCRIPTION=Dark gray coarsely crystalline massive
##STATUS=The identification of this mineral has been confirmed by X-ray diffraction and chemical analysis
##URL=rruff.info/R040082
##MEASURED CHEMISTRY=(Mg_1.60_Fe^2+^_0.39_Mn_0.01_)_Σ=2_Al_4.00_(Si_4.95_Al_0.05_)_Σ=5_O_18_·1.05H_2_O·Na_0.05_ ; H_2_O estimated by difference and verified by Raman spectroscopy
3.991926e+002, 0.000000e+000
4.011211e+002, 1.608939e-001
4.030496e+002, 1.616435e-001
4.049780e+002, 1.504801e-001
4.069065e+002, 1.454333e-001
4.088350e+002, 1.454951e-001
4.107634e+002, 1.510666e-001
4.126919e+002, 1.571106e-001
4.146204e+002, 1.552374e-001
4.165488e+002, 1.559827e-001
4.184773e+002, 1.580499e-001
4.204058e+002, 1.566043e-001
4.223342e+002, 1.507976e-001
4.242627e+002, 1.446050e-001
4.261912e+002, 1.373751e-001
4.281196e+002, 1.278434e-001
4.300481e+002, 1.255184e-001
4.319766e+002, 1.311393e-001
4.339050e+002, 1.384128e-001
4.358335e+002, 1.434904e-001
4.377620e+002, 1.464291e-001
4.396904e+002, 1.475481e-001
4.416189e+002, 1.460863e-001
4.435474e+002, 1.415126e-001
4.454758e+002, 1.343854e-001
4.474043e+002, 1.282304e-001
4.493328e+002, 1.229684e-001
4.512612e+002, 1.162984e-001
4.531897e+002, 1.113932e-001
4.551182e+002, 1.065496e-001
4.570466e+002, 1.034750e-001
4.589751e+002, 1.015398e-001
4.609036e+002, 1.004746e-001
4.628320e+002, 9.997601e-002
4.647605e+002, 1.000727e-001
4.666890e+002, 1.008167e-001
4.686174e+002, 1.024890e-001
4.705459e+002, 1.042793e-001
4.724744e+002, 1.064161e-001
4.744028e+002, 1.108567e-001
4.763313e+002, 1.153431e-001
4.782598e+002, 1.163169e-001
4.801882e+002, 1.156971e-001
4.821167e+002, 1.140236e-001
4.840452e+002, 1.109733e-001
4.859736e+002, 1.049709e-001
4.879021e+002, 9.579990e-002
4.898306e+002, 8.572318e-002
4.917590e+002, 7.636639e-002
4.936875e+002, 6.893192e-002
4.956160e+002, 6.237286e-002
4.975444e+002, 5.572369e-002
4.994729e+002, 4.944019e-002
5.014014e+002, 4.399950e-002
5.033298e+002, 3.913438e-002
5.052583e+002, 3.457890e-002
5.071868e+002, 3.055483e-002
5.091152e+002, 2.767140e-002
5.110437e+002, 2.568990e-002
5.129722e+002, 2.411262e-002
5.149006e+002, 2.317933e-002
5.168291e+002, 2.275239e-002
5.187576e+002, 2.253433e-002
5.206860e+002, 2.262560e-002
5.226145e+002, 2.249463e-002
5.245430e+002, 2.238856e-002
5.264714e+002, 2.253090e-002
5.283999e+002, 2.262369e-002
5.303284e+002, 2.273661e-002
5.322568e+002, 2.288620e-002
5.341853e+002, 2.270125e-002
5.361138e+002, 2.273477e-002
5.380422e+002, 2.317259e-002
5.399707e+002, 2.425740e-002
5.418992e+002, 2.543148e-002
5.438276e+002, 2.642513e-002
5.457561e+002, 2.786366e-002
5.476846e+002, 2.990258e-002
5.496130e+002, 3.248927e-002
5.515415e+002, 3.529767e-002
5.534700e+002, 3.911439e-002
5.553984e+002, 4.454921e-002
5.573269e+002, 5.102282e-002
5.592554e+002, 5.918906e-002
5.611838e+002, 6.776956e-002
5.631123e+002, 7.469281e-002
5.650408e+002, 7.804491e-002
5.669692e+002, 7.809584e-002
5.688977e+002, 7.667330e-002
5.708262e+002, 7.635420e-002
5.727546e+002, 7.843931e-002
5.746831e+002, 8.275325e-002
5.766116e+002, 8.790027e-002
5.785400e+002, 9.146163e-002
5.804685e+002, 9.099519e-002
5.823970e+002, 8.631144e-002
5.843254e+002, 7.853317e-002
5.862539e+002, 6.878261e-002
5.881824e+002, 6.028062e-002
5.901108e+002, 5.496046e-002
5.920393e+002, 5.241882e-002
5.939678e+002, 5.114771e-002
5.958962e+002, 5.020449e-002
5.978247e+002, 4.948135e-002
5.997532e+002, 4.952789e-002
6.016816e+002, 5.078854e-002
6.036101e+002, 5.289757e-002
6.055386e+002, 5.530121e-002
6.074670e+002, 5.767580e-002
6.093955e+002, 5.984744e-002
6.113240e+002, 6.236852e-002
6.132524e+002, 6.487247e-002
6.151809e+002, 6.605580e-002
6.171094e+002, 6.562385e-002
6.190378e+002, 6.391069e-002
6.209663e+002, 6.069570e-002
6.228948e+002, 5.625663e-002
6.248232e+002, 5.163225e-002
6.267517e+002, 4.721651e-002
6.286802e+002, 4.317234e-002
6.306086e+002, 3.966450e-002
6.325371e+002, 3.729586e-002
6.344656e+002, 3.601658e-002
6.363940e+002, 3.479832e-002
6.383225e+002, 3.399130e-002
6.402510e+002, 3.393316e-002
6.421794e+002, 3.408113e-002
6.441079e+002, 3.487786e-002
6.460364e+002, 3.593630e-002
6.479648e+002, 3.661792e-002
6.498933e+002, 3.728704e-002
6.518218e+002, 3.851182e-002
6.537502e+002, 3.975109e-002
6.556787e+002, 4.082350e-002
6.576072e+002, 4.156784e-002
6.595356e+002, 4.226459e-002
6.614641e+002, 4.354454e-002
6.633926e+002, 4.554370e-002
6.653210e+002, 4.840861e-002
6.672495e+002, 5.186019e-002
6.691780e+002, 5.578827e-002
6.711064e+002, 5.964402e-002
6.730349e+002, 6.210305e-002
6.749634e+002, 6.247881e-002
6.768918e+002, 6.015322e-002
6.788203e+002, 5.596358e-002
6.807488e+002, 5.161174e-002
6.826772e+002, 4.835282e-002
6.846057e+002, 4.637101e-002
6.865342e+002, 4.529803e-002
6.884626e+002, 4.477033e-002
6.903911e+002, 4.477159e-002
6.923196e+002, 4.510165e-002
6.942480e+002, 4.577890e-002
6.961765e+002, 4.704754e-002
6.981050e+002, 4.884659e-002
7.000334e+002, 5.088402e-002
7.019619e+002, 5.270582e-002
7.038904e+002, 5.361777e-002
7.058188e+002, 5.299266e-002
7.077473e+002, 5.199857e-002
7.096758e+002, 5.155876e-002
7.116042e+002, 5.180712e-002
7.135327e+002, 5.253853e-002
7.154612e+002, 5.403136e-002
7.173896e+002, 5.618902e-002
7.193181e+002, 5.859952e-002
7.212466e+002, 6.113084e-002
7.231750e+002, 6.427027e-002
7.251035e+002, 6.782492e-002
7.270320e+002, 7.193142e-002
7.289604e+002, 7.658529e-002
7.308889e+002, 8.151073e-002
7.328174e+002, 8.685307e-002
7.347458e+002, 9.236694e-002
7.366743e+002, 9.830160e-002
7.386028e+002, 1.048446e-001
7.405313e+002, 1.113755e-001
7.424597e+002, 1.172035e-001
7.443882e+002, 1.222171e-001
7.463167e+002, 1.251171e-001
7.482451e+002, 1.254862e-001
7.501736e+002, 1.252453e-001
7.521021e+002, 1.266052e-001
7.540305e+002, 1.311162e-001
7.559590e+002, 1.386870e-001
7.578875e+002, 1.469712e-001
7.598159e+002, 1.547546e-001
7.617444e+002, 1.614153e-001
7.636729e+002, 1.651628e-001
7.656013e+002, 1.655509e-001
7.675298e+002, 1.622710e-001
7.694583e+002, 1.556945e-001
7.713867e+002, 1.468032e-001
7.733152e+002, 1.368662e-001
7.752437e+002, 1.267903e-001
7.771721e+002, 1.166374e-001
7.791006e+002, 1.065312e-001
7.810291e+002, 9.641884e-002
7.829575e+002, 8.683138e-002
7.848860e+002, 7.806018e-002
7.868145e+002, 7.030877e-002
7.887429e+002, 6.313550e-002
7.906714e+002, 5.683611e-002
7.925999e+002, 5.163720e-002
7.945283e+002, 4.774081e-002
7.964568e+002, 4.501478e-002
7.983853e+002, 4.297423e-002
8.003137e+002, 4.148195e-002
8.022422e+002, 4.040268e-002
8.041707e+002, 3.967103e-002
8.060991e+002, 3.946657e-002
8.080276e+002, 3.950227e-002
8.099561e+002, 3.961474e-002
8.118845e+002, 3.991612e-002
8.138130e+002, 4.046196e-002
8.157415e+002, 4.140259e-002
8.176699e+002, 4.233684e-002
8.195984e+002, 4.350703e-002
8.215269e+002, 4.494572e-002
8.234553e+002, 4.628927e-002
8.253838e+002, 4.746283e-002
8.273123e+002, 4.828116e-002
8.292407e+002, 4.890884e-002
8.311692e+002, 4.982246e-002
8.330977e+002, 5.101438e-002
8.350261e+002, 5.232649e-002
8.369546e+002, 5.378154e-002
8.388831e+002, 5.543668e-002
8.408115e+002, 5.729591e-002
8.427400e+002, 5.932279e-002
8.446685e+002, 6.147071e-002
8.465969e+002, 6.397995e-002
8.485254e+002, 6.642841e-002
8.504539e+002, 6.892202e-002
8.523823e+002, 7.191934e-002
8.543108e+002, 7.473943e-002
8.562393e+002, 7.768825e-002
8.581677e+002, 8.102371e-002
8.600962e+002, 8.460609e-002
8.620247e+002, 8.827998e-002
8.639531e+002, 9.218922e-002
8.658816e+002, 9.612972e-002
8.678101e+002, 1.003131e-001
8.697385e+002, 1.049371e-001
8.716670e+002, 1.098154e-001
8.735955e+002, 1.148596e-001
8.755239e+002, 1.197306e-001
8.774524e+002, 1.247776e-001
8.793809e+002, 1.301488e-001
8.813093e+002, 1.355947e-001
8.832378e+002, 1.414218e-001
8.851663e+002, 1.477704e-001
8.870947e+002, 1.541188e-001
8.890232e+002, 1.606556e-001
8.909517e+002, 1.677479e-001
8.928801e+002, 1.749067e-001
8.948085e+002, 1.816738e-001
8.967370e+002, 1.879939e-001
8.986655e+002, 1.938877e-001
9.005939e+002, 1.986835e-001
9.025224e+002, 2.017817e-001
9.044509e+002, 2.023996e-001
9.063793e+002, 2.005353e-001
9.083078e+002, 1.962683e-001
9.102363e+002, 1.894647e-001
9.121647e+002, 1.819638e-001
9.140932e+002, 1.752659e-001
9.160217e+002, 1.690270e-001
9.179501e+002, 1.630417e-001
9.198786e+002, 1.572263e-001
9.218071e+002, 1.527434e-001
9.237355e+002, 1.527342e-001
9.256640e+002, 1.597523e-001
9.275925e+002, 1.722962e-001
9.295209e+002, 1.868673e-001
9.314494e+002, 2.003671e-001
9.333779e+002, 2.115742e-001
9.353063e+002, 2.200700e-001
9.372348e+002, 2.263851e-001
9.391633e+002, 2.304972e-001
9.410917e+002, 2.333987e-001
9.430202e+002, 2.358239e-001
9.449487e+002, 2.380266e-001
9.468771e+002, 2.397071e-001
9.488056e+002, 2.402904e-001
9.507341e+002, 2.397924e-001
9.526625e+002, 2.387127e-001
9.545910e+002, 2.364592e-001
9.565195e+002, 2.329955e-001
9.584479e+002, 2.284207e-001
9.603764e+002, 2.223780e-001
9.623049e+002, 2.150978e-001
9.642333e+002, 2.071905e-001
9.661618e+002, 1.987569e-001
9.680903e+002, 1.903090e-001
9.700187e+002, 1.819458e-001
9.719472e+002, 1.739809e-001
9.738757e+002, 1.662185e-001
9.758041e+002, 1.585251e-001
9.777326e+002, 1.511359e-001
9.796611e+002, 1.440656e-001
9.815895e+002, 1.368124e-001
9.835180e+002, 1.293636e-001
9.854465e+002, 1.221059e-001
9.873749e+002, 1.150425e-001
9.893034e+002, 1.079006e-001
9.912319e+002, 1.015438e-001
9.931603e+002, 9.570051e-002
9.950888e+002, 9.019423e-002
9.970173e+002, 8.569661e-002
9.989457e+002, 8.193657e-002
1.000874e+003, 7.887197e-002
1.002803e+003, 7.625727e-002
1.004731e+003, 7.429866e-002
1.006660e+003, 7.324196e-002
1.008588e+003, 7.273296e-002
1.010517e+003, 7.227600e-002
1.012445e+003, 7.158571e-002
1.014373e+003, 7.077908e-002
1.016302e+003, 6.999252e-002
1.018230e+003, 6.979260e-002
1.020159e+003, 7.060037e-002
1.022087e+003, 7.257456e-002
1.024016e+003, 7.484744e-002
1.025944e+003, 7.521874e-002
1.027873e+003, 7.181264e-002
1.029801e+003, 6.569221e-002
1.031730e+003, 5.923232e-002
1.033658e+003, 5.393089e-002
1.035587e+003, 4.972731e-002
1.037515e+003, 4.653905e-002
1.039444e+003, 4.415892e-002
1.041372e+003, 4.215577e-002
1.043301e+003, 4.074166e-002
1.045229e+003, 3.955412e-002
1.047157e+003, 3.861919e-002
1.049086e+003, 3.761860e-002
1.051014e+003, 3.665265e-002
1.052943e+003, 3.591510e-002
1.054871e+003, 3.517928e-002
1.056800e+003, 3.463966e-002
1.058728e+003, 3.425663e-002
1.060657e+003, 3.389249e-002
1.062585e+003, 3.355885e-002
1.064514e+003, 3.339736e-002
1.066442e+003, 3.329301e-002
1.068371e+003, 3.333382e-002
1.070299e+003, 3.340010e-002
1.072228e+003, 3.351545e-002
1.074156e+003, 3.377995e-002
1.076084e+003, 3.414956e-002
1.078013e+003, 3.453232e-002
1.079941e+003, 3.533218e-002
1.081870e+003, 3.610666e-002
1.083798e+003, 3.697857e-002
1.085727e+003, 3.798955e-002
1.087655e+003, 3.886076e-002
1.089584e+003, 3.969257e-002
1.091512e+003, 4.051933e-002
1.093441e+003, 4.134108e-002
1.095369e+003, 4.199511e-002
1.097298e+003, 4.250451e-002
1.099226e+003, 4.320507e-002
1.101155e+003, 4.441994e-002
1.103083e+003, 4.570243e-002
1.105011e+003, 4.711079e-002
1.106940e+003, 4.877305e-002
1.108868e+003, 5.109901e-002
1.110797e+003, 5.392798e-002
1.112725e+003, 5.682208e-002
1.114654e+003, 6.000849e-002
1.116582e+003, 6.378259e-002
1.118511e+003, 6.784898e-002
1.120439e+003, 7.223319e-002
1.122368e+003, 7.717337e-002
1.124296e+003, 8.227749e-002
1.126225e+003, 8.719207e-002
1.128153e+003, 9.127592e-002
1.130082e+003, 9.431820e-002
1.132010e+003, 9.689317e-002
1.133938e+003, 9.971472e-002
1.135867e+003, 1.030709e-001
1.137795e+003, 1.065469e-001
1.139724e+003, 1.092295e-001
1.141652e+003, 1.105074e-001
1.143581e+003, 1.097159e-001
1.145509e+003, 1.075058e-001
1.147438e+003, 1.056282e-001
1.149366e+003, 1.053478e-001
1.151295e+003, 1.071824e-001
1.153223e+003, 1.102188e-001
1.155152e+003, 1.133857e-001
1.157080e+003, 1.168133e-001
1.159009e+003, 1.211472e-001
1.160937e+003, 1.257018e-001
1.162865e+003, 1.291717e-001
1.164794e+003, 1.309521e-001
1.166722e+003, 1.321553e-001
1.168651e+003, 1.343973e-001
1.170579e+003, 1.374377e-001
1.172508e+003, 1.393821e-001
1.174436e+003, 1.388096e-001
1.176365e+003, 1.357526e-001
1.178293e+003, 1.308851e-001
1.180222e+003, 1.248845e-001
1.182150e+003, 1.182198e-001
1.184079e+003, 1.115442e-001
1.186007e+003, 1.049164e-001
1.187936e+003, 9.867690e-002
1.189864e+003, 9.265937e-002
1.191792e+003, 8.686063e-002
1.193721e+003, 8.138784e-002
1.195649e+003, 7.596471e-002
1.197578e+003, 7.095530e-002
1.199506e+003, 6.612180e-002
1.201435e+003, 6.105506e-002
1.203363e+003, 5.614197e-002
1.205292e+003, 5.155781e-002
1.207220e+003, 4.731720e-002
1.209149e+003, 4.312162e-002
1.211077e+003, 3.902270e-002
1.213006e+003, 3.531683e-002
1.214934e+003, 3.188543e-002
1.216863e+003, 2.871114e-002
1.218791e+003, 2.563394e-002
1.220719e+003, 2.258614e-002
1.222648e+003, 1.963762e-002
1.224576e+003, 1.694989e-002
1.226505e+003, 1.450560e-002
1.228433e+003, 1.265220e-002
1.230362e+003, 1.112007e-002
1.232290e+003, 9.936625e-003
1.234219e+003, 9.003820e-003
1.236147e+003, 8.127319e-003
1.238076e+003, 7.435823e-003
1.240004e+003, 6.844663e-003
1.241933e+003, 6.497892e-003
1.243861e+003, 6.177928e-003
1.245790e+003, 5.768290e-003
1.247718e+003, 5.456117e-003
1.249646e+003, 5.139198e-003
1.251575e+003, 4.784849e-003
1.253503e+003, 4.506559e-003
1.255432e+003, 4.375141e-003
1.257360e+003, 4.219019e-003
1.259289e+003, 4.052872e-003
1.261217e+003, 3.897183e-003
1.263146e+003, 3.823719e-003
1.265074e+003, 3.767520e-003
1.267003e+003, 3.579554e-003
1.268931e+003, 3.395645e-003
1.270860e+003, 3.254168e-003
1.272788e+003, 3.157012e-003
1.274717e+003, 3.123656e-003
1.276645e+003, 3.127953e-003
1.278573e+003, 3.060045e-003
1.280502e+003, 2.932556e-003
1.282430e+003, 2.914450e-003
1.284359e+003, 2.961758e-003
1.286287e+003, 2.875410e-003
1.288216e+003, 2.837711e-003
1.290144e+003, 2.862246e-003
1.292073e+003, 2.867289e-003
1.294001e+003, 2.793146e-003
1.295930e+003, 2.641949e-003
1.297858e+003, 2.563696e-003
1.299787e+003, 2.583530e-003
1.301715e+003, 2.535447e-003
1.303644e+003, 2.796952e-003
1.305572e+003, 2.817958e-003
1.307500e+003, 2.544395e-003
1.309429e+003, 2.374017e-003
1.311357e+003, 2.358468e-003
1.313286e+003, 2.422268e-003
1.315214e+003, 2.312021e-003
1.317143e+003, 2.286809e-003
1.319071e+003, 2.349480e-003
1.321000e+003, 2.347674e-003
1.322928e+003, 2.410266e-003
1.324857e+003, 2.464291e-003
1.326785e+003, 2.362714e-003
1.328714e+003, 2.280042e-003
1.330642e+003, 2.280323e-003
1.332571e+003, 2.413929e-003
1.334499e+003, 2.465007e-003
1.336427e+003, 2.311602e-003
1.338356e+003, 2.281301e-003
1.340284e+003, 2.333471e-003
1.342213e+003, 2.295828e-003
1.344141e+003, 2.343670e-003
1.346070e+003, 2.482875e-003
1.347998e+003, 2.521985e-003
1.349927e+003, 2.427502e-003
1.351855e+003, 2.397036e-003
1.353784e+003, 2.368399e-003
1.355712e+003, 2.398575e-003
1.357641e+003, 2.530129e-003
1.359569e+003, 2.549304e-003
1.361498e+003, 2.591508e-003
1.363426e+003, 2.547936e-003
1.365354e+003, 2.429454e-003
1.367283e+003, 2.378231e-003
1.369211e+003, 2.554770e-003
1.371140e+003, 2.738631e-003
1.373068e+003, 2.785672e-003
1.374997e+003, 2.722773e-003
1.376925e+003, 2.608161e-003
1.378854e+003, 2.442252e-003
1.380782e+003, 2.545661e-003
1.382711e+003, 2.608604e-003
1.384639e+003, 2.662934e-003
1.386568e+003, 2.744139e-003
1.388496e+003, 2.871941e-003
1.390424e+003, 2.958799e-003
1.392353e+003, 3.032278e-003
1.394281e+003, 2.964274e-003
1.396210e+003, 3.064417e-003
1.398138e+003, 3.134974e-003
1.400067e+003, 3.084291e-003
1.401995e+003, 2.934441e-003
1.403924e+003, 2.941424e-003
1.405852e+003, 3.103781e-003
1.407781e+003, 3.120278e-003
1.409709e+003, 3.094763e-003
1.411638e+003, 3.021234e-003
1.413566e+003, 3.030377e-003
1.415495e+003, 3.084149e-003
1.417423e+003, 2.993935e-003
1.419351e+003, 3.125584e-003
1.421280e+003, 3.117065e-003
1.423208e+003, 3.040415e-003
1.425137e+003, 2.985296e-003
1.427065e+003, 2.909584e-003
1.428994e+003, 2.886816e-003
1.430922e+003, 2.881510e-003
1.432851e+003, 3.054486e-003
1.434779e+003, 3.039433e-003
1.436708e+003, 2.960625e-003
1.438636e+003, 3.036415e-003
1.440565e+003, 2.913081e-003
1.442493e+003, 2.765646e-003
1.444422e+003, 2.906067e-003
1.446350e+003, 3.053940e-003
1.448278e+003, 3.145068e-003
1.450207e+003, 2.899363e-003
1.452135e+003, 2.632780e-003
1.454064e+003, 2.630813e-003
1.455992e+003, 2.645078e-003
1.457921e+003, 3.008639e-003
1.459849e+003, 2.924189e-003
1.461778e+003, 2.805714e-003
1.463706e+003, 3.018734e-003
1.465635e+003, 3.231618e-003
1.467563e+003, 3.034505e-003
1.469492e+003, 2.875424e-003
1.471420e+003, 2.955407e-003
1.473349e+003, 3.035788e-003
1.475277e+003, 2.887244e-003
1.477205e+003, 2.725392e-003
1.479134e+003, 2.731148e-003
1.481062e+003, 2.908657e-003
1.482991e+003, 2.992593e-003
1.484919e+003, 2.946572e-003
1.486848e+003, 2.854847e-003
1.488776e+003, 2.728558e-003
1.490705e+003, 2.803922e-003
1.492633e+003, 2.786168e-003
1.494562e+003, 2.755658e-003
1.496490e+003, 2.797835e-003
1.498419e+003, 2.676883e-003
1.500347e+003, 2.642066e-003
1.502276e+003, 2.546483e-003
1.504204e+003, 2.413490e-003
1.506132e+003, 2.590979e-003
1.508061e+003, 2.757921e-003
1.509989e+003, 2.614290e-003
1.511918e+003, 2.628987e-003
1.513846e+003, 2.595587e-003
1.515775e+003, 2.486541e-003
1.517703e+003, 2.483945e-003
1.519632e+003, 2.531360e-003
1.521560e+003, 2.604636e-003
1.523489e+003, 2.591926e-003
1.525417e+003, 2.731957e-003
1.527346e+003, 2.713288e-003
1.529274e+003, 2.595402e-003
1.531203e+003, 2.499953e-003
1.533131e+003, 2.729814e-003
1.535059e+003, 2.904584e-003
1.536988e+003, 2.824880e-003
1.538916e+003, 2.991009e-003
1.540845e+003, 3.154736e-003
1.542773e+003, 3.126244e-003
1.544702e+003, 3.198270e-003
1.546630e+003, 3.425335e-003
1.548559e+003, 3.379352e-003
1.550487e+003, 3.407945e-003
1.552416e+003, 3.492170e-003
1.554344e+003, 3.724165e-003
1.556273e+003, 4.024600e-003
1.558201e+003, 4.306356e-003
1.560130e+003, 4.484981e-003
1.562058e+003, 4.344448e-003
1.563986e+003, 4.195569e-003
1.565915e+003, 4.531685e-003
1.567843e+003, 4.683217e-003
1.569772e+003, 4.787228e-003
1.571700e+003, 4.753399e-003
1.573629e+003, 4.692097e-003
1.575557e+003, 4.813107e-003
1.577486e+003, 4.966281e-003
1.579414e+003, 4.882803e-003
1.581343e+003, 4.788012e-003
1.583271e+003, 4.873560e-003
1.585200e+003, 5.032873e-003
1.587128e+003, 5.025241e-003
1.589057e+003, 5.013349e-003
1.590985e+003, 5.148814e-003
1.592913e+003, 5.231502e-003
1.594842e+003, 5.374556e-003
1.596770e+003, 5.694781e-003
1.598699e+003, 5.775810e-003
1.600627e+003, 5.565862e-003
1.602556e+003, 5.330769e-003
1.604484e+003, 5.122110e-003
1.606413e+003, 5.039876e-003
1.608341e+003, 5.136346e-003
1.610270e+003, 5.272213e-003
1.612198e+003, 5.325591e-003
1.614127e+003, 5.299854e-003
1.616055e+003, 5.168828e-003
1.617984e+003, 5.229037e-003
1.619912e+003, 5.159868e-003
1.621840e+003, 5.265396e-003
1.623769e+003, 5.353796e-003
1.625697e+003, 5.312017e-003
1.627626e+003, 5.465672e-003
1.629554e+003, 5.780988e-003
1.631483e+003, 5.923556e-003
1.633411e+003, 6.095255e-003
1.635340e+003, 6.410522e-003
1.637268e+003, 6.252715e-003
1.639197e+003, 5.727142e-003
1.641125e+003, 5.557572e-003
1.643054e+003, 5.521218e-003
1.644982e+003, 5.324545e-003
1.646911e+003, 5.209922e-003
1.648839e+003, 4.862546e-003
1.650767e+003, 4.663239e-003
1.652696e+003, 4.637215e-003
1.654624e+003, 4.741338e-003
1.656553e+003, 4.468359e-003
1.658481e+003, 4.472886e-003
1.660410e+003, 4.503199e-003
1.662338e+003, 4.444405e-003
1.664267e+003, 4.095552e-003
1.666195e+003, 3.756317e-003
1.668124e+003, 3.900540e-003
1.670052e+003, 4.282586e-003
1.671981e+003, 4.133683e-003
1.673909e+003, 3.895316e-003
1.675838e+003, 3.790366e-003
1.677766e+003, 3.653726e-003
1.679694e+003, 3.774159e-003
1.681623e+003, 3.979029e-003
1.683551e+003, 3.930004e-003
1.685480e+003, 3.913534e-003
1.687408e+003, 3.759279e-003
1.689337e+003, 3.863368e-003
1.691265e+003, 3.671519e-003
1.693194e+003, 3.589562e-003
1.695122e+003, 3.462574e-003
1.697051e+003, 3.528342e-003
1.698979e+003, 3.465424e-003
1.700908e+003, 3.797327e-003
1.702836e+003, 3.470232e-003
1.704765e+003, 3.399578e-003
1.706693e+003, 3.407365e-003
1.708621e+003, 2.997770e-003
1.710550e+003, 2.861883e-003
1.712478e+003, 3.085906e-003
1.714407e+003, 3.036267e-003
1.716335e+003, 3.049592e-003
1.718264e+003, 3.062905e-003
1.720192e+003, 2.832452e-003
1.722121e+003, 2.596192e-003
1.724049e+003, 2.742663e-003
1.725978e+003, 2.655351e-003
1.727906e+003, 2.449344e-003
1.729835e+003, 2.440930e-003
1.731763e+003, 2.273265e-003
1.733692e+003, 2.296789e-003
1.735620e+003, 2.392877e-003
1.737548e+003, 2.037474e-003
1.739477e+003, 2.168877e-003
1.741405e+003, 2.279457e-003
1.743334e+003, 1.837797e-003
1.745262e+003, 1.656471e-003
1.747191e+003, 1.832059e-003
1.749119e+003, 1.874409e-003
1.751048e+003, 1.880714e-003
1.752976e+003, 2.005417e-003
1.754905e+003, 2.015992e-003
1.756833e+003, 2.273014e-003
1.758762e+003, 2.350062e-003
1.760690e+003, 2.260275e-003
1.762619e+003, 2.339115e-003
1.764547e+003, 2.447864e-003
1.766475e+003, 2.776489e-003
1.768404e+003, 2.646754e-003
1.770332e+003, 2.159524e-003
1.772261e+003, 2.237804e-003
1.774189e+003, 2.347081e-003
1.776118e+003, 1.982476e-003
1.778046e+003, 1.855650e-003
1.779975e+003, 1.852736e-003
1.781903e+003, 1.933486e-003
1.783832e+003, 1.941973e-003
1.785760e+003, 1.718430e-003
1.787689e+003, 1.480375e-003
1.789617e+003, 1.790966e-003
1.791546e+003, 2.013081e-003
1.793474e+003, 1.594863e-003
1.795402e+003, 1.419908e-003
1.797331e+003, 1.821934e-003
1.799259e+003, 1.595117e-003
1.801188e+003, 1.736801e-003
1.803116e+003, 1.928189e-003
1.805045e+003, 1.783883e-003
1.806973e+003, 1.611821e-003
1.808902e+003, 1.761783e-003
1.810830e+003, 1.765932e-003
1.812759e+003, 1.362635e-003
1.814687e+003, 1.003814e-003
1.816616e+003, 1.097458e-003
1.818544e+003, 1.604215e-003
1.820473e+003, 1.828426e-003
1.822401e+003, 2.036421e-003
1.824329e+003, 1.825036e-003
1.826258e+003, 1.684929e-003
1.828186e+003, 1.589793e-003
1.830115e+003, 1.885202e-003
1.832043e+003, 2.135399e-003
1.833972e+003, 2.166667e-003
1.835900e+003, 2.123354e-003
1.837829e+003, 1.946459e-003
1.839757e+003, 1.663201e-003
1.841686e+003, 1.703615e-003
1.843614e+003, 2.090423e-003
1.845543e+003, 2.065032e-003
1.847471e+003, 1.992567e-003
1.849400e+003, 2.012428e-003
1.851328e+003, 1.796928e-003
1.853256e+003, 1.544213e-003
1.855185e+003, 1.521383e-003
1.857113e+003, 1.554262e-003
1.859042e+003, 1.795081e-003
1.860970e+003, 1.756735e-003
1.862899e+003, 1.132255e-003
1.864827e+003, 1.132751e-003
1.866756e+003, 1.415177e-003
1.868684e+003, 1.512415e-003
1.870613e+003, 1.734476e-003
1.872541e+003, 1.180276e-003
1.874470e+003, 1.618661e-004
1.876398e+003, -1.397271e-004
1.878327e+003, 6.348470e-004
1.880255e+003, 1.193745e-003
1.882183e+003, 1.141911e-003
1.884112e+003, 3.279566e-004
1.886040e+003, -1.897059e-004
1.887969e+003, 3.936964e-005
1.889897e+003, 1.962807e-004
1.891826e+003, 4.194049e-004
1.893754e+003, 6.393119e-004
1.895683e+003, 6.499575e-005
1.897611e+003, 4.578239e-004
1.899540e+003, 2.284079e-004
1.901468e+003, 1.443102e-004
1.903397e+003, 6.411718e-004
1.905325e+003, 9.202831e-004
1.907254e+003, 1.392969e-003
1.909182e+003, 8.624590e-004
1.911110e+003, 2.756686e-004
1.913039e+003, 2.453197e-004
1.914967e+003, 2.137328e-005
1.916896e+003, -1.114094e-004
1.918824e+003, 2.251011e-004
1.920753e+003, -2.017642e-005
1.922681e+003, -6.933133e-004
1.924610e+003, -1.067011e-003
1.926538e+003, -3.896420e-004
1.928467e+003, -8.075675e-004
1.930395e+003, -1.204036e-003
1.932324e+003, -8.121068e-004
1.934252e+003, -1.002601e-003
1.936181e+003, -6.467136e-004
1.938109e+003, -7.803204e-004
1.940037e+003, -2.231290e-003
1.941966e+003, -2.473482e-003
1.943894e+003, -1.073114e-003
1.945823e+003, -7.365808e-004
1.947751e+003, -1.392832e-003
1.949680e+003, -1.378695e-003
1.951608e+003, -1.588609e-003
1.953537e+003, -2.074702e-003
1.955465e+003, -1.832569e-003
1.957394e+003, -2.132399e-003
1.959322e+003, -2.975899e-003
1.961251e+003, -2.597949e-003
1.963179e+003, -2.419279e-003
1.965108e+003, -3.292549e-003
1.967036e+003, -3.599484e-003
1.968964e+003, -2.330461e-003
1.970893e+003, -1.853221e-003
1.972821e+003, -2.183909e-003
1.974750e+003, -2.727641e-003
1.976678e+003, -1.117877e-003
1.978607e+003, -6.310437e-004
1.980535e+003, -9.165751e-004
1.982464e+003, -2.025377e-004
1.984392e+003, 9.944959e-004
1.986321e+003, 1.346178e-003
1.988249e+003, 6.452317e-004
1.990178e+003, -5.160513e-005
1.992106e+003, 9.994513e-004
1.994035e+003, 1.040658e-003
1.995963e+003, 9.966585e-004
1.997891e+003, 1.086853e-003
1.999820e+003, -3.029499e-004
2.001748e+003, -1.584977e-003
2.003677e+003, -2.811534e-003
2.005605e+003, -2.187739e-003
2.007534e+003, 1.086964e-003
2.009462e+003, 1.133407e-003
2.011391e+003, -3.275213e-004
2.013319e+003, -1.765457e-003
2.015248e+003, -2.862622e-003
2.017176e+003, -3.051508e-003
2.019105e+003, -3.512960e-003
2.021033e+003, -2.641955e-003
2.022962e+003, -3.556809e-004
2.024890e+003, 3.889483e-004
2.026818e+003, 6.734162e-004
2.028747e+003, 4.395540e-004
2.030675e+003, 5.800162e-004
2.032604e+003, 5.425526e-004
2.034532e+003, 6.117057e-005
2.036461e+003, 4.464509e-004
2.038389e+003, 5.072589e-004
2.040318e+003, 6.500350e-004
2.042246e+003, -1.294993e-003
2.044175e+003, -2.443495e-003
2.046103e+003, -9.744291e-004
2.048032e+003, 6.525657e-004
2.049960e+003, 2.624707e-003
2.051889e+003, 3.427942e-003
2.053817e+003, 1.857103e-003
2.055746e+003, 1.517807e-004
2.057674e+003, 1.219022e-003
2.059603e+003, 2.346393e-003
2.061531e+003, 1.910935e-003
2.063459e+003, 8.791586e-004
2.065388e+003, 7.150928e-004
2.067316e+003, 7.632470e-004
2.069245e+003, 7.312067e-004
2.071173e+003, 9.190000e-004
2.073102e+003, 1.387962e-003
2.075030e+003, 2.590148e-003
2.076959e+003, 2.962351e-003
2.078887e+003, 2.029794e-003
2.080816e+003, 1.689764e-003
2.082744e+003, 1.794009e-003
2.084673e+003, 1.983945e-003
2.086601e+003, 2.319055e-003
2.088530e+003, 1.826321e-003
2.090458e+003, 1.484313e-003
2.092386e+003, 1.714874e-003
2.094315e+003, 2.269689e-003
2.096243e+003, 3.022288e-003
2.098172e+003, 2.693322e-003
2.100100e+003, 2.959646e-003
2.102029e+003, 3.222548e-003
2.103957e+003, 3.168562e-003
2.105886e+003, 2.583081e-003
2.107814e+003, 2.838741e-003
2.109743e+003, 3.349580e-003
2.111671e+003, 2.863873e-003
2.113600e+003, 3.181269e-003
2.115528e+003, 3.506806e-003
2.117457e+003, 2.984270e-003
2.119385e+003, 1.862633e-003
2.121313e+003, 1.041303e-003
2.123242e+003, 9.175974e-004
2.125170e+003, 1.461401e-003
2.127099e+003, 1.290080e-003
2.129027e+003, 9.607797e-004
2.130956e+003, 6.078943e-004
2.132884e+003, -5.021383e-004
2.134813e+003, -1.356986e-003
2.136741e+003, -1.262059e-003
2.138670e+003, -2.916335e-004
2.140598e+003, 1.026297e-004
2.142527e+003, 3.753976e-004
2.144455e+003, 6.251303e-004
2.146384e+003, 1.591418e-003
2.148312e+003, 2.691573e-003
2.150240e+003, 1.535478e-003
2.152169e+003, -1.140324e-003
2.154097e+003, -2.318045e-003
2.156026e+003, -1.514524e-003
2.157954e+003, -1.149737e-003
2.159883e+003, 2.574680e-003
2.161811e+003, 3.853769e-003
2.163740e+003, 2.576550e-003
2.165668e+003, 1.991024e-003
2.167597e+003, 4.092655e-003
2.169525e+003, 5.119395e-003
2.171454e+003, 4.192298e-003
2.173382e+003, 2.807301e-003
2.175311e+003, 2.738157e-003
2.177239e+003, 3.493325e-003
2.179167e+003, 2.843533e-003
2.181096e+003, 2.959934e-003
2.183024e+003, 3.092079e-003
2.184953e+003, 3.045279e-003
2.186881e+003, 2.737985e-003
2.188810e+003, 2.828195e-003
2.190738e+003, 2.901239e-003
2.192667e+003, 2.019667e-003
2.194595e+003, 2.318291e-003
2.196524e+003, 2.160569e-003
2.198452e+003, 2.396343e-003
2.200381e+003, 3.531144e-003
2.202309e+003, 2.377113e-003
2.204238e+003, 8.533940e-004
2.206166e+003, 1.676007e-003
2.208094e+003, 2.934221e-003
2.210023e+003, 2.157651e-003
2.211951e+003, 1.489266e-003
2.213880e+003, 1.904528e-003
2.215808e+003, 1.879456e-003
2.217737e+003, 1.508883e-003
2.219665e+003, 2.531867e-003
2.221594e+003, 3.709762e-003
2.223522e+003, 2.502724e-003
2.225451e+003, 1.523450e-003
2.227379e+003, 2.641944e-003
2.229308e+003, 2.597506e-003
2.231236e+003, 1.980785e-003
2.233165e+003, 1.859587e-003
2.235093e+003, 2.574514e-003
2.237021e+003, 3.134022e-003
2.238950e+003, 3.504139e-003
2.240878e+003, 5.354408e-003
2.242807e+003, 5.707855e-003
2.244735e+003, 3.981450e-003
2.246664e+003, 2.371595e-003
2.248592e+003, 2.958849e-003
2.250521e+003, 2.741608e-003
2.252449e+003, 2.103306e-003
2.254378e+003, 1.977510e-003
2.256306e+003, 3.310113e-003
2.258235e+003, 3.901250e-003
2.260163e+003, 2.290224e-003
2.262092e+003, 1.522568e-003
2.264020e+003, 2.527611e-003
2.265948e+003, 2.736673e-003
2.267877e+003, 2.289833e-003
2.269805e+003, 2.786077e-003
2.271734e+003, 3.009713e-003
2.273662e+003, 2.552882e-003
2.275591e+003, 2.147530e-003
2.277519e+003, 2.409144e-003
2.279448e+003, 2.361295e-003
2.281376e+003, 2.285177e-003
2.283305e+003, 3.105690e-003
2.285233e+003, 3.244021e-003
2.287162e+003, 2.979281e-003
2.289090e+003, 3.330700e-003
2.291019e+003, 3.539620e-003
2.292947e+003, 3.795103e-003
2.294875e+003, 3.328206e-003
2.296804e+003, 3.426509e-003
2.298732e+003, 3.639556e-003
2.300661e+003, 3.391864e-003
2.302589e+003, 3.361777e-003
2.304518e+003, 3.281394e-003
2.306446e+003, 3.062243e-003
2.308375e+003, 2.961930e-003
2.310303e+003, 3.052788e-003
2.312232e+003, 3.272677e-003
2.314160e+003, 3.558910e-003
2.316089e+003, 3.946906e-003
2.318017e+003, 4.258499e-003
2.319946e+003, 4.540198e-003
2.321874e+003, 5.090562e-003
2.323802e+003, 5.514293e-003
2.325731e+003, 4.568519e-003
2.327659e+003, 3.851783e-003
2.329588e+003, 3.760875e-003
2.331516e+003, 3.473918e-003
2.333445e+003, 3.289619e-003
2.335373e+003, 3.490442e-003
2.337302e+003, 3.873969e-003
2.339230e+003, 3.998603e-003
2.341159e+003, 4.105284e-003
2.343087e+003, 4.399247e-003
2.345016e+003, 5.001705e-003
2.346944e+003, 6.282601e-003
2.348873e+003, 6.434160e-003
2.350801e+003, 4.423270e-003
2.352729e+003, 3.346466e-003
2.354658e+003, 3.461530e-003
2.356586e+003, 3.864513e-003
2.358515e+003, 3.847234e-003
2.360443e+003, 3.530473e-003
2.362372e+003, 3.058686e-003
2.364300e+003, 2.657865e-003
2.366229e+003, 2.435832e-003
2.368157e+003, 2.893381e-003
2.370086e+003, 2.977505e-003
2.372014e+003, 2.889887e-003
2.373942e+003, 2.800488e-003
2.375871e+003, 2.884585e-003
2.377799e+003, 3.557922e-003
2.379728e+003, 3.738815e-003
2.381656e+003, 2.905002e-003
2.383585e+003, 2.087991e-003
2.385513e+003, 1.954838e-003
2.387442e+003, 2.616014e-003
2.389370e+003, 3.161136e-003
2.391299e+003, 2.766165e-003
2.393227e+003, 2.679740e-003
2.395156e+003, 2.637017e-003
2.397084e+003, 2.927718e-003
2.399012e+003, 3.807140e-003
2.400941e+003, 3.715488e-003
2.402869e+003, 3.067367e-003
2.404798e+003, 2.970181e-003
2.406726e+003, 2.999752e-003
2.408655e+003, 3.451022e-003
2.410583e+003, 4.072216e-003
2.412512e+003, 3.856580e-003
2.414440e+003, 4.674812e-003
2.416369e+003, 4.937534e-003
2.418297e+003, 3.644763e-003
2.420226e+003, 3.355520e-003
2.422154e+003, 3.861917e-003
2.424083e+003, 3.701757e-003
2.426011e+003, 3.788436e-003
2.427939e+003, 4.322910e-003
2.429868e+003, 3.981446e-003
2.431796e+003, 4.335195e-003
2.433725e+003, 4.531035e-003
2.435653e+003, 3.817739e-003
2.437582e+003, 3.981270e-003
2.439510e+003, 4.731775e-003
2.441439e+003, 4.984026e-003
2.443367e+003, 4.510521e-003
2.445296e+003, 4.128386e-003
2.447224e+003, 4.192938e-003
2.449153e+003, 3.954462e-003
2.451081e+003, 3.918447e-003
2.453010e+003, 3.684571e-003
2.454938e+003, 4.643708e-003
2.456866e+003, 5.798437e-003
2.458795e+003, 5.659647e-003
2.460723e+003, 4.743665e-003
2.462652e+003, 4.745250e-003
2.464580e+003, 4.869383e-003
2.466509e+003, 4.947986e-003
2.468437e+003, 5.084151e-003
2.470366e+003, 5.529359e-003
2.472294e+003, 5.242229e-003
2.474223e+003, 4.543744e-003
2.476151e+003, 4.209858e-003
2.478080e+003, 4.284027e-003
2.480008e+003, 4.250730e-003
2.481937e+003, 4.620258e-003
2.483865e+003, 4.539707e-003
2.485793e+003, 4.100235e-003
2.487722e+003, 4.229355e-003
2.489650e+003, 4.912928e-003
2.491579e+003, 4.117894e-003
2.493507e+003, 3.185316e-003
2.495436e+003, 3.687198e-003
2.497364e+003, 4.234774e-003
2.499293e+003, 4.604067e-003
2.501221e+003, 4.952318e-003
2.503150e+003, 4.451677e-003
2.505078e+003, 4.694244e-003
2.507007e+003, 5.284918e-003
2.508935e+003, 4.942365e-003
2.510864e+003, 4.974578e-003
2.512792e+003, 5.286317e-003
2.514720e+003, 4.777998e-003
2.516649e+003, 4.798244e-003
2.518577e+003, 5.604517e-003
2.520506e+003, 5.539638e-003
2.522434e+003, 5.357910e-003
2.524363e+003, 5.240472e-003
2.526291e+003, 4.931555e-003
2.528220e+003, 4.452082e-003
2.530148e+003, 4.680835e-003
2.532077e+003, 4.732595e-003
2.534005e+003, 5.120023e-003
2.535934e+003, 6.339779e-003
2.537862e+003, 6.095891e-003
2.539791e+003, 5.208733e-003
2.541719e+003, 5.114113e-003
2.543647e+003, 5.462070e-003
2.545576e+003, 5.699247e-003
2.547504e+003, 5.018142e-003
2.549433e+003, 5.157293e-003
2.551361e+003, 5.052910e-003
2.553290e+003, 4.899853e-003
2.555218e+003, 5.536001e-003
2.557147e+003, 5.734938e-003
2.559075e+003, 5.938465e-003
2.561004e+003, 5.681661e-003
2.562932e+003, 5.225031e-003
2.564861e+003, 5.498295e-003
2.566789e+003, 6.075045e-003
2.568718e+003, 6.355199e-003
2.570646e+003, 6.410511e-003
2.572574e+003, 6.391400e-003
2.574503e+003, 5.937291e-003
2.576431e+003, 5.212059e-003
2.578360e+003, 4.278827e-003
2.580288e+003, 3.783593e-003
2.582217e+003, 4.722129e-003
2.584145e+003, 5.760437e-003
2.586074e+003, 5.687222e-003
2.588002e+003, 5.202719e-003
2.589931e+003, 5.207716e-003
2.591859e+003, 5.185709e-003
2.593788e+003, 5.337648e-003
2.595716e+003, 5.340751e-003
2.597645e+003, 5.323356e-003
2.599573e+003, 6.161185e-003
2.601501e+003, 6.412182e-003
2.603430e+003, 5.566034e-003
2.605358e+003, 5.261360e-003
2.607287e+003, 5.163017e-003
2.609215e+003, 5.411861e-003
2.611144e+003, 6.299257e-003
2.613072e+003, 6.557988e-003
2.615001e+003, 6.399088e-003
2.616929e+003, 6.778126e-003
2.618858e+003, 6.515776e-003
2.620786e+003, 5.409152e-003
2.622715e+003, 4.587430e-003
2.624643e+003, 5.355771e-003
2.626572e+003, 6.075440e-003
2.628500e+003, 5.712216e-003
2.630428e+003, 6.100919e-003
2.632357e+003, 6.218074e-003
2.634285e+003, 6.016497e-003
2.636214e+003, 6.350846e-003
2.638142e+003, 6.570421e-003
2.640071e+003, 6.623437e-003
2.641999e+003, 6.040004e-003
2.643928e+003, 5.377240e-003
2.645856e+003, 5.730273e-003
2.647785e+003, 5.631381e-003
2.649713e+003, 5.727946e-003
2.651642e+003, 6.683386e-003
2.653570e+003, 6.798794e-003
2.655499e+003, 6.200002e-003
2.657427e+003, 6.061543e-003
2.659355e+003, 5.626937e-003
2.661284e+003, 5.228444e-003
2.663212e+003, 5.149619e-003
2.665141e+003, 5.297139e-003
2.667069e+003, 5.323519e-003
2.668998e+003, 5.085299e-003
2.670926e+003, 4.766888e-003
2.672855e+003, 5.111947e-003
2.674783e+003, 5.287005e-003
2.676712e+003, 5.006816e-003
2.678640e+003, 4.979135e-003
2.680569e+003, 5.034455e-003
2.682497e+003, 4.805290e-003
2.684426e+003, 4.955762e-003
2.686354e+003, 5.176466e-003
2.688282e+003, 4.678543e-003
2.690211e+003, 4.335154e-003
2.692139e+003, 4.760842e-003
2.694068e+003, 5.489400e-003
2.695996e+003, 5.233802e-003
2.697925e+003, 5.253887e-003
2.699853e+003, 5.524103e-003
2.701782e+003, 5.107276e-003
2.703710e+003, 5.190911e-003
2.705639e+003, 5.555121e-003
2.707567e+003, 5.728189e-003
2.709496e+003, 5.436761e-003
2.711424e+003, 5.472038e-003
2.713353e+003, 5.358334e-003
2.715281e+003, 4.790638e-003
2.717209e+003, 4.817633e-003
2.719138e+003, 5.376180e-003
2.721066e+003, 5.412598e-003
2.722995e+003, 5.391146e-003
2.724923e+003, 5.562315e-003
2.726852e+003, 5.097661e-003
2.728780e+003, 4.934466e-003
2.730709e+003, 5.183019e-003
2.732637e+003, 5.228146e-003
2.734566e+003, 5.355702e-003
2.736494e+003, 5.533454e-003
2.738423e+003, 5.815874e-003
2.740351e+003, 6.056952e-003
2.742280e+003, 6.208257e-003
2.744208e+003, 5.823588e-003
2.746136e+003, 5.585581e-003
2.748065e+003, 5.956034e-003
2.749993e+003, 5.859851e-003
2.751922e+003, 5.224732e-003
2.753850e+003, 5.397765e-003
2.755779e+003, 5.995598e-003
2.757707e+003, 5.812558e-003
2.759636e+003, 5.202360e-003
2.761564e+003, 5.294038e-003
2.763493e+003, 5.220205e-003
2.765421e+003, 5.362265e-003
2.767350e+003, 5.558423e-003
2.769278e+003, 5.366699e-003
2.771207e+003, 5.613859e-003
2.773135e+003, 5.732794e-003
2.775063e+003, 5.309747e-003
2.776992e+003, 5.654418e-003
2.778920e+003, 6.047870e-003
2.780849e+003, 5.689856e-003
2.782777e+003, 5.496493e-003
2.784706e+003, 5.829576e-003
2.786634e+003, 6.150400e-003
2.788563e+003, 5.920095e-003
2.790491e+003, 5.920285e-003
2.792420e+003, 6.051017e-003
2.794348e+003, 6.334193e-003
2.796277e+003, 6.193744e-003
2.798205e+003, 6.162697e-003
2.800134e+003, 5.757731e-003
2.802062e+003, 5.629798e-003
2.803990e+003, 6.136682e-003
2.805919e+003, 5.957583e-003
2.807847e+003, 5.874733e-003
2.809776e+003, 6.156543e-003
2.811704e+003, 6.145974e-003
2.813633e+003, 5.976110e-003
2.815561e+003, 6.054550e-003
2.817490e+003, 6.345342e-003
2.819418e+003, 6.566998e-003
2.821347e+003, 6.163097e-003
2.823275e+003, 5.491693e-003
2.825204e+003, 5.183770e-003
2.827132e+003, 5.959119e-003
2.829061e+003, 5.821334e-003
2.830989e+003, 5.986663e-003
2.832917e+003, 5.890006e-003
2.834846e+003, 5.445599e-003
2.836774e+003, 6.141998e-003
2.838703e+003, 6.308296e-003
2.840631e+003, 5.539716e-003
2.842560e+003, 5.778128e-003
2.844488e+003, 5.561909e-003
2.846417e+003, 5.429640e-003
2.848345e+003, 5.441470e-003
2.850274e+003, 5.240563e-003
2.852202e+003, 4.449620e-003
2.854131e+003, 4.654421e-003
2.856059e+003, 4.754267e-003
2.857988e+003, 4.944948e-003
2.859916e+003, 5.115739e-003
2.861844e+003, 5.284874e-003
2.863773e+003, 4.992395e-003
2.865701e+003, 4.690533e-003
2.867630e+003, 4.845915e-003
2.869558e+003, 5.397562e-003
2.871487e+003, 6.139678e-003
2.873415e+003, 6.253548e-003
2.875344e+003, 5.883608e-003
2.877272e+003, 5.548229e-003
2.879201e+003, 5.666365e-003
2.881129e+003, 5.856501e-003
2.883058e+003, 6.085022e-003
2.884986e+003, 6.105997e-003
2.886915e+003, 6.239079e-003
2.888843e+003, 5.851115e-003
2.890771e+003, 6.157123e-003
2.892700e+003, 6.607839e-003
2.894628e+003, 5.985500e-003
2.896557e+003, 5.246885e-003
2.898485e+003, 5.464781e-003
2.900414e+003, 5.829067e-003
2.902342e+003, 5.379235e-003
2.904271e+003, 5.694226e-003
2.906199e+003, 6.051893e-003
2.908128e+003, 5.890838e-003
2.910056e+003, 5.672053e-003
2.911985e+003, 6.177469e-003
2.913913e+003, 6.325354e-003
2.915842e+003, 5.899081e-003
2.917770e+003, 5.834702e-003
2.919698e+003, 5.690062e-003
2.921627e+003, 4.892226e-003
2.923555e+003, 3.498254e-003
2.925484e+003, 2.951301e-003
2.927412e+003, 4.038030e-003
2.929341e+003, 5.814636e-003
2.931269e+003, 6.215633e-003
2.933198e+003, 5.876477e-003
2.935126e+003, 6.445379e-003
2.937055e+003, 6.562685e-003
2.938983e+003, 6.882997e-003
2.940912e+003, 6.444368e-003
2.942840e+003, 6.248587e-003
2.944769e+003, 6.962760e-003
2.946697e+003, 6.887215e-003
2.948625e+003, 6.655016e-003
2.950554e+003, 6.058863e-003
2.952482e+003, 5.874706e-003
2.954411e+003, 5.944530e-003
2.956339e+003, 5.895269e-003
2.958268e+003, 6.409686e-003
2.960196e+003, 6.864521e-003
2.962125e+003, 6.769534e-003
2.964053e+003, 7.018417e-003
2.965982e+003, 6.748708e-003
2.967910e+003, 6.343504e-003
2.969839e+003, 6.474108e-003
2.971767e+003, 6.708913e-003
2.973696e+003, 7.144277e-003
2.975624e+003, 6.828227e-003
2.977552e+003, 6.294111e-003
2.979481e+003, 6.575888e-003
2.981409e+003, 6.820941e-003
2.983338e+003, 7.748649e-003
2.985266e+003, 8.381998e-003
2.987195e+003, 7.910718e-003
2.989123e+003, 7.701699e-003
2.991052e+003, 7.182576e-003
2.992980e+003, 6.900643e-003
2.994909e+003, 7.416167e-003
2.996837e+003, 7.778606e-003
2.998766e+003, 7.878073e-003
3.000694e+003, 7.566287e-003
3.002623e+003, 7.145028e-003
3.004551e+003, 6.140800e-003
3.006479e+003, 6.117216e-003
3.008408e+003, 6.641314e-003
3.010336e+003, 7.185242e-003
3.012265e+003, 7.312086e-003
3.014193e+003, 6.953855e-003
3.016122e+003, 6.924848e-003
3.018050e+003, 7.795124e-003
3.019979e+003, 8.655696e-003
3.021907e+003, 8.349917e-003
3.023836e+003, 7.082161e-003
3.025764e+003, 6.726373e-003
3.027693e+003, 6.946059e-003
3.029621e+003, 6.934942e-003
3.031550e+003, 7.198894e-003
3.033478e+003, 7.697861e-003
3.035406e+003, 7.565177e-003
3.037335e+003, 7.798046e-003
3.039263e+003, 8.509348e-003
3.041192e+003, 8.270349e-003
3.043120e+003, 8.522174e-003
3.045049e+003, 8.129465e-003
3.046977e+003, 7.451453e-003
3.048906e+003, 8.088329e-003
3.050834e+003, 7.305458e-003
3.052763e+003, 6.009644e-003
3.054691e+003, 5.956707e-003
3.056620e+003, 6.648466e-003
3.058548e+003, 7.726499e-003
3.060477e+003, 7.918854e-003
3.062405e+003, 8.200701e-003
3.064333e+003, 8.101152e-003
3.066262e+003, 8.219819e-003
3.068190e+003, 8.036478e-003
3.070119e+003, 6.982722e-003
3.072047e+003, 7.543455e-003
3.073976e+003, 8.375061e-003
3.075904e+003, 8.769477e-003
3.077833e+003, 8.647589e-003
3.079761e+003, 8.304565e-003
3.081690e+003, 7.586123e-003
3.083618e+003, 6.700498e-003
3.085547e+003, 6.639443e-003
3.087475e+003, 6.705997e-003
3.089404e+003, 7.216644e-003
3.091332e+003, 8.914496e-003
3.093260e+003, 9.723718e-003
3.095189e+003, 9.247348e-003
3.097117e+003, 8.238600e-003
3.099046e+003, 7.840654e-003
3.100974e+003, 8.899888e-003
3.102903e+003, 9.311798e-003
3.104831e+003, 8.752418e-003
3.106760e+003, 8.476995e-003
3.108688e+003, 8.308339e-003
3.110617e+003, 8.617480e-003
3.112545e+003, 9.302097e-003
3.114474e+003, 9.096424e-003
3.116402e+003, 8.818078e-003
3.118331e+003, 9.215976e-003
3.120259e+003, 9.819400e-003
3.122188e+003, 9.920088e-003
3.124116e+003, 9.061323e-003
3.126044e+003, 8.935748e-003
3.127973e+003, 9.684896e-003
3.129901e+003, 9.736719e-003
3.131830e+003, 9.122451e-003
3.133758e+003, 8.549077e-003
3.135687e+003, 7.770523e-003
3.137615e+003, 7.860831e-003
3.139544e+003, 9.289130e-003
3.141472e+003, 1.018132e-002
3.143401e+003, 9.907844e-003
3.145329e+003, 9.681942e-003
3.147258e+003, 1.023190e-002
3.149186e+003, 1.037768e-002
3.151115e+003, 1.083018e-002
3.153043e+003, 1.094927e-002
3.154971e+003, 9.248463e-003
3.156900e+003, 1.036284e-002
3.158828e+003, 1.220031e-002
3.160757e+003, 1.039227e-002
3.162685e+003, 8.780572e-003
3.164614e+003, 9.355898e-003
3.166542e+003, 9.413044e-003
3.168471e+003, 9.544781e-003
3.170399e+003, 9.880660e-003
3.172328e+003, 9.842522e-003
3.174256e+003, 8.819355e-003
3.176185e+003, 8.616817e-003
3.178113e+003, 1.033813e-002
3.180042e+003, 1.061323e-002
3.181970e+003, 9.341707e-003
3.183898e+003, 9.485127e-003
3.185827e+003, 1.001390e-002
3.187755e+003, 1.041259e-002
3.189684e+003, 1.047874e-002
3.191612e+003, 1.036286e-002
3.193541e+003, 1.055708e-002
3.195469e+003, 1.069992e-002
3.197398e+003, 1.065481e-002
3.199326e+003, 1.195942e-002
3.201255e+003, 1.269583e-002
3.203183e+003, 1.157609e-002
3.205112e+003, 1.099335e-002
3.207040e+003, 1.047686e-002
3.208969e+003, 9.836891e-003
3.210897e+003, 1.065315e-002
3.212825e+003, 1.090146e-002
3.214754e+003, 1.027487e-002
3.216682e+003, 1.016325e-002
3.218611e+003, 1.038948e-002
3.220539e+003, 1.064341e-002
3.222468e+003, 1.214898e-002
3.224396e+003, 1.245943e-002
3.226325e+003, 1.048276e-002
3.228253e+003, 9.597956e-003
3.230182e+003, 1.055320e-002
3.232110e+003, 1.034954e-002
3.234039e+003, 1.028997e-002
3.235967e+003, 1.139499e-002
3.237896e+003, 1.187797e-002
3.239824e+003, 1.053040e-002
3.241752e+003, 1.016617e-002
3.243681e+003, 1.103354e-002
3.245609e+003, 1.035754e-002
3.247538e+003, 1.005935e-002
3.249466e+003, 1.026703e-002
3.251395e+003, 1.025728e-002
3.253323e+003, 1.032449e-002
3.255252e+003, 1.201462e-002
3.257180e+003, 1.174693e-002
3.259109e+003, 1.206272e-002
3.261037e+003, 1.289864e-002
3.262966e+003, 1.335181e-002
3.264894e+003, 1.300451e-002
3.266823e+003, 1.120912e-002
3.268751e+003, 1.038108e-002
3.270679e+003, 1.144007e-002
3.272608e+003, 1.149382e-002
3.274536e+003, 9.806979e-003
3.276465e+003, 1.070033e-002
3.278393e+003, 1.273173e-002
3.280322e+003, 1.233406e-002
3.282250e+003, 1.138197e-002
3.284179e+003, 1.111391e-002
3.286107e+003, 1.168315e-002
3.288036e+003, 1.241306e-002
3.289964e+003, 1.056067e-002
3.291893e+003, 1.006863e-002
3.293821e+003, 1.032063e-002
3.295750e+003, 1.037276e-002
3.297678e+003, 1.004439e-002
3.299606e+003, 1.090676e-002
3.301535e+003, 1.244139e-002
3.303463e+003, 1.302964e-002
3.305392e+003, 1.276584e-002
3.307320e+003, 1.216200e-002
3.309249e+003, 1.190637e-002
3.311177e+003, 1.281032e-002
3.313106e+003, 1.283517e-002
3.315034e+003, 1.265303e-002
3.316963e+003, 1.281983e-002
3.318891e+003, 1.219068e-002
3.320820e+003, 1.116070e-002
3.322748e+003, 1.068762e-002
3.324677e+003, 1.092279e-002
3.326605e+003, 1.130367e-002
3.328533e+003, 1.197519e-002
3.330462e+003, 1.212255e-002
3.332390e+003, 1.151764e-002
3.334319e+003, 1.160215e-002
3.336247e+003, 1.191477e-002
3.338176e+003, 1.174011e-002
3.340104e+003, 1.123476e-002
3.342033e+003, 1.154895e-002
3.343961e+003, 1.175119e-002
3.345890e+003, 1.153255e-002
3.347818e+003, 1.203773e-002
3.349747e+003, 1.112872e-002
3.351675e+003, 1.102778e-002
3.353604e+003, 1.164541e-002
3.355532e+003, 1.196857e-002
3.357460e+003, 1.237636e-002
3.359389e+003, 1.268710e-002
3.361317e+003, 1.250089e-002
3.363246e+003, 1.248690e-002
3.365174e+003, 1.185198e-002
3.367103e+003, 1.263298e-002
3.369031e+003, 1.394776e-002
3.370960e+003, 1.319353e-002
3.372888e+003, 1.276215e-002
3.374817e+003, 1.263466e-002
3.376745e+003, 1.190468e-002
3.378674e+003, 1.231773e-002
3.380602e+003, 1.390999e-002
3.382531e+003, 1.391301e-002
3.384459e+003, 1.271193e-002
3.386387e+003, 1.195554e-002
3.388316e+003, 1.196332e-002
3.390244e+003, 1.128050e-002
3.392173e+003, 1.012877e-002
3.394101e+003, 1.160341e-002
3.396030e+003, 1.341357e-002
3.397958e+003, 1.265473e-002
3.399887e+003, 1.110870e-002
3.401815e+003, 1.145698e-002
3.403744e+003, 1.222051e-002
3.405672e+003, 1.254992e-002
3.407601e+003, 1.181378e-002
3.409529e+003, 1.147042e-002
3.411458e+003, 1.244657e-002
3.413386e+003, 1.311968e-002
3.415314e+003, 1.338721e-002
3.417243e+003, 1.285808e-002
3.419171e+003, 1.235993e-002
3.421100e+003, 1.342743e-002
3.423028e+003, 1.346645e-002
3.424957e+003, 1.248094e-002
3.426885e+003, 1.195429e-002
3.428814e+003, 1.357269e-002
3.430742e+003, 1.409040e-002
3.432671e+003, 1.365582e-002
3.434599e+003, 1.412751e-002
3.436528e+003, 1.419245e-002
3.438456e+003, 1.316322e-002
3.440385e+003, 1.263861e-002
3.442313e+003, 1.309419e-002
3.444241e+003, 1.417821e-002
3.446170e+003, 1.415918e-002
3.448098e+003, 1.320721e-002
3.450027e+003, 1.292359e-002
3.451955e+003, 1.182702e-002
3.453884e+003, 1.243178e-002
3.455812e+003, 1.292963e-002
3.457741e+003, 1.180206e-002
3.459669e+003, 1.174429e-002
3.461598e+003, 1.251541e-002
3.463526e+003, 1.363721e-002
3.465455e+003, 1.372946e-002
3.467383e+003, 1.321291e-002
3.469312e+003, 1.254801e-002
3.471240e+003, 1.226574e-002
3.473168e+003, 1.303737e-002
3.475097e+003, 1.229548e-002
3.477025e+003, 1.190834e-002
3.478954e+003, 1.357216e-002
3.480882e+003, 1.391614e-002
3.482811e+003, 1.166798e-002
3.484739e+003, 1.172236e-002
3.486668e+003, 1.101357e-002
3.488596e+003, 1.044395e-002
3.490525e+003, 1.178863e-002
3.492453e+003, 1.187253e-002
3.494382e+003, 1.253153e-002
3.496310e+003, 1.306760e-002
3.498239e+003, 1.231425e-002
3.500167e+003, 1.219597e-002
3.502095e+003, 1.180228e-002
3.504024e+003, 1.071608e-002
3.505952e+003, 1.074792e-002
3.507881e+003, 1.192577e-002
3.509809e+003, 1.294694e-002
3.511738e+003, 1.246576e-002
3.513666e+003, 1.182266e-002
3.515595e+003, 1.185425e-002
3.517523e+003, 1.285071e-002
3.519452e+003, 1.242412e-002
3.521380e+003, 1.153714e-002
3.523309e+003, 1.272839e-002
3.525237e+003, 1.271993e-002
3.527166e+003, 1.214858e-002
3.529094e+003, 1.045800e-002
3.531022e+003, 1.018703e-002
3.532951e+003, 1.121952e-002
3.534879e+003, 1.039322e-002
3.536808e+003, 1.057756e-002
3.538736e+003, 1.255726e-002
3.540665e+003, 1.276286e-002
3.542593e+003, 1.194186e-002
3.544522e+003, 1.152678e-002
3.546450e+003, 1.160198e-002
3.548379e+003, 1.186207e-002
3.550307e+003, 1.276109e-002
3.552236e+003, 1.380974e-002
3.554164e+003, 1.364957e-002
3.556093e+003, 1.304903e-002
3.558021e+003, 1.133571e-002
3.559949e+003, 1.129996e-002
3.561878e+003, 1.216925e-002
3.563806e+003, 1.268689e-002
3.565735e+003, 1.168797e-002
3.567663e+003, 1.199581e-002
3.569592e+003, 1.277850e-002
3.571520e+003, 1.392934e-002
3.573449e+003, 1.396054e-002
3.575377e+003, 1.284296e-002
3.577306e+003, 1.224191e-002
3.579234e+003, 1.207933e-002
3.581163e+003, 1.014601e-002
3.583091e+003, 9.516411e-003
3.585020e+003, 1.013544e-002
3.586948e+003, 1.091237e-002
3.588876e+003, 1.230625e-002
3.590805e+003, 1.104340e-002
3.592733e+003, 9.397171e-003
3.594662e+003, 1.023891e-002
3.596590e+003, 1.124349e-002
3.598519e+003, 1.053149e-002
3.600447e+003, 1.139024e-002
3.602376e+003, 1.195915e-002
3.604304e+003, 1.348401e-002
3.606233e+003, 1.378159e-002
3.608161e+003, 1.183446e-002
3.610090e+003, 1.008884e-002
3.612018e+003, 9.441461e-003
3.613947e+003, 9.248124e-003
3.615875e+003, 8.922325e-003
3.617803e+003, 1.124526e-002
3.619732e+003, 1.172081e-002
3.621660e+003, 1.054914e-002
3.623589e+003, 1.027423e-002
3.625517e+003, 1.020201e-002
3.627446e+003, 1.260511e-002
3.629374e+003, 1.299419e-002
3.631303e+003, 1.271283e-002
3.633231e+003, 1.106275e-002
3.635160e+003, 1.097771e-002
3.637088e+003, 9.862161e-003
3.639017e+003, 9.181348e-003
3.640945e+003, 8.666040e-003
3.642874e+003, 8.919359e-003
3.644802e+003, 9.280214e-003
3.646730e+003, 9.932101e-003
3.648659e+003, 9.495039e-003
3.650587e+003, 7.822512e-003
3.652516e+003, 9.631661e-003
3.654444e+003, 1.202527e-002
3.656373e+003, 1.131823e-002
3.658301e+003, 1.087143e-002
3.660230e+003, 8.434425e-003
3.662158e+003, 8.091950e-003
3.664087e+003, 7.462809e-003
3.666015e+003, 7.990573e-003
3.667944e+003, 1.123155e-002
3.669872e+003, 1.119237e-002
3.671801e+003, 8.503350e-003
3.673729e+003, 7.708244e-003
3.675657e+003, 8.696051e-003
3.677586e+003, 9.673348e-003
3.679514e+003, 8.548345e-003
3.681443e+003, 9.381684e-003
3.683371e+003, 1.259659e-002
3.685300e+003, 1.227499e-002
3.687228e+003, 1.128699e-002
3.689157e+003, 1.001372e-002
3.691085e+003, 8.039894e-003
3.693014e+003, 7.754313e-003
3.694942e+003, 7.542720e-003
3.696871e+003, 9.528889e-003
3.698799e+003, 1.025405e-002
3.700728e+003, 9.839105e-003
3.702656e+003, 9.126513e-003
3.704584e+003, 8.271809e-003
3.706513e+003, 8.493049e-003
3.708441e+003, 8.621714e-003
3.710370e+003, 7.079488e-003
3.712298e+003, 6.594105e-003
3.714227e+003, 7.732857e-003
3.716155e+003, 8.259272e-003
3.718084e+003, 6.517900e-003
3.720012e+003, 5.933739e-003
3.721941e+003, 7.150900e-003
3.723869e+003, 8.468917e-003
3.725798e+003, 8.709865e-003
3.727726e+003, 7.813898e-003
3.729655e+003, 6.278592e-003
3.731583e+003, 5.763850e-003
3.733511e+003, 7.266784e-003
3.735440e+003, 7.543297e-003
3.737368e+003, 8.289206e-003
3.739297e+003, 8.313685e-003
3.741225e+003, 9.441989e-003
3.743154e+003, 1.007632e-002
3.745082e+003, 7.023680e-003
3.747011e+003, 8.179776e-003
3.748939e+003, 8.968944e-003
3.750868e+003, 8.150821e-003
3.752796e+003, 6.448634e-003
3.754725e+003, 8.151110e-003
3.756653e+003, 9.723484e-003
3.758582e+003, 1.066334e-002
3.760510e+003, 8.739948e-003
3.762438e+003, 7.864442e-003
3.764367e+003, 8.367146e-003
3.766295e+003, 6.982595e-003
3.768224e+003, 7.201853e-003
3.770152e+003, 7.545890e-003
3.772081e+003, 8.686300e-003
3.774009e+003, 9.965798e-003
3.775938e+003, 8.370974e-003
3.777866e+003, 9.117322e-003
3.779795e+003, 8.268177e-003
3.781723e+003, 6.757662e-003
3.783652e+003, 6.880736e-003
3.785580e+003, 5.110196e-003
3.787509e+003, 6.159022e-003
3.789437e+003, 8.477950e-003
3.791365e+003, 9.485818e-003
3.793294e+003, 9.671149e-003
3.795222e+003, 9.568391e-003
3.797151e+003, 1.022384e-002
3.799079e+003, 9.524247e-003
3.801008e+003, 8.197886e-003
3.802936e+003, 9.057015e-003
3.804865e+003, 8.892054e-003
3.806793e+003, 7.875483e-003
3.808722e+003, 7.606602e-003
3.810650e+003, 8.934079e-003
3.812579e+003, 1.097672e-002
3.814507e+003, 1.113675e-002
3.816436e+003, 9.610621e-003
3.818364e+003, 1.061811e-002
3.820292e+003, 8.903809e-003
3.822221e+003, 7.215393e-003
3.824149e+003, 8.251735e-003
3.826078e+003, 8.640649e-003
3.828006e+003, 7.930350e-003
3.829935e+003, 7.818793e-003
3.831863e+003, 7.443124e-003
3.833792e+003, 7.322656e-003
3.835720e+003, 6.905051e-003
3.837649e+003, 6.050258e-003
3.839577e+003, 5.957915e-003
3.841506e+003, 7.860311e-003
3.843434e+003, 8.902190e-003
3.845363e+003, 1.009678e-002
3.847291e+003, 1.106016e-002
3.849219e+003, 9.275034e-003
3.851148e+003, 8.015954e-003
3.853076e+003, 7.700881e-003
3.855005e+003, 7.423139e-003
3.856933e+003, 8.304251e-003
3.858862e+003, 9.865319e-003
3.860790e+003, 9.915726e-003
3.862719e+003, 8.531538e-003
3.864647e+003, 9.725273e-003
3.866576e+003, 1.005068e-002
3.868504e+003, 8.999737e-003
3.870433e+003, 7.680898e-003
3.872361e+003, 9.197719e-003
3.874290e+003, 9.821580e-003
3.876218e+003, 8.777102e-003
3.878146e+003, 8.595389e-003
3.880075e+003, 9.135464e-003
3.882003e+003, 8.858813e-003
3.883932e+003, 8.677772e-003
3.885860e+003, 9.373778e-003
3.887789e+003, 1.036734e-002
3.889717e+003, 9.282758e-003
3.891646e+003, 9.431094e-003
3.893574e+003, 9.453479e-003
3.895503e+003, 8.059012e-003
3.897431e+003, 8.771392e-003
3.899360e+003, 1.012182e-002
3.901288e+003, 1.245295e-002
3.903217e+003, 1.170518e-002
3.905145e+003, 9.174434e-003
3.907073e+003, 9.171329e-003
3.909002e+003, 9.477678e-003
3.910930e+003, 8.513493e-003
3.912859e+003, 8.790972e-003
3.914787e+003, 8.127911e-003
3.916716e+003, 8.579139e-003
3.918644e+003, 8.725025e-003
3.920573e+003, 7.972072e-003
3.922501e+003, 6.678985e-003
3.924430e+003, 7.980437e-003
3.926358e+003, 8.297781e-003
3.928287e+003, 8.323736e-003
3.930215e+003, 9.825919e-003
3.932144e+003, 1.087283e-002
3.934072e+003, 1.117233e-002
3.936000e+003, 1.155801e-002
3.937929e+003, 9.495042e-003
3.939857e+003, 7.186577e-003
3.941786e+003, 6.235735e-003
3.943714e+003, 5.629128e-003
3.945643e+003, 6.354092e-003
3.947571e+003, 8.675107e-003
3.949500e+003, 9.227559e-003
3.951428e+003, 1.178996e-002
3.953357e+003, 1.138756e-002
3.955285e+003, 9.165942e-003
3.957214e+003, 8.631947e-003
3.959142e+003, 8.186751e-003
3.961071e+003, 7.614506e-003
3.962999e+003, 8.593725e-003
3.964927e+003, 9.971930e-003
3.966856e+003, 1.116207e-002
3.968784e+003, 1.300418e-002
3.970713e+003, 1.122744e-002
3.972641e+003, 1.062136e-002
3.974570e+003, 1.064552e-002
3.976498e+003, 9.122098e-003
3.978427e+003, 9.738633e-003
3.980355e+003, 9.572227e-003
3.982284e+003, 9.493737e-003
3.984212e+003, 8.693893e-003
3.986141e+003, 9.208159e-003
3.988069e+003, 8.992691e-003
3.989998e+003, 7.801686e-003
3.991926e+003, 9.909377e-003
3.993854e+003, 1.142516e-002
3.995783e+003, 1.078501e-002
3.997711e+003, 9.114222e-003
3.999640e+003, 9.119811e-003
##END=



