##NAMES=Cordierite
##RRUFFID=R040084
##IDEAL CHEMISTRY=Mg_2_Al_3_(AlSi_5_)O_18_
##LOCALITY=Norway
##OWNER=RRUFF
##SOURCE=University of Arizona Mineral Museum
##DESCRIPTION=Purple coarsely crystalline massive
##STATUS=The identification of this mineral has been confirmed by X-ray diffraction and chemical analysis
##URL=rruff.info/R040084
##MEASURED CHEMISTRY=(Mg_1.88_Fe^2+^_0.11_Ca_0.01_)_Σ=2_(Al_3.95_Fe^3+^_0.05_)_Σ=4_(Si_4.96_Al_0.04_)_Σ=5_O_18_·0.90H_2_O·Na_0.04_ ; H_2_O estimated by difference and verified by Raman spectroscopy
3.991926e+002, 0.000000e+000
4.011211e+002, 1.496194e-001
4.030496e+002, 1.503624e-001
4.049780e+002, 1.508454e-001
4.069065e+002, 1.500811e-001
4.088350e+002, 1.472967e-001
4.107634e+002, 1.462081e-001
4.126919e+002, 1.475567e-001
4.146204e+002, 1.474931e-001
4.165488e+002, 1.482902e-001
4.184773e+002, 1.495525e-001
4.204058e+002, 1.482202e-001
4.223342e+002, 1.458067e-001
4.242627e+002, 1.408418e-001
4.261912e+002, 1.319960e-001
4.281196e+002, 1.232948e-001
4.300481e+002, 1.205370e-001
4.319766e+002, 1.267083e-001
4.339050e+002, 1.359068e-001
4.358335e+002, 1.416604e-001
4.377620e+002, 1.446943e-001
4.396904e+002, 1.478867e-001
4.416189e+002, 1.473786e-001
4.435474e+002, 1.422933e-001
4.454758e+002, 1.374432e-001
4.474043e+002, 1.310500e-001
4.493328e+002, 1.237193e-001
4.512612e+002, 1.165783e-001
4.531897e+002, 1.103105e-001
4.551182e+002, 1.043352e-001
4.570466e+002, 9.968537e-002
4.589751e+002, 9.716211e-002
4.609036e+002, 9.619343e-002
4.628320e+002, 9.598856e-002
4.647605e+002, 9.615450e-002
4.666890e+002, 9.720564e-002
4.686174e+002, 9.935831e-002
4.705459e+002, 1.012223e-001
4.724744e+002, 1.040802e-001
4.744028e+002, 1.089279e-001
4.763313e+002, 1.135859e-001
4.782598e+002, 1.166192e-001
4.801882e+002, 1.183361e-001
4.821167e+002, 1.164929e-001
4.840452e+002, 1.122141e-001
4.859736e+002, 1.056840e-001
4.879021e+002, 9.699395e-002
4.898306e+002, 8.693890e-002
4.917590e+002, 7.727166e-002
4.936875e+002, 6.936726e-002
4.956160e+002, 6.263234e-002
4.975444e+002, 5.639414e-002
4.994729e+002, 4.994281e-002
5.014014e+002, 4.454436e-002
5.033298e+002, 3.994187e-002
5.052583e+002, 3.494637e-002
5.071868e+002, 2.979144e-002
5.091152e+002, 2.631183e-002
5.110437e+002, 2.362401e-002
5.129722e+002, 2.160511e-002
5.149006e+002, 2.039698e-002
5.168291e+002, 1.949512e-002
5.187576e+002, 1.891179e-002
5.206860e+002, 1.878468e-002
5.226145e+002, 1.850027e-002
5.245430e+002, 1.880486e-002
5.264714e+002, 1.877510e-002
5.283999e+002, 1.825981e-002
5.303284e+002, 1.816863e-002
5.322568e+002, 1.847943e-002
5.341853e+002, 1.809995e-002
5.361138e+002, 1.794893e-002
5.380422e+002, 1.807739e-002
5.399707e+002, 1.870266e-002
5.418992e+002, 1.990235e-002
5.438276e+002, 2.111324e-002
5.457561e+002, 2.226596e-002
5.476846e+002, 2.390841e-002
5.496130e+002, 2.578474e-002
5.515415e+002, 2.853376e-002
5.534700e+002, 3.248044e-002
5.553984e+002, 3.718798e-002
5.573269e+002, 4.292969e-002
5.592554e+002, 5.014497e-002
5.611838e+002, 5.839328e-002
5.631123e+002, 6.697025e-002
5.650408e+002, 7.294460e-002
5.669692e+002, 7.440612e-002
5.688977e+002, 7.292154e-002
5.708262e+002, 7.223147e-002
5.727546e+002, 7.356675e-002
5.746831e+002, 7.651047e-002
5.766116e+002, 8.129489e-002
5.785400e+002, 8.583061e-002
5.804685e+002, 8.633180e-002
5.823970e+002, 8.179827e-002
5.843254e+002, 7.431872e-002
5.862539e+002, 6.519151e-002
5.881824e+002, 5.659360e-002
5.901108e+002, 5.092307e-002
5.920393e+002, 4.784619e-002
5.939678e+002, 4.628802e-002
5.958962e+002, 4.542851e-002
5.978247e+002, 4.469210e-002
5.997532e+002, 4.419266e-002
6.016816e+002, 4.492977e-002
6.036101e+002, 4.665295e-002
6.055386e+002, 4.918998e-002
6.074670e+002, 5.225665e-002
6.093955e+002, 5.567495e-002
6.113240e+002, 5.961712e-002
6.132524e+002, 6.347680e-002
6.151809e+002, 6.596659e-002
6.171094e+002, 6.666297e-002
6.190378e+002, 6.561346e-002
6.209663e+002, 6.286370e-002
6.228948e+002, 5.847276e-002
6.248232e+002, 5.359392e-002
6.267517e+002, 4.847438e-002
6.286802e+002, 4.381097e-002
6.306086e+002, 3.976633e-002
6.325371e+002, 3.646271e-002
6.344656e+002, 3.413942e-002
6.363940e+002, 3.219825e-002
6.383225e+002, 3.080049e-002
6.402510e+002, 3.015789e-002
6.421794e+002, 2.990618e-002
6.441079e+002, 3.059137e-002
6.460364e+002, 3.144207e-002
6.479648e+002, 3.202608e-002
6.498933e+002, 3.253018e-002
6.518218e+002, 3.322709e-002
6.537502e+002, 3.407097e-002
6.556787e+002, 3.476149e-002
6.576072e+002, 3.538301e-002
6.595356e+002, 3.625308e-002
6.614641e+002, 3.753750e-002
6.633926e+002, 3.949942e-002
6.653210e+002, 4.236437e-002
6.672495e+002, 4.609571e-002
6.691780e+002, 5.061344e-002
6.711064e+002, 5.536738e-002
6.730349e+002, 5.919248e-002
6.749634e+002, 6.044594e-002
6.768918e+002, 5.824443e-002
6.788203e+002, 5.365334e-002
6.807488e+002, 4.820237e-002
6.826772e+002, 4.353894e-002
6.846057e+002, 4.050478e-002
6.865342e+002, 3.894083e-002
6.884626e+002, 3.804499e-002
6.903911e+002, 3.774374e-002
6.923196e+002, 3.790602e-002
6.942480e+002, 3.868156e-002
6.961765e+002, 4.010223e-002
6.981050e+002, 4.216287e-002
7.000334e+002, 4.436970e-002
7.019619e+002, 4.649428e-002
7.038904e+002, 4.774074e-002
7.058188e+002, 4.769494e-002
7.077473e+002, 4.702897e-002
7.096758e+002, 4.664494e-002
7.116042e+002, 4.680033e-002
7.135327e+002, 4.760087e-002
7.154612e+002, 4.888112e-002
7.173896e+002, 5.064490e-002
7.193181e+002, 5.294396e-002
7.212466e+002, 5.553169e-002
7.231750e+002, 5.838297e-002
7.251035e+002, 6.166895e-002
7.270320e+002, 6.560222e-002
7.289604e+002, 7.037253e-002
7.308889e+002, 7.524499e-002
7.328174e+002, 8.037299e-002
7.347458e+002, 8.606155e-002
7.366743e+002, 9.248742e-002
7.386028e+002, 9.931507e-002
7.405313e+002, 1.061925e-001
7.424597e+002, 1.131297e-001
7.443882e+002, 1.195610e-001
7.463167e+002, 1.240054e-001
7.482451e+002, 1.259234e-001
7.501736e+002, 1.262536e-001
7.521021e+002, 1.273365e-001
7.540305e+002, 1.313560e-001
7.559590e+002, 1.389095e-001
7.578875e+002, 1.484444e-001
7.598159e+002, 1.580014e-001
7.617444e+002, 1.662443e-001
7.636729e+002, 1.716128e-001
7.656013e+002, 1.731749e-001
7.675298e+002, 1.706236e-001
7.694583e+002, 1.642039e-001
7.713867e+002, 1.550131e-001
7.733152e+002, 1.440021e-001
7.752437e+002, 1.327045e-001
7.771721e+002, 1.217674e-001
7.791006e+002, 1.112652e-001
7.810291e+002, 1.008653e-001
7.829575e+002, 9.103344e-002
7.848860e+002, 8.177246e-002
7.868145e+002, 7.334293e-002
7.887429e+002, 6.564628e-002
7.906714e+002, 5.904619e-002
7.925999e+002, 5.333558e-002
7.945283e+002, 4.894154e-002
7.964568e+002, 4.564711e-002
7.983853e+002, 4.293689e-002
8.003137e+002, 4.106386e-002
8.022422e+002, 3.995798e-002
8.041707e+002, 3.913263e-002
8.060991e+002, 3.878894e-002
8.080276e+002, 3.871071e-002
8.099561e+002, 3.902301e-002
8.118845e+002, 3.954130e-002
8.138130e+002, 4.021968e-002
8.157415e+002, 4.095423e-002
8.176699e+002, 4.188730e-002
8.195984e+002, 4.313881e-002
8.215269e+002, 4.490155e-002
8.234553e+002, 4.649692e-002
8.253838e+002, 4.774766e-002
8.273123e+002, 4.879972e-002
8.292407e+002, 4.968701e-002
8.311692e+002, 5.047176e-002
8.330977e+002, 5.131431e-002
8.350261e+002, 5.247682e-002
8.369546e+002, 5.414272e-002
8.388831e+002, 5.598306e-002
8.408115e+002, 5.779365e-002
8.427400e+002, 5.976437e-002
8.446685e+002, 6.218993e-002
8.465969e+002, 6.503630e-002
8.485254e+002, 6.769144e-002
8.504539e+002, 7.028963e-002
8.523823e+002, 7.341592e-002
8.543108e+002, 7.645422e-002
8.562393e+002, 7.972414e-002
8.581677e+002, 8.341245e-002
8.600962e+002, 8.733142e-002
8.620247e+002, 9.145095e-002
8.639531e+002, 9.574553e-002
8.658816e+002, 1.002636e-001
8.678101e+002, 1.047768e-001
8.697385e+002, 1.096254e-001
8.716670e+002, 1.150678e-001
8.735955e+002, 1.206155e-001
8.755239e+002, 1.260821e-001
8.774524e+002, 1.315013e-001
8.793809e+002, 1.372230e-001
8.813093e+002, 1.430689e-001
8.832378e+002, 1.491367e-001
8.851663e+002, 1.557602e-001
8.870947e+002, 1.629283e-001
8.890232e+002, 1.700139e-001
8.909517e+002, 1.771981e-001
8.928801e+002, 1.847976e-001
8.948085e+002, 1.919935e-001
8.967370e+002, 1.984244e-001
8.986655e+002, 2.041865e-001
9.005939e+002, 2.084680e-001
9.025224e+002, 2.105362e-001
9.044509e+002, 2.106400e-001
9.063793e+002, 2.078443e-001
9.083078e+002, 2.017955e-001
9.102363e+002, 1.934785e-001
9.121647e+002, 1.850567e-001
9.140932e+002, 1.780941e-001
9.160217e+002, 1.721752e-001
9.179501e+002, 1.665310e-001
9.198786e+002, 1.612619e-001
9.218071e+002, 1.576607e-001
9.237355e+002, 1.583917e-001
9.256640e+002, 1.660141e-001
9.275925e+002, 1.796933e-001
9.295209e+002, 1.951860e-001
9.314494e+002, 2.087293e-001
9.333779e+002, 2.193600e-001
9.353063e+002, 2.274165e-001
9.372348e+002, 2.332033e-001
9.391633e+002, 2.369779e-001
9.410917e+002, 2.398211e-001
9.430202e+002, 2.417454e-001
9.449487e+002, 2.430751e-001
9.468771e+002, 2.436936e-001
9.488056e+002, 2.435444e-001
9.507341e+002, 2.426664e-001
9.526625e+002, 2.407765e-001
9.545910e+002, 2.374110e-001
9.565195e+002, 2.326164e-001
9.584479e+002, 2.266205e-001
9.603764e+002, 2.195013e-001
9.623049e+002, 2.111703e-001
9.642333e+002, 2.023846e-001
9.661618e+002, 1.936447e-001
9.680903e+002, 1.852213e-001
9.700187e+002, 1.769447e-001
9.719472e+002, 1.692724e-001
9.738757e+002, 1.616719e-001
9.758041e+002, 1.542078e-001
9.777326e+002, 1.469963e-001
9.796611e+002, 1.398706e-001
9.815895e+002, 1.326058e-001
9.835180e+002, 1.255012e-001
9.854465e+002, 1.182953e-001
9.873749e+002, 1.111294e-001
9.893034e+002, 1.041604e-001
9.912319e+002, 9.755757e-002
9.931603e+002, 9.147194e-002
9.950888e+002, 8.582027e-002
9.970173e+002, 8.109424e-002
9.989457e+002, 7.725143e-002
1.000874e+003, 7.388873e-002
1.002803e+003, 7.089125e-002
1.004731e+003, 6.840194e-002
1.006660e+003, 6.664936e-002
1.008588e+003, 6.573618e-002
1.010517e+003, 6.564935e-002
1.012445e+003, 6.547324e-002
1.014373e+003, 6.490017e-002
1.016302e+003, 6.422381e-002
1.018230e+003, 6.415773e-002
1.020159e+003, 6.510583e-002
1.022087e+003, 6.723676e-002
1.024016e+003, 6.967722e-002
1.025944e+003, 6.991114e-002
1.027873e+003, 6.617270e-002
1.029801e+003, 5.968180e-002
1.031730e+003, 5.279040e-002
1.033658e+003, 4.737150e-002
1.035587e+003, 4.301571e-002
1.037515e+003, 3.972371e-002
1.039444e+003, 3.752671e-002
1.041372e+003, 3.568376e-002
1.043301e+003, 3.430848e-002
1.045229e+003, 3.321576e-002
1.047157e+003, 3.225088e-002
1.049086e+003, 3.147779e-002
1.051014e+003, 3.056667e-002
1.052943e+003, 2.979498e-002
1.054871e+003, 2.918735e-002
1.056800e+003, 2.873251e-002
1.058728e+003, 2.843305e-002
1.060657e+003, 2.830258e-002
1.062585e+003, 2.822283e-002
1.064514e+003, 2.806368e-002
1.066442e+003, 2.817219e-002
1.068371e+003, 2.853554e-002
1.070299e+003, 2.880172e-002
1.072228e+003, 2.913933e-002
1.074156e+003, 2.976866e-002
1.076084e+003, 3.056658e-002
1.078013e+003, 3.153724e-002
1.079941e+003, 3.285244e-002
1.081870e+003, 3.407849e-002
1.083798e+003, 3.534825e-002
1.085727e+003, 3.671396e-002
1.087655e+003, 3.785563e-002
1.089584e+003, 3.884121e-002
1.091512e+003, 3.946659e-002
1.093441e+003, 3.981229e-002
1.095369e+003, 4.019263e-002
1.097298e+003, 4.058541e-002
1.099226e+003, 4.133182e-002
1.101155e+003, 4.249906e-002
1.103083e+003, 4.381341e-002
1.105011e+003, 4.559776e-002
1.106940e+003, 4.785879e-002
1.108868e+003, 5.063714e-002
1.110797e+003, 5.396976e-002
1.112725e+003, 5.743257e-002
1.114654e+003, 6.124034e-002
1.116582e+003, 6.532212e-002
1.118511e+003, 6.941494e-002
1.120439e+003, 7.399760e-002
1.122368e+003, 7.890517e-002
1.124296e+003, 8.393823e-002
1.126225e+003, 8.903350e-002
1.128153e+003, 9.370168e-002
1.130082e+003, 9.753349e-002
1.132010e+003, 1.006485e-001
1.133938e+003, 1.037412e-001
1.135867e+003, 1.070786e-001
1.137795e+003, 1.105814e-001
1.139724e+003, 1.134504e-001
1.141652e+003, 1.149214e-001
1.143581e+003, 1.145402e-001
1.145509e+003, 1.125710e-001
1.147438e+003, 1.102084e-001
1.149366e+003, 1.091546e-001
1.151295e+003, 1.103066e-001
1.153223e+003, 1.132303e-001
1.155152e+003, 1.166680e-001
1.157080e+003, 1.203562e-001
1.159009e+003, 1.246508e-001
1.160937e+003, 1.289772e-001
1.162865e+003, 1.321897e-001
1.164794e+003, 1.335898e-001
1.166722e+003, 1.338166e-001
1.168651e+003, 1.351319e-001
1.170579e+003, 1.375679e-001
1.172508e+003, 1.393500e-001
1.174436e+003, 1.388431e-001
1.176365e+003, 1.356106e-001
1.178293e+003, 1.304129e-001
1.180222e+003, 1.242685e-001
1.182150e+003, 1.175947e-001
1.184079e+003, 1.107750e-001
1.186007e+003, 1.040208e-001
1.187936e+003, 9.774269e-002
1.189864e+003, 9.182559e-002
1.191792e+003, 8.614080e-002
1.193721e+003, 8.062696e-002
1.195649e+003, 7.540818e-002
1.197578e+003, 7.036532e-002
1.199506e+003, 6.548570e-002
1.201435e+003, 6.093833e-002
1.203363e+003, 5.653363e-002
1.205292e+003, 5.226614e-002
1.207220e+003, 4.822986e-002
1.209149e+003, 4.420868e-002
1.211077e+003, 4.035181e-002
1.213006e+003, 3.662441e-002
1.214934e+003, 3.317880e-002
1.216863e+003, 3.007231e-002
1.218791e+003, 2.702232e-002
1.220719e+003, 2.395646e-002
1.222648e+003, 2.113402e-002
1.224576e+003, 1.817766e-002
1.226505e+003, 1.521670e-002
1.228433e+003, 1.303170e-002
1.230362e+003, 1.147207e-002
1.232290e+003, 9.999892e-003
1.234219e+003, 8.929544e-003
1.236147e+003, 8.185195e-003
1.238076e+003, 7.519209e-003
1.240004e+003, 6.982601e-003
1.241933e+003, 6.680480e-003
1.243861e+003, 6.333658e-003
1.245790e+003, 5.873129e-003
1.247718e+003, 5.677031e-003
1.249646e+003, 5.395491e-003
1.251575e+003, 4.967169e-003
1.253503e+003, 4.644663e-003
1.255432e+003, 4.277118e-003
1.257360e+003, 4.048592e-003
1.259289e+003, 3.858275e-003
1.261217e+003, 3.735931e-003
1.263146e+003, 3.703436e-003
1.265074e+003, 3.569843e-003
1.267003e+003, 3.343466e-003
1.268931e+003, 3.184334e-003
1.270860e+003, 3.106595e-003
1.272788e+003, 3.030898e-003
1.274717e+003, 3.019418e-003
1.276645e+003, 3.130634e-003
1.278573e+003, 3.005367e-003
1.280502e+003, 2.884942e-003
1.282430e+003, 2.914923e-003
1.284359e+003, 2.860191e-003
1.286287e+003, 2.651241e-003
1.288216e+003, 2.731349e-003
1.290144e+003, 2.839101e-003
1.292073e+003, 2.673568e-003
1.294001e+003, 2.703770e-003
1.295930e+003, 2.669357e-003
1.297858e+003, 2.651947e-003
1.299787e+003, 2.591379e-003
1.301715e+003, 2.505311e-003
1.303644e+003, 2.732066e-003
1.305572e+003, 2.635003e-003
1.307500e+003, 2.312063e-003
1.309429e+003, 2.252950e-003
1.311357e+003, 2.342219e-003
1.313286e+003, 2.300806e-003
1.315214e+003, 2.116756e-003
1.317143e+003, 2.084443e-003
1.319071e+003, 2.225908e-003
1.321000e+003, 2.382899e-003
1.322928e+003, 2.444426e-003
1.324857e+003, 2.362747e-003
1.326785e+003, 2.392176e-003
1.328714e+003, 2.324144e-003
1.330642e+003, 2.205291e-003
1.332571e+003, 2.376002e-003
1.334499e+003, 2.519031e-003
1.336427e+003, 2.321040e-003
1.338356e+003, 2.301595e-003
1.340284e+003, 2.354986e-003
1.342213e+003, 2.395922e-003
1.344141e+003, 2.532198e-003
1.346070e+003, 2.567162e-003
1.347998e+003, 2.432019e-003
1.349927e+003, 2.472700e-003
1.351855e+003, 2.652441e-003
1.353784e+003, 2.540433e-003
1.355712e+003, 2.438410e-003
1.357641e+003, 2.557052e-003
1.359569e+003, 2.509606e-003
1.361498e+003, 2.435590e-003
1.363426e+003, 2.398311e-003
1.365354e+003, 2.404590e-003
1.367283e+003, 2.364825e-003
1.369211e+003, 2.499235e-003
1.371140e+003, 2.496851e-003
1.373068e+003, 2.516515e-003
1.374997e+003, 2.494493e-003
1.376925e+003, 2.553181e-003
1.378854e+003, 2.553111e-003
1.380782e+003, 2.633777e-003
1.382711e+003, 2.733424e-003
1.384639e+003, 2.711746e-003
1.386568e+003, 2.574274e-003
1.388496e+003, 2.791568e-003
1.390424e+003, 2.931703e-003
1.392353e+003, 2.796572e-003
1.394281e+003, 2.683853e-003
1.396210e+003, 2.721586e-003
1.398138e+003, 3.036654e-003
1.400067e+003, 3.022564e-003
1.401995e+003, 2.611912e-003
1.403924e+003, 2.510232e-003
1.405852e+003, 2.692508e-003
1.407781e+003, 2.873768e-003
1.409709e+003, 2.946909e-003
1.411638e+003, 2.919782e-003
1.413566e+003, 2.858160e-003
1.415495e+003, 2.674622e-003
1.417423e+003, 2.575579e-003
1.419351e+003, 2.990689e-003
1.421280e+003, 3.113206e-003
1.423208e+003, 2.895893e-003
1.425137e+003, 2.800416e-003
1.427065e+003, 2.669984e-003
1.428994e+003, 2.674659e-003
1.430922e+003, 2.615853e-003
1.432851e+003, 2.415708e-003
1.434779e+003, 2.402315e-003
1.436708e+003, 2.596558e-003
1.438636e+003, 2.725756e-003
1.440565e+003, 2.703653e-003
1.442493e+003, 2.563446e-003
1.444422e+003, 2.530176e-003
1.446350e+003, 2.713392e-003
1.448278e+003, 3.006495e-003
1.450207e+003, 3.022100e-003
1.452135e+003, 2.922823e-003
1.454064e+003, 2.816556e-003
1.455992e+003, 2.669767e-003
1.457921e+003, 2.956734e-003
1.459849e+003, 3.005880e-003
1.461778e+003, 2.925883e-003
1.463706e+003, 2.806689e-003
1.465635e+003, 2.904692e-003
1.467563e+003, 3.037328e-003
1.469492e+003, 3.137549e-003
1.471420e+003, 2.992515e-003
1.473349e+003, 2.947988e-003
1.475277e+003, 2.858885e-003
1.477205e+003, 2.714440e-003
1.479134e+003, 2.668655e-003
1.481062e+003, 2.663196e-003
1.482991e+003, 2.656802e-003
1.484919e+003, 2.744247e-003
1.486848e+003, 2.786237e-003
1.488776e+003, 2.625339e-003
1.490705e+003, 2.655768e-003
1.492633e+003, 2.833506e-003
1.494562e+003, 2.885474e-003
1.496490e+003, 2.782914e-003
1.498419e+003, 2.782999e-003
1.500347e+003, 2.722856e-003
1.502276e+003, 2.702098e-003
1.504204e+003, 2.650694e-003
1.506132e+003, 2.592942e-003
1.508061e+003, 2.786016e-003
1.509989e+003, 2.769818e-003
1.511918e+003, 2.732280e-003
1.513846e+003, 2.575341e-003
1.515775e+003, 2.564611e-003
1.517703e+003, 2.642012e-003
1.519632e+003, 2.792782e-003
1.521560e+003, 2.916873e-003
1.523489e+003, 2.829198e-003
1.525417e+003, 2.794279e-003
1.527346e+003, 2.778420e-003
1.529274e+003, 2.676106e-003
1.531203e+003, 2.571072e-003
1.533131e+003, 2.708987e-003
1.535059e+003, 2.916500e-003
1.536988e+003, 2.795719e-003
1.538916e+003, 2.851397e-003
1.540845e+003, 3.121145e-003
1.542773e+003, 3.292962e-003
1.544702e+003, 3.281055e-003
1.546630e+003, 3.477600e-003
1.548559e+003, 3.626718e-003
1.550487e+003, 3.689031e-003
1.552416e+003, 3.628404e-003
1.554344e+003, 3.689855e-003
1.556273e+003, 3.915077e-003
1.558201e+003, 4.110896e-003
1.560130e+003, 4.274237e-003
1.562058e+003, 4.321541e-003
1.563986e+003, 4.350524e-003
1.565915e+003, 4.649755e-003
1.567843e+003, 4.738997e-003
1.569772e+003, 4.690507e-003
1.571700e+003, 4.653800e-003
1.573629e+003, 4.822151e-003
1.575557e+003, 4.942933e-003
1.577486e+003, 4.928026e-003
1.579414e+003, 4.934915e-003
1.581343e+003, 4.880071e-003
1.583271e+003, 4.887489e-003
1.585200e+003, 5.067952e-003
1.587128e+003, 5.031291e-003
1.589057e+003, 5.064465e-003
1.590985e+003, 5.298483e-003
1.592913e+003, 5.377626e-003
1.594842e+003, 5.436583e-003
1.596770e+003, 5.645570e-003
1.598699e+003, 5.734013e-003
1.600627e+003, 5.618910e-003
1.602556e+003, 5.358781e-003
1.604484e+003, 5.070724e-003
1.606413e+003, 5.037436e-003
1.608341e+003, 5.082542e-003
1.610270e+003, 5.099250e-003
1.612198e+003, 5.122116e-003
1.614127e+003, 5.111134e-003
1.616055e+003, 5.006128e-003
1.617984e+003, 5.084163e-003
1.619912e+003, 5.089575e-003
1.621840e+003, 5.179740e-003
1.623769e+003, 5.238112e-003
1.625697e+003, 5.079878e-003
1.627626e+003, 5.300554e-003
1.629554e+003, 5.682510e-003
1.631483e+003, 5.949595e-003
1.633411e+003, 6.215645e-003
1.635340e+003, 6.410814e-003
1.637268e+003, 6.283619e-003
1.639197e+003, 5.798411e-003
1.641125e+003, 5.479667e-003
1.643054e+003, 5.350099e-003
1.644982e+003, 5.204555e-003
1.646911e+003, 4.895574e-003
1.648839e+003, 4.437034e-003
1.650767e+003, 4.286176e-003
1.652696e+003, 3.980517e-003
1.654624e+003, 4.111934e-003
1.656553e+003, 4.108986e-003
1.658481e+003, 3.911278e-003
1.660410e+003, 3.860339e-003
1.662338e+003, 3.919851e-003
1.664267e+003, 3.764539e-003
1.666195e+003, 3.565760e-003
1.668124e+003, 3.560467e-003
1.670052e+003, 3.750313e-003
1.671981e+003, 3.545501e-003
1.673909e+003, 3.283116e-003
1.675838e+003, 3.292454e-003
1.677766e+003, 3.362660e-003
1.679694e+003, 3.572566e-003
1.681623e+003, 3.787662e-003
1.683551e+003, 3.536055e-003
1.685480e+003, 3.565387e-003
1.687408e+003, 3.647908e-003
1.689337e+003, 3.651472e-003
1.691265e+003, 3.479392e-003
1.693194e+003, 3.351905e-003
1.695122e+003, 3.292656e-003
1.697051e+003, 3.499925e-003
1.698979e+003, 3.515417e-003
1.700908e+003, 3.473372e-003
1.702836e+003, 3.082775e-003
1.704765e+003, 3.085560e-003
1.706693e+003, 3.170891e-003
1.708621e+003, 2.900388e-003
1.710550e+003, 2.796222e-003
1.712478e+003, 3.026261e-003
1.714407e+003, 2.991721e-003
1.716335e+003, 2.884553e-003
1.718264e+003, 2.869777e-003
1.720192e+003, 2.706832e-003
1.722121e+003, 2.419411e-003
1.724049e+003, 2.557684e-003
1.725978e+003, 2.585647e-003
1.727906e+003, 2.433931e-003
1.729835e+003, 2.227817e-003
1.731763e+003, 2.131268e-003
1.733692e+003, 2.138335e-003
1.735620e+003, 2.240670e-003
1.737548e+003, 2.006821e-003
1.739477e+003, 2.199182e-003
1.741405e+003, 2.350476e-003
1.743334e+003, 2.334478e-003
1.745262e+003, 2.179502e-003
1.747191e+003, 2.179329e-003
1.749119e+003, 2.152049e-003
1.751048e+003, 2.154913e-003
1.752976e+003, 2.144370e-003
1.754905e+003, 2.279577e-003
1.756833e+003, 2.650675e-003
1.758762e+003, 2.726544e-003
1.760690e+003, 2.293153e-003
1.762619e+003, 2.214963e-003
1.764547e+003, 2.350953e-003
1.766475e+003, 2.539103e-003
1.768404e+003, 2.437685e-003
1.770332e+003, 2.016402e-003
1.772261e+003, 2.077226e-003
1.774189e+003, 2.502805e-003
1.776118e+003, 2.123088e-003
1.778046e+003, 1.791705e-003
1.779975e+003, 1.691199e-003
1.781903e+003, 1.775873e-003
1.783832e+003, 1.985284e-003
1.785760e+003, 1.835369e-003
1.787689e+003, 1.941486e-003
1.789617e+003, 2.128616e-003
1.791546e+003, 1.914453e-003
1.793474e+003, 1.844886e-003
1.795402e+003, 1.810637e-003
1.797331e+003, 1.757294e-003
1.799259e+003, 1.303025e-003
1.801188e+003, 1.586959e-003
1.803116e+003, 2.025379e-003
1.805045e+003, 2.135418e-003
1.806973e+003, 1.835046e-003
1.808902e+003, 1.617944e-003
1.810830e+003, 1.603703e-003
1.812759e+003, 1.648308e-003
1.814687e+003, 1.557686e-003
1.816616e+003, 1.452986e-003
1.818544e+003, 1.531814e-003
1.820473e+003, 1.772851e-003
1.822401e+003, 1.942709e-003
1.824329e+003, 1.968704e-003
1.826258e+003, 1.863719e-003
1.828186e+003, 1.558172e-003
1.830115e+003, 1.913444e-003
1.832043e+003, 2.381918e-003
1.833972e+003, 2.616929e-003
1.835900e+003, 2.699139e-003
1.837829e+003, 2.385766e-003
1.839757e+003, 1.778790e-003
1.841686e+003, 1.304592e-003
1.843614e+003, 1.697398e-003
1.845543e+003, 1.978926e-003
1.847471e+003, 1.514116e-003
1.849400e+003, 1.288363e-003
1.851328e+003, 1.704378e-003
1.853256e+003, 2.093996e-003
1.855185e+003, 1.922926e-003
1.857113e+003, 1.657662e-003
1.859042e+003, 1.885011e-003
1.860970e+003, 1.879468e-003
1.862899e+003, 1.440608e-003
1.864827e+003, 1.343502e-003
1.866756e+003, 1.464091e-003
1.868684e+003, 1.432097e-003
1.870613e+003, 1.464280e-003
1.872541e+003, 1.290412e-003
1.874470e+003, 7.605378e-004
1.876398e+003, 4.540642e-004
1.878327e+003, 7.722686e-004
1.880255e+003, 9.179741e-004
1.882183e+003, 1.611894e-003
1.884112e+003, 1.118931e-003
1.886040e+003, 3.616579e-004
1.887969e+003, 4.906628e-004
1.889897e+003, 2.801954e-004
1.891826e+003, 3.144003e-004
1.893754e+003, 5.237116e-004
1.895683e+003, 2.109136e-004
1.897611e+003, 5.228388e-004
1.899540e+003, 3.689631e-004
1.901468e+003, -6.742588e-005
1.903397e+003, 4.937096e-006
1.905325e+003, 7.961431e-004
1.907254e+003, 1.187976e-003
1.909182e+003, 5.714374e-004
1.911110e+003, -2.155867e-004
1.913039e+003, -6.687454e-005
1.914967e+003, -1.440714e-005
1.916896e+003, 5.004662e-004
1.918824e+003, 7.787322e-004
1.920753e+003, 3.227698e-004
1.922681e+003, -6.229513e-004
1.924610e+003, -7.551422e-004
1.926538e+003, -3.232002e-004
1.928467e+003, -1.124399e-003
1.930395e+003, -1.693231e-003
1.932324e+003, -9.337545e-004
1.934252e+003, -1.096063e-003
1.936181e+003, -8.334874e-004
1.938109e+003, -1.022215e-003
1.940037e+003, -1.914142e-003
1.941966e+003, -1.761857e-003
1.943894e+003, -9.872125e-004
1.945823e+003, -1.248246e-003
1.947751e+003, -6.805754e-004
1.949680e+003, -7.158872e-004
1.951608e+003, -1.285158e-003
1.953537e+003, -2.167387e-003
1.955465e+003, -2.228271e-003
1.957394e+003, -1.489197e-003
1.959322e+003, -7.736598e-004
1.961251e+003, -1.332521e-003
1.963179e+003, -1.378378e-003
1.965108e+003, -1.182361e-003
1.967036e+003, -1.798188e-003
1.968964e+003, -2.060458e-003
1.970893e+003, -1.427991e-003
1.972821e+003, -4.356891e-004
1.974750e+003, -1.174569e-003
1.976678e+003, -3.564488e-004
1.978607e+003, 1.849888e-003
1.980535e+003, 2.149431e-003
1.982464e+003, 1.043864e-003
1.984392e+003, 5.490617e-004
1.986321e+003, 1.442193e-003
1.988249e+003, 4.254664e-004
1.990178e+003, -3.721859e-004
1.992106e+003, 1.074960e-003
1.994035e+003, 1.548292e-003
1.995963e+003, 1.577246e-003
1.997891e+003, 1.676269e-003
1.999820e+003, -2.477661e-004
2.001748e+003, -1.268523e-003
2.003677e+003, -1.447322e-003
2.005605e+003, -4.992785e-005
2.007534e+003, 1.947587e-003
2.009462e+003, 2.493137e-003
2.011391e+003, 1.657905e-003
2.013319e+003, 2.378720e-004
2.015248e+003, -1.965977e-003
2.017176e+003, -2.281381e-003
2.019105e+003, -1.668142e-003
2.021033e+003, -4.079716e-004
2.022962e+003, 4.348931e-004
2.024890e+003, -2.338709e-004
2.026818e+003, -1.544411e-004
2.028747e+003, -6.010479e-005
2.030675e+003, 1.504492e-004
2.032604e+003, -1.015360e-005
2.034532e+003, 7.467396e-004
2.036461e+003, 1.032152e-003
2.038389e+003, 7.405738e-004
2.040318e+003, 5.928184e-004
2.042246e+003, -6.724475e-004
2.044175e+003, 2.050863e-004
2.046103e+003, 7.670268e-004
2.048032e+003, 1.643120e-003
2.049960e+003, 2.408304e-003
2.051889e+003, 2.322467e-003
2.053817e+003, 9.927624e-004
2.055746e+003, -1.084170e-004
2.057674e+003, 1.869230e-004
2.059603e+003, 1.048818e-003
2.061531e+003, 1.702370e-003
2.063459e+003, 2.151153e-003
2.065388e+003, 2.628575e-003
2.067316e+003, 1.805236e-003
2.069245e+003, 1.276908e-003
2.071173e+003, 1.325584e-003
2.073102e+003, 1.039383e-003
2.075030e+003, 1.806784e-003
2.076959e+003, 2.398843e-003
2.078887e+003, 2.195830e-003
2.080816e+003, 1.830119e-003
2.082744e+003, 2.634365e-003
2.084673e+003, 3.314837e-003
2.086601e+003, 2.675155e-003
2.088530e+003, 1.936747e-003
2.090458e+003, 2.602847e-003
2.092386e+003, 3.205119e-003
2.094315e+003, 3.704025e-003
2.096243e+003, 3.530798e-003
2.098172e+003, 2.954130e-003
2.100100e+003, 3.448159e-003
2.102029e+003, 4.252934e-003
2.103957e+003, 4.307541e-003
2.105886e+003, 4.043231e-003
2.107814e+003, 3.569970e-003
2.109743e+003, 3.685874e-003
2.111671e+003, 3.596936e-003
2.113600e+003, 2.915896e-003
2.115528e+003, 2.752547e-003
2.117457e+003, 2.839289e-003
2.119385e+003, 2.257403e-003
2.121313e+003, 2.584894e-003
2.123242e+003, 2.427814e-003
2.125170e+003, 1.574311e-003
2.127099e+003, 7.671657e-004
2.129027e+003, 4.182360e-004
2.130956e+003, -4.007150e-004
2.132884e+003, -3.634290e-004
2.134813e+003, 1.940701e-004
2.136741e+003, 3.801452e-004
2.138670e+003, 7.964259e-004
2.140598e+003, 1.178774e-003
2.142527e+003, 1.675108e-003
2.144455e+003, 1.402389e-003
2.146384e+003, 1.121140e-003
2.148312e+003, 2.730680e-003
2.150240e+003, 1.575927e-003
2.152169e+003, 3.016111e-005
2.154097e+003, -1.031639e-003
2.156026e+003, -2.663399e-003
2.157954e+003, -2.580793e-003
2.159883e+003, 1.023851e-003
2.161811e+003, 2.701768e-003
2.163740e+003, 2.159048e-003
2.165668e+003, 1.754987e-003
2.167597e+003, 4.430293e-003
2.169525e+003, 6.182365e-003
2.171454e+003, 5.190770e-003
2.173382e+003, 2.188214e-003
2.175311e+003, 9.447734e-004
2.177239e+003, 2.937586e-003
2.179167e+003, 3.656776e-003
2.181096e+003, 2.730912e-003
2.183024e+003, 4.151682e-003
2.184953e+003, 5.224837e-003
2.186881e+003, 4.290311e-003
2.188810e+003, 3.357314e-003
2.190738e+003, 3.085103e-003
2.192667e+003, 1.753384e-003
2.194595e+003, 2.708559e-003
2.196524e+003, 2.386859e-003
2.198452e+003, 1.612276e-003
2.200381e+003, 2.007108e-003
2.202309e+003, 2.572306e-003
2.204238e+003, 2.238190e-003
2.206166e+003, 2.005857e-003
2.208094e+003, 2.415843e-003
2.210023e+003, 2.800865e-003
2.211951e+003, 2.347172e-003
2.213880e+003, 2.761607e-003
2.215808e+003, 2.801340e-003
2.217737e+003, 1.744018e-003
2.219665e+003, 1.677749e-003
2.221594e+003, 3.249847e-003
2.223522e+003, 2.856005e-003
2.225451e+003, 3.061584e-003
2.227379e+003, 3.875264e-003
2.229308e+003, 3.409804e-003
2.231236e+003, 3.371575e-003
2.233165e+003, 3.374412e-003
2.235093e+003, 3.549824e-003
2.237021e+003, 3.782859e-003
2.238950e+003, 3.193631e-003
2.240878e+003, 3.537541e-003
2.242807e+003, 4.311407e-003
2.244735e+003, 4.010282e-003
2.246664e+003, 2.961178e-003
2.248592e+003, 2.721544e-003
2.250521e+003, 2.292884e-003
2.252449e+003, 1.931873e-003
2.254378e+003, 1.649758e-003
2.256306e+003, 2.373483e-003
2.258235e+003, 2.401461e-003
2.260163e+003, 2.123457e-003
2.262092e+003, 2.197303e-003
2.264020e+003, 2.805339e-003
2.265948e+003, 3.268331e-003
2.267877e+003, 3.222256e-003
2.269805e+003, 3.070702e-003
2.271734e+003, 3.337086e-003
2.273662e+003, 3.718771e-003
2.275591e+003, 3.927197e-003
2.277519e+003, 3.165381e-003
2.279448e+003, 2.241386e-003
2.281376e+003, 2.296314e-003
2.283305e+003, 3.410999e-003
2.285233e+003, 3.712445e-003
2.287162e+003, 3.873196e-003
2.289090e+003, 3.964865e-003
2.291019e+003, 3.698747e-003
2.292947e+003, 2.933637e-003
2.294875e+003, 2.919934e-003
2.296804e+003, 3.749480e-003
2.298732e+003, 4.208540e-003
2.300661e+003, 4.473372e-003
2.302589e+003, 4.363398e-003
2.304518e+003, 4.026905e-003
2.306446e+003, 4.155655e-003
2.308375e+003, 4.080791e-003
2.310303e+003, 4.108792e-003
2.312232e+003, 4.087834e-003
2.314160e+003, 4.353039e-003
2.316089e+003, 4.550754e-003
2.318017e+003, 4.756393e-003
2.319946e+003, 4.886553e-003
2.321874e+003, 5.107016e-003
2.323802e+003, 5.392364e-003
2.325731e+003, 4.331446e-003
2.327659e+003, 3.221373e-003
2.329588e+003, 3.663575e-003
2.331516e+003, 4.241435e-003
2.333445e+003, 3.860151e-003
2.335373e+003, 3.696506e-003
2.337302e+003, 4.211979e-003
2.339230e+003, 4.763444e-003
2.341159e+003, 5.501322e-003
2.343087e+003, 7.043475e-003
2.345016e+003, 1.136561e-002
2.346944e+003, 1.974375e-002
2.348873e+003, 2.036836e-002
2.350801e+003, 1.111627e-002
2.352729e+003, 5.589316e-003
2.354658e+003, 3.425264e-003
2.356586e+003, 2.654471e-003
2.358515e+003, 2.514994e-003
2.360443e+003, 2.258978e-003
2.362372e+003, 1.755669e-003
2.364300e+003, 1.899693e-003
2.366229e+003, 1.923547e-003
2.368157e+003, 2.189128e-003
2.370086e+003, 2.287238e-003
2.372014e+003, 2.661267e-003
2.373942e+003, 2.186821e-003
2.375871e+003, 2.350961e-003
2.377799e+003, 2.895815e-003
2.379728e+003, 2.977156e-003
2.381656e+003, 2.686549e-003
2.383585e+003, 2.387792e-003
2.385513e+003, 2.802478e-003
2.387442e+003, 3.433298e-003
2.389370e+003, 3.514550e-003
2.391299e+003, 3.195532e-003
2.393227e+003, 2.976847e-003
2.395156e+003, 2.996752e-003
2.397084e+003, 2.865114e-003
2.399012e+003, 3.662322e-003
2.400941e+003, 3.470490e-003
2.402869e+003, 3.029867e-003
2.404798e+003, 3.326172e-003
2.406726e+003, 3.868805e-003
2.408655e+003, 3.707382e-003
2.410583e+003, 3.887185e-003
2.412512e+003, 3.505244e-003
2.414440e+003, 3.693076e-003
2.416369e+003, 4.366804e-003
2.418297e+003, 3.975295e-003
2.420226e+003, 3.491498e-003
2.422154e+003, 4.240016e-003
2.424083e+003, 4.043654e-003
2.426011e+003, 3.928822e-003
2.427939e+003, 4.012854e-003
2.429868e+003, 4.197166e-003
2.431796e+003, 4.169836e-003
2.433725e+003, 4.139138e-003
2.435653e+003, 3.969048e-003
2.437582e+003, 3.974378e-003
2.439510e+003, 4.245701e-003
2.441439e+003, 4.902744e-003
2.443367e+003, 5.128595e-003
2.445296e+003, 4.963636e-003
2.447224e+003, 4.387183e-003
2.449153e+003, 4.213585e-003
2.451081e+003, 4.943388e-003
2.453010e+003, 5.192596e-003
2.454938e+003, 4.795986e-003
2.456866e+003, 5.777622e-003
2.458795e+003, 6.251610e-003
2.460723e+003, 5.592668e-003
2.462652e+003, 5.129771e-003
2.464580e+003, 4.896102e-003
2.466509e+003, 4.925958e-003
2.468437e+003, 4.734270e-003
2.470366e+003, 4.649424e-003
2.472294e+003, 4.966142e-003
2.474223e+003, 5.188784e-003
2.476151e+003, 5.302561e-003
2.478080e+003, 5.237956e-003
2.480008e+003, 5.206110e-003
2.481937e+003, 4.802350e-003
2.483865e+003, 4.394061e-003
2.485793e+003, 4.414092e-003
2.487722e+003, 4.898157e-003
2.489650e+003, 5.630177e-003
2.491579e+003, 5.477287e-003
2.493507e+003, 4.238237e-003
2.495436e+003, 4.595596e-003
2.497364e+003, 4.811068e-003
2.499293e+003, 4.703992e-003
2.501221e+003, 5.324730e-003
2.503150e+003, 5.077489e-003
2.505078e+003, 4.616008e-003
2.507007e+003, 5.149737e-003
2.508935e+003, 4.589299e-003
2.510864e+003, 4.709042e-003
2.512792e+003, 5.125810e-003
2.514720e+003, 5.222165e-003
2.516649e+003, 5.038169e-003
2.518577e+003, 5.783048e-003
2.520506e+003, 5.993439e-003
2.522434e+003, 5.054445e-003
2.524363e+003, 4.783483e-003
2.526291e+003, 5.167120e-003
2.528220e+003, 5.117029e-003
2.530148e+003, 5.459482e-003
2.532077e+003, 5.655727e-003
2.534005e+003, 5.373889e-003
2.535934e+003, 5.822032e-003
2.537862e+003, 6.074171e-003
2.539791e+003, 5.385558e-003
2.541719e+003, 5.091622e-003
2.543647e+003, 5.391190e-003
2.545576e+003, 5.172471e-003
2.547504e+003, 4.705992e-003
2.549433e+003, 5.813687e-003
2.551361e+003, 5.631564e-003
2.553290e+003, 5.285375e-003
2.555218e+003, 5.074927e-003
2.557147e+003, 5.110674e-003
2.559075e+003, 5.693239e-003
2.561004e+003, 5.877846e-003
2.562932e+003, 5.609548e-003
2.564861e+003, 5.775720e-003
2.566789e+003, 5.597469e-003
2.568718e+003, 5.750693e-003
2.570646e+003, 6.462244e-003
2.572574e+003, 6.245660e-003
2.574503e+003, 5.804108e-003
2.576431e+003, 5.463288e-003
2.578360e+003, 4.986896e-003
2.580288e+003, 5.215384e-003
2.582217e+003, 5.839205e-003
2.584145e+003, 6.173861e-003
2.586074e+003, 5.881084e-003
2.588002e+003, 6.177293e-003
2.589931e+003, 6.446308e-003
2.591859e+003, 5.969341e-003
2.593788e+003, 6.320380e-003
2.595716e+003, 6.504903e-003
2.597645e+003, 5.593092e-003
2.599573e+003, 5.409851e-003
2.601501e+003, 5.729778e-003
2.603430e+003, 6.132480e-003
2.605358e+003, 6.168179e-003
2.607287e+003, 6.077807e-003
2.609215e+003, 6.154098e-003
2.611144e+003, 6.910731e-003
2.613072e+003, 7.117946e-003
2.615001e+003, 6.810838e-003
2.616929e+003, 6.684497e-003
2.618858e+003, 6.571679e-003
2.620786e+003, 6.446823e-003
2.622715e+003, 6.767100e-003
2.624643e+003, 6.755540e-003
2.626572e+003, 6.859520e-003
2.628500e+003, 6.682412e-003
2.630428e+003, 6.536094e-003
2.632357e+003, 6.059224e-003
2.634285e+003, 6.047252e-003
2.636214e+003, 6.568647e-003
2.638142e+003, 6.747533e-003
2.640071e+003, 6.641335e-003
2.641999e+003, 6.536393e-003
2.643928e+003, 6.285689e-003
2.645856e+003, 6.273346e-003
2.647785e+003, 6.068610e-003
2.649713e+003, 6.483596e-003
2.651642e+003, 6.921953e-003
2.653570e+003, 6.442895e-003
2.655499e+003, 6.206846e-003
2.657427e+003, 6.335648e-003
2.659355e+003, 5.728891e-003
2.661284e+003, 5.304039e-003
2.663212e+003, 4.985068e-003
2.665141e+003, 5.332125e-003
2.667069e+003, 5.588671e-003
2.668998e+003, 5.376617e-003
2.670926e+003, 4.984299e-003
2.672855e+003, 5.132436e-003
2.674783e+003, 5.311160e-003
2.676712e+003, 5.109283e-003
2.678640e+003, 5.031842e-003
2.680569e+003, 5.324246e-003
2.682497e+003, 5.604009e-003
2.684426e+003, 5.640925e-003
2.686354e+003, 5.388488e-003
2.688282e+003, 5.027310e-003
2.690211e+003, 4.881423e-003
2.692139e+003, 5.560504e-003
2.694068e+003, 6.104455e-003
2.695996e+003, 6.016246e-003
2.697925e+003, 5.975711e-003
2.699853e+003, 6.052903e-003
2.701782e+003, 5.880778e-003
2.703710e+003, 6.105488e-003
2.705639e+003, 6.105695e-003
2.707567e+003, 6.200498e-003
2.709496e+003, 5.928236e-003
2.711424e+003, 5.787360e-003
2.713353e+003, 5.291963e-003
2.715281e+003, 5.193695e-003
2.717209e+003, 5.681728e-003
2.719138e+003, 6.357139e-003
2.721066e+003, 6.168132e-003
2.722995e+003, 5.816757e-003
2.724923e+003, 6.034023e-003
2.726852e+003, 6.163347e-003
2.728780e+003, 6.239052e-003
2.730709e+003, 6.144047e-003
2.732637e+003, 5.638274e-003
2.734566e+003, 5.619584e-003
2.736494e+003, 5.975152e-003
2.738423e+003, 6.092717e-003
2.740351e+003, 6.345910e-003
2.742280e+003, 6.639433e-003
2.744208e+003, 5.989152e-003
2.746136e+003, 5.728188e-003
2.748065e+003, 6.027582e-003
2.749993e+003, 6.322424e-003
2.751922e+003, 6.144272e-003
2.753850e+003, 5.892899e-003
2.755779e+003, 6.139754e-003
2.757707e+003, 6.432746e-003
2.759636e+003, 5.610252e-003
2.761564e+003, 5.256339e-003
2.763493e+003, 5.449751e-003
2.765421e+003, 6.113517e-003
2.767350e+003, 6.309948e-003
2.769278e+003, 6.081091e-003
2.771207e+003, 5.870317e-003
2.773135e+003, 5.882156e-003
2.775063e+003, 5.478281e-003
2.776992e+003, 5.561857e-003
2.778920e+003, 5.938463e-003
2.780849e+003, 6.692553e-003
2.782777e+003, 6.490822e-003
2.784706e+003, 6.153528e-003
2.786634e+003, 6.785668e-003
2.788563e+003, 6.618109e-003
2.790491e+003, 5.840161e-003
2.792420e+003, 5.798268e-003
2.794348e+003, 6.291805e-003
2.796277e+003, 6.157665e-003
2.798205e+003, 6.158087e-003
2.800134e+003, 6.123723e-003
2.802062e+003, 5.637965e-003
2.803990e+003, 6.488902e-003
2.805919e+003, 6.795580e-003
2.807847e+003, 6.062511e-003
2.809776e+003, 5.953747e-003
2.811704e+003, 6.044992e-003
2.813633e+003, 5.915075e-003
2.815561e+003, 6.105033e-003
2.817490e+003, 6.430029e-003
2.819418e+003, 6.658519e-003
2.821347e+003, 6.113906e-003
2.823275e+003, 5.984684e-003
2.825204e+003, 5.646882e-003
2.827132e+003, 5.974029e-003
2.829061e+003, 5.954647e-003
2.830989e+003, 5.870671e-003
2.832917e+003, 5.677565e-003
2.834846e+003, 5.888197e-003
2.836774e+003, 6.285054e-003
2.838703e+003, 5.937409e-003
2.840631e+003, 5.846869e-003
2.842560e+003, 6.713520e-003
2.844488e+003, 6.078874e-003
2.846417e+003, 5.508110e-003
2.848345e+003, 5.503403e-003
2.850274e+003, 5.165577e-003
2.852202e+003, 4.591077e-003
2.854131e+003, 5.644241e-003
2.856059e+003, 5.831254e-003
2.857988e+003, 5.497290e-003
2.859916e+003, 5.594944e-003
2.861844e+003, 6.203044e-003
2.863773e+003, 5.646140e-003
2.865701e+003, 5.187702e-003
2.867630e+003, 5.300251e-003
2.869558e+003, 5.564800e-003
2.871487e+003, 5.994467e-003
2.873415e+003, 6.166682e-003
2.875344e+003, 6.076419e-003
2.877272e+003, 5.865823e-003
2.879201e+003, 5.674142e-003
2.881129e+003, 5.987630e-003
2.883058e+003, 6.206276e-003
2.884986e+003, 6.038287e-003
2.886915e+003, 6.080191e-003
2.888843e+003, 6.425845e-003
2.890771e+003, 6.241546e-003
2.892700e+003, 6.028419e-003
2.894628e+003, 6.058264e-003
2.896557e+003, 5.908392e-003
2.898485e+003, 5.664465e-003
2.900414e+003, 6.034346e-003
2.902342e+003, 6.045796e-003
2.904271e+003, 6.216713e-003
2.906199e+003, 6.343935e-003
2.908128e+003, 6.090761e-003
2.910056e+003, 5.435070e-003
2.911985e+003, 5.248274e-003
2.913913e+003, 5.498316e-003
2.915842e+003, 5.667114e-003
2.917770e+003, 5.981263e-003
2.919698e+003, 6.247093e-003
2.921627e+003, 5.233076e-003
2.923555e+003, 4.347997e-003
2.925484e+003, 4.334132e-003
2.927412e+003, 4.783994e-003
2.929341e+003, 5.343276e-003
2.931269e+003, 5.666349e-003
2.933198e+003, 5.331080e-003
2.935126e+003, 5.203335e-003
2.937055e+003, 5.787792e-003
2.938983e+003, 6.541228e-003
2.940912e+003, 5.853338e-003
2.942840e+003, 5.707997e-003
2.944769e+003, 6.372088e-003
2.946697e+003, 6.266856e-003
2.948625e+003, 5.526388e-003
2.950554e+003, 5.063310e-003
2.952482e+003, 4.719476e-003
2.954411e+003, 5.087908e-003
2.956339e+003, 5.835907e-003
2.958268e+003, 6.215313e-003
2.960196e+003, 6.749616e-003
2.962125e+003, 6.894120e-003
2.964053e+003, 7.351202e-003
2.965982e+003, 7.193010e-003
2.967910e+003, 6.577702e-003
2.969839e+003, 7.083226e-003
2.971767e+003, 6.984957e-003
2.973696e+003, 6.036839e-003
2.975624e+003, 5.974782e-003
2.977552e+003, 6.165793e-003
2.979481e+003, 6.349039e-003
2.981409e+003, 6.637094e-003
2.983338e+003, 7.671036e-003
2.985266e+003, 8.074753e-003
2.987195e+003, 6.866166e-003
2.989123e+003, 6.701743e-003
2.991052e+003, 6.623484e-003
2.992980e+003, 6.463497e-003
2.994909e+003, 7.411223e-003
2.996837e+003, 8.105836e-003
2.998766e+003, 7.993477e-003
3.000694e+003, 8.270043e-003
3.002623e+003, 7.937089e-003
3.004551e+003, 7.007225e-003
3.006479e+003, 6.809629e-003
3.008408e+003, 7.291440e-003
3.010336e+003, 6.746772e-003
3.012265e+003, 7.099363e-003
3.014193e+003, 6.551639e-003
3.016122e+003, 6.678066e-003
3.018050e+003, 7.129481e-003
3.019979e+003, 7.582224e-003
3.021907e+003, 6.958697e-003
3.023836e+003, 7.106271e-003
3.025764e+003, 7.191342e-003
3.027693e+003, 7.146296e-003
3.029621e+003, 7.367863e-003
3.031550e+003, 7.496901e-003
3.033478e+003, 6.850843e-003
3.035406e+003, 6.690618e-003
3.037335e+003, 7.712428e-003
3.039263e+003, 8.915351e-003
3.041192e+003, 8.295617e-003
3.043120e+003, 8.510216e-003
3.045049e+003, 8.844859e-003
3.046977e+003, 8.760005e-003
3.048906e+003, 9.078595e-003
3.050834e+003, 7.886811e-003
3.052763e+003, 6.278558e-003
3.054691e+003, 6.288420e-003
3.056620e+003, 7.649014e-003
3.058548e+003, 8.810295e-003
3.060477e+003, 8.355037e-003
3.062405e+003, 9.022334e-003
3.064333e+003, 8.560317e-003
3.066262e+003, 7.953146e-003
3.068190e+003, 7.396088e-003
3.070119e+003, 6.511712e-003
3.072047e+003, 6.749650e-003
3.073976e+003, 7.849683e-003
3.075904e+003, 8.127125e-003
3.077833e+003, 7.459929e-003
3.079761e+003, 7.050818e-003
3.081690e+003, 7.203360e-003
3.083618e+003, 6.988466e-003
3.085547e+003, 7.159025e-003
3.087475e+003, 8.302093e-003
3.089404e+003, 9.338801e-003
3.091332e+003, 9.600345e-003
3.093260e+003, 8.678330e-003
3.095189e+003, 7.781693e-003
3.097117e+003, 8.505830e-003
3.099046e+003, 8.795737e-003
3.100974e+003, 8.457586e-003
3.102903e+003, 7.877498e-003
3.104831e+003, 7.625895e-003
3.106760e+003, 7.747924e-003
3.108688e+003, 7.780185e-003
3.110617e+003, 7.862136e-003
3.112545e+003, 8.876079e-003
3.114474e+003, 9.048097e-003
3.116402e+003, 8.823047e-003
3.118331e+003, 8.446367e-003
3.120259e+003, 8.898276e-003
3.122188e+003, 9.472136e-003
3.124116e+003, 9.272338e-003
3.126044e+003, 9.023619e-003
3.127973e+003, 1.017984e-002
3.129901e+003, 1.029593e-002
3.131830e+003, 9.549554e-003
3.133758e+003, 8.971351e-003
3.135687e+003, 8.395716e-003
3.137615e+003, 8.353282e-003
3.139544e+003, 9.749489e-003
3.141472e+003, 1.040226e-002
3.143401e+003, 1.032468e-002
3.145329e+003, 9.713708e-003
3.147258e+003, 1.039167e-002
3.149186e+003, 9.451675e-003
3.151115e+003, 8.635886e-003
3.153043e+003, 8.770175e-003
3.154971e+003, 9.164126e-003
3.156900e+003, 9.930742e-003
3.158828e+003, 1.036416e-002
3.160757e+003, 9.484069e-003
3.162685e+003, 8.250361e-003
3.164614e+003, 8.318263e-003
3.166542e+003, 8.520417e-003
3.168471e+003, 8.810639e-003
3.170399e+003, 9.812157e-003
3.172328e+003, 9.447335e-003
3.174256e+003, 9.155955e-003
3.176185e+003, 8.720240e-003
3.178113e+003, 8.712710e-003
3.180042e+003, 8.487813e-003
3.181970e+003, 8.983457e-003
3.183898e+003, 9.174412e-003
3.185827e+003, 9.035883e-003
3.187755e+003, 8.970017e-003
3.189684e+003, 1.008312e-002
3.191612e+003, 1.004437e-002
3.193541e+003, 9.968480e-003
3.195469e+003, 9.750781e-003
3.197398e+003, 9.498073e-003
3.199326e+003, 9.629750e-003
3.201255e+003, 1.072477e-002
3.203183e+003, 1.016160e-002
3.205112e+003, 1.006555e-002
3.207040e+003, 1.003383e-002
3.208969e+003, 9.069496e-003
3.210897e+003, 8.667121e-003
3.212825e+003, 8.834080e-003
3.214754e+003, 8.863606e-003
3.216682e+003, 9.357682e-003
3.218611e+003, 9.217716e-003
3.220539e+003, 9.242893e-003
3.222468e+003, 1.015542e-002
3.224396e+003, 1.106112e-002
3.226325e+003, 1.000693e-002
3.228253e+003, 9.792292e-003
3.230182e+003, 8.867997e-003
3.232110e+003, 8.210114e-003
3.234039e+003, 9.471802e-003
3.235967e+003, 1.047738e-002
3.237896e+003, 1.077613e-002
3.239824e+003, 1.028990e-002
3.241752e+003, 9.490278e-003
3.243681e+003, 1.026740e-002
3.245609e+003, 1.016323e-002
3.247538e+003, 1.003986e-002
3.249466e+003, 1.009614e-002
3.251395e+003, 9.248455e-003
3.253323e+003, 9.079368e-003
3.255252e+003, 1.046384e-002
3.257180e+003, 9.905327e-003
3.259109e+003, 1.002375e-002
3.261037e+003, 1.015482e-002
3.262966e+003, 1.058993e-002
3.264894e+003, 1.087969e-002
3.266823e+003, 9.448133e-003
3.268751e+003, 8.708033e-003
3.270679e+003, 1.012502e-002
3.272608e+003, 1.019008e-002
3.274536e+003, 9.549404e-003
3.276465e+003, 9.625196e-003
3.278393e+003, 1.083348e-002
3.280322e+003, 9.575134e-003
3.282250e+003, 9.621164e-003
3.284179e+003, 1.001502e-002
3.286107e+003, 1.015840e-002
3.288036e+003, 9.971041e-003
3.289964e+003, 9.826178e-003
3.291893e+003, 9.721235e-003
3.293821e+003, 9.755937e-003
3.295750e+003, 9.599922e-003
3.297678e+003, 9.591677e-003
3.299606e+003, 9.439463e-003
3.301535e+003, 1.056110e-002
3.303463e+003, 1.170180e-002
3.305392e+003, 1.146485e-002
3.307320e+003, 1.035088e-002
3.309249e+003, 1.085874e-002
3.311177e+003, 1.137565e-002
3.313106e+003, 1.150520e-002
3.315034e+003, 1.135136e-002
3.316963e+003, 1.027478e-002
3.318891e+003, 9.659113e-003
3.320820e+003, 1.059594e-002
3.322748e+003, 1.007527e-002
3.324677e+003, 9.100488e-003
3.326605e+003, 1.011627e-002
3.328533e+003, 1.141391e-002
3.330462e+003, 1.066817e-002
3.332390e+003, 1.023916e-002
3.334319e+003, 1.035790e-002
3.336247e+003, 1.057411e-002
3.338176e+003, 1.013540e-002
3.340104e+003, 1.024724e-002
3.342033e+003, 1.009403e-002
3.343961e+003, 1.027559e-002
3.345890e+003, 1.047356e-002
3.347818e+003, 1.060250e-002
3.349747e+003, 9.944431e-003
3.351675e+003, 1.019841e-002
3.353604e+003, 1.010848e-002
3.355532e+003, 1.037412e-002
3.357460e+003, 1.150084e-002
3.359389e+003, 1.241281e-002
3.361317e+003, 1.144939e-002
3.363246e+003, 1.008260e-002
3.365174e+003, 9.901403e-003
3.367103e+003, 1.138765e-002
3.369031e+003, 1.075282e-002
3.370960e+003, 9.514193e-003
3.372888e+003, 1.066791e-002
3.374817e+003, 1.135377e-002
3.376745e+003, 1.029194e-002
3.378674e+003, 1.026516e-002
3.380602e+003, 1.112321e-002
3.382531e+003, 1.164255e-002
3.384459e+003, 1.052857e-002
3.386387e+003, 1.069031e-002
3.388316e+003, 1.054618e-002
3.390244e+003, 1.015371e-002
3.392173e+003, 9.731453e-003
3.394101e+003, 1.103565e-002
3.396030e+003, 1.160973e-002
3.397958e+003, 1.065743e-002
3.399887e+003, 9.719491e-003
3.401815e+003, 1.053815e-002
3.403744e+003, 1.146265e-002
3.405672e+003, 1.118876e-002
3.407601e+003, 9.878611e-003
3.409529e+003, 1.105919e-002
3.411458e+003, 1.153255e-002
3.413386e+003, 1.177046e-002
3.415314e+003, 1.269044e-002
3.417243e+003, 1.322680e-002
3.419171e+003, 1.206531e-002
3.421100e+003, 1.192153e-002
3.423028e+003, 1.106299e-002
3.424957e+003, 1.074232e-002
3.426885e+003, 1.064058e-002
3.428814e+003, 1.160414e-002
3.430742e+003, 1.148364e-002
3.432671e+003, 1.155194e-002
3.434599e+003, 1.114146e-002
3.436528e+003, 1.127379e-002
3.438456e+003, 1.131990e-002
3.440385e+003, 1.156991e-002
3.442313e+003, 1.254856e-002
3.444241e+003, 1.331955e-002
3.446170e+003, 1.235764e-002
3.448098e+003, 1.066530e-002
3.450027e+003, 1.026307e-002
3.451955e+003, 1.004818e-002
3.453884e+003, 9.603946e-003
3.455812e+003, 1.063104e-002
3.457741e+003, 1.023072e-002
3.459669e+003, 9.484385e-003
3.461598e+003, 9.426326e-003
3.463526e+003, 1.120919e-002
3.465455e+003, 1.191764e-002
3.467383e+003, 1.130538e-002
3.469312e+003, 1.047486e-002
3.471240e+003, 1.100122e-002
3.473168e+003, 1.067588e-002
3.475097e+003, 1.079215e-002
3.477025e+003, 1.092027e-002
3.478954e+003, 1.215090e-002
3.480882e+003, 1.146431e-002
3.482811e+003, 8.786928e-003
3.484739e+003, 9.517327e-003
3.486668e+003, 9.950132e-003
3.488596e+003, 8.962547e-003
3.490525e+003, 1.005621e-002
3.492453e+003, 1.111620e-002
3.494382e+003, 1.237074e-002
3.496310e+003, 1.210665e-002
3.498239e+003, 1.021275e-002
3.500167e+003, 9.593067e-003
3.502095e+003, 9.237273e-003
3.504024e+003, 8.052092e-003
3.505952e+003, 9.633752e-003
3.507881e+003, 1.195008e-002
3.509809e+003, 1.321608e-002
3.511738e+003, 1.154401e-002
3.513666e+003, 1.029960e-002
3.515595e+003, 9.895964e-003
3.517523e+003, 1.050054e-002
3.519452e+003, 1.068230e-002
3.521380e+003, 9.787699e-003
3.523309e+003, 9.768864e-003
3.525237e+003, 1.087154e-002
3.527166e+003, 1.178609e-002
3.529094e+003, 1.051795e-002
3.531022e+003, 9.330760e-003
3.532951e+003, 1.028662e-002
3.534879e+003, 9.788085e-003
3.536808e+003, 9.987304e-003
3.538736e+003, 1.025856e-002
3.540665e+003, 9.892921e-003
3.542593e+003, 9.814504e-003
3.544522e+003, 1.011577e-002
3.546450e+003, 9.821656e-003
3.548379e+003, 1.041294e-002
3.550307e+003, 1.086314e-002
3.552236e+003, 1.088546e-002
3.554164e+003, 1.135961e-002
3.556093e+003, 1.133513e-002
3.558021e+003, 9.203044e-003
3.559949e+003, 9.631760e-003
3.561878e+003, 1.201292e-002
3.563806e+003, 1.263173e-002
3.565735e+003, 1.112743e-002
3.567663e+003, 1.135370e-002
3.569592e+003, 1.163031e-002
3.571520e+003, 1.228350e-002
3.573449e+003, 1.256372e-002
3.575377e+003, 1.312088e-002
3.577306e+003, 1.156466e-002
3.579234e+003, 9.837519e-003
3.581163e+003, 9.297491e-003
3.583091e+003, 9.401054e-003
3.585020e+003, 9.033309e-003
3.586948e+003, 1.003064e-002
3.588876e+003, 1.141068e-002
3.590805e+003, 1.020810e-002
3.592733e+003, 9.219078e-003
3.594662e+003, 1.022291e-002
3.596590e+003, 1.131312e-002
3.598519e+003, 1.216504e-002
3.600447e+003, 1.064559e-002
3.602376e+003, 9.949295e-003
3.604304e+003, 1.211423e-002
3.606233e+003, 1.292855e-002
3.608161e+003, 9.715497e-003
3.610090e+003, 8.922827e-003
3.612018e+003, 8.623987e-003
3.613947e+003, 9.050364e-003
3.615875e+003, 7.845121e-003
3.617803e+003, 8.960319e-003
3.619732e+003, 1.001430e-002
3.621660e+003, 1.200559e-002
3.623589e+003, 1.195026e-002
3.625517e+003, 1.081686e-002
3.627446e+003, 1.167596e-002
3.629374e+003, 1.194120e-002
3.631303e+003, 1.184131e-002
3.633231e+003, 1.019966e-002
3.635160e+003, 1.077044e-002
3.637088e+003, 1.069259e-002
3.639017e+003, 9.913313e-003
3.640945e+003, 9.710020e-003
3.642874e+003, 1.004198e-002
3.644802e+003, 1.097088e-002
3.646730e+003, 1.099016e-002
3.648659e+003, 8.857453e-003
3.650587e+003, 6.507616e-003
3.652516e+003, 8.392544e-003
3.654444e+003, 1.043610e-002
3.656373e+003, 1.037503e-002
3.658301e+003, 1.028954e-002
3.660230e+003, 8.908437e-003
3.662158e+003, 8.527038e-003
3.664087e+003, 9.645670e-003
3.666015e+003, 1.133451e-002
3.667944e+003, 1.179517e-002
3.669872e+003, 1.100693e-002
3.671801e+003, 1.062249e-002
3.673729e+003, 1.105619e-002
3.675657e+003, 1.022452e-002
3.677586e+003, 1.066262e-002
3.679514e+003, 9.407368e-003
3.681443e+003, 8.841266e-003
3.683371e+003, 1.313035e-002
3.685300e+003, 1.443978e-002
3.687228e+003, 1.276994e-002
3.689157e+003, 1.089124e-002
3.691085e+003, 1.026923e-002
3.693014e+003, 9.365446e-003
3.694942e+003, 8.753798e-003
3.696871e+003, 8.595134e-003
3.698799e+003, 9.869825e-003
3.700728e+003, 1.074317e-002
3.702656e+003, 1.007015e-002
3.704584e+003, 1.059515e-002
3.706513e+003, 1.084072e-002
3.708441e+003, 1.019471e-002
3.710370e+003, 9.813088e-003
3.712298e+003, 8.941378e-003
3.714227e+003, 1.068993e-002
3.716155e+003, 1.115493e-002
3.718084e+003, 1.027677e-002
3.720012e+003, 9.510042e-003
3.721941e+003, 1.000905e-002
3.723869e+003, 1.084144e-002
3.725798e+003, 9.644868e-003
3.727726e+003, 8.216351e-003
3.729655e+003, 8.661497e-003
3.731583e+003, 9.130215e-003
3.733511e+003, 9.701393e-003
3.735440e+003, 8.358744e-003
3.737368e+003, 8.400525e-003
3.739297e+003, 8.617156e-003
3.741225e+003, 9.367733e-003
3.743154e+003, 1.016926e-002
3.745082e+003, 7.353646e-003
3.747011e+003, 7.859797e-003
3.748939e+003, 7.700648e-003
3.750868e+003, 8.576364e-003
3.752796e+003, 8.236169e-003
3.754725e+003, 8.708270e-003
3.756653e+003, 1.034726e-002
3.758582e+003, 1.169060e-002
3.760510e+003, 1.079055e-002
3.762438e+003, 1.034764e-002
3.764367e+003, 9.859352e-003
3.766295e+003, 9.306705e-003
3.768224e+003, 1.005362e-002
3.770152e+003, 8.524710e-003
3.772081e+003, 1.047042e-002
3.774009e+003, 1.134618e-002
3.775938e+003, 9.997046e-003
3.777866e+003, 8.995956e-003
3.779795e+003, 9.052804e-003
3.781723e+003, 8.864548e-003
3.783652e+003, 8.183145e-003
3.785580e+003, 6.933327e-003
3.787509e+003, 8.235411e-003
3.789437e+003, 8.442171e-003
3.791365e+003, 8.845416e-003
3.793294e+003, 9.454508e-003
3.795222e+003, 1.130984e-002
3.797151e+003, 9.555489e-003
3.799079e+003, 7.579325e-003
3.801008e+003, 8.052467e-003
3.802936e+003, 1.034397e-002
3.804865e+003, 1.017553e-002
3.806793e+003, 8.942967e-003
3.808722e+003, 8.321485e-003
3.810650e+003, 1.110438e-002
3.812579e+003, 1.271624e-002
3.814507e+003, 1.125606e-002
3.816436e+003, 8.874126e-003
3.818364e+003, 9.647144e-003
3.820292e+003, 9.173766e-003
3.822221e+003, 9.846956e-003
3.824149e+003, 1.043815e-002
3.826078e+003, 8.535692e-003
3.828006e+003, 7.791906e-003
3.829935e+003, 9.341175e-003
3.831863e+003, 8.470237e-003
3.833792e+003, 8.295334e-003
3.835720e+003, 8.207057e-003
3.837649e+003, 7.875109e-003
3.839577e+003, 8.558027e-003
3.841506e+003, 1.115472e-002
3.843434e+003, 1.067922e-002
3.845363e+003, 9.658166e-003
3.847291e+003, 1.184817e-002
3.849219e+003, 1.127992e-002
3.851148e+003, 8.302745e-003
3.853076e+003, 7.410012e-003
3.855005e+003, 7.959015e-003
3.856933e+003, 1.023221e-002
3.858862e+003, 1.203746e-002
3.860790e+003, 1.169177e-002
3.862719e+003, 1.058779e-002
3.864647e+003, 1.232283e-002
3.866576e+003, 1.128021e-002
3.868504e+003, 1.019906e-002
3.870433e+003, 9.058061e-003
3.872361e+003, 1.015829e-002
3.874290e+003, 1.124087e-002
3.876218e+003, 1.202380e-002
3.878146e+003, 1.127897e-002
3.880075e+003, 1.080380e-002
3.882003e+003, 1.035600e-002
3.883932e+003, 1.018001e-002
3.885860e+003, 1.002283e-002
3.887789e+003, 1.059110e-002
3.889717e+003, 8.986268e-003
3.891646e+003, 9.900460e-003
3.893574e+003, 1.308362e-002
3.895503e+003, 1.182025e-002
3.897431e+003, 1.088969e-002
3.899360e+003, 1.212160e-002
3.901288e+003, 1.485956e-002
3.903217e+003, 1.488034e-002
3.905145e+003, 1.126811e-002
3.907073e+003, 1.010842e-002
3.909002e+003, 1.020578e-002
3.910930e+003, 9.834644e-003
3.912859e+003, 9.496192e-003
3.914787e+003, 8.602360e-003
3.916716e+003, 8.587918e-003
3.918644e+003, 9.202382e-003
3.920573e+003, 8.962633e-003
3.922501e+003, 9.597901e-003
3.924430e+003, 9.328793e-003
3.926358e+003, 9.786169e-003
3.928287e+003, 7.735109e-003
3.930215e+003, 8.597483e-003
3.932144e+003, 9.458764e-003
3.934072e+003, 1.134590e-002
3.936000e+003, 1.269257e-002
3.937929e+003, 1.127722e-002
3.939857e+003, 9.770687e-003
3.941786e+003, 9.380622e-003
3.943714e+003, 8.141076e-003
3.945643e+003, 8.241687e-003
3.947571e+003, 9.846243e-003
3.949500e+003, 1.232261e-002
3.951428e+003, 1.475653e-002
3.953357e+003, 1.517236e-002
3.955285e+003, 1.431463e-002
3.957214e+003, 1.213760e-002
3.959142e+003, 8.678310e-003
3.961071e+003, 8.189627e-003
3.962999e+003, 9.275176e-003
3.964927e+003, 1.134796e-002
3.966856e+003, 1.195549e-002
3.968784e+003, 1.263164e-002
3.970713e+003, 1.002283e-002
3.972641e+003, 9.389742e-003
3.974570e+003, 1.067887e-002
3.976498e+003, 1.009518e-002
3.978427e+003, 1.057415e-002
3.980355e+003, 1.037469e-002
3.982284e+003, 1.057137e-002
3.984212e+003, 1.023853e-002
3.986141e+003, 9.699049e-003
3.988069e+003, 9.775018e-003
3.989998e+003, 9.987931e-003
3.991926e+003, 1.139718e-002
3.993854e+003, 1.140606e-002
3.995783e+003, 1.091614e-002
3.997711e+003, 1.052207e-002
3.999640e+003, 1.052961e-002
##END=



