##NAMES=Cornwallite
##RRUFFID=R050469
##IDEAL CHEMISTRY=Cu^2+^_5_(As^5+^O_4_)_2_(OH)_4_
##LOCALITY=Carissa mine, Tintic District, Utah, USA
##OWNER=RRUFF
##SOURCE=University of Arizona Mineral Museum
##DESCRIPTION=Dark green botryoidal crust
##STATUS=The identification of this mineral has been confirmed by X-ray diffraction and chemical analysis
##URL=rruff.info/R050469
##MEASURED CHEMISTRY=(Cu_4.98_Ca_0.02_)_Î£=5_(As_1.00_O_4_)_2_(OH)_4_ ; OH estimated by difference and charge balance
3.741225e+002, 1.650960e-001
3.760510e+002, 1.555135e-001
3.779795e+002, 1.343700e-001
3.799079e+002, 1.321118e-001
3.818364e+002, 1.304216e-001
3.837649e+002, 1.270090e-001
3.856933e+002, 1.274445e-001
3.876218e+002, 1.265995e-001
3.895503e+002, 1.298219e-001
3.914787e+002, 1.329026e-001
3.934072e+002, 1.286266e-001
3.953357e+002, 1.262468e-001
3.972641e+002, 1.337066e-001
3.991926e+002, 1.410879e-001
4.011211e+002, 1.342088e-001
4.030495e+002, 1.331294e-001
4.049780e+002, 1.356298e-001
4.069065e+002, 1.420439e-001
4.088349e+002, 1.505964e-001
4.107634e+002, 1.599365e-001
4.126919e+002, 1.700547e-001
4.146203e+002, 1.747761e-001
4.165488e+002, 1.756802e-001
4.184773e+002, 1.833805e-001
4.204057e+002, 1.872295e-001
4.223342e+002, 1.904380e-001
4.242627e+002, 1.938316e-001
4.261911e+002, 1.946271e-001
4.281196e+002, 1.933451e-001
4.300481e+002, 1.939773e-001
4.319765e+002, 1.922952e-001
4.339050e+002, 1.913012e-001
4.358335e+002, 1.934024e-001
4.377619e+002, 1.966604e-001
4.396904e+002, 1.972540e-001
4.416189e+002, 2.001678e-001
4.435473e+002, 2.020952e-001
4.454758e+002, 2.029354e-001
4.474043e+002, 2.036603e-001
4.493327e+002, 2.011199e-001
4.512612e+002, 1.977624e-001
4.531897e+002, 1.945001e-001
4.551181e+002, 1.925988e-001
4.570466e+002, 1.923426e-001
4.589751e+002, 1.902218e-001
4.609035e+002, 1.900061e-001
4.628320e+002, 1.905881e-001
4.647605e+002, 1.903107e-001
4.666889e+002, 1.873717e-001
4.686174e+002, 1.831914e-001
4.705459e+002, 1.777696e-001
4.724743e+002, 1.710986e-001
4.744028e+002, 1.640359e-001
4.763313e+002, 1.591245e-001
4.782597e+002, 1.546267e-001
4.801882e+002, 1.513265e-001
4.821167e+002, 1.497777e-001
4.840451e+002, 1.488946e-001
4.859736e+002, 1.485717e-001
4.879021e+002, 1.501649e-001
4.898305e+002, 1.525805e-001
4.917590e+002, 1.543079e-001
4.936875e+002, 1.547518e-001
4.956159e+002, 1.554519e-001
4.975444e+002, 1.573285e-001
4.994729e+002, 1.603697e-001
5.014013e+002, 1.632677e-001
5.033298e+002, 1.647154e-001
5.052583e+002, 1.663695e-001
5.071867e+002, 1.669078e-001
5.091152e+002, 1.660590e-001
5.110437e+002, 1.637136e-001
5.129721e+002, 1.609078e-001
5.149006e+002, 1.574768e-001
5.168290e+002, 1.535794e-001
5.187575e+002, 1.498338e-001
5.206860e+002, 1.459684e-001
5.226144e+002, 1.426539e-001
5.245429e+002, 1.406121e-001
5.264714e+002, 1.395413e-001
5.283998e+002, 1.391507e-001
5.303283e+002, 1.397892e-001
5.322568e+002, 1.402684e-001
5.341852e+002, 1.402445e-001
5.361137e+002, 1.400331e-001
5.380422e+002, 1.389105e-001
5.399706e+002, 1.375272e-001
5.418991e+002, 1.362719e-001
5.438276e+002, 1.344102e-001
5.457560e+002, 1.316094e-001
5.476845e+002, 1.285533e-001
5.496130e+002, 1.252884e-001
5.515414e+002, 1.207573e-001
5.534699e+002, 1.157272e-001
5.553984e+002, 1.095630e-001
5.573268e+002, 1.026220e-001
5.592553e+002, 9.621430e-002
5.611838e+002, 8.946642e-002
5.631122e+002, 8.271056e-002
5.650407e+002, 7.685240e-002
5.669692e+002, 7.154463e-002
5.688976e+002, 6.662207e-002
5.708261e+002, 6.212588e-002
5.727546e+002, 5.842865e-002
5.746830e+002, 5.588417e-002
5.766115e+002, 5.390985e-002
5.785400e+002, 5.240196e-002
5.804684e+002, 5.087564e-002
5.823969e+002, 4.943509e-002
5.843254e+002, 4.864395e-002
5.862538e+002, 4.800512e-002
5.881823e+002, 4.688795e-002
5.901108e+002, 4.575261e-002
5.920392e+002, 4.471073e-002
5.939677e+002, 4.381472e-002
5.958962e+002, 4.345834e-002
5.978246e+002, 4.312347e-002
5.997531e+002, 4.267039e-002
6.016816e+002, 4.243410e-002
6.036100e+002, 4.242631e-002
6.055385e+002, 4.226172e-002
6.074670e+002, 4.236880e-002
6.093954e+002, 4.240879e-002
6.113239e+002, 4.254820e-002
6.132524e+002, 4.280815e-002
6.151808e+002, 4.302900e-002
6.171093e+002, 4.322079e-002
6.190378e+002, 4.328682e-002
6.209662e+002, 4.374445e-002
6.228947e+002, 4.395408e-002
6.248232e+002, 4.390315e-002
6.267516e+002, 4.398671e-002
6.286801e+002, 4.413460e-002
6.306086e+002, 4.486957e-002
6.325370e+002, 4.553176e-002
6.344655e+002, 4.622199e-002
6.363940e+002, 4.710927e-002
6.383224e+002, 4.788578e-002
6.402509e+002, 4.845324e-002
6.421794e+002, 4.891013e-002
6.441078e+002, 4.954483e-002
6.460363e+002, 5.040107e-002
6.479648e+002, 5.122247e-002
6.498932e+002, 5.185860e-002
6.518217e+002, 5.269201e-002
6.537502e+002, 5.365543e-002
6.556786e+002, 5.470434e-002
6.576071e+002, 5.551568e-002
6.595356e+002, 5.634383e-002
6.614641e+002, 5.727411e-002
6.633925e+002, 5.832951e-002
6.653210e+002, 5.949658e-002
6.672495e+002, 6.097791e-002
6.691779e+002, 6.210940e-002
6.711064e+002, 6.312703e-002
6.730349e+002, 6.466284e-002
6.749633e+002, 6.614133e-002
6.768918e+002, 6.761050e-002
6.788203e+002, 6.910187e-002
6.807487e+002, 7.049923e-002
6.826772e+002, 7.203856e-002
6.846057e+002, 7.387043e-002
6.865341e+002, 7.602604e-002
6.884626e+002, 7.803166e-002
6.903911e+002, 8.002548e-002
6.923195e+002, 8.246554e-002
6.942480e+002, 8.511153e-002
6.961765e+002, 8.721000e-002
6.981049e+002, 8.928557e-002
7.000334e+002, 9.154446e-002
7.019619e+002, 9.406246e-002
7.038903e+002, 9.691777e-002
7.058188e+002, 9.996266e-002
7.077473e+002, 1.030999e-001
7.096757e+002, 1.064842e-001
7.116042e+002, 1.100508e-001
7.135327e+002, 1.132442e-001
7.154611e+002, 1.161912e-001
7.173896e+002, 1.194484e-001
7.193181e+002, 1.235223e-001
7.212465e+002, 1.279119e-001
7.231750e+002, 1.326597e-001
7.251035e+002, 1.377912e-001
7.270319e+002, 1.427673e-001
7.289604e+002, 1.479598e-001
7.308889e+002, 1.534464e-001
7.328173e+002, 1.592903e-001
7.347458e+002, 1.656041e-001
7.366743e+002, 1.720737e-001
7.386027e+002, 1.785933e-001
7.405312e+002, 1.855084e-001
7.424597e+002, 1.927146e-001
7.443881e+002, 2.004795e-001
7.463166e+002, 2.083641e-001
7.482451e+002, 2.160124e-001
7.501735e+002, 2.233142e-001
7.521020e+002, 2.302196e-001
7.540305e+002, 2.373698e-001
7.559589e+002, 2.451191e-001
7.578874e+002, 2.530563e-001
7.598159e+002, 2.613128e-001
7.617443e+002, 2.698110e-001
7.636728e+002, 2.782484e-001
7.656013e+002, 2.866597e-001
7.675297e+002, 2.943318e-001
7.694582e+002, 3.004441e-001
7.713867e+002, 3.053781e-001
7.733151e+002, 3.089423e-001
7.752436e+002, 3.109005e-001
7.771721e+002, 3.107868e-001
7.791005e+002, 3.086989e-001
7.810290e+002, 3.051454e-001
7.829575e+002, 3.016541e-001
7.848859e+002, 2.991482e-001
7.868144e+002, 2.971810e-001
7.887429e+002, 2.962897e-001
7.906713e+002, 2.976548e-001
7.925998e+002, 3.009039e-001
7.945283e+002, 3.055649e-001
7.964567e+002, 3.110302e-001
7.983852e+002, 3.166685e-001
8.003137e+002, 3.222984e-001
8.022421e+002, 3.276341e-001
8.041706e+002, 3.312891e-001
8.060991e+002, 3.331287e-001
8.080275e+002, 3.344309e-001
8.099560e+002, 3.347978e-001
8.118845e+002, 3.337603e-001
8.138129e+002, 3.322859e-001
8.157414e+002, 3.303637e-001
8.176699e+002, 3.278107e-001
8.195983e+002, 3.243407e-001
8.215268e+002, 3.213493e-001
8.234553e+002, 3.194178e-001
8.253837e+002, 3.173881e-001
8.273122e+002, 3.139094e-001
8.292407e+002, 3.090844e-001
8.311691e+002, 3.020443e-001
8.330976e+002, 2.932327e-001
8.350261e+002, 2.840013e-001
8.369545e+002, 2.744296e-001
8.388830e+002, 2.643130e-001
8.408115e+002, 2.539980e-001
8.427399e+002, 2.437291e-001
8.446684e+002, 2.340357e-001
8.465969e+002, 2.250031e-001
8.485253e+002, 2.169368e-001
8.504538e+002, 2.098434e-001
8.523823e+002, 2.039534e-001
8.543107e+002, 1.995057e-001
8.562392e+002, 1.969643e-001
8.581677e+002, 1.960428e-001
8.600961e+002, 1.955390e-001
8.620246e+002, 1.929644e-001
8.639531e+002, 1.874528e-001
8.658815e+002, 1.793631e-001
8.678100e+002, 1.696468e-001
8.697385e+002, 1.600897e-001
8.716669e+002, 1.515782e-001
8.735954e+002, 1.443179e-001
8.755239e+002, 1.387145e-001
8.774523e+002, 1.349046e-001
8.793808e+002, 1.328589e-001
8.813093e+002, 1.319537e-001
8.832377e+002, 1.313251e-001
8.851662e+002, 1.302596e-001
8.870947e+002, 1.282442e-001
8.890231e+002, 1.251957e-001
8.909516e+002, 1.214844e-001
8.928801e+002, 1.172079e-001
8.948085e+002, 1.124092e-001
8.967370e+002, 1.073011e-001
8.986655e+002, 1.024804e-001
9.005939e+002, 9.802806e-002
9.025224e+002, 9.418644e-002
9.044509e+002, 9.066745e-002
9.063793e+002, 8.752634e-002
9.083078e+002, 8.462078e-002
9.102363e+002, 8.165665e-002
9.121647e+002, 7.828758e-002
9.140932e+002, 7.454038e-002
9.160217e+002, 7.057106e-002
9.179501e+002, 6.640842e-002
9.198786e+002, 6.224076e-002
9.218071e+002, 5.832754e-002
9.237355e+002, 5.492946e-002
9.256640e+002, 5.197485e-002
9.275925e+002, 4.945344e-002
9.295209e+002, 4.753173e-002
9.314494e+002, 4.619258e-002
9.333779e+002, 4.507431e-002
9.353063e+002, 4.402722e-002
9.372348e+002, 4.341333e-002
9.391633e+002, 4.331336e-002
9.410917e+002, 4.332512e-002
9.430202e+002, 4.349524e-002
9.449487e+002, 4.394272e-002
9.468771e+002, 4.449468e-002
9.488056e+002, 4.511628e-002
9.507341e+002, 4.562451e-002
9.526625e+002, 4.615124e-002
9.545910e+002, 4.667287e-002
9.565195e+002, 4.697238e-002
9.584479e+002, 4.724943e-002
9.603764e+002, 4.768787e-002
9.623049e+002, 4.827237e-002
9.642333e+002, 4.899845e-002
9.661618e+002, 4.978175e-002
9.680903e+002, 5.087262e-002
9.700187e+002, 5.218794e-002
9.719472e+002, 5.339719e-002
9.738757e+002, 5.406789e-002
9.758041e+002, 5.387683e-002
9.777326e+002, 5.299244e-002
9.796611e+002, 5.139695e-002
9.815895e+002, 4.886471e-002
9.835180e+002, 4.576982e-002
9.854465e+002, 4.280115e-002
9.873749e+002, 4.007355e-002
9.893034e+002, 3.751973e-002
9.912319e+002, 3.528417e-002
9.931603e+002, 3.354170e-002
9.950888e+002, 3.223561e-002
9.970173e+002, 3.108927e-002
9.989457e+002, 3.021350e-002
1.000874e+003, 2.944824e-002
1.002803e+003, 2.870006e-002
1.004731e+003, 2.822668e-002
1.006660e+003, 2.781218e-002
1.008588e+003, 2.745051e-002
1.010517e+003, 2.735102e-002
1.012445e+003, 2.728720e-002
1.014373e+003, 2.712226e-002
1.016302e+003, 2.714259e-002
1.018230e+003, 2.731603e-002
1.020159e+003, 2.743403e-002
1.022087e+003, 2.759316e-002
1.024016e+003, 2.777844e-002
1.025944e+003, 2.795199e-002
1.027873e+003, 2.829371e-002
1.029801e+003, 2.891992e-002
1.031730e+003, 2.956282e-002
1.033658e+003, 2.994449e-002
1.035587e+003, 3.050734e-002
1.037515e+003, 3.157978e-002
1.039443e+003, 3.264792e-002
1.041372e+003, 3.352148e-002
1.043300e+003, 3.453458e-002
1.045229e+003, 3.551456e-002
1.047157e+003, 3.602732e-002
1.049086e+003, 3.639214e-002
1.051014e+003, 3.621902e-002
1.052943e+003, 3.532970e-002
1.054871e+003, 3.445082e-002
1.056800e+003, 3.341634e-002
1.058728e+003, 3.215259e-002
1.060657e+003, 3.090899e-002
1.062585e+003, 2.949048e-002
1.064514e+003, 2.796505e-002
1.066442e+003, 2.645631e-002
1.068370e+003, 2.508417e-002
1.070299e+003, 2.387887e-002
1.072227e+003, 2.296455e-002
1.074156e+003, 2.212565e-002
1.076084e+003, 2.152504e-002
1.078013e+003, 2.116070e-002
1.079941e+003, 2.102637e-002
1.081870e+003, 2.087070e-002
1.083798e+003, 2.070166e-002
1.085727e+003, 2.077537e-002
1.087655e+003, 2.105631e-002
1.089584e+003, 2.164558e-002
1.091512e+003, 2.242806e-002
1.093441e+003, 2.331137e-002
1.095369e+003, 2.426538e-002
1.097297e+003, 2.489964e-002
1.099226e+003, 2.500775e-002
1.101154e+003, 2.457396e-002
1.103083e+003, 2.371410e-002
1.105011e+003, 2.269876e-002
1.106940e+003, 2.191413e-002
1.108868e+003, 2.127290e-002
1.110797e+003, 2.073185e-002
1.112725e+003, 2.008966e-002
1.114654e+003, 1.958792e-002
1.116582e+003, 1.930154e-002
1.118511e+003, 1.885351e-002
1.120439e+003, 1.824084e-002
1.122368e+003, 1.773398e-002
1.124296e+003, 1.732447e-002
1.126224e+003, 1.705428e-002
1.128153e+003, 1.692942e-002
1.130081e+003, 1.666553e-002
1.132010e+003, 1.627313e-002
1.133938e+003, 1.596255e-002
1.135867e+003, 1.573684e-002
1.137795e+003, 1.549923e-002
1.139724e+003, 1.534410e-002
1.141652e+003, 1.505045e-002
1.143581e+003, 1.472052e-002
1.145509e+003, 1.436086e-002
1.147438e+003, 1.412991e-002
1.149366e+003, 1.414633e-002
1.151295e+003, 1.409555e-002
1.153223e+003, 1.390492e-002
1.155151e+003, 1.378192e-002
1.157080e+003, 1.373968e-002
1.159008e+003, 1.364056e-002
1.160937e+003, 1.372148e-002
1.162865e+003, 1.382129e-002
1.164794e+003, 1.372519e-002
1.166722e+003, 1.361749e-002
1.168651e+003, 1.349527e-002
1.170579e+003, 1.339750e-002
1.172508e+003, 1.342472e-002
1.174436e+003, 1.343173e-002
1.176365e+003, 1.336024e-002
1.178293e+003, 1.334571e-002
1.180222e+003, 1.329426e-002
1.182150e+003, 1.322293e-002
1.184078e+003, 1.321447e-002
1.186007e+003, 1.320354e-002
1.187935e+003, 1.333935e-002
1.189864e+003, 1.327532e-002
1.191792e+003, 1.308218e-002
1.193721e+003, 1.305532e-002
1.195649e+003, 1.305127e-002
1.197578e+003, 1.299334e-002
1.199506e+003, 1.289321e-002
1.201435e+003, 1.267153e-002
1.203363e+003, 1.245894e-002
1.205292e+003, 1.246656e-002
1.207220e+003, 1.228463e-002
1.209149e+003, 1.219754e-002
1.211077e+003, 1.215753e-002
1.213005e+003, 1.203973e-002
1.214934e+003, 1.202778e-002
1.216862e+003, 1.198005e-002
1.218791e+003, 1.193906e-002
1.220719e+003, 1.200702e-002
1.222648e+003, 1.205761e-002
1.224576e+003, 1.202204e-002
1.226505e+003, 1.198806e-002
1.228433e+003, 1.194972e-002
1.230362e+003, 1.207772e-002
1.232290e+003, 1.232168e-002
1.234219e+003, 1.239988e-002
1.236147e+003, 1.242203e-002
1.238076e+003, 1.245207e-002
1.240004e+003, 1.242420e-002
1.241932e+003, 1.262375e-002
1.243861e+003, 1.277694e-002
1.245789e+003, 1.290065e-002
1.247718e+003, 1.308751e-002
1.249646e+003, 1.318163e-002
1.251575e+003, 1.332006e-002
1.253503e+003, 1.361502e-002
1.255432e+003, 1.381249e-002
1.257360e+003, 1.397687e-002
1.259289e+003, 1.423504e-002
1.261217e+003, 1.438887e-002
1.263146e+003, 1.454993e-002
1.265074e+003, 1.491475e-002
1.267003e+003, 1.550148e-002
1.268931e+003, 1.608029e-002
1.270859e+003, 1.657768e-002
1.272788e+003, 1.721168e-002
1.274716e+003, 1.789548e-002
1.276645e+003, 1.859132e-002
1.278573e+003, 1.921193e-002
1.280502e+003, 1.962743e-002
1.282430e+003, 2.009488e-002
1.284359e+003, 2.050488e-002
1.286287e+003, 2.078837e-002
1.288216e+003, 2.110868e-002
1.290144e+003, 2.144453e-002
1.292073e+003, 2.188829e-002
1.294001e+003, 2.235574e-002
1.295930e+003, 2.265069e-002
1.297858e+003, 2.278115e-002
1.299786e+003, 2.305554e-002
1.301715e+003, 2.348311e-002
1.303643e+003, 2.374880e-002
1.305572e+003, 2.399631e-002
1.307500e+003, 2.423020e-002
1.309429e+003, 2.455194e-002
1.311357e+003, 2.483378e-002
1.313286e+003, 2.493198e-002
1.315214e+003, 2.514080e-002
1.317143e+003, 2.551291e-002
1.319071e+003, 2.581598e-002
1.321000e+003, 2.635953e-002
1.322928e+003, 2.689665e-002
1.324857e+003, 2.727458e-002
1.326785e+003, 2.786230e-002
1.328714e+003, 2.831807e-002
1.330642e+003, 2.883183e-002
1.332570e+003, 2.953593e-002
1.334499e+003, 3.026986e-002
1.336427e+003, 3.101591e-002
1.338356e+003, 3.184507e-002
1.340284e+003, 3.267549e-002
1.342213e+003, 3.350956e-002
1.344141e+003, 3.435461e-002
1.346070e+003, 3.524103e-002
1.347998e+003, 3.625754e-002
1.349927e+003, 3.714681e-002
1.351855e+003, 3.798576e-002
1.353784e+003, 3.885385e-002
1.355712e+003, 3.949505e-002
1.357641e+003, 4.020400e-002
1.359569e+003, 4.124169e-002
1.361497e+003, 4.235189e-002
1.363426e+003, 4.357046e-002
1.365354e+003, 4.479121e-002
1.367283e+003, 4.596939e-002
1.369211e+003, 4.742702e-002
1.371140e+003, 4.893693e-002
1.373068e+003, 5.053250e-002
1.374997e+003, 5.227002e-002
1.376925e+003, 5.409875e-002
1.378854e+003, 5.585064e-002
1.380782e+003, 5.742788e-002
1.382711e+003, 5.898875e-002
1.384639e+003, 6.062401e-002
1.386568e+003, 6.232096e-002
1.388496e+003, 6.363486e-002
1.390424e+003, 6.474996e-002
1.392353e+003, 6.586108e-002
1.394281e+003, 6.650885e-002
1.396210e+003, 6.675690e-002
1.398138e+003, 6.682242e-002
1.400067e+003, 6.627583e-002
1.401995e+003, 6.519593e-002
1.403924e+003, 6.401162e-002
1.405852e+003, 6.287593e-002
1.407781e+003, 6.183047e-002
1.409709e+003, 6.095204e-002
1.411638e+003, 6.008739e-002
1.413566e+003, 5.941018e-002
1.415495e+003, 5.886989e-002
1.417423e+003, 5.859502e-002
1.419351e+003, 5.820179e-002
1.421280e+003, 5.748036e-002
1.423208e+003, 5.675253e-002
1.425137e+003, 5.574913e-002
1.427065e+003, 5.455640e-002
1.428994e+003, 5.331650e-002
1.430922e+003, 5.171415e-002
1.432851e+003, 4.978097e-002
1.434779e+003, 4.814238e-002
1.436708e+003, 4.661266e-002
1.438636e+003, 4.498129e-002
1.440565e+003, 4.339647e-002
1.442493e+003, 4.200790e-002
1.444422e+003, 4.092345e-002
1.446350e+003, 4.020338e-002
1.448278e+003, 3.989227e-002
1.450207e+003, 3.961715e-002
1.452135e+003, 3.936913e-002
1.454064e+003, 3.944490e-002
1.455992e+003, 4.011724e-002
1.457921e+003, 4.061745e-002
1.459849e+003, 4.101364e-002
1.461778e+003, 4.185474e-002
1.463706e+003, 4.270907e-002
1.465635e+003, 4.319303e-002
1.467563e+003, 4.323581e-002
1.469492e+003, 4.354258e-002
1.471420e+003, 4.441028e-002
1.473349e+003, 4.549961e-002
1.475277e+003, 4.668026e-002
1.477205e+003, 4.810303e-002
1.479134e+003, 4.968403e-002
1.481062e+003, 5.167062e-002
1.482991e+003, 5.352673e-002
1.484919e+003, 5.525385e-002
1.486848e+003, 5.702594e-002
1.488776e+003, 5.848808e-002
1.490705e+003, 5.945953e-002
1.492633e+003, 6.030121e-002
1.494562e+003, 6.101738e-002
1.496490e+003, 6.163169e-002
1.498419e+003, 6.176221e-002
1.500347e+003, 6.151316e-002
1.502276e+003, 6.121334e-002
1.504204e+003, 6.125633e-002
1.506132e+003, 6.125463e-002
1.508061e+003, 6.049337e-002
1.509989e+003, 5.943276e-002
1.511918e+003, 5.850358e-002
1.513846e+003, 5.769694e-002
1.515775e+003, 5.696860e-002
1.517703e+003, 5.595436e-002
1.519632e+003, 5.510081e-002
1.521560e+003, 5.422416e-002
1.523489e+003, 5.280306e-002
1.525417e+003, 5.136434e-002
1.527346e+003, 4.995077e-002
1.529274e+003, 4.832054e-002
1.531203e+003, 4.667897e-002
1.533131e+003, 4.512471e-002
1.535059e+003, 4.342915e-002
1.536988e+003, 4.189822e-002
1.538916e+003, 4.059103e-002
1.540845e+003, 3.896200e-002
1.542773e+003, 3.714114e-002
1.544702e+003, 3.553416e-002
1.546630e+003, 3.415360e-002
1.548559e+003, 3.296539e-002
1.550487e+003, 3.178585e-002
1.552416e+003, 3.062955e-002
1.554344e+003, 2.981545e-002
1.556273e+003, 2.906750e-002
1.558201e+003, 2.865852e-002
1.560130e+003, 2.781443e-002
1.562058e+003, 2.658612e-002
1.563986e+003, 2.570474e-002
1.565915e+003, 2.513758e-002
1.567843e+003, 2.471444e-002
1.569772e+003, 2.435311e-002
1.571700e+003, 2.379101e-002
1.573629e+003, 2.359618e-002
1.575557e+003, 2.357166e-002
1.577486e+003, 2.310367e-002
1.579414e+003, 2.255856e-002
1.581343e+003, 2.233361e-002
1.583271e+003, 2.228319e-002
1.585200e+003, 2.215556e-002
1.587128e+003, 2.200039e-002
1.589057e+003, 2.184764e-002
1.590985e+003, 2.176257e-002
1.592913e+003, 2.164217e-002
1.594842e+003, 2.151944e-002
1.596770e+003, 2.136336e-002
1.598699e+003, 2.122097e-002
1.600627e+003, 2.107271e-002
1.602556e+003, 2.080216e-002
1.604484e+003, 2.065571e-002
1.606413e+003, 2.058465e-002
1.608341e+003, 2.046750e-002
1.610270e+003, 2.041837e-002
1.612198e+003, 2.040795e-002
1.614127e+003, 2.045857e-002
1.616055e+003, 2.078322e-002
1.617984e+003, 2.046562e-002
1.619912e+003, 2.011257e-002
1.621840e+003, 2.027212e-002
1.623769e+003, 2.027274e-002
1.625697e+003, 2.013784e-002
1.627626e+003, 2.009637e-002
1.629554e+003, 2.008540e-002
1.631483e+003, 2.010422e-002
1.633411e+003, 2.023607e-002
1.635340e+003, 2.029637e-002
1.637268e+003, 2.005447e-002
1.639197e+003, 1.980490e-002
1.641125e+003, 1.975815e-002
1.643054e+003, 1.994404e-002
1.644982e+003, 2.029782e-002
1.646911e+003, 2.024578e-002
1.648839e+003, 1.993561e-002
1.650767e+003, 2.000972e-002
1.652696e+003, 2.035436e-002
1.654624e+003, 1.993809e-002
1.656553e+003, 1.933858e-002
1.658481e+003, 1.914148e-002
1.660410e+003, 1.904883e-002
1.662338e+003, 1.905840e-002
1.664267e+003, 1.906120e-002
1.666195e+003, 1.887246e-002
1.668124e+003, 1.875521e-002
1.670052e+003, 1.870512e-002
1.671981e+003, 1.854955e-002
1.673909e+003, 1.859905e-002
1.675838e+003, 1.871670e-002
1.677766e+003, 1.838725e-002
1.679694e+003, 1.818598e-002
1.681623e+003, 1.819515e-002
1.683551e+003, 1.852239e-002
1.685480e+003, 1.846096e-002
1.687408e+003, 1.806885e-002
1.689337e+003, 1.783584e-002
1.691265e+003, 1.768615e-002
1.693194e+003, 1.770166e-002
1.695122e+003, 1.796213e-002
1.697051e+003, 1.786993e-002
1.698979e+003, 1.800882e-002
1.700908e+003, 1.808309e-002
1.702836e+003, 1.756618e-002
1.704765e+003, 1.746096e-002
1.706693e+003, 1.728128e-002
1.708621e+003, 1.725625e-002
1.710550e+003, 1.717445e-002
1.712478e+003, 1.706671e-002
1.714407e+003, 1.733119e-002
1.716335e+003, 1.753325e-002
1.718264e+003, 1.716549e-002
1.720192e+003, 1.688026e-002
1.722121e+003, 1.693928e-002
1.724049e+003, 1.703597e-002
1.725978e+003, 1.693896e-002
1.727906e+003, 1.692345e-002
1.729835e+003, 1.695377e-002
1.731763e+003, 1.725115e-002
1.733692e+003, 1.751456e-002
1.735620e+003, 1.697883e-002
1.737548e+003, 1.620395e-002
1.739477e+003, 1.586175e-002
1.741405e+003, 1.579679e-002
1.743334e+003, 1.575884e-002
1.745262e+003, 1.557767e-002
1.747191e+003, 1.580937e-002
1.749119e+003, 1.600549e-002
1.751048e+003, 1.596607e-002
1.752976e+003, 1.570084e-002
1.754905e+003, 1.578869e-002
1.756833e+003, 1.584740e-002
1.758762e+003, 1.604266e-002
1.760690e+003, 1.608563e-002
1.762619e+003, 1.596352e-002
1.764547e+003, 1.599585e-002
1.766475e+003, 1.633260e-002
1.768404e+003, 1.647697e-002
1.770332e+003, 1.651508e-002
1.772261e+003, 1.664479e-002
1.774189e+003, 1.651478e-002
1.776118e+003, 1.614082e-002
1.778046e+003, 1.607214e-002
1.779975e+003, 1.630018e-002
1.781903e+003, 1.631875e-002
1.783832e+003, 1.633496e-002
1.785760e+003, 1.634029e-002
1.787689e+003, 1.641256e-002
1.789617e+003, 1.673182e-002
1.791546e+003, 1.679637e-002
1.793474e+003, 1.653415e-002
1.795402e+003, 1.635908e-002
1.797331e+003, 1.659142e-002
1.799259e+003, 1.674912e-002
1.801188e+003, 1.696898e-002
1.803116e+003, 1.723879e-002
1.805045e+003, 1.717384e-002
1.806973e+003, 1.702826e-002
1.808902e+003, 1.714052e-002
1.810830e+003, 1.705467e-002
1.812759e+003, 1.713004e-002
1.814687e+003, 1.686497e-002
1.816616e+003, 1.673335e-002
1.818544e+003, 1.715367e-002
1.820473e+003, 1.737976e-002
1.822401e+003, 1.737273e-002
1.824329e+003, 1.756952e-002
1.826258e+003, 1.750018e-002
1.828186e+003, 1.720637e-002
1.830115e+003, 1.709799e-002
1.832043e+003, 1.713666e-002
1.833972e+003, 1.734845e-002
1.835900e+003, 1.745914e-002
1.837829e+003, 1.742987e-002
1.839757e+003, 1.751470e-002
1.841686e+003, 1.772938e-002
1.843614e+003, 1.814995e-002
1.845543e+003, 1.799712e-002
1.847471e+003, 1.798637e-002
1.849400e+003, 1.801718e-002
1.851328e+003, 1.778545e-002
1.853256e+003, 1.795956e-002
1.855185e+003, 1.798654e-002
1.857113e+003, 1.811599e-002
1.859042e+003, 1.827416e-002
1.860970e+003, 1.825560e-002
1.862899e+003, 1.824812e-002
1.864827e+003, 1.803719e-002
1.866756e+003, 1.837688e-002
1.868684e+003, 1.869259e-002
1.870613e+003, 1.827512e-002
1.872541e+003, 1.817778e-002
1.874470e+003, 1.820749e-002
1.876398e+003, 1.813824e-002
1.878327e+003, 1.837588e-002
1.880255e+003, 1.865725e-002
1.882183e+003, 1.859268e-002
1.884112e+003, 1.836002e-002
1.886040e+003, 1.861243e-002
1.887969e+003, 1.887621e-002
1.889897e+003, 1.868592e-002
1.891826e+003, 1.824898e-002
1.893754e+003, 1.798585e-002
1.895683e+003, 1.791737e-002
1.897611e+003, 1.803585e-002
1.899540e+003, 1.778255e-002
1.901468e+003, 1.817993e-002
1.903397e+003, 1.850189e-002
1.905325e+003, 1.867333e-002
1.907254e+003, 1.867775e-002
1.909182e+003, 1.841692e-002
1.911110e+003, 1.844264e-002
1.913039e+003, 1.856165e-002
1.914967e+003, 1.853027e-002
1.916896e+003, 1.865675e-002
1.918824e+003, 1.871037e-002
1.920753e+003, 1.859517e-002
1.922681e+003, 1.813134e-002
1.924610e+003, 1.852525e-002
1.926538e+003, 1.897062e-002
1.928467e+003, 1.851220e-002
1.930395e+003, 1.828083e-002
1.932324e+003, 1.857836e-002
1.934252e+003, 1.877894e-002
1.936181e+003, 1.897219e-002
1.938109e+003, 1.861533e-002
1.940037e+003, 1.796143e-002
1.941966e+003, 1.753078e-002
1.943894e+003, 1.813091e-002
1.945823e+003, 1.832065e-002
1.947751e+003, 1.791484e-002
1.949680e+003, 1.710925e-002
1.951608e+003, 1.712353e-002
1.953537e+003, 1.773834e-002
1.955465e+003, 1.811260e-002
1.957394e+003, 1.798525e-002
1.959322e+003, 1.811504e-002
1.961251e+003, 1.840587e-002
1.963179e+003, 1.725021e-002
1.965108e+003, 1.577323e-002
1.967036e+003, 1.770041e-002
1.968964e+003, 1.848973e-002
1.970893e+003, 1.782532e-002
1.972821e+003, 1.790477e-002
1.974750e+003, 1.848195e-002
1.976678e+003, 1.896691e-002
1.978607e+003, 1.963699e-002
1.980535e+003, 2.047100e-002
1.982464e+003, 2.004519e-002
1.984392e+003, 2.012768e-002
1.986321e+003, 1.978567e-002
1.988249e+003, 1.852806e-002
1.990178e+003, 1.891517e-002
1.992106e+003, 1.933185e-002
1.994035e+003, 1.882360e-002
1.995963e+003, 1.913951e-002
1.997891e+003, 1.902976e-002
1.999820e+003, 1.819696e-002
2.001748e+003, 1.749578e-002
2.003677e+003, 1.745926e-002
2.005605e+003, 1.838785e-002
2.007534e+003, 1.986311e-002
2.009462e+003, 1.970913e-002
2.011391e+003, 1.870081e-002
2.013319e+003, 1.912175e-002
2.015248e+003, 1.918709e-002
2.017176e+003, 1.916610e-002
2.019105e+003, 1.927141e-002
2.021033e+003, 1.922288e-002
2.022962e+003, 1.901646e-002
2.024890e+003, 1.910452e-002
2.026818e+003, 1.954339e-002
2.028747e+003, 1.940447e-002
2.030675e+003, 1.712176e-002
2.032604e+003, 1.715018e-002
2.034532e+003, 1.933818e-002
2.036461e+003, 2.075072e-002
2.038389e+003, 2.108842e-002
2.040318e+003, 2.090706e-002
2.042246e+003, 2.010903e-002
2.044175e+003, 2.051492e-002
2.046103e+003, 2.153329e-002
2.048031e+003, 2.218864e-002
2.049960e+003, 2.188799e-002
2.051888e+003, 2.093896e-002
2.053817e+003, 2.044561e-002
2.055745e+003, 2.119662e-002
2.057674e+003, 2.070552e-002
2.059602e+003, 2.064635e-002
2.061531e+003, 2.093282e-002
2.063459e+003, 2.171763e-002
2.065388e+003, 2.133563e-002
2.067316e+003, 2.129888e-002
2.069245e+003, 2.117188e-002
2.071173e+003, 2.115873e-002
2.073102e+003, 2.139773e-002
2.075030e+003, 2.130520e-002
2.076958e+003, 2.149174e-002
2.078887e+003, 2.159452e-002
2.080815e+003, 2.111495e-002
2.082744e+003, 2.125249e-002
2.084672e+003, 2.160856e-002
2.086601e+003, 2.202480e-002
2.088529e+003, 2.203211e-002
2.090458e+003, 2.139092e-002
2.092386e+003, 1.992699e-002
2.094315e+003, 1.964926e-002
2.096243e+003, 2.043455e-002
2.098172e+003, 2.101663e-002
2.100100e+003, 2.193888e-002
2.102029e+003, 2.217830e-002
2.103957e+003, 2.201145e-002
2.105885e+003, 2.186131e-002
2.107814e+003, 2.179385e-002
2.109742e+003, 2.242150e-002
2.111671e+003, 2.229953e-002
2.113599e+003, 2.148712e-002
2.115528e+003, 2.125037e-002
2.117456e+003, 2.138485e-002
2.119385e+003, 2.139922e-002
2.121313e+003, 2.154841e-002
2.123242e+003, 2.186037e-002
2.125170e+003, 2.144510e-002
2.127099e+003, 2.090466e-002
2.129027e+003, 2.002122e-002
2.130956e+003, 1.913212e-002
2.132884e+003, 1.948216e-002
2.134813e+003, 2.075613e-002
2.136741e+003, 2.194483e-002
2.138669e+003, 2.115408e-002
2.140598e+003, 2.062519e-002
2.142526e+003, 2.039282e-002
2.144455e+003, 1.962950e-002
2.146383e+003, 1.858898e-002
2.148312e+003, 1.953330e-002
2.150240e+003, 1.999882e-002
2.152169e+003, 1.953765e-002
2.154097e+003, 1.892436e-002
2.156026e+003, 1.768990e-002
2.157954e+003, 1.805365e-002
2.159883e+003, 2.202966e-002
2.161811e+003, 2.378346e-002
2.163740e+003, 2.249010e-002
2.165668e+003, 2.216301e-002
2.167596e+003, 2.215517e-002
2.169525e+003, 2.245570e-002
2.171453e+003, 2.233633e-002
2.173382e+003, 2.212702e-002
2.175310e+003, 2.233623e-002
2.177239e+003, 2.187528e-002
2.179167e+003, 2.204098e-002
2.181096e+003, 2.270721e-002
2.183024e+003, 2.290126e-002
2.184953e+003, 2.326479e-002
2.186881e+003, 2.349565e-002
2.188810e+003, 2.275751e-002
2.190738e+003, 2.315428e-002
2.192667e+003, 2.310357e-002
2.194595e+003, 2.311227e-002
2.196523e+003, 2.284114e-002
2.198452e+003, 2.303595e-002
2.200380e+003, 2.415821e-002
2.202309e+003, 2.405628e-002
2.204237e+003, 2.332756e-002
2.206166e+003, 2.332640e-002
2.208094e+003, 2.364505e-002
2.210023e+003, 2.388346e-002
2.211951e+003, 2.382143e-002
2.213880e+003, 2.378084e-002
2.215808e+003, 2.307063e-002
2.217737e+003, 2.281415e-002
2.219665e+003, 2.315667e-002
2.221594e+003, 2.373724e-002
2.223522e+003, 2.336687e-002
2.225450e+003, 2.375563e-002
2.227379e+003, 2.386275e-002
2.229307e+003, 2.386456e-002
2.231236e+003, 2.397690e-002
2.233164e+003, 2.408250e-002
2.235093e+003, 2.414923e-002
2.237021e+003, 2.516580e-002
2.238950e+003, 2.564850e-002
2.240878e+003, 2.593372e-002
2.242807e+003, 2.576144e-002
2.244735e+003, 2.551549e-002
2.246664e+003, 2.557195e-002
2.248592e+003, 2.529176e-002
2.250521e+003, 2.472216e-002
2.252449e+003, 2.469872e-002
2.254377e+003, 2.508497e-002
2.256306e+003, 2.552991e-002
2.258234e+003, 2.505688e-002
2.260163e+003, 2.546533e-002
2.262091e+003, 2.579780e-002
2.264020e+003, 2.523682e-002
2.265948e+003, 2.568979e-002
2.267877e+003, 2.653407e-002
2.269805e+003, 2.649173e-002
2.271734e+003, 2.640306e-002
2.273662e+003, 2.605203e-002
2.275591e+003, 2.587999e-002
2.277519e+003, 2.635830e-002
2.279448e+003, 2.687260e-002
2.281376e+003, 2.715230e-002
2.283304e+003, 2.663110e-002
2.285233e+003, 2.604243e-002
2.287161e+003, 2.630709e-002
2.289090e+003, 2.677673e-002
2.291018e+003, 2.727432e-002
2.292947e+003, 2.723942e-002
2.294875e+003, 2.692494e-002
2.296804e+003, 2.673758e-002
2.298732e+003, 2.644401e-002
2.300661e+003, 2.642017e-002
2.302589e+003, 2.693432e-002
2.304518e+003, 2.699516e-002
2.306446e+003, 2.701438e-002
2.308375e+003, 2.710273e-002
2.310303e+003, 2.716800e-002
2.312231e+003, 2.697392e-002
2.314160e+003, 2.681811e-002
2.316088e+003, 2.719165e-002
2.318017e+003, 2.751688e-002
2.319945e+003, 2.781867e-002
2.321874e+003, 2.814902e-002
2.323802e+003, 2.860281e-002
2.325731e+003, 2.818880e-002
2.327659e+003, 2.737741e-002
2.329588e+003, 2.707491e-002
2.331516e+003, 2.706058e-002
2.333445e+003, 2.705009e-002
2.335373e+003, 2.699306e-002
2.337302e+003, 2.693661e-002
2.339230e+003, 2.667489e-002
2.341158e+003, 2.676648e-002
2.343087e+003, 2.729408e-002
2.345015e+003, 2.734727e-002
2.346944e+003, 2.676477e-002
2.348872e+003, 2.643631e-002
2.350801e+003, 2.669137e-002
2.352729e+003, 2.725675e-002
2.354658e+003, 2.747294e-002
2.356586e+003, 2.751598e-002
2.358515e+003, 2.759333e-002
2.360443e+003, 2.786901e-002
2.362372e+003, 2.775489e-002
2.364300e+003, 2.736023e-002
2.366229e+003, 2.721709e-002
2.368157e+003, 2.747747e-002
2.370085e+003, 2.748525e-002
2.372014e+003, 2.735103e-002
2.373942e+003, 2.717207e-002
2.375871e+003, 2.703962e-002
2.377799e+003, 2.680052e-002
2.379728e+003, 2.650040e-002
2.381656e+003, 2.617557e-002
2.383585e+003, 2.662471e-002
2.385513e+003, 2.678681e-002
2.387442e+003, 2.670659e-002
2.389370e+003, 2.687196e-002
2.391299e+003, 2.692153e-002
2.393227e+003, 2.726662e-002
2.395156e+003, 2.771436e-002
2.397084e+003, 2.811882e-002
2.399012e+003, 2.798833e-002
2.400941e+003, 2.747538e-002
2.402869e+003, 2.747636e-002
2.404798e+003, 2.768282e-002
2.406726e+003, 2.792605e-002
2.408655e+003, 2.807492e-002
2.410583e+003, 2.756809e-002
2.412512e+003, 2.730327e-002
2.414440e+003, 2.756152e-002
2.416369e+003, 2.777557e-002
2.418297e+003, 2.813570e-002
2.420226e+003, 2.847646e-002
2.422154e+003, 2.812674e-002
2.424083e+003, 2.827050e-002
2.426011e+003, 2.890155e-002
2.427939e+003, 2.896438e-002
2.429868e+003, 2.854317e-002
2.431796e+003, 2.807437e-002
2.433725e+003, 2.837955e-002
2.435653e+003, 2.865715e-002
2.437582e+003, 2.835185e-002
2.439510e+003, 2.793717e-002
2.441439e+003, 2.811491e-002
2.443367e+003, 2.887294e-002
2.445296e+003, 2.875046e-002
2.447224e+003, 2.848716e-002
2.449153e+003, 2.886659e-002
2.451081e+003, 2.884985e-002
2.453010e+003, 2.859809e-002
2.454938e+003, 2.883574e-002
2.456866e+003, 2.875712e-002
2.458795e+003, 2.811033e-002
2.460723e+003, 2.832702e-002
2.462652e+003, 2.867957e-002
2.464580e+003, 2.887308e-002
2.466509e+003, 2.915489e-002
2.468437e+003, 2.923903e-002
2.470366e+003, 2.896432e-002
2.472294e+003, 2.906309e-002
2.474223e+003, 2.892237e-002
2.476151e+003, 2.901984e-002
2.478080e+003, 2.891878e-002
2.480008e+003, 2.833303e-002
2.481937e+003, 2.887172e-002
2.483865e+003, 2.969085e-002
2.485793e+003, 2.973227e-002
2.487722e+003, 2.938581e-002
2.489650e+003, 2.937638e-002
2.491579e+003, 2.906546e-002
2.493507e+003, 2.845137e-002
2.495436e+003, 2.855546e-002
2.497364e+003, 2.937957e-002
2.499293e+003, 3.012990e-002
2.501221e+003, 3.005737e-002
2.503150e+003, 2.980458e-002
2.505078e+003, 2.986328e-002
2.507007e+003, 2.979910e-002
2.508935e+003, 2.979725e-002
2.510864e+003, 2.947547e-002
2.512792e+003, 2.949451e-002
2.514720e+003, 2.992967e-002
2.516649e+003, 3.050838e-002
2.518577e+003, 3.089765e-002
2.520506e+003, 2.987614e-002
2.522434e+003, 2.922616e-002
2.524363e+003, 2.950204e-002
2.526291e+003, 2.944039e-002
2.528220e+003, 2.996034e-002
2.530148e+003, 3.061832e-002
2.532077e+003, 3.064554e-002
2.534005e+003, 3.027311e-002
2.535934e+003, 2.994684e-002
2.537862e+003, 2.979232e-002
2.539791e+003, 3.014762e-002
2.541719e+003, 3.090470e-002
2.543647e+003, 3.071288e-002
2.545576e+003, 3.060799e-002
2.547504e+003, 3.099154e-002
2.549433e+003, 3.114428e-002
2.551361e+003, 3.130088e-002
2.553290e+003, 3.115937e-002
2.555218e+003, 3.117664e-002
2.557147e+003, 3.174677e-002
2.559075e+003, 3.144732e-002
2.561004e+003, 3.067983e-002
2.562932e+003, 3.112666e-002
2.564861e+003, 3.200232e-002
2.566789e+003, 3.165315e-002
2.568718e+003, 3.150934e-002
2.570646e+003, 3.172612e-002
2.572574e+003, 3.185964e-002
2.574503e+003, 3.215266e-002
2.576431e+003, 3.240590e-002
2.578360e+003, 3.227899e-002
2.580288e+003, 3.222808e-002
2.582217e+003, 3.217521e-002
2.584145e+003, 3.182375e-002
2.586074e+003, 3.217150e-002
2.588002e+003, 3.291976e-002
2.589931e+003, 3.316726e-002
2.591859e+003, 3.311589e-002
2.593788e+003, 3.216797e-002
2.595716e+003, 3.211703e-002
2.597645e+003, 3.262434e-002
2.599573e+003, 3.275390e-002
2.601501e+003, 3.277154e-002
2.603430e+003, 3.291190e-002
2.605358e+003, 3.343062e-002
2.607287e+003, 3.340581e-002
2.609215e+003, 3.304129e-002
2.611144e+003, 3.335284e-002
2.613072e+003, 3.346014e-002
2.615001e+003, 3.356550e-002
2.616929e+003, 3.384098e-002
2.618858e+003, 3.355477e-002
2.620786e+003, 3.339902e-002
2.622715e+003, 3.368689e-002
2.624643e+003, 3.372232e-002
2.626572e+003, 3.389834e-002
2.628500e+003, 3.420687e-002
2.630428e+003, 3.419003e-002
2.632357e+003, 3.394057e-002
2.634285e+003, 3.411273e-002
2.636214e+003, 3.426486e-002
2.638142e+003, 3.442441e-002
2.640071e+003, 3.452133e-002
2.641999e+003, 3.463640e-002
2.643928e+003, 3.470656e-002
2.645856e+003, 3.469103e-002
2.647785e+003, 3.482139e-002
2.649713e+003, 3.478739e-002
2.651642e+003, 3.492301e-002
2.653570e+003, 3.506424e-002
2.655499e+003, 3.487577e-002
2.657427e+003, 3.452689e-002
2.659355e+003, 3.446796e-002
2.661284e+003, 3.495039e-002
2.663212e+003, 3.502474e-002
2.665141e+003, 3.473020e-002
2.667069e+003, 3.468494e-002
2.668998e+003, 3.479541e-002
2.670926e+003, 3.486660e-002
2.672855e+003, 3.487973e-002
2.674783e+003, 3.494929e-002
2.676712e+003, 3.511013e-002
2.678640e+003, 3.501916e-002
2.680569e+003, 3.516328e-002
2.682497e+003, 3.561573e-002
2.684426e+003, 3.559594e-002
2.686354e+003, 3.542358e-002
2.688282e+003, 3.555324e-002
2.690211e+003, 3.538339e-002
2.692139e+003, 3.536214e-002
2.694068e+003, 3.577829e-002
2.695996e+003, 3.612427e-002
2.697925e+003, 3.601690e-002
2.699853e+003, 3.613232e-002
2.701782e+003, 3.639468e-002
2.703710e+003, 3.681937e-002
2.705639e+003, 3.697607e-002
2.707567e+003, 3.675026e-002
2.709496e+003, 3.634210e-002
2.711424e+003, 3.669723e-002
2.713353e+003, 3.709207e-002
2.715281e+003, 3.703339e-002
2.717209e+003, 3.700544e-002
2.719138e+003, 3.722006e-002
2.721066e+003, 3.740055e-002
2.722995e+003, 3.758082e-002
2.724923e+003, 3.761676e-002
2.726852e+003, 3.759563e-002
2.728780e+003, 3.750863e-002
2.730709e+003, 3.747099e-002
2.732637e+003, 3.778166e-002
2.734566e+003, 3.841620e-002
2.736494e+003, 3.868465e-002
2.738423e+003, 3.845951e-002
2.740351e+003, 3.826604e-002
2.742280e+003, 3.858060e-002
2.744208e+003, 3.840619e-002
2.746136e+003, 3.813843e-002
2.748065e+003, 3.811774e-002
2.749993e+003, 3.871698e-002
2.751922e+003, 3.906375e-002
2.753850e+003, 3.873518e-002
2.755779e+003, 3.846261e-002
2.757707e+003, 3.884588e-002
2.759636e+003, 3.902663e-002
2.761564e+003, 3.908274e-002
2.763493e+003, 3.900020e-002
2.765421e+003, 3.921201e-002
2.767350e+003, 3.996526e-002
2.769278e+003, 4.022402e-002
2.771207e+003, 3.993619e-002
2.773135e+003, 3.974611e-002
2.775063e+003, 4.005527e-002
2.776992e+003, 4.027451e-002
2.778920e+003, 4.017957e-002
2.780849e+003, 3.983686e-002
2.782777e+003, 3.997170e-002
2.784706e+003, 4.021868e-002
2.786634e+003, 4.033254e-002
2.788563e+003, 4.033036e-002
2.790491e+003, 4.056044e-002
2.792420e+003, 4.100089e-002
2.794348e+003, 4.118820e-002
2.796277e+003, 4.135638e-002
2.798205e+003, 4.131095e-002
2.800134e+003, 4.110773e-002
2.802062e+003, 4.102886e-002
2.803990e+003, 4.155872e-002
2.805919e+003, 4.180473e-002
2.807847e+003, 4.168558e-002
2.809776e+003, 4.187250e-002
2.811704e+003, 4.196883e-002
2.813633e+003, 4.195584e-002
2.815561e+003, 4.237346e-002
2.817490e+003, 4.270473e-002
2.819418e+003, 4.247048e-002
2.821347e+003, 4.258103e-002
2.823275e+003, 4.295479e-002
2.825204e+003, 4.292073e-002
2.827132e+003, 4.301298e-002
2.829061e+003, 4.325796e-002
2.830989e+003, 4.343388e-002
2.832917e+003, 4.387399e-002
2.834846e+003, 4.425638e-002
2.836774e+003, 4.427158e-002
2.838703e+003, 4.435140e-002
2.840631e+003, 4.472434e-002
2.842560e+003, 4.495805e-002
2.844488e+003, 4.516352e-002
2.846417e+003, 4.504956e-002
2.848345e+003, 4.501911e-002
2.850274e+003, 4.531533e-002
2.852202e+003, 4.540569e-002
2.854131e+003, 4.572190e-002
2.856059e+003, 4.570792e-002
2.857988e+003, 4.603849e-002
2.859916e+003, 4.613033e-002
2.861844e+003, 4.638288e-002
2.863773e+003, 4.649648e-002
2.865701e+003, 4.680362e-002
2.867630e+003, 4.694838e-002
2.869558e+003, 4.684647e-002
2.871487e+003, 4.681888e-002
2.873415e+003, 4.694424e-002
2.875344e+003, 4.707596e-002
2.877272e+003, 4.710308e-002
2.879201e+003, 4.741563e-002
2.881129e+003, 4.779446e-002
2.883058e+003, 4.778507e-002
2.884986e+003, 4.718896e-002
2.886915e+003, 4.741986e-002
2.888843e+003, 4.832217e-002
2.890771e+003, 4.840251e-002
2.892700e+003, 4.834943e-002
2.894628e+003, 4.850118e-002
2.896557e+003, 4.892427e-002
2.898485e+003, 4.939365e-002
2.900414e+003, 4.928190e-002
2.902342e+003, 4.925726e-002
2.904271e+003, 4.953727e-002
2.906199e+003, 4.976829e-002
2.908128e+003, 4.995648e-002
2.910056e+003, 5.019055e-002
2.911985e+003, 5.085937e-002
2.913913e+003, 5.112787e-002
2.915842e+003, 5.126764e-002
2.917770e+003, 5.137655e-002
2.919698e+003, 5.188046e-002
2.921627e+003, 5.212098e-002
2.923555e+003, 5.215558e-002
2.925484e+003, 5.189713e-002
2.927412e+003, 5.198701e-002
2.929341e+003, 5.200953e-002
2.931269e+003, 5.195039e-002
2.933198e+003, 5.149407e-002
2.935126e+003, 5.114429e-002
2.937055e+003, 5.089134e-002
2.938983e+003, 5.072969e-002
2.940912e+003, 5.067203e-002
2.942840e+003, 5.067512e-002
2.944769e+003, 5.079402e-002
2.946697e+003, 5.104207e-002
2.948625e+003, 5.138500e-002
2.950554e+003, 5.118956e-002
2.952482e+003, 5.115093e-002
2.954411e+003, 5.125016e-002
2.956339e+003, 5.166464e-002
2.958268e+003, 5.149294e-002
2.960196e+003, 5.125568e-002
2.962125e+003, 5.177587e-002
2.964053e+003, 5.189607e-002
2.965982e+003, 5.168992e-002
2.967910e+003, 5.115389e-002
2.969839e+003, 5.070979e-002
2.971767e+003, 5.079240e-002
2.973696e+003, 5.099190e-002
2.975624e+003, 5.128028e-002
2.977552e+003, 5.149584e-002
2.979481e+003, 5.141763e-002
2.981409e+003, 5.106992e-002
2.983338e+003, 5.109576e-002
2.985266e+003, 5.185644e-002
2.987195e+003, 5.199564e-002
2.989123e+003, 5.139658e-002
2.991052e+003, 5.089276e-002
2.992980e+003, 5.094878e-002
2.994909e+003, 5.191280e-002
2.996837e+003, 5.243874e-002
2.998766e+003, 5.226582e-002
3.000694e+003, 5.189193e-002
3.002623e+003, 5.208959e-002
3.004551e+003, 5.275823e-002
3.006479e+003, 5.297279e-002
3.008408e+003, 5.299795e-002
3.010336e+003, 5.350079e-002
3.012265e+003, 5.375344e-002
3.014193e+003, 5.382364e-002
3.016122e+003, 5.467576e-002
3.018050e+003, 5.481103e-002
3.019979e+003, 5.441573e-002
3.021907e+003, 5.405414e-002
3.023836e+003, 5.362704e-002
3.025764e+003, 5.379429e-002
3.027693e+003, 5.440865e-002
3.029621e+003, 5.493492e-002
3.031550e+003, 5.487636e-002
3.033478e+003, 5.449658e-002
3.035406e+003, 5.462673e-002
3.037335e+003, 5.474934e-002
3.039263e+003, 5.509842e-002
3.041192e+003, 5.553100e-002
3.043120e+003, 5.606887e-002
3.045049e+003, 5.650574e-002
3.046977e+003, 5.696548e-002
3.048906e+003, 5.722008e-002
3.050834e+003, 5.713753e-002
3.052763e+003, 5.733165e-002
3.054691e+003, 5.734989e-002
3.056620e+003, 5.732223e-002
3.058548e+003, 5.732686e-002
3.060477e+003, 5.754682e-002
3.062405e+003, 5.793450e-002
3.064333e+003, 5.750824e-002
3.066262e+003, 5.814426e-002
3.068190e+003, 5.868388e-002
3.070119e+003, 5.861542e-002
3.072047e+003, 5.855216e-002
3.073976e+003, 5.851516e-002
3.075904e+003, 5.882332e-002
3.077833e+003, 5.883431e-002
3.079761e+003, 5.893974e-002
3.081690e+003, 5.954233e-002
3.083618e+003, 5.956399e-002
3.085547e+003, 5.988997e-002
3.087475e+003, 6.030690e-002
3.089404e+003, 6.039125e-002
3.091332e+003, 6.075975e-002
3.093260e+003, 6.154230e-002
3.095189e+003, 6.203135e-002
3.097117e+003, 6.172604e-002
3.099046e+003, 6.169363e-002
3.100974e+003, 6.183421e-002
3.102903e+003, 6.128377e-002
3.104831e+003, 6.102346e-002
3.106760e+003, 6.171486e-002
3.108688e+003, 6.263945e-002
3.110617e+003, 6.293042e-002
3.112545e+003, 6.314049e-002
3.114474e+003, 6.349409e-002
3.116402e+003, 6.396409e-002
3.118331e+003, 6.477591e-002
3.120259e+003, 6.440543e-002
3.122188e+003, 6.402123e-002
3.124116e+003, 6.426708e-002
3.126044e+003, 6.405590e-002
3.127973e+003, 6.372802e-002
3.129901e+003, 6.422506e-002
3.131830e+003, 6.501975e-002
3.133758e+003, 6.574353e-002
3.135687e+003, 6.631217e-002
3.137615e+003, 6.562981e-002
3.139544e+003, 6.538495e-002
3.141472e+003, 6.620581e-002
3.143401e+003, 6.619375e-002
3.145329e+003, 6.623250e-002
3.147258e+003, 6.692839e-002
3.149186e+003, 6.733272e-002
3.151115e+003, 6.742375e-002
3.153043e+003, 6.693963e-002
3.154971e+003, 6.698913e-002
3.156900e+003, 6.769423e-002
3.158828e+003, 6.818387e-002
3.160757e+003, 6.802893e-002
3.162685e+003, 6.824653e-002
3.164614e+003, 6.894409e-002
3.166542e+003, 6.886166e-002
3.168471e+003, 6.866301e-002
3.170399e+003, 6.947620e-002
3.172328e+003, 7.027917e-002
3.174256e+003, 6.958329e-002
3.176185e+003, 6.899612e-002
3.178113e+003, 6.997024e-002
3.180042e+003, 7.055784e-002
3.181970e+003, 7.030319e-002
3.183898e+003, 7.026498e-002
3.185827e+003, 7.106152e-002
3.187755e+003, 7.214767e-002
3.189684e+003, 7.295321e-002
3.191612e+003, 7.228788e-002
3.193541e+003, 7.170618e-002
3.195469e+003, 7.194585e-002
3.197398e+003, 7.222550e-002
3.199326e+003, 7.238554e-002
3.201255e+003, 7.251029e-002
3.203183e+003, 7.294394e-002
3.205112e+003, 7.370732e-002
3.207040e+003, 7.438910e-002
3.208969e+003, 7.394883e-002
3.210897e+003, 7.350309e-002
3.212825e+003, 7.402447e-002
3.214754e+003, 7.465961e-002
3.216682e+003, 7.506997e-002
3.218611e+003, 7.482996e-002
3.220539e+003, 7.498625e-002
3.222468e+003, 7.546607e-002
3.224396e+003, 7.578435e-002
3.226325e+003, 7.613304e-002
3.228253e+003, 7.639235e-002
3.230182e+003, 7.624055e-002
3.232110e+003, 7.668517e-002
3.234039e+003, 7.767510e-002
3.235967e+003, 7.845988e-002
3.237896e+003, 7.852308e-002
3.239824e+003, 7.881291e-002
3.241752e+003, 7.890981e-002
3.243681e+003, 7.843748e-002
3.245609e+003, 7.869970e-002
3.247538e+003, 8.011410e-002
3.249466e+003, 8.076866e-002
3.251395e+003, 8.132923e-002
3.253323e+003, 8.121978e-002
3.255252e+003, 8.049964e-002
3.257180e+003, 8.076990e-002
3.259109e+003, 8.245008e-002
3.261037e+003, 8.330058e-002
3.262966e+003, 8.300268e-002
3.264894e+003, 8.313387e-002
3.266823e+003, 8.398229e-002
3.268751e+003, 8.508347e-002
3.270679e+003, 8.504599e-002
3.272608e+003, 8.516233e-002
3.274536e+003, 8.579646e-002
3.276465e+003, 8.698167e-002
3.278393e+003, 8.772091e-002
3.280322e+003, 8.848777e-002
3.282250e+003, 8.901585e-002
3.284179e+003, 8.864542e-002
3.286107e+003, 8.886920e-002
3.288036e+003, 8.984145e-002
3.289964e+003, 9.024535e-002
3.291893e+003, 9.063581e-002
3.293821e+003, 9.103674e-002
3.295750e+003, 9.181049e-002
3.297678e+003, 9.331121e-002
3.299606e+003, 9.430812e-002
3.301535e+003, 9.485731e-002
3.303463e+003, 9.519153e-002
3.305392e+003, 9.622655e-002
3.307320e+003, 9.766364e-002
3.309249e+003, 9.876715e-002
3.311177e+003, 9.934951e-002
3.313106e+003, 1.001974e-001
3.315034e+003, 1.014284e-001
3.316963e+003, 1.027480e-001
3.318891e+003, 1.036138e-001
3.320820e+003, 1.048857e-001
3.322748e+003, 1.064581e-001
3.324677e+003, 1.074392e-001
3.326605e+003, 1.089608e-001
3.328533e+003, 1.103748e-001
3.330462e+003, 1.114985e-001
3.332390e+003, 1.129992e-001
3.334319e+003, 1.147577e-001
3.336247e+003, 1.168212e-001
3.338176e+003, 1.189517e-001
3.340104e+003, 1.210498e-001
3.342033e+003, 1.225566e-001
3.343961e+003, 1.235731e-001
3.345890e+003, 1.250181e-001
3.347818e+003, 1.265292e-001
3.349747e+003, 1.269149e-001
3.351675e+003, 1.266056e-001
3.353604e+003, 1.265892e-001
3.355532e+003, 1.265859e-001
3.357460e+003, 1.252677e-001
3.359389e+003, 1.240534e-001
3.361317e+003, 1.237116e-001
3.363246e+003, 1.235026e-001
3.365174e+003, 1.226888e-001
3.367103e+003, 1.219014e-001
3.369031e+003, 1.206081e-001
3.370960e+003, 1.199186e-001
3.372888e+003, 1.206207e-001
3.374817e+003, 1.209607e-001
3.376745e+003, 1.210282e-001
3.378674e+003, 1.209233e-001
3.380602e+003, 1.214858e-001
3.382531e+003, 1.228951e-001
3.384459e+003, 1.235405e-001
3.386387e+003, 1.237248e-001
3.388316e+003, 1.253269e-001
3.390244e+003, 1.267077e-001
3.392173e+003, 1.269813e-001
3.394101e+003, 1.273892e-001
3.396030e+003, 1.279547e-001
3.397958e+003, 1.275693e-001
3.399887e+003, 1.272865e-001
3.401815e+003, 1.274846e-001
3.403744e+003, 1.259466e-001
3.405672e+003, 1.244041e-001
3.407601e+003, 1.229032e-001
3.409529e+003, 1.205238e-001
3.411458e+003, 1.179570e-001
3.413386e+003, 1.159453e-001
3.415314e+003, 1.130249e-001
3.417243e+003, 1.090441e-001
3.419171e+003, 1.049409e-001
3.421100e+003, 1.002894e-001
3.423028e+003, 9.553704e-002
3.424957e+003, 9.178135e-002
3.426885e+003, 8.805051e-002
3.428814e+003, 8.507445e-002
3.430742e+003, 8.243209e-002
3.432671e+003, 7.912011e-002
3.434599e+003, 7.631811e-002
3.436528e+003, 7.380557e-002
3.438456e+003, 7.180573e-002
3.440385e+003, 6.978978e-002
3.442313e+003, 6.809387e-002
3.444241e+003, 6.632265e-002
3.446170e+003, 6.500933e-002
3.448098e+003, 6.469698e-002
3.450027e+003, 6.372204e-002
3.451955e+003, 6.220434e-002
3.453884e+003, 6.047620e-002
3.455812e+003, 5.944670e-002
3.457741e+003, 5.838138e-002
3.459669e+003, 5.819551e-002
3.461598e+003, 5.789451e-002
3.463526e+003, 5.662911e-002
3.465455e+003, 5.511716e-002
3.467383e+003, 5.513497e-002
3.469312e+003, 5.501313e-002
3.471240e+003, 5.416334e-002
3.473168e+003, 5.392804e-002
3.475097e+003, 5.313241e-002
3.477025e+003, 5.282218e-002
3.478954e+003, 5.260606e-002
3.480882e+003, 5.171762e-002
3.482811e+003, 5.195527e-002
3.484739e+003, 5.186896e-002
3.486668e+003, 5.111108e-002
3.488596e+003, 4.954813e-002
3.490525e+003, 4.913535e-002
3.492453e+003, 4.976541e-002
3.494382e+003, 4.889343e-002
3.496310e+003, 4.848139e-002
3.498239e+003, 4.891998e-002
3.500167e+003, 4.923430e-002
3.502095e+003, 4.851333e-002
3.504024e+003, 4.721468e-002
3.505952e+003, 4.642485e-002
3.507881e+003, 4.533879e-002
3.509809e+003, 4.482851e-002
3.511738e+003, 4.473871e-002
3.513666e+003, 4.452328e-002
3.515595e+003, 4.376486e-002
3.517523e+003, 4.326351e-002
3.519452e+003, 4.376452e-002
3.521380e+003, 4.379654e-002
3.523309e+003, 4.286240e-002
3.525237e+003, 4.238575e-002
3.527166e+003, 4.262186e-002
3.529094e+003, 4.183729e-002
3.531022e+003, 4.126691e-002
3.532951e+003, 4.123967e-002
3.534879e+003, 4.060202e-002
3.536808e+003, 4.038390e-002
3.538736e+003, 4.029638e-002
3.540665e+003, 3.993059e-002
3.542593e+003, 3.985886e-002
3.544522e+003, 3.976920e-002
3.546450e+003, 3.973090e-002
3.548379e+003, 3.939858e-002
3.550307e+003, 3.906993e-002
3.552236e+003, 3.863526e-002
3.554164e+003, 3.792031e-002
3.556093e+003, 3.732925e-002
3.558021e+003, 3.656151e-002
3.559949e+003, 3.683100e-002
3.561878e+003, 3.738115e-002
3.563806e+003, 3.727559e-002
3.565735e+003, 3.636002e-002
3.567663e+003, 3.587366e-002
3.569592e+003, 3.553759e-002
3.571520e+003, 3.525108e-002
3.573449e+003, 3.462877e-002
3.575377e+003, 3.403062e-002
3.577306e+003, 3.362195e-002
3.579234e+003, 3.331678e-002
3.581163e+003, 3.347257e-002
3.583091e+003, 3.441437e-002
3.585020e+003, 3.425365e-002
3.586948e+003, 3.358797e-002
3.588876e+003, 3.272415e-002
3.590805e+003, 3.160258e-002
3.592733e+003, 3.163461e-002
3.594662e+003, 3.256479e-002
3.596590e+003, 3.235339e-002
3.598519e+003, 3.204405e-002
3.600447e+003, 3.236446e-002
3.602376e+003, 3.214833e-002
3.604304e+003, 3.139822e-002
3.606233e+003, 3.091953e-002
3.608161e+003, 3.096180e-002
3.610090e+003, 3.044870e-002
3.612018e+003, 2.960465e-002
3.613947e+003, 2.987418e-002
3.615875e+003, 3.032636e-002
3.617803e+003, 3.112255e-002
3.619732e+003, 3.077621e-002
3.621660e+003, 2.969078e-002
3.623589e+003, 2.941957e-002
3.625517e+003, 2.902184e-002
3.627446e+003, 2.914649e-002
3.629374e+003, 2.929343e-002
3.631303e+003, 2.876791e-002
3.633231e+003, 2.859648e-002
3.635160e+003, 2.883907e-002
3.637088e+003, 2.918075e-002
3.639017e+003, 2.946093e-002
3.640945e+003, 2.932992e-002
3.642874e+003, 2.912463e-002
3.644802e+003, 2.887473e-002
3.646730e+003, 2.952547e-002
3.648659e+003, 3.101550e-002
3.650587e+003, 3.064524e-002
3.652516e+003, 2.882578e-002
3.654444e+003, 2.768012e-002
3.656373e+003, 2.848529e-002
3.658301e+003, 2.930415e-002
3.660230e+003, 2.918976e-002
3.662158e+003, 2.913519e-002
3.664087e+003, 2.871745e-002
3.666015e+003, 2.779644e-002
3.667944e+003, 2.848078e-002
3.669872e+003, 3.010895e-002
3.671801e+003, 2.971209e-002
3.673729e+003, 3.024281e-002
3.675657e+003, 3.142460e-002
3.677586e+003, 3.032473e-002
3.679514e+003, 2.888491e-002
3.681443e+003, 2.899731e-002
3.683371e+003, 2.945014e-002
3.685300e+003, 3.000819e-002
3.687228e+003, 3.113257e-002
3.689157e+003, 3.091667e-002
3.691085e+003, 3.044128e-002
3.693014e+003, 3.073830e-002
3.694942e+003, 3.012575e-002
3.696871e+003, 2.992881e-002
3.698799e+003, 3.022551e-002
3.700728e+003, 3.025913e-002
3.702656e+003, 3.056722e-002
3.704584e+003, 3.067396e-002
3.706513e+003, 3.108115e-002
3.708441e+003, 3.192433e-002
3.710370e+003, 3.199498e-002
3.712298e+003, 3.175002e-002
3.714227e+003, 3.193371e-002
3.716155e+003, 3.247435e-002
3.718084e+003, 3.276211e-002
3.720012e+003, 3.222398e-002
3.721941e+003, 3.091145e-002
3.723869e+003, 3.159707e-002
3.725798e+003, 3.326502e-002
3.727726e+003, 3.315616e-002
3.729655e+003, 3.243988e-002
3.731583e+003, 3.271678e-002
3.733511e+003, 3.268951e-002
3.735440e+003, 3.265373e-002
3.737368e+003, 3.276093e-002
3.739297e+003, 3.235930e-002
3.741225e+003, 3.215800e-002
3.743154e+003, 3.303769e-002
3.745082e+003, 3.387173e-002
3.747011e+003, 3.345125e-002
3.748939e+003, 3.367947e-002
3.750868e+003, 3.387469e-002
3.752796e+003, 3.306722e-002
3.754725e+003, 3.243570e-002
3.756653e+003, 3.324385e-002
3.758582e+003, 3.329371e-002
3.760510e+003, 3.274563e-002
3.762438e+003, 3.216537e-002
3.764367e+003, 3.216304e-002
3.766295e+003, 3.315127e-002
3.768224e+003, 3.376069e-002
3.770152e+003, 3.298382e-002
3.772081e+003, 3.312656e-002
3.774009e+003, 3.424763e-002
3.775938e+003, 3.431662e-002
3.777866e+003, 3.376057e-002
3.779795e+003, 3.333655e-002
3.781723e+003, 3.215990e-002
3.783652e+003, 3.268956e-002
3.785580e+003, 3.391376e-002
3.787509e+003, 3.409580e-002
3.789437e+003, 3.326617e-002
3.791365e+003, 3.324644e-002
3.793294e+003, 3.317858e-002
3.795222e+003, 3.329194e-002
3.797151e+003, 3.376390e-002
3.799079e+003, 3.407556e-002
3.801008e+003, 3.427403e-002
3.802936e+003, 3.327757e-002
3.804865e+003, 3.425809e-002
3.806793e+003, 3.500732e-002
3.808722e+003, 3.374597e-002
3.810650e+003, 3.356513e-002
3.812579e+003, 3.446864e-002
3.814507e+003, 3.511595e-002
3.816436e+003, 3.451062e-002
3.818364e+003, 3.320681e-002
3.820292e+003, 3.418287e-002
3.822221e+003, 3.426580e-002
3.824149e+003, 3.369878e-002
3.826078e+003, 3.480298e-002
3.828006e+003, 3.510628e-002
3.829935e+003, 3.553954e-002
3.831863e+003, 3.510391e-002
3.833792e+003, 3.394761e-002
3.835720e+003, 3.411088e-002
3.837649e+003, 3.538498e-002
3.839577e+003, 3.666583e-002
3.841506e+003, 3.757421e-002
3.843434e+003, 3.702137e-002
3.845363e+003, 3.570053e-002
3.847291e+003, 3.515580e-002
3.849219e+003, 3.467711e-002
3.851148e+003, 3.506725e-002
3.853076e+003, 3.538965e-002
3.855005e+003, 3.446243e-002
3.856933e+003, 3.509501e-002
3.858862e+003, 3.523960e-002
3.860790e+003, 3.472872e-002
3.862719e+003, 3.383270e-002
3.864647e+003, 3.288377e-002
3.866576e+003, 3.277044e-002
3.868504e+003, 3.495816e-002
3.870433e+003, 3.641627e-002
3.872361e+003, 3.591108e-002
3.874290e+003, 3.539688e-002
3.876218e+003, 3.490578e-002
3.878146e+003, 3.444345e-002
3.880075e+003, 3.423568e-002
3.882003e+003, 3.439146e-002
3.883932e+003, 3.549417e-002
3.885860e+003, 3.581557e-002
3.887789e+003, 3.578374e-002
3.889717e+003, 3.619607e-002
3.891646e+003, 3.637171e-002
3.893574e+003, 3.503876e-002
3.895503e+003, 3.417950e-002
3.897431e+003, 3.445617e-002
3.899360e+003, 3.557499e-002
3.901288e+003, 3.569292e-002
3.903217e+003, 3.636661e-002
3.905145e+003, 3.681322e-002
3.907073e+003, 3.575550e-002
3.909002e+003, 3.516252e-002
3.910930e+003, 3.595372e-002
3.912859e+003, 3.634280e-002
3.914787e+003, 3.646978e-002
3.916716e+003, 3.640567e-002
3.918644e+003, 3.694008e-002
3.920573e+003, 3.720759e-002
3.922501e+003, 3.703196e-002
3.924430e+003, 3.562352e-002
3.926358e+003, 3.525304e-002
3.928287e+003, 3.602009e-002
3.930215e+003, 3.621614e-002
3.932144e+003, 3.623244e-002
3.934072e+003, 3.637817e-002
3.936000e+003, 3.582271e-002
3.937929e+003, 3.559511e-002
3.939857e+003, 3.564880e-002
3.941786e+003, 3.670181e-002
3.943714e+003, 3.650124e-002
3.945643e+003, 3.562493e-002
3.947571e+003, 3.665879e-002
3.949500e+003, 3.581087e-002
3.951428e+003, 3.522940e-002
3.953357e+003, 3.673955e-002
3.955285e+003, 3.704054e-002
3.957214e+003, 3.645153e-002
3.959142e+003, 3.663679e-002
3.961071e+003, 3.618143e-002
3.962999e+003, 3.626073e-002
3.964927e+003, 3.698976e-002
3.966856e+003, 3.779837e-002
3.968784e+003, 3.744230e-002
3.970713e+003, 3.728343e-002
3.972641e+003, 3.735319e-002
3.974570e+003, 3.785667e-002
3.976498e+003, 3.828033e-002
3.978427e+003, 3.759686e-002
3.980355e+003, 3.673583e-002
3.982284e+003, 3.651683e-002
3.984212e+003, 3.577262e-002
3.986141e+003, 3.494337e-002
3.988069e+003, 3.594269e-002
3.989998e+003, 3.779187e-002
3.991926e+003, 3.809945e-002
3.993854e+003, 3.833674e-002
3.995783e+003, 3.823317e-002
3.997711e+003, 3.729169e-002
3.999640e+003, 3.800700e-002
##END=



