##NAMES=Corundum
##RRUFFID=R040096
##IDEAL CHEMISTRY=Al_2_O_3_
##LOCALITY=Sri Lanka
##OWNER=RRUFF
##SOURCE=University of Arizona Mineral Museum
##DESCRIPTION=Pale purple hexagonal prism
##STATUS=The identification of this mineral has been confirmed by X-ray diffraction and chemical analysis
##URL=rruff.info/R040096
##MEASURED CHEMISTRY=Al_2.00_O_3_
3.991926e+002, 0.000000e+000
4.011211e+002, 2.241087e-001
4.030496e+002, 2.251634e-001
4.049780e+002, 2.345360e-001
4.069065e+002, 2.359542e-001
4.088350e+002, 2.294995e-001
4.107634e+002, 2.311785e-001
4.126919e+002, 2.343609e-001
4.146204e+002, 2.324265e-001
4.165488e+002, 2.298107e-001
4.184773e+002, 2.293743e-001
4.204058e+002, 2.272049e-001
4.223342e+002, 2.298049e-001
4.242627e+002, 2.341329e-001
4.261912e+002, 2.359872e-001
4.281196e+002, 2.332289e-001
4.300481e+002, 2.332512e-001
4.319766e+002, 2.337922e-001
4.339050e+002, 2.314535e-001
4.358335e+002, 2.303916e-001
4.377620e+002, 2.327528e-001
4.396904e+002, 2.328829e-001
4.416189e+002, 2.327370e-001
4.435474e+002, 2.355617e-001
4.454758e+002, 2.379688e-001
4.474043e+002, 2.366446e-001
4.493328e+002, 2.330862e-001
4.512612e+002, 2.310577e-001
4.531897e+002, 2.279436e-001
4.551182e+002, 2.215299e-001
4.570466e+002, 2.142608e-001
4.589751e+002, 2.084130e-001
4.609036e+002, 2.011473e-001
4.628320e+002, 1.915865e-001
4.647605e+002, 1.819298e-001
4.666890e+002, 1.718351e-001
4.686174e+002, 1.610677e-001
4.705459e+002, 1.509339e-001
4.724744e+002, 1.394360e-001
4.744028e+002, 1.271323e-001
4.763313e+002, 1.149473e-001
4.782598e+002, 1.030092e-001
4.801882e+002, 9.542605e-002
4.821167e+002, 9.458252e-002
4.840452e+002, 9.843266e-002
4.859736e+002, 1.033469e-001
4.879021e+002, 1.082894e-001
4.898306e+002, 1.121637e-001
4.917590e+002, 1.153640e-001
4.936875e+002, 1.168581e-001
4.956160e+002, 1.162363e-001
4.975444e+002, 1.147784e-001
4.994729e+002, 1.129975e-001
5.014014e+002, 1.097281e-001
5.033298e+002, 1.070452e-001
5.052583e+002, 1.060346e-001
5.071868e+002, 1.060409e-001
5.091152e+002, 1.076380e-001
5.110437e+002, 1.114328e-001
5.129722e+002, 1.173308e-001
5.149006e+002, 1.244891e-001
5.168291e+002, 1.320378e-001
5.187576e+002, 1.410023e-001
5.206860e+002, 1.510385e-001
5.226145e+002, 1.608976e-001
5.245430e+002, 1.707533e-001
5.264714e+002, 1.803607e-001
5.283999e+002, 1.892519e-001
5.303284e+002, 1.981569e-001
5.322568e+002, 2.064476e-001
5.341853e+002, 2.136844e-001
5.361138e+002, 2.199776e-001
5.380422e+002, 2.258753e-001
5.399707e+002, 2.303640e-001
5.418992e+002, 2.338299e-001
5.438276e+002, 2.380007e-001
5.457561e+002, 2.417837e-001
5.476846e+002, 2.448218e-001
5.496130e+002, 2.470440e-001
5.515415e+002, 2.479811e-001
5.534700e+002, 2.496526e-001
5.553984e+002, 2.506457e-001
5.573269e+002, 2.502341e-001
5.592554e+002, 2.498768e-001
5.611838e+002, 2.488515e-001
5.631123e+002, 2.476174e-001
5.650408e+002, 2.457342e-001
5.669692e+002, 2.441199e-001
5.688977e+002, 2.434377e-001
5.708262e+002, 2.433799e-001
5.727546e+002, 2.428169e-001
5.746831e+002, 2.427462e-001
5.766116e+002, 2.435334e-001
5.785400e+002, 2.442931e-001
5.804685e+002, 2.451970e-001
5.823970e+002, 2.461473e-001
5.843254e+002, 2.483066e-001
5.862539e+002, 2.507115e-001
5.881824e+002, 2.522362e-001
5.901108e+002, 2.532767e-001
5.920393e+002, 2.547605e-001
5.939678e+002, 2.547458e-001
5.958962e+002, 2.540035e-001
5.978247e+002, 2.531519e-001
5.997532e+002, 2.524575e-001
6.016816e+002, 2.518419e-001
6.036101e+002, 2.509233e-001
6.055386e+002, 2.488535e-001
6.074670e+002, 2.462626e-001
6.093955e+002, 2.434241e-001
6.113240e+002, 2.400225e-001
6.132524e+002, 2.367899e-001
6.151809e+002, 2.330232e-001
6.171094e+002, 2.284885e-001
6.190378e+002, 2.245473e-001
6.209663e+002, 2.206621e-001
6.228948e+002, 2.162705e-001
6.248232e+002, 2.126604e-001
6.267517e+002, 2.111031e-001
6.286802e+002, 2.128288e-001
6.306086e+002, 2.182532e-001
6.325371e+002, 2.245961e-001
6.344656e+002, 2.279285e-001
6.363940e+002, 2.291191e-001
6.383225e+002, 2.286190e-001
6.402510e+002, 2.266183e-001
6.421794e+002, 2.242269e-001
6.441079e+002, 2.211554e-001
6.460364e+002, 2.180554e-001
6.479648e+002, 2.153985e-001
6.498933e+002, 2.124092e-001
6.518218e+002, 2.089325e-001
6.537502e+002, 2.057486e-001
6.556787e+002, 2.032782e-001
6.576072e+002, 2.010024e-001
6.595356e+002, 1.981708e-001
6.614641e+002, 1.951865e-001
6.633926e+002, 1.927013e-001
6.653210e+002, 1.904014e-001
6.672495e+002, 1.876227e-001
6.691780e+002, 1.850382e-001
6.711064e+002, 1.827509e-001
6.730349e+002, 1.806962e-001
6.749634e+002, 1.786865e-001
6.768918e+002, 1.764170e-001
6.788203e+002, 1.743625e-001
6.807488e+002, 1.726126e-001
6.826772e+002, 1.708689e-001
6.846057e+002, 1.688685e-001
6.865342e+002, 1.666364e-001
6.884626e+002, 1.648315e-001
6.903911e+002, 1.630980e-001
6.923196e+002, 1.614900e-001
6.942480e+002, 1.600497e-001
6.961765e+002, 1.586573e-001
6.981050e+002, 1.570130e-001
7.000334e+002, 1.552144e-001
7.019619e+002, 1.535780e-001
7.038904e+002, 1.522013e-001
7.058188e+002, 1.504620e-001
7.077473e+002, 1.487038e-001
7.096758e+002, 1.473020e-001
7.116042e+002, 1.459369e-001
7.135327e+002, 1.443664e-001
7.154612e+002, 1.425259e-001
7.173896e+002, 1.408707e-001
7.193181e+002, 1.396615e-001
7.212466e+002, 1.382010e-001
7.231750e+002, 1.365587e-001
7.251035e+002, 1.350643e-001
7.270320e+002, 1.336416e-001
7.289604e+002, 1.319916e-001
7.308889e+002, 1.303340e-001
7.328174e+002, 1.289207e-001
7.347458e+002, 1.274606e-001
7.366743e+002, 1.258959e-001
7.386028e+002, 1.241300e-001
7.405313e+002, 1.226644e-001
7.424597e+002, 1.214091e-001
7.443882e+002, 1.201329e-001
7.463167e+002, 1.185796e-001
7.482451e+002, 1.169302e-001
7.501736e+002, 1.156626e-001
7.521021e+002, 1.147316e-001
7.540305e+002, 1.131912e-001
7.559590e+002, 1.115378e-001
7.578875e+002, 1.099403e-001
7.598159e+002, 1.087030e-001
7.617444e+002, 1.076270e-001
7.636729e+002, 1.064060e-001
7.656013e+002, 1.048608e-001
7.675298e+002, 1.034923e-001
7.694583e+002, 1.023481e-001
7.713867e+002, 1.010774e-001
7.733152e+002, 9.960556e-002
7.752437e+002, 9.807307e-002
7.771721e+002, 9.674340e-002
7.791006e+002, 9.558364e-002
7.810291e+002, 9.413269e-002
7.829575e+002, 9.257659e-002
7.848860e+002, 9.113875e-002
7.868145e+002, 8.982122e-002
7.887429e+002, 8.865410e-002
7.906714e+002, 8.747295e-002
7.925999e+002, 8.625535e-002
7.945283e+002, 8.493202e-002
7.964568e+002, 8.363754e-002
7.983853e+002, 8.236076e-002
8.003137e+002, 8.117273e-002
8.022422e+002, 8.018529e-002
8.041707e+002, 7.891287e-002
8.060991e+002, 7.718498e-002
8.080276e+002, 7.563791e-002
8.099561e+002, 7.434081e-002
8.118845e+002, 7.294262e-002
8.138130e+002, 7.157339e-002
8.157415e+002, 7.021616e-002
8.176699e+002, 6.872019e-002
8.195984e+002, 6.732891e-002
8.215269e+002, 6.599388e-002
8.234553e+002, 6.484298e-002
8.253838e+002, 6.347408e-002
8.273123e+002, 6.185748e-002
8.292407e+002, 6.042274e-002
8.311692e+002, 5.906185e-002
8.330977e+002, 5.762115e-002
8.350261e+002, 5.614174e-002
8.369546e+002, 5.476765e-002
8.388831e+002, 5.332622e-002
8.408115e+002, 5.176524e-002
8.427400e+002, 5.053378e-002
8.446685e+002, 4.932393e-002
8.465969e+002, 4.785807e-002
8.485254e+002, 4.636779e-002
8.504539e+002, 4.486660e-002
8.523823e+002, 4.338335e-002
8.543108e+002, 4.197833e-002
8.562393e+002, 4.059821e-002
8.581677e+002, 3.920338e-002
8.600962e+002, 3.769976e-002
8.620247e+002, 3.605060e-002
8.639531e+002, 3.456033e-002
8.658816e+002, 3.306580e-002
8.678101e+002, 3.172838e-002
8.697385e+002, 3.040620e-002
8.716670e+002, 2.914190e-002
8.735955e+002, 2.802398e-002
8.755239e+002, 2.662862e-002
8.774524e+002, 2.551649e-002
8.793809e+002, 2.449083e-002
8.813093e+002, 2.331661e-002
8.832378e+002, 2.236924e-002
8.851663e+002, 2.168021e-002
8.870947e+002, 2.109809e-002
8.890232e+002, 2.045025e-002
8.909517e+002, 1.982321e-002
8.928801e+002, 1.929074e-002
8.948085e+002, 1.891495e-002
8.967370e+002, 1.847509e-002
8.986655e+002, 1.795506e-002
9.005939e+002, 1.744147e-002
9.025224e+002, 1.687173e-002
9.044509e+002, 1.631926e-002
9.063793e+002, 1.574238e-002
9.083078e+002, 1.521333e-002
9.102363e+002, 1.455287e-002
9.121647e+002, 1.416503e-002
9.140932e+002, 1.381036e-002
9.160217e+002, 1.336343e-002
9.179501e+002, 1.318535e-002
9.198786e+002, 1.280286e-002
9.218071e+002, 1.222576e-002
9.237355e+002, 1.198368e-002
9.256640e+002, 1.190886e-002
9.275925e+002, 1.173842e-002
9.295209e+002, 1.152908e-002
9.314494e+002, 1.137235e-002
9.333779e+002, 1.114389e-002
9.353063e+002, 1.076280e-002
9.372348e+002, 1.068810e-002
9.391633e+002, 1.054267e-002
9.410917e+002, 1.028543e-002
9.430202e+002, 1.014133e-002
9.449487e+002, 9.947870e-003
9.468771e+002, 9.661351e-003
9.488056e+002, 9.552668e-003
9.507341e+002, 9.415852e-003
9.526625e+002, 9.152579e-003
9.545910e+002, 8.996143e-003
9.565195e+002, 8.977827e-003
9.584479e+002, 8.883084e-003
9.603764e+002, 8.622726e-003
9.623049e+002, 8.346864e-003
9.642333e+002, 8.345120e-003
9.661618e+002, 8.501158e-003
9.680903e+002, 8.472014e-003
9.700187e+002, 8.342331e-003
9.719472e+002, 8.315270e-003
9.738757e+002, 8.360342e-003
9.758041e+002, 8.437921e-003
9.777326e+002, 8.424762e-003
9.796611e+002, 8.444367e-003
9.815895e+002, 8.599629e-003
9.835180e+002, 8.530883e-003
9.854465e+002, 8.419826e-003
9.873749e+002, 8.425266e-003
9.893034e+002, 8.547315e-003
9.912319e+002, 8.697817e-003
9.931603e+002, 8.743189e-003
9.950888e+002, 8.640071e-003
9.970173e+002, 8.700977e-003
9.989457e+002, 8.909239e-003
1.000874e+003, 9.046631e-003
1.002803e+003, 8.997107e-003
1.004731e+003, 9.047655e-003
1.006660e+003, 9.251582e-003
1.008588e+003, 9.166173e-003
1.010517e+003, 9.027858e-003
1.012445e+003, 9.036465e-003
1.014373e+003, 9.010904e-003
1.016302e+003, 8.823726e-003
1.018230e+003, 8.677082e-003
1.020159e+003, 8.637406e-003
1.022087e+003, 8.640895e-003
1.024016e+003, 8.541393e-003
1.025944e+003, 8.511640e-003
1.027873e+003, 8.260772e-003
1.029801e+003, 8.155645e-003
1.031730e+003, 8.214376e-003
1.033658e+003, 8.102363e-003
1.035587e+003, 8.036123e-003
1.037515e+003, 8.070168e-003
1.039444e+003, 8.030023e-003
1.041372e+003, 7.938584e-003
1.043301e+003, 7.765114e-003
1.045229e+003, 7.771865e-003
1.047157e+003, 7.703838e-003
1.049086e+003, 7.394936e-003
1.051014e+003, 7.178566e-003
1.052943e+003, 7.143582e-003
1.054871e+003, 7.200168e-003
1.056800e+003, 7.378345e-003
1.058728e+003, 7.200351e-003
1.060657e+003, 7.003970e-003
1.062585e+003, 7.078772e-003
1.064514e+003, 7.166886e-003
1.066442e+003, 7.033441e-003
1.068371e+003, 6.655793e-003
1.070299e+003, 6.461645e-003
1.072228e+003, 6.522939e-003
1.074156e+003, 6.532586e-003
1.076084e+003, 6.547936e-003
1.078013e+003, 6.525268e-003
1.079941e+003, 6.305360e-003
1.081870e+003, 6.157954e-003
1.083798e+003, 6.203214e-003
1.085727e+003, 6.255487e-003
1.087655e+003, 6.202956e-003
1.089584e+003, 6.184222e-003
1.091512e+003, 6.054929e-003
1.093441e+003, 5.884940e-003
1.095369e+003, 5.945341e-003
1.097298e+003, 6.135840e-003
1.099226e+003, 6.280648e-003
1.101155e+003, 6.132067e-003
1.103083e+003, 5.974358e-003
1.105011e+003, 5.837949e-003
1.106940e+003, 5.783400e-003
1.108868e+003, 6.147252e-003
1.110797e+003, 6.190718e-003
1.112725e+003, 5.885894e-003
1.114654e+003, 5.575477e-003
1.116582e+003, 5.471257e-003
1.118511e+003, 5.451403e-003
1.120439e+003, 5.292003e-003
1.122368e+003, 5.300818e-003
1.124296e+003, 5.250773e-003
1.126225e+003, 5.185936e-003
1.128153e+003, 5.141065e-003
1.130082e+003, 5.067188e-003
1.132010e+003, 4.968073e-003
1.133938e+003, 4.904399e-003
1.135867e+003, 4.889332e-003
1.137795e+003, 4.955555e-003
1.139724e+003, 4.842180e-003
1.141652e+003, 4.630972e-003
1.143581e+003, 4.492528e-003
1.145509e+003, 4.435348e-003
1.147438e+003, 4.436722e-003
1.149366e+003, 4.302806e-003
1.151295e+003, 4.257821e-003
1.153223e+003, 4.268620e-003
1.155152e+003, 4.194899e-003
1.157080e+003, 3.959873e-003
1.159009e+003, 3.928316e-003
1.160937e+003, 4.049392e-003
1.162865e+003, 4.118742e-003
1.164794e+003, 3.880074e-003
1.166722e+003, 3.695500e-003
1.168651e+003, 3.726032e-003
1.170579e+003, 3.674794e-003
1.172508e+003, 3.554670e-003
1.174436e+003, 3.574904e-003
1.176365e+003, 3.626905e-003
1.178293e+003, 3.576946e-003
1.180222e+003, 3.495469e-003
1.182150e+003, 3.580660e-003
1.184079e+003, 3.678570e-003
1.186007e+003, 3.637391e-003
1.187936e+003, 3.544538e-003
1.189864e+003, 3.462496e-003
1.191792e+003, 3.454558e-003
1.193721e+003, 3.402262e-003
1.195649e+003, 3.368527e-003
1.197578e+003, 3.398529e-003
1.199506e+003, 3.345124e-003
1.201435e+003, 3.321142e-003
1.203363e+003, 3.150591e-003
1.205292e+003, 3.084336e-003
1.207220e+003, 3.278303e-003
1.209149e+003, 3.297012e-003
1.211077e+003, 3.100935e-003
1.213006e+003, 2.946409e-003
1.214934e+003, 2.961746e-003
1.216863e+003, 2.887759e-003
1.218791e+003, 2.854337e-003
1.220719e+003, 2.734760e-003
1.222648e+003, 2.753217e-003
1.224576e+003, 2.799577e-003
1.226505e+003, 2.810978e-003
1.228433e+003, 2.707349e-003
1.230362e+003, 2.771390e-003
1.232290e+003, 2.921505e-003
1.234219e+003, 2.783831e-003
1.236147e+003, 2.760932e-003
1.238076e+003, 2.891725e-003
1.240004e+003, 2.767122e-003
1.241933e+003, 2.723412e-003
1.243861e+003, 2.789329e-003
1.245790e+003, 3.003366e-003
1.247718e+003, 3.027254e-003
1.249646e+003, 2.893047e-003
1.251575e+003, 2.928762e-003
1.253503e+003, 2.832853e-003
1.255432e+003, 2.714377e-003
1.257360e+003, 2.905864e-003
1.259289e+003, 2.919946e-003
1.261217e+003, 2.677307e-003
1.263146e+003, 2.735803e-003
1.265074e+003, 2.898644e-003
1.267003e+003, 3.057599e-003
1.268931e+003, 3.043353e-003
1.270860e+003, 2.903958e-003
1.272788e+003, 2.909242e-003
1.274717e+003, 2.851563e-003
1.276645e+003, 2.806587e-003
1.278573e+003, 3.093431e-003
1.280502e+003, 3.189299e-003
1.282430e+003, 2.946042e-003
1.284359e+003, 2.886954e-003
1.286287e+003, 2.855745e-003
1.288216e+003, 2.868686e-003
1.290144e+003, 2.913338e-003
1.292073e+003, 2.837884e-003
1.294001e+003, 2.711958e-003
1.295930e+003, 2.849678e-003
1.297858e+003, 3.030475e-003
1.299787e+003, 3.192549e-003
1.301715e+003, 3.158769e-003
1.303644e+003, 2.937884e-003
1.305572e+003, 2.850214e-003
1.307500e+003, 3.151552e-003
1.309429e+003, 3.320859e-003
1.311357e+003, 3.321438e-003
1.313286e+003, 3.308020e-003
1.315214e+003, 3.333317e-003
1.317143e+003, 3.359093e-003
1.319071e+003, 3.263273e-003
1.321000e+003, 3.313128e-003
1.322928e+003, 3.320751e-003
1.324857e+003, 3.178480e-003
1.326785e+003, 3.126042e-003
1.328714e+003, 3.207853e-003
1.330642e+003, 3.330890e-003
1.332571e+003, 3.472077e-003
1.334499e+003, 3.447592e-003
1.336427e+003, 3.278412e-003
1.338356e+003, 3.095565e-003
1.340284e+003, 3.091559e-003
1.342213e+003, 3.232749e-003
1.344141e+003, 3.292505e-003
1.346070e+003, 3.348415e-003
1.347998e+003, 3.451071e-003
1.349927e+003, 3.480900e-003
1.351855e+003, 3.551384e-003
1.353784e+003, 3.501898e-003
1.355712e+003, 3.392271e-003
1.357641e+003, 3.289969e-003
1.359569e+003, 3.155276e-003
1.361498e+003, 3.368421e-003
1.363426e+003, 3.716896e-003
1.365354e+003, 3.613899e-003
1.367283e+003, 3.398324e-003
1.369211e+003, 3.330147e-003
1.371140e+003, 3.394580e-003
1.373068e+003, 3.536608e-003
1.374997e+003, 3.513574e-003
1.376925e+003, 3.549902e-003
1.378854e+003, 3.449955e-003
1.380782e+003, 3.475850e-003
1.382711e+003, 3.657998e-003
1.384639e+003, 3.684092e-003
1.386568e+003, 3.589131e-003
1.388496e+003, 3.592469e-003
1.390424e+003, 3.713034e-003
1.392353e+003, 3.818526e-003
1.394281e+003, 3.860287e-003
1.396210e+003, 3.936775e-003
1.398138e+003, 3.947836e-003
1.400067e+003, 3.872146e-003
1.401995e+003, 3.742995e-003
1.403924e+003, 3.748101e-003
1.405852e+003, 3.907413e-003
1.407781e+003, 4.146290e-003
1.409709e+003, 4.181231e-003
1.411638e+003, 4.115609e-003
1.413566e+003, 4.088935e-003
1.415495e+003, 4.103696e-003
1.417423e+003, 4.124702e-003
1.419351e+003, 4.125491e-003
1.421280e+003, 4.242681e-003
1.423208e+003, 4.220320e-003
1.425137e+003, 4.259375e-003
1.427065e+003, 4.327388e-003
1.428994e+003, 4.358852e-003
1.430922e+003, 4.511136e-003
1.432851e+003, 4.584394e-003
1.434779e+003, 4.342932e-003
1.436708e+003, 4.213783e-003
1.438636e+003, 4.329354e-003
1.440565e+003, 4.372490e-003
1.442493e+003, 4.303413e-003
1.444422e+003, 4.292191e-003
1.446350e+003, 4.505349e-003
1.448278e+003, 4.512517e-003
1.450207e+003, 4.505505e-003
1.452135e+003, 4.594414e-003
1.454064e+003, 4.392756e-003
1.455992e+003, 4.394681e-003
1.457921e+003, 4.597558e-003
1.459849e+003, 4.703028e-003
1.461778e+003, 4.659511e-003
1.463706e+003, 4.545612e-003
1.465635e+003, 4.428093e-003
1.467563e+003, 4.410462e-003
1.469492e+003, 4.496355e-003
1.471420e+003, 4.447512e-003
1.473349e+003, 4.487449e-003
1.475277e+003, 4.429765e-003
1.477205e+003, 4.255415e-003
1.479134e+003, 4.449858e-003
1.481062e+003, 4.860622e-003
1.482991e+003, 4.704587e-003
1.484919e+003, 4.419816e-003
1.486848e+003, 4.213931e-003
1.488776e+003, 4.259778e-003
1.490705e+003, 4.459323e-003
1.492633e+003, 4.446606e-003
1.494562e+003, 4.519577e-003
1.496490e+003, 4.604310e-003
1.498419e+003, 4.530494e-003
1.500347e+003, 4.574507e-003
1.502276e+003, 4.638343e-003
1.504204e+003, 4.574218e-003
1.506132e+003, 4.643016e-003
1.508061e+003, 4.669803e-003
1.509989e+003, 4.502458e-003
1.511918e+003, 4.481070e-003
1.513846e+003, 4.567132e-003
1.515775e+003, 4.399856e-003
1.517703e+003, 4.416041e-003
1.519632e+003, 4.515238e-003
1.521560e+003, 4.700319e-003
1.523489e+003, 4.687401e-003
1.525417e+003, 4.747051e-003
1.527346e+003, 4.705562e-003
1.529274e+003, 4.436314e-003
1.531203e+003, 4.601159e-003
1.533131e+003, 4.817479e-003
1.535059e+003, 4.818519e-003
1.536988e+003, 4.846537e-003
1.538916e+003, 4.924429e-003
1.540845e+003, 4.985692e-003
1.542773e+003, 5.169878e-003
1.544702e+003, 5.322035e-003
1.546630e+003, 5.246947e-003
1.548559e+003, 5.281829e-003
1.550487e+003, 5.391422e-003
1.552416e+003, 5.241426e-003
1.554344e+003, 5.402939e-003
1.556273e+003, 5.646014e-003
1.558201e+003, 5.692484e-003
1.560130e+003, 5.668505e-003
1.562058e+003, 5.618833e-003
1.563986e+003, 5.602065e-003
1.565915e+003, 5.809548e-003
1.567843e+003, 5.998869e-003
1.569772e+003, 5.995530e-003
1.571700e+003, 5.973124e-003
1.573629e+003, 6.025327e-003
1.575557e+003, 5.903561e-003
1.577486e+003, 5.884283e-003
1.579414e+003, 5.945554e-003
1.581343e+003, 5.945398e-003
1.583271e+003, 5.987221e-003
1.585200e+003, 6.198876e-003
1.587128e+003, 6.306265e-003
1.589057e+003, 6.218923e-003
1.590985e+003, 6.315446e-003
1.592913e+003, 6.389702e-003
1.594842e+003, 6.301431e-003
1.596770e+003, 6.358553e-003
1.598699e+003, 6.394596e-003
1.600627e+003, 6.407934e-003
1.602556e+003, 6.397754e-003
1.604484e+003, 6.279669e-003
1.606413e+003, 6.120092e-003
1.608341e+003, 6.190087e-003
1.610270e+003, 6.181962e-003
1.612198e+003, 6.137684e-003
1.614127e+003, 6.225746e-003
1.616055e+003, 6.325751e-003
1.617984e+003, 6.286847e-003
1.619912e+003, 6.322441e-003
1.621840e+003, 6.557449e-003
1.623769e+003, 6.660786e-003
1.625697e+003, 6.564826e-003
1.627626e+003, 6.525884e-003
1.629554e+003, 6.514568e-003
1.631483e+003, 6.444140e-003
1.633411e+003, 6.167596e-003
1.635340e+003, 5.938109e-003
1.637268e+003, 5.991589e-003
1.639197e+003, 6.233010e-003
1.641125e+003, 6.307133e-003
1.643054e+003, 6.351558e-003
1.644982e+003, 6.243476e-003
1.646911e+003, 6.222518e-003
1.648839e+003, 6.094827e-003
1.650767e+003, 5.942531e-003
1.652696e+003, 5.974871e-003
1.654624e+003, 6.174614e-003
1.656553e+003, 6.306779e-003
1.658481e+003, 6.185055e-003
1.660410e+003, 6.307591e-003
1.662338e+003, 6.298872e-003
1.664267e+003, 6.058799e-003
1.666195e+003, 5.990276e-003
1.668124e+003, 6.042083e-003
1.670052e+003, 6.320340e-003
1.671981e+003, 6.549393e-003
1.673909e+003, 6.273670e-003
1.675838e+003, 5.966580e-003
1.677766e+003, 5.972330e-003
1.679694e+003, 5.952600e-003
1.681623e+003, 5.694192e-003
1.683551e+003, 5.667638e-003
1.685480e+003, 5.766234e-003
1.687408e+003, 5.937866e-003
1.689337e+003, 6.334809e-003
1.691265e+003, 6.420089e-003
1.693194e+003, 6.463444e-003
1.695122e+003, 6.269332e-003
1.697051e+003, 5.985984e-003
1.698979e+003, 6.125444e-003
1.700908e+003, 6.466366e-003
1.702836e+003, 6.453431e-003
1.704765e+003, 6.356722e-003
1.706693e+003, 5.913303e-003
1.708621e+003, 5.842686e-003
1.710550e+003, 5.944448e-003
1.712478e+003, 5.847653e-003
1.714407e+003, 5.943718e-003
1.716335e+003, 6.014379e-003
1.718264e+003, 5.922383e-003
1.720192e+003, 5.972048e-003
1.722121e+003, 6.130365e-003
1.724049e+003, 6.137703e-003
1.725978e+003, 6.180063e-003
1.727906e+003, 6.196753e-003
1.729835e+003, 6.173837e-003
1.731763e+003, 6.303181e-003
1.733692e+003, 6.515739e-003
1.735620e+003, 6.511875e-003
1.737548e+003, 6.129520e-003
1.739477e+003, 5.716988e-003
1.741405e+003, 5.598227e-003
1.743334e+003, 5.759555e-003
1.745262e+003, 5.923285e-003
1.747191e+003, 6.086190e-003
1.749119e+003, 6.130877e-003
1.751048e+003, 6.206871e-003
1.752976e+003, 6.009339e-003
1.754905e+003, 6.148223e-003
1.756833e+003, 6.669007e-003
1.758762e+003, 6.617957e-003
1.760690e+003, 6.504195e-003
1.762619e+003, 6.485794e-003
1.764547e+003, 6.603646e-003
1.766475e+003, 6.750816e-003
1.768404e+003, 6.959645e-003
1.770332e+003, 7.071706e-003
1.772261e+003, 6.939645e-003
1.774189e+003, 6.658878e-003
1.776118e+003, 6.481695e-003
1.778046e+003, 6.696790e-003
1.779975e+003, 6.824048e-003
1.781903e+003, 6.775741e-003
1.783832e+003, 6.629646e-003
1.785760e+003, 6.499471e-003
1.787689e+003, 6.624248e-003
1.789617e+003, 6.720943e-003
1.791546e+003, 6.731067e-003
1.793474e+003, 6.821825e-003
1.795402e+003, 7.065052e-003
1.797331e+003, 7.321285e-003
1.799259e+003, 7.186593e-003
1.801188e+003, 7.128874e-003
1.803116e+003, 7.377657e-003
1.805045e+003, 7.119351e-003
1.806973e+003, 6.906014e-003
1.808902e+003, 6.994179e-003
1.810830e+003, 7.141473e-003
1.812759e+003, 7.241025e-003
1.814687e+003, 6.997340e-003
1.816616e+003, 6.981925e-003
1.818544e+003, 7.164746e-003
1.820473e+003, 7.348590e-003
1.822401e+003, 7.389605e-003
1.824329e+003, 7.389989e-003
1.826258e+003, 7.381486e-003
1.828186e+003, 7.415451e-003
1.830115e+003, 7.788060e-003
1.832043e+003, 7.598800e-003
1.833972e+003, 7.383867e-003
1.835900e+003, 7.556759e-003
1.837829e+003, 7.642610e-003
1.839757e+003, 7.772405e-003
1.841686e+003, 7.732143e-003
1.843614e+003, 7.679881e-003
1.845543e+003, 7.179908e-003
1.847471e+003, 7.040086e-003
1.849400e+003, 7.463681e-003
1.851328e+003, 7.459956e-003
1.853256e+003, 7.476395e-003
1.855185e+003, 7.336288e-003
1.857113e+003, 7.271009e-003
1.859042e+003, 7.646203e-003
1.860970e+003, 8.356184e-003
1.862899e+003, 8.311697e-003
1.864827e+003, 7.680373e-003
1.866756e+003, 7.462031e-003
1.868684e+003, 7.588918e-003
1.870613e+003, 8.074739e-003
1.872541e+003, 8.008846e-003
1.874470e+003, 7.728670e-003
1.876398e+003, 7.767870e-003
1.878327e+003, 7.272453e-003
1.880255e+003, 7.163544e-003
1.882183e+003, 7.468986e-003
1.884112e+003, 7.404328e-003
1.886040e+003, 7.171243e-003
1.887969e+003, 7.464189e-003
1.889897e+003, 8.296159e-003
1.891826e+003, 8.575936e-003
1.893754e+003, 8.216694e-003
1.895683e+003, 8.387174e-003
1.897611e+003, 8.601888e-003
1.899540e+003, 8.208111e-003
1.901468e+003, 7.968351e-003
1.903397e+003, 7.904994e-003
1.905325e+003, 7.597188e-003
1.907254e+003, 7.581362e-003
1.909182e+003, 7.842771e-003
1.911110e+003, 7.983999e-003
1.913039e+003, 7.798193e-003
1.914967e+003, 7.221220e-003
1.916896e+003, 7.366221e-003
1.918824e+003, 8.069278e-003
1.920753e+003, 8.471909e-003
1.922681e+003, 7.810923e-003
1.924610e+003, 7.850133e-003
1.926538e+003, 8.039583e-003
1.928467e+003, 7.568658e-003
1.930395e+003, 6.988100e-003
1.932324e+003, 7.591192e-003
1.934252e+003, 7.942504e-003
1.936181e+003, 8.609018e-003
1.938109e+003, 9.024735e-003
1.940037e+003, 8.874854e-003
1.941966e+003, 8.698356e-003
1.943894e+003, 7.821266e-003
1.945823e+003, 7.930661e-003
1.947751e+003, 8.153947e-003
1.949680e+003, 7.621584e-003
1.951608e+003, 8.158688e-003
1.953537e+003, 8.800960e-003
1.955465e+003, 8.461727e-003
1.957394e+003, 7.446891e-003
1.959322e+003, 7.703148e-003
1.961251e+003, 7.456101e-003
1.963179e+003, 7.796289e-003
1.965108e+003, 8.916335e-003
1.967036e+003, 9.035260e-003
1.968964e+003, 8.637846e-003
1.970893e+003, 7.969356e-003
1.972821e+003, 7.367045e-003
1.974750e+003, 8.402804e-003
1.976678e+003, 9.765560e-003
1.978607e+003, 1.082008e-002
1.980535e+003, 1.094186e-002
1.982464e+003, 1.050100e-002
1.984392e+003, 9.608041e-003
1.986321e+003, 1.013751e-002
1.988249e+003, 9.839525e-003
1.990178e+003, 8.414798e-003
1.992106e+003, 8.937992e-003
1.994035e+003, 9.507161e-003
1.995963e+003, 9.930243e-003
1.997891e+003, 1.016701e-002
1.999820e+003, 9.427354e-003
2.001748e+003, 7.905446e-003
2.003677e+003, 8.305177e-003
2.005605e+003, 9.806870e-003
2.007534e+003, 1.113447e-002
2.009462e+003, 1.111929e-002
2.011391e+003, 1.050775e-002
2.013319e+003, 1.064527e-002
2.015248e+003, 1.130634e-002
2.017176e+003, 1.020797e-002
2.019105e+003, 8.916311e-003
2.021033e+003, 9.571193e-003
2.022962e+003, 9.352714e-003
2.024890e+003, 8.907855e-003
2.026818e+003, 7.400410e-003
2.028747e+003, 7.388080e-003
2.030675e+003, 1.010418e-002
2.032604e+003, 1.105110e-002
2.034532e+003, 1.068461e-002
2.036461e+003, 1.074242e-002
2.038389e+003, 1.045085e-002
2.040318e+003, 9.804032e-003
2.042246e+003, 8.784585e-003
2.044175e+003, 8.570606e-003
2.046103e+003, 9.607850e-003
2.048032e+003, 1.029797e-002
2.049960e+003, 1.013096e-002
2.051889e+003, 1.027417e-002
2.053817e+003, 1.047215e-002
2.055746e+003, 1.045420e-002
2.057674e+003, 1.089239e-002
2.059603e+003, 1.094995e-002
2.061531e+003, 1.048115e-002
2.063459e+003, 1.011988e-002
2.065388e+003, 1.014065e-002
2.067316e+003, 1.124967e-002
2.069245e+003, 1.160141e-002
2.071173e+003, 1.062554e-002
2.073102e+003, 9.116334e-003
2.075030e+003, 9.258874e-003
2.076959e+003, 1.046229e-002
2.078887e+003, 1.075512e-002
2.080816e+003, 1.068507e-002
2.082744e+003, 1.038589e-002
2.084673e+003, 1.079848e-002
2.086601e+003, 1.118756e-002
2.088530e+003, 1.066671e-002
2.090458e+003, 1.009435e-002
2.092386e+003, 9.329057e-003
2.094315e+003, 8.859148e-003
2.096243e+003, 9.102860e-003
2.098172e+003, 9.926923e-003
2.100100e+003, 9.829409e-003
2.102029e+003, 9.783807e-003
2.103957e+003, 9.971780e-003
2.105886e+003, 1.074246e-002
2.107814e+003, 1.189377e-002
2.109743e+003, 1.213640e-002
2.111671e+003, 1.197912e-002
2.113600e+003, 1.103199e-002
2.115528e+003, 1.092721e-002
2.117457e+003, 1.133663e-002
2.119385e+003, 1.192963e-002
2.121313e+003, 1.144525e-002
2.123242e+003, 1.077984e-002
2.125170e+003, 1.033386e-002
2.127099e+003, 9.721380e-003
2.129027e+003, 8.267491e-003
2.130956e+003, 7.453151e-003
2.132884e+003, 8.557900e-003
2.134813e+003, 9.750283e-003
2.136741e+003, 9.437686e-003
2.138670e+003, 8.693056e-003
2.140598e+003, 9.420696e-003
2.142527e+003, 9.964896e-003
2.144455e+003, 9.760804e-003
2.146384e+003, 9.610482e-003
2.148312e+003, 8.992761e-003
2.150240e+003, 8.279236e-003
2.152169e+003, 9.361136e-003
2.154097e+003, 8.833240e-003
2.156026e+003, 7.716892e-003
2.157954e+003, 8.194902e-003
2.159883e+003, 1.162180e-002
2.161811e+003, 1.242395e-002
2.163740e+003, 1.115555e-002
2.165668e+003, 1.016859e-002
2.167597e+003, 1.058373e-002
2.169525e+003, 1.133009e-002
2.171454e+003, 1.199591e-002
2.173382e+003, 1.147764e-002
2.175311e+003, 9.317177e-003
2.177239e+003, 1.092802e-002
2.179167e+003, 1.260948e-002
2.181096e+003, 1.138563e-002
2.183024e+003, 1.099746e-002
2.184953e+003, 1.084240e-002
2.186881e+003, 1.212732e-002
2.188810e+003, 1.290999e-002
2.190738e+003, 1.281071e-002
2.192667e+003, 1.273319e-002
2.194595e+003, 1.230070e-002
2.196524e+003, 1.228202e-002
2.198452e+003, 1.254667e-002
2.200381e+003, 1.112962e-002
2.202309e+003, 1.082796e-002
2.204238e+003, 1.179332e-002
2.206166e+003, 1.304012e-002
2.208094e+003, 1.439627e-002
2.210023e+003, 1.434838e-002
2.211951e+003, 1.236673e-002
2.213880e+003, 1.186927e-002
2.215808e+003, 1.268911e-002
2.217737e+003, 1.191801e-002
2.219665e+003, 1.082278e-002
2.221594e+003, 1.168060e-002
2.223522e+003, 1.163017e-002
2.225451e+003, 1.086675e-002
2.227379e+003, 1.179053e-002
2.229308e+003, 1.265640e-002
2.231236e+003, 1.189213e-002
2.233165e+003, 1.219045e-002
2.235093e+003, 1.275887e-002
2.237021e+003, 1.360063e-002
2.238950e+003, 1.306899e-002
2.240878e+003, 1.295030e-002
2.242807e+003, 1.272134e-002
2.244735e+003, 1.203404e-002
2.246664e+003, 1.228971e-002
2.248592e+003, 1.283364e-002
2.250521e+003, 1.268779e-002
2.252449e+003, 1.195189e-002
2.254378e+003, 1.242911e-002
2.256306e+003, 1.241651e-002
2.258235e+003, 1.223191e-002
2.260163e+003, 1.297992e-002
2.262092e+003, 1.285218e-002
2.264020e+003, 1.280798e-002
2.265948e+003, 1.246005e-002
2.267877e+003, 1.305863e-002
2.269805e+003, 1.399339e-002
2.271734e+003, 1.412783e-002
2.273662e+003, 1.388477e-002
2.275591e+003, 1.385104e-002
2.277519e+003, 1.392724e-002
2.279448e+003, 1.356833e-002
2.281376e+003, 1.370416e-002
2.283305e+003, 1.411413e-002
2.285233e+003, 1.356271e-002
2.287162e+003, 1.340816e-002
2.289090e+003, 1.327712e-002
2.291019e+003, 1.282345e-002
2.292947e+003, 1.252838e-002
2.294875e+003, 1.309052e-002
2.296804e+003, 1.355537e-002
2.298732e+003, 1.435448e-002
2.300661e+003, 1.415612e-002
2.302589e+003, 1.355540e-002
2.304518e+003, 1.358156e-002
2.306446e+003, 1.372956e-002
2.308375e+003, 1.367267e-002
2.310303e+003, 1.401400e-002
2.312232e+003, 1.395892e-002
2.314160e+003, 1.380044e-002
2.316089e+003, 1.387809e-002
2.318017e+003, 1.406155e-002
2.319946e+003, 1.461526e-002
2.321874e+003, 1.491080e-002
2.323802e+003, 1.480775e-002
2.325731e+003, 1.461992e-002
2.327659e+003, 1.380773e-002
2.329588e+003, 1.347148e-002
2.331516e+003, 1.405320e-002
2.333445e+003, 1.409448e-002
2.335373e+003, 1.339641e-002
2.337302e+003, 1.311694e-002
2.339230e+003, 1.267987e-002
2.341159e+003, 1.262325e-002
2.343087e+003, 1.328506e-002
2.345016e+003, 1.315522e-002
2.346944e+003, 1.275068e-002
2.348873e+003, 1.256205e-002
2.350801e+003, 1.277610e-002
2.352729e+003, 1.346598e-002
2.354658e+003, 1.359193e-002
2.356586e+003, 1.330117e-002
2.358515e+003, 1.339260e-002
2.360443e+003, 1.352498e-002
2.362372e+003, 1.363489e-002
2.364300e+003, 1.351163e-002
2.366229e+003, 1.324828e-002
2.368157e+003, 1.335603e-002
2.370086e+003, 1.367512e-002
2.372014e+003, 1.320172e-002
2.373942e+003, 1.274560e-002
2.375871e+003, 1.316180e-002
2.377799e+003, 1.262917e-002
2.379728e+003, 1.198563e-002
2.381656e+003, 1.216356e-002
2.383585e+003, 1.211408e-002
2.385513e+003, 1.197429e-002
2.387442e+003, 1.222660e-002
2.389370e+003, 1.288809e-002
2.391299e+003, 1.337706e-002
2.393227e+003, 1.322266e-002
2.395156e+003, 1.262417e-002
2.397084e+003, 1.241086e-002
2.399012e+003, 1.263671e-002
2.400941e+003, 1.271590e-002
2.402869e+003, 1.210483e-002
2.404798e+003, 1.105804e-002
2.406726e+003, 1.198180e-002
2.408655e+003, 1.308682e-002
2.410583e+003, 1.285485e-002
2.412512e+003, 1.253211e-002
2.414440e+003, 1.310748e-002
2.416369e+003, 1.383276e-002
2.418297e+003, 1.331708e-002
2.420226e+003, 1.248413e-002
2.422154e+003, 1.232394e-002
2.424083e+003, 1.275090e-002
2.426011e+003, 1.308248e-002
2.427939e+003, 1.329091e-002
2.429868e+003, 1.328410e-002
2.431796e+003, 1.390908e-002
2.433725e+003, 1.444382e-002
2.435653e+003, 1.422033e-002
2.437582e+003, 1.346385e-002
2.439510e+003, 1.311239e-002
2.441439e+003, 1.293522e-002
2.443367e+003, 1.295822e-002
2.445296e+003, 1.342235e-002
2.447224e+003, 1.357378e-002
2.449153e+003, 1.389225e-002
2.451081e+003, 1.408752e-002
2.453010e+003, 1.424975e-002
2.454938e+003, 1.450730e-002
2.456866e+003, 1.412910e-002
2.458795e+003, 1.380556e-002
2.460723e+003, 1.418888e-002
2.462652e+003, 1.396139e-002
2.464580e+003, 1.331412e-002
2.466509e+003, 1.319893e-002
2.468437e+003, 1.295673e-002
2.470366e+003, 1.313588e-002
2.472294e+003, 1.398269e-002
2.474223e+003, 1.364623e-002
2.476151e+003, 1.337073e-002
2.478080e+003, 1.409677e-002
2.480008e+003, 1.453385e-002
2.481937e+003, 1.432412e-002
2.483865e+003, 1.432424e-002
2.485793e+003, 1.423596e-002
2.487722e+003, 1.403487e-002
2.489650e+003, 1.379632e-002
2.491579e+003, 1.297226e-002
2.493507e+003, 1.339896e-002
2.495436e+003, 1.413293e-002
2.497364e+003, 1.431002e-002
2.499293e+003, 1.420411e-002
2.501221e+003, 1.383132e-002
2.503150e+003, 1.346471e-002
2.505078e+003, 1.334777e-002
2.507007e+003, 1.369632e-002
2.508935e+003, 1.450403e-002
2.510864e+003, 1.398306e-002
2.512792e+003, 1.332971e-002
2.514720e+003, 1.313584e-002
2.516649e+003, 1.360901e-002
2.518577e+003, 1.513610e-002
2.520506e+003, 1.521865e-002
2.522434e+003, 1.383943e-002
2.524363e+003, 1.367850e-002
2.526291e+003, 1.528516e-002
2.528220e+003, 1.562442e-002
2.530148e+003, 1.454707e-002
2.532077e+003, 1.432166e-002
2.534005e+003, 1.416110e-002
2.535934e+003, 1.352248e-002
2.537862e+003, 1.352919e-002
2.539791e+003, 1.373475e-002
2.541719e+003, 1.435180e-002
2.543647e+003, 1.468583e-002
2.545576e+003, 1.436367e-002
2.547504e+003, 1.398562e-002
2.549433e+003, 1.432947e-002
2.551361e+003, 1.399019e-002
2.553290e+003, 1.315469e-002
2.555218e+003, 1.346556e-002
2.557147e+003, 1.460511e-002
2.559075e+003, 1.505730e-002
2.561004e+003, 1.521815e-002
2.562932e+003, 1.550152e-002
2.564861e+003, 1.429170e-002
2.566789e+003, 1.379361e-002
2.568718e+003, 1.432526e-002
2.570646e+003, 1.386065e-002
2.572574e+003, 1.429488e-002
2.574503e+003, 1.513373e-002
2.576431e+003, 1.461882e-002
2.578360e+003, 1.459904e-002
2.580288e+003, 1.516722e-002
2.582217e+003, 1.452119e-002
2.584145e+003, 1.457723e-002
2.586074e+003, 1.547754e-002
2.588002e+003, 1.611759e-002
2.589931e+003, 1.628247e-002
2.591859e+003, 1.513339e-002
2.593788e+003, 1.442268e-002
2.595716e+003, 1.469609e-002
2.597645e+003, 1.498896e-002
2.599573e+003, 1.500349e-002
2.601501e+003, 1.516759e-002
2.603430e+003, 1.529931e-002
2.605358e+003, 1.480351e-002
2.607287e+003, 1.521918e-002
2.609215e+003, 1.556679e-002
2.611144e+003, 1.564145e-002
2.613072e+003, 1.575449e-002
2.615001e+003, 1.510474e-002
2.616929e+003, 1.466774e-002
2.618858e+003, 1.501957e-002
2.620786e+003, 1.517908e-002
2.622715e+003, 1.539230e-002
2.624643e+003, 1.568211e-002
2.626572e+003, 1.493586e-002
2.628500e+003, 1.425399e-002
2.630428e+003, 1.437442e-002
2.632357e+003, 1.495930e-002
2.634285e+003, 1.588796e-002
2.636214e+003, 1.632534e-002
2.638142e+003, 1.562798e-002
2.640071e+003, 1.514318e-002
2.641999e+003, 1.549102e-002
2.643928e+003, 1.547950e-002
2.645856e+003, 1.558943e-002
2.647785e+003, 1.573171e-002
2.649713e+003, 1.596899e-002
2.651642e+003, 1.566164e-002
2.653570e+003, 1.502908e-002
2.655499e+003, 1.545004e-002
2.657427e+003, 1.560915e-002
2.659355e+003, 1.529630e-002
2.661284e+003, 1.531017e-002
2.663212e+003, 1.492958e-002
2.665141e+003, 1.449812e-002
2.667069e+003, 1.414644e-002
2.668998e+003, 1.433402e-002
2.670926e+003, 1.499801e-002
2.672855e+003, 1.492613e-002
2.674783e+003, 1.474372e-002
2.676712e+003, 1.436458e-002
2.678640e+003, 1.388405e-002
2.680569e+003, 1.401360e-002
2.682497e+003, 1.458363e-002
2.684426e+003, 1.492894e-002
2.686354e+003, 1.456161e-002
2.688282e+003, 1.438574e-002
2.690211e+003, 1.463225e-002
2.692139e+003, 1.490543e-002
2.694068e+003, 1.498320e-002
2.695996e+003, 1.507382e-002
2.697925e+003, 1.497513e-002
2.699853e+003, 1.493510e-002
2.701782e+003, 1.501295e-002
2.703710e+003, 1.496315e-002
2.705639e+003, 1.493215e-002
2.707567e+003, 1.476472e-002
2.709496e+003, 1.482396e-002
2.711424e+003, 1.528404e-002
2.713353e+003, 1.519846e-002
2.715281e+003, 1.495830e-002
2.717209e+003, 1.511464e-002
2.719138e+003, 1.523388e-002
2.721066e+003, 1.498542e-002
2.722995e+003, 1.452647e-002
2.724923e+003, 1.488305e-002
2.726852e+003, 1.522154e-002
2.728780e+003, 1.527654e-002
2.730709e+003, 1.517196e-002
2.732637e+003, 1.441623e-002
2.734566e+003, 1.415679e-002
2.736494e+003, 1.441244e-002
2.738423e+003, 1.527106e-002
2.740351e+003, 1.535806e-002
2.742280e+003, 1.518728e-002
2.744208e+003, 1.535610e-002
2.746136e+003, 1.521574e-002
2.748065e+003, 1.473940e-002
2.749993e+003, 1.399214e-002
2.751922e+003, 1.414902e-002
2.753850e+003, 1.469865e-002
2.755779e+003, 1.526806e-002
2.757707e+003, 1.519508e-002
2.759636e+003, 1.457153e-002
2.761564e+003, 1.477929e-002
2.763493e+003, 1.583128e-002
2.765421e+003, 1.605515e-002
2.767350e+003, 1.602769e-002
2.769278e+003, 1.583988e-002
2.771207e+003, 1.556783e-002
2.773135e+003, 1.552282e-002
2.775063e+003, 1.529007e-002
2.776992e+003, 1.513446e-002
2.778920e+003, 1.516744e-002
2.780849e+003, 1.490927e-002
2.782777e+003, 1.528485e-002
2.784706e+003, 1.561198e-002
2.786634e+003, 1.559239e-002
2.788563e+003, 1.573114e-002
2.790491e+003, 1.636948e-002
2.792420e+003, 1.651838e-002
2.794348e+003, 1.619411e-002
2.796277e+003, 1.580262e-002
2.798205e+003, 1.556219e-002
2.800134e+003, 1.572432e-002
2.802062e+003, 1.605629e-002
2.803990e+003, 1.570626e-002
2.805919e+003, 1.539163e-002
2.807847e+003, 1.545224e-002
2.809776e+003, 1.578073e-002
2.811704e+003, 1.580195e-002
2.813633e+003, 1.525901e-002
2.815561e+003, 1.538840e-002
2.817490e+003, 1.610610e-002
2.819418e+003, 1.623535e-002
2.821347e+003, 1.603798e-002
2.823275e+003, 1.559124e-002
2.825204e+003, 1.484745e-002
2.827132e+003, 1.473831e-002
2.829061e+003, 1.531686e-002
2.830989e+003, 1.525351e-002
2.832917e+003, 1.512401e-002
2.834846e+003, 1.508619e-002
2.836774e+003, 1.519875e-002
2.838703e+003, 1.608890e-002
2.840631e+003, 1.613015e-002
2.842560e+003, 1.598328e-002
2.844488e+003, 1.615797e-002
2.846417e+003, 1.616291e-002
2.848345e+003, 1.533824e-002
2.850274e+003, 1.448003e-002
2.852202e+003, 1.431706e-002
2.854131e+003, 1.458564e-002
2.856059e+003, 1.517782e-002
2.857988e+003, 1.535689e-002
2.859916e+003, 1.534212e-002
2.861844e+003, 1.601045e-002
2.863773e+003, 1.558119e-002
2.865701e+003, 1.475585e-002
2.867630e+003, 1.486328e-002
2.869558e+003, 1.449758e-002
2.871487e+003, 1.459926e-002
2.873415e+003, 1.548809e-002
2.875344e+003, 1.621608e-002
2.877272e+003, 1.653441e-002
2.879201e+003, 1.622410e-002
2.881129e+003, 1.589015e-002
2.883058e+003, 1.577434e-002
2.884986e+003, 1.564502e-002
2.886915e+003, 1.600101e-002
2.888843e+003, 1.629580e-002
2.890771e+003, 1.604927e-002
2.892700e+003, 1.619133e-002
2.894628e+003, 1.644173e-002
2.896557e+003, 1.607915e-002
2.898485e+003, 1.569703e-002
2.900414e+003, 1.640877e-002
2.902342e+003, 1.702066e-002
2.904271e+003, 1.635884e-002
2.906199e+003, 1.567806e-002
2.908128e+003, 1.514516e-002
2.910056e+003, 1.486911e-002
2.911985e+003, 1.460671e-002
2.913913e+003, 1.486137e-002
2.915842e+003, 1.531783e-002
2.917770e+003, 1.516093e-002
2.919698e+003, 1.489499e-002
2.921627e+003, 1.424296e-002
2.923555e+003, 1.426558e-002
2.925484e+003, 1.442263e-002
2.927412e+003, 1.402341e-002
2.929341e+003, 1.375239e-002
2.931269e+003, 1.415040e-002
2.933198e+003, 1.500919e-002
2.935126e+003, 1.577848e-002
2.937055e+003, 1.565102e-002
2.938983e+003, 1.518059e-002
2.940912e+003, 1.506207e-002
2.942840e+003, 1.564394e-002
2.944769e+003, 1.545182e-002
2.946697e+003, 1.475219e-002
2.948625e+003, 1.568498e-002
2.950554e+003, 1.595506e-002
2.952482e+003, 1.524795e-002
2.954411e+003, 1.490915e-002
2.956339e+003, 1.503712e-002
2.958268e+003, 1.584404e-002
2.960196e+003, 1.630835e-002
2.962125e+003, 1.618986e-002
2.964053e+003, 1.585594e-002
2.965982e+003, 1.636372e-002
2.967910e+003, 1.635404e-002
2.969839e+003, 1.603234e-002
2.971767e+003, 1.610218e-002
2.973696e+003, 1.588717e-002
2.975624e+003, 1.609532e-002
2.977552e+003, 1.604032e-002
2.979481e+003, 1.569033e-002
2.981409e+003, 1.604600e-002
2.983338e+003, 1.624365e-002
2.985266e+003, 1.624834e-002
2.987195e+003, 1.661719e-002
2.989123e+003, 1.622581e-002
2.991052e+003, 1.571214e-002
2.992980e+003, 1.665370e-002
2.994909e+003, 1.727469e-002
2.996837e+003, 1.716667e-002
2.998766e+003, 1.701805e-002
3.000694e+003, 1.638537e-002
3.002623e+003, 1.599428e-002
3.004551e+003, 1.625220e-002
3.006479e+003, 1.630469e-002
3.008408e+003, 1.602460e-002
3.010336e+003, 1.641651e-002
3.012265e+003, 1.693035e-002
3.014193e+003, 1.705805e-002
3.016122e+003, 1.752466e-002
3.018050e+003, 1.755410e-002
3.019979e+003, 1.750478e-002
3.021907e+003, 1.751718e-002
3.023836e+003, 1.729260e-002
3.025764e+003, 1.770892e-002
3.027693e+003, 1.774359e-002
3.029621e+003, 1.718045e-002
3.031550e+003, 1.690799e-002
3.033478e+003, 1.764537e-002
3.035406e+003, 1.769043e-002
3.037335e+003, 1.654336e-002
3.039263e+003, 1.640999e-002
3.041192e+003, 1.790145e-002
3.043120e+003, 1.749781e-002
3.045049e+003, 1.669562e-002
3.046977e+003, 1.658423e-002
3.048906e+003, 1.593211e-002
3.050834e+003, 1.572684e-002
3.052763e+003, 1.652118e-002
3.054691e+003, 1.674808e-002
3.056620e+003, 1.672840e-002
3.058548e+003, 1.714091e-002
3.060477e+003, 1.703934e-002
3.062405e+003, 1.774165e-002
3.064333e+003, 1.766958e-002
3.066262e+003, 1.725515e-002
3.068190e+003, 1.720823e-002
3.070119e+003, 1.777047e-002
3.072047e+003, 1.811507e-002
3.073976e+003, 1.687074e-002
3.075904e+003, 1.640352e-002
3.077833e+003, 1.692733e-002
3.079761e+003, 1.699074e-002
3.081690e+003, 1.711277e-002
3.083618e+003, 1.760944e-002
3.085547e+003, 1.847731e-002
3.087475e+003, 1.820086e-002
3.089404e+003, 1.736713e-002
3.091332e+003, 1.746348e-002
3.093260e+003, 1.846272e-002
3.095189e+003, 1.920652e-002
3.097117e+003, 1.877324e-002
3.099046e+003, 1.809047e-002
3.100974e+003, 1.706647e-002
3.102903e+003, 1.640680e-002
3.104831e+003, 1.726399e-002
3.106760e+003, 1.830975e-002
3.108688e+003, 1.877517e-002
3.110617e+003, 1.846433e-002
3.112545e+003, 1.773869e-002
3.114474e+003, 1.716950e-002
3.116402e+003, 1.756347e-002
3.118331e+003, 1.813456e-002
3.120259e+003, 1.752760e-002
3.122188e+003, 1.759450e-002
3.124116e+003, 1.785749e-002
3.126044e+003, 1.815968e-002
3.127973e+003, 1.878834e-002
3.129901e+003, 1.889782e-002
3.131830e+003, 1.882939e-002
3.133758e+003, 1.867791e-002
3.135687e+003, 1.900882e-002
3.137615e+003, 1.922293e-002
3.139544e+003, 1.811318e-002
3.141472e+003, 1.769643e-002
3.143401e+003, 1.837937e-002
3.145329e+003, 1.897586e-002
3.147258e+003, 1.815166e-002
3.149186e+003, 1.769560e-002
3.151115e+003, 1.841103e-002
3.153043e+003, 1.825003e-002
3.154971e+003, 1.797837e-002
3.156900e+003, 1.803419e-002
3.158828e+003, 1.776706e-002
3.160757e+003, 1.883713e-002
3.162685e+003, 1.937898e-002
3.164614e+003, 1.944323e-002
3.166542e+003, 1.862177e-002
3.168471e+003, 1.755002e-002
3.170399e+003, 1.795389e-002
3.172328e+003, 1.896055e-002
3.174256e+003, 1.951399e-002
3.176185e+003, 1.972514e-002
3.178113e+003, 1.936384e-002
3.180042e+003, 1.878736e-002
3.181970e+003, 1.895127e-002
3.183898e+003, 1.845472e-002
3.185827e+003, 1.820960e-002
3.187755e+003, 1.780854e-002
3.189684e+003, 1.732780e-002
3.191612e+003, 1.782570e-002
3.193541e+003, 1.772329e-002
3.195469e+003, 1.721536e-002
3.197398e+003, 1.762130e-002
3.199326e+003, 1.802760e-002
3.201255e+003, 1.865476e-002
3.203183e+003, 1.932501e-002
3.205112e+003, 1.933718e-002
3.207040e+003, 1.907926e-002
3.208969e+003, 1.864906e-002
3.210897e+003, 1.762663e-002
3.212825e+003, 1.722556e-002
3.214754e+003, 1.861565e-002
3.216682e+003, 2.025011e-002
3.218611e+003, 2.024472e-002
3.220539e+003, 1.909650e-002
3.222468e+003, 1.901388e-002
3.224396e+003, 1.951301e-002
3.226325e+003, 1.958658e-002
3.228253e+003, 1.970210e-002
3.230182e+003, 2.001956e-002
3.232110e+003, 1.981264e-002
3.234039e+003, 1.930604e-002
3.235967e+003, 1.897778e-002
3.237896e+003, 1.854940e-002
3.239824e+003, 1.771368e-002
3.241752e+003, 1.764787e-002
3.243681e+003, 1.902063e-002
3.245609e+003, 1.995876e-002
3.247538e+003, 2.028977e-002
3.249466e+003, 1.951374e-002
3.251395e+003, 1.928362e-002
3.253323e+003, 1.949275e-002
3.255252e+003, 1.993218e-002
3.257180e+003, 1.935348e-002
3.259109e+003, 1.967578e-002
3.261037e+003, 2.018844e-002
3.262966e+003, 1.969106e-002
3.264894e+003, 1.909787e-002
3.266823e+003, 1.892353e-002
3.268751e+003, 1.946144e-002
3.270679e+003, 2.010688e-002
3.272608e+003, 1.966448e-002
3.274536e+003, 1.906553e-002
3.276465e+003, 1.971198e-002
3.278393e+003, 1.973614e-002
3.280322e+003, 1.986744e-002
3.282250e+003, 2.024784e-002
3.284179e+003, 2.054453e-002
3.286107e+003, 1.996917e-002
3.288036e+003, 1.929331e-002
3.289964e+003, 1.817804e-002
3.291893e+003, 1.872491e-002
3.293821e+003, 1.981751e-002
3.295750e+003, 1.938263e-002
3.297678e+003, 1.940028e-002
3.299606e+003, 2.054965e-002
3.301535e+003, 1.970676e-002
3.303463e+003, 1.899281e-002
3.305392e+003, 1.936308e-002
3.307320e+003, 2.002985e-002
3.309249e+003, 1.992724e-002
3.311177e+003, 1.920571e-002
3.313106e+003, 2.054230e-002
3.315034e+003, 2.090305e-002
3.316963e+003, 1.883423e-002
3.318891e+003, 1.844358e-002
3.320820e+003, 1.951836e-002
3.322748e+003, 1.863173e-002
3.324677e+003, 1.745414e-002
3.326605e+003, 1.785189e-002
3.328533e+003, 1.759473e-002
3.330462e+003, 1.801057e-002
3.332390e+003, 2.028918e-002
3.334319e+003, 2.131007e-002
3.336247e+003, 2.022175e-002
3.338176e+003, 1.989317e-002
3.340104e+003, 1.959503e-002
3.342033e+003, 1.898219e-002
3.343961e+003, 1.847842e-002
3.345890e+003, 1.917899e-002
3.347818e+003, 2.056727e-002
3.349747e+003, 2.093895e-002
3.351675e+003, 2.046004e-002
3.353604e+003, 2.109962e-002
3.355532e+003, 2.207853e-002
3.357460e+003, 2.050591e-002
3.359389e+003, 1.834515e-002
3.361317e+003, 1.922467e-002
3.363246e+003, 2.107731e-002
3.365174e+003, 2.083356e-002
3.367103e+003, 1.993920e-002
3.369031e+003, 2.002952e-002
3.370960e+003, 2.016829e-002
3.372888e+003, 2.026767e-002
3.374817e+003, 2.145637e-002
3.376745e+003, 2.199319e-002
3.378674e+003, 2.248106e-002
3.380602e+003, 2.179585e-002
3.382531e+003, 2.041674e-002
3.384459e+003, 2.019888e-002
3.386387e+003, 2.001372e-002
3.388316e+003, 2.065659e-002
3.390244e+003, 2.230059e-002
3.392173e+003, 2.169058e-002
3.394101e+003, 2.057496e-002
3.396030e+003, 2.021934e-002
3.397958e+003, 1.986396e-002
3.399887e+003, 1.951887e-002
3.401815e+003, 1.933377e-002
3.403744e+003, 1.875397e-002
3.405672e+003, 1.913911e-002
3.407601e+003, 1.976281e-002
3.409529e+003, 1.935961e-002
3.411458e+003, 1.960552e-002
3.413386e+003, 1.908675e-002
3.415314e+003, 1.858689e-002
3.417243e+003, 1.941707e-002
3.419171e+003, 1.993390e-002
3.421100e+003, 2.010028e-002
3.423028e+003, 1.904790e-002
3.424957e+003, 1.917105e-002
3.426885e+003, 2.128915e-002
3.428814e+003, 2.140690e-002
3.430742e+003, 1.970924e-002
3.432671e+003, 1.952873e-002
3.434599e+003, 1.922639e-002
3.436528e+003, 1.926775e-002
3.438456e+003, 2.155841e-002
3.440385e+003, 2.252215e-002
3.442313e+003, 2.082311e-002
3.444241e+003, 1.904852e-002
3.446170e+003, 1.965474e-002
3.448098e+003, 2.014479e-002
3.450027e+003, 2.054836e-002
3.451955e+003, 2.097024e-002
3.453884e+003, 1.926097e-002
3.455812e+003, 1.795588e-002
3.457741e+003, 1.832719e-002
3.459669e+003, 1.850175e-002
3.461598e+003, 1.829757e-002
3.463526e+003, 1.746065e-002
3.465455e+003, 1.710707e-002
3.467383e+003, 1.806926e-002
3.469312e+003, 2.048363e-002
3.471240e+003, 2.231698e-002
3.473168e+003, 2.149191e-002
3.475097e+003, 1.866095e-002
3.477025e+003, 1.880356e-002
3.478954e+003, 1.939128e-002
3.480882e+003, 1.900584e-002
3.482811e+003, 1.969819e-002
3.484739e+003, 2.021694e-002
3.486668e+003, 1.929968e-002
3.488596e+003, 1.993830e-002
3.490525e+003, 1.999469e-002
3.492453e+003, 1.952315e-002
3.494382e+003, 1.946692e-002
3.496310e+003, 2.029046e-002
3.498239e+003, 2.061847e-002
3.500167e+003, 2.100530e-002
3.502095e+003, 2.021523e-002
3.504024e+003, 1.943174e-002
3.505952e+003, 1.870567e-002
3.507881e+003, 1.971783e-002
3.509809e+003, 2.207426e-002
3.511738e+003, 2.252113e-002
3.513666e+003, 2.034650e-002
3.515595e+003, 1.965733e-002
3.517523e+003, 1.971584e-002
3.519452e+003, 1.923558e-002
3.521380e+003, 2.022712e-002
3.523309e+003, 1.980365e-002
3.525237e+003, 1.854981e-002
3.527166e+003, 1.853924e-002
3.529094e+003, 1.847895e-002
3.531022e+003, 1.918637e-002
3.532951e+003, 1.933904e-002
3.534879e+003, 1.942548e-002
3.536808e+003, 1.951294e-002
3.538736e+003, 1.927045e-002
3.540665e+003, 1.867315e-002
3.542593e+003, 1.953301e-002
3.544522e+003, 2.140578e-002
3.546450e+003, 2.167136e-002
3.548379e+003, 2.088455e-002
3.550307e+003, 2.133467e-002
3.552236e+003, 2.113541e-002
3.554164e+003, 1.971261e-002
3.556093e+003, 1.949577e-002
3.558021e+003, 1.859255e-002
3.559949e+003, 1.913007e-002
3.561878e+003, 2.053791e-002
3.563806e+003, 2.088939e-002
3.565735e+003, 2.055573e-002
3.567663e+003, 1.990861e-002
3.569592e+003, 1.803975e-002
3.571520e+003, 1.919952e-002
3.573449e+003, 2.021125e-002
3.575377e+003, 1.976124e-002
3.577306e+003, 2.007807e-002
3.579234e+003, 2.020460e-002
3.581163e+003, 2.049250e-002
3.583091e+003, 2.040325e-002
3.585020e+003, 2.186063e-002
3.586948e+003, 2.269371e-002
3.588876e+003, 2.033563e-002
3.590805e+003, 1.883947e-002
3.592733e+003, 1.829314e-002
3.594662e+003, 1.916892e-002
3.596590e+003, 1.966715e-002
3.598519e+003, 1.849367e-002
3.600447e+003, 1.860921e-002
3.602376e+003, 1.926080e-002
3.604304e+003, 2.114051e-002
3.606233e+003, 2.245690e-002
3.608161e+003, 2.110091e-002
3.610090e+003, 2.026166e-002
3.612018e+003, 2.031639e-002
3.613947e+003, 2.009593e-002
3.615875e+003, 2.024442e-002
3.617803e+003, 2.155446e-002
3.619732e+003, 2.095426e-002
3.621660e+003, 2.090498e-002
3.623589e+003, 2.146463e-002
3.625517e+003, 2.049478e-002
3.627446e+003, 1.963625e-002
3.629374e+003, 1.968722e-002
3.631303e+003, 1.922509e-002
3.633231e+003, 1.882955e-002
3.635160e+003, 1.828368e-002
3.637088e+003, 1.805173e-002
3.639017e+003, 2.021228e-002
3.640945e+003, 2.120379e-002
3.642874e+003, 2.218639e-002
3.644802e+003, 2.133476e-002
3.646730e+003, 1.905469e-002
3.648659e+003, 1.809496e-002
3.650587e+003, 1.764174e-002
3.652516e+003, 1.866937e-002
3.654444e+003, 1.935653e-002
3.656373e+003, 2.021361e-002
3.658301e+003, 2.080129e-002
3.660230e+003, 2.032151e-002
3.662158e+003, 1.995158e-002
3.664087e+003, 1.965529e-002
3.666015e+003, 1.944662e-002
3.667944e+003, 2.001726e-002
3.669872e+003, 2.111076e-002
3.671801e+003, 2.117189e-002
3.673729e+003, 2.075313e-002
3.675657e+003, 2.118324e-002
3.677586e+003, 2.064798e-002
3.679514e+003, 2.151296e-002
3.681443e+003, 2.129114e-002
3.683371e+003, 2.029836e-002
3.685300e+003, 2.132760e-002
3.687228e+003, 2.066868e-002
3.689157e+003, 2.089241e-002
3.691085e+003, 2.085915e-002
3.693014e+003, 1.964852e-002
3.694942e+003, 1.954693e-002
3.696871e+003, 1.968044e-002
3.698799e+003, 1.897258e-002
3.700728e+003, 1.896473e-002
3.702656e+003, 1.951825e-002
3.704584e+003, 2.060081e-002
3.706513e+003, 2.126442e-002
3.708441e+003, 2.231341e-002
3.710370e+003, 2.251769e-002
3.712298e+003, 1.943607e-002
3.714227e+003, 1.733419e-002
3.716155e+003, 1.838092e-002
3.718084e+003, 1.933882e-002
3.720012e+003, 1.989521e-002
3.721941e+003, 2.078756e-002
3.723869e+003, 2.132060e-002
3.725798e+003, 1.955128e-002
3.727726e+003, 1.841031e-002
3.729655e+003, 1.814474e-002
3.731583e+003, 1.813996e-002
3.733511e+003, 1.885326e-002
3.735440e+003, 1.921775e-002
3.737368e+003, 2.010616e-002
3.739297e+003, 2.113541e-002
3.741225e+003, 1.938389e-002
3.743154e+003, 1.880693e-002
3.745082e+003, 1.904104e-002
3.747011e+003, 1.919674e-002
3.748939e+003, 2.082977e-002
3.750868e+003, 2.116937e-002
3.752796e+003, 2.151958e-002
3.754725e+003, 2.190955e-002
3.756653e+003, 2.164146e-002
3.758582e+003, 2.144908e-002
3.760510e+003, 2.149962e-002
3.762438e+003, 2.040466e-002
3.764367e+003, 1.900556e-002
3.766295e+003, 1.883763e-002
3.768224e+003, 1.981730e-002
3.770152e+003, 2.071130e-002
3.772081e+003, 1.988408e-002
3.774009e+003, 1.881100e-002
3.775938e+003, 1.861725e-002
3.777866e+003, 1.934937e-002
3.779795e+003, 2.172151e-002
3.781723e+003, 2.336420e-002
3.783652e+003, 2.328974e-002
3.785580e+003, 2.187119e-002
3.787509e+003, 2.131100e-002
3.789437e+003, 2.106151e-002
3.791365e+003, 2.063008e-002
3.793294e+003, 2.016346e-002
3.795222e+003, 2.256957e-002
3.797151e+003, 2.398091e-002
3.799079e+003, 2.230462e-002
3.801008e+003, 2.092996e-002
3.802936e+003, 1.901716e-002
3.804865e+003, 1.888164e-002
3.806793e+003, 1.903824e-002
3.808722e+003, 1.914697e-002
3.810650e+003, 2.161707e-002
3.812579e+003, 2.354108e-002
3.814507e+003, 2.138698e-002
3.816436e+003, 1.966878e-002
3.818364e+003, 1.883298e-002
3.820292e+003, 2.028028e-002
3.822221e+003, 2.232477e-002
3.824149e+003, 2.163088e-002
3.826078e+003, 2.054930e-002
3.828006e+003, 2.124422e-002
3.829935e+003, 2.141633e-002
3.831863e+003, 2.176103e-002
3.833792e+003, 2.142427e-002
3.835720e+003, 2.183615e-002
3.837649e+003, 2.308783e-002
3.839577e+003, 2.257323e-002
3.841506e+003, 2.198504e-002
3.843434e+003, 2.375059e-002
3.845363e+003, 2.319233e-002
3.847291e+003, 2.264429e-002
3.849219e+003, 2.202349e-002
3.851148e+003, 2.296105e-002
3.853076e+003, 2.523188e-002
3.855005e+003, 2.478283e-002
3.856933e+003, 2.117096e-002
3.858862e+003, 1.960116e-002
3.860790e+003, 2.012861e-002
3.862719e+003, 2.173550e-002
3.864647e+003, 2.235990e-002
3.866576e+003, 2.248144e-002
3.868504e+003, 2.121735e-002
3.870433e+003, 2.046744e-002
3.872361e+003, 2.106503e-002
3.874290e+003, 2.078615e-002
3.876218e+003, 1.939453e-002
3.878146e+003, 2.050450e-002
3.880075e+003, 2.247817e-002
3.882003e+003, 2.300475e-002
3.883932e+003, 2.151179e-002
3.885860e+003, 1.961929e-002
3.887789e+003, 1.925583e-002
3.889717e+003, 2.013917e-002
3.891646e+003, 2.341248e-002
3.893574e+003, 2.381375e-002
3.895503e+003, 2.246058e-002
3.897431e+003, 2.239245e-002
3.899360e+003, 2.212069e-002
3.901288e+003, 2.045879e-002
3.903217e+003, 2.120363e-002
3.905145e+003, 2.176628e-002
3.907073e+003, 2.060386e-002
3.909002e+003, 2.082556e-002
3.910930e+003, 2.115826e-002
3.912859e+003, 2.252885e-002
3.914787e+003, 2.159402e-002
3.916716e+003, 1.908532e-002
3.918644e+003, 1.943157e-002
3.920573e+003, 1.933240e-002
3.922501e+003, 2.010714e-002
3.924430e+003, 2.022032e-002
3.926358e+003, 2.041602e-002
3.928287e+003, 2.315603e-002
3.930215e+003, 2.403072e-002
3.932144e+003, 2.220722e-002
3.934072e+003, 2.222683e-002
3.936000e+003, 2.357218e-002
3.937929e+003, 2.210889e-002
3.939857e+003, 2.256435e-002
3.941786e+003, 2.534105e-002
3.943714e+003, 2.206906e-002
3.945643e+003, 1.935966e-002
3.947571e+003, 2.248969e-002
3.949500e+003, 2.226487e-002
3.951428e+003, 2.097029e-002
3.953357e+003, 2.119173e-002
3.955285e+003, 2.209508e-002
3.957214e+003, 2.235093e-002
3.959142e+003, 2.177710e-002
3.961071e+003, 2.242375e-002
3.962999e+003, 2.394487e-002
3.964927e+003, 2.533564e-002
3.966856e+003, 2.143896e-002
3.968784e+003, 1.839964e-002
3.970713e+003, 2.020887e-002
3.972641e+003, 2.064575e-002
3.974570e+003, 2.151696e-002
3.976498e+003, 2.207252e-002
3.978427e+003, 2.217197e-002
3.980355e+003, 2.299140e-002
3.982284e+003, 2.185095e-002
3.984212e+003, 2.105699e-002
3.986141e+003, 2.125015e-002
3.988069e+003, 2.067019e-002
3.989998e+003, 2.064563e-002
3.991926e+003, 2.234226e-002
3.993854e+003, 2.261098e-002
3.995783e+003, 2.149943e-002
3.997711e+003, 2.303726e-002
3.999640e+003, 2.304795e-002
##END=



