##NAMES=Cuprite
##RRUFFID=R050374
##IDEAL CHEMISTRY=Cu^1+^_2_O
##LOCALITY=unknown
##OWNER=RRUFF
##SOURCE=Eugene Schlepp
##DESCRIPTION=Aggregate of deep red cubes
##STATUS=The identification of this mineral has been confirmed by X-ray diffraction and chemical analysis
##URL=rruff.info/R050374
##MEASURED CHEMISTRY=Cu_2.00_O
399.1926, 0.3406499
401.1211, 0.3557432
403.0496, 0.3574535
404.9780, 0.3629811
406.9065, 0.3572976
408.8350, 0.3661826
410.7634, 0.3828349
412.6919, 0.3859049
414.6204, 0.3776911
416.5488, 0.3797598
418.4773, 0.3798000
420.4058, 0.3907993
422.3342, 0.3998284
424.2627, 0.4042712
426.1912, 0.4050983
428.1196, 0.4015583
430.0481, 0.4068290
431.9766, 0.4108372
433.9050, 0.4179845
435.8335, 0.4193075
437.7620, 0.4203225
439.6904, 0.4273696
441.6189, 0.4297572
443.5474, 0.4277726
445.4758, 0.4272175
447.4043, 0.4323799
449.3328, 0.4361792
451.2612, 0.4319336
453.1897, 0.4338192
455.1182, 0.4424301
457.0466, 0.4428180
458.9751, 0.4418501
460.9036, 0.4455163
462.8320, 0.4473012
464.7605, 0.4470575
466.6890, 0.4471349
468.6174, 0.4476162
470.5459, 0.4541804
472.4744, 0.4556392
474.4028, 0.4517444
476.3313, 0.4505132
478.2598, 0.4497302
480.1882, 0.4558653
482.1167, 0.4605978
484.0452, 0.4594514
485.9736, 0.4603423
487.9021, 0.4650425
489.8306, 0.4678505
491.7590, 0.4710324
493.6875, 0.4760683
495.6160, 0.4802478
497.5444, 0.4829417
499.4729, 0.4821834
501.4014, 0.4816642
503.3298, 0.4828536
505.2583, 0.4869222
507.1868, 0.4939007
509.1152, 0.4994214
511.0437, 0.5018984
512.9722, 0.5024613
514.9006, 0.5055259
516.8291, 0.5100472
518.7576, 0.5123720
520.6860, 0.5147361
522.6145, 0.5161430
524.5430, 0.5171539
526.4714, 0.5195465
528.3999, 0.5235039
530.3284, 0.5274282
532.2568, 0.5319550
534.1853, 0.5376565
536.1138, 0.5382088
538.0422, 0.5379969
539.9707, 0.5420529
541.8992, 0.5478178
543.8276, 0.5519507
545.7561, 0.5595075
547.6846, 0.5645396
549.6130, 0.5700495
551.5415, 0.5759723
553.4700, 0.5810370
555.3984, 0.5861410
557.3269, 0.5899222
559.2554, 0.5936496
561.1838, 0.5996476
563.1123, 0.6034347
565.0408, 0.6095697
566.9692, 0.6195325
568.8977, 0.6255144
570.8262, 0.6310529
572.7546, 0.6339906
574.6831, 0.6417054
576.6116, 0.6477776
578.5400, 0.6514949
580.4685, 0.6568821
582.3970, 0.6564630
584.3254, 0.6599237
586.2539, 0.6672083
588.1824, 0.6709404
590.1108, 0.6705182
592.0393, 0.6682442
593.9678, 0.6701620
595.8962, 0.6741046
597.8247, 0.6727813
599.7532, 0.6610456
601.6816, 0.6490609
603.6101, 0.6390083
605.5386, 0.6272905
607.4670, 0.6155621
609.3955, 0.6005903
611.3240, 0.5830284
613.2524, 0.5636370
615.1809, 0.5448891
617.1094, 0.5266030
619.0378, 0.5076087
620.9663, 0.4887634
622.8948, 0.4707487
624.8232, 0.4520406
626.7517, 0.4319352
628.6802, 0.4126103
630.6086, 0.3927161
632.5371, 0.3728760
634.4656, 0.3525462
636.3940, 0.3314380
638.3225, 0.3103707
640.2510, 0.2909073
642.1794, 0.2718908
644.1079, 0.2524839
646.0364, 0.2345927
647.9648, 0.2179531
649.8933, 0.2019897
651.8218, 0.1867171
653.7502, 0.1727933
655.6787, 0.1599264
657.6072, 0.1483767
659.5356, 0.1379535
661.4641, 0.1288143
663.3926, 0.1207709
665.3210, 0.1144177
667.2495, 0.1103906
669.1780, 0.1077705
671.1064, 0.1060661
673.0349, 0.1052551
674.9634, 0.1058045
676.8918, 0.1078563
678.8203, 0.1103583
680.7488, 0.1128425
682.6772, 0.1157821
684.6057, 0.1197307
686.5342, 0.1244407
688.4626, 0.1292167
690.3911, 0.1327056
692.3196, 0.1359588
694.2480, 0.1392584
696.1765, 0.1412181
698.1050, 0.1422585
700.0334, 0.1426096
701.9619, 0.1427476
703.8904, 0.1432335
705.8188, 0.1437000
707.7473, 0.1439792
709.6758, 0.1447822
711.6042, 0.1469271
713.5327, 0.1494506
715.4612, 0.1514631
717.3896, 0.1538713
719.3181, 0.1573537
721.2466, 0.1615498
723.1750, 0.1656339
725.1035, 0.1695055
727.0320, 0.1733496
728.9604, 0.1771317
730.8889, 0.1815986
732.8174, 0.1871976
734.7458, 0.1923922
736.6743, 0.1972051
738.6028, 0.2021546
740.5313, 0.2070064
742.4597, 0.2115203
744.3882, 0.2152924
746.3167, 0.2191070
748.2451, 0.2231694
750.1736, 0.2274856
752.1021, 0.2321786
754.0305, 0.2365133
755.9590, 0.2405862
757.8875, 0.2441730
759.8159, 0.2481405
761.7444, 0.2527407
763.6729, 0.2573394
765.6013, 0.2616979
767.5298, 0.2661667
769.4583, 0.2702358
771.3867, 0.2740517
773.3152, 0.2780497
775.2437, 0.2820907
777.1721, 0.2860081
779.1006, 0.2882975
781.0291, 0.2895317
782.9575, 0.2912120
784.8860, 0.2940482
786.8145, 0.2966224
788.7429, 0.2990479
790.6714, 0.3024313
792.5999, 0.3057381
794.5283, 0.3087465
796.4568, 0.3111196
798.3853, 0.3124094
800.3137, 0.3130409
802.2422, 0.3129645
804.1707, 0.3117706
806.0991, 0.3109345
808.0276, 0.3116675
809.9561, 0.3131040
811.8845, 0.3145741
813.8130, 0.3151942
815.7415, 0.3159794
817.6699, 0.3179943
819.5984, 0.3203145
821.5269, 0.3218687
823.4553, 0.3236385
825.3838, 0.3257564
827.3123, 0.3271284
829.2407, 0.3278077
831.1692, 0.3291265
833.0977, 0.3306973
835.0261, 0.3320756
836.9546, 0.3332220
838.8831, 0.3339607
840.8115, 0.3350598
842.7400, 0.3363010
844.6685, 0.3377694
846.5969, 0.3390059
848.5254, 0.3402295
850.4539, 0.3418008
852.3823, 0.3429986
854.3108, 0.3439215
856.2393, 0.3449130
858.1677, 0.3462678
860.0962, 0.3480700
862.0247, 0.3498980
863.9531, 0.3517452
865.8816, 0.3531972
867.8101, 0.3545042
869.7385, 0.3568929
871.6670, 0.3597519
873.5955, 0.3615702
875.5239, 0.3629237
877.4524, 0.3642432
879.3809, 0.3660331
881.3093, 0.3681390
883.2378, 0.3701660
885.1663, 0.3719058
887.0947, 0.3737574
889.0232, 0.3757268
890.9517, 0.3773263
892.8801, 0.3789330
894.8085, 0.3811768
896.7370, 0.3832157
898.6655, 0.3850465
900.5939, 0.3863860
902.5224, 0.3883187
904.4509, 0.3905285
906.3793, 0.3930544
908.3078, 0.3952650
910.2363, 0.3972361
912.1647, 0.3987281
914.0932, 0.4003680
916.0217, 0.4020175
917.9501, 0.4037322
919.8786, 0.4054513
921.8071, 0.4075266
923.7355, 0.4098605
925.6640, 0.4123208
927.5925, 0.4140064
929.5209, 0.4157752
931.4494, 0.4173332
933.3779, 0.4191966
935.3063, 0.4212807
937.2348, 0.4230449
939.1633, 0.4248803
941.0917, 0.4270243
943.0202, 0.4292423
944.9487, 0.4313394
946.8771, 0.4331762
948.8056, 0.4347000
950.7341, 0.4365989
952.6625, 0.4381011
954.5910, 0.4401623
956.5195, 0.4422017
958.4479, 0.4429379
960.3764, 0.4436995
962.3049, 0.4448732
964.2333, 0.4457207
966.1618, 0.4460410
968.0903, 0.4464881
970.0187, 0.4475994
971.9472, 0.4483609
973.8757, 0.4490316
975.8041, 0.4499825
977.7326, 0.4509854
979.6611, 0.4521069
981.5895, 0.4525548
983.5180, 0.4533082
985.4465, 0.4543923
987.3749, 0.4550705
989.3034, 0.4557089
991.2319, 0.4567439
993.1603, 0.4576289
995.0888, 0.4582947
997.0173, 0.4591742
998.9457, 0.4601414
1000.874, 0.4615212
1002.803, 0.4628114
1004.731, 0.4639277
1006.660, 0.4653327
1008.588, 0.4670565
1010.517, 0.4688725
1012.445, 0.4702345
1014.373, 0.4716539
1016.302, 0.4728397
1018.230, 0.4741638
1020.159, 0.4752043
1022.087, 0.4752659
1024.016, 0.4762974
1025.944, 0.4779053
1027.873, 0.4783165
1029.801, 0.4787484
1031.730, 0.4800501
1033.658, 0.4811896
1035.587, 0.4814965
1037.515, 0.4816991
1039.444, 0.4821763
1041.372, 0.4824940
1043.301, 0.4837167
1045.229, 0.4849391
1047.157, 0.4859809
1049.086, 0.4870631
1051.014, 0.4881204
1052.943, 0.4899078
1054.871, 0.4920088
1056.800, 0.4931736
1058.728, 0.4938904
1060.657, 0.4951033
1062.585, 0.4967726
1064.514, 0.4975749
1066.442, 0.4982073
1068.371, 0.4995151
1070.299, 0.5012155
1072.228, 0.5027067
1074.156, 0.5044613
1076.084, 0.5060143
1078.013, 0.5070404
1079.941, 0.5078312
1081.870, 0.5078338
1083.798, 0.5078155
1085.727, 0.5075172
1087.655, 0.5065417
1089.584, 0.5057073
1091.512, 0.5056188
1093.441, 0.5051541
1095.369, 0.5037962
1097.298, 0.5029759
1099.226, 0.5030341
1101.155, 0.5031530
1103.083, 0.5029715
1105.011, 0.5021506
1106.940, 0.5014232
1108.868, 0.5008672
1110.797, 0.5003984
1112.725, 0.5005811
1114.654, 0.5003316
1116.582, 0.4997332
1118.511, 0.4990537
1120.439, 0.4985022
1122.368, 0.4982362
1124.296, 0.4976445
1126.225, 0.4970666
1128.153, 0.4966682
1130.082, 0.4961506
1132.010, 0.4952538
1133.938, 0.4947358
1135.867, 0.4947991
1137.795, 0.4946091
1139.724, 0.4944633
1141.652, 0.4944371
1143.581, 0.4943939
1145.509, 0.4943867
1147.438, 0.4939302
1149.366, 0.4940077
1151.295, 0.4938589
1153.223, 0.4934703
1155.152, 0.4931913
1157.080, 0.4936244
1159.009, 0.4945263
1160.937, 0.4950955
1162.865, 0.4957462
1164.794, 0.4964983
1166.722, 0.4971323
1168.651, 0.4978093
1170.579, 0.4983974
1172.508, 0.4990025
1174.436, 0.4994418
1176.365, 0.5003099
1178.293, 0.5008119
1180.222, 0.5007632
1182.150, 0.5010375
1184.079, 0.5018659
1186.007, 0.5027473
1187.936, 0.5033503
1189.864, 0.5036555
1191.792, 0.5037156
1193.721, 0.5043500
1195.649, 0.5047745
1197.578, 0.5047073
1199.506, 0.5043606
1201.435, 0.5039767
1203.363, 0.5035110
1205.292, 0.5032548
1207.220, 0.5031204
1209.149, 0.5029885
1211.077, 0.5019765
1213.006, 0.5020831
1214.934, 0.5026577
1216.863, 0.5022810
1218.791, 0.5026287
1220.719, 0.5030021
1222.648, 0.5032017
1224.576, 0.5037186
1226.505, 0.5039182
1228.433, 0.5040751
1230.362, 0.5046533
1232.290, 0.5055470
1234.219, 0.5059163
1236.147, 0.5059627
1238.076, 0.5068437
1240.004, 0.5075793
1241.933, 0.5079791
1243.861, 0.5090460
1245.790, 0.5105422
1247.718, 0.5116848
1249.646, 0.5124686
1251.575, 0.5134041
1253.503, 0.5145141
1255.432, 0.5159650
1257.360, 0.5174194
1259.289, 0.5179093
1261.217, 0.5185667
1263.146, 0.5195178
1265.074, 0.5212457
1267.003, 0.5230788
1268.931, 0.5248451
1270.860, 0.5269373
1272.788, 0.5284873
1274.717, 0.5295390
1276.645, 0.5301968
1278.573, 0.5305581
1280.502, 0.5312627
1282.430, 0.5314364
1284.359, 0.5316676
1286.287, 0.5323988
1288.216, 0.5332589
1290.144, 0.5340290
1292.073, 0.5347898
1294.001, 0.5357121
1295.930, 0.5373052
1297.858, 0.5390388
1299.787, 0.5404578
1301.715, 0.5421130
1303.644, 0.5434431
1305.572, 0.5444121
1307.500, 0.5462332
1309.429, 0.5476530
1311.357, 0.5488350
1313.286, 0.5505152
1315.214, 0.5523157
1317.143, 0.5538194
1319.071, 0.5550723
1321.000, 0.5563550
1322.928, 0.5579365
1324.857, 0.5598102
1326.785, 0.5617945
1328.714, 0.5630715
1330.642, 0.5647385
1332.571, 0.5665033
1334.499, 0.5681459
1336.427, 0.5695069
1338.356, 0.5706011
1340.284, 0.5724980
1342.213, 0.5743055
1344.141, 0.5754890
1346.070, 0.5762115
1347.998, 0.5772206
1349.927, 0.5788665
1351.855, 0.5804613
1353.784, 0.5816662
1355.712, 0.5827973
1357.641, 0.5840409
1359.569, 0.5855181
1361.498, 0.5867611
1363.426, 0.5879202
1365.354, 0.5888042
1367.283, 0.5898736
1369.211, 0.5912353
1371.140, 0.5922277
1373.068, 0.5933212
1374.997, 0.5944813
1376.925, 0.5949414
1378.854, 0.5953651
1380.782, 0.5957262
1382.711, 0.5961270
1384.639, 0.5965393
1386.568, 0.5973853
1388.496, 0.5979421
1390.424, 0.5981451
1392.353, 0.5987309
1394.281, 0.5994948
1396.210, 0.5996236
1398.138, 0.5997596
1400.067, 0.6005355
1401.995, 0.6011138
1403.924, 0.6007586
1405.852, 0.6007382
1407.781, 0.6014954
1409.709, 0.6018667
1411.638, 0.6014218
1413.566, 0.6016856
1415.495, 0.6017163
1417.423, 0.6017631
1419.351, 0.6023750
1421.280, 0.6027136
1423.208, 0.6030840
1425.137, 0.6037328
1427.065, 0.6040486
1428.994, 0.6047351
1430.922, 0.6053123
1432.851, 0.6058356
1434.779, 0.6063948
1436.708, 0.6074583
1438.636, 0.6075622
1440.565, 0.6074365
1442.493, 0.6080804
1444.422, 0.6092006
1446.350, 0.6097097
1448.278, 0.6102831
1450.207, 0.6110396
1452.135, 0.6123078
1454.064, 0.6126829
1455.992, 0.6125711
1457.921, 0.6128299
1459.849, 0.6130711
1461.778, 0.6132942
1463.706, 0.6137421
1465.635, 0.6136939
1467.563, 0.6130405
1469.492, 0.6126534
1471.420, 0.6120007
1473.349, 0.6110368
1475.277, 0.6112240
1477.205, 0.6123470
1479.134, 0.6124055
1481.062, 0.6116632
1482.991, 0.6114576
1484.919, 0.6117368
1486.848, 0.6113941
1488.776, 0.6112584
1490.705, 0.6114752
1492.633, 0.6118284
1494.562, 0.6122113
1496.490, 0.6122317
1498.419, 0.6121805
1500.347, 0.6127676
1502.276, 0.6131250
1504.204, 0.6131089
1506.132, 0.6125900
1508.061, 0.6124147
1509.989, 0.6129121
1511.918, 0.6129451
1513.846, 0.6129106
1515.775, 0.6133469
1517.703, 0.6139740
1519.632, 0.6140265
1521.560, 0.6138779
1523.489, 0.6143472
1525.417, 0.6152646
1527.346, 0.6158148
1529.274, 0.6164038
1531.203, 0.6165236
1533.131, 0.6173924
1535.059, 0.6186335
1536.988, 0.6198000
1538.916, 0.6205454
1540.845, 0.6208364
1542.773, 0.6214122
1544.702, 0.6217571
1546.630, 0.6221272
1548.559, 0.6227300
1550.487, 0.6231638
1552.416, 0.6232799
1554.344, 0.6236628
1556.273, 0.6245049
1558.201, 0.6256047
1560.130, 0.6257784
1562.058, 0.6253626
1563.986, 0.6258426
1565.915, 0.6263103
1567.843, 0.6264680
1569.772, 0.6266081
1571.700, 0.6267027
1573.629, 0.6271120
1575.557, 0.6278192
1577.486, 0.6279570
1579.414, 0.6275774
1581.343, 0.6280732
1583.271, 0.6286570
1585.200, 0.6293588
1587.128, 0.6300331
1589.057, 0.6304731
1590.985, 0.6303958
1592.913, 0.6303425
1594.842, 0.6307154
1596.770, 0.6310492
1598.699, 0.6309968
1600.627, 0.6314602
1602.556, 0.6319218
1604.484, 0.6320459
1606.413, 0.6318399
1608.341, 0.6318226
1610.270, 0.6321519
1612.198, 0.6330578
1614.127, 0.6334231
1616.055, 0.6333467
1617.984, 0.6335919
1619.912, 0.6344835
1621.840, 0.6351555
1623.769, 0.6353908
1625.697, 0.6357479
1627.626, 0.6363961
1629.554, 0.6370199
1631.483, 0.6378986
1633.411, 0.6388592
1635.340, 0.6391611
1637.268, 0.6391786
1639.197, 0.6389942
1641.125, 0.6400194
1643.054, 0.6413186
1644.982, 0.6420735
1646.911, 0.6427441
1648.839, 0.6431057
1650.767, 0.6436181
1652.696, 0.6446834
1654.624, 0.6454039
1656.553, 0.6459916
1658.481, 0.6462876
1660.410, 0.6469490
1662.338, 0.6481019
1664.267, 0.6488608
1666.195, 0.6486745
1668.124, 0.6494547
1670.052, 0.6508998
1671.981, 0.6511178
1673.909, 0.6509638
1675.838, 0.6512353
1677.766, 0.6522209
1679.694, 0.6530505
1681.623, 0.6531531
1683.551, 0.6539814
1685.480, 0.6551856
1687.408, 0.6557568
1689.337, 0.6560495
1691.265, 0.6567637
1693.194, 0.6578987
1695.122, 0.6597219
1697.051, 0.6606036
1698.979, 0.6610636
1700.908, 0.6617276
1702.836, 0.6623431
1704.765, 0.6630108
1706.693, 0.6637822
1708.621, 0.6648088
1710.550, 0.6650406
1712.478, 0.6649984
1714.407, 0.6664534
1716.335, 0.6681345
1718.264, 0.6684895
1720.192, 0.6689879
1722.121, 0.6700829
1724.049, 0.6708360
1725.978, 0.6717188
1727.906, 0.6727097
1729.835, 0.6728395
1731.763, 0.6730242
1733.692, 0.6733271
1735.620, 0.6732938
1737.548, 0.6731368
1739.477, 0.6736172
1741.405, 0.6735446
1743.334, 0.6725037
1745.262, 0.6730854
1747.191, 0.6745703
1749.119, 0.6745211
1751.048, 0.6741993
1752.976, 0.6743464
1754.905, 0.6741282
1756.833, 0.6739382
1758.762, 0.6742841
1760.690, 0.6755785
1762.619, 0.6770465
1764.547, 0.6783053
1766.475, 0.6791543
1768.404, 0.6800231
1770.332, 0.6806484
1772.261, 0.6809761
1774.189, 0.6811028
1776.118, 0.6818233
1778.046, 0.6825888
1779.975, 0.6822273
1781.903, 0.6831595
1783.832, 0.6845623
1785.760, 0.6857433
1787.689, 0.6865211
1789.617, 0.6861982
1791.546, 0.6862770
1793.474, 0.6866524
1795.402, 0.6875643
1797.331, 0.6885783
1799.259, 0.6896259
1801.188, 0.6902440
1803.116, 0.6907795
1805.045, 0.6920770
1806.973, 0.6928560
1808.902, 0.6928945
1810.830, 0.6929942
1812.759, 0.6931162
1814.687, 0.6929213
1816.616, 0.6931646
1818.544, 0.6949298
1820.473, 0.6960230
1822.401, 0.6964068
1824.329, 0.6966686
1826.258, 0.6978121
1828.186, 0.6997170
1830.115, 0.6997808
1832.043, 0.6991639
1833.972, 0.6991936
1835.900, 0.7003841
1837.829, 0.7019358
1839.757, 0.7020633
1841.686, 0.7013244
1843.614, 0.7014865
1845.543, 0.7024258
1847.471, 0.7037711
1849.400, 0.7046550
1851.328, 0.7056714
1853.256, 0.7059768
1855.185, 0.7050105
1857.113, 0.7062370
1859.042, 0.7085116
1860.970, 0.7092075
1862.899, 0.7097452
1864.827, 0.7103556
1866.756, 0.7090033
1868.684, 0.7093052
1870.613, 0.7107638
1872.541, 0.7121400
1874.470, 0.7133545
1876.398, 0.7139922
1878.327, 0.7141138
1880.255, 0.7156479
1882.183, 0.7168860
1884.112, 0.7167374
1886.040, 0.7159584
1887.969, 0.7160529
1889.897, 0.7157599
1891.826, 0.7163365
1893.754, 0.7169909
1895.683, 0.7175229
1897.611, 0.7180231
1899.540, 0.7183239
1901.468, 0.7190530
1903.397, 0.7212456
1905.325, 0.7203198
1907.254, 0.7196922
1909.182, 0.7210975
1911.110, 0.7207996
1913.039, 0.7194027
1914.967, 0.7202176
1916.896, 0.7212961
1918.824, 0.7217557
1920.753, 0.7209276
1922.681, 0.7217222
1924.610, 0.7236928
1926.538, 0.7267615
1928.467, 0.7262594
1930.395, 0.7230780
1932.324, 0.7222832
1934.252, 0.7240291
1936.181, 0.7238741
1938.109, 0.7220111
1940.037, 0.7235203
1941.966, 0.7228298
1943.894, 0.7219135
1945.823, 0.7242781
1947.751, 0.7254127
1949.680, 0.7246811
1951.608, 0.7235476
1953.537, 0.7234218
1955.465, 0.7251405
1957.394, 0.7245734
1959.322, 0.7246348
1961.251, 0.7228494
1963.179, 0.7215553
1965.108, 0.7214978
1967.036, 0.7204629
1968.964, 0.7187551
1970.893, 0.7170367
1972.821, 0.7155176
1974.750, 0.7201251
1976.678, 0.7229497
1978.607, 0.7224704
1980.535, 0.7239705
1982.464, 0.7275771
1984.392, 0.7294377
1986.321, 0.7271347
1988.249, 0.7275283
1990.178, 0.7285126
1992.106, 0.7308576
1994.035, 0.7308559
1995.963, 0.7320403
1997.891, 0.7339407
1999.820, 0.7338800
2001.748, 0.7306347
2003.677, 0.7296205
2005.605, 0.7319280
2007.534, 0.7314489
2009.462, 0.7337581
2011.391, 0.7353583
2013.319, 0.7338166
2015.248, 0.7323625
2017.176, 0.7314337
2019.105, 0.7317497
2021.033, 0.7317723
2022.962, 0.7304283
2024.890, 0.7298887
2026.818, 0.7319981
2028.747, 0.7356333
2030.675, 0.7346112
2032.604, 0.7340363
2034.532, 0.7335132
2036.461, 0.7343046
2038.389, 0.7378126
2040.318, 0.7404363
2042.246, 0.7444639
2044.175, 0.7458295
2046.103, 0.7469149
2048.032, 0.7498106
2049.960, 0.7520455
2051.889, 0.7542322
2053.817, 0.7555122
2055.746, 0.7559405
2057.674, 0.7585812
2059.603, 0.7602673
2061.531, 0.7612699
2063.459, 0.7599786
2065.388, 0.7600495
2067.316, 0.7606372
2069.245, 0.7620944
2071.173, 0.7611120
2073.102, 0.7602851
2075.030, 0.7632664
2076.959, 0.7659572
2078.887, 0.7682134
2080.816, 0.7687776
2082.744, 0.7696311
2084.673, 0.7713687
2086.601, 0.7699564
2088.530, 0.7698256
2090.458, 0.7716327
2092.386, 0.7716010
2094.315, 0.7689990
2096.243, 0.7686582
2098.172, 0.7716460
2100.100, 0.7738164
2102.029, 0.7735692
2103.957, 0.7746173
2105.886, 0.7751918
2107.814, 0.7770056
2109.743, 0.7776756
2111.671, 0.7761740
2113.600, 0.7791507
2115.528, 0.7802576
2117.457, 0.7780785
2119.385, 0.7772142
2121.313, 0.7772570
2123.242, 0.7784173
2125.170, 0.7789873
2127.099, 0.7776090
2129.027, 0.7772160
2130.956, 0.7769144
2132.884, 0.7775854
2134.813, 0.7802156
2136.741, 0.7783527
2138.670, 0.7749271
2140.598, 0.7738294
2142.527, 0.7772037
2144.455, 0.7789991
2146.384, 0.7765864
2148.312, 0.7751778
2150.240, 0.7701759
2152.169, 0.7679720
2154.097, 0.7642282
2156.026, 0.7567510
2157.954, 0.7589354
2159.883, 0.7624997
2161.811, 0.7711918
2163.740, 0.7744644
2165.668, 0.7751347
2167.597, 0.7796583
2169.525, 0.7770672
2171.454, 0.7750373
2173.382, 0.7785951
2175.311, 0.7825756
2177.239, 0.7818458
2179.167, 0.7805504
2181.096, 0.7811096
2183.024, 0.7840080
2184.953, 0.7850991
2186.881, 0.7839477
2188.810, 0.7832475
2190.738, 0.7828221
2192.667, 0.7871386
2194.595, 0.7925110
2196.524, 0.7926728
2198.452, 0.7923926
2200.381, 0.7954188
2202.309, 0.7936058
2204.238, 0.7908000
2206.166, 0.7932164
2208.094, 0.7956723
2210.023, 0.7971558
2211.951, 0.7960655
2213.880, 0.7978542
2215.808, 0.7989068
2217.737, 0.8009701
2219.665, 0.8024290
2221.594, 0.8027377
2223.522, 0.8023590
2225.451, 0.8029239
2227.379, 0.8032873
2229.308, 0.8054081
2231.236, 0.8065537
2233.165, 0.8083577
2235.093, 0.8099905
2237.021, 0.8087210
2238.950, 0.8110895
2240.878, 0.8128635
2242.807, 0.8150442
2244.735, 0.8167470
2246.664, 0.8150886
2248.592, 0.8163025
2250.521, 0.8190774
2252.449, 0.8192960
2254.378, 0.8182610
2256.306, 0.8184782
2258.235, 0.8211255
2260.163, 0.8243456
2262.092, 0.8264067
2264.020, 0.8249924
2265.948, 0.8254627
2267.877, 0.8260002
2269.805, 0.8254673
2271.734, 0.8251635
2273.662, 0.8258555
2275.591, 0.8272813
2277.519, 0.8308336
2279.448, 0.8320202
2281.376, 0.8313277
2283.305, 0.8319642
2285.233, 0.8336537
2287.162, 0.8361609
2289.090, 0.8380363
2291.019, 0.8385607
2292.947, 0.8367953
2294.875, 0.8370920
2296.804, 0.8384940
2298.732, 0.8399418
2300.661, 0.8408459
2302.589, 0.8413069
2304.518, 0.8427152
2306.446, 0.8446256
2308.375, 0.8436391
2310.303, 0.8430389
2312.232, 0.8451756
2314.160, 0.8460187
2316.089, 0.8460352
2318.017, 0.8456470
2319.946, 0.8466244
2321.874, 0.8478110
2323.802, 0.8489403
2325.731, 0.8492817
2327.659, 0.8498128
2329.588, 0.8499677
2331.516, 0.8516871
2333.445, 0.8530169
2335.373, 0.8529148
2337.302, 0.8538362
2339.230, 0.8558010
2341.159, 0.8570861
2343.087, 0.8564743
2345.016, 0.8555529
2346.944, 0.8561064
2348.873, 0.8571295
2350.801, 0.8574617
2352.729, 0.8582317
2354.658, 0.8599358
2356.586, 0.8607605
2358.515, 0.8617140
2360.443, 0.8622928
2362.372, 0.8620058
2364.300, 0.8621907
2366.229, 0.8634234
2368.157, 0.8648664
2370.086, 0.8657017
2372.014, 0.8637872
2373.942, 0.8621536
2375.871, 0.8636372
2377.799, 0.8645666
2379.728, 0.8645967
2381.656, 0.8646210
2383.585, 0.8662885
2385.513, 0.8665876
2387.442, 0.8669542
2389.370, 0.8670141
2391.299, 0.8681686
2393.227, 0.8682213
2395.156, 0.8695794
2397.084, 0.8699008
2399.012, 0.8693519
2400.941, 0.8710923
2402.869, 0.8717362
2404.798, 0.8715132
2406.726, 0.8715748
2408.655, 0.8729521
2410.583, 0.8735387
2412.512, 0.8729903
2414.440, 0.8726006
2416.369, 0.8733345
2418.297, 0.8753921
2420.226, 0.8761680
2422.154, 0.8775124
2424.083, 0.8791437
2426.011, 0.8791137
2427.939, 0.8779004
2429.868, 0.8773172
2431.796, 0.8779736
2433.725, 0.8778363
2435.653, 0.8782499
2437.582, 0.8797836
2439.510, 0.8815390
2441.439, 0.8827252
2443.367, 0.8823555
2445.296, 0.8824310
2447.224, 0.8829728
2449.153, 0.8844202
2451.081, 0.8854057
2453.010, 0.8845602
2454.938, 0.8835710
2456.866, 0.8838028
2458.795, 0.8850978
2460.723, 0.8875316
2462.652, 0.8894452
2464.580, 0.8889586
2466.509, 0.8882800
2468.437, 0.8889948
2470.366, 0.8886380
2472.294, 0.8891013
2474.223, 0.8904420
2476.151, 0.8904603
2478.080, 0.8918702
2480.008, 0.8929413
2481.937, 0.8927582
2483.865, 0.8929672
2485.793, 0.8922197
2487.722, 0.8931463
2489.650, 0.8964597
2491.579, 0.8977149
2493.507, 0.8963601
2495.436, 0.8966935
2497.364, 0.8976797
2499.293, 0.8958533
2501.221, 0.8964781
2503.150, 0.8975724
2505.078, 0.8998655
2507.007, 0.9025213
2508.935, 0.9016205
2510.864, 0.9005609
2512.792, 0.9021757
2514.720, 0.9026907
2516.649, 0.9009552
2518.577, 0.9031106
2520.506, 0.9053573
2522.434, 0.9059404
2524.363, 0.9071003
2526.291, 0.9074507
2528.220, 0.9064844
2530.148, 0.9064357
2532.077, 0.9081492
2534.005, 0.9085514
2535.934, 0.9088468
2537.862, 0.9075763
2539.791, 0.9064896
2541.719, 0.9090657
2543.647, 0.9120054
2545.576, 0.9139349
2547.504, 0.9133005
2549.433, 0.9132425
2551.361, 0.9143537
2553.290, 0.9140382
2555.218, 0.9151475
2557.147, 0.9160655
2559.075, 0.9186972
2561.004, 0.9217138
2562.932, 0.9215005
2564.861, 0.9186432
2566.789, 0.9176771
2568.718, 0.9191788
2570.646, 0.9201854
2572.574, 0.9213435
2574.503, 0.9230513
2576.431, 0.9228002
2578.360, 0.9222769
2580.288, 0.9242892
2582.217, 0.9229072
2584.145, 0.9187514
2586.074, 0.9209726
2588.002, 0.9239787
2589.931, 0.9241873
2591.859, 0.9253502
2593.788, 0.9259721
2595.716, 0.9254822
2597.645, 0.9264664
2599.573, 0.9273899
2601.501, 0.9287013
2603.430, 0.9292977
2605.358, 0.9286770
2607.287, 0.9294856
2609.215, 0.9331036
2611.144, 0.9356035
2613.072, 0.9359332
2615.001, 0.9347300
2616.929, 0.9341617
2618.858, 0.9345245
2620.786, 0.9346396
2622.715, 0.9362743
2624.643, 0.9373673
2626.572, 0.9353406
2628.500, 0.9367520
2630.428, 0.9396152
2632.357, 0.9402015
2634.285, 0.9408354
2636.214, 0.9418034
2638.142, 0.9421034
2640.071, 0.9417080
2641.999, 0.9437545
2643.928, 0.9449633
2645.856, 0.9449379
2647.785, 0.9461631
2649.713, 0.9475248
2651.642, 0.9462510
2653.570, 0.9456907
2655.499, 0.9459537
2657.427, 0.9473413
2659.355, 0.9498580
2661.284, 0.9500364
2663.212, 0.9500136
2665.141, 0.9504826
2667.069, 0.9514030
2668.998, 0.9519973
2670.926, 0.9524513
2672.855, 0.9532350
2674.783, 0.9534760
2676.712, 0.9540246
2678.640, 0.9548154
2680.569, 0.9550233
2682.497, 0.9548803
2684.426, 0.9550039
2686.354, 0.9571319
2688.282, 0.9586253
2690.211, 0.9595460
2692.139, 0.9602074
2694.068, 0.9597846
2695.996, 0.9593973
2697.925, 0.9606364
2699.853, 0.9624451
2701.782, 0.9637107
2703.710, 0.9648651
2705.639, 0.9646208
2707.567, 0.9642047
2709.496, 0.9641486
2711.424, 0.9649789
2713.353, 0.9658700
2715.281, 0.9679452
2717.209, 0.9696679
2719.138, 0.9689754
2721.066, 0.9679098
2722.995, 0.9682165
2724.923, 0.9696509
2726.852, 0.9716876
2728.780, 0.9720464
2730.709, 0.9716074
2732.637, 0.9725052
2734.566, 0.9729121
2736.494, 0.9731829
2738.423, 0.9742844
2740.351, 0.9760287
2742.280, 0.9768983
2744.208, 0.9763328
2746.136, 0.9779903
2748.065, 0.9800355
2749.993, 0.9795482
2751.922, 0.9794156
2753.850, 0.9798044
2755.779, 0.9815033
2757.707, 0.9829499
2759.636, 0.9830536
2761.564, 0.9825898
2763.493, 0.9818438
2765.421, 0.9823933
2767.350, 0.9847676
2769.278, 0.9864162
2771.207, 0.9863596
2773.135, 0.9857407
2775.063, 0.9861190
2776.992, 0.9873573
2778.920, 0.9875516
2780.849, 0.9892561
2782.777, 0.9897419
2784.706, 0.9890599
2786.634, 0.9900814
2788.563, 0.9907451
2790.491, 0.9912421
2792.420, 0.9932660
2794.348, 0.9934213
2796.277, 0.9934026
2798.205, 0.9945668
2800.134, 0.9969376
2802.062, 0.9983364
2803.990, 0.9989387
2805.919, 0.9982402
2807.847, 0.9971744
2809.776, 0.9971080
2811.704, 0.9994261
2813.633, 1.000869
2815.561, 1.000122
2817.490, 1.002201
2819.418, 1.003473
2821.347, 1.003150
2823.275, 1.003810
2825.204, 1.005994
2827.132, 1.006930
2829.061, 1.008889
2830.989, 1.011128
2832.917, 1.013081
2834.846, 1.014581
2836.774, 1.014940
2838.703, 1.017101
2840.631, 1.019316
2842.560, 1.019651
2844.488, 1.021752
2846.417, 1.024523
2848.345, 1.025785
2850.274, 1.026018
2852.202, 1.026798
2854.131, 1.026788
2856.059, 1.026804
2857.988, 1.027220
2859.916, 1.025943
2861.844, 1.022969
2863.773, 1.021371
2865.701, 1.021224
2867.630, 1.020656
2869.558, 1.021234
2871.487, 1.024055
2873.415, 1.024305
2875.344, 1.023020
2877.272, 1.025220
2879.201, 1.026872
2881.129, 1.027344
2883.058, 1.027478
2884.986, 1.026177
2886.915, 1.027299
2888.843, 1.029293
2890.771, 1.030525
2892.700, 1.033672
2894.628, 1.034695
2896.557, 1.036202
2898.485, 1.038861
2900.414, 1.038958
2902.342, 1.040252
2904.271, 1.041309
2906.199, 1.041384
2908.128, 1.042835
2910.056, 1.045361
2911.985, 1.048174
2913.913, 1.049572
2915.842, 1.051562
2917.770, 1.053927
2919.698, 1.055779
2921.627, 1.057602
2923.555, 1.058373
2925.484, 1.057411
2927.412, 1.054889
2929.341, 1.052318
2931.269, 1.048876
2933.198, 1.044283
2935.126, 1.042058
2937.055, 1.040490
2938.983, 1.038446
2940.912, 1.036521
2942.840, 1.036633
2944.769, 1.039432
2946.697, 1.040488
2948.625, 1.040035
2950.554, 1.040103
2952.482, 1.042517
2954.411, 1.045697
2956.339, 1.044393
2958.268, 1.042864
2960.196, 1.043206
2962.125, 1.040319
2964.053, 1.037952
2965.982, 1.040813
2967.910, 1.040148
2969.839, 1.039477
2971.767, 1.039830
2973.696, 1.037749
2975.624, 1.038673
2977.552, 1.040073
2979.481, 1.038727
2981.409, 1.038287
2983.338, 1.040247
2985.266, 1.042781
2987.195, 1.043169
2989.123, 1.043476
2991.052, 1.043319
2992.980, 1.043445
2994.909, 1.044518
2996.837, 1.046450
2998.766, 1.048400
3000.694, 1.047470
3002.623, 1.046728
3004.551, 1.046507
3006.479, 1.046287
3008.408, 1.046133
3010.336, 1.048284
3012.265, 1.051001
3014.193, 1.051867
3016.122, 1.052538
3018.050, 1.053213
3019.979, 1.053149
3021.907, 1.053932
3023.836, 1.054760
3025.764, 1.054556
3027.693, 1.054276
3029.621, 1.056480
3031.550, 1.059896
3033.478, 1.060694
3035.406, 1.060444
3037.335, 1.060409
3039.263, 1.061269
3041.192, 1.064450
3043.120, 1.064079
3045.049, 1.061650
3046.977, 1.063466
3048.906, 1.063294
3050.834, 1.064128
3052.763, 1.066554
3054.691, 1.066832
3056.620, 1.066374
3058.548, 1.069247
3060.477, 1.070463
3062.405, 1.070972
3064.333, 1.069722
3066.262, 1.068883
3068.190, 1.071424
3070.119, 1.073779
3072.047, 1.075198
3073.976, 1.073244
3075.904, 1.071521
3077.833, 1.072176
3079.761, 1.073750
3081.690, 1.074302
3083.618, 1.077021
3085.547, 1.078698
3087.475, 1.077953
3089.404, 1.077840
3091.332, 1.078155
3093.260, 1.079255
3095.189, 1.082588
3097.117, 1.083353
3099.046, 1.081715
3100.974, 1.082338
3102.903, 1.086125
3104.831, 1.086132
3106.760, 1.082388
3108.688, 1.082789
3110.617, 1.085452
3112.545, 1.088399
3114.474, 1.088703
3116.402, 1.089126
3118.331, 1.089598
3120.259, 1.089852
3122.188, 1.089470
3124.116, 1.086718
3126.044, 1.087076
3127.973, 1.089816
3129.901, 1.089649
3131.830, 1.089431
3133.758, 1.091094
3135.687, 1.092770
3137.615, 1.092023
3139.544, 1.093635
3141.472, 1.096830
3143.401, 1.095401
3145.329, 1.097360
3147.258, 1.097076
3149.186, 1.094200
3151.115, 1.097118
3153.043, 1.100718
3154.971, 1.099422
3156.900, 1.099718
3158.828, 1.100858
3160.757, 1.101969
3162.685, 1.102164
3164.614, 1.104460
3166.542, 1.106345
3168.471, 1.104152
3170.399, 1.103638
3172.328, 1.102417
3174.256, 1.101175
3176.185, 1.102754
3178.113, 1.104154
3180.042, 1.107223
3181.970, 1.112347
3183.898, 1.111491
3185.827, 1.109139
3187.755, 1.111337
3189.684, 1.113414
3191.612, 1.112418
3193.541, 1.113432
3195.469, 1.117836
3197.398, 1.117440
3199.326, 1.113079
3201.255, 1.113478
3203.183, 1.114254
3205.112, 1.112751
3207.040, 1.114475
3208.969, 1.115893
3210.897, 1.112291
3212.825, 1.111474
3214.754, 1.114908
3216.682, 1.117895
3218.611, 1.121222
3220.539, 1.122541
3222.468, 1.117740
3224.396, 1.116420
3226.325, 1.119414
3228.253, 1.122380
3230.182, 1.123586
3232.110, 1.122334
3234.039, 1.120980
3235.967, 1.121678
3237.896, 1.122166
3239.824, 1.123384
3241.752, 1.125391
3243.681, 1.123927
3245.609, 1.122206
3247.538, 1.124117
3249.466, 1.127179
3251.395, 1.126263
3253.323, 1.127670
3255.252, 1.126868
3257.180, 1.126343
3259.109, 1.129629
3261.037, 1.130723
3262.966, 1.130637
3264.894, 1.131512
3266.823, 1.131480
3268.751, 1.132313
3270.679, 1.134019
3272.608, 1.131893
3274.536, 1.130536
3276.465, 1.131696
3278.393, 1.133217
3280.322, 1.134289
3282.250, 1.136090
3284.179, 1.137469
3286.107, 1.140499
3288.036, 1.142765
3289.964, 1.141398
3291.893, 1.139126
3293.821, 1.139664
3295.750, 1.141208
3297.678, 1.141138
3299.606, 1.139488
3301.535, 1.136845
3303.463, 1.135721
3305.392, 1.139117
3307.320, 1.142589
3309.249, 1.141832
3311.177, 1.141946
3313.106, 1.141691
3315.034, 1.140800
3316.963, 1.142760
3318.891, 1.141221
3320.820, 1.140495
3322.748, 1.142197
3324.677, 1.145554
3326.605, 1.150265
3328.533, 1.151353
3330.462, 1.149662
3332.390, 1.149574
3334.319, 1.149327
3336.247, 1.149257
3338.176, 1.150765
3340.104, 1.152272
3342.033, 1.153439
3343.961, 1.149961
3345.890, 1.147528
3347.818, 1.151710
3349.747, 1.154479
3351.675, 1.150817
3353.604, 1.147644
3355.532, 1.149294
3357.460, 1.153198
3359.389, 1.152142
3361.317, 1.151833
3363.246, 1.156261
3365.174, 1.160351
3367.103, 1.158087
3369.031, 1.155864
3370.960, 1.154466
3372.888, 1.154212
3374.817, 1.157093
3376.745, 1.158073
3378.674, 1.158607
3380.602, 1.159652
3382.531, 1.158091
3384.459, 1.158572
3386.387, 1.160388
3388.316, 1.161318
3390.244, 1.161788
3392.173, 1.164051
3394.101, 1.163050
3396.030, 1.159745
3397.958, 1.158602
3399.887, 1.160220
3401.815, 1.160278
3403.744, 1.162256
3405.672, 1.163656
3407.601, 1.162115
3409.529, 1.162066
3411.458, 1.161487
3413.386, 1.159747
3415.314, 1.161755
3417.243, 1.163057
3419.171, 1.166865
3421.100, 1.168543
3423.028, 1.168177
3424.957, 1.166010
3426.885, 1.163678
3428.814, 1.165339
3430.742, 1.167733
3432.671, 1.166485
3434.599, 1.166236
3436.528, 1.169705
3438.456, 1.172246
3440.385, 1.170971
3442.313, 1.170878
3444.241, 1.174176
3446.170, 1.179193
3448.098, 1.174607
3450.027, 1.170142
3451.955, 1.168726
3453.884, 1.171082
3455.812, 1.175732
3457.741, 1.175137
3459.669, 1.171948
3461.598, 1.174418
3463.526, 1.177902
3465.455, 1.178633
3467.383, 1.179865
3469.312, 1.179245
3471.240, 1.175501
3473.168, 1.176473
3475.097, 1.179443
3477.025, 1.177949
3478.954, 1.177536
3480.882, 1.177489
3482.811, 1.173920
3484.739, 1.172918
3486.668, 1.175111
3488.596, 1.177394
3490.525, 1.180666
3492.453, 1.181152
3494.382, 1.175117
3496.310, 1.174893
3498.239, 1.180467
3500.167, 1.181082
3502.095, 1.183089
3504.024, 1.180652
3505.952, 1.178618
3507.881, 1.181053
3509.809, 1.182437
3511.738, 1.183054
3513.666, 1.183026
3515.595, 1.186228
3517.523, 1.189461
3519.452, 1.184764
3521.380, 1.184525
3523.309, 1.181447
3525.237, 1.177836
3527.166, 1.181040
3529.094, 1.182723
3531.022, 1.182654
3532.951, 1.182310
3534.879, 1.180299
3536.808, 1.186120
3538.736, 1.186953
3540.665, 1.182834
3542.593, 1.182024
3544.522, 1.181247
3546.450, 1.180093
3548.379, 1.182392
3550.307, 1.187269
3552.236, 1.190086
3554.164, 1.188011
3556.093, 1.189975
3558.021, 1.187622
3559.949, 1.186104
3561.878, 1.187342
3563.806, 1.186905
3565.735, 1.183385
3567.663, 1.187059
3569.592, 1.191743
3571.520, 1.191871
3573.449, 1.192820
3575.377, 1.194106
3577.306, 1.192890
3579.234, 1.193723
3581.163, 1.192940
3583.091, 1.188181
3585.020, 1.185675
3586.948, 1.191912
3588.876, 1.193945
3590.805, 1.189561
3592.733, 1.188670
3594.662, 1.190203
3596.590, 1.192634
3598.519, 1.194540
3600.447, 1.196110
3602.376, 1.194584
3604.304, 1.195560
3606.233, 1.197234
3608.161, 1.199320
3610.090, 1.201022
3612.018, 1.197461
3613.947, 1.201766
3615.875, 1.202861
3617.803, 1.198756
3619.732, 1.196552
3621.660, 1.200311
3623.589, 1.202693
3625.517, 1.199829
3627.446, 1.204058
3629.374, 1.207038
3631.303, 1.203630
3633.231, 1.204295
3635.160, 1.205440
3637.088, 1.204270
3639.017, 1.203408
3640.945, 1.205361
3642.874, 1.210493
3644.802, 1.208251
3646.730, 1.207227
3648.659, 1.215607
3650.587, 1.213302
3652.516, 1.209375
3654.444, 1.210174
3656.373, 1.209987
3658.301, 1.206533
3660.230, 1.210369
3662.158, 1.216724
3664.087, 1.218908
3666.015, 1.216880
3667.944, 1.214073
3669.872, 1.220178
3671.801, 1.226719
3673.729, 1.222903
3675.657, 1.218459
3677.586, 1.217487
3679.514, 1.215469
3681.443, 1.217669
3683.371, 1.220570
3685.300, 1.217344
3687.228, 1.216599
3689.157, 1.218434
3691.085, 1.217562
3693.014, 1.219956
3694.942, 1.224211
3696.871, 1.228989
3698.799, 1.227194
3700.728, 1.227178
3702.656, 1.227733
3704.584, 1.224231
3706.513, 1.228680
3708.441, 1.232657
3710.370, 1.231957
3712.298, 1.231958
3714.227, 1.228666
3716.155, 1.228042
3718.084, 1.230558
3720.012, 1.231857
3721.941, 1.227952
3723.869, 1.226011
3725.798, 1.232446
3727.726, 1.236796
3729.655, 1.236407
3731.583, 1.237216
3733.511, 1.240582
3735.440, 1.236859
3737.368, 1.232841
3739.297, 1.237791
3741.225, 1.239309
3743.154, 1.240734
3745.082, 1.242323
3747.011, 1.241863
3748.939, 1.241704
3750.868, 1.244547
3752.796, 1.244394
3754.725, 1.241310
3756.653, 1.245161
3758.582, 1.248333
3760.510, 1.247486
3762.438, 1.247573
3764.367, 1.244499
3766.295, 1.241679
3768.224, 1.244817
3770.152, 1.244692
3772.081, 1.246877
3774.009, 1.250174
3775.938, 1.249869
3777.866, 1.245149
3779.795, 1.245599
3781.723, 1.246824
3783.652, 1.248540
3785.580, 1.252179
3787.509, 1.258621
3789.437, 1.260344
3791.365, 1.256190
3793.294, 1.254177
3795.222, 1.257453
3797.151, 1.259098
3799.079, 1.256812
3801.008, 1.261724
3802.936, 1.262902
3804.865, 1.260921
3806.793, 1.260821
3808.722, 1.263493
3810.650, 1.265780
3812.579, 1.267635
3814.507, 1.267875
3816.436, 1.269182
3818.364, 1.268654
3820.292, 1.268384
3822.221, 1.263529
3824.149, 1.263510
3826.078, 1.267486
3828.006, 1.267802
3829.935, 1.266512
3831.863, 1.269165
3833.792, 1.272177
3835.720, 1.269783
3837.649, 1.271405
3839.577, 1.274517
3841.506, 1.274173
3843.434, 1.277684
3845.363, 1.275634
3847.291, 1.273122
3849.219, 1.275449
3851.148, 1.282299
3853.076, 1.287332
3855.005, 1.282556
3856.933, 1.278723
3858.862, 1.282334
3860.790, 1.280324
3862.719, 1.277933
3864.647, 1.275792
3866.576, 1.277417
3868.504, 1.284607
3870.433, 1.288356
3872.361, 1.287973
3874.290, 1.284925
3876.218, 1.287185
3878.146, 1.288260
3880.075, 1.282398
3882.003, 1.282788
3883.932, 1.288378
3885.860, 1.291459
3887.789, 1.295900
3889.717, 1.298917
3891.646, 1.298204
3893.574, 1.294634
3895.503, 1.295695
3897.431, 1.293764
3899.360, 1.290173
3901.288, 1.295810
3903.217, 1.298180
3905.145, 1.292752
3907.073, 1.290881
3909.002, 1.290268
3910.930, 1.292435
3912.859, 1.295097
3914.787, 1.297022
3916.716, 1.300415
3918.644, 1.304388
3920.573, 1.303214
3922.501, 1.298036
3924.430, 1.297622
3926.358, 1.304249
3928.287, 1.305100
3930.215, 1.305618
3932.144, 1.307169
3934.072, 1.303214
3936.000, 1.301859
3937.929, 1.301726
3939.857, 1.305866
3941.786, 1.309642
3943.714, 1.312340
3945.643, 1.316326
3947.571, 1.312911
3949.500, 1.310668
3951.428, 1.312414
3953.357, 1.312105
3955.285, 1.311606
3957.214, 1.314597
3959.142, 1.316180
3961.071, 1.312682
3962.999, 1.313921
3964.927, 1.315895
3966.856, 1.314983
3968.784, 1.312855
3970.713, 1.307775
3972.641, 1.310281
3974.570, 1.321220
3976.498, 1.325300
3978.427, 1.321007
3980.355, 1.319456
3982.284, 1.323216
3984.212, 1.323043
3986.141, 1.326661
3988.069, 1.330773
3989.998, 1.332211
3991.926, 1.329153
3993.854, 1.321763
3995.783, 1.321749
3997.711, 1.319020
3999.640, 1.319656
##END=



