##NAMES=Danburite
##RRUFFID=R050602
##IDEAL CHEMISTRY=CaB_2_Si_2_O_8_
##LOCALITY=Mogok, Burma
##OWNER=RRUFF
##SOURCE=Bill Larson
##DESCRIPTION=Yellowish brown fragment
##STATUS=The identification of this mineral has been confirmed by X-ray diffraction and chemical analysis
##URL=rruff.info/R050602
##MEASURED CHEMISTRY=Ca_1.00_B_2.00_(Si_1.00_O_4_)_2_
399.1926, 0.1117759
401.1211, 0.1351402
403.0496, 0.1357899
404.9780, 0.1545580
406.9065, 0.1762636
408.8350, 0.1946423
410.7634, 0.2109075
412.6919, 0.2164077
414.6204, 0.2090123
416.5488, 0.2000311
418.4773, 0.1973483
420.4058, 0.1890044
422.3342, 0.1766945
424.2627, 0.1652969
426.1912, 0.1512848
428.1196, 0.1408268
430.0481, 0.1324305
431.9766, 0.1285546
433.9050, 0.1310013
435.8335, 0.1286704
437.7620, 0.1184296
439.6904, 0.1030324
441.6189, 8.8211283E-02
443.5474, 7.5191230E-02
445.4758, 6.6617154E-02
447.4043, 6.5326937E-02
449.3328, 7.2510183E-02
451.2612, 8.2703598E-02
453.1897, 8.5333422E-02
455.1182, 8.1878267E-02
457.0466, 7.8094661E-02
458.9751, 7.4171811E-02
460.9036, 7.1897447E-02
462.8320, 7.4892066E-02
464.7605, 8.2183890E-02
466.6890, 9.2930600E-02
468.6174, 0.1076728
470.5459, 0.1258155
472.4744, 0.1466692
474.4028, 0.1652047
476.3313, 0.1728250
478.2598, 0.1659049
480.1882, 0.1502563
482.1167, 0.1314757
484.0452, 0.1180332
485.9736, 0.1111941
487.9021, 9.9182837E-02
489.8306, 7.6003604E-02
491.7590, 5.4067168E-02
493.6875, 4.2224150E-02
495.6160, 3.7622590E-02
497.5444, 3.6943071E-02
499.4729, 3.7988391E-02
501.4014, 4.0048141E-02
503.3298, 4.3176901E-02
505.2583, 4.6851851E-02
507.1868, 5.1436190E-02
509.1152, 5.7591870E-02
511.0437, 6.6346243E-02
512.9722, 7.5878508E-02
514.9006, 8.6475194E-02
516.8291, 0.1003201
518.7576, 0.1166326
520.6860, 0.1320622
522.6145, 0.1423738
524.5430, 0.1400318
526.4714, 0.1232812
528.3999, 0.1007194
530.3284, 8.0378130E-02
532.2568, 6.5919042E-02
534.1853, 5.7577871E-02
536.1138, 5.3085800E-02
538.0422, 5.1087629E-02
539.9707, 5.0922059E-02
541.8992, 5.1426589E-02
543.8276, 5.1959720E-02
545.7561, 5.4106720E-02
547.6846, 5.7269309E-02
549.6130, 5.9130259E-02
551.5415, 6.1083619E-02
553.4700, 6.4987190E-02
555.3984, 6.9098689E-02
557.3269, 7.2991326E-02
559.2554, 7.6600663E-02
561.1838, 7.9069443E-02
563.1123, 8.1431083E-02
565.0408, 8.4519513E-02
566.9692, 8.7890878E-02
568.8977, 9.1797277E-02
570.8262, 9.6524283E-02
572.7546, 0.1008186
574.6831, 0.1052838
576.6116, 0.1109447
578.5400, 0.1171767
580.4685, 0.1227251
582.3970, 0.1288930
584.3254, 0.1356713
586.2539, 0.1423652
588.1824, 0.1496693
590.1108, 0.1576084
592.0393, 0.1649355
593.9678, 0.1728408
595.8962, 0.1823235
597.8247, 0.1923821
599.7532, 0.2027626
601.6816, 0.2143895
603.6101, 0.2274831
605.5386, 0.2395434
607.4670, 0.2520837
609.3955, 0.2671388
611.3240, 0.2808874
613.2524, 0.2865414
615.1809, 0.2794111
617.1094, 0.2584988
619.0378, 0.2300702
620.9663, 0.2004891
622.8948, 0.1708061
624.8232, 0.1423794
626.7517, 0.1171471
628.6802, 9.6937917E-02
630.6086, 8.4064767E-02
632.5371, 7.8937054E-02
634.4656, 7.9219118E-02
636.3940, 8.2224593E-02
638.3225, 8.7363698E-02
640.2510, 9.4826952E-02
642.1794, 0.1044836
644.1079, 0.1155936
646.0364, 0.1268573
647.9648, 0.1385216
649.8933, 0.1510402
651.8218, 0.1622335
653.7502, 0.1692588
655.6787, 0.1706803
657.6072, 0.1665056
659.5356, 0.1581296
661.4641, 0.1474958
663.3926, 0.1344635
665.3210, 0.1203010
667.2495, 0.1061403
669.1780, 9.3669303E-02
671.1064, 8.5202470E-02
673.0349, 8.0363773E-02
674.9634, 7.8993097E-02
676.8918, 7.9801857E-02
678.8203, 8.2763217E-02
680.7488, 8.7674282E-02
682.6772, 9.3568787E-02
684.6057, 0.1011362
686.5342, 0.1113026
688.4626, 0.1232401
690.3911, 0.1368653
692.3196, 0.1508357
694.2480, 0.1633285
696.1765, 0.1720914
698.1050, 0.1740035
700.0334, 0.1666140
701.9619, 0.1477669
703.8904, 0.1201880
705.8188, 9.4069377E-02
707.7473, 7.5838543E-02
709.6758, 6.5439761E-02
711.6042, 6.0173269E-02
713.5327, 5.7788432E-02
715.4612, 5.7089321E-02
717.3896, 5.7618130E-02
719.3181, 5.8633480E-02
721.2466, 6.0107011E-02
723.1750, 6.2119510E-02
725.1035, 6.4187810E-02
727.0320, 6.6560432E-02
728.9604, 6.9541208E-02
730.8889, 7.3045507E-02
732.8174, 7.6309852E-02
734.7458, 8.0028251E-02
736.6743, 8.4076993E-02
738.6028, 8.8470437E-02
740.5313, 9.3452081E-02
742.4597, 9.8878957E-02
744.3882, 0.1056475
746.3167, 0.1136269
748.2451, 0.1203120
750.1736, 0.1213821
752.1021, 0.1139249
754.0305, 0.1047788
755.9590, 0.1007999
757.8875, 0.1015269
759.8159, 0.1044946
761.7444, 0.1084325
763.6729, 0.1124506
765.6013, 0.1164753
767.5298, 0.1209625
769.4583, 0.1253108
771.3867, 0.1293324
773.3152, 0.1335567
775.2437, 0.1378745
777.1721, 0.1418881
779.1006, 0.1457338
781.0291, 0.1498187
782.9575, 0.1535638
784.8860, 0.1572411
786.8145, 0.1616808
788.7429, 0.1659717
790.6714, 0.1701068
792.5999, 0.1747633
794.5283, 0.1793207
796.4568, 0.1834112
798.3853, 0.1877052
800.3137, 0.1921923
802.2422, 0.1970722
804.1707, 0.2020092
806.0991, 0.2073531
808.0276, 0.2136040
809.9561, 0.2202509
811.8845, 0.2268559
813.8130, 0.2323045
815.7415, 0.2327058
817.6699, 0.2241254
819.5984, 0.2115946
821.5269, 0.2053553
823.4553, 0.2075124
825.3838, 0.2137328
827.3123, 0.2209581
829.2407, 0.2280609
831.1692, 0.2349716
833.0977, 0.2414159
835.0261, 0.2471135
836.9546, 0.2524384
838.8831, 0.2578330
840.8115, 0.2633639
842.7400, 0.2685968
844.6685, 0.2735074
846.5969, 0.2790325
848.5254, 0.2848039
850.4539, 0.2899641
852.3823, 0.2949515
854.3108, 0.2997056
856.2393, 0.3042879
858.1677, 0.3089838
860.0962, 0.3135101
862.0247, 0.3171816
863.9531, 0.3193394
865.8816, 0.3202727
867.8101, 0.3197611
869.7385, 0.3177342
871.6670, 0.3139228
873.5955, 0.3085702
875.5239, 0.3028142
877.4524, 0.2959514
879.3809, 0.2880459
881.3093, 0.2798316
883.2378, 0.2720713
885.1663, 0.2643544
887.0947, 0.2566952
889.0232, 0.2507410
890.9517, 0.2473863
892.8801, 0.2476221
894.8085, 0.2513466
896.7370, 0.2570852
898.6655, 0.2641881
900.5939, 0.2727856
902.5224, 0.2818732
904.4509, 0.2907240
906.3793, 0.2992378
908.3078, 0.3073019
910.2363, 0.3142814
912.1647, 0.3206919
914.0932, 0.3268549
916.0217, 0.3316064
917.9501, 0.3355002
919.8786, 0.3382791
921.8071, 0.3399820
923.7355, 0.3419127
925.6640, 0.3434677
927.5925, 0.3441604
929.5209, 0.3435035
931.4494, 0.3425926
933.3779, 0.3412129
935.3063, 0.3388195
937.2348, 0.3358169
939.1633, 0.3323401
941.0917, 0.3288187
943.0202, 0.3253272
944.9487, 0.3206798
946.8771, 0.3156351
948.8056, 0.3107104
950.7341, 0.3060943
952.6625, 0.3014923
954.5910, 0.2971376
956.5195, 0.2936261
958.4479, 0.2920927
960.3764, 0.2933441
962.3049, 0.2966908
964.2333, 0.2992076
966.1618, 0.2980953
968.0903, 0.2919999
970.0187, 0.2813061
971.9472, 0.2678183
973.8757, 0.2537302
975.8041, 0.2398392
977.7326, 0.2273151
979.6611, 0.2175641
981.5895, 0.2112249
983.5180, 0.2080156
985.4465, 0.2073300
987.3749, 0.2074708
989.3034, 0.2080638
991.2319, 0.2090367
993.1603, 0.2095929
995.0888, 0.2097387
997.0173, 0.2096765
998.9457, 0.2096226
1000.874, 0.2097098
1002.803, 0.2094272
1004.731, 0.2088197
1006.660, 0.2080814
1008.588, 0.2067019
1010.517, 0.2047046
1012.445, 0.2022341
1014.373, 0.1996212
1016.302, 0.1971124
1018.230, 0.1945464
1020.159, 0.1922230
1022.087, 0.1899366
1024.016, 0.1879020
1025.944, 0.1861545
1027.873, 0.1841572
1029.801, 0.1817725
1031.730, 0.1783166
1033.658, 0.1733377
1035.587, 0.1674036
1037.515, 0.1617713
1039.444, 0.1578809
1041.372, 0.1550375
1043.301, 0.1496415
1045.229, 0.1398788
1047.157, 0.1280474
1049.086, 0.1163563
1051.014, 0.1061698
1052.943, 9.8130479E-02
1054.871, 9.2108563E-02
1056.800, 8.6863123E-02
1058.728, 8.2784079E-02
1060.657, 8.0034122E-02
1062.585, 7.7941023E-02
1064.514, 7.6439470E-02
1066.442, 7.6422803E-02
1068.371, 7.8187667E-02
1070.299, 8.2103036E-02
1072.228, 8.8025287E-02
1074.156, 9.5851332E-02
1076.084, 0.1058046
1078.013, 0.1176016
1079.941, 0.1305379
1081.870, 0.1435508
1083.798, 0.1560665
1085.727, 0.1671881
1087.655, 0.1767170
1089.584, 0.1853596
1091.512, 0.1928417
1093.441, 0.1984224
1095.369, 0.2016812
1097.298, 0.2023900
1099.226, 0.2005736
1101.155, 0.1967628
1103.083, 0.1920026
1105.011, 0.1871796
1106.940, 0.1823271
1108.868, 0.1771135
1110.797, 0.1727030
1112.725, 0.1694961
1114.654, 0.1669414
1116.582, 0.1659493
1118.511, 0.1664371
1120.439, 0.1679979
1122.368, 0.1705422
1124.296, 0.1736321
1126.225, 0.1770141
1128.153, 0.1805302
1130.082, 0.1837087
1132.010, 0.1853747
1133.938, 0.1843739
1135.867, 0.1804987
1137.795, 0.1741339
1139.724, 0.1661650
1141.652, 0.1576826
1143.581, 0.1491393
1145.509, 0.1412521
1147.438, 0.1338412
1149.366, 0.1267822
1151.295, 0.1203904
1153.223, 0.1144879
1155.152, 0.1088510
1157.080, 0.1030504
1159.009, 9.7758889E-02
1160.937, 9.3005337E-02
1162.865, 8.8578656E-02
1164.794, 8.3811007E-02
1166.722, 7.9335518E-02
1168.651, 7.5540461E-02
1170.579, 7.1658038E-02
1172.508, 6.7852259E-02
1174.436, 6.4302251E-02
1176.365, 6.0855359E-02
1178.293, 5.7553831E-02
1180.222, 5.4177731E-02
1182.150, 5.1151808E-02
1184.079, 4.8349831E-02
1186.007, 4.5714229E-02
1187.936, 4.2889740E-02
1189.864, 4.0214241E-02
1191.792, 3.7655249E-02
1193.721, 3.5131201E-02
1195.649, 3.2780629E-02
1197.578, 3.0621260E-02
1199.506, 2.8592451E-02
1201.435, 2.6318770E-02
1203.363, 2.4311639E-02
1205.292, 2.2542739E-02
1207.220, 2.1149009E-02
1209.149, 1.9828981E-02
1211.077, 1.8458011E-02
1213.006, 1.7498801E-02
1214.934, 1.6629370E-02
1216.863, 1.5758161E-02
1218.791, 1.4850610E-02
1220.719, 1.4022530E-02
1222.648, 1.3225560E-02
1224.576, 1.2630950E-02
1226.505, 1.2229570E-02
1228.433, 1.1881080E-02
1230.362, 1.1302020E-02
1232.290, 1.0723530E-02
1234.219, 1.0653000E-02
1236.147, 1.0471810E-02
1238.076, 9.9999532E-03
1240.004, 9.7379172E-03
1241.933, 9.5169581E-03
1243.861, 9.3898457E-03
1245.790, 9.1284802E-03
1247.718, 8.8576181E-03
1249.646, 8.6354548E-03
1251.575, 8.5444236E-03
1253.503, 8.4646912E-03
1255.432, 8.0716778E-03
1257.360, 7.9948269E-03
1259.289, 8.0970703E-03
1261.217, 7.9291612E-03
1263.146, 7.3766001E-03
1265.074, 7.0149740E-03
1267.003, 7.0158471E-03
1268.931, 7.0458171E-03
1270.860, 7.0346021E-03
1272.788, 6.8313228E-03
1274.717, 6.7169522E-03
1276.645, 6.8276152E-03
1278.573, 6.9498802E-03
1280.502, 6.9445521E-03
1282.430, 6.9779442E-03
1284.359, 6.8984241E-03
1286.287, 6.6139288E-03
1288.216, 6.5128938E-03
1290.144, 6.7268130E-03
1292.073, 6.6146082E-03
1294.001, 6.4793369E-03
1295.930, 6.5592779E-03
1297.858, 6.6451398E-03
1299.787, 6.4455289E-03
1301.715, 6.5113730E-03
1303.644, 6.6362559E-03
1305.572, 6.3446718E-03
1307.500, 6.2375218E-03
1309.429, 6.1474610E-03
1311.357, 6.1698239E-03
1313.286, 6.4256811E-03
1315.214, 6.5170531E-03
1317.143, 6.2019420E-03
1319.071, 6.2511852E-03
1321.000, 6.5835300E-03
1322.928, 6.3630189E-03
1324.857, 6.0247178E-03
1326.785, 6.0567660E-03
1328.714, 6.2315911E-03
1330.642, 6.2478101E-03
1332.571, 6.3699759E-03
1334.499, 6.2924698E-03
1336.427, 6.1274548E-03
1338.356, 5.9314808E-03
1340.284, 5.8646151E-03
1342.213, 5.8812289E-03
1344.141, 5.8978670E-03
1346.070, 5.8645210E-03
1347.998, 5.8981879E-03
1349.927, 5.6010531E-03
1351.855, 5.4595680E-03
1353.784, 5.5546989E-03
1355.712, 5.6066448E-03
1357.641, 5.6275642E-03
1359.569, 5.8144568E-03
1361.498, 5.7667620E-03
1363.426, 5.6176130E-03
1365.354, 5.7235300E-03
1367.283, 5.8921021E-03
1369.211, 5.5871340E-03
1371.140, 5.3836242E-03
1373.068, 5.4982640E-03
1374.997, 5.7076481E-03
1376.925, 5.2085491E-03
1378.854, 4.9140542E-03
1380.782, 5.3270338E-03
1382.711, 5.4623890E-03
1384.639, 5.1738662E-03
1386.568, 5.3398521E-03
1388.496, 5.5599031E-03
1390.424, 5.5451202E-03
1392.353, 5.3153550E-03
1394.281, 5.2605961E-03
1396.210, 5.3652250E-03
1398.138, 5.3466018E-03
1400.067, 5.1831799E-03
1401.995, 5.3424649E-03
1403.924, 5.4820240E-03
1405.852, 5.3644939E-03
1407.781, 5.6182919E-03
1409.709, 5.6927432E-03
1411.638, 5.5726520E-03
1413.566, 5.4617361E-03
1415.495, 5.3805159E-03
1417.423, 5.2974559E-03
1419.351, 5.3291400E-03
1421.280, 5.5761691E-03
1423.208, 5.8454098E-03
1425.137, 5.7912208E-03
1427.065, 5.7449350E-03
1428.994, 5.8120079E-03
1430.922, 5.7722339E-03
1432.851, 5.7459921E-03
1434.779, 5.6203050E-03
1436.708, 5.4400209E-03
1438.636, 5.3629391E-03
1440.565, 5.3494270E-03
1442.493, 5.2423500E-03
1444.422, 5.2175550E-03
1446.350, 5.2448660E-03
1448.278, 5.2964268E-03
1450.207, 4.9426230E-03
1452.135, 4.8351958E-03
1454.064, 5.0077760E-03
1455.992, 4.8400662E-03
1457.921, 4.6749101E-03
1459.849, 4.7504390E-03
1461.778, 4.7303140E-03
1463.706, 4.8165461E-03
1465.635, 4.8715319E-03
1467.563, 4.6312748E-03
1469.492, 4.4549392E-03
1471.420, 4.7024791E-03
1473.349, 4.8913672E-03
1475.277, 4.6788100E-03
1477.205, 4.6117618E-03
1479.134, 4.7129132E-03
1481.062, 4.6814880E-03
1482.991, 4.3357601E-03
1484.919, 4.2673000E-03
1486.848, 4.4171228E-03
1488.776, 4.1901502E-03
1490.705, 4.1931919E-03
1492.633, 4.1891080E-03
1494.562, 4.2116670E-03
1496.490, 4.2273831E-03
1498.419, 4.2598159E-03
1500.347, 4.3968642E-03
1502.276, 4.4946810E-03
1504.204, 4.5811520E-03
1506.132, 4.1705412E-03
1508.061, 3.9191120E-03
1509.989, 4.0076799E-03
1511.918, 4.1316100E-03
1513.846, 4.1565648E-03
1515.775, 3.9677559E-03
1517.703, 3.9036490E-03
1519.632, 3.7997200E-03
1521.560, 3.6414890E-03
1523.489, 3.6663569E-03
1525.417, 3.6773521E-03
1527.346, 3.7858221E-03
1529.274, 3.8305060E-03
1531.203, 3.5644821E-03
1533.131, 3.4498819E-03
1535.059, 3.7475501E-03
1536.988, 4.1678329E-03
1538.916, 4.2728670E-03
1540.845, 4.1022110E-03
1542.773, 4.1412399E-03
1544.702, 4.3912898E-03
1546.630, 4.4632140E-03
1548.559, 4.2185201E-03
1550.487, 4.1288640E-03
1552.416, 3.9916900E-03
1554.344, 4.0765922E-03
1556.273, 4.2547900E-03
1558.201, 4.3606041E-03
1560.130, 4.5778891E-03
1562.058, 4.4764741E-03
1563.986, 4.4653080E-03
1565.915, 4.6418812E-03
1567.843, 4.7956882E-03
1569.772, 4.7133309E-03
1571.700, 4.5632408E-03
1573.629, 4.6894210E-03
1575.557, 4.8478311E-03
1577.486, 4.7079669E-03
1579.414, 4.6154568E-03
1581.343, 4.9989922E-03
1583.271, 5.1342500E-03
1585.200, 4.7923392E-03
1587.128, 4.5235460E-03
1589.057, 4.2569479E-03
1590.985, 4.1637821E-03
1592.913, 4.4211992E-03
1594.842, 4.6311738E-03
1596.770, 4.4904249E-03
1598.699, 4.0736650E-03
1600.627, 4.1018380E-03
1602.556, 4.3583489E-03
1604.484, 4.3275380E-03
1606.413, 4.0900549E-03
1608.341, 4.0349839E-03
1610.270, 4.3157618E-03
1612.198, 4.4675199E-03
1614.127, 4.2431769E-03
1616.055, 4.0868670E-03
1617.984, 4.3060682E-03
1619.912, 4.4518411E-03
1621.840, 4.4242609E-03
1623.769, 4.5805918E-03
1625.697, 4.5491108E-03
1627.626, 4.2381901E-03
1629.554, 4.0212460E-03
1631.483, 4.0647690E-03
1633.411, 4.5853490E-03
1635.340, 4.6214680E-03
1637.268, 4.3605580E-03
1639.197, 3.9231330E-03
1641.125, 3.8319060E-03
1643.054, 4.2800601E-03
1644.982, 4.3837889E-03
1646.911, 4.0613320E-03
1648.839, 4.2897989E-03
1650.767, 4.6012630E-03
1652.696, 4.6449970E-03
1654.624, 4.7235349E-03
1656.553, 4.2880019E-03
1658.481, 4.1942699E-03
1660.410, 4.5372271E-03
1662.338, 4.1761571E-03
1664.267, 3.7240691E-03
1666.195, 3.9534429E-03
1668.124, 4.1558910E-03
1670.052, 4.1459482E-03
1671.981, 4.4185049E-03
1673.909, 4.4782329E-03
1675.838, 4.2129192E-03
1677.766, 3.9339471E-03
1679.694, 3.8706530E-03
1681.623, 4.1274340E-03
1683.551, 4.5602722E-03
1685.480, 4.6890811E-03
1687.408, 4.4750259E-03
1689.337, 4.2147650E-03
1691.265, 3.8047610E-03
1693.194, 3.7765610E-03
1695.122, 3.9667371E-03
1697.051, 3.9754901E-03
1698.979, 4.0414198E-03
1700.908, 3.9917780E-03
1702.836, 3.5953489E-03
1704.765, 3.4377831E-03
1706.693, 3.7355090E-03
1708.621, 4.2178980E-03
1710.550, 4.3446501E-03
1712.478, 4.0010768E-03
1714.407, 3.7150551E-03
1716.335, 3.7339800E-03
1718.264, 3.5100221E-03
1720.192, 3.5778719E-03
1722.121, 3.8226710E-03
1724.049, 3.5796380E-03
1725.978, 3.6371411E-03
1727.906, 3.8358581E-03
1729.835, 3.6923259E-03
1731.763, 3.1717189E-03
1733.692, 2.8880821E-03
1735.620, 2.7949510E-03
1737.548, 2.8503540E-03
1739.477, 2.6967500E-03
1741.405, 2.5446250E-03
1743.334, 2.6778609E-03
1745.262, 2.9110140E-03
1747.191, 2.7891791E-03
1749.119, 2.7694560E-03
1751.048, 2.7991801E-03
1752.976, 2.8269230E-03
1754.905, 2.5369299E-03
1756.833, 2.5442729E-03
1758.762, 2.8676640E-03
1760.690, 3.2005620E-03
1762.619, 3.0250959E-03
1764.547, 3.0295791E-03
1766.475, 3.7733000E-03
1768.404, 4.1419342E-03
1770.332, 4.1117161E-03
1772.261, 4.3049590E-03
1774.189, 4.0187300E-03
1776.118, 3.7080301E-03
1778.046, 3.9929412E-03
1779.975, 3.9440370E-03
1781.903, 3.7675120E-03
1783.832, 4.0023690E-03
1785.760, 4.1007921E-03
1787.689, 3.9414829E-03
1789.617, 4.2117112E-03
1791.546, 4.1969130E-03
1793.474, 3.7719710E-03
1795.402, 3.3921101E-03
1797.331, 3.5213700E-03
1799.259, 3.6192951E-03
1801.188, 3.6484769E-03
1803.116, 3.6256730E-03
1805.045, 3.5389459E-03
1806.973, 3.7168609E-03
1808.902, 3.8424230E-03
1810.830, 4.1504009E-03
1812.759, 4.1565718E-03
1814.687, 3.8409960E-03
1816.616, 4.0666689E-03
1818.544, 3.9517991E-03
1820.473, 3.5153290E-03
1822.401, 3.8219490E-03
1824.329, 3.8797499E-03
1826.258, 3.3824621E-03
1828.186, 3.4538670E-03
1830.115, 3.8444020E-03
1832.043, 4.4473070E-03
1833.972, 4.5443270E-03
1835.900, 3.8009940E-03
1837.829, 3.0789210E-03
1839.757, 3.4025060E-03
1841.686, 3.8999810E-03
1843.614, 4.4102832E-03
1845.543, 4.3274029E-03
1847.471, 3.8696050E-03
1849.400, 3.5598611E-03
1851.328, 3.1979750E-03
1853.256, 3.0725901E-03
1855.185, 3.1863700E-03
1857.113, 3.5000499E-03
1859.042, 3.7651081E-03
1860.970, 4.1145822E-03
1862.899, 3.9027249E-03
1864.827, 3.5140300E-03
1866.756, 3.4916969E-03
1868.684, 2.8781730E-03
1870.613, 2.6892130E-03
1872.541, 3.2145600E-03
1874.470, 3.2020330E-03
1876.398, 3.3573280E-03
1878.327, 3.7533951E-03
1880.255, 3.8314180E-03
1882.183, 3.3233450E-03
1884.112, 3.1300129E-03
1886.040, 3.7073500E-03
1887.969, 3.6875750E-03
1889.897, 3.4552410E-03
1891.826, 3.9603030E-03
1893.754, 2.9293811E-03
1895.683, 2.6551790E-03
1897.611, 2.8143299E-03
1899.540, 3.1328979E-03
1901.468, 3.3442380E-03
1903.397, 3.0220230E-03
1905.325, 2.7871290E-03
1907.254, 2.6882500E-03
1909.182, 3.0150809E-03
1911.110, 2.7356800E-03
1913.039, 1.6590910E-03
1914.967, 1.5386400E-03
1916.896, 1.1158719E-03
1918.824, -2.2357520E-04
1920.753, 1.5587460E-04
1922.681, 1.4516599E-03
1924.610, 1.8683180E-03
1926.538, 1.8547080E-03
1928.467, 1.8508011E-03
1930.395, 1.3298600E-03
1932.324, 1.3238780E-03
1934.252, -2.3120340E-04
1936.181, -1.3311571E-03
1938.109, -5.1358232E-04
1940.037, -1.2456790E-04
1941.966, -2.2710790E-04
1943.894, 3.0200381E-04
1945.823, 4.3188591E-04
1947.751, 3.1822661E-04
1949.680, 3.7056650E-04
1951.608, 4.4054550E-04
1953.537, 3.0991231E-04
1955.465, -1.8452920E-03
1957.394, -2.3767080E-03
1959.322, 1.5775769E-05
1961.251, 1.8912531E-03
1963.179, 4.4647671E-04
1965.108, -2.4221099E-03
1967.036, -2.9064550E-03
1968.964, -1.2462140E-03
1970.893, -2.5024959E-03
1972.821, -3.7753400E-03
1974.750, -3.1783900E-03
1976.678, -2.1345229E-03
1978.607, -1.2101580E-03
1980.535, -6.0529163E-04
1982.464, -9.9241873E-04
1984.392, -1.0365970E-03
1986.321, -7.6896668E-04
1988.249, -1.0499950E-03
1990.178, -8.6967519E-04
1992.106, 5.0859782E-04
1994.035, 1.3571930E-04
1995.963, 2.9165731E-05
1997.891, -1.1233840E-03
1999.820, -1.8677081E-03
2001.748, -2.1228229E-03
2003.677, -1.5863340E-03
2005.605, -2.0350281E-03
2007.534, -3.7433510E-03
2009.462, -3.0887739E-03
2011.391, -2.3885721E-03
2013.319, -2.1488690E-03
2015.248, -2.0739899E-03
2017.176, -2.3113200E-03
2019.105, -9.6231228E-04
2021.033, -1.2396510E-03
2022.962, -3.1834601E-03
2024.890, -1.3112230E-03
2026.818, -8.8246638E-04
2028.747, -2.8993550E-03
2030.675, -9.3825383E-04
2032.604, 1.0164010E-03
2034.532, -5.4378237E-04
2036.461, -1.4238820E-03
2038.389, -1.0608240E-03
2040.318, -1.8502130E-03
2042.246, -9.9936477E-04
2044.175, 7.4420992E-04
2046.103, 5.3113431E-04
2048.032, 1.2451441E-03
2049.960, 2.2028319E-03
2051.889, 1.8517911E-03
2053.817, 2.2962810E-03
2055.746, 1.6164730E-03
2057.674, 5.4191513E-04
2059.603, 1.1806810E-04
2061.531, 2.7340581E-04
2063.459, 6.9662672E-04
2065.388, 1.8135710E-03
2067.316, 3.5544981E-03
2069.245, 4.0536271E-03
2071.173, 3.1459739E-03
2073.102, 2.9387570E-03
2075.030, 3.5146810E-03
2076.959, 3.1028991E-03
2078.887, 3.3302391E-03
2080.816, 3.3808011E-03
2082.744, 2.8354260E-03
2084.673, 3.2981869E-03
2086.601, 3.8892999E-03
2088.530, 3.0422080E-03
2090.458, 2.3415531E-03
2092.386, 1.4340270E-03
2094.315, 2.0396920E-04
2096.243, 1.6537440E-03
2098.172, 4.3840199E-03
2100.100, 4.3055480E-03
2102.029, 2.6730569E-03
2103.957, 3.4483490E-03
2105.886, 5.1028002E-03
2107.814, 4.6861828E-03
2109.743, 5.1708450E-03
2111.671, 5.1792301E-03
2113.600, 4.8893332E-03
2115.528, 4.2485120E-03
2117.457, 4.1384879E-03
2119.385, 4.0174802E-03
2121.313, 3.5978029E-03
2123.242, 3.8021700E-03
2125.170, 5.2119140E-03
2127.099, 4.9649882E-03
2129.027, 2.8804610E-03
2130.956, 4.3143981E-04
2132.884, -9.6373458E-04
2134.813, 1.8380299E-03
2136.741, 4.7514909E-03
2138.670, 4.8684659E-03
2140.598, 4.2721859E-04
2142.527, -4.0972019E-03
2144.455, -1.9708120E-03
2146.384, 1.0310040E-03
2148.312, 2.5515209E-04
2150.240, 5.6187372E-04
2152.169, 2.1709299E-04
2154.097, -1.8718350E-03
2156.026, -2.3952450E-03
2157.954, -1.3322030E-03
2159.883, 2.1804180E-03
2161.811, 4.0725069E-03
2163.740, 4.7331280E-03
2165.668, 5.8516790E-03
2167.597, 4.0794378E-03
2169.525, 1.1023560E-03
2171.454, -2.2971230E-03
2173.382, -2.1701329E-03
2175.311, -1.0037849E-03
2177.239, -3.2550071E-03
2179.167, -1.9836910E-03
2181.096, -6.9881091E-05
2183.024, -2.5529909E-04
2184.953, -1.8666390E-03
2186.881, -3.0163610E-03
2188.810, -4.8854190E-04
2190.738, -6.3536852E-04
2192.667, -7.7263010E-04
2194.595, 1.5337000E-04
2196.524, -4.2530251E-04
2198.452, -2.6980990E-03
2200.381, -2.2780481E-03
2202.309, -1.3619170E-03
2204.238, 6.8115041E-04
2206.166, 2.0872090E-04
2208.094, 1.8072990E-04
2210.023, 1.0398000E-03
2211.951, -4.5517509E-04
2213.880, -1.1163250E-03
2215.808, 6.8560749E-04
2217.737, 4.6937421E-04
2219.665, -5.8466417E-04
2221.594, -1.1162440E-03
2223.522, -1.7884800E-03
2225.451, -2.0946951E-03
2227.379, -1.0623879E-03
2229.308, -1.5208870E-03
2231.236, -5.2719831E-04
2233.165, 1.4960490E-03
2235.093, 1.2798930E-03
2237.021, -6.2486622E-04
2238.950, 5.8958220E-04
2240.878, 2.1166990E-03
2242.807, 3.0501280E-03
2244.735, 4.7123791E-03
2246.664, 3.0188579E-03
2248.592, 1.1049710E-04
2250.521, -1.1944590E-03
2252.449, -7.8064553E-04
2254.378, 1.6673030E-03
2256.306, 3.1215840E-03
2258.235, 3.6613259E-03
2260.163, 3.8311151E-03
2262.092, 3.1201141E-03
2264.020, 4.3994710E-03
2265.948, 4.8894002E-03
2267.877, 3.5935431E-03
2269.805, 2.9654631E-03
2271.734, 2.9439749E-03
2273.662, 2.9204050E-03
2275.591, 3.1823029E-03
2277.519, 4.8511950E-03
2279.448, 6.3823471E-03
2281.376, 5.2760779E-03
2283.305, 4.7852132E-03
2285.233, 6.5308530E-03
2287.162, 7.5894780E-03
2289.090, 7.5585810E-03
2291.019, 6.6989218E-03
2292.947, 6.7148111E-03
2294.875, 7.1161631E-03
2296.804, 6.3059479E-03
2298.732, 6.3876649E-03
2300.661, 6.8603549E-03
2302.589, 7.5348150E-03
2304.518, 8.1434036E-03
2306.446, 7.4693612E-03
2308.375, 6.1274539E-03
2310.303, 5.6140609E-03
2312.232, 6.1890311E-03
2314.160, 6.2744338E-03
2316.089, 6.2975008E-03
2318.017, 7.0742932E-03
2319.946, 8.0312369E-03
2321.874, 9.4895856E-03
2323.802, 9.5573943E-03
2325.731, 7.8835739E-03
2327.659, 7.0471792E-03
2329.588, 7.3625809E-03
2331.516, 7.3122601E-03
2333.445, 6.9318791E-03
2335.373, 6.9792140E-03
2337.302, 7.4032638E-03
2339.230, 7.3637781E-03
2341.159, 7.5962339E-03
2343.087, 8.2687372E-03
2345.016, 7.6202559E-03
2346.944, 6.7082299E-03
2348.873, 6.7266701E-03
2350.801, 7.1582650E-03
2352.729, 6.9119348E-03
2354.658, 7.4781231E-03
2356.586, 8.0373501E-03
2358.515, 7.4839951E-03
2360.443, 6.8459380E-03
2362.372, 6.6921320E-03
2364.300, 7.2497828E-03
2366.229, 6.7033740E-03
2368.157, 6.2263808E-03
2370.086, 6.3095931E-03
2372.014, 6.5855249E-03
2373.942, 6.4639882E-03
2375.871, 6.7531141E-03
2377.799, 6.8104612E-03
2379.728, 7.0758010E-03
2381.656, 6.4321859E-03
2383.585, 6.1847880E-03
2385.513, 6.4532598E-03
2387.442, 6.7738988E-03
2389.370, 6.8420880E-03
2391.299, 6.5944111E-03
2393.227, 6.8061179E-03
2395.156, 7.7540842E-03
2397.084, 8.0634849E-03
2399.012, 7.6285158E-03
2400.941, 7.9870718E-03
2402.869, 7.8829378E-03
2404.798, 7.4939360E-03
2406.726, 7.9013761E-03
2408.655, 9.1079324E-03
2410.583, 1.0187770E-02
2412.512, 9.6132979E-03
2414.440, 9.8947166E-03
2416.369, 1.0182140E-02
2418.297, 9.3430076E-03
2420.226, 8.3827525E-03
2422.154, 8.3806971E-03
2424.083, 8.4517356E-03
2426.011, 8.1870388E-03
2427.939, 8.0414610E-03
2429.868, 7.6126880E-03
2431.796, 7.3002311E-03
2433.725, 7.3178750E-03
2435.653, 8.1992457E-03
2437.582, 8.7724831E-03
2439.510, 9.0818442E-03
2441.439, 8.9885090E-03
2443.367, 7.7108410E-03
2445.296, 7.3636798E-03
2447.224, 7.6450948E-03
2449.153, 8.0090212E-03
2451.081, 8.6502563E-03
2453.010, 8.8570174E-03
2454.938, 9.4308956E-03
2456.866, 8.9646066E-03
2458.795, 9.1660460E-03
2460.723, 9.4580576E-03
2462.652, 9.4909081E-03
2464.580, 9.3941223E-03
2466.509, 8.4655453E-03
2468.437, 7.4824560E-03
2470.366, 7.8198714E-03
2472.294, 8.2928725E-03
2474.223, 8.0596972E-03
2476.151, 8.5041802E-03
2478.080, 8.7274099E-03
2480.008, 8.5744122E-03
2481.937, 9.1969082E-03
2483.865, 8.9556463E-03
2485.793, 7.8643113E-03
2487.722, 8.3003482E-03
2489.650, 9.3210088E-03
2491.579, 8.6232368E-03
2493.507, 8.6237490E-03
2495.436, 8.8666445E-03
2497.364, 8.6868843E-03
2499.293, 8.5374182E-03
2501.221, 8.3223404E-03
2503.150, 8.7437127E-03
2505.078, 8.3279787E-03
2507.007, 8.5760746E-03
2508.935, 9.1744633E-03
2510.864, 9.0933414E-03
2512.792, 8.5148886E-03
2514.720, 7.5447210E-03
2516.649, 8.0708768E-03
2518.577, 9.2281541E-03
2520.506, 1.0381150E-02
2522.434, 1.1177700E-02
2524.363, 1.0715250E-02
2526.291, 8.7073483E-03
2528.220, 7.3835580E-03
2530.148, 7.3042870E-03
2532.077, 8.7726163E-03
2534.005, 9.9779489E-03
2535.934, 9.5599741E-03
2537.862, 9.1430424E-03
2539.791, 9.3617234E-03
2541.719, 8.4930696E-03
2543.647, 7.8021009E-03
2545.576, 9.5394058E-03
2547.504, 9.6619194E-03
2549.433, 8.9144958E-03
2551.361, 9.5164916E-03
2553.290, 9.6546756E-03
2555.218, 9.6221687E-03
2557.147, 9.6025951E-03
2559.075, 9.7196614E-03
2561.004, 9.9188359E-03
2562.932, 9.2398692E-03
2564.861, 9.6567646E-03
2566.789, 1.0758880E-02
2568.718, 9.1571454E-03
2570.646, 8.6440640E-03
2572.574, 9.9080075E-03
2574.503, 1.0302270E-02
2576.431, 1.0723190E-02
2578.360, 9.9754548E-03
2580.288, 9.0591032E-03
2582.217, 9.2816995E-03
2584.145, 1.0279420E-02
2586.074, 1.0785990E-02
2588.002, 1.0863380E-02
2589.931, 1.0024200E-02
2591.859, 8.7600537E-03
2593.788, 9.0425583E-03
2595.716, 1.0133200E-02
2597.645, 1.0304620E-02
2599.573, 1.0401640E-02
2601.501, 1.0217540E-02
2603.430, 9.8556681E-03
2605.358, 9.8797753E-03
2607.287, 9.9296169E-03
2609.215, 1.0353320E-02
2611.144, 1.0159990E-02
2613.072, 9.3534114E-03
2615.001, 9.5779561E-03
2616.929, 9.4138179E-03
2618.858, 9.4575034E-03
2620.786, 9.8445518E-03
2622.715, 1.0814050E-02
2624.643, 1.0610170E-02
2626.572, 1.0123170E-02
2628.500, 1.1193000E-02
2630.428, 1.1799780E-02
2632.357, 1.1197970E-02
2634.285, 1.0732410E-02
2636.214, 1.1095830E-02
2638.142, 1.0726860E-02
2640.071, 1.0059850E-02
2641.999, 1.0552750E-02
2643.928, 1.1248700E-02
2645.856, 1.1038070E-02
2647.785, 1.0608710E-02
2649.713, 1.0765580E-02
2651.642, 1.1100180E-02
2653.570, 1.1008120E-02
2655.499, 1.0508460E-02
2657.427, 1.0508630E-02
2659.355, 1.0457570E-02
2661.284, 1.0324040E-02
2663.212, 1.0355200E-02
2665.141, 1.0657220E-02
2667.069, 1.0869460E-02
2668.998, 1.0044030E-02
2670.926, 9.1311093E-03
2672.855, 9.0764696E-03
2674.783, 9.8793302E-03
2676.712, 1.0078070E-02
2678.640, 9.9900737E-03
2680.569, 9.7641917E-03
2682.497, 1.0142970E-02
2684.426, 1.0382580E-02
2686.354, 9.8804142E-03
2688.282, 1.0010940E-02
2690.211, 1.0174750E-02
2692.139, 1.0637440E-02
2694.068, 9.9704536E-03
2695.996, 9.1033783E-03
2697.925, 1.0374190E-02
2699.853, 1.1271740E-02
2701.782, 1.1488600E-02
2703.710, 1.0735950E-02
2705.639, 9.3517983E-03
2707.567, 9.3334159E-03
2709.496, 9.6909516E-03
2711.424, 9.9576730E-03
2713.353, 9.7793536E-03
2715.281, 9.7835818E-03
2717.209, 1.0381400E-02
2719.138, 9.8654348E-03
2721.066, 9.3580484E-03
2722.995, 9.5030097E-03
2724.923, 9.7111762E-03
2726.852, 1.0415050E-02
2728.780, 1.0682860E-02
2730.709, 1.0034520E-02
2732.637, 9.1732638E-03
2734.566, 9.3943356E-03
2736.494, 1.0676550E-02
2738.423, 1.0603330E-02
2740.351, 1.0190100E-02
2742.280, 9.8328544E-03
2744.208, 1.0230210E-02
2746.136, 1.0774590E-02
2748.065, 1.0982930E-02
2749.993, 1.1578590E-02
2751.922, 1.1733670E-02
2753.850, 1.0547620E-02
2755.779, 9.8768398E-03
2757.707, 1.0424870E-02
2759.636, 1.0764260E-02
2761.564, 1.0457820E-02
2763.493, 9.7890859E-03
2765.421, 9.1478610E-03
2767.350, 9.5208259E-03
2769.278, 1.0592740E-02
2771.207, 1.0908720E-02
2773.135, 1.0704730E-02
2775.063, 9.9787768E-03
2776.992, 9.3611060E-03
2778.920, 1.0015390E-02
2780.849, 1.0652800E-02
2782.777, 1.0708370E-02
2784.706, 1.0029820E-02
2786.634, 9.3152625E-03
2788.563, 1.0533490E-02
2790.491, 1.0729010E-02
2792.420, 9.7653503E-03
2794.348, 1.0353910E-02
2796.277, 1.1310180E-02
2798.205, 1.1524910E-02
2800.134, 1.0934490E-02
2802.062, 1.0684140E-02
2803.990, 1.1490780E-02
2805.919, 1.1543820E-02
2807.847, 1.0536520E-02
2809.776, 9.7689852E-03
2811.704, 1.0388620E-02
2813.633, 1.0056560E-02
2815.561, 1.0001650E-02
2817.490, 1.0211350E-02
2819.418, 9.5270947E-03
2821.347, 1.0354570E-02
2823.275, 1.1292490E-02
2825.204, 1.0647730E-02
2827.132, 1.0016400E-02
2829.061, 1.0864820E-02
2830.989, 1.1277800E-02
2832.917, 1.1291260E-02
2834.846, 1.1148040E-02
2836.774, 1.0446080E-02
2838.703, 1.0209990E-02
2840.631, 1.0308410E-02
2842.560, 1.0710950E-02
2844.488, 1.0068490E-02
2846.417, 9.0005593E-03
2848.345, 8.6890804E-03
2850.274, 8.7648686E-03
2852.202, 8.3368700E-03
2854.131, 7.7940430E-03
2856.059, 8.7704603E-03
2857.988, 1.0256150E-02
2859.916, 1.0249400E-02
2861.844, 9.6339518E-03
2863.773, 9.9915396E-03
2865.701, 9.1627371E-03
2867.630, 8.0438601E-03
2869.558, 8.1677474E-03
2871.487, 8.8947816E-03
2873.415, 9.1781942E-03
2875.344, 9.5893377E-03
2877.272, 1.0977840E-02
2879.201, 1.1332000E-02
2881.129, 1.0252850E-02
2883.058, 9.7996145E-03
2884.986, 1.0850280E-02
2886.915, 1.0840940E-02
2888.843, 9.9381376E-03
2890.771, 9.3377503E-03
2892.700, 9.0956446E-03
2894.628, 8.7335911E-03
2896.557, 8.5484562E-03
2898.485, 8.9746406E-03
2900.414, 9.5234299E-03
2902.342, 9.0406286E-03
2904.271, 8.7782843E-03
2906.199, 7.7971849E-03
2908.128, 8.1954766E-03
2910.056, 8.7841200E-03
2911.985, 8.4924754E-03
2913.913, 7.4755782E-03
2915.842, 6.9138631E-03
2917.770, 6.2974370E-03
2919.698, 5.0981562E-03
2921.627, 4.9972371E-03
2923.555, 5.4747248E-03
2925.484, 6.4132600E-03
2927.412, 7.3707872E-03
2929.341, 6.8453550E-03
2931.269, 6.6633672E-03
2933.198, 6.6803540E-03
2935.126, 6.6202232E-03
2937.055, 7.8729186E-03
2938.983, 7.8111668E-03
2940.912, 7.6487488E-03
2942.840, 8.2792658E-03
2944.769, 9.6319066E-03
2946.697, 9.8578036E-03
2948.625, 9.7493632E-03
2950.554, 1.0651220E-02
2952.482, 1.1095940E-02
2954.411, 1.0776690E-02
2956.339, 9.9372463E-03
2958.268, 1.0138930E-02
2960.196, 1.0990480E-02
2962.125, 1.0713180E-02
2964.053, 1.0147970E-02
2965.982, 1.0553420E-02
2967.910, 1.1437050E-02
2969.839, 1.1178440E-02
2971.767, 1.1061250E-02
2973.696, 1.0148020E-02
2975.624, 9.2433756E-03
2977.552, 8.5755382E-03
2979.481, 8.4274616E-03
2981.409, 9.9803014E-03
2983.338, 1.1185480E-02
2985.266, 1.1091550E-02
2987.195, 1.1480410E-02
2989.123, 1.0975220E-02
2991.052, 9.8459022E-03
2992.980, 9.9885538E-03
2994.909, 1.1507450E-02
2996.837, 1.1251120E-02
2998.766, 1.1165450E-02
3000.694, 1.1277530E-02
3002.623, 1.1442040E-02
3004.551, 1.1624250E-02
3006.479, 1.2126310E-02
3008.408, 1.2291850E-02
3010.336, 1.1511180E-02
3012.265, 1.1908790E-02
3014.193, 1.3421710E-02
3016.122, 1.3701120E-02
3018.050, 1.1548650E-02
3019.979, 1.1214760E-02
3021.907, 1.1886090E-02
3023.836, 1.1669440E-02
3025.764, 1.1984620E-02
3027.693, 1.1512170E-02
3029.621, 1.2718030E-02
3031.550, 1.3089980E-02
3033.478, 1.1671670E-02
3035.406, 1.1877990E-02
3037.335, 1.2948070E-02
3039.263, 1.2940230E-02
3041.192, 1.1836570E-02
3043.120, 1.1695750E-02
3045.049, 1.1896890E-02
3046.977, 1.0387110E-02
3048.906, 9.4499541E-03
3050.834, 1.0277590E-02
3052.763, 1.0440680E-02
3054.691, 1.1287010E-02
3056.620, 1.2097130E-02
3058.548, 1.2756690E-02
3060.477, 1.2971360E-02
3062.405, 1.3181090E-02
3064.333, 1.3585990E-02
3066.262, 1.2541770E-02
3068.190, 1.2265320E-02
3070.119, 1.3467880E-02
3072.047, 1.2659770E-02
3073.976, 1.1767790E-02
3075.904, 1.2107530E-02
3077.833, 1.1343930E-02
3079.761, 1.0387900E-02
3081.690, 1.1708530E-02
3083.618, 1.1022260E-02
3085.547, 1.0076820E-02
3087.475, 1.0058380E-02
3089.404, 1.1061420E-02
3091.332, 1.1703520E-02
3093.260, 1.1918960E-02
3095.189, 1.1410170E-02
3097.117, 1.2043680E-02
3099.046, 1.1623140E-02
3100.974, 1.0478710E-02
3102.903, 1.1093890E-02
3104.831, 1.1816690E-02
3106.760, 1.2450260E-02
3108.688, 1.3037260E-02
3110.617, 1.4010400E-02
3112.545, 1.4042010E-02
3114.474, 1.4049670E-02
3116.402, 1.2645230E-02
3118.331, 1.1693070E-02
3120.259, 1.1708120E-02
3122.188, 1.1579500E-02
3124.116, 1.3353040E-02
3126.044, 1.4065760E-02
3127.973, 1.4121450E-02
3129.901, 1.3098480E-02
3131.830, 1.2428510E-02
3133.758, 1.1811250E-02
3135.687, 1.1283600E-02
3137.615, 1.2039840E-02
3139.544, 1.2791000E-02
3141.472, 1.3219100E-02
3143.401, 1.3478910E-02
3145.329, 1.2651420E-02
3147.258, 1.1302840E-02
3149.186, 1.2634390E-02
3151.115, 1.4814110E-02
3153.043, 1.4867960E-02
3154.971, 1.4333760E-02
3156.900, 1.4352670E-02
3158.828, 1.3978510E-02
3160.757, 1.3793550E-02
3162.685, 1.4212200E-02
3164.614, 1.4331800E-02
3166.542, 1.3367400E-02
3168.471, 1.3125380E-02
3170.399, 1.3765280E-02
3172.328, 1.4335820E-02
3174.256, 1.2752060E-02
3176.185, 1.1531950E-02
3178.113, 1.3553310E-02
3180.042, 1.4165740E-02
3181.970, 1.2942140E-02
3183.898, 1.2283110E-02
3185.827, 1.2742610E-02
3187.755, 1.3978800E-02
3189.684, 1.4335020E-02
3191.612, 1.3426460E-02
3193.541, 1.4528020E-02
3195.469, 1.5727829E-02
3197.398, 1.3513590E-02
3199.326, 1.2813620E-02
3201.255, 1.2973900E-02
3203.183, 1.3030250E-02
3205.112, 1.3534610E-02
3207.040, 1.5446060E-02
3208.969, 1.6775250E-02
3210.897, 1.6035451E-02
3212.825, 1.4318880E-02
3214.754, 1.3437340E-02
3216.682, 1.3987550E-02
3218.611, 1.3234460E-02
3220.539, 1.2779150E-02
3222.468, 1.2425980E-02
3224.396, 1.3615290E-02
3226.325, 1.4424730E-02
3228.253, 1.3777730E-02
3230.182, 1.5305820E-02
3232.110, 1.6537290E-02
3234.039, 1.5287370E-02
3235.967, 1.3321420E-02
3237.896, 1.2568600E-02
3239.824, 1.3888470E-02
3241.752, 1.4909960E-02
3243.681, 1.5044290E-02
3245.609, 1.4917370E-02
3247.538, 1.3864590E-02
3249.466, 1.4368180E-02
3251.395, 1.6222440E-02
3253.323, 1.5179550E-02
3255.252, 1.2506580E-02
3257.180, 1.2455850E-02
3259.109, 1.3678240E-02
3261.037, 1.4137200E-02
3262.966, 1.5154930E-02
3264.894, 1.4455960E-02
3266.823, 1.5254030E-02
3268.751, 1.5860690E-02
3270.679, 1.6507121E-02
3272.608, 1.6079530E-02
3274.536, 1.4458650E-02
3276.465, 1.5125900E-02
3278.393, 1.5472770E-02
3280.322, 1.3372560E-02
3282.250, 1.2409640E-02
3284.179, 1.3393450E-02
3286.107, 1.5431350E-02
3288.036, 1.5351650E-02
3289.964, 1.5418720E-02
3291.893, 1.6806420E-02
3293.821, 1.7230980E-02
3295.750, 1.4860580E-02
3297.678, 1.3805140E-02
3299.606, 1.5111960E-02
3301.535, 1.4558520E-02
3303.463, 1.4056600E-02
3305.392, 1.3568410E-02
3307.320, 1.3702550E-02
3309.249, 1.3668370E-02
3311.177, 1.5064730E-02
3313.106, 1.6802430E-02
3315.034, 1.6141361E-02
3316.963, 1.6012490E-02
3318.891, 1.6536631E-02
3320.820, 1.5527510E-02
3322.748, 1.5524290E-02
3324.677, 1.5837651E-02
3326.605, 1.6192339E-02
3328.533, 1.4940760E-02
3330.462, 1.4451880E-02
3332.390, 1.5949421E-02
3334.319, 1.5257210E-02
3336.247, 1.4435900E-02
3338.176, 1.5673850E-02
3340.104, 1.7020641E-02
3342.033, 1.5395800E-02
3343.961, 1.3945080E-02
3345.890, 1.4315500E-02
3347.818, 1.4474430E-02
3349.747, 1.4420100E-02
3351.675, 1.3734520E-02
3353.604, 1.5481670E-02
3355.532, 1.6266139E-02
3357.460, 1.6527500E-02
3359.389, 1.7320409E-02
3361.317, 1.5842849E-02
3363.246, 1.3877780E-02
3365.174, 1.4843430E-02
3367.103, 1.5449730E-02
3369.031, 1.6161021E-02
3370.960, 1.6852330E-02
3372.888, 1.5774820E-02
3374.817, 1.4679700E-02
3376.745, 1.4117610E-02
3378.674, 1.5666651E-02
3380.602, 1.7890170E-02
3382.531, 1.7740989E-02
3384.459, 1.6136950E-02
3386.387, 1.5128460E-02
3388.316, 1.6738430E-02
3390.244, 1.6845901E-02
3392.173, 1.4874980E-02
3394.101, 1.5636690E-02
3396.030, 1.6607881E-02
3397.958, 1.5740830E-02
3399.887, 1.4541290E-02
3401.815, 1.6548740E-02
3403.744, 1.8243490E-02
3405.672, 1.5924839E-02
3407.601, 1.4108110E-02
3409.529, 1.3371510E-02
3411.458, 1.2554300E-02
3413.386, 1.2778130E-02
3415.314, 1.3363710E-02
3417.243, 1.4974500E-02
3419.171, 1.5810810E-02
3421.100, 1.5843561E-02
3423.028, 1.5858110E-02
3424.957, 1.5626419E-02
3426.885, 1.6205730E-02
3428.814, 1.4459650E-02
3430.742, 1.3998160E-02
3432.671, 1.6271610E-02
3434.599, 1.6651260E-02
3436.528, 1.6336059E-02
3438.456, 1.4955260E-02
3440.385, 1.3744220E-02
3442.313, 1.4172490E-02
3444.241, 1.5599550E-02
3446.170, 1.5622130E-02
3448.098, 1.5457250E-02
3450.027, 1.5323600E-02
3451.955, 1.4480550E-02
3453.884, 1.3452960E-02
3455.812, 1.3255760E-02
3457.741, 1.5052320E-02
3459.669, 1.4071760E-02
3461.598, 1.3799330E-02
3463.526, 1.5942270E-02
3465.455, 1.6799809E-02
3467.383, 1.7643310E-02
3469.312, 1.6005140E-02
3471.240, 1.5239470E-02
3473.168, 1.4837280E-02
3475.097, 1.3787960E-02
3477.025, 1.3271110E-02
3478.954, 1.5167840E-02
3480.882, 1.6086970E-02
3482.811, 1.5261010E-02
3484.739, 1.5616720E-02
3486.668, 1.5418890E-02
3488.596, 1.3705390E-02
3490.525, 1.3118810E-02
3492.453, 1.4151140E-02
3494.382, 1.4890950E-02
3496.310, 1.6103350E-02
3498.239, 1.8787760E-02
3500.167, 1.7258139E-02
3502.095, 1.5277530E-02
3504.024, 1.6031990E-02
3505.952, 1.5506990E-02
3507.881, 1.3258960E-02
3509.809, 1.5271000E-02
3511.738, 1.6957819E-02
3513.666, 1.4580620E-02
3515.595, 1.6713560E-02
3517.523, 1.6870029E-02
3519.452, 1.6870789E-02
3521.380, 1.9624060E-02
3523.309, 1.7409559E-02
3525.237, 1.6541300E-02
3527.166, 1.6282439E-02
3529.094, 1.4361330E-02
3531.022, 1.4659370E-02
3532.951, 1.7412679E-02
3534.879, 1.9087590E-02
3536.808, 1.7439870E-02
3538.736, 1.3959160E-02
3540.665, 1.4582860E-02
3542.593, 1.6006101E-02
3544.522, 1.5960701E-02
3546.450, 1.6703090E-02
3548.379, 1.5240630E-02
3550.307, 1.4432460E-02
3552.236, 1.6871929E-02
3554.164, 1.8281979E-02
3556.093, 1.5384430E-02
3558.021, 1.6455621E-02
3559.949, 1.9780090E-02
3561.878, 1.8822011E-02
3563.806, 1.6876750E-02
3565.735, 1.4114910E-02
3567.663, 1.5423270E-02
3569.592, 1.8984180E-02
3571.520, 1.9614620E-02
3573.449, 1.5897149E-02
3575.377, 1.2150680E-02
3577.306, 1.2839630E-02
3579.234, 1.4202330E-02
3581.163, 1.3037860E-02
3583.091, 1.0610810E-02
3585.020, 1.4412550E-02
3586.948, 1.9692009E-02
3588.876, 1.9674180E-02
3590.805, 1.6691539E-02
3592.733, 1.4502070E-02
3594.662, 1.5459870E-02
3596.590, 1.5777141E-02
3598.519, 1.4061680E-02
3600.447, 1.4214750E-02
3602.376, 1.5368520E-02
3604.304, 1.5868770E-02
3606.233, 1.7154370E-02
3608.161, 1.7972250E-02
3610.090, 1.6301511E-02
3612.018, 1.3000310E-02
3613.947, 1.1297520E-02
3615.875, 1.3982020E-02
3617.803, 1.8891379E-02
3619.732, 1.7054530E-02
3621.660, 1.1941440E-02
3623.589, 1.2776480E-02
3625.517, 1.5218210E-02
3627.446, 1.5600010E-02
3629.374, 1.6500751E-02
3631.303, 1.7147491E-02
3633.231, 1.9588809E-02
3635.160, 2.1238610E-02
3637.088, 1.8429780E-02
3639.017, 1.6254140E-02
3640.945, 1.2965020E-02
3642.874, 1.1955320E-02
3644.802, 1.6314751E-02
3646.730, 1.8277060E-02
3648.659, 1.8592620E-02
3650.587, 1.5072230E-02
3652.516, 1.3853260E-02
3654.444, 1.7872481E-02
3656.373, 1.7520150E-02
3658.301, 1.2831180E-02
3660.230, 1.2453350E-02
3662.158, 1.2185990E-02
3664.087, 1.2410800E-02
3666.015, 1.6212249E-02
3667.944, 1.7641950E-02
3669.872, 1.6849039E-02
3671.801, 1.5925931E-02
3673.729, 1.5750371E-02
3675.657, 1.4671220E-02
3677.586, 1.3040700E-02
3679.514, 1.1685710E-02
3681.443, 1.0819650E-02
3683.371, 1.1912750E-02
3685.300, 1.5583690E-02
3687.228, 1.6573910E-02
3689.157, 1.4459030E-02
3691.085, 1.2521970E-02
3693.014, 1.4536380E-02
3694.942, 1.4985450E-02
3696.871, 1.3116370E-02
3698.799, 1.4420020E-02
3700.728, 1.6064029E-02
3702.656, 1.8003801E-02
3704.584, 1.8875370E-02
3706.513, 1.5763929E-02
3708.441, 1.5415670E-02
3710.370, 1.5835211E-02
3712.298, 1.6629180E-02
3714.227, 1.8742830E-02
3716.155, 1.7713610E-02
3718.084, 1.5516950E-02
3720.012, 1.2074720E-02
3721.941, 1.3665550E-02
3723.869, 1.4210770E-02
3725.798, 1.3017890E-02
3727.726, 1.3254740E-02
3729.655, 1.7004000E-02
3731.583, 1.7452789E-02
3733.511, 1.7418040E-02
3735.440, 1.8111020E-02
3737.368, 1.5792370E-02
3739.297, 1.6158240E-02
3741.225, 1.6694641E-02
3743.154, 1.7143380E-02
3745.082, 1.6695920E-02
3747.011, 1.5211030E-02
3748.939, 1.5706301E-02
3750.868, 1.3971810E-02
3752.796, 1.5209410E-02
3754.725, 1.6997861E-02
3756.653, 1.8684190E-02
3758.582, 1.6076310E-02
3760.510, 1.6249910E-02
3762.438, 1.7485460E-02
3764.367, 1.6695580E-02
3766.295, 1.9200020E-02
3768.224, 2.1315370E-02
3770.152, 1.9417631E-02
3772.081, 1.3561530E-02
3774.009, 1.2555660E-02
3775.938, 1.5550610E-02
3777.866, 2.0539980E-02
3779.795, 2.1015700E-02
3781.723, 1.7286720E-02
3783.652, 1.7963471E-02
3785.580, 1.7799539E-02
3787.509, 1.7199920E-02
3789.437, 1.7464099E-02
3791.365, 1.8304929E-02
3793.294, 1.7374160E-02
3795.222, 1.6912470E-02
3797.151, 1.5264470E-02
3799.079, 1.4338670E-02
3801.008, 1.6985200E-02
3802.936, 1.7852111E-02
3804.865, 1.5126130E-02
3806.793, 1.3162420E-02
3808.722, 1.2568780E-02
3810.650, 1.2030960E-02
3812.579, 1.2958070E-02
3814.507, 1.5407590E-02
3816.436, 1.5432230E-02
3818.364, 1.6581820E-02
3820.292, 2.0000869E-02
3822.221, 2.3447610E-02
3824.149, 2.0285660E-02
3826.078, 1.9008709E-02
3828.006, 1.9318661E-02
3829.935, 1.8562879E-02
3831.863, 1.6604921E-02
3833.792, 1.6768020E-02
3835.720, 1.7953720E-02
3837.649, 1.6357610E-02
3839.577, 1.7822860E-02
3841.506, 2.3439920E-02
3843.434, 2.1883890E-02
3845.363, 1.6674610E-02
3847.291, 1.7026400E-02
3849.219, 1.6394950E-02
3851.148, 1.6070349E-02
3853.076, 1.6698780E-02
3855.005, 1.5060060E-02
3856.933, 1.3154420E-02
3858.862, 1.2322020E-02
3860.790, 1.0070650E-02
3862.719, 7.2048912E-03
3864.647, 9.4982730E-03
3866.576, 1.4040520E-02
3868.504, 1.5354550E-02
3870.433, 1.4082070E-02
3872.361, 1.6866069E-02
3874.290, 1.7851001E-02
3876.218, 1.7214229E-02
3878.146, 1.8606329E-02
3880.075, 1.9539289E-02
3882.003, 1.9006070E-02
3883.932, 1.7334560E-02
3885.860, 1.7240930E-02
3887.789, 1.7500540E-02
3889.717, 1.5849410E-02
3891.646, 1.5404370E-02
3893.574, 1.6761320E-02
3895.503, 1.6263770E-02
3897.431, 1.5030230E-02
3899.360, 1.5561900E-02
3901.288, 1.4910000E-02
3903.217, 1.6488850E-02
3905.145, 1.5952110E-02
3907.073, 1.4549750E-02
3909.002, 1.4757470E-02
3910.930, 1.7078171E-02
3912.859, 1.6590590E-02
3914.787, 1.7002391E-02
3916.716, 2.0779179E-02
3918.644, 2.0515921E-02
3920.573, 1.7962251E-02
3922.501, 1.6332660E-02
3924.430, 1.8108839E-02
3926.358, 1.7558491E-02
3928.287, 1.4600520E-02
3930.215, 1.3537450E-02
3932.144, 1.4472550E-02
3934.072, 1.6995030E-02
3936.000, 1.8263459E-02
3937.929, 1.7121080E-02
3939.857, 1.4876990E-02
3941.786, 1.9223740E-02
3943.714, 2.3019901E-02
3945.643, 2.2870040E-02
3947.571, 2.1596560E-02
3949.500, 1.9789349E-02
3951.428, 1.8715810E-02
3953.357, 1.8776201E-02
3955.285, 2.0998791E-02
3957.214, 2.0524900E-02
3959.142, 2.0389540E-02
3961.071, 1.9602910E-02
3962.999, 1.7315760E-02
3964.927, 1.5024260E-02
3966.856, 1.6927321E-02
3968.784, 1.6550740E-02
3970.713, 1.5973870E-02
3972.641, 1.5617250E-02
3974.570, 1.4289530E-02
3976.498, 1.2331360E-02
3978.427, 1.5137250E-02
3980.355, 1.7656591E-02
3982.284, 1.3164530E-02
3984.212, 1.4564210E-02
3986.141, 1.9160921E-02
3988.069, 1.6492151E-02
3989.998, 1.2296930E-02
3991.926, 1.5154720E-02
3993.854, 1.5472980E-02
3995.783, 1.5439170E-02
3997.711, 1.7104600E-02
3999.640, 1.7112849E-02
##END=



