##NAMES=Danburite
##RRUFFID=R040013
##IDEAL CHEMISTRY=CaB_2_Si_2_O_8_
##LOCALITY=Charcas, San Luis Potosi, Mexico
##OWNER=RRUFF
##SOURCE=Marcus Origlieri
##DESCRIPTION=Colorless prismatic single crystal
##STATUS=The identification of this mineral has been confirmed by X-ray diffraction and chemical analysis
##URL=rruff.info/R040013
##MEASURED CHEMISTRY=Ca_1.00_B_2.00_Si_2.00_O_8_
3.991926e+002, 0.000000e+000
4.011211e+002, 1.096553e-001
4.030496e+002, 1.101717e-001
4.049780e+002, 1.253651e-001
4.069065e+002, 1.447886e-001
4.088350e+002, 1.604058e-001
4.107634e+002, 1.725404e-001
4.126919e+002, 1.753282e-001
4.146204e+002, 1.706901e-001
4.165488e+002, 1.636235e-001
4.184773e+002, 1.618041e-001
4.204058e+002, 1.561063e-001
4.223342e+002, 1.456575e-001
4.242627e+002, 1.359796e-001
4.261912e+002, 1.271522e-001
4.281196e+002, 1.165878e-001
4.300481e+002, 1.094568e-001
4.319766e+002, 1.050797e-001
4.339050e+002, 1.041446e-001
4.358335e+002, 1.027517e-001
4.377620e+002, 9.717689e-002
4.396904e+002, 8.603895e-002
4.416189e+002, 7.319877e-002
4.435474e+002, 6.177923e-002
4.454758e+002, 5.449771e-002
4.474043e+002, 5.279450e-002
4.493328e+002, 5.832762e-002
4.512612e+002, 6.583798e-002
4.531897e+002, 6.683806e-002
4.551182e+002, 6.373601e-002
4.570466e+002, 5.981476e-002
4.589751e+002, 5.548071e-002
4.609036e+002, 5.435259e-002
4.628320e+002, 5.680375e-002
4.647605e+002, 6.202178e-002
4.666890e+002, 7.053852e-002
4.686174e+002, 8.231037e-002
4.705459e+002, 9.674809e-002
4.724744e+002, 1.132454e-001
4.744028e+002, 1.290314e-001
4.763313e+002, 1.384159e-001
4.782598e+002, 1.360453e-001
4.801882e+002, 1.239718e-001
4.821167e+002, 1.094468e-001
4.840452e+002, 9.883427e-002
4.859736e+002, 9.244039e-002
4.879021e+002, 8.364787e-002
4.898306e+002, 6.608683e-002
4.917590e+002, 4.713880e-002
4.936875e+002, 3.637519e-002
4.956160e+002, 3.303894e-002
4.975444e+002, 3.320390e-002
4.994729e+002, 3.504045e-002
5.014014e+002, 3.734228e-002
5.033298e+002, 4.016834e-002
5.052583e+002, 4.370653e-002
5.071868e+002, 4.802577e-002
5.091152e+002, 5.318551e-002
5.110437e+002, 5.933582e-002
5.129722e+002, 6.665681e-002
5.149006e+002, 7.554748e-002
5.168291e+002, 8.513615e-002
5.187576e+002, 9.546618e-002
5.206860e+002, 1.067798e-001
5.226145e+002, 1.144673e-001
5.245430e+002, 1.130472e-001
5.264714e+002, 1.007830e-001
5.283999e+002, 8.311494e-002
5.303284e+002, 6.708865e-002
5.322568e+002, 5.604232e-002
5.341853e+002, 4.947590e-002
5.361138e+002, 4.572352e-002
5.380422e+002, 4.391378e-002
5.399707e+002, 4.373372e-002
5.418992e+002, 4.470504e-002
5.438276e+002, 4.648534e-002
5.457561e+002, 4.793017e-002
5.476846e+002, 4.942520e-002
5.496130e+002, 5.210903e-002
5.515415e+002, 5.468174e-002
5.534700e+002, 5.747055e-002
5.553984e+002, 6.082240e-002
5.573269e+002, 6.399150e-002
5.592554e+002, 6.687921e-002
5.611838e+002, 6.921506e-002
5.631123e+002, 7.126558e-002
5.650408e+002, 7.412597e-002
5.669692e+002, 7.768362e-002
5.688977e+002, 8.151135e-002
5.708262e+002, 8.560821e-002
5.727546e+002, 8.942507e-002
5.746831e+002, 9.327947e-002
5.766116e+002, 9.727482e-002
5.785400e+002, 1.012537e-001
5.804685e+002, 1.055717e-001
5.823970e+002, 1.106039e-001
5.843254e+002, 1.157172e-001
5.862539e+002, 1.206124e-001
5.881824e+002, 1.261139e-001
5.901108e+002, 1.320175e-001
5.920393e+002, 1.380955e-001
5.939678e+002, 1.441500e-001
5.958962e+002, 1.503943e-001
5.978247e+002, 1.572081e-001
5.997532e+002, 1.640617e-001
6.016816e+002, 1.710654e-001
6.036101e+002, 1.786705e-001
6.055386e+002, 1.872425e-001
6.074670e+002, 1.970172e-001
6.093955e+002, 2.072035e-001
6.113240e+002, 2.165253e-001
6.132524e+002, 2.219125e-001
6.151809e+002, 2.181880e-001
6.171094e+002, 2.039475e-001
6.190378e+002, 1.838740e-001
6.209663e+002, 1.618246e-001
6.228948e+002, 1.390974e-001
6.248232e+002, 1.168320e-001
6.267517e+002, 9.595215e-002
6.286802e+002, 7.908590e-002
6.306086e+002, 6.874230e-002
6.325371e+002, 6.470260e-002
6.344656e+002, 6.446999e-002
6.363940e+002, 6.635843e-002
6.383225e+002, 6.980500e-002
6.402510e+002, 7.461463e-002
6.421794e+002, 8.095107e-002
6.441079e+002, 8.813933e-002
6.460364e+002, 9.662294e-002
6.479648e+002, 1.056451e-001
6.498933e+002, 1.146982e-001
6.518218e+002, 1.229269e-001
6.537502e+002, 1.289902e-001
6.556787e+002, 1.319357e-001
6.576072e+002, 1.306382e-001
6.595356e+002, 1.254486e-001
6.614641e+002, 1.176982e-001
6.633926e+002, 1.084622e-001
6.653210e+002, 9.818254e-002
6.672495e+002, 8.736928e-002
6.691780e+002, 7.742763e-002
6.711064e+002, 7.029112e-002
6.730349e+002, 6.632807e-002
6.749634e+002, 6.519549e-002
6.768918e+002, 6.618588e-002
6.788203e+002, 6.856394e-002
6.807488e+002, 7.179238e-002
6.826772e+002, 7.616564e-002
6.846057e+002, 8.209343e-002
6.865342e+002, 8.935058e-002
6.884626e+002, 9.763353e-002
6.903911e+002, 1.067599e-001
6.923196e+002, 1.165548e-001
6.942480e+002, 1.260564e-001
6.961765e+002, 1.329218e-001
6.981050e+002, 1.353105e-001
7.000334e+002, 1.314524e-001
7.019619e+002, 1.185849e-001
7.038904e+002, 9.775452e-002
7.058188e+002, 7.681594e-002
7.077473e+002, 6.231169e-002
7.096758e+002, 5.402314e-002
7.116042e+002, 5.005752e-002
7.135327e+002, 4.888716e-002
7.154612e+002, 4.869479e-002
7.173896e+002, 4.885876e-002
7.193181e+002, 5.005427e-002
7.212466e+002, 5.171837e-002
7.231750e+002, 5.353952e-002
7.251035e+002, 5.552458e-002
7.270320e+002, 5.750726e-002
7.289604e+002, 5.989620e-002
7.308889e+002, 6.239933e-002
7.328174e+002, 6.480438e-002
7.347458e+002, 6.716704e-002
7.366743e+002, 6.979445e-002
7.386028e+002, 7.262135e-002
7.405313e+002, 7.567731e-002
7.424597e+002, 7.942860e-002
7.443882e+002, 8.383005e-002
7.463167e+002, 8.879210e-002
7.482451e+002, 9.361146e-002
7.501736e+002, 9.503228e-002
7.521021e+002, 9.044015e-002
7.540305e+002, 8.390220e-002
7.559590e+002, 8.119819e-002
7.578875e+002, 8.204071e-002
7.598159e+002, 8.422654e-002
7.617444e+002, 8.690051e-002
7.636729e+002, 8.979708e-002
7.656013e+002, 9.262149e-002
7.675298e+002, 9.532206e-002
7.694583e+002, 9.811765e-002
7.713867e+002, 1.006625e-001
7.733152e+002, 1.035046e-001
7.752437e+002, 1.064881e-001
7.771721e+002, 1.090319e-001
7.791006e+002, 1.116430e-001
7.810291e+002, 1.145096e-001
7.829575e+002, 1.174748e-001
7.848860e+002, 1.204500e-001
7.868145e+002, 1.232067e-001
7.887429e+002, 1.258612e-001
7.906714e+002, 1.287080e-001
7.925999e+002, 1.316635e-001
7.945283e+002, 1.350022e-001
7.964568e+002, 1.382548e-001
7.983853e+002, 1.411568e-001
8.003137e+002, 1.443031e-001
8.022422e+002, 1.476175e-001
8.041707e+002, 1.512218e-001
8.060991e+002, 1.554489e-001
8.080276e+002, 1.600166e-001
8.099561e+002, 1.648468e-001
8.118845e+002, 1.696261e-001
8.138130e+002, 1.735916e-001
8.157415e+002, 1.740320e-001
8.176699e+002, 1.681201e-001
8.195984e+002, 1.584263e-001
8.215269e+002, 1.529001e-001
8.234553e+002, 1.540864e-001
8.253838e+002, 1.588309e-001
8.273123e+002, 1.641248e-001
8.292407e+002, 1.692447e-001
8.311692e+002, 1.741512e-001
8.330977e+002, 1.786204e-001
8.350261e+002, 1.830196e-001
8.369546e+002, 1.871496e-001
8.388831e+002, 1.912488e-001
8.408115e+002, 1.957070e-001
8.427400e+002, 1.998031e-001
8.446685e+002, 2.035473e-001
8.465969e+002, 2.073918e-001
8.485254e+002, 2.115083e-001
8.504539e+002, 2.156920e-001
8.523823e+002, 2.197197e-001
8.543108e+002, 2.238150e-001
8.562393e+002, 2.283750e-001
8.581677e+002, 2.327015e-001
8.600962e+002, 2.360959e-001
8.620247e+002, 2.390832e-001
8.639531e+002, 2.414595e-001
8.658816e+002, 2.428057e-001
8.678101e+002, 2.427140e-001
8.697385e+002, 2.414638e-001
8.716670e+002, 2.387654e-001
8.735955e+002, 2.348478e-001
8.755239e+002, 2.303329e-001
8.774524e+002, 2.251431e-001
8.793809e+002, 2.196900e-001
8.813093e+002, 2.139472e-001
8.832378e+002, 2.077664e-001
8.851663e+002, 2.014915e-001
8.870947e+002, 1.955545e-001
8.890232e+002, 1.906904e-001
8.909517e+002, 1.875823e-001
8.928801e+002, 1.866043e-001
8.948085e+002, 1.881335e-001
8.967370e+002, 1.916191e-001
8.986655e+002, 1.967720e-001
9.005939e+002, 2.031492e-001
9.025224e+002, 2.101153e-001
9.044509e+002, 2.171910e-001
9.063793e+002, 2.238873e-001
9.083078e+002, 2.299322e-001
9.102363e+002, 2.356639e-001
9.121647e+002, 2.408521e-001
9.140932e+002, 2.455722e-001
9.160217e+002, 2.495136e-001
9.179501e+002, 2.526143e-001
9.198786e+002, 2.552699e-001
9.218071e+002, 2.574588e-001
9.237355e+002, 2.591369e-001
9.256640e+002, 2.603845e-001
9.275925e+002, 2.613004e-001
9.295209e+002, 2.614504e-001
9.314494e+002, 2.612707e-001
9.333779e+002, 2.605771e-001
9.353063e+002, 2.592075e-001
9.372348e+002, 2.576531e-001
9.391633e+002, 2.558379e-001
9.410917e+002, 2.537807e-001
9.430202e+002, 2.512499e-001
9.449487e+002, 2.484520e-001
9.468771e+002, 2.449970e-001
9.488056e+002, 2.413594e-001
9.507341e+002, 2.379057e-001
9.526625e+002, 2.349348e-001
9.545910e+002, 2.321541e-001
9.565195e+002, 2.298086e-001
9.584479e+002, 2.284984e-001
9.603764e+002, 2.289062e-001
9.623049e+002, 2.312610e-001
9.642333e+002, 2.341187e-001
9.661618e+002, 2.353789e-001
9.680903e+002, 2.333129e-001
9.700187e+002, 2.274620e-001
9.719472e+002, 2.183799e-001
9.738757e+002, 2.075488e-001
9.758041e+002, 1.966480e-001
9.777326e+002, 1.866296e-001
9.796611e+002, 1.781272e-001
9.815895e+002, 1.719104e-001
9.835180e+002, 1.684526e-001
9.854465e+002, 1.671612e-001
9.873749e+002, 1.671005e-001
9.893034e+002, 1.677985e-001
9.912319e+002, 1.683704e-001
9.931603e+002, 1.685445e-001
9.950888e+002, 1.686558e-001
9.970173e+002, 1.689291e-001
9.989457e+002, 1.693871e-001
1.000874e+003, 1.696731e-001
1.002803e+003, 1.697830e-001
1.004731e+003, 1.696363e-001
1.006660e+003, 1.690792e-001
1.008588e+003, 1.681165e-001
1.010517e+003, 1.667316e-001
1.012445e+003, 1.650660e-001
1.014373e+003, 1.631586e-001
1.016302e+003, 1.610943e-001
1.018230e+003, 1.592430e-001
1.020159e+003, 1.577842e-001
1.022087e+003, 1.563579e-001
1.024016e+003, 1.547219e-001
1.025944e+003, 1.532594e-001
1.027873e+003, 1.520301e-001
1.029801e+003, 1.504299e-001
1.031730e+003, 1.481864e-001
1.033658e+003, 1.451484e-001
1.035587e+003, 1.406046e-001
1.037515e+003, 1.359288e-001
1.039444e+003, 1.330054e-001
1.041372e+003, 1.313894e-001
1.043301e+003, 1.281426e-001
1.045229e+003, 1.212235e-001
1.047157e+003, 1.120495e-001
1.049086e+003, 1.027346e-001
1.051014e+003, 9.456915e-002
1.052943e+003, 8.801011e-002
1.054871e+003, 8.266731e-002
1.056800e+003, 7.854364e-002
1.058728e+003, 7.551346e-002
1.060657e+003, 7.336093e-002
1.062585e+003, 7.207672e-002
1.064514e+003, 7.165946e-002
1.066442e+003, 7.210916e-002
1.068371e+003, 7.387266e-002
1.070299e+003, 7.733122e-002
1.072228e+003, 8.227809e-002
1.074156e+003, 8.892302e-002
1.076084e+003, 9.767403e-002
1.078013e+003, 1.077956e-001
1.079941e+003, 1.186086e-001
1.081870e+003, 1.297061e-001
1.083798e+003, 1.399982e-001
1.085727e+003, 1.489059e-001
1.087655e+003, 1.566302e-001
1.089584e+003, 1.634465e-001
1.091512e+003, 1.690498e-001
1.093441e+003, 1.732780e-001
1.095369e+003, 1.754686e-001
1.097298e+003, 1.753526e-001
1.099226e+003, 1.732098e-001
1.101155e+003, 1.694940e-001
1.103083e+003, 1.650144e-001
1.105011e+003, 1.600619e-001
1.106940e+003, 1.548968e-001
1.108868e+003, 1.501772e-001
1.110797e+003, 1.459638e-001
1.112725e+003, 1.422435e-001
1.114654e+003, 1.391982e-001
1.116582e+003, 1.374099e-001
1.118511e+003, 1.368924e-001
1.120439e+003, 1.372589e-001
1.122368e+003, 1.380742e-001
1.124296e+003, 1.392155e-001
1.126225e+003, 1.408910e-001
1.128153e+003, 1.428064e-001
1.130082e+003, 1.445848e-001
1.132010e+003, 1.456771e-001
1.133938e+003, 1.452348e-001
1.135867e+003, 1.428809e-001
1.137795e+003, 1.388811e-001
1.139724e+003, 1.337109e-001
1.141652e+003, 1.279596e-001
1.143581e+003, 1.221532e-001
1.145509e+003, 1.164341e-001
1.147438e+003, 1.106451e-001
1.149366e+003, 1.055050e-001
1.151295e+003, 1.007794e-001
1.153223e+003, 9.574128e-002
1.155152e+003, 9.098412e-002
1.157080e+003, 8.678304e-002
1.159009e+003, 8.281913e-002
1.160937e+003, 7.882336e-002
1.162865e+003, 7.496396e-002
1.164794e+003, 7.133253e-002
1.166722e+003, 6.788139e-002
1.168651e+003, 6.456441e-002
1.170579e+003, 6.138368e-002
1.172508e+003, 5.837170e-002
1.174436e+003, 5.537466e-002
1.176365e+003, 5.249484e-002
1.178293e+003, 4.956242e-002
1.180222e+003, 4.684809e-002
1.182150e+003, 4.444809e-002
1.184079e+003, 4.190793e-002
1.186007e+003, 3.953987e-002
1.187936e+003, 3.747113e-002
1.189864e+003, 3.538486e-002
1.191792e+003, 3.335247e-002
1.193721e+003, 3.129001e-002
1.195649e+003, 2.920653e-002
1.197578e+003, 2.720747e-002
1.199506e+003, 2.520187e-002
1.201435e+003, 2.337027e-002
1.203363e+003, 2.173960e-002
1.205292e+003, 2.014513e-002
1.207220e+003, 1.862564e-002
1.209149e+003, 1.716978e-002
1.211077e+003, 1.584439e-002
1.213006e+003, 1.468894e-002
1.214934e+003, 1.386926e-002
1.216863e+003, 1.310571e-002
1.218791e+003, 1.244004e-002
1.220719e+003, 1.175154e-002
1.222648e+003, 1.105668e-002
1.224576e+003, 1.068340e-002
1.226505e+003, 1.052051e-002
1.228433e+003, 1.017153e-002
1.230362e+003, 9.778409e-003
1.232290e+003, 9.377444e-003
1.234219e+003, 8.941508e-003
1.236147e+003, 8.637803e-003
1.238076e+003, 8.283135e-003
1.240004e+003, 7.827459e-003
1.241933e+003, 7.650096e-003
1.243861e+003, 7.637379e-003
1.245790e+003, 7.434141e-003
1.247718e+003, 7.152946e-003
1.249646e+003, 6.830950e-003
1.251575e+003, 6.756114e-003
1.253503e+003, 6.676873e-003
1.255432e+003, 6.490639e-003
1.257360e+003, 6.486696e-003
1.259289e+003, 6.333339e-003
1.261217e+003, 6.089550e-003
1.263146e+003, 5.928684e-003
1.265074e+003, 5.829350e-003
1.267003e+003, 5.851302e-003
1.268931e+003, 5.773461e-003
1.270860e+003, 5.679976e-003
1.272788e+003, 5.538957e-003
1.274717e+003, 5.495180e-003
1.276645e+003, 5.566552e-003
1.278573e+003, 5.646863e-003
1.280502e+003, 5.589795e-003
1.282430e+003, 5.435741e-003
1.284359e+003, 5.339798e-003
1.286287e+003, 5.333312e-003
1.288216e+003, 5.260588e-003
1.290144e+003, 5.280795e-003
1.292073e+003, 5.328112e-003
1.294001e+003, 5.270738e-003
1.295930e+003, 5.229462e-003
1.297858e+003, 5.103019e-003
1.299787e+003, 5.180327e-003
1.301715e+003, 5.251404e-003
1.303644e+003, 5.128090e-003
1.305572e+003, 5.116787e-003
1.307500e+003, 5.158146e-003
1.309429e+003, 5.051273e-003
1.311357e+003, 4.970436e-003
1.313286e+003, 5.045665e-003
1.315214e+003, 4.988337e-003
1.317143e+003, 5.012309e-003
1.319071e+003, 4.973531e-003
1.321000e+003, 4.962347e-003
1.322928e+003, 5.112848e-003
1.324857e+003, 5.129788e-003
1.326785e+003, 5.048212e-003
1.328714e+003, 4.877367e-003
1.330642e+003, 5.020145e-003
1.332571e+003, 5.101953e-003
1.334499e+003, 4.970829e-003
1.336427e+003, 4.845196e-003
1.338356e+003, 4.783757e-003
1.340284e+003, 4.815448e-003
1.342213e+003, 4.869039e-003
1.344141e+003, 4.898127e-003
1.346070e+003, 4.966782e-003
1.347998e+003, 4.985142e-003
1.349927e+003, 4.914077e-003
1.351855e+003, 4.898721e-003
1.353784e+003, 4.778365e-003
1.355712e+003, 4.720933e-003
1.357641e+003, 4.793100e-003
1.359569e+003, 4.859407e-003
1.361498e+003, 4.976138e-003
1.363426e+003, 5.128535e-003
1.365354e+003, 4.975274e-003
1.367283e+003, 4.849183e-003
1.369211e+003, 5.001338e-003
1.371140e+003, 5.015858e-003
1.373068e+003, 5.092165e-003
1.374997e+003, 5.079713e-003
1.376925e+003, 5.139772e-003
1.378854e+003, 5.025792e-003
1.380782e+003, 4.843705e-003
1.382711e+003, 4.905941e-003
1.384639e+003, 5.096236e-003
1.386568e+003, 5.203394e-003
1.388496e+003, 5.250338e-003
1.390424e+003, 5.206994e-003
1.392353e+003, 5.033776e-003
1.394281e+003, 4.915185e-003
1.396210e+003, 4.954926e-003
1.398138e+003, 5.020397e-003
1.400067e+003, 4.776740e-003
1.401995e+003, 4.751942e-003
1.403924e+003, 4.837598e-003
1.405852e+003, 4.941792e-003
1.407781e+003, 5.123874e-003
1.409709e+003, 5.326546e-003
1.411638e+003, 5.364012e-003
1.413566e+003, 5.181044e-003
1.415495e+003, 5.076041e-003
1.417423e+003, 5.044574e-003
1.419351e+003, 5.048782e-003
1.421280e+003, 5.286129e-003
1.423208e+003, 5.330037e-003
1.425137e+003, 5.123175e-003
1.427065e+003, 5.123393e-003
1.428994e+003, 5.150186e-003
1.430922e+003, 5.119103e-003
1.432851e+003, 5.145875e-003
1.434779e+003, 5.169825e-003
1.436708e+003, 4.932496e-003
1.438636e+003, 5.091999e-003
1.440565e+003, 5.291933e-003
1.442493e+003, 5.206469e-003
1.444422e+003, 4.989096e-003
1.446350e+003, 4.896296e-003
1.448278e+003, 4.874800e-003
1.450207e+003, 4.917143e-003
1.452135e+003, 4.819938e-003
1.454064e+003, 4.741701e-003
1.455992e+003, 4.625485e-003
1.457921e+003, 4.376765e-003
1.459849e+003, 4.654283e-003
1.461778e+003, 4.682125e-003
1.463706e+003, 4.738097e-003
1.465635e+003, 4.545427e-003
1.467563e+003, 4.817916e-003
1.469492e+003, 4.907121e-003
1.471420e+003, 4.885386e-003
1.473349e+003, 4.778949e-003
1.475277e+003, 4.742524e-003
1.477205e+003, 4.453495e-003
1.479134e+003, 4.583031e-003
1.481062e+003, 4.727026e-003
1.482991e+003, 4.791350e-003
1.484919e+003, 4.731906e-003
1.486848e+003, 4.455257e-003
1.488776e+003, 4.294735e-003
1.490705e+003, 4.211802e-003
1.492633e+003, 4.351022e-003
1.494562e+003, 4.363422e-003
1.496490e+003, 4.319542e-003
1.498419e+003, 4.510228e-003
1.500347e+003, 4.440931e-003
1.502276e+003, 4.532767e-003
1.504204e+003, 4.457145e-003
1.506132e+003, 3.951282e-003
1.508061e+003, 3.814322e-003
1.509989e+003, 4.130914e-003
1.511918e+003, 4.307491e-003
1.513846e+003, 4.442967e-003
1.515775e+003, 4.462023e-003
1.517703e+003, 4.317769e-003
1.519632e+003, 4.500474e-003
1.521560e+003, 4.127487e-003
1.523489e+003, 4.278965e-003
1.525417e+003, 4.381931e-003
1.527346e+003, 4.484035e-003
1.529274e+003, 4.667446e-003
1.531203e+003, 4.711274e-003
1.533131e+003, 4.510421e-003
1.535059e+003, 4.594786e-003
1.536988e+003, 4.917749e-003
1.538916e+003, 4.709845e-003
1.540845e+003, 4.618000e-003
1.542773e+003, 4.861930e-003
1.544702e+003, 5.072120e-003
1.546630e+003, 4.767419e-003
1.548559e+003, 4.815234e-003
1.550487e+003, 5.071626e-003
1.552416e+003, 5.245721e-003
1.554344e+003, 5.157816e-003
1.556273e+003, 5.219896e-003
1.558201e+003, 5.043782e-003
1.560130e+003, 4.919109e-003
1.562058e+003, 5.217717e-003
1.563986e+003, 5.441746e-003
1.565915e+003, 5.633108e-003
1.567843e+003, 5.885832e-003
1.569772e+003, 5.746577e-003
1.571700e+003, 6.193306e-003
1.573629e+003, 6.399165e-003
1.575557e+003, 6.171375e-003
1.577486e+003, 6.017088e-003
1.579414e+003, 6.680854e-003
1.581343e+003, 6.770270e-003
1.583271e+003, 6.651243e-003
1.585200e+003, 6.797389e-003
1.587128e+003, 7.131950e-003
1.589057e+003, 7.243308e-003
1.590985e+003, 7.317528e-003
1.592913e+003, 7.309053e-003
1.594842e+003, 7.405839e-003
1.596770e+003, 7.551132e-003
1.598699e+003, 7.525993e-003
1.600627e+003, 7.340923e-003
1.602556e+003, 7.331148e-003
1.604484e+003, 7.504638e-003
1.606413e+003, 7.607905e-003
1.608341e+003, 7.742622e-003
1.610270e+003, 8.073027e-003
1.612198e+003, 8.273931e-003
1.614127e+003, 8.308357e-003
1.616055e+003, 8.319827e-003
1.617984e+003, 8.023743e-003
1.619912e+003, 8.437007e-003
1.621840e+003, 8.624553e-003
1.623769e+003, 8.634268e-003
1.625697e+003, 8.650227e-003
1.627626e+003, 8.362888e-003
1.629554e+003, 8.132722e-003
1.631483e+003, 8.000560e-003
1.633411e+003, 7.847869e-003
1.635340e+003, 7.658552e-003
1.637268e+003, 7.728262e-003
1.639197e+003, 7.800246e-003
1.641125e+003, 7.714782e-003
1.643054e+003, 7.916092e-003
1.644982e+003, 8.024393e-003
1.646911e+003, 7.504091e-003
1.648839e+003, 7.377724e-003
1.650767e+003, 7.580014e-003
1.652696e+003, 7.271769e-003
1.654624e+003, 7.081100e-003
1.656553e+003, 7.656751e-003
1.658481e+003, 7.555439e-003
1.660410e+003, 7.465167e-003
1.662338e+003, 7.396243e-003
1.664267e+003, 7.301047e-003
1.666195e+003, 7.441869e-003
1.668124e+003, 7.348082e-003
1.670052e+003, 6.924917e-003
1.671981e+003, 7.024258e-003
1.673909e+003, 7.149224e-003
1.675838e+003, 6.817792e-003
1.677766e+003, 7.097479e-003
1.679694e+003, 7.273674e-003
1.681623e+003, 7.311182e-003
1.683551e+003, 7.079748e-003
1.685480e+003, 6.334523e-003
1.687408e+003, 6.733690e-003
1.689337e+003, 6.710177e-003
1.691265e+003, 6.560000e-003
1.693194e+003, 6.514172e-003
1.695122e+003, 6.341107e-003
1.697051e+003, 5.880936e-003
1.698979e+003, 6.199763e-003
1.700908e+003, 5.444132e-003
1.702836e+003, 5.904514e-003
1.704765e+003, 5.731396e-003
1.706693e+003, 5.857020e-003
1.708621e+003, 6.536127e-003
1.710550e+003, 6.435244e-003
1.712478e+003, 5.941471e-003
1.714407e+003, 5.727983e-003
1.716335e+003, 5.838181e-003
1.718264e+003, 5.610037e-003
1.720192e+003, 5.866793e-003
1.722121e+003, 6.085954e-003
1.724049e+003, 6.057191e-003
1.725978e+003, 5.957640e-003
1.727906e+003, 5.467278e-003
1.729835e+003, 5.004671e-003
1.731763e+003, 4.917718e-003
1.733692e+003, 4.979411e-003
1.735620e+003, 4.838562e-003
1.737548e+003, 4.940089e-003
1.739477e+003, 4.781267e-003
1.741405e+003, 4.916185e-003
1.743334e+003, 5.213465e-003
1.745262e+003, 4.965582e-003
1.747191e+003, 4.564434e-003
1.749119e+003, 4.467905e-003
1.751048e+003, 4.588132e-003
1.752976e+003, 4.557652e-003
1.754905e+003, 4.768366e-003
1.756833e+003, 4.657897e-003
1.758762e+003, 4.802897e-003
1.760690e+003, 4.900286e-003
1.762619e+003, 4.637295e-003
1.764547e+003, 4.716112e-003
1.766475e+003, 4.634884e-003
1.768404e+003, 4.572102e-003
1.770332e+003, 4.679682e-003
1.772261e+003, 4.483894e-003
1.774189e+003, 4.473039e-003
1.776118e+003, 4.544370e-003
1.778046e+003, 4.729515e-003
1.779975e+003, 4.810972e-003
1.781903e+003, 4.919212e-003
1.783832e+003, 4.897271e-003
1.785760e+003, 4.775156e-003
1.787689e+003, 4.864588e-003
1.789617e+003, 4.975928e-003
1.791546e+003, 4.828739e-003
1.793474e+003, 4.173445e-003
1.795402e+003, 4.438641e-003
1.797331e+003, 4.641869e-003
1.799259e+003, 4.400015e-003
1.801188e+003, 4.489889e-003
1.803116e+003, 4.802221e-003
1.805045e+003, 4.667257e-003
1.806973e+003, 4.593957e-003
1.808902e+003, 4.576045e-003
1.810830e+003, 4.463894e-003
1.812759e+003, 4.143798e-003
1.814687e+003, 3.784409e-003
1.816616e+003, 3.922724e-003
1.818544e+003, 4.419355e-003
1.820473e+003, 4.525202e-003
1.822401e+003, 4.356763e-003
1.824329e+003, 4.051398e-003
1.826258e+003, 4.079112e-003
1.828186e+003, 4.201104e-003
1.830115e+003, 3.829917e-003
1.832043e+003, 3.883263e-003
1.833972e+003, 4.095092e-003
1.835900e+003, 4.302109e-003
1.837829e+003, 4.307277e-003
1.839757e+003, 4.263173e-003
1.841686e+003, 4.136756e-003
1.843614e+003, 4.010633e-003
1.845543e+003, 4.107904e-003
1.847471e+003, 4.647892e-003
1.849400e+003, 4.315638e-003
1.851328e+003, 3.941248e-003
1.853256e+003, 3.695118e-003
1.855185e+003, 3.794983e-003
1.857113e+003, 4.108740e-003
1.859042e+003, 3.981382e-003
1.860970e+003, 3.733964e-003
1.862899e+003, 3.667574e-003
1.864827e+003, 3.250585e-003
1.866756e+003, 2.977062e-003
1.868684e+003, 3.261401e-003
1.870613e+003, 3.956093e-003
1.872541e+003, 4.030511e-003
1.874470e+003, 3.694474e-003
1.876398e+003, 3.945358e-003
1.878327e+003, 3.746934e-003
1.880255e+003, 3.529686e-003
1.882183e+003, 3.673299e-003
1.884112e+003, 3.046974e-003
1.886040e+003, 3.132800e-003
1.887969e+003, 3.812333e-003
1.889897e+003, 3.201643e-003
1.891826e+003, 3.030402e-003
1.893754e+003, 3.337486e-003
1.895683e+003, 2.740444e-003
1.897611e+003, 2.435763e-003
1.899540e+003, 2.276241e-003
1.901468e+003, 1.861390e-003
1.903397e+003, 2.543866e-003
1.905325e+003, 2.749770e-003
1.907254e+003, 2.510818e-003
1.909182e+003, 2.485066e-003
1.911110e+003, 2.516120e-003
1.913039e+003, 3.119003e-003
1.914967e+003, 3.142126e-003
1.916896e+003, 3.059242e-003
1.918824e+003, 2.724332e-003
1.920753e+003, 2.164229e-003
1.922681e+003, 2.207979e-003
1.924610e+003, 3.093697e-003
1.926538e+003, 2.890823e-003
1.928467e+003, 1.605766e-003
1.930395e+003, 8.067591e-004
1.932324e+003, 1.040797e-003
1.934252e+003, 9.376809e-004
1.936181e+003, 8.567753e-004
1.938109e+003, 1.443722e-003
1.940037e+003, 1.648161e-003
1.941966e+003, 7.836075e-004
1.943894e+003, 8.372458e-004
1.945823e+003, 9.944972e-004
1.947751e+003, 9.189111e-004
1.949680e+003, 9.478645e-004
1.951608e+003, 1.001448e-003
1.953537e+003, 3.655700e-004
1.955465e+003, -4.078590e-004
1.957394e+003, -1.125535e-003
1.959322e+003, -1.379139e-003
1.961251e+003, -3.202416e-005
1.963179e+003, 1.418042e-003
1.965108e+003, 7.843751e-004
1.967036e+003, -2.388506e-004
1.968964e+003, -9.325729e-004
1.970893e+003, -1.723407e-003
1.972821e+003, 4.474836e-004
1.974750e+003, 3.789136e-004
1.976678e+003, -2.426496e-004
1.978607e+003, 1.961391e-003
1.980535e+003, 2.730439e-003
1.982464e+003, 1.102230e-003
1.984392e+003, -4.685002e-004
1.986321e+003, 4.751187e-004
1.988249e+003, 1.452391e-003
1.990178e+003, 6.333024e-004
1.992106e+003, 4.864850e-004
1.994035e+003, 3.037960e-004
1.995963e+003, 4.083399e-004
1.997891e+003, 8.017502e-004
1.999820e+003, -2.321071e-004
2.001748e+003, -1.578057e-003
2.003677e+003, -7.468021e-004
2.005605e+003, 2.116940e-004
2.007534e+003, 6.707835e-004
2.009462e+003, 9.161287e-004
2.011391e+003, 1.127677e-003
2.013319e+003, 5.251469e-004
2.015248e+003, -7.627034e-005
2.017176e+003, 3.434169e-004
2.019105e+003, -1.749447e-004
2.021033e+003, 5.724396e-004
2.022962e+003, -1.930475e-004
2.024890e+003, -3.590736e-003
2.026818e+003, -4.192869e-003
2.028747e+003, -3.104876e-003
2.030675e+003, -1.569164e-003
2.032604e+003, -1.107023e-003
2.034532e+003, -1.227955e-003
2.036461e+003, -5.371520e-004
2.038389e+003, 1.527382e-003
2.040318e+003, 7.074398e-004
2.042246e+003, 8.187247e-005
2.044175e+003, 1.720530e-003
2.046103e+003, 2.245957e-003
2.048032e+003, 5.811772e-004
2.049960e+003, 1.323895e-003
2.051889e+003, 1.680417e-003
2.053817e+003, 1.655800e-003
2.055746e+003, 3.115775e-003
2.057674e+003, 2.880268e-003
2.059603e+003, 2.467116e-003
2.061531e+003, 2.772431e-003
2.063459e+003, 2.002289e-003
2.065388e+003, 1.856562e-003
2.067316e+003, 2.674856e-003
2.069245e+003, 2.846289e-003
2.071173e+003, 3.102831e-003
2.073102e+003, 3.375144e-003
2.075030e+003, 3.663239e-003
2.076959e+003, 2.813329e-003
2.078887e+003, 2.249837e-003
2.080816e+003, 3.508522e-003
2.082744e+003, 4.231783e-003
2.084673e+003, 4.299202e-003
2.086601e+003, 3.541134e-003
2.088530e+003, 2.455042e-003
2.090458e+003, 2.589562e-003
2.092386e+003, 2.720955e-003
2.094315e+003, 2.492400e-003
2.096243e+003, 3.196336e-003
2.098172e+003, 4.091995e-003
2.100100e+003, 4.785510e-003
2.102029e+003, 5.369161e-003
2.103957e+003, 5.164846e-003
2.105886e+003, 4.910883e-003
2.107814e+003, 4.282071e-003
2.109743e+003, 3.950499e-003
2.111671e+003, 4.108901e-003
2.113600e+003, 4.526980e-003
2.115528e+003, 4.365769e-003
2.117457e+003, 4.930022e-003
2.119385e+003, 4.796106e-003
2.121313e+003, 3.996177e-003
2.123242e+003, 3.599593e-003
2.125170e+003, 3.402735e-003
2.127099e+003, 3.051145e-003
2.129027e+003, 2.156958e-003
2.130956e+003, 1.580953e-003
2.132884e+003, 2.001168e-003
2.134813e+003, 3.280353e-003
2.136741e+003, 3.373737e-003
2.138670e+003, 3.161992e-003
2.140598e+003, 2.508703e-003
2.142527e+003, 6.468973e-004
2.144455e+003, -5.178649e-004
2.146384e+003, -8.989350e-004
2.148312e+003, -9.466499e-004
2.150240e+003, -1.992211e-003
2.152169e+003, -3.164144e-003
2.154097e+003, -3.003655e-003
2.156026e+003, -2.810452e-003
2.157954e+003, -1.360305e-003
2.159883e+003, 3.852844e-004
2.161811e+003, 1.163546e-003
2.163740e+003, 3.017528e-004
2.165668e+003, -5.272203e-004
2.167597e+003, -6.140407e-004
2.169525e+003, -1.964119e-003
2.171454e+003, -2.272304e-003
2.173382e+003, -1.196924e-003
2.175311e+003, -7.447050e-004
2.177239e+003, -6.868347e-004
2.179167e+003, -7.508979e-004
2.181096e+003, -4.175532e-004
2.183024e+003, -1.598521e-003
2.184953e+003, -2.218023e-003
2.186881e+003, -7.981504e-004
2.188810e+003, -3.344556e-004
2.190738e+003, 7.885957e-004
2.192667e+003, 2.044276e-004
2.194595e+003, 2.182201e-004
2.196524e+003, 1.246330e-003
2.198452e+003, 1.491484e-003
2.200381e+003, 7.869480e-004
2.202309e+003, 8.550199e-004
2.204238e+003, 9.345593e-004
2.206166e+003, 6.022917e-004
2.208094e+003, 1.130601e-003
2.210023e+003, 7.590700e-004
2.211951e+003, 2.847833e-004
2.213880e+003, 1.038439e-003
2.215808e+003, 2.376392e-003
2.217737e+003, 2.710433e-003
2.219665e+003, 1.878765e-003
2.221594e+003, 1.431242e-003
2.223522e+003, 1.711434e-003
2.225451e+003, 2.393773e-003
2.227379e+003, 3.371358e-003
2.229308e+003, 3.085468e-003
2.231236e+003, 2.000986e-003
2.233165e+003, 2.611202e-003
2.235093e+003, 4.645543e-003
2.237021e+003, 5.024437e-003
2.238950e+003, 3.856402e-003
2.240878e+003, 3.189603e-003
2.242807e+003, 3.106513e-003
2.244735e+003, 3.525522e-003
2.246664e+003, 3.406879e-003
2.248592e+003, 2.987260e-003
2.250521e+003, 3.873225e-003
2.252449e+003, 3.736064e-003
2.254378e+003, 2.842824e-003
2.256306e+003, 3.724784e-003
2.258235e+003, 4.040361e-003
2.260163e+003, 3.365683e-003
2.262092e+003, 2.917500e-003
2.264020e+003, 3.834894e-003
2.265948e+003, 4.864829e-003
2.267877e+003, 4.506130e-003
2.269805e+003, 3.835139e-003
2.271734e+003, 3.503361e-003
2.273662e+003, 4.031539e-003
2.275591e+003, 5.070253e-003
2.277519e+003, 5.114965e-003
2.279448e+003, 4.891545e-003
2.281376e+003, 4.962416e-003
2.283305e+003, 5.104544e-003
2.285233e+003, 5.569711e-003
2.287162e+003, 5.960776e-003
2.289090e+003, 5.913490e-003
2.291019e+003, 6.234912e-003
2.292947e+003, 6.037580e-003
2.294875e+003, 5.850657e-003
2.296804e+003, 6.198968e-003
2.298732e+003, 6.571727e-003
2.300661e+003, 6.855395e-003
2.302589e+003, 7.184352e-003
2.304518e+003, 7.251860e-003
2.306446e+003, 7.551233e-003
2.308375e+003, 7.864567e-003
2.310303e+003, 7.955432e-003
2.312232e+003, 7.962389e-003
2.314160e+003, 8.166798e-003
2.316089e+003, 8.364889e-003
2.318017e+003, 8.150570e-003
2.319946e+003, 8.713986e-003
2.321874e+003, 9.767732e-003
2.323802e+003, 9.715735e-003
2.325731e+003, 8.233329e-003
2.327659e+003, 7.724128e-003
2.329588e+003, 7.963796e-003
2.331516e+003, 8.027215e-003
2.333445e+003, 8.141094e-003
2.335373e+003, 8.130550e-003
2.337302e+003, 8.143746e-003
2.339230e+003, 8.297425e-003
2.341159e+003, 8.616330e-003
2.343087e+003, 8.373919e-003
2.345016e+003, 8.223354e-003
2.346944e+003, 8.292688e-003
2.348873e+003, 8.408665e-003
2.350801e+003, 8.312867e-003
2.352729e+003, 8.188475e-003
2.354658e+003, 8.396268e-003
2.356586e+003, 8.343786e-003
2.358515e+003, 8.378962e-003
2.360443e+003, 8.508808e-003
2.362372e+003, 8.297608e-003
2.364300e+003, 8.342103e-003
2.366229e+003, 8.693030e-003
2.368157e+003, 8.567211e-003
2.370086e+003, 8.236786e-003
2.372014e+003, 8.126731e-003
2.373942e+003, 8.455433e-003
2.375871e+003, 8.955450e-003
2.377799e+003, 8.376786e-003
2.379728e+003, 8.119317e-003
2.381656e+003, 8.931370e-003
2.383585e+003, 9.141089e-003
2.385513e+003, 8.616170e-003
2.387442e+003, 8.379063e-003
2.389370e+003, 8.510358e-003
2.391299e+003, 8.796807e-003
2.393227e+003, 8.853418e-003
2.395156e+003, 9.079027e-003
2.397084e+003, 8.777882e-003
2.399012e+003, 8.334258e-003
2.400941e+003, 9.062043e-003
2.402869e+003, 9.638633e-003
2.404798e+003, 9.054828e-003
2.406726e+003, 9.504549e-003
2.408655e+003, 1.037926e-002
2.410583e+003, 1.058427e-002
2.412512e+003, 1.045382e-002
2.414440e+003, 9.938126e-003
2.416369e+003, 9.643542e-003
2.418297e+003, 1.017626e-002
2.420226e+003, 1.029308e-002
2.422154e+003, 9.718413e-003
2.424083e+003, 1.002297e-002
2.426011e+003, 1.033611e-002
2.427939e+003, 9.998615e-003
2.429868e+003, 1.015768e-002
2.431796e+003, 1.091884e-002
2.433725e+003, 1.094968e-002
2.435653e+003, 1.055564e-002
2.437582e+003, 1.074829e-002
2.439510e+003, 1.189826e-002
2.441439e+003, 1.235641e-002
2.443367e+003, 1.138560e-002
2.445296e+003, 1.079887e-002
2.447224e+003, 1.076514e-002
2.449153e+003, 1.138981e-002
2.451081e+003, 1.174775e-002
2.453010e+003, 1.142241e-002
2.454938e+003, 1.055259e-002
2.456866e+003, 1.056713e-002
2.458795e+003, 1.067478e-002
2.460723e+003, 1.126243e-002
2.462652e+003, 1.166991e-002
2.464580e+003, 1.169134e-002
2.466509e+003, 1.102495e-002
2.468437e+003, 1.102210e-002
2.470366e+003, 1.096057e-002
2.472294e+003, 1.052221e-002
2.474223e+003, 1.077105e-002
2.476151e+003, 1.048607e-002
2.478080e+003, 1.072473e-002
2.480008e+003, 1.129983e-002
2.481937e+003, 1.138722e-002
2.483865e+003, 1.129594e-002
2.485793e+003, 1.137903e-002
2.487722e+003, 1.140700e-002
2.489650e+003, 1.138314e-002
2.491579e+003, 1.188732e-002
2.493507e+003, 1.215953e-002
2.495436e+003, 1.116154e-002
2.497364e+003, 1.037793e-002
2.499293e+003, 1.115810e-002
2.501221e+003, 1.155602e-002
2.503150e+003, 1.094469e-002
2.505078e+003, 1.086790e-002
2.507007e+003, 1.179190e-002
2.508935e+003, 1.227516e-002
2.510864e+003, 1.184215e-002
2.512792e+003, 1.131386e-002
2.514720e+003, 1.076056e-002
2.516649e+003, 1.089041e-002
2.518577e+003, 1.190378e-002
2.520506e+003, 1.188121e-002
2.522434e+003, 1.105109e-002
2.524363e+003, 1.078242e-002
2.526291e+003, 1.053139e-002
2.528220e+003, 1.119315e-002
2.530148e+003, 1.175955e-002
2.532077e+003, 1.102752e-002
2.534005e+003, 1.062419e-002
2.535934e+003, 1.087486e-002
2.537862e+003, 1.096397e-002
2.539791e+003, 1.131544e-002
2.541719e+003, 1.176549e-002
2.543647e+003, 1.198352e-002
2.545576e+003, 1.108177e-002
2.547504e+003, 1.073925e-002
2.549433e+003, 1.138719e-002
2.551361e+003, 1.171480e-002
2.553290e+003, 1.154306e-002
2.555218e+003, 1.193634e-002
2.557147e+003, 1.183572e-002
2.559075e+003, 1.140078e-002
2.561004e+003, 1.158199e-002
2.562932e+003, 1.149294e-002
2.564861e+003, 1.076981e-002
2.566789e+003, 1.173052e-002
2.568718e+003, 1.259640e-002
2.570646e+003, 1.197815e-002
2.572574e+003, 1.162559e-002
2.574503e+003, 1.102448e-002
2.576431e+003, 1.072170e-002
2.578360e+003, 1.096600e-002
2.580288e+003, 1.146745e-002
2.582217e+003, 1.172230e-002
2.584145e+003, 1.208160e-002
2.586074e+003, 1.235783e-002
2.588002e+003, 1.221170e-002
2.589931e+003, 1.257261e-002
2.591859e+003, 1.260368e-002
2.593788e+003, 1.213238e-002
2.595716e+003, 1.193912e-002
2.597645e+003, 1.245052e-002
2.599573e+003, 1.260236e-002
2.601501e+003, 1.225492e-002
2.603430e+003, 1.246817e-002
2.605358e+003, 1.266510e-002
2.607287e+003, 1.221060e-002
2.609215e+003, 1.239065e-002
2.611144e+003, 1.278225e-002
2.613072e+003, 1.273447e-002
2.615001e+003, 1.260391e-002
2.616929e+003, 1.303179e-002
2.618858e+003, 1.322626e-002
2.620786e+003, 1.293937e-002
2.622715e+003, 1.228532e-002
2.624643e+003, 1.271845e-002
2.626572e+003, 1.298794e-002
2.628500e+003, 1.292449e-002
2.630428e+003, 1.286761e-002
2.632357e+003, 1.307237e-002
2.634285e+003, 1.305971e-002
2.636214e+003, 1.320521e-002
2.638142e+003, 1.334839e-002
2.640071e+003, 1.295912e-002
2.641999e+003, 1.254303e-002
2.643928e+003, 1.315294e-002
2.645856e+003, 1.346243e-002
2.647785e+003, 1.314814e-002
2.649713e+003, 1.245007e-002
2.651642e+003, 1.198554e-002
2.653570e+003, 1.219424e-002
2.655499e+003, 1.267595e-002
2.657427e+003, 1.306925e-002
2.659355e+003, 1.328985e-002
2.661284e+003, 1.357013e-002
2.663212e+003, 1.345731e-002
2.665141e+003, 1.293405e-002
2.667069e+003, 1.306844e-002
2.668998e+003, 1.345656e-002
2.670926e+003, 1.311005e-002
2.672855e+003, 1.280737e-002
2.674783e+003, 1.281762e-002
2.676712e+003, 1.303608e-002
2.678640e+003, 1.324842e-002
2.680569e+003, 1.329428e-002
2.682497e+003, 1.363040e-002
2.684426e+003, 1.347375e-002
2.686354e+003, 1.328206e-002
2.688282e+003, 1.329727e-002
2.690211e+003, 1.334950e-002
2.692139e+003, 1.337827e-002
2.694068e+003, 1.391848e-002
2.695996e+003, 1.405172e-002
2.697925e+003, 1.348182e-002
2.699853e+003, 1.320536e-002
2.701782e+003, 1.326195e-002
2.703710e+003, 1.373998e-002
2.705639e+003, 1.428979e-002
2.707567e+003, 1.441570e-002
2.709496e+003, 1.408527e-002
2.711424e+003, 1.372534e-002
2.713353e+003, 1.377593e-002
2.715281e+003, 1.397594e-002
2.717209e+003, 1.419814e-002
2.719138e+003, 1.432593e-002
2.721066e+003, 1.441477e-002
2.722995e+003, 1.478710e-002
2.724923e+003, 1.478527e-002
2.726852e+003, 1.461215e-002
2.728780e+003, 1.461432e-002
2.730709e+003, 1.430841e-002
2.732637e+003, 1.397513e-002
2.734566e+003, 1.439388e-002
2.736494e+003, 1.467568e-002
2.738423e+003, 1.453983e-002
2.740351e+003, 1.447911e-002
2.742280e+003, 1.482840e-002
2.744208e+003, 1.516383e-002
2.746136e+003, 1.519703e-002
2.748065e+003, 1.564230e-002
2.749993e+003, 1.594701e-002
2.751922e+003, 1.599572e-002
2.753850e+003, 1.554051e-002
2.755779e+003, 1.537361e-002
2.757707e+003, 1.593017e-002
2.759636e+003, 1.596388e-002
2.761564e+003, 1.587764e-002
2.763493e+003, 1.572241e-002
2.765421e+003, 1.583500e-002
2.767350e+003, 1.623283e-002
2.769278e+003, 1.588854e-002
2.771207e+003, 1.557777e-002
2.773135e+003, 1.611555e-002
2.775063e+003, 1.633280e-002
2.776992e+003, 1.644721e-002
2.778920e+003, 1.683195e-002
2.780849e+003, 1.702513e-002
2.782777e+003, 1.726416e-002
2.784706e+003, 1.724680e-002
2.786634e+003, 1.703471e-002
2.788563e+003, 1.734433e-002
2.790491e+003, 1.724558e-002
2.792420e+003, 1.699762e-002
2.794348e+003, 1.705309e-002
2.796277e+003, 1.720742e-002
2.798205e+003, 1.775239e-002
2.800134e+003, 1.823437e-002
2.802062e+003, 1.803639e-002
2.803990e+003, 1.711272e-002
2.805919e+003, 1.691463e-002
2.807847e+003, 1.763875e-002
2.809776e+003, 1.781779e-002
2.811704e+003, 1.764454e-002
2.813633e+003, 1.762406e-002
2.815561e+003, 1.748564e-002
2.817490e+003, 1.751320e-002
2.819418e+003, 1.759912e-002
2.821347e+003, 1.734302e-002
2.823275e+003, 1.800005e-002
2.825204e+003, 1.864700e-002
2.827132e+003, 1.892592e-002
2.829061e+003, 1.929205e-002
2.830989e+003, 1.948032e-002
2.832917e+003, 1.915597e-002
2.834846e+003, 1.869210e-002
2.836774e+003, 1.856418e-002
2.838703e+003, 1.916846e-002
2.840631e+003, 1.992873e-002
2.842560e+003, 2.039096e-002
2.844488e+003, 2.055320e-002
2.846417e+003, 1.950512e-002
2.848345e+003, 1.932653e-002
2.850274e+003, 1.933208e-002
2.852202e+003, 1.913688e-002
2.854131e+003, 1.935726e-002
2.856059e+003, 1.948084e-002
2.857988e+003, 1.899999e-002
2.859916e+003, 1.935810e-002
2.861844e+003, 1.965467e-002
2.863773e+003, 1.946247e-002
2.865701e+003, 1.973396e-002
2.867630e+003, 1.952433e-002
2.869558e+003, 1.964767e-002
2.871487e+003, 2.009308e-002
2.873415e+003, 2.056346e-002
2.875344e+003, 2.048488e-002
2.877272e+003, 2.058683e-002
2.879201e+003, 2.107292e-002
2.881129e+003, 2.141936e-002
2.883058e+003, 2.089464e-002
2.884986e+003, 2.042613e-002
2.886915e+003, 2.097419e-002
2.888843e+003, 2.106569e-002
2.890771e+003, 2.156664e-002
2.892700e+003, 2.136116e-002
2.894628e+003, 2.060032e-002
2.896557e+003, 2.070383e-002
2.898485e+003, 2.142494e-002
2.900414e+003, 2.140613e-002
2.902342e+003, 2.079000e-002
2.904271e+003, 2.154050e-002
2.906199e+003, 2.214559e-002
2.908128e+003, 2.204367e-002
2.910056e+003, 2.181206e-002
2.911985e+003, 2.155156e-002
2.913913e+003, 2.194104e-002
2.915842e+003, 2.236387e-002
2.917770e+003, 2.217749e-002
2.919698e+003, 2.259690e-002
2.921627e+003, 2.294755e-002
2.923555e+003, 2.225612e-002
2.925484e+003, 2.160318e-002
2.927412e+003, 2.171305e-002
2.929341e+003, 2.141602e-002
2.931269e+003, 2.117801e-002
2.933198e+003, 2.151563e-002
2.935126e+003, 2.118322e-002
2.937055e+003, 2.126853e-002
2.938983e+003, 2.184511e-002
2.940912e+003, 2.194899e-002
2.942840e+003, 2.186019e-002
2.944769e+003, 2.221261e-002
2.946697e+003, 2.262851e-002
2.948625e+003, 2.227054e-002
2.950554e+003, 2.170291e-002
2.952482e+003, 2.066931e-002
2.954411e+003, 2.043425e-002
2.956339e+003, 2.145635e-002
2.958268e+003, 2.205192e-002
2.960196e+003, 2.186092e-002
2.962125e+003, 2.139052e-002
2.964053e+003, 2.124324e-002
2.965982e+003, 2.075452e-002
2.967910e+003, 2.038701e-002
2.969839e+003, 2.096245e-002
2.971767e+003, 2.180162e-002
2.973696e+003, 2.250950e-002
2.975624e+003, 2.251131e-002
2.977552e+003, 2.234312e-002
2.979481e+003, 2.190351e-002
2.981409e+003, 2.112601e-002
2.983338e+003, 2.090025e-002
2.985266e+003, 2.072218e-002
2.987195e+003, 2.048117e-002
2.989123e+003, 2.066925e-002
2.991052e+003, 2.181695e-002
2.992980e+003, 2.193633e-002
2.994909e+003, 2.145136e-002
2.996837e+003, 2.103138e-002
2.998766e+003, 2.055319e-002
3.000694e+003, 1.994464e-002
3.002623e+003, 2.033507e-002
3.004551e+003, 2.125653e-002
3.006479e+003, 2.129230e-002
3.008408e+003, 2.102933e-002
3.010336e+003, 2.082724e-002
3.012265e+003, 2.058485e-002
3.014193e+003, 2.127823e-002
3.016122e+003, 2.128126e-002
3.018050e+003, 2.057405e-002
3.019979e+003, 2.042572e-002
3.021907e+003, 2.101409e-002
3.023836e+003, 2.147927e-002
3.025764e+003, 2.119541e-002
3.027693e+003, 2.140965e-002
3.029621e+003, 2.138050e-002
3.031550e+003, 2.044409e-002
3.033478e+003, 1.987877e-002
3.035406e+003, 2.037404e-002
3.037335e+003, 2.112430e-002
3.039263e+003, 2.128199e-002
3.041192e+003, 2.052568e-002
3.043120e+003, 1.991026e-002
3.045049e+003, 2.009277e-002
3.046977e+003, 2.063206e-002
3.048906e+003, 2.075415e-002
3.050834e+003, 1.985024e-002
3.052763e+003, 1.953627e-002
3.054691e+003, 1.945851e-002
3.056620e+003, 1.968334e-002
3.058548e+003, 1.965606e-002
3.060477e+003, 1.981631e-002
3.062405e+003, 2.084104e-002
3.064333e+003, 2.106569e-002
3.066262e+003, 2.035862e-002
3.068190e+003, 1.969690e-002
3.070119e+003, 1.953148e-002
3.072047e+003, 1.975282e-002
3.073976e+003, 1.959427e-002
3.075904e+003, 1.911002e-002
3.077833e+003, 1.979714e-002
3.079761e+003, 1.970616e-002
3.081690e+003, 1.891967e-002
3.083618e+003, 1.931929e-002
3.085547e+003, 1.873472e-002
3.087475e+003, 1.854820e-002
3.089404e+003, 1.970792e-002
3.091332e+003, 1.945169e-002
3.093260e+003, 1.917401e-002
3.095189e+003, 2.009048e-002
3.097117e+003, 2.003602e-002
3.099046e+003, 1.999147e-002
3.100974e+003, 2.065868e-002
3.102903e+003, 2.031396e-002
3.104831e+003, 2.001427e-002
3.106760e+003, 1.965521e-002
3.108688e+003, 1.958157e-002
3.110617e+003, 1.934950e-002
3.112545e+003, 1.890179e-002
3.114474e+003, 1.928499e-002
3.116402e+003, 1.940750e-002
3.118331e+003, 1.803031e-002
3.120259e+003, 1.743547e-002
3.122188e+003, 1.883952e-002
3.124116e+003, 1.938230e-002
3.126044e+003, 2.008794e-002
3.127973e+003, 1.976251e-002
3.129901e+003, 1.934646e-002
3.131830e+003, 1.973726e-002
3.133758e+003, 1.947609e-002
3.135687e+003, 2.018923e-002
3.137615e+003, 2.083480e-002
3.139544e+003, 1.901213e-002
3.141472e+003, 1.845998e-002
3.143401e+003, 1.897743e-002
3.145329e+003, 1.896295e-002
3.147258e+003, 1.924067e-002
3.149186e+003, 1.879604e-002
3.151115e+003, 1.848719e-002
3.153043e+003, 1.907352e-002
3.154971e+003, 1.934393e-002
3.156900e+003, 1.924436e-002
3.158828e+003, 1.878338e-002
3.160757e+003, 1.819916e-002
3.162685e+003, 1.800989e-002
3.164614e+003, 1.880546e-002
3.166542e+003, 1.926502e-002
3.168471e+003, 1.930124e-002
3.170399e+003, 1.955094e-002
3.172328e+003, 1.943554e-002
3.174256e+003, 1.968074e-002
3.176185e+003, 1.939659e-002
3.178113e+003, 1.896403e-002
3.180042e+003, 1.896751e-002
3.181970e+003, 1.925997e-002
3.183898e+003, 1.911907e-002
3.185827e+003, 1.875292e-002
3.187755e+003, 1.857612e-002
3.189684e+003, 1.791392e-002
3.191612e+003, 1.792976e-002
3.193541e+003, 1.878619e-002
3.195469e+003, 1.924323e-002
3.197398e+003, 1.881195e-002
3.199326e+003, 1.838306e-002
3.201255e+003, 1.819491e-002
3.203183e+003, 1.879935e-002
3.205112e+003, 1.929745e-002
3.207040e+003, 1.906508e-002
3.208969e+003, 1.872312e-002
3.210897e+003, 1.882522e-002
3.212825e+003, 1.934923e-002
3.214754e+003, 1.952709e-002
3.216682e+003, 1.947717e-002
3.218611e+003, 1.898839e-002
3.220539e+003, 1.812719e-002
3.222468e+003, 1.828484e-002
3.224396e+003, 1.843805e-002
3.226325e+003, 1.797271e-002
3.228253e+003, 1.850415e-002
3.230182e+003, 1.986060e-002
3.232110e+003, 2.043242e-002
3.234039e+003, 1.977362e-002
3.235967e+003, 1.962815e-002
3.237896e+003, 1.930308e-002
3.239824e+003, 1.868467e-002
3.241752e+003, 1.893052e-002
3.243681e+003, 1.793108e-002
3.245609e+003, 1.750251e-002
3.247538e+003, 1.864316e-002
3.249466e+003, 1.911821e-002
3.251395e+003, 1.932436e-002
3.253323e+003, 1.936679e-002
3.255252e+003, 1.935902e-002
3.257180e+003, 1.957887e-002
3.259109e+003, 1.958953e-002
3.261037e+003, 1.943794e-002
3.262966e+003, 1.981658e-002
3.264894e+003, 1.963186e-002
3.266823e+003, 1.879750e-002
3.268751e+003, 1.909109e-002
3.270679e+003, 1.896489e-002
3.272608e+003, 1.880236e-002
3.274536e+003, 1.939518e-002
3.276465e+003, 2.022445e-002
3.278393e+003, 2.046312e-002
3.280322e+003, 2.128055e-002
3.282250e+003, 2.128387e-002
3.284179e+003, 2.095165e-002
3.286107e+003, 2.171008e-002
3.288036e+003, 2.180149e-002
3.289964e+003, 2.189461e-002
3.291893e+003, 2.089701e-002
3.293821e+003, 2.028913e-002
3.295750e+003, 2.140049e-002
3.297678e+003, 2.276927e-002
3.299606e+003, 2.208953e-002
3.301535e+003, 2.100097e-002
3.303463e+003, 2.191327e-002
3.305392e+003, 2.317068e-002
3.307320e+003, 2.417360e-002
3.309249e+003, 2.387172e-002
3.311177e+003, 2.288068e-002
3.313106e+003, 2.189994e-002
3.315034e+003, 2.284299e-002
3.316963e+003, 2.397797e-002
3.318891e+003, 2.456010e-002
3.320820e+003, 2.460485e-002
3.322748e+003, 2.494768e-002
3.324677e+003, 2.479436e-002
3.326605e+003, 2.390547e-002
3.328533e+003, 2.374102e-002
3.330462e+003, 2.453866e-002
3.332390e+003, 2.477041e-002
3.334319e+003, 2.400064e-002
3.336247e+003, 2.405735e-002
3.338176e+003, 2.580876e-002
3.340104e+003, 2.749951e-002
3.342033e+003, 2.603577e-002
3.343961e+003, 2.509925e-002
3.345890e+003, 2.611050e-002
3.347818e+003, 2.533609e-002
3.349747e+003, 2.515955e-002
3.351675e+003, 2.618422e-002
3.353604e+003, 2.630422e-002
3.355532e+003, 2.635302e-002
3.357460e+003, 2.694434e-002
3.359389e+003, 2.649587e-002
3.361317e+003, 2.666437e-002
3.363246e+003, 2.710620e-002
3.365174e+003, 2.643537e-002
3.367103e+003, 2.617427e-002
3.369031e+003, 2.616871e-002
3.370960e+003, 2.654289e-002
3.372888e+003, 2.673043e-002
3.374817e+003, 2.643263e-002
3.376745e+003, 2.666428e-002
3.378674e+003, 2.615385e-002
3.380602e+003, 2.617460e-002
3.382531e+003, 2.634850e-002
3.384459e+003, 2.609241e-002
3.386387e+003, 2.730310e-002
3.388316e+003, 2.811588e-002
3.390244e+003, 2.613422e-002
3.392173e+003, 2.532062e-002
3.394101e+003, 2.568423e-002
3.396030e+003, 2.433144e-002
3.397958e+003, 2.538519e-002
3.399887e+003, 2.639296e-002
3.401815e+003, 2.608331e-002
3.403744e+003, 2.504694e-002
3.405672e+003, 2.519787e-002
3.407601e+003, 2.544360e-002
3.409529e+003, 2.524141e-002
3.411458e+003, 2.466811e-002
3.413386e+003, 2.361217e-002
3.415314e+003, 2.290771e-002
3.417243e+003, 2.312896e-002
3.419171e+003, 2.266821e-002
3.421100e+003, 2.235636e-002
3.423028e+003, 2.176752e-002
3.424957e+003, 2.080798e-002
3.426885e+003, 2.160227e-002
3.428814e+003, 2.329128e-002
3.430742e+003, 2.239593e-002
3.432671e+003, 2.102224e-002
3.434599e+003, 2.016685e-002
3.436528e+003, 2.046028e-002
3.438456e+003, 2.059721e-002
3.440385e+003, 1.973895e-002
3.442313e+003, 1.851481e-002
3.444241e+003, 1.894172e-002
3.446170e+003, 1.963942e-002
3.448098e+003, 1.910531e-002
3.450027e+003, 1.972940e-002
3.451955e+003, 1.980598e-002
3.453884e+003, 1.981483e-002
3.455812e+003, 1.928368e-002
3.457741e+003, 1.910382e-002
3.459669e+003, 1.834616e-002
3.461598e+003, 1.857399e-002
3.463526e+003, 1.908588e-002
3.465455e+003, 1.921590e-002
3.467383e+003, 1.947945e-002
3.469312e+003, 1.916719e-002
3.471240e+003, 1.928452e-002
3.473168e+003, 1.902945e-002
3.475097e+003, 1.694270e-002
3.477025e+003, 1.702228e-002
3.478954e+003, 1.664565e-002
3.480882e+003, 1.763383e-002
3.482811e+003, 1.827965e-002
3.484739e+003, 1.760785e-002
3.486668e+003, 1.713179e-002
3.488596e+003, 1.754273e-002
3.490525e+003, 1.747662e-002
3.492453e+003, 1.660174e-002
3.494382e+003, 1.590525e-002
3.496310e+003, 1.763566e-002
3.498239e+003, 1.938795e-002
3.500167e+003, 1.774780e-002
3.502095e+003, 1.591576e-002
3.504024e+003, 1.657275e-002
3.505952e+003, 1.675719e-002
3.507881e+003, 1.584871e-002
3.509809e+003, 1.514281e-002
3.511738e+003, 1.602473e-002
3.513666e+003, 1.717400e-002
3.515595e+003, 1.631563e-002
3.517523e+003, 1.614496e-002
3.519452e+003, 1.647713e-002
3.521380e+003, 1.631709e-002
3.523309e+003, 1.662134e-002
3.525237e+003, 1.544883e-002
3.527166e+003, 1.530889e-002
3.529094e+003, 1.607324e-002
3.531022e+003, 1.676989e-002
3.532951e+003, 1.580351e-002
3.534879e+003, 1.469510e-002
3.536808e+003, 1.579056e-002
3.538736e+003, 1.683279e-002
3.540665e+003, 1.709935e-002
3.542593e+003, 1.692541e-002
3.544522e+003, 1.456208e-002
3.546450e+003, 1.511776e-002
3.548379e+003, 1.633405e-002
3.550307e+003, 1.604008e-002
3.552236e+003, 1.441471e-002
3.554164e+003, 1.422368e-002
3.556093e+003, 1.500433e-002
3.558021e+003, 1.553536e-002
3.559949e+003, 1.649830e-002
3.561878e+003, 1.619311e-002
3.563806e+003, 1.463077e-002
3.565735e+003, 1.282471e-002
3.567663e+003, 1.084692e-002
3.569592e+003, 1.137044e-002
3.571520e+003, 1.202960e-002
3.573449e+003, 1.223717e-002
3.575377e+003, 1.250780e-002
3.577306e+003, 1.270255e-002
3.579234e+003, 1.225926e-002
3.581163e+003, 1.208200e-002
3.583091e+003, 1.313476e-002
3.585020e+003, 1.309732e-002
3.586948e+003, 1.240034e-002
3.588876e+003, 1.080019e-002
3.590805e+003, 1.128829e-002
3.592733e+003, 1.260491e-002
3.594662e+003, 1.230569e-002
3.596590e+003, 1.197360e-002
3.598519e+003, 1.295167e-002
3.600447e+003, 1.285735e-002
3.602376e+003, 1.309401e-002
3.604304e+003, 1.239579e-002
3.606233e+003, 1.028546e-002
3.608161e+003, 9.867292e-003
3.610090e+003, 9.769948e-003
3.612018e+003, 9.323554e-003
3.613947e+003, 1.006476e-002
3.615875e+003, 1.218332e-002
3.617803e+003, 1.178855e-002
3.619732e+003, 1.124037e-002
3.621660e+003, 1.021969e-002
3.623589e+003, 9.064727e-003
3.625517e+003, 9.073789e-003
3.627446e+003, 1.008525e-002
3.629374e+003, 9.991916e-003
3.631303e+003, 1.042439e-002
3.633231e+003, 1.177106e-002
3.635160e+003, 1.087323e-002
3.637088e+003, 8.930014e-003
3.639017e+003, 9.670700e-003
3.640945e+003, 1.013363e-002
3.642874e+003, 1.062481e-002
3.644802e+003, 1.010257e-002
3.646730e+003, 9.904767e-003
3.648659e+003, 9.256525e-003
3.650587e+003, 1.036927e-002
3.652516e+003, 1.060627e-002
3.654444e+003, 8.800008e-003
3.656373e+003, 8.782774e-003
3.658301e+003, 8.978003e-003
3.660230e+003, 9.519014e-003
3.662158e+003, 8.749968e-003
3.664087e+003, 7.971095e-003
3.666015e+003, 9.293619e-003
3.667944e+003, 1.101212e-002
3.669872e+003, 1.288702e-002
3.671801e+003, 1.085055e-002
3.673729e+003, 8.539036e-003
3.675657e+003, 1.021115e-002
3.677586e+003, 1.080644e-002
3.679514e+003, 9.721021e-003
3.681443e+003, 8.164104e-003
3.683371e+003, 7.478738e-003
3.685300e+003, 7.791810e-003
3.687228e+003, 6.672389e-003
3.689157e+003, 6.094303e-003
3.691085e+003, 7.784123e-003
3.693014e+003, 7.315819e-003
3.694942e+003, 7.258165e-003
3.696871e+003, 9.590977e-003
3.698799e+003, 1.043523e-002
3.700728e+003, 9.536178e-003
3.702656e+003, 9.566860e-003
3.704584e+003, 9.199629e-003
3.706513e+003, 8.800375e-003
3.708441e+003, 9.558802e-003
3.710370e+003, 1.016615e-002
3.712298e+003, 1.047948e-002
3.714227e+003, 9.375446e-003
3.716155e+003, 8.318310e-003
3.718084e+003, 8.063456e-003
3.720012e+003, 8.812137e-003
3.721941e+003, 9.694195e-003
3.723869e+003, 9.661735e-003
3.725798e+003, 8.238544e-003
3.727726e+003, 8.088320e-003
3.729655e+003, 7.156555e-003
3.731583e+003, 6.857854e-003
3.733511e+003, 9.243327e-003
3.735440e+003, 9.571753e-003
3.737368e+003, 8.981040e-003
3.739297e+003, 8.773690e-003
3.741225e+003, 9.405283e-003
3.743154e+003, 1.022899e-002
3.745082e+003, 1.107443e-002
3.747011e+003, 9.668361e-003
3.748939e+003, 9.401041e-003
3.750868e+003, 9.217951e-003
3.752796e+003, 8.509032e-003
3.754725e+003, 8.382677e-003
3.756653e+003, 9.522615e-003
3.758582e+003, 9.309459e-003
3.760510e+003, 9.347144e-003
3.762438e+003, 9.906722e-003
3.764367e+003, 8.255031e-003
3.766295e+003, 8.242248e-003
3.768224e+003, 1.059060e-002
3.770152e+003, 1.232133e-002
3.772081e+003, 1.208734e-002
3.774009e+003, 9.775964e-003
3.775938e+003, 7.698607e-003
3.777866e+003, 9.523725e-003
3.779795e+003, 1.092925e-002
3.781723e+003, 9.206723e-003
3.783652e+003, 8.477310e-003
3.785580e+003, 1.092401e-002
3.787509e+003, 1.087576e-002
3.789437e+003, 9.766081e-003
3.791365e+003, 9.545886e-003
3.793294e+003, 7.248359e-003
3.795222e+003, 7.685001e-003
3.797151e+003, 9.459871e-003
3.799079e+003, 1.079207e-002
3.801008e+003, 1.169838e-002
3.802936e+003, 1.046766e-002
3.804865e+003, 1.070421e-002
3.806793e+003, 1.183009e-002
3.808722e+003, 1.091458e-002
3.810650e+003, 9.120681e-003
3.812579e+003, 9.299957e-003
3.814507e+003, 1.119240e-002
3.816436e+003, 1.088342e-002
3.818364e+003, 9.638892e-003
3.820292e+003, 9.348269e-003
3.822221e+003, 9.523068e-003
3.824149e+003, 9.328702e-003
3.826078e+003, 8.611117e-003
3.828006e+003, 8.397622e-003
3.829935e+003, 9.406139e-003
3.831863e+003, 1.012555e-002
3.833792e+003, 9.014605e-003
3.835720e+003, 8.113854e-003
3.837649e+003, 8.652848e-003
3.839577e+003, 1.027807e-002
3.841506e+003, 1.016439e-002
3.843434e+003, 9.256597e-003
3.845363e+003, 1.101446e-002
3.847291e+003, 1.094275e-002
3.849219e+003, 1.048120e-002
3.851148e+003, 1.118321e-002
3.853076e+003, 1.112288e-002
3.855005e+003, 1.072620e-002
3.856933e+003, 9.339317e-003
3.858862e+003, 8.423384e-003
3.860790e+003, 7.379426e-003
3.862719e+003, 9.135023e-003
3.864647e+003, 1.162792e-002
3.866576e+003, 1.288983e-002
3.868504e+003, 1.087932e-002
3.870433e+003, 9.318884e-003
3.872361e+003, 1.116069e-002
3.874290e+003, 1.210611e-002
3.876218e+003, 1.058783e-002
3.878146e+003, 1.129151e-002
3.880075e+003, 1.034556e-002
3.882003e+003, 9.204089e-003
3.883932e+003, 9.748303e-003
3.885860e+003, 1.142757e-002
3.887789e+003, 1.222512e-002
3.889717e+003, 1.113301e-002
3.891646e+003, 8.659727e-003
3.893574e+003, 7.521524e-003
3.895503e+003, 7.963012e-003
3.897431e+003, 8.389810e-003
3.899360e+003, 8.486663e-003
3.901288e+003, 9.547125e-003
3.903217e+003, 8.843050e-003
3.905145e+003, 8.357900e-003
3.907073e+003, 8.802921e-003
3.909002e+003, 8.973090e-003
3.910930e+003, 8.625709e-003
3.912859e+003, 8.085056e-003
3.914787e+003, 8.778382e-003
3.916716e+003, 1.035825e-002
3.918644e+003, 1.071974e-002
3.920573e+003, 8.953475e-003
3.922501e+003, 7.955920e-003
3.924430e+003, 8.828691e-003
3.926358e+003, 9.238041e-003
3.928287e+003, 7.632818e-003
3.930215e+003, 7.560110e-003
3.932144e+003, 9.142484e-003
3.934072e+003, 9.986080e-003
3.936000e+003, 8.019865e-003
3.937929e+003, 6.654060e-003
3.939857e+003, 7.315611e-003
3.941786e+003, 8.091373e-003
3.943714e+003, 9.641799e-003
3.945643e+003, 1.120534e-002
3.947571e+003, 1.143889e-002
3.949500e+003, 1.063027e-002
3.951428e+003, 1.012111e-002
3.953357e+003, 9.463846e-003
3.955285e+003, 9.673411e-003
3.957214e+003, 9.381995e-003
3.959142e+003, 8.621441e-003
3.961071e+003, 9.305212e-003
3.962999e+003, 1.023284e-002
3.964927e+003, 9.617294e-003
3.966856e+003, 8.371155e-003
3.968784e+003, 1.067864e-002
3.970713e+003, 1.045303e-002
3.972641e+003, 9.702582e-003
3.974570e+003, 9.171195e-003
3.976498e+003, 1.004756e-002
3.978427e+003, 9.596613e-003
3.980355e+003, 9.101389e-003
3.982284e+003, 9.514461e-003
3.984212e+003, 9.602821e-003
3.986141e+003, 8.474247e-003
3.988069e+003, 8.233221e-003
3.989998e+003, 9.287860e-003
3.991926e+003, 9.482815e-003
3.993854e+003, 1.055815e-002
3.995783e+003, 9.758988e-003
3.997711e+003, 7.424982e-003
3.999640e+003, 7.426969e-003
##END=



