##NAMES=Datolite
##RRUFFID=R050033
##IDEAL CHEMISTRY=CaB(SiO_4_)(OH)
##LOCALITY=Westfield, Massachusetts, USA
##OWNER=RRUFF
##SOURCE=University of Arizona Mineral Museum
##DESCRIPTION=Group of pale green single crystals
##STATUS=The identification of this mineral has been confirmed by X-ray diffraction and chemical analysis
##URL=rruff.info/R050033
##MEASURED CHEMISTRY=Ca_1.00_B_1.00_Si_1.00_O_4_(OH) ; trace amounts of Al and Na; B measured and corrected according to stoichiometry;  OH estimated by stoichiometry end charge balance
3.991926e+002, 0.000000e+000
4.011211e+002, 8.651824e-002
4.030496e+002, 8.697026e-002
4.049780e+002, 9.515967e-002
4.069065e+002, 1.052551e-001
4.088350e+002, 1.136645e-001
4.107634e+002, 1.246206e-001
4.126919e+002, 1.412460e-001
4.146204e+002, 1.548199e-001
4.165488e+002, 1.676225e-001
4.184773e+002, 1.792944e-001
4.204058e+002, 1.738732e-001
4.223342e+002, 1.526947e-001
4.242627e+002, 1.247205e-001
4.261912e+002, 9.676719e-002
4.281196e+002, 8.129545e-002
4.300481e+002, 8.010022e-002
4.319766e+002, 8.530376e-002
4.339050e+002, 9.251780e-002
4.358335e+002, 1.012530e-001
4.377620e+002, 1.096219e-001
4.396904e+002, 1.186345e-001
4.416189e+002, 1.293996e-001
4.435474e+002, 1.405582e-001
4.454758e+002, 1.507171e-001
4.474043e+002, 1.614887e-001
4.493328e+002, 1.716092e-001
4.512612e+002, 1.740321e-001
4.531897e+002, 1.712779e-001
4.551182e+002, 1.727562e-001
4.570466e+002, 1.813220e-001
4.589751e+002, 1.918849e-001
4.609036e+002, 2.010153e-001
4.628320e+002, 2.128487e-001
4.647605e+002, 2.279017e-001
4.666890e+002, 2.437570e-001
4.686174e+002, 2.596819e-001
4.705459e+002, 2.738206e-001
4.724744e+002, 2.741835e-001
4.744028e+002, 2.564227e-001
4.763313e+002, 2.317653e-001
4.782598e+002, 2.168194e-001
4.801882e+002, 2.174101e-001
4.821167e+002, 2.285545e-001
4.840452e+002, 2.429013e-001
4.859736e+002, 2.536817e-001
4.879021e+002, 2.619424e-001
4.898306e+002, 2.689242e-001
4.917590e+002, 2.712121e-001
4.936875e+002, 2.691347e-001
4.956160e+002, 2.664221e-001
4.975444e+002, 2.616321e-001
4.994729e+002, 2.547795e-001
5.014014e+002, 2.459507e-001
5.033298e+002, 2.370154e-001
5.052583e+002, 2.284989e-001
5.071868e+002, 2.202799e-001
5.091152e+002, 2.123869e-001
5.110437e+002, 2.042925e-001
5.129722e+002, 1.957006e-001
5.149006e+002, 1.879086e-001
5.168291e+002, 1.812008e-001
5.187576e+002, 1.746943e-001
5.206860e+002, 1.684932e-001
5.226145e+002, 1.627116e-001
5.245430e+002, 1.571682e-001
5.264714e+002, 1.519074e-001
5.283999e+002, 1.468687e-001
5.303284e+002, 1.409982e-001
5.322568e+002, 1.339926e-001
5.341853e+002, 1.267834e-001
5.361138e+002, 1.187101e-001
5.380422e+002, 1.099620e-001
5.399707e+002, 1.012579e-001
5.418992e+002, 9.282848e-002
5.438276e+002, 8.513944e-002
5.457561e+002, 7.910705e-002
5.476846e+002, 7.316553e-002
5.496130e+002, 6.500700e-002
5.515415e+002, 5.371278e-002
5.534700e+002, 4.306531e-002
5.553984e+002, 3.698316e-002
5.573269e+002, 3.482927e-002
5.592554e+002, 3.517341e-002
5.611838e+002, 3.795537e-002
5.631123e+002, 4.326552e-002
5.650408e+002, 5.263237e-002
5.669692e+002, 6.739793e-002
5.688977e+002, 8.603249e-002
5.708262e+002, 1.015734e-001
5.727546e+002, 1.051696e-001
5.746831e+002, 9.578548e-002
5.766116e+002, 8.010577e-002
5.785400e+002, 6.488739e-002
5.804685e+002, 5.301122e-002
5.823970e+002, 4.517711e-002
5.843254e+002, 3.941910e-002
5.862539e+002, 3.543799e-002
5.881824e+002, 3.306760e-002
5.901108e+002, 3.177685e-002
5.920393e+002, 3.136090e-002
5.939678e+002, 3.108246e-002
5.958962e+002, 3.083261e-002
5.978247e+002, 3.061401e-002
5.997532e+002, 3.029897e-002
6.016816e+002, 2.979379e-002
6.036101e+002, 2.924179e-002
6.055386e+002, 2.854486e-002
6.074670e+002, 2.829693e-002
6.093955e+002, 2.853294e-002
6.113240e+002, 2.913496e-002
6.132524e+002, 2.944441e-002
6.151809e+002, 2.969611e-002
6.171094e+002, 3.012756e-002
6.190378e+002, 3.009490e-002
6.209663e+002, 2.947654e-002
6.228948e+002, 2.895557e-002
6.248232e+002, 2.919018e-002
6.267517e+002, 2.969448e-002
6.286802e+002, 3.030503e-002
6.306086e+002, 3.124872e-002
6.325371e+002, 3.215234e-002
6.344656e+002, 3.321043e-002
6.363940e+002, 3.475705e-002
6.383225e+002, 3.626835e-002
6.402510e+002, 3.778215e-002
6.421794e+002, 3.922836e-002
6.441079e+002, 4.050379e-002
6.460364e+002, 4.188489e-002
6.479648e+002, 4.383198e-002
6.498933e+002, 4.599048e-002
6.518218e+002, 4.815825e-002
6.537502e+002, 5.086000e-002
6.556787e+002, 5.393894e-002
6.576072e+002, 5.714712e-002
6.595356e+002, 6.076800e-002
6.614641e+002, 6.447697e-002
6.633926e+002, 6.828286e-002
6.653210e+002, 7.229070e-002
6.672495e+002, 7.668576e-002
6.691780e+002, 8.175054e-002
6.711064e+002, 8.816412e-002
6.730349e+002, 9.629686e-002
6.749634e+002, 1.062713e-001
6.768918e+002, 1.171299e-001
6.788203e+002, 1.279601e-001
6.807488e+002, 1.400229e-001
6.826772e+002, 1.530965e-001
6.846057e+002, 1.656667e-001
6.865342e+002, 1.730954e-001
6.884626e+002, 1.720306e-001
6.903911e+002, 1.641808e-001
6.923196e+002, 1.541208e-001
6.942480e+002, 1.409123e-001
6.961765e+002, 1.200653e-001
6.981050e+002, 9.585093e-002
7.000334e+002, 7.693643e-002
7.019619e+002, 6.597157e-002
7.038904e+002, 6.046494e-002
7.058188e+002, 5.797883e-002
7.077473e+002, 5.699885e-002
7.096758e+002, 5.695324e-002
7.116042e+002, 5.762966e-002
7.135327e+002, 5.893590e-002
7.154612e+002, 6.045077e-002
7.173896e+002, 6.191520e-002
7.193181e+002, 6.393126e-002
7.212466e+002, 6.643600e-002
7.231750e+002, 6.908517e-002
7.251035e+002, 7.209313e-002
7.270320e+002, 7.564034e-002
7.289604e+002, 7.972548e-002
7.308889e+002, 8.409264e-002
7.328174e+002, 8.881838e-002
7.347458e+002, 9.334897e-002
7.366743e+002, 9.826665e-002
7.386028e+002, 1.032528e-001
7.405313e+002, 1.076805e-001
7.424597e+002, 1.119857e-001
7.443882e+002, 1.159041e-001
7.463167e+002, 1.195955e-001
7.482451e+002, 1.232538e-001
7.501736e+002, 1.274721e-001
7.521021e+002, 1.326822e-001
7.540305e+002, 1.386895e-001
7.559590e+002, 1.455686e-001
7.578875e+002, 1.534126e-001
7.598159e+002, 1.619498e-001
7.617444e+002, 1.712907e-001
7.636729e+002, 1.812191e-001
7.656013e+002, 1.918348e-001
7.675298e+002, 2.031779e-001
7.694583e+002, 2.150288e-001
7.713867e+002, 2.271038e-001
7.733152e+002, 2.395854e-001
7.752437e+002, 2.526207e-001
7.771721e+002, 2.661499e-001
7.791006e+002, 2.786523e-001
7.810291e+002, 2.865682e-001
7.829575e+002, 2.862407e-001
7.848860e+002, 2.750888e-001
7.868145e+002, 2.544711e-001
7.887429e+002, 2.279087e-001
7.906714e+002, 1.996241e-001
7.925999e+002, 1.715672e-001
7.945283e+002, 1.459228e-001
7.964568e+002, 1.270677e-001
7.983853e+002, 1.173429e-001
8.003137e+002, 1.150554e-001
8.022422e+002, 1.178052e-001
8.041707e+002, 1.234338e-001
8.060991e+002, 1.303151e-001
8.080276e+002, 1.381099e-001
8.099561e+002, 1.460937e-001
8.118845e+002, 1.544098e-001
8.138130e+002, 1.631268e-001
8.157415e+002, 1.721846e-001
8.176699e+002, 1.819018e-001
8.195984e+002, 1.922172e-001
8.215269e+002, 2.030184e-001
8.234553e+002, 2.141142e-001
8.253838e+002, 2.251384e-001
8.273123e+002, 2.364191e-001
8.292407e+002, 2.482509e-001
8.311692e+002, 2.604241e-001
8.330977e+002, 2.725646e-001
8.350261e+002, 2.852215e-001
8.369546e+002, 2.979303e-001
8.388831e+002, 3.104305e-001
8.408115e+002, 3.231511e-001
8.427400e+002, 3.351018e-001
8.446685e+002, 3.450513e-001
8.465969e+002, 3.513804e-001
8.485254e+002, 3.510412e-001
8.504539e+002, 3.414666e-001
8.523823e+002, 3.243647e-001
8.543108e+002, 3.058320e-001
8.562393e+002, 2.917439e-001
8.581677e+002, 2.864823e-001
8.600962e+002, 2.906602e-001
8.620247e+002, 3.009467e-001
8.639531e+002, 3.142061e-001
8.658816e+002, 3.280821e-001
8.678101e+002, 3.405778e-001
8.697385e+002, 3.504966e-001
8.716670e+002, 3.572975e-001
8.735955e+002, 3.618913e-001
8.755239e+002, 3.635412e-001
8.774524e+002, 3.628702e-001
8.793809e+002, 3.597777e-001
8.813093e+002, 3.537340e-001
8.832378e+002, 3.453088e-001
8.851663e+002, 3.347819e-001
8.870947e+002, 3.221810e-001
8.890232e+002, 3.081628e-001
8.909517e+002, 2.955272e-001
8.928801e+002, 2.870209e-001
8.948085e+002, 2.849528e-001
8.967370e+002, 2.911736e-001
8.986655e+002, 3.045449e-001
9.005939e+002, 3.217818e-001
9.025224e+002, 3.388827e-001
9.044509e+002, 3.539608e-001
9.063793e+002, 3.662997e-001
9.083078e+002, 3.749811e-001
9.102363e+002, 3.790861e-001
9.121647e+002, 3.793295e-001
9.140932e+002, 3.762806e-001
9.160217e+002, 3.695228e-001
9.179501e+002, 3.594615e-001
9.198786e+002, 3.481981e-001
9.218071e+002, 3.382345e-001
9.237355e+002, 3.306520e-001
9.256640e+002, 3.253051e-001
9.275925e+002, 3.223853e-001
9.295209e+002, 3.207961e-001
9.314494e+002, 3.197483e-001
9.333779e+002, 3.187970e-001
9.353063e+002, 3.172126e-001
9.372348e+002, 3.147891e-001
9.391633e+002, 3.114131e-001
9.410917e+002, 3.066377e-001
9.430202e+002, 2.995931e-001
9.449487e+002, 2.906665e-001
9.468771e+002, 2.801730e-001
9.488056e+002, 2.680911e-001
9.507341e+002, 2.549930e-001
9.526625e+002, 2.414192e-001
9.545910e+002, 2.287596e-001
9.565195e+002, 2.184739e-001
9.584479e+002, 2.115618e-001
9.603764e+002, 2.083002e-001
9.623049e+002, 2.081489e-001
9.642333e+002, 2.106033e-001
9.661618e+002, 2.141533e-001
9.680903e+002, 2.179295e-001
9.700187e+002, 2.215718e-001
9.719472e+002, 2.251073e-001
9.738757e+002, 2.289753e-001
9.758041e+002, 2.332867e-001
9.777326e+002, 2.378419e-001
9.796611e+002, 2.428561e-001
9.815895e+002, 2.480841e-001
9.835180e+002, 2.527020e-001
9.854465e+002, 2.556502e-001
9.873749e+002, 2.556365e-001
9.893034e+002, 2.519020e-001
9.912319e+002, 2.455925e-001
9.931603e+002, 2.392372e-001
9.950888e+002, 2.343310e-001
9.970173e+002, 2.316208e-001
9.989457e+002, 2.303613e-001
1.000874e+003, 2.298487e-001
1.002803e+003, 2.295760e-001
1.004731e+003, 2.287621e-001
1.006660e+003, 2.272422e-001
1.008588e+003, 2.248844e-001
1.010517e+003, 2.213942e-001
1.012445e+003, 2.168677e-001
1.014373e+003, 2.113472e-001
1.016302e+003, 2.050009e-001
1.018230e+003, 1.979449e-001
1.020159e+003, 1.910881e-001
1.022087e+003, 1.856646e-001
1.024016e+003, 1.843547e-001
1.025944e+003, 1.899824e-001
1.027873e+003, 2.028414e-001
1.029801e+003, 2.203706e-001
1.031730e+003, 2.375088e-001
1.033658e+003, 2.497276e-001
1.035587e+003, 2.553278e-001
1.037515e+003, 2.549140e-001
1.039444e+003, 2.500770e-001
1.041372e+003, 2.426241e-001
1.043301e+003, 2.338578e-001
1.045229e+003, 2.244369e-001
1.047157e+003, 2.150729e-001
1.049086e+003, 2.056844e-001
1.051014e+003, 1.966599e-001
1.052943e+003, 1.883260e-001
1.054871e+003, 1.802707e-001
1.056800e+003, 1.724852e-001
1.058728e+003, 1.653818e-001
1.060657e+003, 1.589682e-001
1.062585e+003, 1.534499e-001
1.064514e+003, 1.494380e-001
1.066442e+003, 1.469956e-001
1.068371e+003, 1.456419e-001
1.070299e+003, 1.446907e-001
1.072228e+003, 1.437776e-001
1.074156e+003, 1.428902e-001
1.076084e+003, 1.423561e-001
1.078013e+003, 1.421973e-001
1.079941e+003, 1.426167e-001
1.081870e+003, 1.436826e-001
1.083798e+003, 1.455521e-001
1.085727e+003, 1.476959e-001
1.087655e+003, 1.491403e-001
1.089584e+003, 1.496502e-001
1.091512e+003, 1.493461e-001
1.093441e+003, 1.480131e-001
1.095369e+003, 1.456579e-001
1.097298e+003, 1.430291e-001
1.099226e+003, 1.402835e-001
1.101155e+003, 1.373470e-001
1.103083e+003, 1.341690e-001
1.105011e+003, 1.308937e-001
1.106940e+003, 1.275865e-001
1.108868e+003, 1.243563e-001
1.110797e+003, 1.210613e-001
1.112725e+003, 1.176500e-001
1.114654e+003, 1.142506e-001
1.116582e+003, 1.109589e-001
1.118511e+003, 1.078448e-001
1.120439e+003, 1.046662e-001
1.122368e+003, 1.013613e-001
1.124296e+003, 9.855790e-002
1.126225e+003, 9.594563e-002
1.128153e+003, 9.311201e-002
1.130082e+003, 9.048795e-002
1.132010e+003, 8.824948e-002
1.133938e+003, 8.625617e-002
1.135867e+003, 8.467942e-002
1.137795e+003, 8.346656e-002
1.139724e+003, 8.279824e-002
1.141652e+003, 8.278298e-002
1.143581e+003, 8.340579e-002
1.145509e+003, 8.445685e-002
1.147438e+003, 8.604759e-002
1.149366e+003, 8.811492e-002
1.151295e+003, 8.992584e-002
1.153223e+003, 9.050451e-002
1.155152e+003, 8.986882e-002
1.157080e+003, 8.765844e-002
1.159009e+003, 8.410192e-002
1.160937e+003, 7.979910e-002
1.162865e+003, 7.517123e-002
1.164794e+003, 7.016910e-002
1.166722e+003, 6.525920e-002
1.168651e+003, 6.048145e-002
1.170579e+003, 5.567044e-002
1.172508e+003, 5.105364e-002
1.174436e+003, 4.660512e-002
1.176365e+003, 4.239709e-002
1.178293e+003, 3.833810e-002
1.180222e+003, 3.443243e-002
1.182150e+003, 3.109506e-002
1.184079e+003, 2.803616e-002
1.186007e+003, 2.527479e-002
1.187936e+003, 2.308049e-002
1.189864e+003, 2.134666e-002
1.191792e+003, 1.979343e-002
1.193721e+003, 1.850284e-002
1.195649e+003, 1.748260e-002
1.197578e+003, 1.669076e-002
1.199506e+003, 1.592791e-002
1.201435e+003, 1.530103e-002
1.203363e+003, 1.477625e-002
1.205292e+003, 1.418108e-002
1.207220e+003, 1.375218e-002
1.209149e+003, 1.362713e-002
1.211077e+003, 1.339387e-002
1.213006e+003, 1.292123e-002
1.214934e+003, 1.251882e-002
1.216863e+003, 1.216773e-002
1.218791e+003, 1.191572e-002
1.220719e+003, 1.178030e-002
1.222648e+003, 1.164259e-002
1.224576e+003, 1.122990e-002
1.226505e+003, 1.091240e-002
1.228433e+003, 1.076026e-002
1.230362e+003, 1.061652e-002
1.232290e+003, 1.028578e-002
1.234219e+003, 9.905572e-003
1.236147e+003, 9.577470e-003
1.238076e+003, 9.527904e-003
1.240004e+003, 9.495032e-003
1.241933e+003, 9.205247e-003
1.243861e+003, 8.821146e-003
1.245790e+003, 8.637067e-003
1.247718e+003, 8.532565e-003
1.249646e+003, 8.357650e-003
1.251575e+003, 8.206937e-003
1.253503e+003, 7.943476e-003
1.255432e+003, 7.779134e-003
1.257360e+003, 7.617310e-003
1.259289e+003, 7.532509e-003
1.261217e+003, 7.437416e-003
1.263146e+003, 7.207715e-003
1.265074e+003, 6.990731e-003
1.267003e+003, 6.922398e-003
1.268931e+003, 6.956011e-003
1.270860e+003, 7.035362e-003
1.272788e+003, 6.877009e-003
1.274717e+003, 6.589243e-003
1.276645e+003, 6.412620e-003
1.278573e+003, 6.395013e-003
1.280502e+003, 6.385461e-003
1.282430e+003, 6.391217e-003
1.284359e+003, 6.055033e-003
1.286287e+003, 5.780115e-003
1.288216e+003, 5.761719e-003
1.290144e+003, 5.759283e-003
1.292073e+003, 5.716826e-003
1.294001e+003, 5.670311e-003
1.295930e+003, 5.536988e-003
1.297858e+003, 5.366314e-003
1.299787e+003, 5.357283e-003
1.301715e+003, 5.353989e-003
1.303644e+003, 5.275525e-003
1.305572e+003, 5.221994e-003
1.307500e+003, 5.291731e-003
1.309429e+003, 5.246367e-003
1.311357e+003, 5.144934e-003
1.313286e+003, 5.021668e-003
1.315214e+003, 5.107398e-003
1.317143e+003, 5.090514e-003
1.319071e+003, 4.842162e-003
1.321000e+003, 4.808663e-003
1.322928e+003, 5.185082e-003
1.324857e+003, 5.290503e-003
1.326785e+003, 5.249931e-003
1.328714e+003, 5.216392e-003
1.330642e+003, 5.294431e-003
1.332571e+003, 5.471278e-003
1.334499e+003, 5.657083e-003
1.336427e+003, 5.772015e-003
1.338356e+003, 5.885588e-003
1.340284e+003, 5.825356e-003
1.342213e+003, 5.952375e-003
1.344141e+003, 6.266910e-003
1.346070e+003, 6.290124e-003
1.347998e+003, 6.275665e-003
1.349927e+003, 6.535634e-003
1.351855e+003, 6.755216e-003
1.353784e+003, 6.713617e-003
1.355712e+003, 6.631004e-003
1.357641e+003, 6.792880e-003
1.359569e+003, 6.870119e-003
1.361498e+003, 6.774580e-003
1.363426e+003, 6.643629e-003
1.365354e+003, 6.616384e-003
1.367283e+003, 6.416676e-003
1.369211e+003, 6.320390e-003
1.371140e+003, 6.357237e-003
1.373068e+003, 6.344080e-003
1.374997e+003, 6.277220e-003
1.376925e+003, 6.309247e-003
1.378854e+003, 6.316169e-003
1.380782e+003, 6.375045e-003
1.382711e+003, 6.305536e-003
1.384639e+003, 6.328098e-003
1.386568e+003, 6.407249e-003
1.388496e+003, 6.468077e-003
1.390424e+003, 6.415508e-003
1.392353e+003, 6.181409e-003
1.394281e+003, 6.059056e-003
1.396210e+003, 6.354717e-003
1.398138e+003, 6.720298e-003
1.400067e+003, 6.649083e-003
1.401995e+003, 6.643704e-003
1.403924e+003, 6.721082e-003
1.405852e+003, 6.679338e-003
1.407781e+003, 6.837348e-003
1.409709e+003, 6.851582e-003
1.411638e+003, 6.869914e-003
1.413566e+003, 6.900916e-003
1.415495e+003, 6.815702e-003
1.417423e+003, 6.990644e-003
1.419351e+003, 7.208735e-003
1.421280e+003, 7.291784e-003
1.423208e+003, 7.275710e-003
1.425137e+003, 7.177440e-003
1.427065e+003, 7.121651e-003
1.428994e+003, 7.283121e-003
1.430922e+003, 7.287137e-003
1.432851e+003, 7.095125e-003
1.434779e+003, 7.054445e-003
1.436708e+003, 7.115250e-003
1.438636e+003, 7.179745e-003
1.440565e+003, 7.195042e-003
1.442493e+003, 7.166731e-003
1.444422e+003, 7.124284e-003
1.446350e+003, 7.184241e-003
1.448278e+003, 7.255930e-003
1.450207e+003, 7.271701e-003
1.452135e+003, 7.105600e-003
1.454064e+003, 6.856708e-003
1.455992e+003, 6.807237e-003
1.457921e+003, 6.680060e-003
1.459849e+003, 6.904544e-003
1.461778e+003, 7.002513e-003
1.463706e+003, 6.936470e-003
1.465635e+003, 6.681306e-003
1.467563e+003, 6.719233e-003
1.469492e+003, 6.762221e-003
1.471420e+003, 6.776076e-003
1.473349e+003, 6.358548e-003
1.475277e+003, 6.168620e-003
1.477205e+003, 5.910492e-003
1.479134e+003, 6.036975e-003
1.481062e+003, 6.250490e-003
1.482991e+003, 6.209996e-003
1.484919e+003, 6.105152e-003
1.486848e+003, 6.167748e-003
1.488776e+003, 6.065733e-003
1.490705e+003, 5.923986e-003
1.492633e+003, 5.938334e-003
1.494562e+003, 5.926766e-003
1.496490e+003, 5.962554e-003
1.498419e+003, 6.078132e-003
1.500347e+003, 5.982699e-003
1.502276e+003, 6.029348e-003
1.504204e+003, 6.049465e-003
1.506132e+003, 5.853656e-003
1.508061e+003, 5.650941e-003
1.509989e+003, 5.803060e-003
1.511918e+003, 5.917067e-003
1.513846e+003, 5.948817e-003
1.515775e+003, 5.931137e-003
1.517703e+003, 5.766079e-003
1.519632e+003, 5.910262e-003
1.521560e+003, 5.828401e-003
1.523489e+003, 6.000164e-003
1.525417e+003, 6.040267e-003
1.527346e+003, 6.152277e-003
1.529274e+003, 6.186486e-003
1.531203e+003, 6.347179e-003
1.533131e+003, 6.534576e-003
1.535059e+003, 6.601300e-003
1.536988e+003, 6.789391e-003
1.538916e+003, 6.884693e-003
1.540845e+003, 6.907731e-003
1.542773e+003, 7.216188e-003
1.544702e+003, 7.521559e-003
1.546630e+003, 7.582641e-003
1.548559e+003, 7.904120e-003
1.550487e+003, 8.004474e-003
1.552416e+003, 8.094038e-003
1.554344e+003, 7.930459e-003
1.556273e+003, 7.884000e-003
1.558201e+003, 8.004443e-003
1.560130e+003, 8.028344e-003
1.562058e+003, 8.082151e-003
1.563986e+003, 7.947320e-003
1.565915e+003, 7.933482e-003
1.567843e+003, 8.051312e-003
1.569772e+003, 7.755958e-003
1.571700e+003, 7.690506e-003
1.573629e+003, 7.745868e-003
1.575557e+003, 7.668775e-003
1.577486e+003, 7.608153e-003
1.579414e+003, 8.047919e-003
1.581343e+003, 8.175981e-003
1.583271e+003, 8.298159e-003
1.585200e+003, 8.269886e-003
1.587128e+003, 8.013165e-003
1.589057e+003, 8.019393e-003
1.590985e+003, 8.088673e-003
1.592913e+003, 8.049740e-003
1.594842e+003, 8.081593e-003
1.596770e+003, 7.863008e-003
1.598699e+003, 7.839455e-003
1.600627e+003, 8.063350e-003
1.602556e+003, 8.017830e-003
1.604484e+003, 7.944222e-003
1.606413e+003, 7.974357e-003
1.608341e+003, 7.834110e-003
1.610270e+003, 7.712109e-003
1.612198e+003, 7.826125e-003
1.614127e+003, 8.009386e-003
1.616055e+003, 7.865304e-003
1.617984e+003, 7.454880e-003
1.619912e+003, 7.526180e-003
1.621840e+003, 7.584878e-003
1.623769e+003, 7.533062e-003
1.625697e+003, 7.479607e-003
1.627626e+003, 7.327958e-003
1.629554e+003, 7.222994e-003
1.631483e+003, 7.305125e-003
1.633411e+003, 7.275295e-003
1.635340e+003, 7.004417e-003
1.637268e+003, 7.049245e-003
1.639197e+003, 7.233330e-003
1.641125e+003, 7.169368e-003
1.643054e+003, 7.076291e-003
1.644982e+003, 6.987804e-003
1.646911e+003, 6.673072e-003
1.648839e+003, 6.797899e-003
1.650767e+003, 7.215367e-003
1.652696e+003, 7.017731e-003
1.654624e+003, 6.660485e-003
1.656553e+003, 6.822608e-003
1.658481e+003, 6.799100e-003
1.660410e+003, 6.819698e-003
1.662338e+003, 6.897049e-003
1.664267e+003, 6.745113e-003
1.666195e+003, 6.649434e-003
1.668124e+003, 6.593808e-003
1.670052e+003, 6.368780e-003
1.671981e+003, 6.428408e-003
1.673909e+003, 6.480496e-003
1.675838e+003, 6.218332e-003
1.677766e+003, 6.367280e-003
1.679694e+003, 6.521832e-003
1.681623e+003, 6.417510e-003
1.683551e+003, 6.213895e-003
1.685480e+003, 5.868147e-003
1.687408e+003, 5.939547e-003
1.689337e+003, 5.978884e-003
1.691265e+003, 6.019406e-003
1.693194e+003, 6.173401e-003
1.695122e+003, 6.147260e-003
1.697051e+003, 5.682257e-003
1.698979e+003, 5.681291e-003
1.700908e+003, 4.919949e-003
1.702836e+003, 5.091330e-003
1.704765e+003, 5.245282e-003
1.706693e+003, 5.328441e-003
1.708621e+003, 5.345247e-003
1.710550e+003, 5.028876e-003
1.712478e+003, 5.013969e-003
1.714407e+003, 5.268035e-003
1.716335e+003, 5.361096e-003
1.718264e+003, 5.315472e-003
1.720192e+003, 5.697991e-003
1.722121e+003, 5.730281e-003
1.724049e+003, 5.653409e-003
1.725978e+003, 5.702864e-003
1.727906e+003, 5.641783e-003
1.729835e+003, 5.411342e-003
1.731763e+003, 5.239641e-003
1.733692e+003, 5.148068e-003
1.735620e+003, 5.055927e-003
1.737548e+003, 5.206663e-003
1.739477e+003, 5.108118e-003
1.741405e+003, 5.145498e-003
1.743334e+003, 4.910694e-003
1.745262e+003, 4.812534e-003
1.747191e+003, 4.912291e-003
1.749119e+003, 5.012739e-003
1.751048e+003, 4.982725e-003
1.752976e+003, 4.796727e-003
1.754905e+003, 5.006366e-003
1.756833e+003, 4.948120e-003
1.758762e+003, 4.846326e-003
1.760690e+003, 4.793942e-003
1.762619e+003, 4.446337e-003
1.764547e+003, 4.606944e-003
1.766475e+003, 4.887183e-003
1.768404e+003, 5.044928e-003
1.770332e+003, 4.945614e-003
1.772261e+003, 4.713763e-003
1.774189e+003, 4.713745e-003
1.776118e+003, 4.662714e-003
1.778046e+003, 4.791468e-003
1.779975e+003, 4.977852e-003
1.781903e+003, 4.939353e-003
1.783832e+003, 5.361686e-003
1.785760e+003, 5.352110e-003
1.787689e+003, 5.283576e-003
1.789617e+003, 5.229956e-003
1.791546e+003, 5.387237e-003
1.793474e+003, 5.540476e-003
1.795402e+003, 5.463417e-003
1.797331e+003, 5.156936e-003
1.799259e+003, 5.216907e-003
1.801188e+003, 5.289917e-003
1.803116e+003, 5.501601e-003
1.805045e+003, 5.843724e-003
1.806973e+003, 5.628198e-003
1.808902e+003, 5.246482e-003
1.810830e+003, 5.421776e-003
1.812759e+003, 5.395389e-003
1.814687e+003, 4.940092e-003
1.816616e+003, 5.110547e-003
1.818544e+003, 5.447591e-003
1.820473e+003, 5.590727e-003
1.822401e+003, 5.677384e-003
1.824329e+003, 5.497177e-003
1.826258e+003, 5.507998e-003
1.828186e+003, 5.947459e-003
1.830115e+003, 5.831876e-003
1.832043e+003, 5.653197e-003
1.833972e+003, 5.559702e-003
1.835900e+003, 5.622264e-003
1.837829e+003, 5.365111e-003
1.839757e+003, 5.506742e-003
1.841686e+003, 5.711262e-003
1.843614e+003, 5.683587e-003
1.845543e+003, 5.880143e-003
1.847471e+003, 6.283922e-003
1.849400e+003, 6.243993e-003
1.851328e+003, 6.065131e-003
1.853256e+003, 6.245366e-003
1.855185e+003, 6.676010e-003
1.857113e+003, 6.528080e-003
1.859042e+003, 6.175637e-003
1.860970e+003, 6.024281e-003
1.862899e+003, 5.602105e-003
1.864827e+003, 5.388360e-003
1.866756e+003, 6.087394e-003
1.868684e+003, 6.605812e-003
1.870613e+003, 6.413779e-003
1.872541e+003, 6.206587e-003
1.874470e+003, 6.147170e-003
1.876398e+003, 5.863376e-003
1.878327e+003, 5.783937e-003
1.880255e+003, 5.625970e-003
1.882183e+003, 4.898787e-003
1.884112e+003, 4.759898e-003
1.886040e+003, 5.107524e-003
1.887969e+003, 5.757558e-003
1.889897e+003, 6.204703e-003
1.891826e+003, 5.840465e-003
1.893754e+003, 5.316310e-003
1.895683e+003, 5.108920e-003
1.897611e+003, 6.114501e-003
1.899540e+003, 6.204671e-003
1.901468e+003, 5.858643e-003
1.903397e+003, 5.589327e-003
1.905325e+003, 5.358949e-003
1.907254e+003, 5.739108e-003
1.909182e+003, 5.816067e-003
1.911110e+003, 5.683683e-003
1.913039e+003, 6.091879e-003
1.914967e+003, 6.044654e-003
1.916896e+003, 5.545689e-003
1.918824e+003, 4.808012e-003
1.920753e+003, 4.619662e-003
1.922681e+003, 4.737088e-003
1.924610e+003, 4.465343e-003
1.926538e+003, 4.538419e-003
1.928467e+003, 4.336651e-003
1.930395e+003, 4.625498e-003
1.932324e+003, 4.731127e-003
1.934252e+003, 4.323147e-003
1.936181e+003, 4.369356e-003
1.938109e+003, 4.112058e-003
1.940037e+003, 3.898392e-003
1.941966e+003, 4.119695e-003
1.943894e+003, 3.132217e-003
1.945823e+003, 2.296431e-003
1.947751e+003, 2.039686e-003
1.949680e+003, 2.492622e-003
1.951608e+003, 3.516106e-003
1.953537e+003, 3.453489e-003
1.955465e+003, 2.932515e-003
1.957394e+003, 3.106468e-003
1.959322e+003, 2.964304e-003
1.961251e+003, 2.702197e-003
1.963179e+003, 2.065608e-003
1.965108e+003, 1.733079e-003
1.967036e+003, 1.196573e-003
1.968964e+003, 1.618861e-003
1.970893e+003, 2.091353e-003
1.972821e+003, 1.912254e-003
1.974750e+003, 9.653857e-004
1.976678e+003, 1.406897e-003
1.978607e+003, 3.681994e-003
1.980535e+003, 4.710445e-003
1.982464e+003, 4.246917e-003
1.984392e+003, 3.818187e-003
1.986321e+003, 1.835882e-003
1.988249e+003, 2.140871e-003
1.990178e+003, 2.660150e-003
1.992106e+003, 1.509072e-003
1.994035e+003, 8.206711e-004
1.995963e+003, 1.586783e-003
1.997891e+003, 2.627304e-003
1.999820e+003, 3.223907e-003
2.001748e+003, 2.754041e-003
2.003677e+003, 1.853128e-003
2.005605e+003, 1.692012e-003
2.007534e+003, 1.324909e-003
2.009462e+003, 1.648948e-003
2.011391e+003, 4.127443e-003
2.013319e+003, 4.091777e-003
2.015248e+003, 2.437578e-003
2.017176e+003, 2.421996e-003
2.019105e+003, 1.757687e-003
2.021033e+003, 9.283044e-004
2.022962e+003, 2.839687e-003
2.024890e+003, 2.278946e-003
2.026818e+003, 1.651116e-003
2.028747e+003, 1.776278e-003
2.030675e+003, 2.295730e-003
2.032604e+003, 2.394248e-003
2.034532e+003, 2.538188e-003
2.036461e+003, 2.560622e-003
2.038389e+003, 2.916811e-003
2.040318e+003, 1.948115e-003
2.042246e+003, 2.414783e-003
2.044175e+003, 3.777873e-003
2.046103e+003, 3.719292e-003
2.048032e+003, 4.887399e-003
2.049960e+003, 5.906125e-003
2.051889e+003, 5.523738e-003
2.053817e+003, 5.607233e-003
2.055746e+003, 4.807658e-003
2.057674e+003, 3.298762e-003
2.059603e+003, 3.384812e-003
2.061531e+003, 3.857386e-003
2.063459e+003, 3.747336e-003
2.065388e+003, 2.831594e-003
2.067316e+003, 2.632578e-003
2.069245e+003, 3.997365e-003
2.071173e+003, 4.546890e-003
2.073102e+003, 4.316202e-003
2.075030e+003, 4.669474e-003
2.076959e+003, 4.535061e-003
2.078887e+003, 4.716371e-003
2.080816e+003, 4.943594e-003
2.082744e+003, 5.484750e-003
2.084673e+003, 5.338695e-003
2.086601e+003, 4.926448e-003
2.088530e+003, 4.978821e-003
2.090458e+003, 4.730557e-003
2.092386e+003, 4.322964e-003
2.094315e+003, 4.112876e-003
2.096243e+003, 4.177058e-003
2.098172e+003, 4.624119e-003
2.100100e+003, 5.133640e-003
2.102029e+003, 5.265303e-003
2.103957e+003, 5.670305e-003
2.105886e+003, 5.862887e-003
2.107814e+003, 5.963399e-003
2.109743e+003, 6.839796e-003
2.111671e+003, 6.486041e-003
2.113600e+003, 5.165008e-003
2.115528e+003, 4.469801e-003
2.117457e+003, 4.346647e-003
2.119385e+003, 5.412469e-003
2.121313e+003, 5.993407e-003
2.123242e+003, 5.748068e-003
2.125170e+003, 5.445752e-003
2.127099e+003, 5.621858e-003
2.129027e+003, 4.762786e-003
2.130956e+003, 3.233426e-003
2.132884e+003, 2.918630e-003
2.134813e+003, 3.180443e-003
2.136741e+003, 3.605610e-003
2.138670e+003, 4.166448e-003
2.140598e+003, 4.176342e-003
2.142527e+003, 4.072219e-003
2.144455e+003, 3.094997e-003
2.146384e+003, 2.249034e-003
2.148312e+003, 2.963559e-003
2.150240e+003, 3.333845e-003
2.152169e+003, 1.646766e-003
2.154097e+003, -4.437364e-005
2.156026e+003, -9.251842e-004
2.157954e+003, 4.272806e-004
2.159883e+003, 6.163215e-003
2.161811e+003, 7.160392e-003
2.163740e+003, 5.888914e-003
2.165668e+003, 4.954899e-003
2.167597e+003, 4.422464e-003
2.169525e+003, 4.039164e-003
2.171454e+003, 4.035341e-003
2.173382e+003, 4.360755e-003
2.175311e+003, 4.916917e-003
2.177239e+003, 4.750581e-003
2.179167e+003, 2.886748e-003
2.181096e+003, 2.588635e-003
2.183024e+003, 3.400753e-003
2.184953e+003, 4.326013e-003
2.186881e+003, 4.781689e-003
2.188810e+003, 4.370276e-003
2.190738e+003, 4.196587e-003
2.192667e+003, 5.687227e-003
2.194595e+003, 6.531946e-003
2.196524e+003, 5.700600e-003
2.198452e+003, 5.214401e-003
2.200381e+003, 5.806369e-003
2.202309e+003, 5.304934e-003
2.204238e+003, 5.962368e-003
2.206166e+003, 6.316365e-003
2.208094e+003, 5.846448e-003
2.210023e+003, 5.135932e-003
2.211951e+003, 5.594728e-003
2.213880e+003, 6.524990e-003
2.215808e+003, 6.560796e-003
2.217737e+003, 6.681404e-003
2.219665e+003, 7.431943e-003
2.221594e+003, 7.586171e-003
2.223522e+003, 7.535446e-003
2.225451e+003, 7.254797e-003
2.227379e+003, 7.369538e-003
2.229308e+003, 7.160434e-003
2.231236e+003, 7.191944e-003
2.233165e+003, 8.636335e-003
2.235093e+003, 9.345188e-003
2.237021e+003, 8.029222e-003
2.238950e+003, 7.651142e-003
2.240878e+003, 8.145324e-003
2.242807e+003, 8.458026e-003
2.244735e+003, 8.096850e-003
2.246664e+003, 7.751656e-003
2.248592e+003, 7.702715e-003
2.250521e+003, 6.989683e-003
2.252449e+003, 6.556374e-003
2.254378e+003, 7.373639e-003
2.256306e+003, 7.781619e-003
2.258235e+003, 7.747989e-003
2.260163e+003, 8.168982e-003
2.262092e+003, 8.738508e-003
2.264020e+003, 8.258335e-003
2.265948e+003, 8.346998e-003
2.267877e+003, 9.020885e-003
2.269805e+003, 9.049729e-003
2.271734e+003, 8.612092e-003
2.273662e+003, 8.563397e-003
2.275591e+003, 9.513843e-003
2.277519e+003, 1.007451e-002
2.279448e+003, 9.885338e-003
2.281376e+003, 9.791047e-003
2.283305e+003, 9.689376e-003
2.285233e+003, 1.010062e-002
2.287162e+003, 1.023738e-002
2.289090e+003, 1.041606e-002
2.291019e+003, 9.906964e-003
2.292947e+003, 9.044759e-003
2.294875e+003, 8.783930e-003
2.296804e+003, 9.310547e-003
2.298732e+003, 9.420288e-003
2.300661e+003, 9.152583e-003
2.302589e+003, 9.111544e-003
2.304518e+003, 9.207464e-003
2.306446e+003, 9.641921e-003
2.308375e+003, 1.031717e-002
2.310303e+003, 1.010931e-002
2.312232e+003, 1.005316e-002
2.314160e+003, 9.959193e-003
2.316089e+003, 9.617023e-003
2.318017e+003, 9.705134e-003
2.319946e+003, 1.049860e-002
2.321874e+003, 1.134634e-002
2.323802e+003, 1.110027e-002
2.325731e+003, 9.700027e-003
2.327659e+003, 9.038815e-003
2.329588e+003, 9.064895e-003
2.331516e+003, 8.841489e-003
2.333445e+003, 9.096958e-003
2.335373e+003, 9.351512e-003
2.337302e+003, 9.453470e-003
2.339230e+003, 9.720467e-003
2.341159e+003, 9.836761e-003
2.343087e+003, 9.933684e-003
2.345016e+003, 1.012890e-002
2.346944e+003, 9.858746e-003
2.348873e+003, 9.479977e-003
2.350801e+003, 9.706991e-003
2.352729e+003, 9.973899e-003
2.354658e+003, 1.039882e-002
2.356586e+003, 1.056792e-002
2.358515e+003, 1.009430e-002
2.360443e+003, 1.011730e-002
2.362372e+003, 1.034047e-002
2.364300e+003, 9.485023e-003
2.366229e+003, 9.459390e-003
2.368157e+003, 9.573629e-003
2.370086e+003, 9.223385e-003
2.372014e+003, 9.441152e-003
2.373942e+003, 9.877585e-003
2.375871e+003, 1.002237e-002
2.377799e+003, 1.033356e-002
2.379728e+003, 1.006663e-002
2.381656e+003, 1.028096e-002
2.383585e+003, 1.078574e-002
2.385513e+003, 1.008664e-002
2.387442e+003, 9.725940e-003
2.389370e+003, 1.071593e-002
2.391299e+003, 1.093130e-002
2.393227e+003, 1.057285e-002
2.395156e+003, 1.065505e-002
2.397084e+003, 1.062512e-002
2.399012e+003, 1.059768e-002
2.400941e+003, 1.069692e-002
2.402869e+003, 1.051468e-002
2.404798e+003, 1.043858e-002
2.406726e+003, 1.067234e-002
2.408655e+003, 1.090805e-002
2.410583e+003, 1.094484e-002
2.412512e+003, 1.067880e-002
2.414440e+003, 1.082549e-002
2.416369e+003, 1.121112e-002
2.418297e+003, 1.125878e-002
2.420226e+003, 1.056022e-002
2.422154e+003, 1.092909e-002
2.424083e+003, 1.123382e-002
2.426011e+003, 1.073390e-002
2.427939e+003, 1.110538e-002
2.429868e+003, 1.204755e-002
2.431796e+003, 1.219299e-002
2.433725e+003, 1.143075e-002
2.435653e+003, 1.109710e-002
2.437582e+003, 1.156502e-002
2.439510e+003, 1.182179e-002
2.441439e+003, 1.199136e-002
2.443367e+003, 1.146119e-002
2.445296e+003, 1.155658e-002
2.447224e+003, 1.181870e-002
2.449153e+003, 1.176259e-002
2.451081e+003, 1.175402e-002
2.453010e+003, 1.173777e-002
2.454938e+003, 1.241469e-002
2.456866e+003, 1.240794e-002
2.458795e+003, 1.193343e-002
2.460723e+003, 1.236152e-002
2.462652e+003, 1.229940e-002
2.464580e+003, 1.198870e-002
2.466509e+003, 1.114390e-002
2.468437e+003, 1.114301e-002
2.470366e+003, 1.133521e-002
2.472294e+003, 1.102378e-002
2.474223e+003, 1.143873e-002
2.476151e+003, 1.128920e-002
2.478080e+003, 1.079451e-002
2.480008e+003, 1.119395e-002
2.481937e+003, 1.077180e-002
2.483865e+003, 1.105265e-002
2.485793e+003, 1.216091e-002
2.487722e+003, 1.216455e-002
2.489650e+003, 1.145571e-002
2.491579e+003, 1.189865e-002
2.493507e+003, 1.200656e-002
2.495436e+003, 1.146169e-002
2.497364e+003, 1.202325e-002
2.499293e+003, 1.224040e-002
2.501221e+003, 1.197216e-002
2.503150e+003, 1.163056e-002
2.505078e+003, 1.193180e-002
2.507007e+003, 1.203646e-002
2.508935e+003, 1.197276e-002
2.510864e+003, 1.154484e-002
2.512792e+003, 1.107481e-002
2.514720e+003, 1.189354e-002
2.516649e+003, 1.316507e-002
2.518577e+003, 1.302323e-002
2.520506e+003, 1.220919e-002
2.522434e+003, 1.162886e-002
2.524363e+003, 1.157934e-002
2.526291e+003, 1.171080e-002
2.528220e+003, 1.182408e-002
2.530148e+003, 1.161797e-002
2.532077e+003, 1.171836e-002
2.534005e+003, 1.195711e-002
2.535934e+003, 1.215911e-002
2.537862e+003, 1.238784e-002
2.539791e+003, 1.223577e-002
2.541719e+003, 1.161068e-002
2.543647e+003, 1.166774e-002
2.545576e+003, 1.198138e-002
2.547504e+003, 1.223744e-002
2.549433e+003, 1.258182e-002
2.551361e+003, 1.286894e-002
2.553290e+003, 1.275343e-002
2.555218e+003, 1.240929e-002
2.557147e+003, 1.232994e-002
2.559075e+003, 1.272478e-002
2.561004e+003, 1.290138e-002
2.562932e+003, 1.255911e-002
2.564861e+003, 1.235753e-002
2.566789e+003, 1.246266e-002
2.568718e+003, 1.260590e-002
2.570646e+003, 1.223357e-002
2.572574e+003, 1.186190e-002
2.574503e+003, 1.218309e-002
2.576431e+003, 1.221166e-002
2.578360e+003, 1.196583e-002
2.580288e+003, 1.184436e-002
2.582217e+003, 1.181524e-002
2.584145e+003, 1.179274e-002
2.586074e+003, 1.248966e-002
2.588002e+003, 1.254532e-002
2.589931e+003, 1.268878e-002
2.591859e+003, 1.314458e-002
2.593788e+003, 1.312341e-002
2.595716e+003, 1.233000e-002
2.597645e+003, 1.235241e-002
2.599573e+003, 1.315858e-002
2.601501e+003, 1.365561e-002
2.603430e+003, 1.351735e-002
2.605358e+003, 1.344048e-002
2.607287e+003, 1.337050e-002
2.609215e+003, 1.328373e-002
2.611144e+003, 1.319234e-002
2.613072e+003, 1.281894e-002
2.615001e+003, 1.252574e-002
2.616929e+003, 1.282079e-002
2.618858e+003, 1.348222e-002
2.620786e+003, 1.346742e-002
2.622715e+003, 1.284411e-002
2.624643e+003, 1.244506e-002
2.626572e+003, 1.249996e-002
2.628500e+003, 1.308149e-002
2.630428e+003, 1.321521e-002
2.632357e+003, 1.239001e-002
2.634285e+003, 1.212103e-002
2.636214e+003, 1.239268e-002
2.638142e+003, 1.265122e-002
2.640071e+003, 1.320120e-002
2.641999e+003, 1.348990e-002
2.643928e+003, 1.312911e-002
2.645856e+003, 1.291636e-002
2.647785e+003, 1.278419e-002
2.649713e+003, 1.291497e-002
2.651642e+003, 1.340943e-002
2.653570e+003, 1.342937e-002
2.655499e+003, 1.319237e-002
2.657427e+003, 1.303422e-002
2.659355e+003, 1.306753e-002
2.661284e+003, 1.291016e-002
2.663212e+003, 1.266450e-002
2.665141e+003, 1.237312e-002
2.667069e+003, 1.231759e-002
2.668998e+003, 1.256949e-002
2.670926e+003, 1.214727e-002
2.672855e+003, 1.159845e-002
2.674783e+003, 1.205411e-002
2.676712e+003, 1.205334e-002
2.678640e+003, 1.198366e-002
2.680569e+003, 1.207170e-002
2.682497e+003, 1.207370e-002
2.684426e+003, 1.238076e-002
2.686354e+003, 1.239279e-002
2.688282e+003, 1.250860e-002
2.690211e+003, 1.265100e-002
2.692139e+003, 1.276233e-002
2.694068e+003, 1.271424e-002
2.695996e+003, 1.255384e-002
2.697925e+003, 1.248388e-002
2.699853e+003, 1.270922e-002
2.701782e+003, 1.235803e-002
2.703710e+003, 1.223634e-002
2.705639e+003, 1.270158e-002
2.707567e+003, 1.282464e-002
2.709496e+003, 1.247269e-002
2.711424e+003, 1.213137e-002
2.713353e+003, 1.190059e-002
2.715281e+003, 1.238236e-002
2.717209e+003, 1.305813e-002
2.719138e+003, 1.274525e-002
2.721066e+003, 1.204043e-002
2.722995e+003, 1.199885e-002
2.724923e+003, 1.318720e-002
2.726852e+003, 1.383521e-002
2.728780e+003, 1.318153e-002
2.730709e+003, 1.264939e-002
2.732637e+003, 1.255137e-002
2.734566e+003, 1.281558e-002
2.736494e+003, 1.264918e-002
2.738423e+003, 1.280068e-002
2.740351e+003, 1.333866e-002
2.742280e+003, 1.330352e-002
2.744208e+003, 1.299170e-002
2.746136e+003, 1.272511e-002
2.748065e+003, 1.310607e-002
2.749993e+003, 1.354107e-002
2.751922e+003, 1.350949e-002
2.753850e+003, 1.342000e-002
2.755779e+003, 1.348362e-002
2.757707e+003, 1.325569e-002
2.759636e+003, 1.311368e-002
2.761564e+003, 1.320411e-002
2.763493e+003, 1.357449e-002
2.765421e+003, 1.341998e-002
2.767350e+003, 1.317213e-002
2.769278e+003, 1.321536e-002
2.771207e+003, 1.362157e-002
2.773135e+003, 1.343958e-002
2.775063e+003, 1.332256e-002
2.776992e+003, 1.337959e-002
2.778920e+003, 1.333470e-002
2.780849e+003, 1.385793e-002
2.782777e+003, 1.413081e-002
2.784706e+003, 1.408291e-002
2.786634e+003, 1.403783e-002
2.788563e+003, 1.353057e-002
2.790491e+003, 1.319265e-002
2.792420e+003, 1.339856e-002
2.794348e+003, 1.353037e-002
2.796277e+003, 1.349987e-002
2.798205e+003, 1.349260e-002
2.800134e+003, 1.368797e-002
2.802062e+003, 1.375410e-002
2.803990e+003, 1.383664e-002
2.805919e+003, 1.425115e-002
2.807847e+003, 1.424047e-002
2.809776e+003, 1.401897e-002
2.811704e+003, 1.418651e-002
2.813633e+003, 1.501098e-002
2.815561e+003, 1.473566e-002
2.817490e+003, 1.411172e-002
2.819418e+003, 1.378912e-002
2.821347e+003, 1.374030e-002
2.823275e+003, 1.401876e-002
2.825204e+003, 1.450543e-002
2.827132e+003, 1.510476e-002
2.829061e+003, 1.493397e-002
2.830989e+003, 1.458318e-002
2.832917e+003, 1.493747e-002
2.834846e+003, 1.509423e-002
2.836774e+003, 1.478237e-002
2.838703e+003, 1.500530e-002
2.840631e+003, 1.555362e-002
2.842560e+003, 1.575985e-002
2.844488e+003, 1.530830e-002
2.846417e+003, 1.451740e-002
2.848345e+003, 1.464780e-002
2.850274e+003, 1.500867e-002
2.852202e+003, 1.470322e-002
2.854131e+003, 1.446861e-002
2.856059e+003, 1.478197e-002
2.857988e+003, 1.477489e-002
2.859916e+003, 1.471173e-002
2.861844e+003, 1.450979e-002
2.863773e+003, 1.459037e-002
2.865701e+003, 1.440756e-002
2.867630e+003, 1.417439e-002
2.869558e+003, 1.432879e-002
2.871487e+003, 1.448885e-002
2.873415e+003, 1.446305e-002
2.875344e+003, 1.451740e-002
2.877272e+003, 1.505233e-002
2.879201e+003, 1.495412e-002
2.881129e+003, 1.493908e-002
2.883058e+003, 1.537022e-002
2.884986e+003, 1.531279e-002
2.886915e+003, 1.461457e-002
2.888843e+003, 1.412322e-002
2.890771e+003, 1.489091e-002
2.892700e+003, 1.555547e-002
2.894628e+003, 1.544066e-002
2.896557e+003, 1.553125e-002
2.898485e+003, 1.540786e-002
2.900414e+003, 1.493337e-002
2.902342e+003, 1.484799e-002
2.904271e+003, 1.446297e-002
2.906199e+003, 1.516122e-002
2.908128e+003, 1.612447e-002
2.910056e+003, 1.602382e-002
2.911985e+003, 1.601927e-002
2.913913e+003, 1.657441e-002
2.915842e+003, 1.639428e-002
2.917770e+003, 1.667387e-002
2.919698e+003, 1.677901e-002
2.921627e+003, 1.608746e-002
2.923555e+003, 1.512401e-002
2.925484e+003, 1.454012e-002
2.927412e+003, 1.442489e-002
2.929341e+003, 1.450426e-002
2.931269e+003, 1.467051e-002
2.933198e+003, 1.444476e-002
2.935126e+003, 1.437777e-002
2.937055e+003, 1.494514e-002
2.938983e+003, 1.521581e-002
2.940912e+003, 1.474563e-002
2.942840e+003, 1.542804e-002
2.944769e+003, 1.590750e-002
2.946697e+003, 1.564424e-002
2.948625e+003, 1.542894e-002
2.950554e+003, 1.520163e-002
2.952482e+003, 1.474632e-002
2.954411e+003, 1.422866e-002
2.956339e+003, 1.497724e-002
2.958268e+003, 1.559353e-002
2.960196e+003, 1.500407e-002
2.962125e+003, 1.484575e-002
2.964053e+003, 1.514815e-002
2.965982e+003, 1.541227e-002
2.967910e+003, 1.503850e-002
2.969839e+003, 1.509456e-002
2.971767e+003, 1.556608e-002
2.973696e+003, 1.495169e-002
2.975624e+003, 1.451460e-002
2.977552e+003, 1.494939e-002
2.979481e+003, 1.577145e-002
2.981409e+003, 1.628738e-002
2.983338e+003, 1.591403e-002
2.985266e+003, 1.618780e-002
2.987195e+003, 1.636926e-002
2.989123e+003, 1.597011e-002
2.991052e+003, 1.586625e-002
2.992980e+003, 1.671875e-002
2.994909e+003, 1.749733e-002
2.996837e+003, 1.679291e-002
2.998766e+003, 1.630933e-002
3.000694e+003, 1.651207e-002
3.002623e+003, 1.670862e-002
3.004551e+003, 1.655510e-002
3.006479e+003, 1.611852e-002
3.008408e+003, 1.640669e-002
3.010336e+003, 1.653531e-002
3.012265e+003, 1.669173e-002
3.014193e+003, 1.652978e-002
3.016122e+003, 1.592683e-002
3.018050e+003, 1.611266e-002
3.019979e+003, 1.733176e-002
3.021907e+003, 1.752394e-002
3.023836e+003, 1.729516e-002
3.025764e+003, 1.662417e-002
3.027693e+003, 1.623948e-002
3.029621e+003, 1.726878e-002
3.031550e+003, 1.755548e-002
3.033478e+003, 1.691794e-002
3.035406e+003, 1.654495e-002
3.037335e+003, 1.642575e-002
3.039263e+003, 1.665304e-002
3.041192e+003, 1.702113e-002
3.043120e+003, 1.660183e-002
3.045049e+003, 1.607518e-002
3.046977e+003, 1.621107e-002
3.048906e+003, 1.628106e-002
3.050834e+003, 1.648877e-002
3.052763e+003, 1.724742e-002
3.054691e+003, 1.749498e-002
3.056620e+003, 1.799329e-002
3.058548e+003, 1.755759e-002
3.060477e+003, 1.749457e-002
3.062405e+003, 1.815638e-002
3.064333e+003, 1.730208e-002
3.066262e+003, 1.671542e-002
3.068190e+003, 1.733589e-002
3.070119e+003, 1.770705e-002
3.072047e+003, 1.760191e-002
3.073976e+003, 1.742371e-002
3.075904e+003, 1.685380e-002
3.077833e+003, 1.739662e-002
3.079761e+003, 1.875216e-002
3.081690e+003, 1.896683e-002
3.083618e+003, 1.790526e-002
3.085547e+003, 1.696668e-002
3.087475e+003, 1.702489e-002
3.089404e+003, 1.745652e-002
3.091332e+003, 1.751825e-002
3.093260e+003, 1.701535e-002
3.095189e+003, 1.764306e-002
3.097117e+003, 1.820229e-002
3.099046e+003, 1.785397e-002
3.100974e+003, 1.773048e-002
3.102903e+003, 1.715291e-002
3.104831e+003, 1.745950e-002
3.106760e+003, 1.835376e-002
3.108688e+003, 1.767988e-002
3.110617e+003, 1.647845e-002
3.112545e+003, 1.653305e-002
3.114474e+003, 1.749277e-002
3.116402e+003, 1.775722e-002
3.118331e+003, 1.780921e-002
3.120259e+003, 1.852221e-002
3.122188e+003, 1.864630e-002
3.124116e+003, 1.831868e-002
3.126044e+003, 1.741374e-002
3.127973e+003, 1.735976e-002
3.129901e+003, 1.774517e-002
3.131830e+003, 1.793548e-002
3.133758e+003, 1.784190e-002
3.135687e+003, 1.794943e-002
3.137615e+003, 1.835574e-002
3.139544e+003, 1.866231e-002
3.141472e+003, 1.895199e-002
3.143401e+003, 1.868473e-002
3.145329e+003, 1.863475e-002
3.147258e+003, 1.878400e-002
3.149186e+003, 1.808507e-002
3.151115e+003, 1.795962e-002
3.153043e+003, 1.879597e-002
3.154971e+003, 1.938916e-002
3.156900e+003, 1.931856e-002
3.158828e+003, 1.912574e-002
3.160757e+003, 1.872036e-002
3.162685e+003, 1.909833e-002
3.164614e+003, 1.881578e-002
3.166542e+003, 1.853238e-002
3.168471e+003, 1.899393e-002
3.170399e+003, 1.812423e-002
3.172328e+003, 1.782239e-002
3.174256e+003, 1.928924e-002
3.176185e+003, 1.891482e-002
3.178113e+003, 1.794894e-002
3.180042e+003, 1.832195e-002
3.181970e+003, 1.905619e-002
3.183898e+003, 1.917261e-002
3.185827e+003, 1.894403e-002
3.187755e+003, 1.790729e-002
3.189684e+003, 1.801210e-002
3.191612e+003, 1.868112e-002
3.193541e+003, 1.895384e-002
3.195469e+003, 1.909334e-002
3.197398e+003, 1.900126e-002
3.199326e+003, 1.916099e-002
3.201255e+003, 1.925710e-002
3.203183e+003, 1.848787e-002
3.205112e+003, 1.846377e-002
3.207040e+003, 1.801676e-002
3.208969e+003, 1.774077e-002
3.210897e+003, 1.864726e-002
3.212825e+003, 1.957359e-002
3.214754e+003, 1.912602e-002
3.216682e+003, 1.756703e-002
3.218611e+003, 1.765961e-002
3.220539e+003, 1.826738e-002
3.222468e+003, 1.957932e-002
3.224396e+003, 1.938327e-002
3.226325e+003, 1.918254e-002
3.228253e+003, 2.005318e-002
3.230182e+003, 1.978283e-002
3.232110e+003, 1.966354e-002
3.234039e+003, 1.998149e-002
3.235967e+003, 2.083240e-002
3.237896e+003, 2.119542e-002
3.239824e+003, 2.035330e-002
3.241752e+003, 1.950052e-002
3.243681e+003, 1.844596e-002
3.245609e+003, 1.796337e-002
3.247538e+003, 1.873811e-002
3.249466e+003, 1.910461e-002
3.251395e+003, 1.891311e-002
3.253323e+003, 1.892683e-002
3.255252e+003, 1.912829e-002
3.257180e+003, 1.998007e-002
3.259109e+003, 2.020725e-002
3.261037e+003, 1.945065e-002
3.262966e+003, 1.924420e-002
3.264894e+003, 1.949959e-002
3.266823e+003, 1.930764e-002
3.268751e+003, 1.886041e-002
3.270679e+003, 1.887514e-002
3.272608e+003, 1.991430e-002
3.274536e+003, 2.101033e-002
3.276465e+003, 2.076066e-002
3.278393e+003, 1.989443e-002
3.280322e+003, 1.967138e-002
3.282250e+003, 2.027375e-002
3.284179e+003, 2.009508e-002
3.286107e+003, 2.034376e-002
3.288036e+003, 2.097772e-002
3.289964e+003, 2.108147e-002
3.291893e+003, 2.016163e-002
3.293821e+003, 2.008488e-002
3.295750e+003, 2.056039e-002
3.297678e+003, 2.055691e-002
3.299606e+003, 2.042306e-002
3.301535e+003, 2.000610e-002
3.303463e+003, 1.984596e-002
3.305392e+003, 1.940785e-002
3.307320e+003, 1.944288e-002
3.309249e+003, 1.941126e-002
3.311177e+003, 1.961664e-002
3.313106e+003, 2.057903e-002
3.315034e+003, 2.145139e-002
3.316963e+003, 2.092919e-002
3.318891e+003, 1.962045e-002
3.320820e+003, 1.986811e-002
3.322748e+003, 2.070774e-002
3.324677e+003, 2.150428e-002
3.326605e+003, 2.075682e-002
3.328533e+003, 2.038964e-002
3.330462e+003, 1.983925e-002
3.332390e+003, 1.932707e-002
3.334319e+003, 1.984840e-002
3.336247e+003, 2.021837e-002
3.338176e+003, 2.047880e-002
3.340104e+003, 2.092843e-002
3.342033e+003, 2.111953e-002
3.343961e+003, 2.075011e-002
3.345890e+003, 1.991417e-002
3.347818e+003, 1.999432e-002
3.349747e+003, 2.121745e-002
3.351675e+003, 2.223504e-002
3.353604e+003, 2.277283e-002
3.355532e+003, 2.206016e-002
3.357460e+003, 2.150564e-002
3.359389e+003, 2.172884e-002
3.361317e+003, 2.241145e-002
3.363246e+003, 2.245633e-002
3.365174e+003, 2.182033e-002
3.367103e+003, 2.164366e-002
3.369031e+003, 2.206036e-002
3.370960e+003, 2.160412e-002
3.372888e+003, 2.109851e-002
3.374817e+003, 2.195967e-002
3.376745e+003, 2.175095e-002
3.378674e+003, 2.211186e-002
3.380602e+003, 2.281284e-002
3.382531e+003, 2.260415e-002
3.384459e+003, 2.297353e-002
3.386387e+003, 2.232129e-002
3.388316e+003, 2.199924e-002
3.390244e+003, 2.286961e-002
3.392173e+003, 2.334735e-002
3.394101e+003, 2.179717e-002
3.396030e+003, 2.159792e-002
3.397958e+003, 2.303108e-002
3.399887e+003, 2.388844e-002
3.401815e+003, 2.429789e-002
3.403744e+003, 2.372634e-002
3.405672e+003, 2.363256e-002
3.407601e+003, 2.348159e-002
3.409529e+003, 2.354331e-002
3.411458e+003, 2.380140e-002
3.413386e+003, 2.371456e-002
3.415314e+003, 2.432372e-002
3.417243e+003, 2.414884e-002
3.419171e+003, 2.436917e-002
3.421100e+003, 2.517110e-002
3.423028e+003, 2.618732e-002
3.424957e+003, 2.677541e-002
3.426885e+003, 2.629150e-002
3.428814e+003, 2.609911e-002
3.430742e+003, 2.580556e-002
3.432671e+003, 2.665724e-002
3.434599e+003, 2.711614e-002
3.436528e+003, 2.699509e-002
3.438456e+003, 2.766980e-002
3.440385e+003, 2.797707e-002
3.442313e+003, 2.863146e-002
3.444241e+003, 2.895385e-002
3.446170e+003, 2.908162e-002
3.448098e+003, 3.008183e-002
3.450027e+003, 3.141574e-002
3.451955e+003, 3.173432e-002
3.453884e+003, 3.169873e-002
3.455812e+003, 3.310271e-002
3.457741e+003, 3.298781e-002
3.459669e+003, 3.416372e-002
3.461598e+003, 3.777962e-002
3.463526e+003, 4.041275e-002
3.465455e+003, 4.243138e-002
3.467383e+003, 4.467127e-002
3.469312e+003, 4.824435e-002
3.471240e+003, 5.210493e-002
3.473168e+003, 5.625823e-002
3.475097e+003, 6.258743e-002
3.477025e+003, 7.113742e-002
3.478954e+003, 8.156203e-002
3.480882e+003, 9.387895e-002
3.482811e+003, 1.093304e-001
3.484739e+003, 1.276507e-001
3.486668e+003, 1.462731e-001
3.488596e+003, 1.617566e-001
3.490525e+003, 1.695111e-001
3.492453e+003, 1.623963e-001
3.494382e+003, 1.418046e-001
3.496310e+003, 1.148258e-001
3.498239e+003, 8.881874e-002
3.500167e+003, 6.727300e-002
3.502095e+003, 5.177609e-002
3.504024e+003, 4.136483e-002
3.505952e+003, 3.513040e-002
3.507881e+003, 3.145438e-002
3.509809e+003, 2.863472e-002
3.511738e+003, 2.584778e-002
3.513666e+003, 2.303412e-002
3.515595e+003, 2.137483e-002
3.517523e+003, 1.941583e-002
3.519452e+003, 1.883676e-002
3.521380e+003, 1.991708e-002
3.523309e+003, 1.933406e-002
3.525237e+003, 1.809002e-002
3.527166e+003, 1.707672e-002
3.529094e+003, 1.740739e-002
3.531022e+003, 1.755189e-002
3.532951e+003, 1.713261e-002
3.534879e+003, 1.660500e-002
3.536808e+003, 1.680366e-002
3.538736e+003, 1.655842e-002
3.540665e+003, 1.706447e-002
3.542593e+003, 1.741155e-002
3.544522e+003, 1.786824e-002
3.546450e+003, 1.914765e-002
3.548379e+003, 1.880320e-002
3.550307e+003, 1.774208e-002
3.552236e+003, 1.694664e-002
3.554164e+003, 1.740647e-002
3.556093e+003, 1.808951e-002
3.558021e+003, 1.829708e-002
3.559949e+003, 1.819199e-002
3.561878e+003, 1.879669e-002
3.563806e+003, 1.963397e-002
3.565735e+003, 1.952730e-002
3.567663e+003, 2.002357e-002
3.569592e+003, 2.174207e-002
3.571520e+003, 2.383421e-002
3.573449e+003, 2.561075e-002
3.575377e+003, 2.745080e-002
3.577306e+003, 2.894455e-002
3.579234e+003, 2.736659e-002
3.581163e+003, 2.392484e-002
3.583091e+003, 2.235200e-002
3.585020e+003, 2.252744e-002
3.586948e+003, 2.182360e-002
3.588876e+003, 2.129121e-002
3.590805e+003, 2.107678e-002
3.592733e+003, 2.041343e-002
3.594662e+003, 1.989278e-002
3.596590e+003, 1.962420e-002
3.598519e+003, 1.923257e-002
3.600447e+003, 1.894950e-002
3.602376e+003, 1.975390e-002
3.604304e+003, 2.057144e-002
3.606233e+003, 1.933517e-002
3.608161e+003, 1.833700e-002
3.610090e+003, 1.823987e-002
3.612018e+003, 1.749243e-002
3.613947e+003, 1.694191e-002
3.615875e+003, 1.721109e-002
3.617803e+003, 1.820727e-002
3.619732e+003, 1.733645e-002
3.621660e+003, 1.660295e-002
3.623589e+003, 1.742418e-002
3.625517e+003, 1.781511e-002
3.627446e+003, 1.719864e-002
3.629374e+003, 1.846377e-002
3.631303e+003, 1.983633e-002
3.633231e+003, 1.869946e-002
3.635160e+003, 1.856689e-002
3.637088e+003, 1.940285e-002
3.639017e+003, 1.897260e-002
3.640945e+003, 1.713254e-002
3.642874e+003, 1.668050e-002
3.644802e+003, 1.742030e-002
3.646730e+003, 1.797017e-002
3.648659e+003, 1.904489e-002
3.650587e+003, 1.846766e-002
3.652516e+003, 1.809830e-002
3.654444e+003, 1.829571e-002
3.656373e+003, 1.697442e-002
3.658301e+003, 1.691689e-002
3.660230e+003, 1.729704e-002
3.662158e+003, 1.688452e-002
3.664087e+003, 1.689100e-002
3.666015e+003, 1.754163e-002
3.667944e+003, 1.655865e-002
3.669872e+003, 1.671146e-002
3.671801e+003, 1.797629e-002
3.673729e+003, 1.853373e-002
3.675657e+003, 1.775143e-002
3.677586e+003, 1.792840e-002
3.679514e+003, 1.718711e-002
3.681443e+003, 1.816428e-002
3.683371e+003, 1.887049e-002
3.685300e+003, 1.810155e-002
3.687228e+003, 1.776301e-002
3.689157e+003, 1.725834e-002
3.691085e+003, 1.677309e-002
3.693014e+003, 1.722914e-002
3.694942e+003, 1.671546e-002
3.696871e+003, 1.700367e-002
3.698799e+003, 1.669524e-002
3.700728e+003, 1.534442e-002
3.702656e+003, 1.577849e-002
3.704584e+003, 1.634456e-002
3.706513e+003, 1.700264e-002
3.708441e+003, 1.795965e-002
3.710370e+003, 1.876429e-002
3.712298e+003, 1.735789e-002
3.714227e+003, 1.638987e-002
3.716155e+003, 1.758133e-002
3.718084e+003, 1.734032e-002
3.720012e+003, 1.626237e-002
3.721941e+003, 1.628793e-002
3.723869e+003, 1.783409e-002
3.725798e+003, 1.772835e-002
3.727726e+003, 1.727710e-002
3.729655e+003, 1.867207e-002
3.731583e+003, 1.811463e-002
3.733511e+003, 1.750458e-002
3.735440e+003, 1.718512e-002
3.737368e+003, 1.736761e-002
3.739297e+003, 1.767658e-002
3.741225e+003, 1.652970e-002
3.743154e+003, 1.611252e-002
3.745082e+003, 1.610498e-002
3.747011e+003, 1.711055e-002
3.748939e+003, 1.734182e-002
3.750868e+003, 1.761200e-002
3.752796e+003, 1.661668e-002
3.754725e+003, 1.711907e-002
3.756653e+003, 1.799622e-002
3.758582e+003, 1.793912e-002
3.760510e+003, 1.706359e-002
3.762438e+003, 1.647138e-002
3.764367e+003, 1.661042e-002
3.766295e+003, 1.787966e-002
3.768224e+003, 1.892502e-002
3.770152e+003, 1.881891e-002
3.772081e+003, 1.795637e-002
3.774009e+003, 1.712553e-002
3.775938e+003, 1.744551e-002
3.777866e+003, 1.867293e-002
3.779795e+003, 1.888445e-002
3.781723e+003, 1.873313e-002
3.783652e+003, 1.956128e-002
3.785580e+003, 1.952660e-002
3.787509e+003, 1.762711e-002
3.789437e+003, 1.587200e-002
3.791365e+003, 1.751238e-002
3.793294e+003, 1.967054e-002
3.795222e+003, 1.934942e-002
3.797151e+003, 1.892378e-002
3.799079e+003, 2.007606e-002
3.801008e+003, 2.013080e-002
3.802936e+003, 1.866275e-002
3.804865e+003, 1.851974e-002
3.806793e+003, 1.759281e-002
3.808722e+003, 1.769653e-002
3.810650e+003, 1.931101e-002
3.812579e+003, 1.894218e-002
3.814507e+003, 1.892643e-002
3.816436e+003, 1.820664e-002
3.818364e+003, 1.871741e-002
3.820292e+003, 1.876855e-002
3.822221e+003, 1.824486e-002
3.824149e+003, 1.879900e-002
3.826078e+003, 1.789617e-002
3.828006e+003, 1.742628e-002
3.829935e+003, 1.855592e-002
3.831863e+003, 1.940584e-002
3.833792e+003, 1.966719e-002
3.835720e+003, 1.949564e-002
3.837649e+003, 1.879707e-002
3.839577e+003, 1.788605e-002
3.841506e+003, 1.886721e-002
3.843434e+003, 1.902472e-002
3.845363e+003, 1.891395e-002
3.847291e+003, 1.837960e-002
3.849219e+003, 1.768353e-002
3.851148e+003, 1.856978e-002
3.853076e+003, 1.851518e-002
3.855005e+003, 1.697035e-002
3.856933e+003, 1.724193e-002
3.858862e+003, 1.754203e-002
3.860790e+003, 1.801208e-002
3.862719e+003, 1.790263e-002
3.864647e+003, 1.802800e-002
3.866576e+003, 1.762166e-002
3.868504e+003, 1.841688e-002
3.870433e+003, 1.862397e-002
3.872361e+003, 1.847094e-002
3.874290e+003, 1.858844e-002
3.876218e+003, 1.971316e-002
3.878146e+003, 1.897947e-002
3.880075e+003, 1.761997e-002
3.882003e+003, 1.892886e-002
3.883932e+003, 2.003595e-002
3.885860e+003, 1.986563e-002
3.887789e+003, 1.893700e-002
3.889717e+003, 1.894654e-002
3.891646e+003, 1.907724e-002
3.893574e+003, 1.770180e-002
3.895503e+003, 1.700673e-002
3.897431e+003, 1.757262e-002
3.899360e+003, 1.739438e-002
3.901288e+003, 1.832780e-002
3.903217e+003, 1.873874e-002
3.905145e+003, 1.850348e-002
3.907073e+003, 1.951476e-002
3.909002e+003, 1.985898e-002
3.910930e+003, 1.961780e-002
3.912859e+003, 1.990895e-002
3.914787e+003, 1.966059e-002
3.916716e+003, 1.909652e-002
3.918644e+003, 1.854415e-002
3.920573e+003, 1.884438e-002
3.922501e+003, 1.842877e-002
3.924430e+003, 1.874379e-002
3.926358e+003, 1.916602e-002
3.928287e+003, 1.830518e-002
3.930215e+003, 1.721869e-002
3.932144e+003, 1.804699e-002
3.934072e+003, 1.843220e-002
3.936000e+003, 1.808444e-002
3.937929e+003, 1.819650e-002
3.939857e+003, 1.864817e-002
3.941786e+003, 1.828245e-002
3.943714e+003, 1.771590e-002
3.945643e+003, 1.814782e-002
3.947571e+003, 1.746999e-002
3.949500e+003, 1.718676e-002
3.951428e+003, 1.895737e-002
3.953357e+003, 1.990999e-002
3.955285e+003, 1.944084e-002
3.957214e+003, 2.031302e-002
3.959142e+003, 2.144347e-002
3.961071e+003, 2.049788e-002
3.962999e+003, 1.875461e-002
3.964927e+003, 1.985893e-002
3.966856e+003, 2.120182e-002
3.968784e+003, 2.127498e-002
3.970713e+003, 2.116804e-002
3.972641e+003, 2.133385e-002
3.974570e+003, 2.102269e-002
3.976498e+003, 1.923335e-002
3.978427e+003, 1.839877e-002
3.980355e+003, 1.816319e-002
3.982284e+003, 1.812360e-002
3.984212e+003, 1.918210e-002
3.986141e+003, 1.986464e-002
3.988069e+003, 1.947516e-002
3.989998e+003, 1.932231e-002
3.991926e+003, 2.025172e-002
3.993854e+003, 2.092016e-002
3.995783e+003, 2.110552e-002
3.997711e+003, 2.144803e-002
3.999640e+003, 2.145973e-002
4.001568e+003, 0.000000e+000
##END=



