##NAMES=Descloizite
##RRUFFID=R050037
##IDEAL CHEMISTRY=Pb^2+^Zn^2+^V^5+^O_4_(OH)
##LOCALITY=Berg Aukas mine, Namibia
##OWNER=RRUFF
##SOURCE=Eugene Schlepp
##DESCRIPTION=Group of brown thin tabular single crystals
##STATUS=The identification of this mineral has been confirmed by X-ray diffraction and chemical analysis
##URL=rruff.info/R050037
##MEASURED CHEMISTRY=Pb_1.00_(Zn_0.98_Cu_0.02_)_Σ=1_((V_0.98_As_0.02_)_Σ=1_O_4_)(OH) ; OH estimated by difference and stoichiometry
3.991926e+002, 0.000000e+000
4.011211e+002, 1.320450e-001
4.030496e+002, 1.327240e-001
4.049780e+002, 1.339713e-001
4.069065e+002, 1.378993e-001
4.088350e+002, 1.331125e-001
4.107634e+002, 1.249450e-001
4.126919e+002, 1.228178e-001
4.146204e+002, 1.210945e-001
4.165488e+002, 1.198197e-001
4.184773e+002, 1.218750e-001
4.204058e+002, 1.231034e-001
4.223342e+002, 1.242993e-001
4.242627e+002, 1.258531e-001
4.261912e+002, 1.305982e-001
4.281196e+002, 1.360242e-001
4.300481e+002, 1.428436e-001
4.319766e+002, 1.490023e-001
4.339050e+002, 1.532837e-001
4.358335e+002, 1.587504e-001
4.377620e+002, 1.652036e-001
4.396904e+002, 1.719773e-001
4.416189e+002, 1.792605e-001
4.435474e+002, 1.867630e-001
4.454758e+002, 1.927115e-001
4.474043e+002, 1.980719e-001
4.493328e+002, 2.011843e-001
4.512612e+002, 2.017635e-001
4.531897e+002, 2.004915e-001
4.551182e+002, 1.976395e-001
4.570466e+002, 1.916511e-001
4.589751e+002, 1.813160e-001
4.609036e+002, 1.691721e-001
4.628320e+002, 1.567517e-001
4.647605e+002, 1.437332e-001
4.666890e+002, 1.307529e-001
4.686174e+002, 1.197783e-001
4.705459e+002, 1.106661e-001
4.724744e+002, 1.033339e-001
4.744028e+002, 9.701902e-002
4.763313e+002, 9.325451e-002
4.782598e+002, 9.254259e-002
4.801882e+002, 9.200991e-002
4.821167e+002, 9.157646e-002
4.840452e+002, 9.237541e-002
4.859736e+002, 9.494761e-002
4.879021e+002, 9.836704e-002
4.898306e+002, 1.009658e-001
4.917590e+002, 1.037554e-001
4.936875e+002, 1.084120e-001
4.956160e+002, 1.131750e-001
4.975444e+002, 1.166440e-001
4.994729e+002, 1.208725e-001
5.014014e+002, 1.253484e-001
5.033298e+002, 1.292594e-001
5.052583e+002, 1.341482e-001
5.071868e+002, 1.387875e-001
5.091152e+002, 1.419035e-001
5.110437e+002, 1.436037e-001
5.129722e+002, 1.438405e-001
5.149006e+002, 1.434845e-001
5.168291e+002, 1.448756e-001
5.187576e+002, 1.469853e-001
5.206860e+002, 1.486377e-001
5.226145e+002, 1.513810e-001
5.245430e+002, 1.563104e-001
5.264714e+002, 1.609139e-001
5.283999e+002, 1.646180e-001
5.303284e+002, 1.679795e-001
5.322568e+002, 1.712806e-001
5.341853e+002, 1.743266e-001
5.361138e+002, 1.759481e-001
5.380422e+002, 1.784635e-001
5.399707e+002, 1.815634e-001
5.418992e+002, 1.842008e-001
5.438276e+002, 1.873673e-001
5.457561e+002, 1.905501e-001
5.476846e+002, 1.929136e-001
5.496130e+002, 1.962424e-001
5.515415e+002, 1.996169e-001
5.534700e+002, 2.008203e-001
5.553984e+002, 2.026171e-001
5.573269e+002, 2.051639e-001
5.592554e+002, 2.074028e-001
5.611838e+002, 2.097840e-001
5.631123e+002, 2.125743e-001
5.650408e+002, 2.150769e-001
5.669692e+002, 2.174251e-001
5.688977e+002, 2.194422e-001
5.708262e+002, 2.217155e-001
5.727546e+002, 2.249637e-001
5.746831e+002, 2.272843e-001
5.766116e+002, 2.292915e-001
5.785400e+002, 2.321361e-001
5.804685e+002, 2.349399e-001
5.823970e+002, 2.375038e-001
5.843254e+002, 2.391367e-001
5.862539e+002, 2.406787e-001
5.881824e+002, 2.432719e-001
5.901108e+002, 2.456629e-001
5.920393e+002, 2.476199e-001
5.939678e+002, 2.501411e-001
5.958962e+002, 2.530182e-001
5.978247e+002, 2.556073e-001
5.997532e+002, 2.576265e-001
6.016816e+002, 2.598546e-001
6.036101e+002, 2.623570e-001
6.055386e+002, 2.650572e-001
6.074670e+002, 2.679701e-001
6.093955e+002, 2.702518e-001
6.113240e+002, 2.727581e-001
6.132524e+002, 2.750387e-001
6.151809e+002, 2.770800e-001
6.171094e+002, 2.792489e-001
6.190378e+002, 2.819822e-001
6.209663e+002, 2.843767e-001
6.228948e+002, 2.861609e-001
6.248232e+002, 2.880851e-001
6.267517e+002, 2.908806e-001
6.286802e+002, 2.938217e-001
6.306086e+002, 2.959735e-001
6.325371e+002, 2.983479e-001
6.344656e+002, 3.009184e-001
6.363940e+002, 3.031077e-001
6.383225e+002, 3.053516e-001
6.402510e+002, 3.072089e-001
6.421794e+002, 3.091679e-001
6.441079e+002, 3.112387e-001
6.460364e+002, 3.138951e-001
6.479648e+002, 3.166987e-001
6.498933e+002, 3.187257e-001
6.518218e+002, 3.209349e-001
6.537502e+002, 3.236719e-001
6.556787e+002, 3.256309e-001
6.576072e+002, 3.273504e-001
6.595356e+002, 3.293694e-001
6.614641e+002, 3.316779e-001
6.633926e+002, 3.346838e-001
6.653210e+002, 3.370245e-001
6.672495e+002, 3.384450e-001
6.691780e+002, 3.399463e-001
6.711064e+002, 3.414520e-001
6.730349e+002, 3.436192e-001
6.749634e+002, 3.459913e-001
6.768918e+002, 3.479071e-001
6.788203e+002, 3.492153e-001
6.807488e+002, 3.501573e-001
6.826772e+002, 3.503635e-001
6.846057e+002, 3.509786e-001
6.865342e+002, 3.516462e-001
6.884626e+002, 3.515176e-001
6.903911e+002, 3.512762e-001
6.923196e+002, 3.509666e-001
6.942480e+002, 3.499328e-001
6.961765e+002, 3.492584e-001
6.981050e+002, 3.485773e-001
7.000334e+002, 3.476743e-001
7.019619e+002, 3.467526e-001
7.038904e+002, 3.458596e-001
7.058188e+002, 3.441579e-001
7.077473e+002, 3.417687e-001
7.096758e+002, 3.399061e-001
7.116042e+002, 3.383371e-001
7.135327e+002, 3.363125e-001
7.154612e+002, 3.335521e-001
7.173896e+002, 3.300157e-001
7.193181e+002, 3.265497e-001
7.212466e+002, 3.234275e-001
7.231750e+002, 3.195307e-001
7.251035e+002, 3.152954e-001
7.270320e+002, 3.112085e-001
7.289604e+002, 3.064714e-001
7.308889e+002, 3.014263e-001
7.328174e+002, 2.962054e-001
7.347458e+002, 2.910791e-001
7.366743e+002, 2.860797e-001
7.386028e+002, 2.814928e-001
7.405313e+002, 2.756282e-001
7.424597e+002, 2.687406e-001
7.443882e+002, 2.617279e-001
7.463167e+002, 2.540455e-001
7.482451e+002, 2.456577e-001
7.501736e+002, 2.371213e-001
7.521021e+002, 2.283599e-001
7.540305e+002, 2.188872e-001
7.559590e+002, 2.094669e-001
7.578875e+002, 2.003531e-001
7.598159e+002, 1.916296e-001
7.617444e+002, 1.834162e-001
7.636729e+002, 1.756913e-001
7.656013e+002, 1.686510e-001
7.675298e+002, 1.626139e-001
7.694583e+002, 1.570822e-001
7.713867e+002, 1.513773e-001
7.733152e+002, 1.452133e-001
7.752437e+002, 1.386545e-001
7.771721e+002, 1.317096e-001
7.791006e+002, 1.244057e-001
7.810291e+002, 1.169016e-001
7.829575e+002, 1.092272e-001
7.848860e+002, 1.019388e-001
7.868145e+002, 9.531063e-002
7.887429e+002, 8.966307e-002
7.906714e+002, 8.480953e-002
7.925999e+002, 8.076032e-002
7.945283e+002, 7.765683e-002
7.964568e+002, 7.503363e-002
7.983853e+002, 7.247539e-002
8.003137e+002, 7.044019e-002
8.022422e+002, 6.927296e-002
8.041707e+002, 6.885099e-002
8.060991e+002, 6.900703e-002
8.080276e+002, 6.963804e-002
8.099561e+002, 7.095327e-002
8.118845e+002, 7.288845e-002
8.138130e+002, 7.563829e-002
8.157415e+002, 7.891365e-002
8.176699e+002, 8.249404e-002
8.195984e+002, 8.670524e-002
8.215269e+002, 9.142888e-002
8.234553e+002, 9.660619e-002
8.253838e+002, 1.026424e-001
8.273123e+002, 1.094337e-001
8.292407e+002, 1.172948e-001
8.311692e+002, 1.263969e-001
8.330977e+002, 1.364903e-001
8.350261e+002, 1.479222e-001
8.369546e+002, 1.604317e-001
8.388831e+002, 1.731424e-001
8.408115e+002, 1.866911e-001
8.427400e+002, 2.008625e-001
8.446685e+002, 2.151195e-001
8.465969e+002, 2.285902e-001
8.485254e+002, 2.395680e-001
8.504539e+002, 2.464636e-001
8.523823e+002, 2.486706e-001
8.543108e+002, 2.459489e-001
8.562393e+002, 2.385190e-001
8.581677e+002, 2.277296e-001
8.600962e+002, 2.148999e-001
8.620247e+002, 2.006962e-001
8.639531e+002, 1.861219e-001
8.658816e+002, 1.717131e-001
8.678101e+002, 1.582105e-001
8.697385e+002, 1.452928e-001
8.716670e+002, 1.326622e-001
8.735955e+002, 1.201927e-001
8.755239e+002, 1.077970e-001
8.774524e+002, 9.543265e-002
8.793809e+002, 8.396177e-002
8.813093e+002, 7.382292e-002
8.832378e+002, 6.663409e-002
8.851663e+002, 6.334755e-002
8.870947e+002, 6.221730e-002
8.890232e+002, 6.149639e-002
8.909517e+002, 6.119448e-002
8.928801e+002, 6.113657e-002
8.948085e+002, 6.196989e-002
8.967370e+002, 6.421718e-002
8.986655e+002, 6.779397e-002
9.005939e+002, 7.180749e-002
9.025224e+002, 7.603633e-002
9.044509e+002, 8.137837e-002
9.063793e+002, 8.834605e-002
9.083078e+002, 9.615289e-002
9.102363e+002, 1.038373e-001
9.121647e+002, 1.106012e-001
9.140932e+002, 1.148168e-001
9.160217e+002, 1.155971e-001
9.179501e+002, 1.132497e-001
9.198786e+002, 1.081415e-001
9.218071e+002, 1.009096e-001
9.237355e+002, 9.197247e-002
9.256640e+002, 8.218547e-002
9.275925e+002, 7.189927e-002
9.295209e+002, 6.196548e-002
9.314494e+002, 5.302721e-002
9.333779e+002, 4.536187e-002
9.353063e+002, 3.942776e-002
9.372348e+002, 3.482661e-002
9.391633e+002, 3.171982e-002
9.410917e+002, 2.962222e-002
9.430202e+002, 2.774944e-002
9.449487e+002, 2.655374e-002
9.468771e+002, 2.570382e-002
9.488056e+002, 2.511941e-002
9.507341e+002, 2.484375e-002
9.526625e+002, 2.463809e-002
9.545910e+002, 2.462082e-002
9.565195e+002, 2.476690e-002
9.584479e+002, 2.467833e-002
9.603764e+002, 2.439910e-002
9.623049e+002, 2.407644e-002
9.642333e+002, 2.423885e-002
9.661618e+002, 2.421125e-002
9.680903e+002, 2.422889e-002
9.700187e+002, 2.429534e-002
9.719472e+002, 2.411484e-002
9.738757e+002, 2.350685e-002
9.758041e+002, 2.257967e-002
9.777326e+002, 2.151674e-002
9.796611e+002, 2.045267e-002
9.815895e+002, 1.956674e-002
9.835180e+002, 1.893887e-002
9.854465e+002, 1.862879e-002
9.873749e+002, 1.847668e-002
9.893034e+002, 1.819230e-002
9.912319e+002, 1.819087e-002
9.931603e+002, 1.826262e-002
9.950888e+002, 1.812485e-002
9.970173e+002, 1.818920e-002
9.989457e+002, 1.815602e-002
1.000874e+003, 1.800109e-002
1.002803e+003, 1.817662e-002
1.004731e+003, 1.842389e-002
1.006660e+003, 1.888172e-002
1.008588e+003, 1.941556e-002
1.010517e+003, 1.947672e-002
1.012445e+003, 1.969939e-002
1.014373e+003, 2.022567e-002
1.016302e+003, 2.073212e-002
1.018230e+003, 2.109526e-002
1.020159e+003, 2.139767e-002
1.022087e+003, 2.173064e-002
1.024016e+003, 2.197742e-002
1.025944e+003, 2.206868e-002
1.027873e+003, 2.209940e-002
1.029801e+003, 2.178092e-002
1.031730e+003, 2.159594e-002
1.033658e+003, 2.201030e-002
1.035587e+003, 2.202070e-002
1.037515e+003, 2.197399e-002
1.039444e+003, 2.212395e-002
1.041372e+003, 2.224766e-002
1.043301e+003, 2.237774e-002
1.045229e+003, 2.274235e-002
1.047157e+003, 2.296646e-002
1.049086e+003, 2.281726e-002
1.051014e+003, 2.272910e-002
1.052943e+003, 2.307326e-002
1.054871e+003, 2.337759e-002
1.056800e+003, 2.341769e-002
1.058728e+003, 2.344762e-002
1.060657e+003, 2.335267e-002
1.062585e+003, 2.364273e-002
1.064514e+003, 2.410492e-002
1.066442e+003, 2.421997e-002
1.068371e+003, 2.433435e-002
1.070299e+003, 2.452167e-002
1.072228e+003, 2.471396e-002
1.074156e+003, 2.497939e-002
1.076084e+003, 2.545444e-002
1.078013e+003, 2.585698e-002
1.079941e+003, 2.608380e-002
1.081870e+003, 2.634430e-002
1.083798e+003, 2.641905e-002
1.085727e+003, 2.643234e-002
1.087655e+003, 2.641979e-002
1.089584e+003, 2.670365e-002
1.091512e+003, 2.725717e-002
1.093441e+003, 2.755723e-002
1.095369e+003, 2.764179e-002
1.097298e+003, 2.791818e-002
1.099226e+003, 2.812101e-002
1.101155e+003, 2.824688e-002
1.103083e+003, 2.870025e-002
1.105011e+003, 2.907644e-002
1.106940e+003, 2.953826e-002
1.108868e+003, 3.010055e-002
1.110797e+003, 3.012952e-002
1.112725e+003, 3.011268e-002
1.114654e+003, 3.059351e-002
1.116582e+003, 3.103285e-002
1.118511e+003, 3.136965e-002
1.120439e+003, 3.172427e-002
1.122368e+003, 3.174809e-002
1.124296e+003, 3.222936e-002
1.126225e+003, 3.271210e-002
1.128153e+003, 3.279980e-002
1.130082e+003, 3.304511e-002
1.132010e+003, 3.325287e-002
1.133938e+003, 3.349039e-002
1.135867e+003, 3.361118e-002
1.137795e+003, 3.381741e-002
1.139724e+003, 3.426401e-002
1.141652e+003, 3.493628e-002
1.143581e+003, 3.539878e-002
1.145509e+003, 3.521610e-002
1.147438e+003, 3.510477e-002
1.149366e+003, 3.575548e-002
1.151295e+003, 3.644143e-002
1.153223e+003, 3.667015e-002
1.155152e+003, 3.691388e-002
1.157080e+003, 3.724217e-002
1.159009e+003, 3.752955e-002
1.160937e+003, 3.800900e-002
1.162865e+003, 3.848349e-002
1.164794e+003, 3.892723e-002
1.166722e+003, 3.933542e-002
1.168651e+003, 3.949353e-002
1.170579e+003, 3.966011e-002
1.172508e+003, 4.016129e-002
1.174436e+003, 4.055013e-002
1.176365e+003, 4.083385e-002
1.178293e+003, 4.128882e-002
1.180222e+003, 4.181601e-002
1.182150e+003, 4.220342e-002
1.184079e+003, 4.215532e-002
1.186007e+003, 4.242388e-002
1.187936e+003, 4.314465e-002
1.189864e+003, 4.365352e-002
1.191792e+003, 4.416753e-002
1.193721e+003, 4.454764e-002
1.195649e+003, 4.482069e-002
1.197578e+003, 4.527510e-002
1.199506e+003, 4.558794e-002
1.201435e+003, 4.582357e-002
1.203363e+003, 4.611780e-002
1.205292e+003, 4.659139e-002
1.207220e+003, 4.720865e-002
1.209149e+003, 4.762083e-002
1.211077e+003, 4.804080e-002
1.213006e+003, 4.849374e-002
1.214934e+003, 4.913503e-002
1.216863e+003, 4.962081e-002
1.218791e+003, 4.984140e-002
1.220719e+003, 5.010826e-002
1.222648e+003, 5.036338e-002
1.224576e+003, 5.094691e-002
1.226505e+003, 5.148088e-002
1.228433e+003, 5.175228e-002
1.230362e+003, 5.207910e-002
1.232290e+003, 5.256962e-002
1.234219e+003, 5.315220e-002
1.236147e+003, 5.367780e-002
1.238076e+003, 5.407958e-002
1.240004e+003, 5.432820e-002
1.241933e+003, 5.470065e-002
1.243861e+003, 5.505424e-002
1.245790e+003, 5.566034e-002
1.247718e+003, 5.618886e-002
1.249646e+003, 5.663990e-002
1.251575e+003, 5.727846e-002
1.253503e+003, 5.764167e-002
1.255432e+003, 5.789245e-002
1.257360e+003, 5.840750e-002
1.259289e+003, 5.883053e-002
1.261217e+003, 5.901696e-002
1.263146e+003, 5.950935e-002
1.265074e+003, 5.997066e-002
1.267003e+003, 6.034375e-002
1.268931e+003, 6.101825e-002
1.270860e+003, 6.174612e-002
1.272788e+003, 6.238592e-002
1.274717e+003, 6.315693e-002
1.276645e+003, 6.401224e-002
1.278573e+003, 6.459244e-002
1.280502e+003, 6.504915e-002
1.282430e+003, 6.524368e-002
1.284359e+003, 6.500564e-002
1.286287e+003, 6.504664e-002
1.288216e+003, 6.552354e-002
1.290144e+003, 6.588887e-002
1.292073e+003, 6.642895e-002
1.294001e+003, 6.700915e-002
1.295930e+003, 6.735665e-002
1.297858e+003, 6.782253e-002
1.299787e+003, 6.853514e-002
1.301715e+003, 6.898285e-002
1.303644e+003, 6.934854e-002
1.305572e+003, 6.983013e-002
1.307500e+003, 7.061612e-002
1.309429e+003, 7.121493e-002
1.311357e+003, 7.135832e-002
1.313286e+003, 7.187775e-002
1.315214e+003, 7.266080e-002
1.317143e+003, 7.295153e-002
1.319071e+003, 7.311308e-002
1.321000e+003, 7.368436e-002
1.322928e+003, 7.446235e-002
1.324857e+003, 7.501137e-002
1.326785e+003, 7.571405e-002
1.328714e+003, 7.593547e-002
1.330642e+003, 7.649300e-002
1.332571e+003, 7.739192e-002
1.334499e+003, 7.804120e-002
1.336427e+003, 7.867533e-002
1.338356e+003, 7.921735e-002
1.340284e+003, 7.966188e-002
1.342213e+003, 8.038680e-002
1.344141e+003, 8.110153e-002
1.346070e+003, 8.189993e-002
1.347998e+003, 8.265537e-002
1.349927e+003, 8.339435e-002
1.351855e+003, 8.401532e-002
1.353784e+003, 8.452474e-002
1.355712e+003, 8.501736e-002
1.357641e+003, 8.584423e-002
1.359569e+003, 8.652144e-002
1.361498e+003, 8.705673e-002
1.363426e+003, 8.803391e-002
1.365354e+003, 8.909551e-002
1.367283e+003, 8.977590e-002
1.369211e+003, 9.051486e-002
1.371140e+003, 9.149423e-002
1.373068e+003, 9.236396e-002
1.374997e+003, 9.292495e-002
1.376925e+003, 9.412879e-002
1.378854e+003, 9.534228e-002
1.380782e+003, 9.630720e-002
1.382711e+003, 9.692436e-002
1.384639e+003, 9.781080e-002
1.386568e+003, 9.897712e-002
1.388496e+003, 9.983163e-002
1.390424e+003, 1.011403e-001
1.392353e+003, 1.021670e-001
1.394281e+003, 1.029472e-001
1.396210e+003, 1.038957e-001
1.398138e+003, 1.051328e-001
1.400067e+003, 1.059516e-001
1.401995e+003, 1.070634e-001
1.403924e+003, 1.081466e-001
1.405852e+003, 1.090529e-001
1.407781e+003, 1.100309e-001
1.409709e+003, 1.105148e-001
1.411638e+003, 1.113029e-001
1.413566e+003, 1.122694e-001
1.415495e+003, 1.130973e-001
1.417423e+003, 1.140957e-001
1.419351e+003, 1.150294e-001
1.421280e+003, 1.161661e-001
1.423208e+003, 1.176194e-001
1.425137e+003, 1.186476e-001
1.427065e+003, 1.192506e-001
1.428994e+003, 1.200585e-001
1.430922e+003, 1.208119e-001
1.432851e+003, 1.215343e-001
1.434779e+003, 1.222113e-001
1.436708e+003, 1.224665e-001
1.438636e+003, 1.228853e-001
1.440565e+003, 1.232442e-001
1.442493e+003, 1.232799e-001
1.444422e+003, 1.233177e-001
1.446350e+003, 1.237040e-001
1.448278e+003, 1.239826e-001
1.450207e+003, 1.244313e-001
1.452135e+003, 1.243465e-001
1.454064e+003, 1.240264e-001
1.455992e+003, 1.234168e-001
1.457921e+003, 1.225677e-001
1.459849e+003, 1.230544e-001
1.461778e+003, 1.227874e-001
1.463706e+003, 1.224181e-001
1.465635e+003, 1.214082e-001
1.467563e+003, 1.213629e-001
1.469492e+003, 1.209634e-001
1.471420e+003, 1.200760e-001
1.473349e+003, 1.186586e-001
1.475277e+003, 1.184259e-001
1.477205e+003, 1.177820e-001
1.479134e+003, 1.173519e-001
1.481062e+003, 1.168366e-001
1.482991e+003, 1.162954e-001
1.484919e+003, 1.155696e-001
1.486848e+003, 1.147467e-001
1.488776e+003, 1.137831e-001
1.490705e+003, 1.129735e-001
1.492633e+003, 1.128044e-001
1.494562e+003, 1.121094e-001
1.496490e+003, 1.109593e-001
1.498419e+003, 1.103230e-001
1.500347e+003, 1.097992e-001
1.502276e+003, 1.093822e-001
1.504204e+003, 1.084152e-001
1.506132e+003, 1.068024e-001
1.508061e+003, 1.061293e-001
1.509989e+003, 1.064720e-001
1.511918e+003, 1.061830e-001
1.513846e+003, 1.055615e-001
1.515775e+003, 1.049357e-001
1.517703e+003, 1.041212e-001
1.519632e+003, 1.045900e-001
1.521560e+003, 1.039655e-001
1.523489e+003, 1.042850e-001
1.525417e+003, 1.044110e-001
1.527346e+003, 1.042677e-001
1.529274e+003, 1.041635e-001
1.531203e+003, 1.042098e-001
1.533131e+003, 1.040053e-001
1.535059e+003, 1.041294e-001
1.536988e+003, 1.046750e-001
1.538916e+003, 1.038229e-001
1.540845e+003, 1.029198e-001
1.542773e+003, 1.034098e-001
1.544702e+003, 1.047129e-001
1.546630e+003, 1.049250e-001
1.548559e+003, 1.049039e-001
1.550487e+003, 1.045607e-001
1.552416e+003, 1.049255e-001
1.554344e+003, 1.049962e-001
1.556273e+003, 1.051928e-001
1.558201e+003, 1.044639e-001
1.560130e+003, 1.040524e-001
1.562058e+003, 1.051250e-001
1.563986e+003, 1.054837e-001
1.565915e+003, 1.057227e-001
1.567843e+003, 1.063733e-001
1.569772e+003, 1.056004e-001
1.571700e+003, 1.054610e-001
1.573629e+003, 1.055174e-001
1.575557e+003, 1.055669e-001
1.577486e+003, 1.055814e-001
1.579414e+003, 1.068939e-001
1.581343e+003, 1.073131e-001
1.583271e+003, 1.073378e-001
1.585200e+003, 1.074388e-001
1.587128e+003, 1.078621e-001
1.589057e+003, 1.086173e-001
1.590985e+003, 1.089087e-001
1.592913e+003, 1.088614e-001
1.594842e+003, 1.090577e-001
1.596770e+003, 1.089952e-001
1.598699e+003, 1.093372e-001
1.600627e+003, 1.096851e-001
1.602556e+003, 1.098564e-001
1.604484e+003, 1.101766e-001
1.606413e+003, 1.103553e-001
1.608341e+003, 1.105775e-001
1.610270e+003, 1.109277e-001
1.612198e+003, 1.111862e-001
1.614127e+003, 1.111559e-001
1.616055e+003, 1.112009e-001
1.617984e+003, 1.108193e-001
1.619912e+003, 1.118610e-001
1.621840e+003, 1.118052e-001
1.623769e+003, 1.115875e-001
1.625697e+003, 1.123509e-001
1.627626e+003, 1.128673e-001
1.629554e+003, 1.131216e-001
1.631483e+003, 1.135255e-001
1.633411e+003, 1.134552e-001
1.635340e+003, 1.125625e-001
1.637268e+003, 1.130511e-001
1.639197e+003, 1.141488e-001
1.641125e+003, 1.145943e-001
1.643054e+003, 1.150294e-001
1.644982e+003, 1.151346e-001
1.646911e+003, 1.143647e-001
1.648839e+003, 1.149000e-001
1.650767e+003, 1.155197e-001
1.652696e+003, 1.149350e-001
1.654624e+003, 1.150242e-001
1.656553e+003, 1.167071e-001
1.658481e+003, 1.169550e-001
1.660410e+003, 1.172943e-001
1.662338e+003, 1.179120e-001
1.664267e+003, 1.180483e-001
1.666195e+003, 1.179834e-001
1.668124e+003, 1.182516e-001
1.670052e+003, 1.184010e-001
1.671981e+003, 1.190663e-001
1.673909e+003, 1.193852e-001
1.675838e+003, 1.188611e-001
1.677766e+003, 1.199950e-001
1.679694e+003, 1.203769e-001
1.681623e+003, 1.203127e-001
1.683551e+003, 1.200295e-001
1.685480e+003, 1.196156e-001
1.687408e+003, 1.213970e-001
1.689337e+003, 1.220506e-001
1.691265e+003, 1.225458e-001
1.693194e+003, 1.229324e-001
1.695122e+003, 1.228127e-001
1.697051e+003, 1.221400e-001
1.698979e+003, 1.236919e-001
1.700908e+003, 1.226753e-001
1.702836e+003, 1.242776e-001
1.704765e+003, 1.242970e-001
1.706693e+003, 1.240512e-001
1.708621e+003, 1.244771e-001
1.710550e+003, 1.244319e-001
1.712478e+003, 1.237924e-001
1.714407e+003, 1.234934e-001
1.716335e+003, 1.233096e-001
1.718264e+003, 1.227614e-001
1.720192e+003, 1.234948e-001
1.722121e+003, 1.236331e-001
1.724049e+003, 1.238396e-001
1.725978e+003, 1.240539e-001
1.727906e+003, 1.235331e-001
1.729835e+003, 1.229125e-001
1.731763e+003, 1.223714e-001
1.733692e+003, 1.215135e-001
1.735620e+003, 1.209346e-001
1.737548e+003, 1.216736e-001
1.739477e+003, 1.212756e-001
1.741405e+003, 1.209427e-001
1.743334e+003, 1.212104e-001
1.745262e+003, 1.213181e-001
1.747191e+003, 1.218451e-001
1.749119e+003, 1.222465e-001
1.751048e+003, 1.226084e-001
1.752976e+003, 1.229044e-001
1.754905e+003, 1.235599e-001
1.756833e+003, 1.236796e-001
1.758762e+003, 1.238011e-001
1.760690e+003, 1.238364e-001
1.762619e+003, 1.230108e-001
1.764547e+003, 1.233517e-001
1.766475e+003, 1.233963e-001
1.768404e+003, 1.228862e-001
1.770332e+003, 1.226970e-001
1.772261e+003, 1.217021e-001
1.774189e+003, 1.217500e-001
1.776118e+003, 1.221121e-001
1.778046e+003, 1.223110e-001
1.779975e+003, 1.224257e-001
1.781903e+003, 1.224163e-001
1.783832e+003, 1.226298e-001
1.785760e+003, 1.226967e-001
1.787689e+003, 1.228737e-001
1.789617e+003, 1.225040e-001
1.791546e+003, 1.224885e-001
1.793474e+003, 1.224701e-001
1.795402e+003, 1.229172e-001
1.797331e+003, 1.229272e-001
1.799259e+003, 1.227860e-001
1.801188e+003, 1.225922e-001
1.803116e+003, 1.231351e-001
1.805045e+003, 1.230184e-001
1.806973e+003, 1.223619e-001
1.808902e+003, 1.220190e-001
1.810830e+003, 1.218768e-001
1.812759e+003, 1.220754e-001
1.814687e+003, 1.215990e-001
1.816616e+003, 1.212202e-001
1.818544e+003, 1.214454e-001
1.820473e+003, 1.211896e-001
1.822401e+003, 1.207357e-001
1.824329e+003, 1.205706e-001
1.826258e+003, 1.200790e-001
1.828186e+003, 1.203294e-001
1.830115e+003, 1.205862e-001
1.832043e+003, 1.213667e-001
1.833972e+003, 1.210868e-001
1.835900e+003, 1.200927e-001
1.837829e+003, 1.199079e-001
1.839757e+003, 1.204968e-001
1.841686e+003, 1.213278e-001
1.843614e+003, 1.207023e-001
1.845543e+003, 1.205179e-001
1.847471e+003, 1.218457e-001
1.849400e+003, 1.219579e-001
1.851328e+003, 1.216124e-001
1.853256e+003, 1.219485e-001
1.855185e+003, 1.228276e-001
1.857113e+003, 1.224884e-001
1.859042e+003, 1.219089e-001
1.860970e+003, 1.225955e-001
1.862899e+003, 1.232339e-001
1.864827e+003, 1.232122e-001
1.866756e+003, 1.238375e-001
1.868684e+003, 1.235609e-001
1.870613e+003, 1.230318e-001
1.872541e+003, 1.237185e-001
1.874470e+003, 1.243017e-001
1.876398e+003, 1.240943e-001
1.878327e+003, 1.246624e-001
1.880255e+003, 1.256119e-001
1.882183e+003, 1.259445e-001
1.884112e+003, 1.252951e-001
1.886040e+003, 1.248187e-001
1.887969e+003, 1.255481e-001
1.889897e+003, 1.256929e-001
1.891826e+003, 1.254339e-001
1.893754e+003, 1.265133e-001
1.895683e+003, 1.273649e-001
1.897611e+003, 1.267564e-001
1.899540e+003, 1.261908e-001
1.901468e+003, 1.266238e-001
1.903397e+003, 1.271850e-001
1.905325e+003, 1.278312e-001
1.907254e+003, 1.289824e-001
1.909182e+003, 1.290695e-001
1.911110e+003, 1.280299e-001
1.913039e+003, 1.287383e-001
1.914967e+003, 1.296562e-001
1.916896e+003, 1.295681e-001
1.918824e+003, 1.280994e-001
1.920753e+003, 1.283860e-001
1.922681e+003, 1.284813e-001
1.924610e+003, 1.276933e-001
1.926538e+003, 1.279201e-001
1.928467e+003, 1.282769e-001
1.930395e+003, 1.288655e-001
1.932324e+003, 1.294515e-001
1.934252e+003, 1.293597e-001
1.936181e+003, 1.288386e-001
1.938109e+003, 1.292107e-001
1.940037e+003, 1.293461e-001
1.941966e+003, 1.289881e-001
1.943894e+003, 1.293644e-001
1.945823e+003, 1.285480e-001
1.947751e+003, 1.275223e-001
1.949680e+003, 1.286105e-001
1.951608e+003, 1.309877e-001
1.953537e+003, 1.320322e-001
1.955465e+003, 1.320568e-001
1.957394e+003, 1.319777e-001
1.959322e+003, 1.320754e-001
1.961251e+003, 1.334442e-001
1.963179e+003, 1.341707e-001
1.965108e+003, 1.340031e-001
1.967036e+003, 1.337741e-001
1.968964e+003, 1.328829e-001
1.970893e+003, 1.321974e-001
1.972821e+003, 1.330689e-001
1.974750e+003, 1.313056e-001
1.976678e+003, 1.303148e-001
1.978607e+003, 1.347500e-001
1.980535e+003, 1.373914e-001
1.982464e+003, 1.367523e-001
1.984392e+003, 1.359344e-001
1.986321e+003, 1.343695e-001
1.988249e+003, 1.342841e-001
1.990178e+003, 1.349406e-001
1.992106e+003, 1.345864e-001
1.994035e+003, 1.352842e-001
1.995963e+003, 1.362495e-001
1.997891e+003, 1.371717e-001
1.999820e+003, 1.369369e-001
2.001748e+003, 1.365333e-001
2.003677e+003, 1.381273e-001
2.005605e+003, 1.382444e-001
2.007534e+003, 1.390648e-001
2.009462e+003, 1.394763e-001
2.011391e+003, 1.385488e-001
2.013319e+003, 1.392375e-001
2.015248e+003, 1.394875e-001
2.017176e+003, 1.387505e-001
2.019105e+003, 1.400395e-001
2.021033e+003, 1.390583e-001
2.022962e+003, 1.369538e-001
2.024890e+003, 1.368169e-001
2.026818e+003, 1.385981e-001
2.028747e+003, 1.399548e-001
2.030675e+003, 1.420689e-001
2.032604e+003, 1.434863e-001
2.034532e+003, 1.410187e-001
2.036461e+003, 1.411531e-001
2.038389e+003, 1.434682e-001
2.040318e+003, 1.425948e-001
2.042246e+003, 1.417962e-001
2.044175e+003, 1.424355e-001
2.046103e+003, 1.419374e-001
2.048032e+003, 1.440469e-001
2.049960e+003, 1.464082e-001
2.051889e+003, 1.467421e-001
2.053817e+003, 1.447261e-001
2.055746e+003, 1.430311e-001
2.057674e+003, 1.428623e-001
2.059603e+003, 1.442045e-001
2.061531e+003, 1.445600e-001
2.063459e+003, 1.442178e-001
2.065388e+003, 1.427009e-001
2.067316e+003, 1.424603e-001
2.069245e+003, 1.435839e-001
2.071173e+003, 1.450727e-001
2.073102e+003, 1.463246e-001
2.075030e+003, 1.471673e-001
2.076959e+003, 1.463206e-001
2.078887e+003, 1.459493e-001
2.080816e+003, 1.465013e-001
2.082744e+003, 1.477777e-001
2.084673e+003, 1.469105e-001
2.086601e+003, 1.449293e-001
2.088530e+003, 1.444114e-001
2.090458e+003, 1.452517e-001
2.092386e+003, 1.457785e-001
2.094315e+003, 1.466585e-001
2.096243e+003, 1.473756e-001
2.098172e+003, 1.481422e-001
2.100100e+003, 1.480268e-001
2.102029e+003, 1.467331e-001
2.103957e+003, 1.462226e-001
2.105886e+003, 1.471238e-001
2.107814e+003, 1.479576e-001
2.109743e+003, 1.486732e-001
2.111671e+003, 1.488904e-001
2.113600e+003, 1.479886e-001
2.115528e+003, 1.476361e-001
2.117457e+003, 1.479748e-001
2.119385e+003, 1.481265e-001
2.121313e+003, 1.482522e-001
2.123242e+003, 1.476885e-001
2.125170e+003, 1.475929e-001
2.127099e+003, 1.489326e-001
2.129027e+003, 1.491281e-001
2.130956e+003, 1.475118e-001
2.132884e+003, 1.479501e-001
2.134813e+003, 1.485696e-001
2.136741e+003, 1.489880e-001
2.138670e+003, 1.490533e-001
2.140598e+003, 1.492934e-001
2.142527e+003, 1.512917e-001
2.144455e+003, 1.513420e-001
2.146384e+003, 1.495081e-001
2.148312e+003, 1.486589e-001
2.150240e+003, 1.471427e-001
2.152169e+003, 1.452585e-001
2.154097e+003, 1.457458e-001
2.156026e+003, 1.455258e-001
2.157954e+003, 1.479801e-001
2.159883e+003, 1.535032e-001
2.161811e+003, 1.561900e-001
2.163740e+003, 1.561045e-001
2.165668e+003, 1.545203e-001
2.167597e+003, 1.547357e-001
2.169525e+003, 1.521618e-001
2.171454e+003, 1.495786e-001
2.173382e+003, 1.503393e-001
2.175311e+003, 1.542349e-001
2.177239e+003, 1.555492e-001
2.179167e+003, 1.521617e-001
2.181096e+003, 1.521140e-001
2.183024e+003, 1.550286e-001
2.184953e+003, 1.555433e-001
2.186881e+003, 1.577321e-001
2.188810e+003, 1.573927e-001
2.190738e+003, 1.562107e-001
2.192667e+003, 1.584123e-001
2.194595e+003, 1.597222e-001
2.196524e+003, 1.568144e-001
2.198452e+003, 1.554551e-001
2.200381e+003, 1.564838e-001
2.202309e+003, 1.564387e-001
2.204238e+003, 1.566631e-001
2.206166e+003, 1.573014e-001
2.208094e+003, 1.575968e-001
2.210023e+003, 1.565834e-001
2.211951e+003, 1.566942e-001
2.213880e+003, 1.587824e-001
2.215808e+003, 1.588039e-001
2.217737e+003, 1.579246e-001
2.219665e+003, 1.608385e-001
2.221594e+003, 1.617833e-001
2.223522e+003, 1.593311e-001
2.225451e+003, 1.587475e-001
2.227379e+003, 1.578472e-001
2.229308e+003, 1.575391e-001
2.231236e+003, 1.598195e-001
2.233165e+003, 1.636684e-001
2.235093e+003, 1.641554e-001
2.237021e+003, 1.606991e-001
2.238950e+003, 1.601686e-001
2.240878e+003, 1.610755e-001
2.242807e+003, 1.601916e-001
2.244735e+003, 1.605539e-001
2.246664e+003, 1.615150e-001
2.248592e+003, 1.614267e-001
2.250521e+003, 1.601363e-001
2.252449e+003, 1.611167e-001
2.254378e+003, 1.608542e-001
2.256306e+003, 1.619516e-001
2.258235e+003, 1.637764e-001
2.260163e+003, 1.637244e-001
2.262092e+003, 1.626334e-001
2.264020e+003, 1.617432e-001
2.265948e+003, 1.621394e-001
2.267877e+003, 1.630008e-001
2.269805e+003, 1.639691e-001
2.271734e+003, 1.647585e-001
2.273662e+003, 1.647006e-001
2.275591e+003, 1.654138e-001
2.277519e+003, 1.661085e-001
2.279448e+003, 1.659864e-001
2.281376e+003, 1.656040e-001
2.283305e+003, 1.662289e-001
2.285233e+003, 1.665185e-001
2.287162e+003, 1.658470e-001
2.289090e+003, 1.655865e-001
2.291019e+003, 1.655977e-001
2.292947e+003, 1.652485e-001
2.294875e+003, 1.648437e-001
2.296804e+003, 1.652842e-001
2.298732e+003, 1.655288e-001
2.300661e+003, 1.653923e-001
2.302589e+003, 1.667540e-001
2.304518e+003, 1.672142e-001
2.306446e+003, 1.666608e-001
2.308375e+003, 1.671150e-001
2.310303e+003, 1.677343e-001
2.312232e+003, 1.675412e-001
2.314160e+003, 1.675235e-001
2.316089e+003, 1.679603e-001
2.318017e+003, 1.683358e-001
2.319946e+003, 1.687630e-001
2.321874e+003, 1.696147e-001
2.323802e+003, 1.697942e-001
2.325731e+003, 1.681025e-001
2.327659e+003, 1.668844e-001
2.329588e+003, 1.671228e-001
2.331516e+003, 1.678125e-001
2.333445e+003, 1.684726e-001
2.335373e+003, 1.684549e-001
2.337302e+003, 1.683134e-001
2.339230e+003, 1.683522e-001
2.341159e+003, 1.687069e-001
2.343087e+003, 1.696094e-001
2.345016e+003, 1.698920e-001
2.346944e+003, 1.695611e-001
2.348873e+003, 1.699141e-001
2.350801e+003, 1.696763e-001
2.352729e+003, 1.688151e-001
2.354658e+003, 1.689154e-001
2.356586e+003, 1.697584e-001
2.358515e+003, 1.704914e-001
2.360443e+003, 1.708151e-001
2.362372e+003, 1.701057e-001
2.364300e+003, 1.692497e-001
2.366229e+003, 1.697091e-001
2.368157e+003, 1.703784e-001
2.370086e+003, 1.705132e-001
2.372014e+003, 1.709391e-001
2.373942e+003, 1.714749e-001
2.375871e+003, 1.722969e-001
2.377799e+003, 1.729767e-001
2.379728e+003, 1.721114e-001
2.381656e+003, 1.726760e-001
2.383585e+003, 1.733253e-001
2.385513e+003, 1.722706e-001
2.387442e+003, 1.718275e-001
2.389370e+003, 1.723339e-001
2.391299e+003, 1.736684e-001
2.393227e+003, 1.731147e-001
2.395156e+003, 1.723079e-001
2.397084e+003, 1.729020e-001
2.399012e+003, 1.737070e-001
2.400941e+003, 1.738568e-001
2.402869e+003, 1.737806e-001
2.404798e+003, 1.746277e-001
2.406726e+003, 1.752470e-001
2.408655e+003, 1.755446e-001
2.410583e+003, 1.757922e-001
2.412512e+003, 1.748877e-001
2.414440e+003, 1.750082e-001
2.416369e+003, 1.760516e-001
2.418297e+003, 1.758540e-001
2.420226e+003, 1.752741e-001
2.422154e+003, 1.752445e-001
2.424083e+003, 1.758190e-001
2.426011e+003, 1.759627e-001
2.427939e+003, 1.763076e-001
2.429868e+003, 1.776786e-001
2.431796e+003, 1.777135e-001
2.433725e+003, 1.769824e-001
2.435653e+003, 1.773645e-001
2.437582e+003, 1.780570e-001
2.439510e+003, 1.780229e-001
2.441439e+003, 1.777426e-001
2.443367e+003, 1.775023e-001
2.445296e+003, 1.782525e-001
2.447224e+003, 1.781671e-001
2.449153e+003, 1.783606e-001
2.451081e+003, 1.796528e-001
2.453010e+003, 1.800889e-001
2.454938e+003, 1.805093e-001
2.456866e+003, 1.797945e-001
2.458795e+003, 1.793894e-001
2.460723e+003, 1.805899e-001
2.462652e+003, 1.811958e-001
2.464580e+003, 1.806039e-001
2.466509e+003, 1.800282e-001
2.468437e+003, 1.792835e-001
2.470366e+003, 1.788133e-001
2.472294e+003, 1.795414e-001
2.474223e+003, 1.796796e-001
2.476151e+003, 1.789092e-001
2.478080e+003, 1.793398e-001
2.480008e+003, 1.812164e-001
2.481937e+003, 1.816015e-001
2.483865e+003, 1.817314e-001
2.485793e+003, 1.818976e-001
2.487722e+003, 1.815541e-001
2.489650e+003, 1.810802e-001
2.491579e+003, 1.813330e-001
2.493507e+003, 1.820742e-001
2.495436e+003, 1.824361e-001
2.497364e+003, 1.827378e-001
2.499293e+003, 1.839042e-001
2.501221e+003, 1.840448e-001
2.503150e+003, 1.837687e-001
2.505078e+003, 1.835448e-001
2.507007e+003, 1.838214e-001
2.508935e+003, 1.847565e-001
2.510864e+003, 1.852445e-001
2.512792e+003, 1.840434e-001
2.514720e+003, 1.839415e-001
2.516649e+003, 1.849879e-001
2.518577e+003, 1.856607e-001
2.520506e+003, 1.853817e-001
2.522434e+003, 1.854113e-001
2.524363e+003, 1.856377e-001
2.526291e+003, 1.858477e-001
2.528220e+003, 1.854201e-001
2.530148e+003, 1.857090e-001
2.532077e+003, 1.866231e-001
2.534005e+003, 1.866207e-001
2.535934e+003, 1.863039e-001
2.537862e+003, 1.858275e-001
2.539791e+003, 1.864941e-001
2.541719e+003, 1.876730e-001
2.543647e+003, 1.881447e-001
2.545576e+003, 1.880239e-001
2.547504e+003, 1.879208e-001
2.549433e+003, 1.888663e-001
2.551361e+003, 1.890347e-001
2.553290e+003, 1.873378e-001
2.555218e+003, 1.870386e-001
2.557147e+003, 1.881786e-001
2.559075e+003, 1.885522e-001
2.561004e+003, 1.888187e-001
2.562932e+003, 1.890073e-001
2.564861e+003, 1.891794e-001
2.566789e+003, 1.903296e-001
2.568718e+003, 1.903889e-001
2.570646e+003, 1.895823e-001
2.572574e+003, 1.888439e-001
2.574503e+003, 1.889903e-001
2.576431e+003, 1.898775e-001
2.578360e+003, 1.898916e-001
2.580288e+003, 1.903335e-001
2.582217e+003, 1.906187e-001
2.584145e+003, 1.902681e-001
2.586074e+003, 1.914484e-001
2.588002e+003, 1.912158e-001
2.589931e+003, 1.910990e-001
2.591859e+003, 1.923680e-001
2.593788e+003, 1.926397e-001
2.595716e+003, 1.917815e-001
2.597645e+003, 1.916015e-001
2.599573e+003, 1.921595e-001
2.601501e+003, 1.927966e-001
2.603430e+003, 1.933714e-001
2.605358e+003, 1.941197e-001
2.607287e+003, 1.941738e-001
2.609215e+003, 1.937027e-001
2.611144e+003, 1.935252e-001
2.613072e+003, 1.933481e-001
2.615001e+003, 1.941569e-001
2.616929e+003, 1.951950e-001
2.618858e+003, 1.953952e-001
2.620786e+003, 1.954853e-001
2.622715e+003, 1.950850e-001
2.624643e+003, 1.946953e-001
2.626572e+003, 1.948879e-001
2.628500e+003, 1.953346e-001
2.630428e+003, 1.957310e-001
2.632357e+003, 1.960173e-001
2.634285e+003, 1.968463e-001
2.636214e+003, 1.968695e-001
2.638142e+003, 1.967578e-001
2.640071e+003, 1.977231e-001
2.641999e+003, 1.982256e-001
2.643928e+003, 1.984855e-001
2.645856e+003, 1.982232e-001
2.647785e+003, 1.978348e-001
2.649713e+003, 1.979622e-001
2.651642e+003, 1.980355e-001
2.653570e+003, 1.984844e-001
2.655499e+003, 1.979693e-001
2.657427e+003, 1.978396e-001
2.659355e+003, 1.983536e-001
2.661284e+003, 1.987740e-001
2.663212e+003, 1.994500e-001
2.665141e+003, 1.987688e-001
2.667069e+003, 1.984055e-001
2.668998e+003, 1.985061e-001
2.670926e+003, 1.976297e-001
2.672855e+003, 1.980760e-001
2.674783e+003, 1.991462e-001
2.676712e+003, 1.993016e-001
2.678640e+003, 1.998566e-001
2.680569e+003, 2.003371e-001
2.682497e+003, 2.003764e-001
2.684426e+003, 2.005798e-001
2.686354e+003, 2.004675e-001
2.688282e+003, 2.005087e-001
2.690211e+003, 2.013917e-001
2.692139e+003, 2.015797e-001
2.694068e+003, 2.011923e-001
2.695996e+003, 2.015495e-001
2.697925e+003, 2.020718e-001
2.699853e+003, 2.028089e-001
2.701782e+003, 2.027573e-001
2.703710e+003, 2.025141e-001
2.705639e+003, 2.027856e-001
2.707567e+003, 2.029832e-001
2.709496e+003, 2.030097e-001
2.711424e+003, 2.023976e-001
2.713353e+003, 2.017726e-001
2.715281e+003, 2.027661e-001
2.717209e+003, 2.041740e-001
2.719138e+003, 2.043480e-001
2.721066e+003, 2.037831e-001
2.722995e+003, 2.039703e-001
2.724923e+003, 2.046843e-001
2.726852e+003, 2.051113e-001
2.728780e+003, 2.044980e-001
2.730709e+003, 2.043395e-001
2.732637e+003, 2.048718e-001
2.734566e+003, 2.051574e-001
2.736494e+003, 2.053181e-001
2.738423e+003, 2.061134e-001
2.740351e+003, 2.060442e-001
2.742280e+003, 2.052514e-001
2.744208e+003, 2.062652e-001
2.746136e+003, 2.073986e-001
2.748065e+003, 2.069555e-001
2.749993e+003, 2.068041e-001
2.751922e+003, 2.071574e-001
2.753850e+003, 2.072572e-001
2.755779e+003, 2.076200e-001
2.757707e+003, 2.076701e-001
2.759636e+003, 2.078863e-001
2.761564e+003, 2.086839e-001
2.763493e+003, 2.091287e-001
2.765421e+003, 2.092997e-001
2.767350e+003, 2.098878e-001
2.769278e+003, 2.099642e-001
2.771207e+003, 2.103092e-001
2.773135e+003, 2.103474e-001
2.775063e+003, 2.104390e-001
2.776992e+003, 2.109870e-001
2.778920e+003, 2.105127e-001
2.780849e+003, 2.107503e-001
2.782777e+003, 2.111264e-001
2.784706e+003, 2.114348e-001
2.786634e+003, 2.111216e-001
2.788563e+003, 2.110164e-001
2.790491e+003, 2.113350e-001
2.792420e+003, 2.118852e-001
2.794348e+003, 2.121679e-001
2.796277e+003, 2.133767e-001
2.798205e+003, 2.143955e-001
2.800134e+003, 2.139546e-001
2.802062e+003, 2.135600e-001
2.803990e+003, 2.142284e-001
2.805919e+003, 2.144250e-001
2.807847e+003, 2.140807e-001
2.809776e+003, 2.147493e-001
2.811704e+003, 2.158076e-001
2.813633e+003, 2.163583e-001
2.815561e+003, 2.161997e-001
2.817490e+003, 2.161612e-001
2.819418e+003, 2.160513e-001
2.821347e+003, 2.158747e-001
2.823275e+003, 2.169961e-001
2.825204e+003, 2.173407e-001
2.827132e+003, 2.172059e-001
2.829061e+003, 2.176904e-001
2.830989e+003, 2.182282e-001
2.832917e+003, 2.182792e-001
2.834846e+003, 2.180984e-001
2.836774e+003, 2.179960e-001
2.838703e+003, 2.192605e-001
2.840631e+003, 2.210511e-001
2.842560e+003, 2.215799e-001
2.844488e+003, 2.208578e-001
2.846417e+003, 2.197375e-001
2.848345e+003, 2.197013e-001
2.850274e+003, 2.206710e-001
2.852202e+003, 2.205344e-001
2.854131e+003, 2.202806e-001
2.856059e+003, 2.203800e-001
2.857988e+003, 2.204425e-001
2.859916e+003, 2.200993e-001
2.861844e+003, 2.204360e-001
2.863773e+003, 2.210675e-001
2.865701e+003, 2.224180e-001
2.867630e+003, 2.229465e-001
2.869558e+003, 2.231206e-001
2.871487e+003, 2.240173e-001
2.873415e+003, 2.242968e-001
2.875344e+003, 2.241528e-001
2.877272e+003, 2.249320e-001
2.879201e+003, 2.257270e-001
2.881129e+003, 2.255250e-001
2.883058e+003, 2.255874e-001
2.884986e+003, 2.261958e-001
2.886915e+003, 2.262282e-001
2.888843e+003, 2.264356e-001
2.890771e+003, 2.273753e-001
2.892700e+003, 2.277012e-001
2.894628e+003, 2.275506e-001
2.896557e+003, 2.288420e-001
2.898485e+003, 2.294844e-001
2.900414e+003, 2.284461e-001
2.902342e+003, 2.281958e-001
2.904271e+003, 2.291920e-001
2.906199e+003, 2.306066e-001
2.908128e+003, 2.313541e-001
2.910056e+003, 2.309249e-001
2.911985e+003, 2.304662e-001
2.913913e+003, 2.311645e-001
2.915842e+003, 2.309085e-001
2.917770e+003, 2.316597e-001
2.919698e+003, 2.325628e-001
2.921627e+003, 2.318473e-001
2.923555e+003, 2.316726e-001
2.925484e+003, 2.318748e-001
2.927412e+003, 2.317598e-001
2.929341e+003, 2.308672e-001
2.931269e+003, 2.318796e-001
2.933198e+003, 2.322319e-001
2.935126e+003, 2.317289e-001
2.937055e+003, 2.319881e-001
2.938983e+003, 2.327477e-001
2.940912e+003, 2.326525e-001
2.942840e+003, 2.340091e-001
2.944769e+003, 2.351986e-001
2.946697e+003, 2.355324e-001
2.948625e+003, 2.356523e-001
2.950554e+003, 2.348617e-001
2.952482e+003, 2.349472e-001
2.954411e+003, 2.360771e-001
2.956339e+003, 2.365242e-001
2.958268e+003, 2.367512e-001
2.960196e+003, 2.373850e-001
2.962125e+003, 2.377948e-001
2.964053e+003, 2.378428e-001
2.965982e+003, 2.381443e-001
2.967910e+003, 2.395916e-001
2.969839e+003, 2.405874e-001
2.971767e+003, 2.405723e-001
2.973696e+003, 2.404140e-001
2.975624e+003, 2.400566e-001
2.977552e+003, 2.403910e-001
2.979481e+003, 2.413299e-001
2.981409e+003, 2.431027e-001
2.983338e+003, 2.444598e-001
2.985266e+003, 2.451537e-001
2.987195e+003, 2.447380e-001
2.989123e+003, 2.449913e-001
2.991052e+003, 2.442704e-001
2.992980e+003, 2.449015e-001
2.994909e+003, 2.471326e-001
2.996837e+003, 2.475654e-001
2.998766e+003, 2.466573e-001
3.000694e+003, 2.471814e-001
3.002623e+003, 2.484725e-001
3.004551e+003, 2.480105e-001
3.006479e+003, 2.480333e-001
3.008408e+003, 2.499624e-001
3.010336e+003, 2.503076e-001
3.012265e+003, 2.494504e-001
3.014193e+003, 2.505975e-001
3.016122e+003, 2.519214e-001
3.018050e+003, 2.516886e-001
3.019979e+003, 2.518667e-001
3.021907e+003, 2.519841e-001
3.023836e+003, 2.523467e-001
3.025764e+003, 2.532842e-001
3.027693e+003, 2.546494e-001
3.029621e+003, 2.562352e-001
3.031550e+003, 2.570183e-001
3.033478e+003, 2.566274e-001
3.035406e+003, 2.566502e-001
3.037335e+003, 2.569268e-001
3.039263e+003, 2.573565e-001
3.041192e+003, 2.582027e-001
3.043120e+003, 2.584882e-001
3.045049e+003, 2.587172e-001
3.046977e+003, 2.603222e-001
3.048906e+003, 2.614796e-001
3.050834e+003, 2.611541e-001
3.052763e+003, 2.610642e-001
3.054691e+003, 2.630197e-001
3.056620e+003, 2.635589e-001
3.058548e+003, 2.643793e-001
3.060477e+003, 2.654941e-001
3.062405e+003, 2.654611e-001
3.064333e+003, 2.652617e-001
3.066262e+003, 2.660469e-001
3.068190e+003, 2.679134e-001
3.070119e+003, 2.686637e-001
3.072047e+003, 2.685760e-001
3.073976e+003, 2.684725e-001
3.075904e+003, 2.686045e-001
3.077833e+003, 2.687189e-001
3.079761e+003, 2.698035e-001
3.081690e+003, 2.708190e-001
3.083618e+003, 2.712748e-001
3.085547e+003, 2.701776e-001
3.087475e+003, 2.698559e-001
3.089404e+003, 2.711160e-001
3.091332e+003, 2.729194e-001
3.093260e+003, 2.743995e-001
3.095189e+003, 2.746116e-001
3.097117e+003, 2.742690e-001
3.099046e+003, 2.743616e-001
3.100974e+003, 2.745694e-001
3.102903e+003, 2.759189e-001
3.104831e+003, 2.771677e-001
3.106760e+003, 2.785260e-001
3.108688e+003, 2.786091e-001
3.110617e+003, 2.786116e-001
3.112545e+003, 2.795849e-001
3.114474e+003, 2.811112e-001
3.116402e+003, 2.823489e-001
3.118331e+003, 2.833646e-001
3.120259e+003, 2.846497e-001
3.122188e+003, 2.850945e-001
3.124116e+003, 2.853263e-001
3.126044e+003, 2.851639e-001
3.127973e+003, 2.864245e-001
3.129901e+003, 2.884648e-001
3.131830e+003, 2.901818e-001
3.133758e+003, 2.900033e-001
3.135687e+003, 2.902070e-001
3.137615e+003, 2.924803e-001
3.139544e+003, 2.938056e-001
3.141472e+003, 2.946258e-001
3.143401e+003, 2.948848e-001
3.145329e+003, 2.950280e-001
3.147258e+003, 2.953073e-001
3.149186e+003, 2.955308e-001
3.151115e+003, 2.946330e-001
3.153043e+003, 2.963341e-001
3.154971e+003, 2.981796e-001
3.156900e+003, 2.981512e-001
3.158828e+003, 2.970724e-001
3.160757e+003, 2.964000e-001
3.162685e+003, 2.977331e-001
3.164614e+003, 2.989758e-001
3.166542e+003, 2.979367e-001
3.168471e+003, 2.985502e-001
3.170399e+003, 3.002435e-001
3.172328e+003, 2.996898e-001
3.174256e+003, 3.007742e-001
3.176185e+003, 3.018563e-001
3.178113e+003, 3.011337e-001
3.180042e+003, 3.015743e-001
3.181970e+003, 3.035154e-001
3.183898e+003, 3.058047e-001
3.185827e+003, 3.065510e-001
3.187755e+003, 3.064257e-001
3.189684e+003, 3.087328e-001
3.191612e+003, 3.111259e-001
3.193541e+003, 3.131078e-001
3.195469e+003, 3.153228e-001
3.197398e+003, 3.156634e-001
3.199326e+003, 3.158684e-001
3.201255e+003, 3.169884e-001
3.203183e+003, 3.165184e-001
3.205112e+003, 3.164693e-001
3.207040e+003, 3.172497e-001
3.208969e+003, 3.160643e-001
3.210897e+003, 3.126584e-001
3.212825e+003, 3.093275e-001
3.214754e+003, 3.054272e-001
3.216682e+003, 3.006838e-001
3.218611e+003, 2.966854e-001
3.220539e+003, 2.931000e-001
3.222468e+003, 2.883001e-001
3.224396e+003, 2.829027e-001
3.226325e+003, 2.791459e-001
3.228253e+003, 2.772153e-001
3.230182e+003, 2.754886e-001
3.232110e+003, 2.739749e-001
3.234039e+003, 2.715118e-001
3.235967e+003, 2.687504e-001
3.237896e+003, 2.682246e-001
3.239824e+003, 2.673588e-001
3.241752e+003, 2.630981e-001
3.243681e+003, 2.604353e-001
3.245609e+003, 2.600336e-001
3.247538e+003, 2.598251e-001
3.249466e+003, 2.595993e-001
3.251395e+003, 2.598342e-001
3.253323e+003, 2.585088e-001
3.255252e+003, 2.578963e-001
3.257180e+003, 2.578754e-001
3.259109e+003, 2.573743e-001
3.261037e+003, 2.560795e-001
3.262966e+003, 2.537163e-001
3.264894e+003, 2.507140e-001
3.266823e+003, 2.481544e-001
3.268751e+003, 2.468237e-001
3.270679e+003, 2.466946e-001
3.272608e+003, 2.459948e-001
3.274536e+003, 2.441690e-001
3.276465e+003, 2.406600e-001
3.278393e+003, 2.382616e-001
3.280322e+003, 2.365426e-001
3.282250e+003, 2.341403e-001
3.284179e+003, 2.309570e-001
3.286107e+003, 2.300394e-001
3.288036e+003, 2.289274e-001
3.289964e+003, 2.265048e-001
3.291893e+003, 2.238138e-001
3.293821e+003, 2.229857e-001
3.295750e+003, 2.237800e-001
3.297678e+003, 2.230318e-001
3.299606e+003, 2.215032e-001
3.301535e+003, 2.201133e-001
3.303463e+003, 2.184059e-001
3.305392e+003, 2.167014e-001
3.307320e+003, 2.156330e-001
3.309249e+003, 2.154538e-001
3.311177e+003, 2.152922e-001
3.313106e+003, 2.150625e-001
3.315034e+003, 2.131047e-001
3.316963e+003, 2.110626e-001
3.318891e+003, 2.109204e-001
3.320820e+003, 2.115525e-001
3.322748e+003, 2.123111e-001
3.324677e+003, 2.103334e-001
3.326605e+003, 2.085210e-001
3.328533e+003, 2.093624e-001
3.330462e+003, 2.081767e-001
3.332390e+003, 2.065796e-001
3.334319e+003, 2.057161e-001
3.336247e+003, 2.042702e-001
3.338176e+003, 2.044259e-001
3.340104e+003, 2.045859e-001
3.342033e+003, 2.037633e-001
3.343961e+003, 2.036716e-001
3.345890e+003, 2.038521e-001
3.347818e+003, 2.024739e-001
3.349747e+003, 2.019747e-001
3.351675e+003, 2.028279e-001
3.353604e+003, 2.025561e-001
3.355532e+003, 2.008548e-001
3.357460e+003, 2.001342e-001
3.359389e+003, 1.992452e-001
3.361317e+003, 1.996955e-001
3.363246e+003, 1.993738e-001
3.365174e+003, 1.979522e-001
3.367103e+003, 1.978851e-001
3.369031e+003, 1.981482e-001
3.370960e+003, 1.984576e-001
3.372888e+003, 1.971290e-001
3.374817e+003, 1.982049e-001
3.376745e+003, 1.996732e-001
3.378674e+003, 1.991174e-001
3.380602e+003, 1.966114e-001
3.382531e+003, 1.953462e-001
3.384459e+003, 1.969970e-001
3.386387e+003, 1.981490e-001
3.388316e+003, 1.984890e-001
3.390244e+003, 1.988349e-001
3.392173e+003, 1.994326e-001
3.394101e+003, 1.981249e-001
3.396030e+003, 1.962329e-001
3.397958e+003, 1.968906e-001
3.399887e+003, 1.977842e-001
3.401815e+003, 1.984202e-001
3.403744e+003, 1.975107e-001
3.405672e+003, 1.969289e-001
3.407601e+003, 1.968330e-001
3.409529e+003, 1.968774e-001
3.411458e+003, 1.969889e-001
3.413386e+003, 1.983507e-001
3.415314e+003, 1.997183e-001
3.417243e+003, 1.982861e-001
3.419171e+003, 1.971003e-001
3.421100e+003, 1.973936e-001
3.423028e+003, 1.982119e-001
3.424957e+003, 1.992349e-001
3.426885e+003, 1.983159e-001
3.428814e+003, 1.986234e-001
3.430742e+003, 1.986066e-001
3.432671e+003, 1.996400e-001
3.434599e+003, 2.005549e-001
3.436528e+003, 2.008216e-001
3.438456e+003, 2.017937e-001
3.440385e+003, 2.014926e-001
3.442313e+003, 2.014817e-001
3.444241e+003, 2.017649e-001
3.446170e+003, 2.000900e-001
3.448098e+003, 1.990784e-001
3.450027e+003, 2.001629e-001
3.451955e+003, 2.000696e-001
3.453884e+003, 2.007829e-001
3.455812e+003, 2.017512e-001
3.457741e+003, 2.009110e-001
3.459669e+003, 2.018292e-001
3.461598e+003, 2.030818e-001
3.463526e+003, 2.026996e-001
3.465455e+003, 2.016080e-001
3.467383e+003, 2.027514e-001
3.469312e+003, 2.037592e-001
3.471240e+003, 2.034197e-001
3.473168e+003, 2.035038e-001
3.475097e+003, 2.037584e-001
3.477025e+003, 2.041035e-001
3.478954e+003, 2.040033e-001
3.480882e+003, 2.034999e-001
3.482811e+003, 2.035595e-001
3.484739e+003, 2.053595e-001
3.486668e+003, 2.051046e-001
3.488596e+003, 2.043565e-001
3.490525e+003, 2.051272e-001
3.492453e+003, 2.060107e-001
3.494382e+003, 2.058664e-001
3.496310e+003, 2.073748e-001
3.498239e+003, 2.093831e-001
3.500167e+003, 2.088902e-001
3.502095e+003, 2.070319e-001
3.504024e+003, 2.073363e-001
3.505952e+003, 2.084347e-001
3.507881e+003, 2.096343e-001
3.509809e+003, 2.092609e-001
3.511738e+003, 2.074353e-001
3.513666e+003, 2.071760e-001
3.515595e+003, 2.079839e-001
3.517523e+003, 2.086357e-001
3.519452e+003, 2.087195e-001
3.521380e+003, 2.086073e-001
3.523309e+003, 2.091442e-001
3.525237e+003, 2.108824e-001
3.527166e+003, 2.106760e-001
3.529094e+003, 2.094417e-001
3.531022e+003, 2.089552e-001
3.532951e+003, 2.087474e-001
3.534879e+003, 2.088793e-001
3.536808e+003, 2.112027e-001
3.538736e+003, 2.112475e-001
3.540665e+003, 2.117969e-001
3.542593e+003, 2.116612e-001
3.544522e+003, 2.117676e-001
3.546450e+003, 2.138795e-001
3.548379e+003, 2.133352e-001
3.550307e+003, 2.129647e-001
3.552236e+003, 2.140444e-001
3.554164e+003, 2.139143e-001
3.556093e+003, 2.129954e-001
3.558021e+003, 2.126023e-001
3.559949e+003, 2.119145e-001
3.561878e+003, 2.128263e-001
3.563806e+003, 2.142911e-001
3.565735e+003, 2.145871e-001
3.567663e+003, 2.146220e-001
3.569592e+003, 2.155117e-001
3.571520e+003, 2.158955e-001
3.573449e+003, 2.169048e-001
3.575377e+003, 2.169817e-001
3.577306e+003, 2.158310e-001
3.579234e+003, 2.146658e-001
3.581163e+003, 2.122695e-001
3.583091e+003, 2.141311e-001
3.585020e+003, 2.172402e-001
3.586948e+003, 2.176694e-001
3.588876e+003, 2.176791e-001
3.590805e+003, 2.182965e-001
3.592733e+003, 2.181790e-001
3.594662e+003, 2.178680e-001
3.596590e+003, 2.184249e-001
3.598519e+003, 2.185520e-001
3.600447e+003, 2.179134e-001
3.602376e+003, 2.185472e-001
3.604304e+003, 2.178384e-001
3.606233e+003, 2.172938e-001
3.608161e+003, 2.181841e-001
3.610090e+003, 2.187091e-001
3.612018e+003, 2.198180e-001
3.613947e+003, 2.178234e-001
3.615875e+003, 2.142362e-001
3.617803e+003, 2.142365e-001
3.619732e+003, 2.164413e-001
3.621660e+003, 2.189209e-001
3.623589e+003, 2.207617e-001
3.625517e+003, 2.205843e-001
3.627446e+003, 2.198816e-001
3.629374e+003, 2.220781e-001
3.631303e+003, 2.221296e-001
3.633231e+003, 2.204721e-001
3.635160e+003, 2.202604e-001
3.637088e+003, 2.197248e-001
3.639017e+003, 2.185892e-001
3.640945e+003, 2.181989e-001
3.642874e+003, 2.209570e-001
3.644802e+003, 2.223743e-001
3.646730e+003, 2.227284e-001
3.648659e+003, 2.245488e-001
3.650587e+003, 2.236577e-001
3.652516e+003, 2.223076e-001
3.654444e+003, 2.225952e-001
3.656373e+003, 2.230636e-001
3.658301e+003, 2.242513e-001
3.660230e+003, 2.242783e-001
3.662158e+003, 2.231524e-001
3.664087e+003, 2.233573e-001
3.666015e+003, 2.253935e-001
3.667944e+003, 2.256837e-001
3.669872e+003, 2.244973e-001
3.671801e+003, 2.240901e-001
3.673729e+003, 2.238695e-001
3.675657e+003, 2.258761e-001
3.677586e+003, 2.275807e-001
3.679514e+003, 2.277326e-001
3.681443e+003, 2.283619e-001
3.683371e+003, 2.271503e-001
3.685300e+003, 2.270977e-001
3.687228e+003, 2.275525e-001
3.689157e+003, 2.262336e-001
3.691085e+003, 2.263888e-001
3.693014e+003, 2.284253e-001
3.694942e+003, 2.274931e-001
3.696871e+003, 2.276412e-001
3.698799e+003, 2.280099e-001
3.700728e+003, 2.263811e-001
3.702656e+003, 2.249824e-001
3.704584e+003, 2.251620e-001
3.706513e+003, 2.275473e-001
3.708441e+003, 2.286875e-001
3.710370e+003, 2.294525e-001
3.712298e+003, 2.299149e-001
3.714227e+003, 2.291816e-001
3.716155e+003, 2.303301e-001
3.718084e+003, 2.307013e-001
3.720012e+003, 2.283243e-001
3.721941e+003, 2.271634e-001
3.723869e+003, 2.295204e-001
3.725798e+003, 2.302538e-001
3.727726e+003, 2.291794e-001
3.729655e+003, 2.293790e-001
3.731583e+003, 2.300559e-001
3.733511e+003, 2.296919e-001
3.735440e+003, 2.284501e-001
3.737368e+003, 2.294775e-001
3.739297e+003, 2.313855e-001
3.741225e+003, 2.318153e-001
3.743154e+003, 2.331116e-001
3.745082e+003, 2.344284e-001
3.747011e+003, 2.310699e-001
3.748939e+003, 2.305527e-001
3.750868e+003, 2.317247e-001
3.752796e+003, 2.322711e-001
3.754725e+003, 2.353006e-001
3.756653e+003, 2.380587e-001
3.758582e+003, 2.371301e-001
3.760510e+003, 2.348846e-001
3.762438e+003, 2.324868e-001
3.764367e+003, 2.320741e-001
3.766295e+003, 2.344718e-001
3.768224e+003, 2.344808e-001
3.770152e+003, 2.343882e-001
3.772081e+003, 2.341333e-001
3.774009e+003, 2.336743e-001
3.775938e+003, 2.343619e-001
3.777866e+003, 2.364982e-001
3.779795e+003, 2.371427e-001
3.781723e+003, 2.368800e-001
3.783652e+003, 2.376300e-001
3.785580e+003, 2.392675e-001
3.787509e+003, 2.368042e-001
3.789437e+003, 2.343678e-001
3.791365e+003, 2.356385e-001
3.793294e+003, 2.357639e-001
3.795222e+003, 2.346518e-001
3.797151e+003, 2.363628e-001
3.799079e+003, 2.377032e-001
3.801008e+003, 2.394339e-001
3.802936e+003, 2.391796e-001
3.804865e+003, 2.382486e-001
3.806793e+003, 2.379155e-001
3.808722e+003, 2.390063e-001
3.810650e+003, 2.401559e-001
3.812579e+003, 2.381924e-001
3.814507e+003, 2.376757e-001
3.816436e+003, 2.389858e-001
3.818364e+003, 2.411787e-001
3.820292e+003, 2.426771e-001
3.822221e+003, 2.415585e-001
3.824149e+003, 2.398420e-001
3.826078e+003, 2.382668e-001
3.828006e+003, 2.386728e-001
3.829935e+003, 2.395056e-001
3.831863e+003, 2.400714e-001
3.833792e+003, 2.402767e-001
3.835720e+003, 2.396317e-001
3.837649e+003, 2.392711e-001
3.839577e+003, 2.393562e-001
3.841506e+003, 2.402917e-001
3.843434e+003, 2.408006e-001
3.845363e+003, 2.412908e-001
3.847291e+003, 2.409118e-001
3.849219e+003, 2.406722e-001
3.851148e+003, 2.392967e-001
3.853076e+003, 2.381136e-001
3.855005e+003, 2.388474e-001
3.856933e+003, 2.383837e-001
3.858862e+003, 2.383542e-001
3.860790e+003, 2.395796e-001
3.862719e+003, 2.399328e-001
3.864647e+003, 2.391754e-001
3.866576e+003, 2.384133e-001
3.868504e+003, 2.396293e-001
3.870433e+003, 2.403040e-001
3.872361e+003, 2.403708e-001
3.874290e+003, 2.416247e-001
3.876218e+003, 2.423203e-001
3.878146e+003, 2.427540e-001
3.880075e+003, 2.417610e-001
3.882003e+003, 2.434440e-001
3.883932e+003, 2.432403e-001
3.885860e+003, 2.424088e-001
3.887789e+003, 2.445615e-001
3.889717e+003, 2.458288e-001
3.891646e+003, 2.446934e-001
3.893574e+003, 2.420062e-001
3.895503e+003, 2.422666e-001
3.897431e+003, 2.419159e-001
3.899360e+003, 2.410083e-001
3.901288e+003, 2.431607e-001
3.903217e+003, 2.443382e-001
3.905145e+003, 2.440365e-001
3.907073e+003, 2.430339e-001
3.909002e+003, 2.428380e-001
3.910930e+003, 2.449063e-001
3.912859e+003, 2.460881e-001
3.914787e+003, 2.463299e-001
3.916716e+003, 2.466728e-001
3.918644e+003, 2.443570e-001
3.920573e+003, 2.424186e-001
3.922501e+003, 2.423304e-001
3.924430e+003, 2.447297e-001
3.926358e+003, 2.458552e-001
3.928287e+003, 2.456621e-001
3.930215e+003, 2.455723e-001
3.932144e+003, 2.444150e-001
3.934072e+003, 2.444880e-001
3.936000e+003, 2.449755e-001
3.937929e+003, 2.461063e-001
3.939857e+003, 2.469878e-001
3.941786e+003, 2.462356e-001
3.943714e+003, 2.453243e-001
3.945643e+003, 2.470362e-001
3.947571e+003, 2.472964e-001
3.949500e+003, 2.469806e-001
3.951428e+003, 2.475441e-001
3.953357e+003, 2.477243e-001
3.955285e+003, 2.480087e-001
3.957214e+003, 2.492653e-001
3.959142e+003, 2.500199e-001
3.961071e+003, 2.493634e-001
3.962999e+003, 2.491561e-001
3.964927e+003, 2.500029e-001
3.966856e+003, 2.504757e-001
3.968784e+003, 2.513538e-001
3.970713e+003, 2.531540e-001
3.972641e+003, 2.522874e-001
3.974570e+003, 2.504424e-001
3.976498e+003, 2.491736e-001
3.978427e+003, 2.467591e-001
3.980355e+003, 2.475499e-001
3.982284e+003, 2.490959e-001
3.984212e+003, 2.496968e-001
3.986141e+003, 2.503738e-001
3.988069e+003, 2.513553e-001
3.989998e+003, 2.504984e-001
3.991926e+003, 2.513314e-001
3.993854e+003, 2.511480e-001
3.995783e+003, 2.503138e-001
3.997711e+003, 2.509262e-001
3.999640e+003, 2.510464e-001
4.001568e+003, 0.000000e+000
##END=



