##NAMES=Diaboleite
##RRUFFID=R050270
##IDEAL CHEMISTRY=Cu^2+^Pb^2+^_2_Cl_2_(OH)_4_
##LOCALITY=Tiger, Pinal County, Arizona, USA
##OWNER=RRUFF
##SOURCE=Marcus Origlieri
##DESCRIPTION=Blue irregular crystalline
##STATUS=The identification of this mineral has been confirmed by X-ray diffraction and chemical analysis
##URL=rruff.info/R050270
##MEASURED CHEMISTRY=(Cu_0.97_Pb_0.03_)_Î£=1_Pb_2.00_Cl_2.00_(OH)_4_
399.1926, 6.1572671E-02
401.1211, 4.9514290E-02
403.0496, 4.9752340E-02
404.9780, 4.6711199E-02
406.9065, 4.5269500E-02
408.8350, 4.5713060E-02
410.7634, 4.8163220E-02
412.6919, 5.3479992E-02
414.6204, 5.7929989E-02
416.5488, 6.0146678E-02
418.4773, 6.3289329E-02
420.4058, 7.0695192E-02
422.3342, 7.6172099E-02
424.2627, 7.9772353E-02
426.1912, 8.9886233E-02
428.1196, 0.1038989
430.0481, 0.1173300
431.9766, 0.1343001
433.9050, 0.1544143
435.8335, 0.1750477
437.7620, 0.1905627
439.6904, 0.1934028
441.6189, 0.1830870
443.5474, 0.1605346
445.4758, 0.1357238
447.4043, 0.1133853
449.3328, 9.6968271E-02
451.2612, 8.6799122E-02
453.1897, 8.0233961E-02
455.1182, 7.3977098E-02
457.0466, 6.8612009E-02
458.9751, 6.6232540E-02
460.9036, 6.4711712E-02
462.8320, 6.5511458E-02
464.7605, 6.8086162E-02
466.6890, 6.9799967E-02
468.6174, 6.9887817E-02
470.5459, 6.9639564E-02
472.4744, 6.8348318E-02
474.4028, 6.5529570E-02
476.3313, 6.1512262E-02
478.2598, 5.8631029E-02
480.1882, 5.6189571E-02
482.1167, 5.3803168E-02
484.0452, 5.1560000E-02
485.9736, 4.9394701E-02
487.9021, 4.7577418E-02
489.8306, 4.6385150E-02
491.7590, 4.6088919E-02
493.6875, 4.5297600E-02
495.6160, 4.3663699E-02
497.5444, 4.1876029E-02
499.4729, 4.0536091E-02
501.4014, 4.0543050E-02
503.3298, 4.0413219E-02
505.2583, 3.9183062E-02
507.1868, 3.7833322E-02
509.1152, 3.6959670E-02
511.0437, 3.7115559E-02
512.9722, 3.7303120E-02
514.9006, 3.6729250E-02
516.8291, 3.6219422E-02
518.7576, 3.6008209E-02
520.6860, 3.6143441E-02
522.6145, 3.5613690E-02
524.5430, 3.4585360E-02
526.4714, 3.3932429E-02
528.3999, 3.3533990E-02
530.3284, 3.2722700E-02
532.2568, 3.1885680E-02
534.1853, 3.1210350E-02
536.1138, 3.0513979E-02
538.0422, 2.9526651E-02
539.9707, 2.8703690E-02
541.8992, 2.8551150E-02
543.8276, 2.8585060E-02
545.7561, 2.8052781E-02
547.6846, 2.7426779E-02
549.6130, 2.7734760E-02
551.5415, 2.8400630E-02
553.4700, 2.9246891E-02
555.3984, 2.9262871E-02
557.3269, 2.9321959E-02
559.2554, 2.9797951E-02
561.1838, 3.0484870E-02
563.1123, 3.1220280E-02
565.0408, 3.1839728E-02
566.9692, 3.2894678E-02
568.8977, 3.3472661E-02
570.8262, 3.4576520E-02
572.7546, 3.5822731E-02
574.6831, 3.6859371E-02
576.6116, 3.7681419E-02
578.5400, 3.8699038E-02
580.4685, 4.0335990E-02
582.3970, 4.1803680E-02
584.3254, 4.3011371E-02
586.2539, 4.4310659E-02
588.1824, 4.5782529E-02
590.1108, 4.7637440E-02
592.0393, 4.9526799E-02
593.9678, 5.1554941E-02
595.8962, 5.3885311E-02
597.8247, 5.6033209E-02
599.7532, 5.7730429E-02
601.6816, 6.0068570E-02
603.6101, 6.2715933E-02
605.5386, 6.5454647E-02
607.4670, 6.8475313E-02
609.3955, 7.1525909E-02
611.3240, 7.4763954E-02
613.2524, 7.8676783E-02
615.1809, 8.3118208E-02
617.1094, 8.7546512E-02
619.0378, 9.1492243E-02
620.9663, 9.5927231E-02
622.8948, 0.1009992
624.8232, 0.1060205
626.7517, 0.1110840
628.6802, 0.1171639
630.6086, 0.1239487
632.5371, 0.1302775
634.4656, 0.1368664
636.3940, 0.1442741
638.3225, 0.1520391
640.2510, 0.1601155
642.1794, 0.1685352
644.1079, 0.1770155
646.0364, 0.1853674
647.9648, 0.1940869
649.8933, 0.2025919
651.8218, 0.2107739
653.7502, 0.2190836
655.6787, 0.2265755
657.6072, 0.2334511
659.5356, 0.2406937
661.4641, 0.2470289
663.3926, 0.2508924
665.3210, 0.2544966
667.2495, 0.2571867
669.1780, 0.2581240
671.1064, 0.2579277
673.0349, 0.2558338
674.9634, 0.2520355
676.8918, 0.2467653
678.8203, 0.2390679
680.7488, 0.2296719
682.6772, 0.2206475
684.6057, 0.2107221
686.5342, 0.1996103
688.4626, 0.1881444
690.3911, 0.1769339
692.3196, 0.1658514
694.2480, 0.1544832
696.1765, 0.1432384
698.1050, 0.1326048
700.0334, 0.1226578
701.9619, 0.1137998
703.8904, 0.1064288
705.8188, 9.9777229E-02
707.7473, 9.3734093E-02
709.6758, 8.8921033E-02
711.6042, 8.4983990E-02
713.5327, 8.1578702E-02
715.4612, 7.8502253E-02
717.3896, 7.5980529E-02
719.3181, 7.3735163E-02
721.2466, 7.1474351E-02
723.1750, 6.9438547E-02
725.1035, 6.7867078E-02
727.0320, 6.6077538E-02
728.9604, 6.3723043E-02
730.8889, 6.1647870E-02
732.8174, 5.9639461E-02
734.7458, 5.7657730E-02
736.6743, 5.5855259E-02
738.6028, 5.4250691E-02
740.5313, 5.2877892E-02
742.4597, 5.1398229E-02
744.3882, 5.0385252E-02
746.3167, 4.9505308E-02
748.2451, 4.8846960E-02
750.1736, 4.8828371E-02
752.1021, 4.8469521E-02
754.0305, 4.8156019E-02
755.9590, 4.8256200E-02
757.8875, 4.8473410E-02
759.8159, 4.8661031E-02
761.7444, 4.9021419E-02
763.6729, 4.9585089E-02
765.6013, 5.0385311E-02
767.5298, 5.1431421E-02
769.4583, 5.3070839E-02
771.3867, 5.4895900E-02
773.3152, 5.6434639E-02
775.2437, 5.7512600E-02
777.1721, 5.8745291E-02
779.1006, 5.9773441E-02
781.0291, 6.0115822E-02
782.9575, 5.9623308E-02
784.8860, 5.8972001E-02
786.8145, 5.8866799E-02
788.7429, 5.8386412E-02
790.6714, 5.7682570E-02
792.5999, 5.7656810E-02
794.5283, 5.7826702E-02
796.4568, 5.7607230E-02
798.3853, 5.6760851E-02
800.3137, 5.4983132E-02
802.2422, 5.2221280E-02
804.1707, 4.9354400E-02
806.0991, 4.7001991E-02
808.0276, 4.5117430E-02
809.9561, 4.3355040E-02
811.8845, 4.2125959E-02
813.8130, 4.1567270E-02
815.7415, 4.1445851E-02
817.6699, 4.1751008E-02
819.5984, 4.2793341E-02
821.5269, 4.3858059E-02
823.4553, 4.4954009E-02
825.3838, 4.6413571E-02
827.3123, 4.8057411E-02
829.2407, 5.0629720E-02
831.1692, 5.3663660E-02
833.0977, 5.6696471E-02
835.0261, 6.0036141E-02
836.9546, 6.3521810E-02
838.8831, 6.7444801E-02
840.8115, 7.1053520E-02
842.7400, 7.5025193E-02
844.6685, 7.9008222E-02
846.5969, 8.2380056E-02
848.5254, 8.5530549E-02
850.4539, 8.7987296E-02
852.3823, 8.9648999E-02
854.3108, 9.0089694E-02
856.2393, 8.9256883E-02
858.1677, 8.7580867E-02
860.0962, 8.4868371E-02
862.0247, 8.1518777E-02
863.9531, 7.7720903E-02
865.8816, 7.3440477E-02
867.8101, 6.9223657E-02
869.7385, 6.5246359E-02
871.6670, 6.1167099E-02
873.5955, 5.7294130E-02
875.5239, 5.3891011E-02
877.4524, 5.0695721E-02
879.3809, 4.7961101E-02
881.3093, 4.5649581E-02
883.2378, 4.3268919E-02
885.1663, 4.1103169E-02
887.0947, 3.9520010E-02
889.0232, 3.7844948E-02
890.9517, 3.6620051E-02
892.8801, 3.5487831E-02
894.8085, 3.4292500E-02
896.7370, 3.3512991E-02
898.6655, 3.2813240E-02
900.5939, 3.2091841E-02
902.5224, 3.1396341E-02
904.4509, 3.0770030E-02
906.3793, 3.0401081E-02
908.3078, 3.0368660E-02
910.2363, 3.0470241E-02
912.1647, 3.0190110E-02
914.0932, 2.9797191E-02
916.0217, 2.9543569E-02
917.9501, 2.9621551E-02
919.8786, 2.9780179E-02
921.8071, 2.9878950E-02
923.7355, 3.0061480E-02
925.6640, 3.0031171E-02
927.5925, 3.0172691E-02
929.5209, 3.0192841E-02
931.4494, 3.0433349E-02
933.3779, 3.0716080E-02
935.3063, 3.0761231E-02
937.2348, 3.0820969E-02
939.1633, 3.1068970E-02
941.0917, 3.1561501E-02
943.0202, 3.1674039E-02
944.9487, 3.1754721E-02
946.8771, 3.1997729E-02
948.8056, 3.2485232E-02
950.7341, 3.2734338E-02
952.6625, 3.2792769E-02
954.5910, 3.3362690E-02
956.5195, 3.3872958E-02
958.4479, 3.4260292E-02
960.3764, 3.4736160E-02
962.3049, 3.5340648E-02
964.2333, 3.6213059E-02
966.1618, 3.6846992E-02
968.0903, 3.7323680E-02
970.0187, 3.7773669E-02
971.9472, 3.8639590E-02
973.8757, 3.9653938E-02
975.8041, 4.0566690E-02
977.7326, 4.1601799E-02
979.6611, 4.2982019E-02
981.5895, 4.4326399E-02
983.5180, 4.5063931E-02
985.4465, 4.5433089E-02
987.3749, 4.5848090E-02
989.3034, 4.6376038E-02
991.2319, 4.6729252E-02
993.1603, 4.7180731E-02
995.0888, 4.7604110E-02
997.0173, 4.8031170E-02
998.9457, 4.8285380E-02
1000.874, 4.8357911E-02
1002.803, 4.8633680E-02
1004.731, 4.9137570E-02
1006.660, 4.9895570E-02
1008.588, 5.0494850E-02
1010.517, 5.1026791E-02
1012.445, 5.1729731E-02
1014.373, 5.2531000E-02
1016.302, 5.3223919E-02
1018.230, 5.3946249E-02
1020.159, 5.4447431E-02
1022.087, 5.5092439E-02
1024.016, 5.5911459E-02
1025.944, 5.6657210E-02
1027.873, 5.7199609E-02
1029.801, 5.7772521E-02
1031.730, 5.8597770E-02
1033.658, 5.9378691E-02
1035.587, 6.0143068E-02
1037.515, 6.1034150E-02
1039.444, 6.1915450E-02
1041.372, 6.2933713E-02
1043.301, 6.4016439E-02
1045.229, 6.4754456E-02
1047.157, 6.5104477E-02
1049.086, 6.5253101E-02
1051.014, 6.5348729E-02
1052.943, 6.5506078E-02
1054.871, 6.5644778E-02
1056.800, 6.5605357E-02
1058.728, 6.5533079E-02
1060.657, 6.5210581E-02
1062.585, 6.4886138E-02
1064.514, 6.4518787E-02
1066.442, 6.4342313E-02
1068.371, 6.4613290E-02
1070.299, 6.5097816E-02
1072.228, 6.5995157E-02
1074.156, 6.7127883E-02
1076.084, 6.8270929E-02
1078.013, 6.8686739E-02
1079.941, 6.8858393E-02
1081.870, 6.9271967E-02
1083.798, 6.9498867E-02
1085.727, 6.9333993E-02
1087.655, 6.9273613E-02
1089.584, 6.8936177E-02
1091.512, 6.8149172E-02
1093.441, 6.7469433E-02
1095.369, 6.6713288E-02
1097.298, 6.5485664E-02
1099.226, 6.4402796E-02
1101.155, 6.3299917E-02
1103.083, 6.2308900E-02
1105.011, 6.1095890E-02
1106.940, 5.9881091E-02
1108.868, 5.8890808E-02
1110.797, 5.7888702E-02
1112.725, 5.6967251E-02
1114.654, 5.5946421E-02
1116.582, 5.4864090E-02
1118.511, 5.3458929E-02
1120.439, 5.2253991E-02
1122.368, 5.1356681E-02
1124.296, 5.0435729E-02
1126.225, 4.9596310E-02
1128.153, 4.9114179E-02
1130.082, 4.8691101E-02
1132.010, 4.8250001E-02
1133.938, 4.7783509E-02
1135.867, 4.7200900E-02
1137.795, 4.6815630E-02
1139.724, 4.6546821E-02
1141.652, 4.6151631E-02
1143.581, 4.5698840E-02
1145.509, 4.5346562E-02
1147.438, 4.4943850E-02
1149.366, 4.4398978E-02
1151.295, 4.4106189E-02
1153.223, 4.3740749E-02
1155.152, 4.3392599E-02
1157.080, 4.3514539E-02
1159.009, 4.4027880E-02
1160.937, 4.4753410E-02
1162.865, 4.5305468E-02
1164.794, 4.5311000E-02
1166.722, 4.5174029E-02
1168.651, 4.4664580E-02
1170.579, 4.4005539E-02
1172.508, 4.3821041E-02
1174.436, 4.3491941E-02
1176.365, 4.3051582E-02
1178.293, 4.2925071E-02
1180.222, 4.2427812E-02
1182.150, 4.1684572E-02
1184.079, 4.1245520E-02
1186.007, 4.1193020E-02
1187.936, 4.1078862E-02
1189.864, 4.0671460E-02
1191.792, 4.0290769E-02
1193.721, 3.9654281E-02
1195.649, 3.9318118E-02
1197.578, 3.9158039E-02
1199.506, 3.8621418E-02
1201.435, 3.8315021E-02
1203.363, 3.8221851E-02
1205.292, 3.8003352E-02
1207.220, 3.7763368E-02
1209.149, 3.7186589E-02
1211.077, 3.6629029E-02
1213.006, 3.6438569E-02
1214.934, 3.6233809E-02
1216.863, 3.5974611E-02
1218.791, 3.6121581E-02
1220.719, 3.6192071E-02
1222.648, 3.6010399E-02
1224.576, 3.6249209E-02
1226.505, 3.6196422E-02
1228.433, 3.5919420E-02
1230.362, 3.6130149E-02
1232.290, 3.6271978E-02
1234.219, 3.6179319E-02
1236.147, 3.6328670E-02
1238.076, 3.6708329E-02
1240.004, 3.6832150E-02
1241.933, 3.7037060E-02
1243.861, 3.7080310E-02
1245.790, 3.6976241E-02
1247.718, 3.7347458E-02
1249.646, 3.7720680E-02
1251.575, 3.7690248E-02
1253.503, 3.7745081E-02
1255.432, 3.7738051E-02
1257.360, 3.7751559E-02
1259.289, 3.7994292E-02
1261.217, 3.8185079E-02
1263.146, 3.8202770E-02
1265.074, 3.8277939E-02
1267.003, 3.8462158E-02
1268.931, 3.8771320E-02
1270.860, 3.8986258E-02
1272.788, 3.8998719E-02
1274.717, 3.9077740E-02
1276.645, 3.9350308E-02
1278.573, 3.9378960E-02
1280.502, 3.9525811E-02
1282.430, 3.9771691E-02
1284.359, 4.0064689E-02
1286.287, 4.0302381E-02
1288.216, 4.0408310E-02
1290.144, 4.0371031E-02
1292.073, 4.0622629E-02
1294.001, 4.1112509E-02
1295.930, 4.1206680E-02
1297.858, 4.1069578E-02
1299.787, 4.1398920E-02
1301.715, 4.1763600E-02
1303.644, 4.2020459E-02
1305.572, 4.2544529E-02
1307.500, 4.2855822E-02
1309.429, 4.3014150E-02
1311.357, 4.3147381E-02
1313.286, 4.3257769E-02
1315.214, 4.3354999E-02
1317.143, 4.3544021E-02
1319.071, 4.3930229E-02
1321.000, 4.4443391E-02
1322.928, 4.5125809E-02
1324.857, 4.5746580E-02
1326.785, 4.5913938E-02
1328.714, 4.5940880E-02
1330.642, 4.6365920E-02
1332.571, 4.6784818E-02
1334.499, 4.7193330E-02
1336.427, 4.7617890E-02
1338.356, 4.7971599E-02
1340.284, 4.8180752E-02
1342.213, 4.8114002E-02
1344.141, 4.8273198E-02
1346.070, 4.8375160E-02
1347.998, 4.8524339E-02
1349.927, 4.8712868E-02
1351.855, 4.8581619E-02
1353.784, 4.8339691E-02
1355.712, 4.8342559E-02
1357.641, 4.8542421E-02
1359.569, 4.8714299E-02
1361.498, 4.8830729E-02
1363.426, 4.9028300E-02
1365.354, 4.9474850E-02
1367.283, 4.9671412E-02
1369.211, 4.9332909E-02
1371.140, 4.9195301E-02
1373.068, 4.9329571E-02
1374.997, 4.9491651E-02
1376.925, 4.9697880E-02
1378.854, 4.9540199E-02
1380.782, 4.9276169E-02
1382.711, 4.9280431E-02
1384.639, 4.9302489E-02
1386.568, 4.9606580E-02
1388.496, 4.9848799E-02
1390.424, 4.9661729E-02
1392.353, 4.9518570E-02
1394.281, 4.9687501E-02
1396.210, 5.0008371E-02
1398.138, 5.0549619E-02
1400.067, 5.0773330E-02
1401.995, 5.0777070E-02
1403.924, 5.0635152E-02
1405.852, 5.0777540E-02
1407.781, 5.1022299E-02
1409.709, 5.1265709E-02
1411.638, 5.1077738E-02
1413.566, 5.0888252E-02
1415.495, 5.0913811E-02
1417.423, 5.0997671E-02
1419.351, 5.1073492E-02
1421.280, 5.1324990E-02
1423.208, 5.1176671E-02
1425.137, 5.0824299E-02
1427.065, 5.0633390E-02
1428.994, 5.0462749E-02
1430.922, 4.9978901E-02
1432.851, 4.9917221E-02
1434.779, 5.0053030E-02
1436.708, 4.9686879E-02
1438.636, 4.9138371E-02
1440.565, 4.8806190E-02
1442.493, 4.8834931E-02
1444.422, 4.8639160E-02
1446.350, 4.8259810E-02
1448.278, 4.7864169E-02
1450.207, 4.7836289E-02
1452.135, 4.7608640E-02
1454.064, 4.6964351E-02
1455.992, 4.6976339E-02
1457.921, 4.7142260E-02
1459.849, 4.6909962E-02
1461.778, 4.6842121E-02
1463.706, 4.6858910E-02
1465.635, 4.6705309E-02
1467.563, 4.6422381E-02
1469.492, 4.6198040E-02
1471.420, 4.5995701E-02
1473.349, 4.5679629E-02
1475.277, 4.5368731E-02
1477.205, 4.5178220E-02
1479.134, 4.5219161E-02
1481.062, 4.5355670E-02
1482.991, 4.5718510E-02
1484.919, 4.6111621E-02
1486.848, 4.6236970E-02
1488.776, 4.6487682E-02
1490.705, 4.7099952E-02
1492.633, 4.7313601E-02
1494.562, 4.7529131E-02
1496.490, 4.8101351E-02
1498.419, 4.8589729E-02
1500.347, 4.9143922E-02
1502.276, 4.9717251E-02
1504.204, 5.0472070E-02
1506.132, 5.1578671E-02
1508.061, 5.2463960E-02
1509.989, 5.2915592E-02
1511.918, 5.3563189E-02
1513.846, 5.4334220E-02
1515.775, 5.5044498E-02
1517.703, 5.5278469E-02
1519.632, 5.5932499E-02
1521.560, 5.6579471E-02
1523.489, 5.7102442E-02
1525.417, 5.8173761E-02
1527.346, 5.9000541E-02
1529.274, 5.9294231E-02
1531.203, 5.9541430E-02
1533.131, 5.9912160E-02
1535.059, 6.0653999E-02
1536.988, 6.1311599E-02
1538.916, 6.1833661E-02
1540.845, 6.1926719E-02
1542.773, 6.2225580E-02
1544.702, 6.2051859E-02
1546.630, 6.1459109E-02
1548.559, 6.1370511E-02
1550.487, 6.1516900E-02
1552.416, 6.1308522E-02
1554.344, 6.0820982E-02
1556.273, 6.0205519E-02
1558.201, 6.0154151E-02
1560.130, 5.9592329E-02
1562.058, 5.8233071E-02
1563.986, 5.7310820E-02
1565.915, 5.7489220E-02
1567.843, 5.7329860E-02
1569.772, 5.6392550E-02
1571.700, 5.5357780E-02
1573.629, 5.4605100E-02
1575.557, 5.4428000E-02
1577.486, 5.3998739E-02
1579.414, 5.3165529E-02
1581.343, 5.2700300E-02
1583.271, 5.2383959E-02
1585.200, 5.1950619E-02
1587.128, 5.1387642E-02
1589.057, 5.0858900E-02
1590.985, 5.0389439E-02
1592.913, 5.0034720E-02
1594.842, 4.9783889E-02
1596.770, 4.9373992E-02
1598.699, 4.8935749E-02
1600.627, 4.8513159E-02
1602.556, 4.8437819E-02
1604.484, 4.8357449E-02
1606.413, 4.8018381E-02
1608.341, 4.8079111E-02
1610.270, 4.8040569E-02
1612.198, 4.7639661E-02
1614.127, 4.7283661E-02
1616.055, 4.7214031E-02
1617.984, 4.6865892E-02
1619.912, 4.6658728E-02
1621.840, 4.6534389E-02
1623.769, 4.6542771E-02
1625.697, 4.6413701E-02
1627.626, 4.6334241E-02
1629.554, 4.6221331E-02
1631.483, 4.6161141E-02
1633.411, 4.5986310E-02
1635.340, 4.5830701E-02
1637.268, 4.5585480E-02
1639.197, 4.5559380E-02
1641.125, 4.5644160E-02
1643.054, 4.5374811E-02
1644.982, 4.5225959E-02
1646.911, 4.5166511E-02
1648.839, 4.4799250E-02
1650.767, 4.4868700E-02
1652.696, 4.4827439E-02
1654.624, 4.4389769E-02
1656.553, 4.4007652E-02
1658.481, 4.3990009E-02
1660.410, 4.3884799E-02
1662.338, 4.3550119E-02
1664.267, 4.3158852E-02
1666.195, 4.2943310E-02
1668.124, 4.3030381E-02
1670.052, 4.2949710E-02
1671.981, 4.2666629E-02
1673.909, 4.2398989E-02
1675.838, 4.2207900E-02
1677.766, 4.2055439E-02
1679.694, 4.2092040E-02
1681.623, 4.2024329E-02
1683.551, 4.1639011E-02
1685.480, 4.1106269E-02
1687.408, 4.0838499E-02
1689.337, 4.0761732E-02
1691.265, 4.0692039E-02
1693.194, 4.0743191E-02
1695.122, 4.0948231E-02
1697.051, 4.0612079E-02
1698.979, 4.0230200E-02
1700.908, 3.9999109E-02
1702.836, 3.9900810E-02
1704.765, 3.9403498E-02
1706.693, 3.8694531E-02
1708.621, 3.8479559E-02
1710.550, 3.8250111E-02
1712.478, 3.7794821E-02
1714.407, 3.7712660E-02
1716.335, 3.8142480E-02
1718.264, 3.8273670E-02
1720.192, 3.8012799E-02
1722.121, 3.7580900E-02
1724.049, 3.7505921E-02
1725.978, 3.7018642E-02
1727.906, 3.6939468E-02
1729.835, 3.7142921E-02
1731.763, 3.6825281E-02
1733.692, 3.6502000E-02
1735.620, 3.6063511E-02
1737.548, 3.5629518E-02
1739.477, 3.5293698E-02
1741.405, 3.4964051E-02
1743.334, 3.5041429E-02
1745.262, 3.5150088E-02
1747.191, 3.5020489E-02
1749.119, 3.5310101E-02
1751.048, 3.5666671E-02
1752.976, 3.5741501E-02
1754.905, 3.6146428E-02
1756.833, 3.6209170E-02
1758.762, 3.5915960E-02
1760.690, 3.6029018E-02
1762.619, 3.6569800E-02
1764.547, 3.6446512E-02
1766.475, 3.6093231E-02
1768.404, 3.6273349E-02
1770.332, 3.6436830E-02
1772.261, 3.6544379E-02
1774.189, 3.6591910E-02
1776.118, 3.6511671E-02
1778.046, 3.6043610E-02
1779.975, 3.6281340E-02
1781.903, 3.6833230E-02
1783.832, 3.6786512E-02
1785.760, 3.6577009E-02
1787.689, 3.6192279E-02
1789.617, 3.6838599E-02
1791.546, 3.7543330E-02
1793.474, 3.7520390E-02
1795.402, 3.6666378E-02
1797.331, 3.6339689E-02
1799.259, 3.6661610E-02
1801.188, 3.6894951E-02
1803.116, 3.6987320E-02
1805.045, 3.7248362E-02
1806.973, 3.7372671E-02
1808.902, 3.7425250E-02
1810.830, 3.7273321E-02
1812.759, 3.6713231E-02
1814.687, 3.6564510E-02
1816.616, 3.6721662E-02
1818.544, 3.6895242E-02
1820.473, 3.6853220E-02
1822.401, 3.6752831E-02
1824.329, 3.6731262E-02
1826.258, 3.7333440E-02
1828.186, 3.7592709E-02
1830.115, 3.7238531E-02
1832.043, 3.7605520E-02
1833.972, 3.7597381E-02
1835.900, 3.7289571E-02
1837.829, 3.7639361E-02
1839.757, 3.7849750E-02
1841.686, 3.7831649E-02
1843.614, 3.7853010E-02
1845.543, 3.7310369E-02
1847.471, 3.7501421E-02
1849.400, 3.8132679E-02
1851.328, 3.7973259E-02
1853.256, 3.7778009E-02
1855.185, 3.8119260E-02
1857.113, 3.8598090E-02
1859.042, 3.8422510E-02
1860.970, 3.7819199E-02
1862.899, 3.7842210E-02
1864.827, 3.8041718E-02
1866.756, 3.7632249E-02
1868.684, 3.7940789E-02
1870.613, 3.8506258E-02
1872.541, 3.8686030E-02
1874.470, 3.8568191E-02
1876.398, 3.8574040E-02
1878.327, 3.9419308E-02
1880.255, 3.9872080E-02
1882.183, 3.9214280E-02
1884.112, 3.8425371E-02
1886.040, 3.8148869E-02
1887.969, 3.8423002E-02
1889.897, 3.8355540E-02
1891.826, 3.8762201E-02
1893.754, 3.9440271E-02
1895.683, 3.9201740E-02
1897.611, 3.8876511E-02
1899.540, 3.8695350E-02
1901.468, 3.8018402E-02
1903.397, 3.7411351E-02
1905.325, 3.7995972E-02
1907.254, 3.8959660E-02
1909.182, 3.9643921E-02
1911.110, 3.9943531E-02
1913.039, 3.9202880E-02
1914.967, 3.8569331E-02
1916.896, 3.8423769E-02
1918.824, 3.7776791E-02
1920.753, 3.8676791E-02
1922.681, 3.8836740E-02
1924.610, 3.8921259E-02
1926.538, 4.0383670E-02
1928.467, 4.0600810E-02
1930.395, 3.9468780E-02
1932.324, 3.9690770E-02
1934.252, 3.9010040E-02
1936.181, 3.8663879E-02
1938.109, 3.9134249E-02
1940.037, 3.9211571E-02
1941.966, 3.8402479E-02
1943.894, 3.8692359E-02
1945.823, 3.9712850E-02
1947.751, 3.9379649E-02
1949.680, 3.8454220E-02
1951.608, 3.8257342E-02
1953.537, 3.9063469E-02
1955.465, 3.9263800E-02
1957.394, 3.8490310E-02
1959.322, 3.9909910E-02
1961.251, 4.1028250E-02
1963.179, 4.2217601E-02
1965.108, 4.0668208E-02
1967.036, 3.7970580E-02
1968.964, 3.7330180E-02
1970.893, 3.9091870E-02
1972.821, 4.0445860E-02
1974.750, 3.9638542E-02
1976.678, 3.7616290E-02
1978.607, 4.0830489E-02
1980.535, 4.3436900E-02
1982.464, 4.3054000E-02
1984.392, 4.2439532E-02
1986.321, 4.3287769E-02
1988.249, 4.3536179E-02
1990.178, 4.4533640E-02
1992.106, 4.4094969E-02
1994.035, 4.3464571E-02
1995.963, 4.2966802E-02
1997.891, 4.2242911E-02
1999.820, 3.9934631E-02
2001.748, 4.0410221E-02
2003.677, 4.2079501E-02
2005.605, 4.0863600E-02
2007.534, 3.9493669E-02
2009.462, 3.9409149E-02
2011.391, 3.8485158E-02
2013.319, 3.7676279E-02
2015.248, 3.8759951E-02
2017.176, 4.2033229E-02
2019.105, 4.2550132E-02
2021.033, 4.0793352E-02
2022.962, 4.1357450E-02
2024.890, 4.3330520E-02
2026.818, 4.1432150E-02
2028.747, 4.1380469E-02
2030.675, 4.2263910E-02
2032.604, 4.3260518E-02
2034.532, 4.3050058E-02
2036.461, 4.3506399E-02
2038.389, 4.4168010E-02
2040.318, 4.2623479E-02
2042.246, 4.2759970E-02
2044.175, 4.3573730E-02
2046.103, 4.4979978E-02
2048.032, 4.5135740E-02
2049.960, 4.5104071E-02
2051.889, 4.5038510E-02
2053.817, 4.3910570E-02
2055.746, 4.2835709E-02
2057.674, 4.1908830E-02
2059.603, 4.1920360E-02
2061.531, 4.1301921E-02
2063.459, 4.0505391E-02
2065.388, 4.2098291E-02
2067.316, 4.2425379E-02
2069.245, 4.2407881E-02
2071.173, 4.2505100E-02
2073.102, 4.3677449E-02
2075.030, 4.3287899E-02
2076.959, 4.1980069E-02
2078.887, 4.2603400E-02
2080.816, 4.4125460E-02
2082.744, 4.3799762E-02
2084.673, 4.4099841E-02
2086.601, 4.4877201E-02
2088.530, 4.4131301E-02
2090.458, 4.3125141E-02
2092.386, 4.1654918E-02
2094.315, 4.1724119E-02
2096.243, 4.3673810E-02
2098.172, 4.3576442E-02
2100.100, 4.3911360E-02
2102.029, 4.6612009E-02
2103.957, 4.7170449E-02
2105.886, 4.6287660E-02
2107.814, 4.5546141E-02
2109.743, 4.5470562E-02
2111.671, 4.5358311E-02
2113.600, 4.4441011E-02
2115.528, 4.4199299E-02
2117.457, 4.4569891E-02
2119.385, 4.3783821E-02
2121.313, 4.3669101E-02
2123.242, 4.3873310E-02
2125.170, 4.4424910E-02
2127.099, 4.4535700E-02
2129.027, 4.4693280E-02
2130.956, 4.3193020E-02
2132.884, 4.1948419E-02
2134.813, 4.3499939E-02
2136.741, 4.5746330E-02
2138.670, 4.5750700E-02
2140.598, 4.2994078E-02
2142.527, 4.1434079E-02
2144.455, 4.2137701E-02
2146.384, 4.2576149E-02
2148.312, 4.3558311E-02
2150.240, 4.2535730E-02
2152.169, 4.3007821E-02
2154.097, 4.4575941E-02
2156.026, 4.1262340E-02
2157.954, 4.1958671E-02
2159.883, 4.5488391E-02
2161.811, 4.7414072E-02
2163.740, 4.7594290E-02
2165.668, 4.4484749E-02
2167.597, 4.5533311E-02
2169.525, 4.9134739E-02
2171.454, 4.7174629E-02
2173.382, 4.4435821E-02
2175.311, 4.4101190E-02
2177.239, 4.6066429E-02
2179.167, 4.6819501E-02
2181.096, 4.6838831E-02
2183.024, 4.7832459E-02
2184.953, 4.8752591E-02
2186.881, 4.8039060E-02
2188.810, 4.7069639E-02
2190.738, 4.6541370E-02
2192.667, 4.6535648E-02
2194.595, 4.8092648E-02
2196.524, 4.7825560E-02
2198.452, 4.6962611E-02
2200.381, 4.6004921E-02
2202.309, 4.5341130E-02
2204.238, 4.8378538E-02
2206.166, 4.9177740E-02
2208.094, 4.9421068E-02
2210.023, 4.9959030E-02
2211.951, 4.9229100E-02
2213.880, 4.7324460E-02
2215.808, 4.8028480E-02
2217.737, 4.9235970E-02
2219.665, 5.0708950E-02
2221.594, 5.1732019E-02
2223.522, 5.1315691E-02
2225.451, 5.0580092E-02
2227.379, 5.0467622E-02
2229.308, 5.0767768E-02
2231.236, 4.9414359E-02
2233.165, 4.7503389E-02
2235.093, 4.7635030E-02
2237.021, 4.9436659E-02
2238.950, 5.1236309E-02
2240.878, 5.0810799E-02
2242.807, 5.0505701E-02
2244.735, 5.1029291E-02
2246.664, 5.1689871E-02
2248.592, 5.0797720E-02
2250.521, 4.9458601E-02
2252.449, 4.9490459E-02
2254.378, 4.9851261E-02
2256.306, 4.9414080E-02
2258.235, 4.9724080E-02
2260.163, 5.1032688E-02
2262.092, 5.0089668E-02
2264.020, 4.9655840E-02
2265.948, 5.0978910E-02
2267.877, 5.2412249E-02
2269.805, 5.2476559E-02
2271.734, 5.1329471E-02
2273.662, 5.2034169E-02
2275.591, 5.2703291E-02
2277.519, 5.2793089E-02
2279.448, 5.3398080E-02
2281.376, 5.3985279E-02
2283.305, 5.3916350E-02
2285.233, 5.4515861E-02
2287.162, 5.3697091E-02
2289.090, 5.4149471E-02
2291.019, 5.4077499E-02
2292.947, 5.2643940E-02
2294.875, 5.2929871E-02
2296.804, 5.3351201E-02
2298.732, 5.3349160E-02
2300.661, 5.3769760E-02
2302.589, 5.4191861E-02
2304.518, 5.4212831E-02
2306.446, 5.3807311E-02
2308.375, 5.3965539E-02
2310.303, 5.4416571E-02
2312.232, 5.4677568E-02
2314.160, 5.4424681E-02
2316.089, 5.3544581E-02
2318.017, 5.3323179E-02
2319.946, 5.3180411E-02
2321.874, 5.4129969E-02
2323.802, 5.5162109E-02
2325.731, 5.5290669E-02
2327.659, 5.4732628E-02
2329.588, 5.3696219E-02
2331.516, 5.3876650E-02
2333.445, 5.3999320E-02
2335.373, 5.3636119E-02
2337.302, 5.3241711E-02
2339.230, 5.2933581E-02
2341.159, 5.3548358E-02
2343.087, 5.3572498E-02
2345.016, 5.3529538E-02
2346.944, 5.3675361E-02
2348.873, 5.3053141E-02
2350.801, 5.3320639E-02
2352.729, 5.3543780E-02
2354.658, 5.3377051E-02
2356.586, 5.3695079E-02
2358.515, 5.4159369E-02
2360.443, 5.4387391E-02
2362.372, 5.4289941E-02
2364.300, 5.4535739E-02
2366.229, 5.4522261E-02
2368.157, 5.3948302E-02
2370.086, 5.3857259E-02
2372.014, 5.4408789E-02
2373.942, 5.4756980E-02
2375.871, 5.4071430E-02
2377.799, 5.3958662E-02
2379.728, 5.4487720E-02
2381.656, 5.4642931E-02
2383.585, 5.5282012E-02
2385.513, 5.6525230E-02
2387.442, 5.5346262E-02
2389.370, 5.4401349E-02
2391.299, 5.5133671E-02
2393.227, 5.4992680E-02
2395.156, 5.4486651E-02
2397.084, 5.4767910E-02
2399.012, 5.5035610E-02
2400.941, 5.4504842E-02
2402.869, 5.4762810E-02
2404.798, 5.5862930E-02
2406.726, 5.6570768E-02
2408.655, 5.5575412E-02
2410.583, 5.4807559E-02
2412.512, 5.4368701E-02
2414.440, 5.4675251E-02
2416.369, 5.6123361E-02
2418.297, 5.6159779E-02
2420.226, 5.6478690E-02
2422.154, 5.6894351E-02
2424.083, 5.5799339E-02
2426.011, 5.5836521E-02
2427.939, 5.7268891E-02
2429.868, 5.7307150E-02
2431.796, 5.7302870E-02
2433.725, 5.7056248E-02
2435.653, 5.6947641E-02
2437.582, 5.7811979E-02
2439.510, 5.8199409E-02
2441.439, 5.7218231E-02
2443.367, 5.6754962E-02
2445.296, 5.7995439E-02
2447.224, 5.7832930E-02
2449.153, 5.7549249E-02
2451.081, 5.8894418E-02
2453.010, 5.8486432E-02
2454.938, 5.7580870E-02
2456.866, 5.7674229E-02
2458.795, 5.8448810E-02
2460.723, 5.9154019E-02
2462.652, 5.9498470E-02
2464.580, 5.9522960E-02
2466.509, 5.9483401E-02
2468.437, 5.9786212E-02
2470.366, 5.9751391E-02
2472.294, 5.9836410E-02
2474.223, 5.9390940E-02
2476.151, 5.9501909E-02
2478.080, 5.9117470E-02
2480.008, 5.9487350E-02
2481.937, 5.9210099E-02
2483.865, 5.9055358E-02
2485.793, 5.9054319E-02
2487.722, 5.8271442E-02
2489.650, 5.8876399E-02
2491.579, 5.8992960E-02
2493.507, 5.9344310E-02
2495.436, 5.9885450E-02
2497.364, 5.9353851E-02
2499.293, 5.9884548E-02
2501.221, 6.0450122E-02
2503.150, 6.0598809E-02
2505.078, 6.0352400E-02
2507.007, 6.0480788E-02
2508.935, 6.0314491E-02
2510.864, 6.0235471E-02
2512.792, 5.9833270E-02
2514.720, 6.0162369E-02
2516.649, 6.0136359E-02
2518.577, 5.9709769E-02
2520.506, 6.1085910E-02
2522.434, 6.0739890E-02
2524.363, 6.1062470E-02
2526.291, 6.1349429E-02
2528.220, 6.0417891E-02
2530.148, 6.0283381E-02
2532.077, 6.1632771E-02
2534.005, 6.2153932E-02
2535.934, 6.1009090E-02
2537.862, 6.0210649E-02
2539.791, 6.0685419E-02
2541.719, 5.9829861E-02
2543.647, 5.9512481E-02
2545.576, 6.1211910E-02
2547.504, 6.2105522E-02
2549.433, 6.2656857E-02
2551.361, 6.2329840E-02
2553.290, 6.2054820E-02
2555.218, 6.2013671E-02
2557.147, 6.2395800E-02
2559.075, 6.2598668E-02
2561.004, 6.1923850E-02
2562.932, 6.2101211E-02
2564.861, 6.2649019E-02
2566.789, 6.3327983E-02
2568.718, 6.3104071E-02
2570.646, 6.3587591E-02
2572.574, 6.2922470E-02
2574.503, 6.2606461E-02
2576.431, 6.3006073E-02
2578.360, 6.2009279E-02
2580.288, 6.1944429E-02
2582.217, 6.3275531E-02
2584.145, 6.3002229E-02
2586.074, 6.2385451E-02
2588.002, 6.4002201E-02
2589.931, 6.5313973E-02
2591.859, 6.4350888E-02
2593.788, 6.4166017E-02
2595.716, 6.4154923E-02
2597.645, 6.2994458E-02
2599.573, 6.3605882E-02
2601.501, 6.4628363E-02
2603.430, 6.4194553E-02
2605.358, 6.4359233E-02
2607.287, 6.4326957E-02
2609.215, 6.4696781E-02
2611.144, 6.4610958E-02
2613.072, 6.5018304E-02
2615.001, 6.5371603E-02
2616.929, 6.5431200E-02
2618.858, 6.4814880E-02
2620.786, 6.4219922E-02
2622.715, 6.4277753E-02
2624.643, 6.5160073E-02
2626.572, 6.6544980E-02
2628.500, 6.5993890E-02
2630.428, 6.4942643E-02
2632.357, 6.5265223E-02
2634.285, 6.5521076E-02
2636.214, 6.6043839E-02
2638.142, 6.7062952E-02
2640.071, 6.7570619E-02
2641.999, 6.7126192E-02
2643.928, 6.6504396E-02
2645.856, 6.6279367E-02
2647.785, 6.6353887E-02
2649.713, 6.6357113E-02
2651.642, 6.6263281E-02
2653.570, 6.6562027E-02
2655.499, 6.7108668E-02
2657.427, 6.6754110E-02
2659.355, 6.6470154E-02
2661.284, 6.5978318E-02
2663.212, 6.6443637E-02
2665.141, 6.7083091E-02
2667.069, 6.7101009E-02
2668.998, 6.7008793E-02
2670.926, 6.6122077E-02
2672.855, 6.5774888E-02
2674.783, 6.6705279E-02
2676.712, 6.7696929E-02
2678.640, 6.8199523E-02
2680.569, 6.8052366E-02
2682.497, 6.7948483E-02
2684.426, 6.8247609E-02
2686.354, 6.7789853E-02
2688.282, 6.7226939E-02
2690.211, 6.6752963E-02
2692.139, 6.6337436E-02
2694.068, 6.6839963E-02
2695.996, 6.7123897E-02
2697.925, 6.7187823E-02
2699.853, 6.7895867E-02
2701.782, 6.8044066E-02
2703.710, 6.7895100E-02
2705.639, 6.7850061E-02
2707.567, 6.8050027E-02
2709.496, 6.8484388E-02
2711.424, 6.8681031E-02
2713.353, 6.8439908E-02
2715.281, 6.7832246E-02
2717.209, 6.7634709E-02
2719.138, 6.8100870E-02
2721.066, 6.8424083E-02
2722.995, 6.8941407E-02
2724.923, 6.9002204E-02
2726.852, 6.8879038E-02
2728.780, 6.9554828E-02
2730.709, 6.9618762E-02
2732.637, 6.9792949E-02
2734.566, 7.1203507E-02
2736.494, 7.1621731E-02
2738.423, 7.0814617E-02
2740.351, 7.0490152E-02
2742.280, 7.0755720E-02
2744.208, 6.9879517E-02
2746.136, 6.9344647E-02
2748.065, 7.0342951E-02
2749.993, 7.0575193E-02
2751.922, 7.1174830E-02
2753.850, 7.1763970E-02
2755.779, 7.2122402E-02
2757.707, 7.2314657E-02
2759.636, 7.1855992E-02
2761.564, 7.2210632E-02
2763.493, 7.1798541E-02
2765.421, 7.0648544E-02
2767.350, 7.0826277E-02
2769.278, 7.2124988E-02
2771.207, 7.2840333E-02
2773.135, 7.1946546E-02
2775.063, 7.1573317E-02
2776.992, 7.2431713E-02
2778.920, 7.2550736E-02
2780.849, 7.2374009E-02
2782.777, 7.2477743E-02
2784.706, 7.1916297E-02
2786.634, 7.1875773E-02
2788.563, 7.3050261E-02
2790.491, 7.3915116E-02
2792.420, 7.4009657E-02
2794.348, 7.3165931E-02
2796.277, 7.2985873E-02
2798.205, 7.3055111E-02
2800.134, 7.3898762E-02
2802.062, 7.4707523E-02
2803.990, 7.4083202E-02
2805.919, 7.3136650E-02
2807.847, 7.3155992E-02
2809.776, 7.3930457E-02
2811.704, 7.4742019E-02
2813.633, 7.3921621E-02
2815.561, 7.3645957E-02
2817.490, 7.3965423E-02
2819.418, 7.4049503E-02
2821.347, 7.3965192E-02
2823.275, 7.4178517E-02
2825.204, 7.5212732E-02
2827.132, 7.6014459E-02
2829.061, 7.5647533E-02
2830.989, 7.4596658E-02
2832.917, 7.4842773E-02
2834.846, 7.5557217E-02
2836.774, 7.5191922E-02
2838.703, 7.4924663E-02
2840.631, 7.5620949E-02
2842.560, 7.6489292E-02
2844.488, 7.6130733E-02
2846.417, 7.5103097E-02
2848.345, 7.4846327E-02
2850.274, 7.4552923E-02
2852.202, 7.4884832E-02
2854.131, 7.5912751E-02
2856.059, 7.5799353E-02
2857.988, 7.5313307E-02
2859.916, 7.5738542E-02
2861.844, 7.7000953E-02
2863.773, 7.7299699E-02
2865.701, 7.7305667E-02
2867.630, 7.7728309E-02
2869.558, 7.8049503E-02
2871.487, 7.8071468E-02
2873.415, 7.8118630E-02
2875.344, 7.7722616E-02
2877.272, 7.7520527E-02
2879.201, 7.6967463E-02
2881.129, 7.7196293E-02
2883.058, 7.8232408E-02
2884.986, 7.8117259E-02
2886.915, 7.7961586E-02
2888.843, 7.8241251E-02
2890.771, 7.8506157E-02
2892.700, 7.8898847E-02
2894.628, 7.9142243E-02
2896.557, 7.8473046E-02
2898.485, 7.7968433E-02
2900.414, 7.8370944E-02
2902.342, 7.9972386E-02
2904.271, 8.1008486E-02
2906.199, 8.0792360E-02
2908.128, 7.9593219E-02
2910.056, 7.8432843E-02
2911.985, 7.9538792E-02
2913.913, 8.0693223E-02
2915.842, 7.9797648E-02
2917.770, 7.8149863E-02
2919.698, 7.8538738E-02
2921.627, 7.8571253E-02
2923.555, 7.7090137E-02
2925.484, 7.8570932E-02
2927.412, 8.0779351E-02
2929.341, 8.0475278E-02
2931.269, 7.9708859E-02
2933.198, 7.9602592E-02
2935.126, 7.9717450E-02
2937.055, 8.0193713E-02
2938.983, 8.1489094E-02
2940.912, 8.2173087E-02
2942.840, 8.1581160E-02
2944.769, 7.9988271E-02
2946.697, 8.0657251E-02
2948.625, 8.1601903E-02
2950.554, 8.1706539E-02
2952.482, 8.0992334E-02
2954.411, 8.1980184E-02
2956.339, 8.3335817E-02
2958.268, 8.3241157E-02
2960.196, 8.3514042E-02
2962.125, 8.4017321E-02
2964.053, 8.3737418E-02
2965.982, 8.4086947E-02
2967.910, 8.3639957E-02
2969.839, 8.3205827E-02
2971.767, 8.2181573E-02
2973.696, 8.1312843E-02
2975.624, 8.2924731E-02
2977.552, 8.3970748E-02
2979.481, 8.3563700E-02
2981.409, 8.2230523E-02
2983.338, 8.1657350E-02
2985.266, 8.2767420E-02
2987.195, 8.3589807E-02
2989.123, 8.3719932E-02
2991.052, 8.3573543E-02
2992.980, 8.2162634E-02
2994.909, 8.1013493E-02
2996.837, 8.3028004E-02
2998.766, 8.4760807E-02
3000.694, 8.4943719E-02
3002.623, 8.5230991E-02
3004.551, 8.5042492E-02
3006.479, 8.4875189E-02
3008.408, 8.5120797E-02
3010.336, 8.5635990E-02
3012.265, 8.6369522E-02
3014.193, 8.6067468E-02
3016.122, 8.6154647E-02
3018.050, 8.5938290E-02
3019.979, 8.5947677E-02
3021.907, 8.6648241E-02
3023.836, 8.6412452E-02
3025.764, 8.5982069E-02
3027.693, 8.5302450E-02
3029.621, 8.6655512E-02
3031.550, 8.7145358E-02
3033.478, 8.7310329E-02
3035.406, 8.7837599E-02
3037.335, 8.7833263E-02
3039.263, 8.8228241E-02
3041.192, 8.7409511E-02
3043.120, 8.7361522E-02
3045.049, 8.8238709E-02
3046.977, 8.8085443E-02
3048.906, 8.7542608E-02
3050.834, 8.8245898E-02
3052.763, 8.8987969E-02
3054.691, 8.8605121E-02
3056.620, 8.7591417E-02
3058.548, 8.9449577E-02
3060.477, 9.1034882E-02
3062.405, 8.9991607E-02
3064.333, 8.8469997E-02
3066.262, 8.9667358E-02
3068.190, 9.1892757E-02
3070.119, 9.1517583E-02
3072.047, 9.1803372E-02
3073.976, 9.2764623E-02
3075.904, 9.1877364E-02
3077.833, 9.1529302E-02
3079.761, 9.2318572E-02
3081.690, 9.1465667E-02
3083.618, 9.0811446E-02
3085.547, 9.2468992E-02
3087.475, 9.4187178E-02
3089.404, 9.3713962E-02
3091.332, 9.3451113E-02
3093.260, 9.3840957E-02
3095.189, 9.3443044E-02
3097.117, 9.3080416E-02
3099.046, 9.3702137E-02
3100.974, 9.3448743E-02
3102.903, 9.3083642E-02
3104.831, 9.4941482E-02
3106.760, 9.6428089E-02
3108.688, 9.5949598E-02
3110.617, 9.5169917E-02
3112.545, 9.5347889E-02
3114.474, 9.6160963E-02
3116.402, 9.7269394E-02
3118.331, 9.6620440E-02
3120.259, 9.6611463E-02
3122.188, 9.8645449E-02
3124.116, 9.9930070E-02
3126.044, 9.9490233E-02
3127.973, 9.8789997E-02
3129.901, 9.8994009E-02
3131.830, 9.9926621E-02
3133.758, 0.1001209
3135.687, 0.1007534
3137.615, 0.1009506
3139.544, 0.1005673
3141.472, 0.1006854
3143.401, 0.1012443
3145.329, 0.1014798
3147.258, 0.1005179
3149.186, 0.1022654
3151.115, 0.1040591
3153.043, 0.1045877
3154.971, 0.1032119
3156.900, 0.1029305
3158.828, 0.1039597
3160.757, 0.1063946
3162.685, 0.1063494
3164.614, 0.1047457
3166.542, 0.1063463
3168.471, 0.1072980
3170.399, 0.1066281
3172.328, 0.1072365
3174.256, 0.1097667
3176.185, 0.1098179
3178.113, 0.1098643
3180.042, 0.1105815
3181.970, 0.1096306
3183.898, 0.1099722
3185.827, 0.1114108
3187.755, 0.1116056
3189.684, 0.1120825
3191.612, 0.1126467
3193.541, 0.1134611
3195.469, 0.1136675
3197.398, 0.1152359
3199.326, 0.1173589
3201.255, 0.1169568
3203.183, 0.1156338
3205.112, 0.1145126
3207.040, 0.1142942
3208.969, 0.1179171
3210.897, 0.1220680
3212.825, 0.1216109
3214.754, 0.1197800
3216.682, 0.1201005
3218.611, 0.1210905
3220.539, 0.1221261
3222.468, 0.1233966
3224.396, 0.1238047
3226.325, 0.1231060
3228.253, 0.1244520
3230.182, 0.1270431
3232.110, 0.1269199
3234.039, 0.1277546
3235.967, 0.1288698
3237.896, 0.1287295
3239.824, 0.1299329
3241.752, 0.1304909
3243.681, 0.1300982
3245.609, 0.1292866
3247.538, 0.1305670
3249.466, 0.1349827
3251.395, 0.1366536
3253.323, 0.1359176
3255.252, 0.1375440
3257.180, 0.1416613
3259.109, 0.1436854
3261.037, 0.1438761
3262.966, 0.1447452
3264.894, 0.1461234
3266.823, 0.1471490
3268.751, 0.1485302
3270.679, 0.1500324
3272.608, 0.1520270
3274.536, 0.1534562
3276.465, 0.1531741
3278.393, 0.1544174
3280.322, 0.1575375
3282.250, 0.1602512
3284.179, 0.1617067
3286.107, 0.1656046
3288.036, 0.1675663
3289.964, 0.1654438
3291.893, 0.1670200
3293.821, 0.1700676
3295.750, 0.1731869
3297.678, 0.1777824
3299.606, 0.1790354
3301.535, 0.1793339
3303.463, 0.1821841
3305.392, 0.1852780
3307.320, 0.1876410
3309.249, 0.1909145
3311.177, 0.1968002
3313.106, 0.2024038
3315.034, 0.2052000
3316.963, 0.2073026
3318.891, 0.2101205
3320.820, 0.2138630
3322.748, 0.2196422
3324.677, 0.2242743
3326.605, 0.2271539
3328.533, 0.2289785
3330.462, 0.2307647
3332.390, 0.2340333
3334.319, 0.2366069
3336.247, 0.2382773
3338.176, 0.2397183
3340.104, 0.2424502
3342.033, 0.2434560
3343.961, 0.2411004
3345.890, 0.2409384
3347.818, 0.2413626
3349.747, 0.2423970
3351.675, 0.2438675
3353.604, 0.2467216
3355.532, 0.2481980
3357.460, 0.2469904
3359.389, 0.2474690
3361.317, 0.2503180
3363.246, 0.2518353
3365.174, 0.2514731
3367.103, 0.2536934
3369.031, 0.2572803
3370.960, 0.2600427
3372.888, 0.2612561
3374.817, 0.2645258
3376.745, 0.2704204
3378.674, 0.2749115
3380.602, 0.2781567
3382.531, 0.2801545
3384.459, 0.2850108
3386.387, 0.2928752
3388.316, 0.3017916
3390.244, 0.3062312
3392.173, 0.3117385
3394.101, 0.3181407
3396.030, 0.3269322
3397.958, 0.3373289
3399.887, 0.3465155
3401.815, 0.3547134
3403.744, 0.3649645
3405.672, 0.3759390
3407.601, 0.3866802
3409.529, 0.3993043
3411.458, 0.4142985
3413.386, 0.4312347
3415.314, 0.4508633
3417.243, 0.4749781
3419.171, 0.4998519
3421.100, 0.5234290
3423.028, 0.5516425
3424.957, 0.5849406
3426.885, 0.6140448
3428.814, 0.6415466
3430.742, 0.6679099
3432.671, 0.6845163
3434.599, 0.6861939
3436.528, 0.6707372
3438.456, 0.6387597
3440.385, 0.5994362
3442.313, 0.5669561
3444.241, 0.5445892
3446.170, 0.5341696
3448.098, 0.5360550
3450.027, 0.5486540
3451.955, 0.5623605
3453.884, 0.5684952
3455.812, 0.5691692
3457.741, 0.5640932
3459.669, 0.5527900
3461.598, 0.5395758
3463.526, 0.5257549
3465.455, 0.5073288
3467.383, 0.4862535
3469.312, 0.4641318
3471.240, 0.4432087
3473.168, 0.4229214
3475.097, 0.4013682
3477.025, 0.3789008
3478.954, 0.3577999
3480.882, 0.3349602
3482.811, 0.3126259
3484.739, 0.2932528
3486.668, 0.2731988
3488.596, 0.2579796
3490.525, 0.2474204
3492.453, 0.2372196
3494.382, 0.2263271
3496.310, 0.2176464
3498.239, 0.2140687
3500.167, 0.2096433
3502.095, 0.2033878
3504.024, 0.1981430
3505.952, 0.1923338
3507.881, 0.1873299
3509.809, 0.1825152
3511.738, 0.1760894
3513.666, 0.1679327
3515.595, 0.1617299
3517.523, 0.1558515
3519.452, 0.1491623
3521.380, 0.1442148
3523.309, 0.1408427
3525.237, 0.1372521
3527.166, 0.1327141
3529.094, 0.1287590
3531.022, 0.1260050
3532.951, 0.1214437
3534.879, 0.1138855
3536.808, 0.1061970
3538.736, 0.1003326
3540.665, 9.6560962E-02
3542.593, 9.6348234E-02
3544.522, 9.3286097E-02
3546.450, 8.8292576E-02
3548.379, 8.6974092E-02
3550.307, 8.7816782E-02
3552.236, 8.2706027E-02
3554.164, 7.8693926E-02
3556.093, 7.9898611E-02
3558.021, 7.8133993E-02
3559.949, 7.8598253E-02
3561.878, 7.7886648E-02
3563.806, 7.5362638E-02
3565.735, 7.3574238E-02
3567.663, 7.3569924E-02
3569.592, 7.1159624E-02
3571.520, 7.0101216E-02
3573.449, 6.9351159E-02
3575.377, 7.1620539E-02
3577.306, 7.2867878E-02
3579.234, 7.1915403E-02
3581.163, 7.2864741E-02
3583.091, 7.2584763E-02
3585.020, 6.7125022E-02
3586.948, 6.4879753E-02
3588.876, 6.5968737E-02
3590.805, 6.5563492E-02
3592.733, 6.6905960E-02
3594.662, 7.0085473E-02
3596.590, 6.8722099E-02
3598.519, 6.6269502E-02
3600.447, 6.8007499E-02
3602.376, 6.9429718E-02
3604.304, 6.7221299E-02
3606.233, 6.6674247E-02
3608.161, 6.9295660E-02
3610.090, 7.2132513E-02
3612.018, 7.0108198E-02
3613.947, 6.7531377E-02
3615.875, 7.0232183E-02
3617.803, 7.1490057E-02
3619.732, 6.8960629E-02
3621.660, 6.8520993E-02
3623.589, 7.0047811E-02
3625.517, 6.8426207E-02
3627.446, 6.7919031E-02
3629.374, 7.0678107E-02
3631.303, 7.1217723E-02
3633.231, 6.8364494E-02
3635.160, 6.9537863E-02
3637.088, 7.4451923E-02
3639.017, 7.4606933E-02
3640.945, 7.5135477E-02
3642.874, 7.4526072E-02
3644.802, 7.4195787E-02
3646.730, 7.7017002E-02
3648.659, 7.7879243E-02
3650.587, 7.3763497E-02
3652.516, 7.4765436E-02
3654.444, 7.7251993E-02
3656.373, 7.6047257E-02
3658.301, 7.4187838E-02
3660.230, 7.0523843E-02
3662.158, 7.0939422E-02
3664.087, 7.5396493E-02
3666.015, 7.5108238E-02
3667.944, 7.6188348E-02
3669.872, 7.7153318E-02
3671.801, 7.5481109E-02
3673.729, 7.3408797E-02
3675.657, 7.5854369E-02
3677.586, 7.8919612E-02
3679.514, 8.0311023E-02
3681.443, 7.9403572E-02
3683.371, 7.7166341E-02
3685.300, 7.8094773E-02
3687.228, 7.8105360E-02
3689.157, 7.7813059E-02
3691.085, 7.9179883E-02
3693.014, 7.9468623E-02
3694.942, 7.7614583E-02
3696.871, 7.7201717E-02
3698.799, 8.1342913E-02
3700.728, 8.1684738E-02
3702.656, 7.9733729E-02
3704.584, 8.0958247E-02
3706.513, 8.2737237E-02
3708.441, 8.0915138E-02
3710.370, 7.9574198E-02
3712.298, 7.8113429E-02
3714.227, 7.7366747E-02
3716.155, 7.9106018E-02
3718.084, 7.9252131E-02
3720.012, 7.9192132E-02
3721.941, 8.1384763E-02
3723.869, 8.4138028E-02
3725.798, 8.4027886E-02
3727.726, 8.2681499E-02
3729.655, 8.0782287E-02
3731.583, 7.9204991E-02
3733.511, 7.9955347E-02
3735.440, 7.8607403E-02
3737.368, 7.9728879E-02
3739.297, 8.1495114E-02
3741.225, 8.3952330E-02
3743.154, 8.6362273E-02
3745.082, 8.7401092E-02
3747.011, 8.8406272E-02
3748.939, 8.4434807E-02
3750.868, 8.2831353E-02
3752.796, 8.5940227E-02
3754.725, 8.5336283E-02
3756.653, 8.7454423E-02
3758.582, 9.0033777E-02
3760.510, 8.8503510E-02
3762.438, 8.6506441E-02
3764.367, 8.4767297E-02
3766.295, 8.3689317E-02
3768.224, 8.3344556E-02
3770.152, 8.6343087E-02
3772.081, 8.6499259E-02
3774.009, 8.1878789E-02
3775.938, 8.2701780E-02
3777.866, 8.6096637E-02
3779.795, 8.9351013E-02
3781.723, 8.7779872E-02
3783.652, 8.5078374E-02
3785.580, 8.3268002E-02
3787.509, 8.3363503E-02
3789.437, 8.5386187E-02
3791.365, 8.7865472E-02
3793.294, 8.9015558E-02
3795.222, 8.6710468E-02
3797.151, 8.6309277E-02
3799.079, 8.7654583E-02
3801.008, 8.4974512E-02
3802.936, 8.2109287E-02
3804.865, 8.5568637E-02
3806.793, 8.9818232E-02
3808.722, 8.9538507E-02
3810.650, 8.6230598E-02
3812.579, 8.8654667E-02
3814.507, 9.3025021E-02
3816.436, 9.2781417E-02
3818.364, 9.0341859E-02
3820.292, 8.6305179E-02
3822.221, 8.5403137E-02
3824.149, 8.6617097E-02
3826.078, 8.5469842E-02
3828.006, 8.5526668E-02
3829.935, 8.4631607E-02
3831.863, 8.8626981E-02
3833.792, 9.0724707E-02
3835.720, 8.8173121E-02
3837.649, 8.7243333E-02
3839.577, 8.9691207E-02
3841.506, 9.0455428E-02
3843.434, 9.0782382E-02
3845.363, 9.1569103E-02
3847.291, 9.0323187E-02
3849.219, 8.7473042E-02
3851.148, 8.7048881E-02
3853.076, 8.8872433E-02
3855.005, 8.9907780E-02
3856.933, 8.9039423E-02
3858.862, 8.8358529E-02
3860.790, 9.0111554E-02
3862.719, 9.4101943E-02
3864.647, 9.6597843E-02
3866.576, 9.4601937E-02
3868.504, 9.2465363E-02
3870.433, 9.1675617E-02
3872.361, 8.8816822E-02
3874.290, 8.9007892E-02
3876.218, 8.8967159E-02
3878.146, 9.0972990E-02
3880.075, 9.2105366E-02
3882.003, 9.0587400E-02
3883.932, 9.2044979E-02
3885.860, 9.5054552E-02
3887.789, 9.4013058E-02
3889.717, 9.0920813E-02
3891.646, 9.1701411E-02
3893.574, 9.0755723E-02
3895.503, 9.1207393E-02
3897.431, 9.1916539E-02
3899.360, 9.0829633E-02
3901.288, 9.3335547E-02
3903.217, 9.3333587E-02
3905.145, 9.3603522E-02
3907.073, 9.5919043E-02
3909.002, 9.6766427E-02
3910.930, 9.5835209E-02
3912.859, 9.0760559E-02
3914.787, 9.1460407E-02
3916.716, 9.5483840E-02
3918.644, 9.3662709E-02
3920.573, 9.2431448E-02
3922.501, 9.3080513E-02
3924.430, 9.0630807E-02
3926.358, 8.9559980E-02
3928.287, 8.9921162E-02
3930.215, 9.0900101E-02
3932.144, 9.3555793E-02
3934.072, 9.4589613E-02
3936.000, 9.6038938E-02
3937.929, 9.6492663E-02
3939.857, 9.5621787E-02
3941.786, 9.1793373E-02
3943.714, 9.4642758E-02
3945.643, 9.5561624E-02
3947.571, 9.3199722E-02
3949.500, 9.2741117E-02
3951.428, 9.4184317E-02
3953.357, 9.5856763E-02
3955.285, 9.4736382E-02
3957.214, 9.4218053E-02
3959.142, 9.6779980E-02
3961.071, 9.8806813E-02
3962.999, 9.8927513E-02
3964.927, 9.6685573E-02
3966.856, 9.6406601E-02
3968.784, 9.5499158E-02
3970.713, 9.4906554E-02
3972.641, 9.3576610E-02
3974.570, 9.4223753E-02
3976.498, 9.3740769E-02
3978.427, 9.2383921E-02
3980.355, 9.4531797E-02
3982.284, 0.1004024
3984.212, 0.1001576
3986.141, 9.8523714E-02
3988.069, 0.1020294
3989.998, 0.1045248
3991.926, 0.1009061
3993.854, 9.7961448E-02
3995.783, 9.7731262E-02
3997.711, 9.7476602E-02
3999.640, 9.7523630E-02
##END=



