##NAMES=Dickite
##RRUFFID=R090054
##IDEAL CHEMISTRY=Al_2_Si_2_O_5_(OH)_4_
##LOCALITY=Schuylkill county, Pennsylvania, USA
##OWNER=RRUFF
##SOURCE=Mineralogical Museum, Harvard University
##DESCRIPTION=Unconsolidated mass of hexagonal platelets associated with minor quartz crystals.
##STATUS=The identification of this mineral has been confirmed by X-ray diffraction.
##URL=rruff.info/R090054
3.741225e+002, 2.549036e-001
3.760510e+002, 2.558797e-001
3.779795e+002, 2.369608e-001
3.799079e+002, 2.340616e-001
3.818364e+002, 2.464866e-001
3.837649e+002, 2.436480e-001
3.856933e+002, 2.437989e-001
3.876218e+002, 2.464727e-001
3.895503e+002, 2.510069e-001
3.914787e+002, 2.645917e-001
3.934072e+002, 2.749912e-001
3.953357e+002, 2.798721e-001
3.972641e+002, 2.831661e-001
3.991926e+002, 2.821591e-001
4.011211e+002, 2.872298e-001
4.030495e+002, 2.868700e-001
4.049780e+002, 2.856862e-001
4.069065e+002, 2.877038e-001
4.088349e+002, 2.874544e-001
4.107634e+002, 2.879334e-001
4.126919e+002, 2.965885e-001
4.146203e+002, 3.059502e-001
4.165488e+002, 3.116550e-001
4.184773e+002, 3.133726e-001
4.204057e+002, 3.206618e-001
4.223342e+002, 3.243324e-001
4.242627e+002, 3.194305e-001
4.261911e+002, 3.164990e-001
4.281196e+002, 3.156444e-001
4.300481e+002, 3.116951e-001
4.319765e+002, 2.986400e-001
4.339050e+002, 2.804549e-001
4.358335e+002, 2.663862e-001
4.377619e+002, 2.597853e-001
4.396904e+002, 2.609594e-001
4.416189e+002, 2.684988e-001
4.435473e+002, 2.798777e-001
4.454758e+002, 2.928329e-001
4.474043e+002, 3.063598e-001
4.493327e+002, 3.192275e-001
4.512612e+002, 3.309670e-001
4.531897e+002, 3.397016e-001
4.551181e+002, 3.466944e-001
4.570466e+002, 3.528382e-001
4.589751e+002, 3.555579e-001
4.609035e+002, 3.554919e-001
4.628320e+002, 3.509472e-001
4.647605e+002, 3.417084e-001
4.666889e+002, 3.297905e-001
4.686174e+002, 3.054911e-001
4.705459e+002, 2.784719e-001
4.724743e+002, 2.554765e-001
4.744028e+002, 2.334450e-001
4.763313e+002, 2.124391e-001
4.782597e+002, 1.946330e-001
4.801882e+002, 1.796973e-001
4.821167e+002, 1.665673e-001
4.840451e+002, 1.565358e-001
4.859736e+002, 1.499445e-001
4.879021e+002, 1.468862e-001
4.898305e+002, 1.486036e-001
4.917590e+002, 1.554496e-001
4.936875e+002, 1.649822e-001
4.956159e+002, 1.757574e-001
4.975444e+002, 1.886472e-001
4.994729e+002, 2.012770e-001
5.014013e+002, 2.115369e-001
5.033298e+002, 2.192308e-001
5.052583e+002, 2.259022e-001
5.071867e+002, 2.333505e-001
5.091152e+002, 2.429920e-001
5.110437e+002, 2.538541e-001
5.129721e+002, 2.650810e-001
5.149006e+002, 2.763074e-001
5.168290e+002, 2.877505e-001
5.187575e+002, 2.977794e-001
5.206860e+002, 3.054318e-001
5.226144e+002, 3.109318e-001
5.245429e+002, 3.124018e-001
5.264714e+002, 3.105167e-001
5.283998e+002, 3.070952e-001
5.303283e+002, 3.050777e-001
5.322568e+002, 3.037809e-001
5.341852e+002, 3.024763e-001
5.361137e+002, 2.989861e-001
5.380422e+002, 2.917754e-001
5.399706e+002, 2.833014e-001
5.418991e+002, 2.749668e-001
5.438276e+002, 2.660953e-001
5.457560e+002, 2.566473e-001
5.476845e+002, 2.479247e-001
5.496130e+002, 2.398593e-001
5.515414e+002, 2.327818e-001
5.534699e+002, 2.273466e-001
5.553984e+002, 2.228082e-001
5.573268e+002, 2.185127e-001
5.592553e+002, 2.140315e-001
5.611838e+002, 2.085627e-001
5.631122e+002, 2.034130e-001
5.650407e+002, 1.985768e-001
5.669692e+002, 1.936319e-001
5.688976e+002, 1.885174e-001
5.708261e+002, 1.837071e-001
5.727546e+002, 1.793216e-001
5.746830e+002, 1.758070e-001
5.766115e+002, 1.727457e-001
5.785400e+002, 1.704135e-001
5.804684e+002, 1.683696e-001
5.823969e+002, 1.662505e-001
5.843254e+002, 1.641874e-001
5.862538e+002, 1.624534e-001
5.881823e+002, 1.608012e-001
5.901108e+002, 1.592397e-001
5.920392e+002, 1.577594e-001
5.939677e+002, 1.560057e-001
5.958962e+002, 1.542274e-001
5.978246e+002, 1.526469e-001
5.997531e+002, 1.520155e-001
6.016816e+002, 1.524981e-001
6.036100e+002, 1.524136e-001
6.055385e+002, 1.506768e-001
6.074670e+002, 1.467935e-001
6.093954e+002, 1.411844e-001
6.113239e+002, 1.358747e-001
6.132524e+002, 1.313843e-001
6.151808e+002, 1.271180e-001
6.171093e+002, 1.233771e-001
6.190378e+002, 1.204756e-001
6.209662e+002, 1.182678e-001
6.228947e+002, 1.167798e-001
6.248232e+002, 1.157772e-001
6.267516e+002, 1.152389e-001
6.286801e+002, 1.152086e-001
6.306086e+002, 1.157702e-001
6.325370e+002, 1.167905e-001
6.344655e+002, 1.179382e-001
6.363940e+002, 1.189210e-001
6.383224e+002, 1.196389e-001
6.402509e+002, 1.201609e-001
6.421794e+002, 1.204038e-001
6.441078e+002, 1.205998e-001
6.460363e+002, 1.202333e-001
6.479648e+002, 1.193113e-001
6.498932e+002, 1.184250e-001
6.518217e+002, 1.175549e-001
6.537502e+002, 1.168653e-001
6.556786e+002, 1.167957e-001
6.576071e+002, 1.166771e-001
6.595356e+002, 1.164286e-001
6.614641e+002, 1.162726e-001
6.633925e+002, 1.161005e-001
6.653210e+002, 1.161979e-001
6.672495e+002, 1.163818e-001
6.691779e+002, 1.163000e-001
6.711064e+002, 1.160159e-001
6.730349e+002, 1.155802e-001
6.749633e+002, 1.152291e-001
6.768918e+002, 1.147156e-001
6.788203e+002, 1.140458e-001
6.807487e+002, 1.133618e-001
6.826772e+002, 1.124197e-001
6.846057e+002, 1.114276e-001
6.865341e+002, 1.100695e-001
6.884626e+002, 1.084342e-001
6.903911e+002, 1.065781e-001
6.923195e+002, 1.039046e-001
6.942480e+002, 1.001038e-001
6.961765e+002, 9.541198e-002
6.981049e+002, 8.997761e-002
7.000334e+002, 8.431359e-002
7.019619e+002, 7.860114e-002
7.038903e+002, 7.299163e-002
7.058188e+002, 6.721207e-002
7.077473e+002, 6.174769e-002
7.096757e+002, 5.680852e-002
7.116042e+002, 5.280178e-002
7.135327e+002, 4.970362e-002
7.154611e+002, 4.754198e-002
7.173896e+002, 4.619649e-002
7.193181e+002, 4.535819e-002
7.212465e+002, 4.502262e-002
7.231750e+002, 4.533192e-002
7.251035e+002, 4.629153e-002
7.270319e+002, 4.786107e-002
7.289604e+002, 5.016068e-002
7.308889e+002, 5.339755e-002
7.328173e+002, 5.756993e-002
7.347458e+002, 6.273996e-002
7.366743e+002, 6.875015e-002
7.386027e+002, 7.543077e-002
7.405312e+002, 8.223855e-002
7.424597e+002, 8.833988e-002
7.443881e+002, 9.318108e-002
7.463166e+002, 9.644365e-002
7.482451e+002, 9.797936e-002
7.501735e+002, 9.797277e-002
7.521020e+002, 9.638477e-002
7.540305e+002, 9.399307e-002
7.559589e+002, 9.111023e-002
7.578874e+002, 8.795086e-002
7.598159e+002, 8.503868e-002
7.617443e+002, 8.239706e-002
7.636728e+002, 8.048823e-002
7.656013e+002, 7.944958e-002
7.675297e+002, 7.917733e-002
7.694582e+002, 7.956498e-002
7.713867e+002, 8.086819e-002
7.733151e+002, 8.314147e-002
7.752436e+002, 8.590802e-002
7.771721e+002, 8.916444e-002
7.791005e+002, 9.272973e-002
7.810290e+002, 9.686194e-002
7.829575e+002, 1.020952e-001
7.848859e+002, 1.089931e-001
7.868144e+002, 1.174948e-001
7.887429e+002, 1.261818e-001
7.906713e+002, 1.326857e-001
7.925998e+002, 1.349328e-001
7.945283e+002, 1.322842e-001
7.964567e+002, 1.247404e-001
7.983852e+002, 1.128924e-001
8.003137e+002, 9.916843e-002
8.022421e+002, 8.580694e-002
8.041706e+002, 7.437746e-002
8.060991e+002, 6.513253e-002
8.080275e+002, 5.802720e-002
8.099560e+002, 5.311370e-002
8.118845e+002, 4.999542e-002
8.138129e+002, 4.788072e-002
8.157414e+002, 4.648713e-002
8.176699e+002, 4.588441e-002
8.195983e+002, 4.597232e-002
8.215268e+002, 4.632391e-002
8.234553e+002, 4.702165e-002
8.253837e+002, 4.798612e-002
8.273122e+002, 4.937463e-002
8.292407e+002, 5.101982e-002
8.311691e+002, 5.254705e-002
8.330976e+002, 5.425262e-002
8.350261e+002, 5.631749e-002
8.369545e+002, 5.866510e-002
8.388830e+002, 6.130154e-002
8.408115e+002, 6.441060e-002
8.427399e+002, 6.784178e-002
8.446684e+002, 7.140944e-002
8.465969e+002, 7.520111e-002
8.485253e+002, 7.930369e-002
8.504538e+002, 8.387759e-002
8.523823e+002, 8.880298e-002
8.543107e+002, 9.407882e-002
8.562392e+002, 9.986369e-002
8.581677e+002, 1.061962e-001
8.600961e+002, 1.128526e-001
8.620246e+002, 1.197906e-001
8.639531e+002, 1.271460e-001
8.658815e+002, 1.349452e-001
8.678100e+002, 1.431376e-001
8.697385e+002, 1.515384e-001
8.716669e+002, 1.602332e-001
8.735954e+002, 1.692293e-001
8.755239e+002, 1.785307e-001
8.774523e+002, 1.880149e-001
8.793808e+002, 1.978864e-001
8.813093e+002, 2.082401e-001
8.832377e+002, 2.188649e-001
8.851662e+002, 2.298213e-001
8.870947e+002, 2.411218e-001
8.890231e+002, 2.528792e-001
8.909516e+002, 2.651275e-001
8.928801e+002, 2.775435e-001
8.948085e+002, 2.896780e-001
8.967370e+002, 3.015750e-001
8.986655e+002, 3.126992e-001
9.005939e+002, 3.223457e-001
9.025224e+002, 3.298192e-001
9.044509e+002, 3.351389e-001
9.063793e+002, 3.392681e-001
9.083078e+002, 3.430759e-001
9.102363e+002, 3.456855e-001
9.121647e+002, 3.435833e-001
9.140932e+002, 3.317246e-001
9.160217e+002, 3.099300e-001
9.179501e+002, 2.834518e-001
9.198786e+002, 2.588908e-001
9.218071e+002, 2.414829e-001
9.237355e+002, 2.332008e-001
9.256640e+002, 2.333940e-001
9.275925e+002, 2.401959e-001
9.295209e+002, 2.504109e-001
9.314494e+002, 2.604987e-001
9.333779e+002, 2.675478e-001
9.353063e+002, 2.690850e-001
9.372348e+002, 2.643805e-001
9.391633e+002, 2.551746e-001
9.410917e+002, 2.445707e-001
9.430202e+002, 2.361409e-001
9.449487e+002, 2.324671e-001
9.468771e+002, 2.346128e-001
9.488056e+002, 2.414066e-001
9.507341e+002, 2.504623e-001
9.526625e+002, 2.587933e-001
9.545910e+002, 2.651741e-001
9.565195e+002, 2.712245e-001
9.584479e+002, 2.794186e-001
9.603764e+002, 2.897196e-001
9.623049e+002, 3.002442e-001
9.642333e+002, 3.086663e-001
9.661618e+002, 3.141977e-001
9.680903e+002, 3.179840e-001
9.700187e+002, 3.222547e-001
9.719472e+002, 3.291756e-001
9.738757e+002, 3.405454e-001
9.758041e+002, 3.562094e-001
9.777326e+002, 3.751808e-001
9.796611e+002, 3.963387e-001
9.815895e+002, 4.187560e-001
9.835180e+002, 4.408892e-001
9.854465e+002, 4.623814e-001
9.873749e+002, 4.826725e-001
9.893034e+002, 5.010690e-001
9.912319e+002, 5.170520e-001
9.931603e+002, 5.296428e-001
9.950888e+002, 5.364482e-001
9.970173e+002, 5.362539e-001
9.989457e+002, 5.269166e-001
1.000874e+003, 5.080145e-001
1.002803e+003, 4.839102e-001
1.004731e+003, 4.593455e-001
1.006660e+003, 4.355919e-001
1.008588e+003, 4.138664e-001
1.010517e+003, 3.957323e-001
1.012445e+003, 3.833536e-001
1.014373e+003, 3.784217e-001
1.016302e+003, 3.816814e-001
1.018230e+003, 3.938241e-001
1.020159e+003, 4.158530e-001
1.022087e+003, 4.467146e-001
1.024016e+003, 4.825532e-001
1.025944e+003, 5.139534e-001
1.027873e+003, 5.297737e-001
1.029801e+003, 5.241085e-001
1.031730e+003, 4.996323e-001
1.033658e+003, 4.642261e-001
1.035587e+003, 4.264263e-001
1.037515e+003, 3.914916e-001
1.039443e+003, 3.614605e-001
1.041372e+003, 3.358771e-001
1.043300e+003, 3.142095e-001
1.045229e+003, 2.952673e-001
1.047157e+003, 2.779554e-001
1.049086e+003, 2.621741e-001
1.051014e+003, 2.477896e-001
1.052943e+003, 2.346056e-001
1.054871e+003, 2.226406e-001
1.056800e+003, 2.116612e-001
1.058728e+003, 2.016492e-001
1.060657e+003, 1.925820e-001
1.062585e+003, 1.839321e-001
1.064514e+003, 1.753023e-001
1.066442e+003, 1.667934e-001
1.068370e+003, 1.584402e-001
1.070299e+003, 1.504455e-001
1.072227e+003, 1.426761e-001
1.074156e+003, 1.351502e-001
1.076084e+003, 1.279984e-001
1.078013e+003, 1.211202e-001
1.079941e+003, 1.144979e-001
1.081870e+003, 1.084761e-001
1.083798e+003, 1.030666e-001
1.085727e+003, 9.830948e-002
1.087655e+003, 9.432781e-002
1.089584e+003, 9.126311e-002
1.091512e+003, 8.900888e-002
1.093441e+003, 8.756815e-002
1.095369e+003, 8.671017e-002
1.097297e+003, 8.684290e-002
1.099226e+003, 8.772802e-002
1.101154e+003, 8.895032e-002
1.103083e+003, 9.069887e-002
1.105011e+003, 9.321011e-002
1.106940e+003, 9.695352e-002
1.108868e+003, 1.034688e-001
1.110797e+003, 1.148944e-001
1.112725e+003, 1.325440e-001
1.114654e+003, 1.521000e-001
1.116582e+003, 1.628563e-001
1.118511e+003, 1.581978e-001
1.120439e+003, 1.420023e-001
1.122368e+003, 1.231187e-001
1.124296e+003, 1.075908e-001
1.126224e+003, 9.593650e-002
1.128153e+003, 8.712046e-002
1.130081e+003, 8.014332e-002
1.132010e+003, 7.413581e-002
1.133938e+003, 6.868435e-002
1.135867e+003, 6.383435e-002
1.137795e+003, 5.949253e-002
1.139724e+003, 5.571825e-002
1.141652e+003, 5.229342e-002
1.143581e+003, 4.920841e-002
1.145509e+003, 4.629944e-002
1.147438e+003, 4.362677e-002
1.149366e+003, 4.137199e-002
1.151295e+003, 3.962281e-002
1.153223e+003, 3.797421e-002
1.155151e+003, 3.647434e-002
1.157080e+003, 3.534200e-002
1.159008e+003, 3.471160e-002
1.160937e+003, 3.447073e-002
1.162865e+003, 3.412597e-002
1.164794e+003, 3.363033e-002
1.166722e+003, 3.283931e-002
1.168651e+003, 3.161865e-002
1.170579e+003, 3.039698e-002
1.172508e+003, 2.927040e-002
1.174436e+003, 2.821806e-002
1.176365e+003, 2.711909e-002
1.178293e+003, 2.593310e-002
1.180222e+003, 2.486017e-002
1.182150e+003, 2.392946e-002
1.184078e+003, 2.302039e-002
1.186007e+003, 2.224619e-002
1.187935e+003, 2.144678e-002
1.189864e+003, 2.064532e-002
1.191792e+003, 1.989966e-002
1.193721e+003, 1.923564e-002
1.195649e+003, 1.857954e-002
1.197578e+003, 1.793318e-002
1.199506e+003, 1.729983e-002
1.201435e+003, 1.656836e-002
1.203363e+003, 1.592726e-002
1.205292e+003, 1.543477e-002
1.207220e+003, 1.473894e-002
1.209149e+003, 1.392700e-002
1.211077e+003, 1.312086e-002
1.213005e+003, 1.234826e-002
1.214934e+003, 1.164544e-002
1.216862e+003, 1.101562e-002
1.218791e+003, 1.047914e-002
1.220719e+003, 9.878607e-003
1.222648e+003, 9.201941e-003
1.224576e+003, 8.760785e-003
1.226505e+003, 8.460059e-003
1.228433e+003, 8.148197e-003
1.230362e+003, 7.899551e-003
1.232290e+003, 7.703438e-003
1.234219e+003, 7.513552e-003
1.236147e+003, 7.372481e-003
1.238076e+003, 7.166463e-003
1.240004e+003, 7.018370e-003
1.241932e+003, 6.781729e-003
1.243861e+003, 6.480619e-003
1.245789e+003, 6.243227e-003
1.247718e+003, 6.081477e-003
1.249646e+003, 5.960689e-003
1.251575e+003, 5.905388e-003
1.253503e+003, 5.890871e-003
1.255432e+003, 5.746038e-003
1.257360e+003, 5.516058e-003
1.259289e+003, 5.309755e-003
1.261217e+003, 5.233525e-003
1.263146e+003, 5.292801e-003
1.265074e+003, 5.241022e-003
1.267003e+003, 5.075256e-003
1.268931e+003, 4.890904e-003
1.270859e+003, 4.897336e-003
1.272788e+003, 4.917089e-003
1.274716e+003, 4.791758e-003
1.276645e+003, 4.664351e-003
1.278573e+003, 4.563132e-003
1.280502e+003, 4.610547e-003
1.282430e+003, 4.603035e-003
1.284359e+003, 4.411744e-003
1.286287e+003, 4.249902e-003
1.288216e+003, 4.096717e-003
1.290144e+003, 3.835796e-003
1.292073e+003, 3.800520e-003
1.294001e+003, 3.852193e-003
1.295930e+003, 3.687689e-003
1.297858e+003, 3.564882e-003
1.299786e+003, 3.587110e-003
1.301715e+003, 3.657397e-003
1.303643e+003, 3.669670e-003
1.305572e+003, 3.584746e-003
1.307500e+003, 3.577254e-003
1.309429e+003, 3.592161e-003
1.311357e+003, 3.607845e-003
1.313286e+003, 3.630216e-003
1.315214e+003, 3.573834e-003
1.317143e+003, 3.600844e-003
1.319071e+003, 3.663981e-003
1.321000e+003, 3.544152e-003
1.322928e+003, 3.371648e-003
1.324857e+003, 3.473563e-003
1.326785e+003, 3.525442e-003
1.328714e+003, 3.364525e-003
1.330642e+003, 3.228707e-003
1.332570e+003, 3.229553e-003
1.334499e+003, 3.252710e-003
1.336427e+003, 3.351275e-003
1.338356e+003, 3.351504e-003
1.340284e+003, 3.285089e-003
1.342213e+003, 3.273707e-003
1.344141e+003, 3.327754e-003
1.346070e+003, 3.306461e-003
1.347998e+003, 3.285768e-003
1.349927e+003, 3.276968e-003
1.351855e+003, 3.207054e-003
1.353784e+003, 3.246936e-003
1.355712e+003, 3.342569e-003
1.357641e+003, 3.287605e-003
1.359569e+003, 3.279450e-003
1.361497e+003, 3.321339e-003
1.363426e+003, 3.402271e-003
1.365354e+003, 3.444839e-003
1.367283e+003, 3.441452e-003
1.369211e+003, 3.367230e-003
1.371140e+003, 3.473171e-003
1.373068e+003, 3.532600e-003
1.374997e+003, 3.552039e-003
1.376925e+003, 3.504471e-003
1.378854e+003, 3.369734e-003
1.380782e+003, 3.292275e-003
1.382711e+003, 3.358924e-003
1.384639e+003, 3.359588e-003
1.386568e+003, 3.428576e-003
1.388496e+003, 3.378610e-003
1.390424e+003, 3.316959e-003
1.392353e+003, 3.323042e-003
1.394281e+003, 3.397603e-003
1.396210e+003, 3.394811e-003
1.398138e+003, 3.311456e-003
1.400067e+003, 3.258330e-003
1.401995e+003, 3.354220e-003
1.403924e+003, 3.397278e-003
1.405852e+003, 3.412624e-003
1.407781e+003, 3.303243e-003
1.409709e+003, 3.297672e-003
1.411638e+003, 3.351980e-003
1.413566e+003, 3.382273e-003
1.415495e+003, 3.412214e-003
1.417423e+003, 3.535453e-003
1.419351e+003, 3.568739e-003
1.421280e+003, 3.390647e-003
1.423208e+003, 3.371022e-003
1.425137e+003, 3.559590e-003
1.427065e+003, 3.624233e-003
1.428994e+003, 3.617990e-003
1.430922e+003, 3.667414e-003
1.432851e+003, 3.599872e-003
1.434779e+003, 3.667695e-003
1.436708e+003, 3.881388e-003
1.438636e+003, 3.724406e-003
1.440565e+003, 3.468445e-003
1.442493e+003, 3.481166e-003
1.444422e+003, 3.646290e-003
1.446350e+003, 3.729737e-003
1.448278e+003, 3.710725e-003
1.450207e+003, 3.735098e-003
1.452135e+003, 3.924598e-003
1.454064e+003, 4.034247e-003
1.455992e+003, 4.279150e-003
1.457921e+003, 4.398633e-003
1.459849e+003, 4.127234e-003
1.461778e+003, 3.926176e-003
1.463706e+003, 4.088703e-003
1.465635e+003, 4.248315e-003
1.467563e+003, 4.059658e-003
1.469492e+003, 3.839886e-003
1.471420e+003, 3.873819e-003
1.473349e+003, 3.981409e-003
1.475277e+003, 3.864468e-003
1.477205e+003, 3.698827e-003
1.479134e+003, 3.493570e-003
1.481062e+003, 3.380914e-003
1.482991e+003, 3.274345e-003
1.484919e+003, 3.197910e-003
1.486848e+003, 3.273766e-003
1.488776e+003, 3.377783e-003
1.490705e+003, 3.353915e-003
1.492633e+003, 3.246322e-003
1.494562e+003, 3.265409e-003
1.496490e+003, 3.349921e-003
1.498419e+003, 3.224758e-003
1.500347e+003, 3.165826e-003
1.502276e+003, 3.135047e-003
1.504204e+003, 3.290691e-003
1.506132e+003, 3.699548e-003
1.508061e+003, 3.618015e-003
1.509989e+003, 3.346725e-003
1.511918e+003, 3.221573e-003
1.513846e+003, 3.170101e-003
1.515775e+003, 3.248645e-003
1.517703e+003, 3.315055e-003
1.519632e+003, 3.370647e-003
1.521560e+003, 3.442126e-003
1.523489e+003, 3.281157e-003
1.525417e+003, 3.365330e-003
1.527346e+003, 3.528771e-003
1.529274e+003, 3.477109e-003
1.531203e+003, 3.456266e-003
1.533131e+003, 3.558375e-003
1.535059e+003, 3.392094e-003
1.536988e+003, 3.531822e-003
1.538916e+003, 4.055478e-003
1.540845e+003, 3.986412e-003
1.542773e+003, 3.699651e-003
1.544702e+003, 3.618619e-003
1.546630e+003, 3.463344e-003
1.548559e+003, 3.463753e-003
1.550487e+003, 3.562331e-003
1.552416e+003, 3.586378e-003
1.554344e+003, 3.731385e-003
1.556273e+003, 3.934857e-003
1.558201e+003, 4.387223e-003
1.560130e+003, 4.447921e-003
1.562058e+003, 3.934595e-003
1.563986e+003, 3.776040e-003
1.565915e+003, 3.897385e-003
1.567843e+003, 3.957641e-003
1.569772e+003, 4.078574e-003
1.571700e+003, 4.103777e-003
1.573629e+003, 4.065447e-003
1.575557e+003, 4.393599e-003
1.577486e+003, 4.423460e-003
1.579414e+003, 4.173065e-003
1.581343e+003, 4.169168e-003
1.583271e+003, 4.155645e-003
1.585200e+003, 4.210402e-003
1.587128e+003, 4.196553e-003
1.589057e+003, 4.285898e-003
1.590985e+003, 4.523225e-003
1.592913e+003, 4.528625e-003
1.594842e+003, 4.572376e-003
1.596770e+003, 4.804680e-003
1.598699e+003, 4.982279e-003
1.600627e+003, 5.089011e-003
1.602556e+003, 5.248580e-003
1.604484e+003, 5.313523e-003
1.606413e+003, 5.359249e-003
1.608341e+003, 5.487191e-003
1.610270e+003, 5.633301e-003
1.612198e+003, 5.830027e-003
1.614127e+003, 6.212903e-003
1.616055e+003, 6.629681e-003
1.617984e+003, 6.559045e-003
1.619912e+003, 6.416945e-003
1.621840e+003, 6.583305e-003
1.623769e+003, 6.904142e-003
1.625697e+003, 7.156753e-003
1.627626e+003, 7.193484e-003
1.629554e+003, 7.125895e-003
1.631483e+003, 7.274811e-003
1.633411e+003, 7.557927e-003
1.635340e+003, 7.753652e-003
1.637268e+003, 7.770008e-003
1.639197e+003, 7.567438e-003
1.641125e+003, 7.445796e-003
1.643054e+003, 7.399448e-003
1.644982e+003, 7.680656e-003
1.646911e+003, 7.724939e-003
1.648839e+003, 7.509560e-003
1.650767e+003, 7.719317e-003
1.652696e+003, 8.099821e-003
1.654624e+003, 7.535774e-003
1.656553e+003, 6.903244e-003
1.658481e+003, 6.694857e-003
1.660410e+003, 6.659473e-003
1.662338e+003, 6.682528e-003
1.664267e+003, 6.553635e-003
1.666195e+003, 6.447956e-003
1.668124e+003, 6.472675e-003
1.670052e+003, 6.290445e-003
1.671981e+003, 6.236556e-003
1.673909e+003, 6.360093e-003
1.675838e+003, 6.208054e-003
1.677766e+003, 5.925762e-003
1.679694e+003, 5.880596e-003
1.681623e+003, 6.025507e-003
1.683551e+003, 6.554584e-003
1.685480e+003, 6.506907e-003
1.687408e+003, 6.077009e-003
1.689337e+003, 5.986355e-003
1.691265e+003, 5.861260e-003
1.693194e+003, 5.886697e-003
1.695122e+003, 6.271727e-003
1.697051e+003, 6.342473e-003
1.698979e+003, 6.306679e-003
1.700908e+003, 6.150248e-003
1.702836e+003, 5.675590e-003
1.704765e+003, 5.574995e-003
1.706693e+003, 5.492916e-003
1.708621e+003, 5.397639e-003
1.710550e+003, 5.326758e-003
1.712478e+003, 5.305598e-003
1.714407e+003, 5.460089e-003
1.716335e+003, 5.918457e-003
1.718264e+003, 5.915619e-003
1.720192e+003, 5.580893e-003
1.722121e+003, 5.575569e-003
1.724049e+003, 5.400357e-003
1.725978e+003, 5.336338e-003
1.727906e+003, 5.597128e-003
1.729835e+003, 5.902650e-003
1.731763e+003, 6.218967e-003
1.733692e+003, 6.531641e-003
1.735620e+003, 6.275801e-003
1.737548e+003, 5.914146e-003
1.739477e+003, 5.688722e-003
1.741405e+003, 5.290034e-003
1.743334e+003, 4.920781e-003
1.745262e+003, 4.555248e-003
1.747191e+003, 4.331067e-003
1.749119e+003, 4.515659e-003
1.751048e+003, 4.633039e-003
1.752976e+003, 4.446357e-003
1.754905e+003, 4.415206e-003
1.756833e+003, 4.479939e-003
1.758762e+003, 4.217358e-003
1.760690e+003, 4.165830e-003
1.762619e+003, 4.176006e-003
1.764547e+003, 4.096088e-003
1.766475e+003, 4.094195e-003
1.768404e+003, 4.212054e-003
1.770332e+003, 4.204895e-003
1.772261e+003, 4.284272e-003
1.774189e+003, 3.980645e-003
1.776118e+003, 3.655648e-003
1.778046e+003, 3.721107e-003
1.779975e+003, 3.852967e-003
1.781903e+003, 3.759051e-003
1.783832e+003, 3.663867e-003
1.785760e+003, 3.751106e-003
1.787689e+003, 3.704307e-003
1.789617e+003, 3.542197e-003
1.791546e+003, 3.637958e-003
1.793474e+003, 3.637085e-003
1.795402e+003, 3.568011e-003
1.797331e+003, 3.674737e-003
1.799259e+003, 3.949150e-003
1.801188e+003, 4.069077e-003
1.803116e+003, 3.870999e-003
1.805045e+003, 3.943288e-003
1.806973e+003, 4.215669e-003
1.808902e+003, 4.475151e-003
1.810830e+003, 4.670856e-003
1.812759e+003, 4.809724e-003
1.814687e+003, 4.782154e-003
1.816616e+003, 4.801152e-003
1.818544e+003, 5.154654e-003
1.820473e+003, 5.359337e-003
1.822401e+003, 5.530744e-003
1.824329e+003, 5.642812e-003
1.826258e+003, 5.614700e-003
1.828186e+003, 5.760507e-003
1.830115e+003, 5.858810e-003
1.832043e+003, 5.626334e-003
1.833972e+003, 5.200850e-003
1.835900e+003, 5.018665e-003
1.837829e+003, 5.135890e-003
1.839757e+003, 4.927242e-003
1.841686e+003, 4.918759e-003
1.843614e+003, 4.932136e-003
1.845543e+003, 4.814608e-003
1.847471e+003, 4.664518e-003
1.849400e+003, 4.594989e-003
1.851328e+003, 4.658073e-003
1.853256e+003, 4.463573e-003
1.855185e+003, 4.211477e-003
1.857113e+003, 4.157580e-003
1.859042e+003, 4.326663e-003
1.860970e+003, 4.522102e-003
1.862899e+003, 4.470794e-003
1.864827e+003, 4.522324e-003
1.866756e+003, 4.724063e-003
1.868684e+003, 4.665904e-003
1.870613e+003, 4.635679e-003
1.872541e+003, 4.438239e-003
1.874470e+003, 4.000414e-003
1.876398e+003, 4.034584e-003
1.878327e+003, 4.265781e-003
1.880255e+003, 4.213267e-003
1.882183e+003, 4.129066e-003
1.884112e+003, 3.994410e-003
1.886040e+003, 4.613423e-003
1.887969e+003, 4.793424e-003
1.889897e+003, 4.522453e-003
1.891826e+003, 4.438247e-003
1.893754e+003, 4.068991e-003
1.895683e+003, 4.123553e-003
1.897611e+003, 4.594933e-003
1.899540e+003, 4.614783e-003
1.901468e+003, 4.463238e-003
1.903397e+003, 4.626905e-003
1.905325e+003, 4.836603e-003
1.907254e+003, 4.803592e-003
1.909182e+003, 4.522553e-003
1.911110e+003, 4.188046e-003
1.913039e+003, 4.518435e-003
1.914967e+003, 4.795659e-003
1.916896e+003, 5.261887e-003
1.918824e+003, 5.771162e-003
1.920753e+003, 5.874623e-003
1.922681e+003, 5.615291e-003
1.924610e+003, 5.047519e-003
1.926538e+003, 4.800520e-003
1.928467e+003, 4.639558e-003
1.930395e+003, 4.581268e-003
1.932324e+003, 4.793559e-003
1.934252e+003, 4.977440e-003
1.936181e+003, 5.103847e-003
1.938109e+003, 5.068113e-003
1.940037e+003, 4.674701e-003
1.941966e+003, 5.298392e-003
1.943894e+003, 5.815378e-003
1.945823e+003, 5.384486e-003
1.947751e+003, 5.177117e-003
1.949680e+003, 5.075839e-003
1.951608e+003, 4.014282e-003
1.953537e+003, 3.107656e-003
1.955465e+003, 3.045268e-003
1.957394e+003, 3.334967e-003
1.959322e+003, 3.650463e-003
1.961251e+003, 3.860311e-003
1.963179e+003, 4.029069e-003
1.965108e+003, 3.873759e-003
1.967036e+003, 2.620047e-003
1.968964e+003, 1.962261e-003
1.970893e+003, 2.340384e-003
1.972821e+003, 3.204165e-003
1.974750e+003, 3.180982e-003
1.976678e+003, 2.616766e-003
1.978607e+003, 2.871863e-003
1.980535e+003, 3.866530e-003
1.982464e+003, 2.880745e-003
1.984392e+003, 2.198848e-003
1.986321e+003, 1.884749e-003
1.988249e+003, 6.597377e-004
1.990178e+003, 9.194950e-004
1.992106e+003, 1.537327e-003
1.994035e+003, 1.227266e-003
1.995963e+003, 1.423690e-003
1.997891e+003, 1.114770e-003
1.999820e+003, 6.762347e-004
2.001748e+003, 2.535919e-004
2.003677e+003, -2.047170e-004
2.005605e+003, -8.502696e-005
2.007534e+003, 7.299832e-004
2.009462e+003, -1.571679e-004
2.011391e+003, -1.115253e-003
2.013319e+003, -1.015261e-003
2.015248e+003, -8.340089e-004
2.017176e+003, -7.981479e-004
2.019105e+003, -5.652772e-004
2.021033e+003, -4.018482e-004
2.022962e+003, -2.093303e-004
2.024890e+003, 1.872873e-004
2.026818e+003, 1.789168e-004
2.028747e+003, 1.835907e-004
2.030675e+003, 3.982724e-004
2.032604e+003, 7.391335e-004
2.034532e+003, 7.610123e-004
2.036461e+003, 5.127417e-004
2.038389e+003, 2.281000e-004
2.040318e+003, 5.961161e-004
2.042246e+003, 8.397675e-004
2.044175e+003, -3.911927e-005
2.046103e+003, -9.081659e-004
2.048031e+003, -2.024511e-004
2.049960e+003, 1.377336e-003
2.051888e+003, 6.483571e-004
2.053817e+003, -5.274051e-004
2.055745e+003, -1.050515e-003
2.057674e+003, -1.248046e-003
2.059602e+003, -1.058696e-003
2.061531e+003, -7.473660e-004
2.063459e+003, -1.072501e-003
2.065388e+003, -3.476588e-004
2.067316e+003, 1.505390e-005
2.069245e+003, -2.128242e-004
2.071173e+003, -2.159755e-004
2.073102e+003, -2.304801e-004
2.075030e+003, 3.727630e-004
2.076958e+003, 6.364752e-004
2.078887e+003, 6.506920e-004
2.080815e+003, 9.668552e-004
2.082744e+003, 4.903809e-004
2.084672e+003, 3.224049e-004
2.086601e+003, 2.449661e-004
2.088529e+003, 5.637791e-004
2.090458e+003, 6.442322e-004
2.092386e+003, 6.126120e-004
2.094315e+003, 8.533574e-004
2.096243e+003, 1.353937e-003
2.098172e+003, 1.547095e-003
2.100100e+003, 1.963066e-003
2.102029e+003, 2.332164e-003
2.103957e+003, 2.368304e-003
2.105885e+003, 2.047610e-003
2.107814e+003, 1.548603e-003
2.109742e+003, 1.556696e-003
2.111671e+003, 2.084893e-003
2.113599e+003, 2.226168e-003
2.115528e+003, 2.065660e-003
2.117456e+003, 1.988862e-003
2.119385e+003, 1.783863e-003
2.121313e+003, 1.574856e-003
2.123242e+003, 1.421548e-003
2.125170e+003, 1.489596e-003
2.127099e+003, 1.268302e-003
2.129027e+003, 9.650608e-004
2.130956e+003, 1.088415e-003
2.132884e+003, 1.103607e-003
2.134813e+003, 1.448476e-003
2.136741e+003, 2.538447e-003
2.138669e+003, 2.717696e-003
2.140598e+003, 2.795063e-003
2.142526e+003, 2.302465e-003
2.144455e+003, 1.235527e-003
2.146383e+003, 1.375347e-003
2.148312e+003, 2.337432e-003
2.150240e+003, 2.105349e-003
2.152169e+003, 2.813173e-003
2.154097e+003, 3.474419e-003
2.156026e+003, 3.242610e-003
2.157954e+003, 4.986509e-003
2.159883e+003, 6.537665e-003
2.161811e+003, 6.501572e-003
2.163740e+003, 5.752972e-003
2.165668e+003, 5.818667e-003
2.167596e+003, 6.505613e-003
2.169525e+003, 6.019074e-003
2.171453e+003, 5.066596e-003
2.173382e+003, 4.581804e-003
2.175310e+003, 4.294796e-003
2.177239e+003, 5.144503e-003
2.179167e+003, 5.032145e-003
2.181096e+003, 5.000631e-003
2.183024e+003, 5.133165e-003
2.184953e+003, 5.089595e-003
2.186881e+003, 5.025647e-003
2.188810e+003, 4.546414e-003
2.190738e+003, 4.755139e-003
2.192667e+003, 5.270678e-003
2.194595e+003, 5.371817e-003
2.196523e+003, 5.587516e-003
2.198452e+003, 5.241342e-003
2.200380e+003, 4.553522e-003
2.202309e+003, 4.358906e-003
2.204237e+003, 4.709416e-003
2.206166e+003, 4.608974e-003
2.208094e+003, 4.251132e-003
2.210023e+003, 4.430114e-003
2.211951e+003, 4.557848e-003
2.213880e+003, 4.304401e-003
2.215808e+003, 4.246649e-003
2.217737e+003, 4.408927e-003
2.219665e+003, 4.135205e-003
2.221594e+003, 3.706397e-003
2.223522e+003, 3.964076e-003
2.225450e+003, 4.175001e-003
2.227379e+003, 3.930164e-003
2.229307e+003, 3.403975e-003
2.231236e+003, 2.766141e-003
2.233164e+003, 2.684140e-003
2.235093e+003, 3.060431e-003
2.237021e+003, 3.393959e-003
2.238950e+003, 3.214799e-003
2.240878e+003, 3.524781e-003
2.242807e+003, 3.443231e-003
2.244735e+003, 2.960606e-003
2.246664e+003, 3.292801e-003
2.248592e+003, 3.957556e-003
2.250521e+003, 3.895173e-003
2.252449e+003, 3.515994e-003
2.254377e+003, 3.449299e-003
2.256306e+003, 3.469544e-003
2.258234e+003, 3.582547e-003
2.260163e+003, 4.113453e-003
2.262091e+003, 4.200981e-003
2.264020e+003, 3.725501e-003
2.265948e+003, 3.516440e-003
2.267877e+003, 3.862534e-003
2.269805e+003, 4.022465e-003
2.271734e+003, 3.889029e-003
2.273662e+003, 4.409617e-003
2.275591e+003, 5.185341e-003
2.277519e+003, 5.396130e-003
2.279448e+003, 5.087034e-003
2.281376e+003, 5.034023e-003
2.283304e+003, 4.809593e-003
2.285233e+003, 4.583358e-003
2.287161e+003, 4.299472e-003
2.289090e+003, 4.238482e-003
2.291018e+003, 4.443110e-003
2.292947e+003, 4.737307e-003
2.294875e+003, 4.840231e-003
2.296804e+003, 4.809503e-003
2.298732e+003, 4.587487e-003
2.300661e+003, 4.358620e-003
2.302589e+003, 4.257082e-003
2.304518e+003, 4.330248e-003
2.306446e+003, 4.391064e-003
2.308375e+003, 4.475711e-003
2.310303e+003, 4.464399e-003
2.312231e+003, 4.611291e-003
2.314160e+003, 4.708799e-003
2.316088e+003, 4.710640e-003
2.318017e+003, 4.732853e-003
2.319945e+003, 5.191524e-003
2.321874e+003, 5.648565e-003
2.323802e+003, 5.609922e-003
2.325731e+003, 4.960332e-003
2.327659e+003, 4.528873e-003
2.329588e+003, 4.700413e-003
2.331516e+003, 5.016798e-003
2.333445e+003, 4.907358e-003
2.335373e+003, 4.659845e-003
2.337302e+003, 4.819544e-003
2.339230e+003, 4.782321e-003
2.341158e+003, 4.595402e-003
2.343087e+003, 4.861452e-003
2.345015e+003, 4.677141e-003
2.346944e+003, 4.134973e-003
2.348872e+003, 4.116045e-003
2.350801e+003, 4.508507e-003
2.352729e+003, 4.641005e-003
2.354658e+003, 4.898927e-003
2.356586e+003, 5.067330e-003
2.358515e+003, 5.018368e-003
2.360443e+003, 5.057944e-003
2.362372e+003, 5.048444e-003
2.364300e+003, 5.153411e-003
2.366229e+003, 5.115414e-003
2.368157e+003, 4.732348e-003
2.370085e+003, 4.654346e-003
2.372014e+003, 4.601818e-003
2.373942e+003, 4.050624e-003
2.375871e+003, 3.621158e-003
2.377799e+003, 3.384288e-003
2.379728e+003, 3.536346e-003
2.381656e+003, 3.808091e-003
2.383585e+003, 3.858918e-003
2.385513e+003, 3.850116e-003
2.387442e+003, 4.037093e-003
2.389370e+003, 3.934092e-003
2.391299e+003, 3.823641e-003
2.393227e+003, 3.665520e-003
2.395156e+003, 3.423664e-003
2.397084e+003, 3.629057e-003
2.399012e+003, 3.996988e-003
2.400941e+003, 3.887548e-003
2.402869e+003, 3.441734e-003
2.404798e+003, 3.582730e-003
2.406726e+003, 4.115366e-003
2.408655e+003, 4.282868e-003
2.410583e+003, 3.917747e-003
2.412512e+003, 3.743899e-003
2.414440e+003, 3.629043e-003
2.416369e+003, 3.474282e-003
2.418297e+003, 3.699574e-003
2.420226e+003, 3.892697e-003
2.422154e+003, 3.984764e-003
2.424083e+003, 3.867785e-003
2.426011e+003, 3.829391e-003
2.427939e+003, 4.251134e-003
2.429868e+003, 4.351877e-003
2.431796e+003, 4.449761e-003
2.433725e+003, 4.566249e-003
2.435653e+003, 4.367616e-003
2.437582e+003, 3.956464e-003
2.439510e+003, 3.987786e-003
2.441439e+003, 4.262365e-003
2.443367e+003, 4.640548e-003
2.445296e+003, 4.371589e-003
2.447224e+003, 4.167723e-003
2.449153e+003, 4.249583e-003
2.451081e+003, 4.213905e-003
2.453010e+003, 4.284418e-003
2.454938e+003, 4.103265e-003
2.456866e+003, 4.435001e-003
2.458795e+003, 4.743123e-003
2.460723e+003, 4.499509e-003
2.462652e+003, 4.477438e-003
2.464580e+003, 4.533048e-003
2.466509e+003, 4.509307e-003
2.468437e+003, 4.355264e-003
2.470366e+003, 4.702949e-003
2.472294e+003, 4.654821e-003
2.474223e+003, 4.755652e-003
2.476151e+003, 4.844529e-003
2.478080e+003, 4.858231e-003
2.480008e+003, 4.940471e-003
2.481937e+003, 5.077030e-003
2.483865e+003, 4.314039e-003
2.485793e+003, 3.852214e-003
2.487722e+003, 4.321309e-003
2.489650e+003, 4.876019e-003
2.491579e+003, 5.319595e-003
2.493507e+003, 5.238491e-003
2.495436e+003, 5.045108e-003
2.497364e+003, 4.871577e-003
2.499293e+003, 4.763998e-003
2.501221e+003, 4.676907e-003
2.503150e+003, 4.995372e-003
2.505078e+003, 4.945391e-003
2.507007e+003, 4.571225e-003
2.508935e+003, 4.732894e-003
2.510864e+003, 4.968380e-003
2.512792e+003, 4.609643e-003
2.514720e+003, 4.293312e-003
2.516649e+003, 4.575857e-003
2.518577e+003, 4.984898e-003
2.520506e+003, 5.142377e-003
2.522434e+003, 5.297166e-003
2.524363e+003, 5.144694e-003
2.526291e+003, 4.652513e-003
2.528220e+003, 4.694973e-003
2.530148e+003, 4.888288e-003
2.532077e+003, 4.978606e-003
2.534005e+003, 5.099849e-003
2.535934e+003, 5.358387e-003
2.537862e+003, 5.850332e-003
2.539791e+003, 5.753900e-003
2.541719e+003, 5.061056e-003
2.543647e+003, 4.825607e-003
2.545576e+003, 5.350073e-003
2.547504e+003, 5.311593e-003
2.549433e+003, 4.506219e-003
2.551361e+003, 4.101817e-003
2.553290e+003, 4.569606e-003
2.555218e+003, 4.697397e-003
2.557147e+003, 4.899841e-003
2.559075e+003, 5.054249e-003
2.561004e+003, 5.023495e-003
2.562932e+003, 4.962231e-003
2.564861e+003, 5.011765e-003
2.566789e+003, 4.839608e-003
2.568718e+003, 4.730462e-003
2.570646e+003, 4.887341e-003
2.572574e+003, 5.142522e-003
2.574503e+003, 5.039044e-003
2.576431e+003, 5.248256e-003
2.578360e+003, 5.555855e-003
2.580288e+003, 5.314521e-003
2.582217e+003, 5.083024e-003
2.584145e+003, 5.133304e-003
2.586074e+003, 5.105074e-003
2.588002e+003, 5.080761e-003
2.589931e+003, 5.292272e-003
2.591859e+003, 5.182287e-003
2.593788e+003, 5.057201e-003
2.595716e+003, 4.973929e-003
2.597645e+003, 4.781788e-003
2.599573e+003, 4.880017e-003
2.601501e+003, 5.254773e-003
2.603430e+003, 5.405790e-003
2.605358e+003, 5.080374e-003
2.607287e+003, 4.755079e-003
2.609215e+003, 5.012694e-003
2.611144e+003, 5.537351e-003
2.613072e+003, 5.724906e-003
2.615001e+003, 5.267733e-003
2.616929e+003, 5.293966e-003
2.618858e+003, 5.382740e-003
2.620786e+003, 5.559942e-003
2.622715e+003, 5.753242e-003
2.624643e+003, 5.705508e-003
2.626572e+003, 5.853022e-003
2.628500e+003, 5.801608e-003
2.630428e+003, 5.666720e-003
2.632357e+003, 5.823360e-003
2.634285e+003, 5.668188e-003
2.636214e+003, 5.412500e-003
2.638142e+003, 5.496607e-003
2.640071e+003, 5.772124e-003
2.641999e+003, 6.010703e-003
2.643928e+003, 6.308679e-003
2.645856e+003, 6.114828e-003
2.647785e+003, 5.763248e-003
2.649713e+003, 6.004693e-003
2.651642e+003, 6.102902e-003
2.653570e+003, 5.781107e-003
2.655499e+003, 5.848046e-003
2.657427e+003, 6.023066e-003
2.659355e+003, 5.738860e-003
2.661284e+003, 5.488676e-003
2.663212e+003, 5.523742e-003
2.665141e+003, 5.618733e-003
2.667069e+003, 5.600118e-003
2.668998e+003, 5.696272e-003
2.670926e+003, 5.647970e-003
2.672855e+003, 5.611074e-003
2.674783e+003, 5.654260e-003
2.676712e+003, 5.791631e-003
2.678640e+003, 5.905115e-003
2.680569e+003, 6.048951e-003
2.682497e+003, 5.931757e-003
2.684426e+003, 5.785894e-003
2.686354e+003, 5.873920e-003
2.688282e+003, 5.849363e-003
2.690211e+003, 5.780065e-003
2.692139e+003, 5.741224e-003
2.694068e+003, 5.647617e-003
2.695996e+003, 5.935377e-003
2.697925e+003, 6.019460e-003
2.699853e+003, 6.014733e-003
2.701782e+003, 6.031850e-003
2.703710e+003, 6.124274e-003
2.705639e+003, 6.077682e-003
2.707567e+003, 5.849346e-003
2.709496e+003, 5.947031e-003
2.711424e+003, 5.974612e-003
2.713353e+003, 5.864525e-003
2.715281e+003, 6.002837e-003
2.717209e+003, 6.216203e-003
2.719138e+003, 6.122939e-003
2.721066e+003, 5.816346e-003
2.722995e+003, 5.745534e-003
2.724923e+003, 5.968233e-003
2.726852e+003, 6.145954e-003
2.728780e+003, 6.192979e-003
2.730709e+003, 6.126015e-003
2.732637e+003, 6.263905e-003
2.734566e+003, 6.525630e-003
2.736494e+003, 6.620993e-003
2.738423e+003, 6.593415e-003
2.740351e+003, 6.628060e-003
2.742280e+003, 6.438089e-003
2.744208e+003, 6.318806e-003
2.746136e+003, 6.512930e-003
2.748065e+003, 6.795538e-003
2.749993e+003, 6.948539e-003
2.751922e+003, 7.117825e-003
2.753850e+003, 6.983808e-003
2.755779e+003, 6.800857e-003
2.757707e+003, 6.714243e-003
2.759636e+003, 6.619407e-003
2.761564e+003, 6.959405e-003
2.763493e+003, 7.122913e-003
2.765421e+003, 6.964166e-003
2.767350e+003, 6.979492e-003
2.769278e+003, 7.179434e-003
2.771207e+003, 7.179224e-003
2.773135e+003, 7.011985e-003
2.775063e+003, 7.039113e-003
2.776992e+003, 7.111431e-003
2.778920e+003, 7.077804e-003
2.780849e+003, 7.203717e-003
2.782777e+003, 7.309782e-003
2.784706e+003, 7.395666e-003
2.786634e+003, 7.329029e-003
2.788563e+003, 7.313149e-003
2.790491e+003, 7.581626e-003
2.792420e+003, 8.000926e-003
2.794348e+003, 7.980405e-003
2.796277e+003, 7.885437e-003
2.798205e+003, 7.778669e-003
2.800134e+003, 7.595954e-003
2.802062e+003, 7.518379e-003
2.803990e+003, 7.733672e-003
2.805919e+003, 7.944807e-003
2.807847e+003, 8.072431e-003
2.809776e+003, 8.238952e-003
2.811704e+003, 8.083627e-003
2.813633e+003, 8.412845e-003
2.815561e+003, 8.749735e-003
2.817490e+003, 8.461623e-003
2.819418e+003, 8.222082e-003
2.821347e+003, 8.415332e-003
2.823275e+003, 8.705436e-003
2.825204e+003, 8.658743e-003
2.827132e+003, 8.716213e-003
2.829061e+003, 8.986480e-003
2.830989e+003, 9.177679e-003
2.832917e+003, 9.456088e-003
2.834846e+003, 9.357990e-003
2.836774e+003, 9.420295e-003
2.838703e+003, 9.803933e-003
2.840631e+003, 1.009928e-002
2.842560e+003, 1.015615e-002
2.844488e+003, 1.013629e-002
2.846417e+003, 1.025315e-002
2.848345e+003, 1.021190e-002
2.850274e+003, 1.023763e-002
2.852202e+003, 1.067025e-002
2.854131e+003, 1.094577e-002
2.856059e+003, 1.117750e-002
2.857988e+003, 1.131783e-002
2.859916e+003, 1.127723e-002
2.861844e+003, 1.099480e-002
2.863773e+003, 1.092004e-002
2.865701e+003, 1.117345e-002
2.867630e+003, 1.152114e-002
2.869558e+003, 1.174834e-002
2.871487e+003, 1.172853e-002
2.873415e+003, 1.173454e-002
2.875344e+003, 1.167237e-002
2.877272e+003, 1.170306e-002
2.879201e+003, 1.189355e-002
2.881129e+003, 1.177206e-002
2.883058e+003, 1.131520e-002
2.884986e+003, 1.119994e-002
2.886915e+003, 1.149059e-002
2.888843e+003, 1.172438e-002
2.890771e+003, 1.199536e-002
2.892700e+003, 1.219503e-002
2.894628e+003, 1.247723e-002
2.896557e+003, 1.242124e-002
2.898485e+003, 1.249892e-002
2.900414e+003, 1.272900e-002
2.902342e+003, 1.293589e-002
2.904271e+003, 1.311178e-002
2.906199e+003, 1.318340e-002
2.908128e+003, 1.330379e-002
2.910056e+003, 1.348302e-002
2.911985e+003, 1.354203e-002
2.913913e+003, 1.372439e-002
2.915842e+003, 1.390367e-002
2.917770e+003, 1.427650e-002
2.919698e+003, 1.468982e-002
2.921627e+003, 1.484414e-002
2.923555e+003, 1.490251e-002
2.925484e+003, 1.506286e-002
2.927412e+003, 1.509690e-002
2.929341e+003, 1.512919e-002
2.931269e+003, 1.509224e-002
2.933198e+003, 1.530198e-002
2.935126e+003, 1.522687e-002
2.937055e+003, 1.488539e-002
2.938983e+003, 1.444940e-002
2.940912e+003, 1.398501e-002
2.942840e+003, 1.395066e-002
2.944769e+003, 1.387040e-002
2.946697e+003, 1.405218e-002
2.948625e+003, 1.413118e-002
2.950554e+003, 1.477473e-002
2.952482e+003, 1.528757e-002
2.954411e+003, 1.548535e-002
2.956339e+003, 1.596455e-002
2.958268e+003, 1.626952e-002
2.960196e+003, 1.640286e-002
2.962125e+003, 1.646669e-002
2.964053e+003, 1.618843e-002
2.965982e+003, 1.563391e-002
2.967910e+003, 1.492697e-002
2.969839e+003, 1.440277e-002
2.971767e+003, 1.410306e-002
2.973696e+003, 1.408229e-002
2.975624e+003, 1.423283e-002
2.977552e+003, 1.405130e-002
2.979481e+003, 1.339728e-002
2.981409e+003, 1.298667e-002
2.983338e+003, 1.303347e-002
2.985266e+003, 1.314488e-002
2.987195e+003, 1.298776e-002
2.989123e+003, 1.306074e-002
2.991052e+003, 1.340753e-002
2.992980e+003, 1.346484e-002
2.994909e+003, 1.348311e-002
2.996837e+003, 1.339894e-002
2.998766e+003, 1.335152e-002
3.000694e+003, 1.320126e-002
3.002623e+003, 1.322258e-002
3.004551e+003, 1.364131e-002
3.006479e+003, 1.414537e-002
3.008408e+003, 1.409818e-002
3.010336e+003, 1.362321e-002
3.012265e+003, 1.322372e-002
3.014193e+003, 1.337763e-002
3.016122e+003, 1.357992e-002
3.018050e+003, 1.353349e-002
3.019979e+003, 1.388610e-002
3.021907e+003, 1.425056e-002
3.023836e+003, 1.429446e-002
3.025764e+003, 1.415801e-002
3.027693e+003, 1.396491e-002
3.029621e+003, 1.409410e-002
3.031550e+003, 1.451905e-002
3.033478e+003, 1.474361e-002
3.035406e+003, 1.487623e-002
3.037335e+003, 1.503689e-002
3.039263e+003, 1.491950e-002
3.041192e+003, 1.451971e-002
3.043120e+003, 1.442227e-002
3.045049e+003, 1.498095e-002
3.046977e+003, 1.513969e-002
3.048906e+003, 1.527974e-002
3.050834e+003, 1.551670e-002
3.052763e+003, 1.577129e-002
3.054691e+003, 1.606116e-002
3.056620e+003, 1.624442e-002
3.058548e+003, 1.620365e-002
3.060477e+003, 1.595785e-002
3.062405e+003, 1.612161e-002
3.064333e+003, 1.638466e-002
3.066262e+003, 1.617259e-002
3.068190e+003, 1.601532e-002
3.070119e+003, 1.644392e-002
3.072047e+003, 1.696028e-002
3.073976e+003, 1.684031e-002
3.075904e+003, 1.603811e-002
3.077833e+003, 1.588372e-002
3.079761e+003, 1.685764e-002
3.081690e+003, 1.743212e-002
3.083618e+003, 1.733928e-002
3.085547e+003, 1.720365e-002
3.087475e+003, 1.730722e-002
3.089404e+003, 1.766893e-002
3.091332e+003, 1.779161e-002
3.093260e+003, 1.755572e-002
3.095189e+003, 1.768259e-002
3.097117e+003, 1.799535e-002
3.099046e+003, 1.807145e-002
3.100974e+003, 1.813223e-002
3.102903e+003, 1.819797e-002
3.104831e+003, 1.801521e-002
3.106760e+003, 1.815562e-002
3.108688e+003, 1.865406e-002
3.110617e+003, 1.911094e-002
3.112545e+003, 1.885647e-002
3.114474e+003, 1.866690e-002
3.116402e+003, 1.867235e-002
3.118331e+003, 1.857745e-002
3.120259e+003, 1.910972e-002
3.122188e+003, 1.960042e-002
3.124116e+003, 1.957521e-002
3.126044e+003, 1.944792e-002
3.127973e+003, 1.942414e-002
3.129901e+003, 1.946648e-002
3.131830e+003, 1.971005e-002
3.133758e+003, 2.023149e-002
3.135687e+003, 2.026120e-002
3.137615e+003, 2.028397e-002
3.139544e+003, 2.060347e-002
3.141472e+003, 2.050123e-002
3.143401e+003, 2.042402e-002
3.145329e+003, 2.072990e-002
3.147258e+003, 2.097498e-002
3.149186e+003, 2.071573e-002
3.151115e+003, 2.064072e-002
3.153043e+003, 2.098246e-002
3.154971e+003, 2.131926e-002
3.156900e+003, 2.119574e-002
3.158828e+003, 2.084943e-002
3.160757e+003, 2.110234e-002
3.162685e+003, 2.158040e-002
3.164614e+003, 2.208753e-002
3.166542e+003, 2.225715e-002
3.168471e+003, 2.243884e-002
3.170399e+003, 2.234644e-002
3.172328e+003, 2.254953e-002
3.174256e+003, 2.294748e-002
3.176185e+003, 2.303148e-002
3.178113e+003, 2.327524e-002
3.180042e+003, 2.327282e-002
3.181970e+003, 2.331167e-002
3.183898e+003, 2.346845e-002
3.185827e+003, 2.347910e-002
3.187755e+003, 2.367054e-002
3.189684e+003, 2.363010e-002
3.191612e+003, 2.387490e-002
3.193541e+003, 2.440277e-002
3.195469e+003, 2.447901e-002
3.197398e+003, 2.414389e-002
3.199326e+003, 2.395566e-002
3.201255e+003, 2.411046e-002
3.203183e+003, 2.433090e-002
3.205112e+003, 2.514201e-002
3.207040e+003, 2.565413e-002
3.208969e+003, 2.549561e-002
3.210897e+003, 2.516940e-002
3.212825e+003, 2.500230e-002
3.214754e+003, 2.519741e-002
3.216682e+003, 2.550389e-002
3.218611e+003, 2.577136e-002
3.220539e+003, 2.597852e-002
3.222468e+003, 2.564014e-002
3.224396e+003, 2.606365e-002
3.226325e+003, 2.623158e-002
3.228253e+003, 2.605967e-002
3.230182e+003, 2.593477e-002
3.232110e+003, 2.619014e-002
3.234039e+003, 2.647890e-002
3.235967e+003, 2.673658e-002
3.237896e+003, 2.662247e-002
3.239824e+003, 2.679267e-002
3.241752e+003, 2.658395e-002
3.243681e+003, 2.614059e-002
3.245609e+003, 2.694191e-002
3.247538e+003, 2.696337e-002
3.249466e+003, 2.682286e-002
3.251395e+003, 2.722682e-002
3.253323e+003, 2.753176e-002
3.255252e+003, 2.791740e-002
3.257180e+003, 2.797068e-002
3.259109e+003, 2.803049e-002
3.261037e+003, 2.786388e-002
3.262966e+003, 2.777977e-002
3.264894e+003, 2.802023e-002
3.266823e+003, 2.782292e-002
3.268751e+003, 2.788802e-002
3.270679e+003, 2.816429e-002
3.272608e+003, 2.856117e-002
3.274536e+003, 2.857764e-002
3.276465e+003, 2.844513e-002
3.278393e+003, 2.835978e-002
3.280322e+003, 2.853211e-002
3.282250e+003, 2.883702e-002
3.284179e+003, 2.922096e-002
3.286107e+003, 2.917329e-002
3.288036e+003, 2.912433e-002
3.289964e+003, 2.952426e-002
3.291893e+003, 2.976803e-002
3.293821e+003, 2.945843e-002
3.295750e+003, 2.946371e-002
3.297678e+003, 2.972811e-002
3.299606e+003, 2.960292e-002
3.301535e+003, 2.909463e-002
3.303463e+003, 2.932619e-002
3.305392e+003, 2.997386e-002
3.307320e+003, 3.055661e-002
3.309249e+003, 3.051021e-002
3.311177e+003, 3.052695e-002
3.313106e+003, 3.071435e-002
3.315034e+003, 3.084082e-002
3.316963e+003, 3.096698e-002
3.318891e+003, 3.104663e-002
3.320820e+003, 3.105497e-002
3.322748e+003, 3.134759e-002
3.324677e+003, 3.131498e-002
3.326605e+003, 3.149745e-002
3.328533e+003, 3.138798e-002
3.330462e+003, 3.117407e-002
3.332390e+003, 3.098845e-002
3.334319e+003, 3.096765e-002
3.336247e+003, 3.155661e-002
3.338176e+003, 3.191669e-002
3.340104e+003, 3.176789e-002
3.342033e+003, 3.193460e-002
3.343961e+003, 3.224377e-002
3.345890e+003, 3.281729e-002
3.347818e+003, 3.306583e-002
3.349747e+003, 3.315501e-002
3.351675e+003, 3.342142e-002
3.353604e+003, 3.384908e-002
3.355532e+003, 3.425592e-002
3.357460e+003, 3.395956e-002
3.359389e+003, 3.300331e-002
3.361317e+003, 3.331571e-002
3.363246e+003, 3.442934e-002
3.365174e+003, 3.459860e-002
3.367103e+003, 3.449503e-002
3.369031e+003, 3.484018e-002
3.370960e+003, 3.507344e-002
3.372888e+003, 3.511373e-002
3.374817e+003, 3.466759e-002
3.376745e+003, 3.481511e-002
3.378674e+003, 3.538978e-002
3.380602e+003, 3.544484e-002
3.382531e+003, 3.529075e-002
3.384459e+003, 3.560802e-002
3.386387e+003, 3.571289e-002
3.388316e+003, 3.620534e-002
3.390244e+003, 3.645318e-002
3.392173e+003, 3.646295e-002
3.394101e+003, 3.667201e-002
3.396030e+003, 3.660607e-002
3.397958e+003, 3.618474e-002
3.399887e+003, 3.686967e-002
3.401815e+003, 3.727636e-002
3.403744e+003, 3.727918e-002
3.405672e+003, 3.722320e-002
3.407601e+003, 3.731059e-002
3.409529e+003, 3.725718e-002
3.411458e+003, 3.708397e-002
3.413386e+003, 3.765861e-002
3.415314e+003, 3.871629e-002
3.417243e+003, 3.794222e-002
3.419171e+003, 3.724505e-002
3.421100e+003, 3.777835e-002
3.423028e+003, 3.832754e-002
3.424957e+003, 3.925391e-002
3.426885e+003, 3.949063e-002
3.428814e+003, 3.902769e-002
3.430742e+003, 3.901226e-002
3.432671e+003, 3.949448e-002
3.434599e+003, 3.972278e-002
3.436528e+003, 3.988539e-002
3.438456e+003, 4.003774e-002
3.440385e+003, 4.050342e-002
3.442313e+003, 4.049761e-002
3.444241e+003, 4.036304e-002
3.446170e+003, 4.097414e-002
3.448098e+003, 4.151975e-002
3.450027e+003, 4.170702e-002
3.451955e+003, 4.166608e-002
3.453884e+003, 4.184996e-002
3.455812e+003, 4.181631e-002
3.457741e+003, 4.179378e-002
3.459669e+003, 4.226089e-002
3.461598e+003, 4.244497e-002
3.463526e+003, 4.277081e-002
3.465455e+003, 4.330714e-002
3.467383e+003, 4.352999e-002
3.469312e+003, 4.343195e-002
3.471240e+003, 4.331485e-002
3.473168e+003, 4.342250e-002
3.475097e+003, 4.389625e-002
3.477025e+003, 4.440801e-002
3.478954e+003, 4.453232e-002
3.480882e+003, 4.449807e-002
3.482811e+003, 4.492871e-002
3.484739e+003, 4.532137e-002
3.486668e+003, 4.502648e-002
3.488596e+003, 4.501861e-002
3.490525e+003, 4.515094e-002
3.492453e+003, 4.509371e-002
3.494382e+003, 4.529523e-002
3.496310e+003, 4.569311e-002
3.498239e+003, 4.595708e-002
3.500167e+003, 4.626691e-002
3.502095e+003, 4.663094e-002
3.504024e+003, 4.745650e-002
3.505952e+003, 4.766583e-002
3.507881e+003, 4.726647e-002
3.509809e+003, 4.785513e-002
3.511738e+003, 4.845998e-002
3.513666e+003, 4.902950e-002
3.515595e+003, 4.928013e-002
3.517523e+003, 4.969731e-002
3.519452e+003, 4.985620e-002
3.521380e+003, 4.996872e-002
3.523309e+003, 5.112291e-002
3.525237e+003, 5.208399e-002
3.527166e+003, 5.235889e-002
3.529094e+003, 5.292468e-002
3.531022e+003, 5.329283e-002
3.532951e+003, 5.355777e-002
3.534879e+003, 5.507949e-002
3.536808e+003, 5.598287e-002
3.538736e+003, 5.671748e-002
3.540665e+003, 5.815761e-002
3.542593e+003, 5.916490e-002
3.544522e+003, 5.940299e-002
3.546450e+003, 6.049303e-002
3.548379e+003, 6.195505e-002
3.550307e+003, 6.292113e-002
3.552236e+003, 6.362814e-002
3.554164e+003, 6.464227e-002
3.556093e+003, 6.627318e-002
3.558021e+003, 6.735507e-002
3.559949e+003, 6.855754e-002
3.561878e+003, 6.989279e-002
3.563806e+003, 7.124598e-002
3.565735e+003, 7.336264e-002
3.567663e+003, 7.529892e-002
3.569592e+003, 7.791564e-002
3.571520e+003, 8.134446e-002
3.573449e+003, 8.459418e-002
3.575377e+003, 8.779180e-002
3.577306e+003, 9.112291e-002
3.579234e+003, 9.436270e-002
3.581163e+003, 9.840272e-002
3.583091e+003, 1.031695e-001
3.585020e+003, 1.087385e-001
3.586948e+003, 1.146361e-001
3.588876e+003, 1.207792e-001
3.590805e+003, 1.271430e-001
3.592733e+003, 1.342610e-001
3.594662e+003, 1.413821e-001
3.596590e+003, 1.486380e-001
3.598519e+003, 1.571809e-001
3.600447e+003, 1.668341e-001
3.602376e+003, 1.768343e-001
3.604304e+003, 1.877314e-001
3.606233e+003, 2.000739e-001
3.608161e+003, 2.143853e-001
3.610090e+003, 2.312978e-001
3.612018e+003, 2.525984e-001
3.613947e+003, 2.805992e-001
3.615875e+003, 3.221907e-001
3.617803e+003, 3.850301e-001
3.619732e+003, 4.505298e-001
3.621660e+003, 4.547740e-001
3.623589e+003, 3.825190e-001
3.625517e+003, 3.058444e-001
3.627446e+003, 2.623815e-001
3.629374e+003, 2.428214e-001
3.631303e+003, 2.348491e-001
3.633231e+003, 2.337238e-001
3.635160e+003, 2.366374e-001
3.637088e+003, 2.427876e-001
3.639017e+003, 2.509760e-001
3.640945e+003, 2.570325e-001
3.642874e+003, 2.616240e-001
3.644802e+003, 2.639951e-001
3.646730e+003, 2.630168e-001
3.648659e+003, 2.573617e-001
3.650587e+003, 2.454271e-001
3.652516e+003, 2.280118e-001
3.654444e+003, 2.064653e-001
3.656373e+003, 1.820038e-001
3.658301e+003, 1.567180e-001
3.660230e+003, 1.331091e-001
3.662158e+003, 1.125511e-001
3.664087e+003, 9.642413e-002
3.666015e+003, 8.500073e-002
3.667944e+003, 7.753848e-002
3.669872e+003, 7.273839e-002
3.671801e+003, 6.818554e-002
3.673729e+003, 6.604558e-002
3.675657e+003, 6.608770e-002
3.677586e+003, 6.718355e-002
3.679514e+003, 7.101242e-002
3.681443e+003, 7.612974e-002
3.683371e+003, 8.081128e-002
3.685300e+003, 8.556516e-002
3.687228e+003, 9.342235e-002
3.689157e+003, 1.045641e-001
3.691085e+003, 1.187358e-001
3.693014e+003, 1.372027e-001
3.694942e+003, 1.591258e-001
3.696871e+003, 1.818424e-001
3.698799e+003, 1.994269e-001
3.700728e+003, 2.057043e-001
3.702656e+003, 1.991416e-001
3.704584e+003, 1.815927e-001
3.706513e+003, 1.612898e-001
3.708441e+003, 1.425550e-001
3.710370e+003, 1.235480e-001
3.712298e+003, 1.034512e-001
3.714227e+003, 8.185943e-002
3.716155e+003, 6.308219e-002
3.718084e+003, 4.864446e-002
3.720012e+003, 3.731419e-002
3.721941e+003, 2.910535e-002
3.723869e+003, 2.320391e-002
3.725798e+003, 1.925948e-002
3.727726e+003, 1.623010e-002
3.729655e+003, 1.419192e-002
3.731583e+003, 1.335466e-002
3.733511e+003, 1.169303e-002
3.735440e+003, 9.917066e-003
3.737368e+003, 8.252105e-003
3.739297e+003, 7.307317e-003
3.741225e+003, 6.805453e-003
3.743154e+003, 6.360739e-003
3.745082e+003, 6.266938e-003
3.747011e+003, 5.945860e-003
3.748939e+003, 6.201361e-003
3.750868e+003, 6.387789e-003
3.752796e+003, 5.132586e-003
3.754725e+003, 3.658595e-003
3.756653e+003, 3.005242e-003
3.758582e+003, 3.404299e-003
3.760510e+003, 3.450702e-003
3.762438e+003, 2.644232e-003
3.764367e+003, 2.448051e-003
3.766295e+003, 2.854866e-003
3.768224e+003, 2.962109e-003
3.770152e+003, 2.338975e-003
3.772081e+003, 2.015249e-003
3.774009e+003, 2.154465e-003
3.775938e+003, 1.510113e-003
3.777866e+003, 1.117612e-003
3.779795e+003, 2.135336e-003
3.781723e+003, 2.548851e-003
3.783652e+003, 1.687729e-003
3.785580e+003, 1.295485e-003
3.787509e+003, 1.524701e-003
3.789437e+003, 1.802330e-003
3.791365e+003, 1.890369e-003
3.793294e+003, 2.368762e-003
3.795222e+003, 2.593226e-003
3.797151e+003, 2.299285e-003
3.799079e+003, 2.346306e-003
3.801008e+003, 3.075591e-003
3.802936e+003, 2.858360e-003
3.804865e+003, 2.749281e-003
3.806793e+003, 3.346455e-003
3.808722e+003, 2.493139e-003
3.810650e+003, 1.900652e-003
3.812579e+003, 1.613763e-003
3.814507e+003, 1.649840e-003
3.816436e+003, 2.590510e-003
3.818364e+003, 2.786192e-003
3.820292e+003, 2.691710e-003
3.822221e+003, 2.467643e-003
3.824149e+003, 2.325719e-003
3.826078e+003, 1.804165e-003
3.828006e+003, 2.178641e-003
3.829935e+003, 3.177234e-003
3.831863e+003, 3.193055e-003
3.833792e+003, 2.604697e-003
3.835720e+003, 2.748555e-003
3.837649e+003, 3.643363e-003
3.839577e+003, 3.221672e-003
3.841506e+003, 2.255201e-003
3.843434e+003, 2.076259e-003
3.845363e+003, 2.243884e-003
3.847291e+003, 2.309066e-003
3.849219e+003, 2.647149e-003
3.851148e+003, 3.575687e-003
3.853076e+003, 4.503492e-003
3.855005e+003, 3.934722e-003
3.856933e+003, 2.804935e-003
3.858862e+003, 2.110499e-003
3.860790e+003, 1.959502e-003
3.862719e+003, 2.106670e-003
3.864647e+003, 3.158592e-003
3.866576e+003, 3.679301e-003
3.868504e+003, 3.648607e-003
3.870433e+003, 3.173015e-003
3.872361e+003, 2.979569e-003
3.874290e+003, 2.902076e-003
3.876218e+003, 2.402458e-003
3.878146e+003, 2.192986e-003
3.880075e+003, 2.199721e-003
3.882003e+003, 1.834278e-003
3.883932e+003, 2.351602e-003
3.885860e+003, 2.932538e-003
3.887789e+003, 2.047816e-003
3.889717e+003, 1.717604e-003
3.891646e+003, 2.195438e-003
3.893574e+003, 2.577626e-003
3.895503e+003, 2.266458e-003
3.897431e+003, 1.690547e-003
3.899360e+003, 2.169692e-003
3.901288e+003, 2.698523e-003
3.903217e+003, 1.810681e-003
3.905145e+003, 1.269159e-003
3.907073e+003, 1.537191e-003
3.909002e+003, 2.180668e-003
3.910930e+003, 2.416336e-003
3.912859e+003, 2.613046e-003
3.914787e+003, 1.645056e-003
3.916716e+003, 1.461141e-003
3.918644e+003, 1.914141e-003
3.920573e+003, 1.267018e-003
3.922501e+003, 1.427608e-003
3.924430e+003, 1.929937e-003
3.926358e+003, 2.136011e-003
3.928287e+003, 1.930757e-003
3.930215e+003, 1.905488e-003
3.932144e+003, 2.230823e-003
3.934072e+003, 1.811282e-003
3.936000e+003, 7.924308e-004
3.937929e+003, 7.766206e-004
3.939857e+003, 1.224357e-003
3.941786e+003, 1.301930e-003
3.943714e+003, 1.362581e-003
3.945643e+003, 1.438987e-003
3.947571e+003, 1.011921e-003
3.949500e+003, 1.441937e-003
3.951428e+003, 1.656769e-003
3.953357e+003, 9.082527e-004
3.955285e+003, -1.749806e-004
3.957214e+003, 7.347714e-004
3.959142e+003, 1.304532e-003
3.961071e+003, 9.434677e-004
3.962999e+003, 1.808104e-003
3.964927e+003, 2.182645e-003
3.966856e+003, 1.950107e-003
3.968784e+003, 2.281789e-003
3.970713e+003, 2.047477e-003
3.972641e+003, 1.863051e-003
3.974570e+003, 1.599372e-003
3.976498e+003, 1.002026e-003
3.978427e+003, 1.289543e-003
3.980355e+003, 1.434551e-003
3.982284e+003, 1.462181e-003
3.984212e+003, 1.565153e-003
3.986141e+003, 1.265842e-003
3.988069e+003, 1.265789e-003
3.989998e+003, 2.183886e-003
3.991926e+003, 2.674228e-003
3.993854e+003, 1.888410e-003
3.995783e+003, 1.308219e-003
3.997711e+003, 1.190332e-003
3.999640e+003, 1.413714e-003
##END=



