##NAMES=Diopside
##RRUFFID=R060085
##IDEAL CHEMISTRY=CaMgSi_2_O_6_
##LOCALITY=Tyrol, Austria
##OWNER=RRUFF
##SOURCE=University of Arizona Mineral Museum
##DESCRIPTION=Brownish-green massive
##STATUS=The identification of this mineral has been confirmed by X-ray diffraction and chemical analysis
##URL=rruff.info/R060085
##MEASURED CHEMISTRY=(Ca_0.97_Na_0.03_)_Σ=1_(Mg_0.79_Fe^2+^_0.10_Fe^3+^_0.04_Al_0.04_Ti_0.02_Cr_0.01_)_Σ=1_(Si_1.90_Al_0.10_)_Σ=2_O_6_
3.991926e+002, 2.979310e-001
4.011211e+002, 3.021375e-001
4.030495e+002, 3.098793e-001
4.049780e+002, 3.151311e-001
4.069065e+002, 3.099438e-001
4.088349e+002, 3.019263e-001
4.107634e+002, 2.913353e-001
4.126919e+002, 2.794153e-001
4.146203e+002, 2.732123e-001
4.165488e+002, 2.693228e-001
4.184773e+002, 2.649167e-001
4.204057e+002, 2.662682e-001
4.223342e+002, 2.737162e-001
4.242627e+002, 2.834636e-001
4.261911e+002, 2.918213e-001
4.281196e+002, 2.973346e-001
4.300481e+002, 3.013029e-001
4.319765e+002, 3.060899e-001
4.339050e+002, 3.101892e-001
4.358335e+002, 3.133855e-001
4.377619e+002, 3.166580e-001
4.396904e+002, 3.199152e-001
4.416189e+002, 3.223066e-001
4.435473e+002, 3.252685e-001
4.454758e+002, 3.278082e-001
4.474043e+002, 3.285499e-001
4.493327e+002, 3.271092e-001
4.512612e+002, 3.262645e-001
4.531897e+002, 3.268784e-001
4.551181e+002, 3.257393e-001
4.570466e+002, 3.239681e-001
4.589751e+002, 3.226186e-001
4.609035e+002, 3.160974e-001
4.628320e+002, 3.102925e-001
4.647605e+002, 3.065414e-001
4.666889e+002, 3.025318e-001
4.686174e+002, 2.976314e-001
4.705459e+002, 2.916669e-001
4.724743e+002, 2.853588e-001
4.744028e+002, 2.810577e-001
4.763313e+002, 2.766347e-001
4.782597e+002, 2.710869e-001
4.801882e+002, 2.637899e-001
4.821167e+002, 2.568450e-001
4.840451e+002, 2.505912e-001
4.859736e+002, 2.450071e-001
4.879021e+002, 2.397977e-001
4.898305e+002, 2.352020e-001
4.917590e+002, 2.326271e-001
4.936875e+002, 2.330891e-001
4.956159e+002, 2.346767e-001
4.975444e+002, 2.368314e-001
4.994729e+002, 2.390305e-001
5.014013e+002, 2.400861e-001
5.033298e+002, 2.390586e-001
5.052583e+002, 2.358892e-001
5.071867e+002, 2.315267e-001
5.091152e+002, 2.248859e-001
5.110437e+002, 2.162497e-001
5.129721e+002, 2.087734e-001
5.149006e+002, 2.010943e-001
5.168290e+002, 1.922769e-001
5.187575e+002, 1.832366e-001
5.206860e+002, 1.746095e-001
5.226144e+002, 1.661355e-001
5.245429e+002, 1.590440e-001
5.264714e+002, 1.534622e-001
5.283998e+002, 1.485237e-001
5.303283e+002, 1.441464e-001
5.322568e+002, 1.403400e-001
5.341852e+002, 1.365166e-001
5.361137e+002, 1.335795e-001
5.380422e+002, 1.313158e-001
5.399706e+002, 1.290076e-001
5.418991e+002, 1.265644e-001
5.438276e+002, 1.234134e-001
5.457560e+002, 1.200804e-001
5.476845e+002, 1.179293e-001
5.496130e+002, 1.161152e-001
5.515414e+002, 1.134662e-001
5.534699e+002, 1.104945e-001
5.553984e+002, 1.078100e-001
5.573268e+002, 1.052088e-001
5.592553e+002, 1.022540e-001
5.611838e+002, 9.914043e-002
5.631122e+002, 9.655700e-002
5.650407e+002, 9.411420e-002
5.669692e+002, 9.136116e-002
5.688976e+002, 8.891345e-002
5.708261e+002, 8.676866e-002
5.727546e+002, 8.456044e-002
5.746830e+002, 8.228848e-002
5.766115e+002, 8.011740e-002
5.785400e+002, 7.865341e-002
5.804684e+002, 7.751611e-002
5.823969e+002, 7.635693e-002
5.843254e+002, 7.549547e-002
5.862538e+002, 7.486050e-002
5.881823e+002, 7.462720e-002
5.901108e+002, 7.497107e-002
5.920392e+002, 7.579549e-002
5.939677e+002, 7.701496e-002
5.958962e+002, 7.864654e-002
5.978246e+002, 8.047374e-002
5.997531e+002, 8.265653e-002
6.016816e+002, 8.512308e-002
6.036100e+002, 8.814018e-002
6.055385e+002, 9.178969e-002
6.074670e+002, 9.562884e-002
6.093954e+002, 9.947015e-002
6.113239e+002, 1.034215e-001
6.132524e+002, 1.075307e-001
6.151808e+002, 1.119696e-001
6.171093e+002, 1.167213e-001
6.190378e+002, 1.219183e-001
6.209662e+002, 1.275094e-001
6.228947e+002, 1.330481e-001
6.248232e+002, 1.385480e-001
6.267516e+002, 1.438428e-001
6.286801e+002, 1.482811e-001
6.306086e+002, 1.513210e-001
6.325370e+002, 1.519539e-001
6.344655e+002, 1.500583e-001
6.363940e+002, 1.460959e-001
6.383224e+002, 1.408737e-001
6.402509e+002, 1.349608e-001
6.421794e+002, 1.291092e-001
6.441078e+002, 1.240618e-001
6.460363e+002, 1.200437e-001
6.479648e+002, 1.165817e-001
6.498932e+002, 1.136421e-001
6.518217e+002, 1.113777e-001
6.537502e+002, 1.096486e-001
6.556786e+002, 1.081434e-001
6.576071e+002, 1.069861e-001
6.595356e+002, 1.062834e-001
6.614641e+002, 1.060201e-001
6.633925e+002, 1.061300e-001
6.653210e+002, 1.065127e-001
6.672495e+002, 1.071385e-001
6.691779e+002, 1.077695e-001
6.711064e+002, 1.073641e-001
6.730349e+002, 1.054403e-001
6.749633e+002, 1.020382e-001
6.768918e+002, 9.758490e-002
6.788203e+002, 9.283180e-002
6.807487e+002, 8.850115e-002
6.826772e+002, 8.500900e-002
6.846057e+002, 8.225042e-002
6.865341e+002, 8.013017e-002
6.884626e+002, 7.840820e-002
6.903911e+002, 7.712503e-002
6.923195e+002, 7.621457e-002
6.942480e+002, 7.521426e-002
6.961765e+002, 7.427035e-002
6.981049e+002, 7.361354e-002
7.000334e+002, 7.305656e-002
7.019619e+002, 7.220828e-002
7.038903e+002, 7.156024e-002
7.058188e+002, 7.104395e-002
7.077473e+002, 7.046925e-002
7.096757e+002, 6.983489e-002
7.116042e+002, 6.970710e-002
7.135327e+002, 6.991421e-002
7.154611e+002, 7.004429e-002
7.173896e+002, 7.036070e-002
7.193181e+002, 7.080615e-002
7.212465e+002, 7.096083e-002
7.231750e+002, 7.130782e-002
7.251035e+002, 7.193810e-002
7.270319e+002, 7.241447e-002
7.289604e+002, 7.314953e-002
7.308889e+002, 7.430439e-002
7.328173e+002, 7.567749e-002
7.347458e+002, 7.702179e-002
7.366743e+002, 7.839678e-002
7.386027e+002, 7.988811e-002
7.405312e+002, 8.166525e-002
7.424597e+002, 8.352277e-002
7.443881e+002, 8.530966e-002
7.463166e+002, 8.731607e-002
7.482451e+002, 8.937208e-002
7.501735e+002, 9.144872e-002
7.521020e+002, 9.345154e-002
7.540305e+002, 9.536269e-002
7.559589e+002, 9.711961e-002
7.578874e+002, 9.855985e-002
7.598159e+002, 9.981585e-002
7.617443e+002, 1.005703e-001
7.636728e+002, 1.007758e-001
7.656013e+002, 1.009805e-001
7.675297e+002, 1.012927e-001
7.694582e+002, 1.015792e-001
7.713867e+002, 1.020095e-001
7.733151e+002, 1.028936e-001
7.752436e+002, 1.042099e-001
7.771721e+002, 1.058794e-001
7.791005e+002, 1.078284e-001
7.810290e+002, 1.099809e-001
7.829575e+002, 1.123538e-001
7.848859e+002, 1.146538e-001
7.868144e+002, 1.171442e-001
7.887429e+002, 1.199546e-001
7.906713e+002, 1.229046e-001
7.925998e+002, 1.258958e-001
7.945283e+002, 1.288420e-001
7.964567e+002, 1.320932e-001
7.983852e+002, 1.356038e-001
8.003137e+002, 1.395808e-001
8.022421e+002, 1.439156e-001
8.041706e+002, 1.487382e-001
8.060991e+002, 1.539410e-001
8.080275e+002, 1.594247e-001
8.099560e+002, 1.651498e-001
8.118845e+002, 1.710069e-001
8.138129e+002, 1.768391e-001
8.157414e+002, 1.826643e-001
8.176699e+002, 1.882393e-001
8.195983e+002, 1.936622e-001
8.215268e+002, 1.985038e-001
8.234553e+002, 2.034170e-001
8.253837e+002, 2.087908e-001
8.273122e+002, 2.144118e-001
8.292407e+002, 2.201914e-001
8.311691e+002, 2.264474e-001
8.330976e+002, 2.332802e-001
8.350261e+002, 2.407948e-001
8.369545e+002, 2.485797e-001
8.388830e+002, 2.569553e-001
8.408115e+002, 2.655970e-001
8.427399e+002, 2.745930e-001
8.446684e+002, 2.835407e-001
8.465969e+002, 2.921099e-001
8.485253e+002, 2.997664e-001
8.504538e+002, 3.063253e-001
8.523823e+002, 3.112850e-001
8.543107e+002, 3.147358e-001
8.562392e+002, 3.168207e-001
8.581677e+002, 3.183705e-001
8.600961e+002, 3.190826e-001
8.620246e+002, 3.189414e-001
8.639531e+002, 3.180397e-001
8.658815e+002, 3.167432e-001
8.678100e+002, 3.148684e-001
8.697385e+002, 3.123566e-001
8.716669e+002, 3.096235e-001
8.735954e+002, 3.068368e-001
8.755239e+002, 3.036813e-001
8.774523e+002, 3.003876e-001
8.793808e+002, 2.967511e-001
8.813093e+002, 2.930354e-001
8.832377e+002, 2.895080e-001
8.851662e+002, 2.864609e-001
8.870947e+002, 2.836655e-001
8.890231e+002, 2.808842e-001
8.909516e+002, 2.782720e-001
8.928801e+002, 2.761518e-001
8.948085e+002, 2.746225e-001
8.967370e+002, 2.734942e-001
8.986655e+002, 2.725392e-001
9.005939e+002, 2.715723e-001
9.025224e+002, 2.710370e-001
9.044509e+002, 2.710318e-001
9.063793e+002, 2.712172e-001
9.083078e+002, 2.716813e-001
9.102363e+002, 2.722093e-001
9.121647e+002, 2.729685e-001
9.140932e+002, 2.736983e-001
9.160217e+002, 2.736687e-001
9.179501e+002, 2.725629e-001
9.198786e+002, 2.702364e-001
9.218071e+002, 2.662400e-001
9.237355e+002, 2.610921e-001
9.256640e+002, 2.552558e-001
9.275925e+002, 2.492982e-001
9.295209e+002, 2.437798e-001
9.314494e+002, 2.400830e-001
9.333779e+002, 2.391905e-001
9.353063e+002, 2.412814e-001
9.372348e+002, 2.461392e-001
9.391633e+002, 2.538981e-001
9.410917e+002, 2.644013e-001
9.430202e+002, 2.768589e-001
9.449487e+002, 2.901767e-001
9.468771e+002, 3.042266e-001
9.488056e+002, 3.183971e-001
9.507341e+002, 3.320405e-001
9.526625e+002, 3.440851e-001
9.545910e+002, 3.533633e-001
9.565195e+002, 3.585058e-001
9.584479e+002, 3.600975e-001
9.603764e+002, 3.589657e-001
9.623049e+002, 3.549850e-001
9.642333e+002, 3.478085e-001
9.661618e+002, 3.383530e-001
9.680903e+002, 3.274067e-001
9.700187e+002, 3.160640e-001
9.719472e+002, 3.049865e-001
9.738757e+002, 2.945824e-001
9.758041e+002, 2.849091e-001
9.777326e+002, 2.760446e-001
9.796611e+002, 2.680063e-001
9.815895e+002, 2.610048e-001
9.835180e+002, 2.549764e-001
9.854465e+002, 2.498680e-001
9.873749e+002, 2.454081e-001
9.893034e+002, 2.418933e-001
9.912319e+002, 2.390837e-001
9.931603e+002, 2.368207e-001
9.950888e+002, 2.347519e-001
9.970173e+002, 2.327089e-001
9.989457e+002, 2.303083e-001
1.000874e+003, 2.275051e-001
1.002803e+003, 2.241965e-001
1.004731e+003, 2.202900e-001
1.006660e+003, 2.161552e-001
1.008588e+003, 2.115761e-001
1.010517e+003, 2.066661e-001
1.012445e+003, 2.017931e-001
1.014373e+003, 1.970643e-001
1.016302e+003, 1.926102e-001
1.018230e+003, 1.884281e-001
1.020159e+003, 1.846765e-001
1.022087e+003, 1.816638e-001
1.024016e+003, 1.793530e-001
1.025944e+003, 1.775744e-001
1.027873e+003, 1.765521e-001
1.029801e+003, 1.760781e-001
1.031730e+003, 1.761178e-001
1.033658e+003, 1.767027e-001
1.035587e+003, 1.777325e-001
1.037515e+003, 1.793719e-001
1.039443e+003, 1.815773e-001
1.041372e+003, 1.839813e-001
1.043300e+003, 1.865736e-001
1.045229e+003, 1.892638e-001
1.047157e+003, 1.920271e-001
1.049086e+003, 1.946406e-001
1.051014e+003, 1.972722e-001
1.052943e+003, 1.999308e-001
1.054871e+003, 2.019690e-001
1.056800e+003, 2.033265e-001
1.058728e+003, 2.041621e-001
1.060657e+003, 2.045551e-001
1.062585e+003, 2.046489e-001
1.064514e+003, 2.043189e-001
1.066442e+003, 2.035338e-001
1.068370e+003, 2.020300e-001
1.070299e+003, 1.993795e-001
1.072227e+003, 1.952615e-001
1.074156e+003, 1.899574e-001
1.076084e+003, 1.835425e-001
1.078013e+003, 1.762365e-001
1.079941e+003, 1.684355e-001
1.081870e+003, 1.605693e-001
1.083798e+003, 1.524739e-001
1.085727e+003, 1.444921e-001
1.087655e+003, 1.367663e-001
1.089584e+003, 1.293369e-001
1.091512e+003, 1.220874e-001
1.093441e+003, 1.151329e-001
1.095369e+003, 1.086558e-001
1.097297e+003, 1.025084e-001
1.099226e+003, 9.657118e-002
1.101154e+003, 9.104178e-002
1.103083e+003, 8.574463e-002
1.105011e+003, 8.060088e-002
1.106940e+003, 7.568292e-002
1.108868e+003, 7.083699e-002
1.110797e+003, 6.608554e-002
1.112725e+003, 6.149213e-002
1.114654e+003, 5.704333e-002
1.116582e+003, 5.283890e-002
1.118511e+003, 4.902115e-002
1.120439e+003, 4.552090e-002
1.122368e+003, 4.221356e-002
1.124296e+003, 3.903776e-002
1.126224e+003, 3.614656e-002
1.128153e+003, 3.337166e-002
1.130081e+003, 3.081273e-002
1.132010e+003, 2.865147e-002
1.133938e+003, 2.678936e-002
1.135867e+003, 2.492059e-002
1.137795e+003, 2.311648e-002
1.139724e+003, 2.174341e-002
1.141652e+003, 2.065748e-002
1.143581e+003, 1.969749e-002
1.145509e+003, 1.874833e-002
1.147438e+003, 1.791017e-002
1.149366e+003, 1.738515e-002
1.151295e+003, 1.698678e-002
1.153223e+003, 1.650232e-002
1.155151e+003, 1.605559e-002
1.157080e+003, 1.568658e-002
1.159008e+003, 1.532879e-002
1.160937e+003, 1.498065e-002
1.162865e+003, 1.468944e-002
1.164794e+003, 1.437265e-002
1.166722e+003, 1.404789e-002
1.168651e+003, 1.387479e-002
1.170579e+003, 1.375376e-002
1.172508e+003, 1.349386e-002
1.174436e+003, 1.335703e-002
1.176365e+003, 1.318274e-002
1.178293e+003, 1.292047e-002
1.180222e+003, 1.274100e-002
1.182150e+003, 1.256482e-002
1.184078e+003, 1.228720e-002
1.186007e+003, 1.210057e-002
1.187935e+003, 1.218753e-002
1.189864e+003, 1.221460e-002
1.191792e+003, 1.207629e-002
1.193721e+003, 1.181364e-002
1.195649e+003, 1.176159e-002
1.197578e+003, 1.181955e-002
1.199506e+003, 1.171698e-002
1.201435e+003, 1.146140e-002
1.203363e+003, 1.136218e-002
1.205292e+003, 1.136952e-002
1.207220e+003, 1.134797e-002
1.209149e+003, 1.132662e-002
1.211077e+003, 1.122935e-002
1.213005e+003, 1.109242e-002
1.214934e+003, 1.092690e-002
1.216862e+003, 1.078578e-002
1.218791e+003, 1.070429e-002
1.220719e+003, 1.071317e-002
1.222648e+003, 1.069967e-002
1.224576e+003, 1.061491e-002
1.226505e+003, 1.057719e-002
1.228433e+003, 1.049829e-002
1.230362e+003, 1.046671e-002
1.232290e+003, 1.056701e-002
1.234219e+003, 1.064131e-002
1.236147e+003, 1.054422e-002
1.238076e+003, 1.042477e-002
1.240004e+003, 1.041067e-002
1.241932e+003, 1.044725e-002
1.243861e+003, 1.044325e-002
1.245789e+003, 1.047804e-002
1.247718e+003, 1.050585e-002
1.249646e+003, 1.055690e-002
1.251575e+003, 1.053637e-002
1.253503e+003, 1.059258e-002
1.255432e+003, 1.072777e-002
1.257360e+003, 1.062682e-002
1.259289e+003, 1.060708e-002
1.261217e+003, 1.076330e-002
1.263146e+003, 1.080259e-002
1.265074e+003, 1.084337e-002
1.267003e+003, 1.103209e-002
1.268931e+003, 1.121250e-002
1.270859e+003, 1.140820e-002
1.272788e+003, 1.168156e-002
1.274716e+003, 1.197393e-002
1.276645e+003, 1.219156e-002
1.278573e+003, 1.224761e-002
1.280502e+003, 1.233999e-002
1.282430e+003, 1.242540e-002
1.284359e+003, 1.244031e-002
1.286287e+003, 1.239293e-002
1.288216e+003, 1.236901e-002
1.290144e+003, 1.234588e-002
1.292073e+003, 1.237270e-002
1.294001e+003, 1.228740e-002
1.295930e+003, 1.213651e-002
1.297858e+003, 1.212883e-002
1.299786e+003, 1.217933e-002
1.301715e+003, 1.213422e-002
1.303643e+003, 1.214974e-002
1.305572e+003, 1.218066e-002
1.307500e+003, 1.219539e-002
1.309429e+003, 1.220080e-002
1.311357e+003, 1.222876e-002
1.313286e+003, 1.223227e-002
1.315214e+003, 1.223238e-002
1.317143e+003, 1.224240e-002
1.319071e+003, 1.217041e-002
1.321000e+003, 1.212871e-002
1.322928e+003, 1.220298e-002
1.324857e+003, 1.228700e-002
1.326785e+003, 1.227530e-002
1.328714e+003, 1.231475e-002
1.330642e+003, 1.248110e-002
1.332570e+003, 1.261015e-002
1.334499e+003, 1.261707e-002
1.336427e+003, 1.256029e-002
1.338356e+003, 1.261771e-002
1.340284e+003, 1.276281e-002
1.342213e+003, 1.302112e-002
1.344141e+003, 1.324094e-002
1.346070e+003, 1.335015e-002
1.347998e+003, 1.340124e-002
1.349927e+003, 1.364200e-002
1.351855e+003, 1.385775e-002
1.353784e+003, 1.391685e-002
1.355712e+003, 1.402349e-002
1.357641e+003, 1.418052e-002
1.359569e+003, 1.420438e-002
1.361497e+003, 1.426724e-002
1.363426e+003, 1.457580e-002
1.365354e+003, 1.504570e-002
1.367283e+003, 1.531924e-002
1.369211e+003, 1.565168e-002
1.371140e+003, 1.596704e-002
1.373068e+003, 1.609117e-002
1.374997e+003, 1.623002e-002
1.376925e+003, 1.665107e-002
1.378854e+003, 1.702805e-002
1.380782e+003, 1.727400e-002
1.382711e+003, 1.730442e-002
1.384639e+003, 1.737854e-002
1.386568e+003, 1.711253e-002
1.388496e+003, 1.724443e-002
1.390424e+003, 1.777086e-002
1.392353e+003, 1.778836e-002
1.394281e+003, 1.745532e-002
1.396210e+003, 1.767950e-002
1.398138e+003, 1.785763e-002
1.400067e+003, 1.810672e-002
1.401995e+003, 1.840807e-002
1.403924e+003, 1.835873e-002
1.405852e+003, 1.840197e-002
1.407781e+003, 1.867145e-002
1.409709e+003, 1.880272e-002
1.411638e+003, 1.887844e-002
1.413566e+003, 1.893135e-002
1.415495e+003, 1.880860e-002
1.417423e+003, 1.820271e-002
1.419351e+003, 1.781021e-002
1.421280e+003, 1.858708e-002
1.423208e+003, 1.902223e-002
1.425137e+003, 1.903835e-002
1.427065e+003, 1.917507e-002
1.428994e+003, 1.906503e-002
1.430922e+003, 1.915161e-002
1.432851e+003, 1.948049e-002
1.434779e+003, 1.907570e-002
1.436708e+003, 1.841534e-002
1.438636e+003, 1.911221e-002
1.440565e+003, 1.949480e-002
1.442493e+003, 1.950156e-002
1.444422e+003, 1.952485e-002
1.446350e+003, 1.920425e-002
1.448278e+003, 1.890374e-002
1.450207e+003, 1.921303e-002
1.452135e+003, 1.925816e-002
1.454064e+003, 1.884081e-002
1.455992e+003, 1.749882e-002
1.457921e+003, 1.759851e-002
1.459849e+003, 1.877303e-002
1.461778e+003, 1.914888e-002
1.463706e+003, 1.871042e-002
1.465635e+003, 1.864165e-002
1.467563e+003, 1.914070e-002
1.469492e+003, 1.904364e-002
1.471420e+003, 1.813930e-002
1.473349e+003, 1.792410e-002
1.475277e+003, 1.873545e-002
1.477205e+003, 1.929142e-002
1.479134e+003, 1.964971e-002
1.481062e+003, 1.971276e-002
1.482991e+003, 1.977424e-002
1.484919e+003, 1.954623e-002
1.486848e+003, 1.929431e-002
1.488776e+003, 1.913857e-002
1.490705e+003, 1.919581e-002
1.492633e+003, 1.966507e-002
1.494562e+003, 1.931051e-002
1.496490e+003, 1.874290e-002
1.498419e+003, 1.926162e-002
1.500347e+003, 1.981951e-002
1.502276e+003, 2.012202e-002
1.504204e+003, 1.898293e-002
1.506132e+003, 1.712343e-002
1.508061e+003, 1.780390e-002
1.509989e+003, 1.911346e-002
1.511918e+003, 1.931449e-002
1.513846e+003, 1.940162e-002
1.515775e+003, 1.891465e-002
1.517703e+003, 1.871172e-002
1.519632e+003, 1.811999e-002
1.521560e+003, 1.756147e-002
1.523489e+003, 1.853812e-002
1.525417e+003, 1.885356e-002
1.527346e+003, 1.921013e-002
1.529274e+003, 1.963649e-002
1.531203e+003, 1.953710e-002
1.533131e+003, 1.900069e-002
1.535059e+003, 1.931724e-002
1.536988e+003, 1.888826e-002
1.538916e+003, 1.695463e-002
1.540845e+003, 1.685445e-002
1.542773e+003, 1.819984e-002
1.544702e+003, 1.903329e-002
1.546630e+003, 1.981073e-002
1.548559e+003, 2.011449e-002
1.550487e+003, 1.992282e-002
1.552416e+003, 1.953549e-002
1.554344e+003, 1.893919e-002
1.556273e+003, 1.820287e-002
1.558201e+003, 1.606357e-002
1.560130e+003, 1.638661e-002
1.562058e+003, 1.881014e-002
1.563986e+003, 1.947742e-002
1.565915e+003, 1.945632e-002
1.567843e+003, 1.906245e-002
1.569772e+003, 1.865289e-002
1.571700e+003, 1.928782e-002
1.573629e+003, 1.904975e-002
1.575557e+003, 1.755310e-002
1.577486e+003, 1.820723e-002
1.579414e+003, 1.946362e-002
1.581343e+003, 1.958044e-002
1.583271e+003, 1.961247e-002
1.585200e+003, 1.955828e-002
1.587128e+003, 1.962153e-002
1.589057e+003, 1.962326e-002
1.590985e+003, 1.970973e-002
1.592913e+003, 1.992019e-002
1.594842e+003, 2.008785e-002
1.596770e+003, 2.006696e-002
1.598699e+003, 2.019720e-002
1.600627e+003, 2.018827e-002
1.602556e+003, 2.012978e-002
1.604484e+003, 2.015402e-002
1.606413e+003, 2.020680e-002
1.608341e+003, 2.017374e-002
1.610270e+003, 2.027609e-002
1.612198e+003, 2.043259e-002
1.614127e+003, 2.003086e-002
1.616055e+003, 1.870170e-002
1.617984e+003, 1.934088e-002
1.619912e+003, 2.050447e-002
1.621840e+003, 2.024220e-002
1.623769e+003, 2.026922e-002
1.625697e+003, 2.076599e-002
1.627626e+003, 2.085444e-002
1.629554e+003, 2.120678e-002
1.631483e+003, 2.149195e-002
1.633411e+003, 2.072329e-002
1.635340e+003, 1.958315e-002
1.637268e+003, 2.043915e-002
1.639197e+003, 2.159994e-002
1.641125e+003, 2.180604e-002
1.643054e+003, 2.160566e-002
1.644982e+003, 2.044158e-002
1.646911e+003, 2.009714e-002
1.648839e+003, 2.114320e-002
1.650767e+003, 1.998663e-002
1.652696e+003, 1.711723e-002
1.654624e+003, 1.876224e-002
1.656553e+003, 2.115840e-002
1.658481e+003, 2.145468e-002
1.660410e+003, 2.104233e-002
1.662338e+003, 2.045792e-002
1.664267e+003, 2.088836e-002
1.666195e+003, 2.112189e-002
1.668124e+003, 2.010938e-002
1.670052e+003, 1.957481e-002
1.671981e+003, 1.999588e-002
1.673909e+003, 1.943335e-002
1.675838e+003, 1.902759e-002
1.677766e+003, 1.985053e-002
1.679694e+003, 1.990059e-002
1.681623e+003, 1.913828e-002
1.683551e+003, 1.686703e-002
1.685480e+003, 1.698410e-002
1.687408e+003, 1.880402e-002
1.689337e+003, 1.911727e-002
1.691265e+003, 1.917029e-002
1.693194e+003, 1.858967e-002
1.695122e+003, 1.664748e-002
1.697051e+003, 1.664740e-002
1.698979e+003, 1.626846e-002
1.700908e+003, 1.581870e-002
1.702836e+003, 1.761330e-002
1.704765e+003, 1.781088e-002
1.706693e+003, 1.800293e-002
1.708621e+003, 1.817255e-002
1.710550e+003, 1.818890e-002
1.712478e+003, 1.783512e-002
1.714407e+003, 1.699043e-002
1.716335e+003, 1.549532e-002
1.718264e+003, 1.546364e-002
1.720192e+003, 1.686710e-002
1.722121e+003, 1.723885e-002
1.724049e+003, 1.712789e-002
1.725978e+003, 1.722314e-002
1.727906e+003, 1.702773e-002
1.729835e+003, 1.662538e-002
1.731763e+003, 1.534842e-002
1.733692e+003, 1.361057e-002
1.735620e+003, 1.461709e-002
1.737548e+003, 1.561925e-002
1.739477e+003, 1.486637e-002
1.741405e+003, 1.495944e-002
1.743334e+003, 1.510318e-002
1.745262e+003, 1.514162e-002
1.747191e+003, 1.491409e-002
1.749119e+003, 1.458465e-002
1.751048e+003, 1.445694e-002
1.752976e+003, 1.530524e-002
1.754905e+003, 1.578107e-002
1.756833e+003, 1.568946e-002
1.758762e+003, 1.581564e-002
1.760690e+003, 1.564155e-002
1.762619e+003, 1.579635e-002
1.764547e+003, 1.635382e-002
1.766475e+003, 1.599476e-002
1.768404e+003, 1.569087e-002
1.770332e+003, 1.538802e-002
1.772261e+003, 1.483320e-002
1.774189e+003, 1.557125e-002
1.776118e+003, 1.620042e-002
1.778046e+003, 1.637418e-002
1.779975e+003, 1.633492e-002
1.781903e+003, 1.642857e-002
1.783832e+003, 1.648563e-002
1.785760e+003, 1.666772e-002
1.787689e+003, 1.692192e-002
1.789617e+003, 1.646268e-002
1.791546e+003, 1.569907e-002
1.793474e+003, 1.590824e-002
1.795402e+003, 1.662027e-002
1.797331e+003, 1.666839e-002
1.799259e+003, 1.650929e-002
1.801188e+003, 1.654956e-002
1.803116e+003, 1.691179e-002
1.805045e+003, 1.697520e-002
1.806973e+003, 1.691708e-002
1.808902e+003, 1.690767e-002
1.810830e+003, 1.698808e-002
1.812759e+003, 1.707654e-002
1.814687e+003, 1.706082e-002
1.816616e+003, 1.663016e-002
1.818544e+003, 1.685834e-002
1.820473e+003, 1.709522e-002
1.822401e+003, 1.697745e-002
1.824329e+003, 1.670258e-002
1.826258e+003, 1.697561e-002
1.828186e+003, 1.685007e-002
1.830115e+003, 1.660518e-002
1.832043e+003, 1.703575e-002
1.833972e+003, 1.701386e-002
1.835900e+003, 1.685047e-002
1.837829e+003, 1.714148e-002
1.839757e+003, 1.733428e-002
1.841686e+003, 1.717820e-002
1.843614e+003, 1.636116e-002
1.845543e+003, 1.657487e-002
1.847471e+003, 1.708769e-002
1.849400e+003, 1.731743e-002
1.851328e+003, 1.739012e-002
1.853256e+003, 1.736309e-002
1.855185e+003, 1.746793e-002
1.857113e+003, 1.767436e-002
1.859042e+003, 1.772971e-002
1.860970e+003, 1.778130e-002
1.862899e+003, 1.758880e-002
1.864827e+003, 1.751605e-002
1.866756e+003, 1.731719e-002
1.868684e+003, 1.710598e-002
1.870613e+003, 1.741959e-002
1.872541e+003, 1.772727e-002
1.874470e+003, 1.738529e-002
1.876398e+003, 1.749782e-002
1.878327e+003, 1.768979e-002
1.880255e+003, 1.765338e-002
1.882183e+003, 1.742983e-002
1.884112e+003, 1.739254e-002
1.886040e+003, 1.763762e-002
1.887969e+003, 1.758538e-002
1.889897e+003, 1.714356e-002
1.891826e+003, 1.719669e-002
1.893754e+003, 1.736314e-002
1.895683e+003, 1.753218e-002
1.897611e+003, 1.763413e-002
1.899540e+003, 1.776205e-002
1.901468e+003, 1.776664e-002
1.903397e+003, 1.747013e-002
1.905325e+003, 1.763199e-002
1.907254e+003, 1.800188e-002
1.909182e+003, 1.796142e-002
1.911110e+003, 1.799039e-002
1.913039e+003, 1.790398e-002
1.914967e+003, 1.776440e-002
1.916896e+003, 1.715969e-002
1.918824e+003, 1.716919e-002
1.920753e+003, 1.743328e-002
1.922681e+003, 1.757072e-002
1.924610e+003, 1.732756e-002
1.926538e+003, 1.731012e-002
1.928467e+003, 1.763368e-002
1.930395e+003, 1.742633e-002
1.932324e+003, 1.761468e-002
1.934252e+003, 1.846740e-002
1.936181e+003, 1.799415e-002
1.938109e+003, 1.755725e-002
1.940037e+003, 1.742718e-002
1.941966e+003, 1.695771e-002
1.943894e+003, 1.715190e-002
1.945823e+003, 1.796963e-002
1.947751e+003, 1.786154e-002
1.949680e+003, 1.727876e-002
1.951608e+003, 1.726144e-002
1.953537e+003, 1.731844e-002
1.955465e+003, 1.653131e-002
1.957394e+003, 1.722550e-002
1.959322e+003, 1.853278e-002
1.961251e+003, 1.895804e-002
1.963179e+003, 1.861842e-002
1.965108e+003, 1.843650e-002
1.967036e+003, 1.780685e-002
1.968964e+003, 1.738219e-002
1.970893e+003, 1.797656e-002
1.972821e+003, 1.862370e-002
1.974750e+003, 1.872030e-002
1.976678e+003, 1.897313e-002
1.978607e+003, 2.044822e-002
1.980535e+003, 2.093648e-002
1.982464e+003, 2.028236e-002
1.984392e+003, 2.023993e-002
1.986321e+003, 2.066580e-002
1.988249e+003, 1.983278e-002
1.990178e+003, 1.874929e-002
1.992106e+003, 1.874360e-002
1.994035e+003, 1.866917e-002
1.995963e+003, 1.896683e-002
1.997891e+003, 1.954843e-002
1.999820e+003, 1.936117e-002
2.001748e+003, 1.795554e-002
2.003677e+003, 1.808918e-002
2.005605e+003, 1.887060e-002
2.007534e+003, 1.918447e-002
2.009462e+003, 1.906331e-002
2.011391e+003, 1.978639e-002
2.013319e+003, 2.053121e-002
2.015248e+003, 2.066267e-002
2.017176e+003, 2.048377e-002
2.019105e+003, 2.014385e-002
2.021033e+003, 1.964669e-002
2.022962e+003, 1.985525e-002
2.024890e+003, 1.983111e-002
2.026818e+003, 1.992410e-002
2.028747e+003, 2.002919e-002
2.030675e+003, 2.033750e-002
2.032604e+003, 2.107292e-002
2.034532e+003, 2.181643e-002
2.036461e+003, 2.151215e-002
2.038389e+003, 2.195217e-002
2.040318e+003, 2.189568e-002
2.042246e+003, 2.141620e-002
2.044175e+003, 2.082376e-002
2.046103e+003, 2.104665e-002
2.048031e+003, 2.183398e-002
2.049960e+003, 2.241608e-002
2.051888e+003, 2.137853e-002
2.053817e+003, 2.111910e-002
2.055745e+003, 2.195504e-002
2.057674e+003, 2.203498e-002
2.059602e+003, 2.138744e-002
2.061531e+003, 2.129343e-002
2.063459e+003, 2.115604e-002
2.065388e+003, 2.117570e-002
2.067316e+003, 2.091681e-002
2.069245e+003, 2.091779e-002
2.071173e+003, 2.124002e-002
2.073102e+003, 2.123985e-002
2.075030e+003, 2.168204e-002
2.076958e+003, 2.178422e-002
2.078887e+003, 2.127594e-002
2.080815e+003, 2.137525e-002
2.082744e+003, 2.162748e-002
2.084672e+003, 2.174716e-002
2.086601e+003, 2.167127e-002
2.088529e+003, 2.122849e-002
2.090458e+003, 2.098312e-002
2.092386e+003, 2.142749e-002
2.094315e+003, 2.162214e-002
2.096243e+003, 2.154008e-002
2.098172e+003, 2.153771e-002
2.100100e+003, 2.183167e-002
2.102029e+003, 2.185071e-002
2.103957e+003, 2.199449e-002
2.105885e+003, 2.204412e-002
2.107814e+003, 2.187181e-002
2.109742e+003, 2.182927e-002
2.111671e+003, 2.217510e-002
2.113599e+003, 2.217774e-002
2.115528e+003, 2.212776e-002
2.117456e+003, 2.149663e-002
2.119385e+003, 2.078080e-002
2.121313e+003, 2.042371e-002
2.123242e+003, 2.069335e-002
2.125170e+003, 2.117528e-002
2.127099e+003, 2.142194e-002
2.129027e+003, 2.044142e-002
2.130956e+003, 1.996121e-002
2.132884e+003, 1.998755e-002
2.134813e+003, 2.005559e-002
2.136741e+003, 2.040944e-002
2.138669e+003, 2.105486e-002
2.140598e+003, 2.075500e-002
2.142526e+003, 2.051896e-002
2.144455e+003, 2.061079e-002
2.146383e+003, 2.083118e-002
2.148312e+003, 2.102432e-002
2.150240e+003, 2.051539e-002
2.152169e+003, 1.990798e-002
2.154097e+003, 2.057316e-002
2.156026e+003, 2.018221e-002
2.157954e+003, 2.073624e-002
2.159883e+003, 2.415534e-002
2.161811e+003, 2.585221e-002
2.163740e+003, 2.548789e-002
2.165668e+003, 2.442183e-002
2.167596e+003, 2.399346e-002
2.169525e+003, 2.448161e-002
2.171453e+003, 2.438637e-002
2.173382e+003, 2.414299e-002
2.175310e+003, 2.419080e-002
2.177239e+003, 2.364471e-002
2.179167e+003, 2.395616e-002
2.181096e+003, 2.502943e-002
2.183024e+003, 2.568590e-002
2.184953e+003, 2.537277e-002
2.186881e+003, 2.488402e-002
2.188810e+003, 2.494977e-002
2.190738e+003, 2.450654e-002
2.192667e+003, 2.462962e-002
2.194595e+003, 2.466251e-002
2.196523e+003, 2.525904e-002
2.198452e+003, 2.589072e-002
2.200380e+003, 2.587163e-002
2.202309e+003, 2.554109e-002
2.204237e+003, 2.597518e-002
2.206166e+003, 2.625979e-002
2.208094e+003, 2.562621e-002
2.210023e+003, 2.566443e-002
2.211951e+003, 2.584398e-002
2.213880e+003, 2.600789e-002
2.215808e+003, 2.609761e-002
2.217737e+003, 2.613496e-002
2.219665e+003, 2.689580e-002
2.221594e+003, 2.705211e-002
2.223522e+003, 2.654872e-002
2.225450e+003, 2.609628e-002
2.227379e+003, 2.606456e-002
2.229307e+003, 2.640961e-002
2.231236e+003, 2.644955e-002
2.233164e+003, 2.660145e-002
2.235093e+003, 2.684570e-002
2.237021e+003, 2.673953e-002
2.238950e+003, 2.670128e-002
2.240878e+003, 2.682832e-002
2.242807e+003, 2.711612e-002
2.244735e+003, 2.738315e-002
2.246664e+003, 2.764738e-002
2.248592e+003, 2.779015e-002
2.250521e+003, 2.732855e-002
2.252449e+003, 2.670010e-002
2.254377e+003, 2.683816e-002
2.256306e+003, 2.700114e-002
2.258234e+003, 2.699528e-002
2.260163e+003, 2.760568e-002
2.262091e+003, 2.789630e-002
2.264020e+003, 2.730427e-002
2.265948e+003, 2.695022e-002
2.267877e+003, 2.701508e-002
2.269805e+003, 2.750086e-002
2.271734e+003, 2.794262e-002
2.273662e+003, 2.764409e-002
2.275591e+003, 2.810160e-002
2.277519e+003, 2.840062e-002
2.279448e+003, 2.799901e-002
2.281376e+003, 2.785430e-002
2.283304e+003, 2.791054e-002
2.285233e+003, 2.799256e-002
2.287161e+003, 2.812642e-002
2.289090e+003, 2.812219e-002
2.291018e+003, 2.781358e-002
2.292947e+003, 2.732828e-002
2.294875e+003, 2.701674e-002
2.296804e+003, 2.699828e-002
2.298732e+003, 2.708115e-002
2.300661e+003, 2.724558e-002
2.302589e+003, 2.722976e-002
2.304518e+003, 2.722486e-002
2.306446e+003, 2.712099e-002
2.308375e+003, 2.729769e-002
2.310303e+003, 2.722758e-002
2.312231e+003, 2.733595e-002
2.314160e+003, 2.765290e-002
2.316088e+003, 2.797258e-002
2.318017e+003, 2.820119e-002
2.319945e+003, 2.843042e-002
2.321874e+003, 2.852828e-002
2.323802e+003, 2.846465e-002
2.325731e+003, 2.774282e-002
2.327659e+003, 2.714999e-002
2.329588e+003, 2.721633e-002
2.331516e+003, 2.725028e-002
2.333445e+003, 2.742450e-002
2.335373e+003, 2.742695e-002
2.337302e+003, 2.712825e-002
2.339230e+003, 2.691644e-002
2.341158e+003, 2.694131e-002
2.343087e+003, 2.715058e-002
2.345015e+003, 2.706648e-002
2.346944e+003, 2.704396e-002
2.348872e+003, 2.701934e-002
2.350801e+003, 2.704409e-002
2.352729e+003, 2.697492e-002
2.354658e+003, 2.667288e-002
2.356586e+003, 2.706231e-002
2.358515e+003, 2.756689e-002
2.360443e+003, 2.765490e-002
2.362372e+003, 2.769207e-002
2.364300e+003, 2.752545e-002
2.366229e+003, 2.726064e-002
2.368157e+003, 2.719497e-002
2.370085e+003, 2.723815e-002
2.372014e+003, 2.740923e-002
2.373942e+003, 2.733201e-002
2.375871e+003, 2.715820e-002
2.377799e+003, 2.675985e-002
2.379728e+003, 2.665230e-002
2.381656e+003, 2.695579e-002
2.383585e+003, 2.710552e-002
2.385513e+003, 2.755171e-002
2.387442e+003, 2.804570e-002
2.389370e+003, 2.781920e-002
2.391299e+003, 2.712887e-002
2.393227e+003, 2.707809e-002
2.395156e+003, 2.725931e-002
2.397084e+003, 2.738450e-002
2.399012e+003, 2.770100e-002
2.400941e+003, 2.781754e-002
2.402869e+003, 2.737005e-002
2.404798e+003, 2.736972e-002
2.406726e+003, 2.782983e-002
2.408655e+003, 2.799715e-002
2.410583e+003, 2.788113e-002
2.412512e+003, 2.780542e-002
2.414440e+003, 2.803627e-002
2.416369e+003, 2.834234e-002
2.418297e+003, 2.838602e-002
2.420226e+003, 2.795551e-002
2.422154e+003, 2.769386e-002
2.424083e+003, 2.804976e-002
2.426011e+003, 2.845598e-002
2.427939e+003, 2.850069e-002
2.429868e+003, 2.855402e-002
2.431796e+003, 2.872045e-002
2.433725e+003, 2.832858e-002
2.435653e+003, 2.816547e-002
2.437582e+003, 2.876874e-002
2.439510e+003, 2.934823e-002
2.441439e+003, 2.928505e-002
2.443367e+003, 2.894983e-002
2.445296e+003, 2.878505e-002
2.447224e+003, 2.882078e-002
2.449153e+003, 2.864977e-002
2.451081e+003, 2.855914e-002
2.453010e+003, 2.895815e-002
2.454938e+003, 2.893856e-002
2.456866e+003, 2.850507e-002
2.458795e+003, 2.843008e-002
2.460723e+003, 2.867097e-002
2.462652e+003, 2.865325e-002
2.464580e+003, 2.830856e-002
2.466509e+003, 2.830146e-002
2.468437e+003, 2.874610e-002
2.470366e+003, 2.910570e-002
2.472294e+003, 2.891662e-002
2.474223e+003, 2.909526e-002
2.476151e+003, 2.918390e-002
2.478080e+003, 2.909673e-002
2.480008e+003, 2.908446e-002
2.481937e+003, 2.897362e-002
2.483865e+003, 2.859645e-002
2.485793e+003, 2.883461e-002
2.487722e+003, 2.906216e-002
2.489650e+003, 2.911185e-002
2.491579e+003, 2.898170e-002
2.493507e+003, 2.888800e-002
2.495436e+003, 2.900378e-002
2.497364e+003, 2.907017e-002
2.499293e+003, 2.910846e-002
2.501221e+003, 2.899119e-002
2.503150e+003, 2.869701e-002
2.505078e+003, 2.853900e-002
2.507007e+003, 2.855393e-002
2.508935e+003, 2.927548e-002
2.510864e+003, 2.969419e-002
2.512792e+003, 2.931679e-002
2.514720e+003, 2.922713e-002
2.516649e+003, 2.950003e-002
2.518577e+003, 2.927022e-002
2.520506e+003, 2.938625e-002
2.522434e+003, 2.949093e-002
2.524363e+003, 2.955629e-002
2.526291e+003, 2.966266e-002
2.528220e+003, 2.964196e-002
2.530148e+003, 2.952311e-002
2.532077e+003, 2.933323e-002
2.534005e+003, 2.931293e-002
2.535934e+003, 2.967090e-002
2.537862e+003, 2.968797e-002
2.539791e+003, 2.936526e-002
2.541719e+003, 2.954285e-002
2.543647e+003, 2.977618e-002
2.545576e+003, 2.949878e-002
2.547504e+003, 2.971710e-002
2.549433e+003, 2.996082e-002
2.551361e+003, 3.004423e-002
2.553290e+003, 3.012026e-002
2.555218e+003, 3.006745e-002
2.557147e+003, 2.982556e-002
2.559075e+003, 2.985767e-002
2.561004e+003, 2.992178e-002
2.562932e+003, 3.017362e-002
2.564861e+003, 3.038341e-002
2.566789e+003, 3.043986e-002
2.568718e+003, 3.049539e-002
2.570646e+003, 3.034763e-002
2.572574e+003, 3.011305e-002
2.574503e+003, 3.011611e-002
2.576431e+003, 3.047376e-002
2.578360e+003, 3.063374e-002
2.580288e+003, 3.061820e-002
2.582217e+003, 3.073468e-002
2.584145e+003, 3.053839e-002
2.586074e+003, 3.027193e-002
2.588002e+003, 3.056246e-002
2.589931e+003, 3.112099e-002
2.591859e+003, 3.112116e-002
2.593788e+003, 3.097870e-002
2.595716e+003, 3.082914e-002
2.597645e+003, 3.093470e-002
2.599573e+003, 3.143708e-002
2.601501e+003, 3.140442e-002
2.603430e+003, 3.142384e-002
2.605358e+003, 3.165122e-002
2.607287e+003, 3.145164e-002
2.609215e+003, 3.160152e-002
2.611144e+003, 3.188996e-002
2.613072e+003, 3.184552e-002
2.615001e+003, 3.196299e-002
2.616929e+003, 3.210459e-002
2.618858e+003, 3.207688e-002
2.620786e+003, 3.201041e-002
2.622715e+003, 3.201640e-002
2.624643e+003, 3.201824e-002
2.626572e+003, 3.203322e-002
2.628500e+003, 3.207702e-002
2.630428e+003, 3.221578e-002
2.632357e+003, 3.232835e-002
2.634285e+003, 3.225268e-002
2.636214e+003, 3.216349e-002
2.638142e+003, 3.217483e-002
2.640071e+003, 3.236917e-002
2.641999e+003, 3.235944e-002
2.643928e+003, 3.242184e-002
2.645856e+003, 3.263031e-002
2.647785e+003, 3.268076e-002
2.649713e+003, 3.261700e-002
2.651642e+003, 3.254226e-002
2.653570e+003, 3.242001e-002
2.655499e+003, 3.266841e-002
2.657427e+003, 3.281691e-002
2.659355e+003, 3.277414e-002
2.661284e+003, 3.273381e-002
2.663212e+003, 3.256651e-002
2.665141e+003, 3.230361e-002
2.667069e+003, 3.238219e-002
2.668998e+003, 3.246366e-002
2.670926e+003, 3.254959e-002
2.672855e+003, 3.259636e-002
2.674783e+003, 3.253397e-002
2.676712e+003, 3.255328e-002
2.678640e+003, 3.277867e-002
2.680569e+003, 3.293186e-002
2.682497e+003, 3.330874e-002
2.684426e+003, 3.331717e-002
2.686354e+003, 3.291270e-002
2.688282e+003, 3.288570e-002
2.690211e+003, 3.308768e-002
2.692139e+003, 3.308060e-002
2.694068e+003, 3.310333e-002
2.695996e+003, 3.335433e-002
2.697925e+003, 3.349127e-002
2.699853e+003, 3.342625e-002
2.701782e+003, 3.332343e-002
2.703710e+003, 3.350284e-002
2.705639e+003, 3.367437e-002
2.707567e+003, 3.352303e-002
2.709496e+003, 3.339380e-002
2.711424e+003, 3.356670e-002
2.713353e+003, 3.383874e-002
2.715281e+003, 3.407821e-002
2.717209e+003, 3.396115e-002
2.719138e+003, 3.388079e-002
2.721066e+003, 3.406586e-002
2.722995e+003, 3.403255e-002
2.724923e+003, 3.389188e-002
2.726852e+003, 3.408903e-002
2.728780e+003, 3.440541e-002
2.730709e+003, 3.432127e-002
2.732637e+003, 3.426231e-002
2.734566e+003, 3.410433e-002
2.736494e+003, 3.425365e-002
2.738423e+003, 3.448778e-002
2.740351e+003, 3.435305e-002
2.742280e+003, 3.436960e-002
2.744208e+003, 3.462687e-002
2.746136e+003, 3.482436e-002
2.748065e+003, 3.487230e-002
2.749993e+003, 3.464850e-002
2.751922e+003, 3.475986e-002
2.753850e+003, 3.509983e-002
2.755779e+003, 3.524962e-002
2.757707e+003, 3.515474e-002
2.759636e+003, 3.525101e-002
2.761564e+003, 3.528748e-002
2.763493e+003, 3.518562e-002
2.765421e+003, 3.509117e-002
2.767350e+003, 3.532670e-002
2.769278e+003, 3.539256e-002
2.771207e+003, 3.537131e-002
2.773135e+003, 3.537817e-002
2.775063e+003, 3.547062e-002
2.776992e+003, 3.550592e-002
2.778920e+003, 3.564224e-002
2.780849e+003, 3.567034e-002
2.782777e+003, 3.553578e-002
2.784706e+003, 3.560968e-002
2.786634e+003, 3.570304e-002
2.788563e+003, 3.592489e-002
2.790491e+003, 3.606332e-002
2.792420e+003, 3.590787e-002
2.794348e+003, 3.592546e-002
2.796277e+003, 3.605958e-002
2.798205e+003, 3.607733e-002
2.800134e+003, 3.610434e-002
2.802062e+003, 3.642607e-002
2.803990e+003, 3.684239e-002
2.805919e+003, 3.677348e-002
2.807847e+003, 3.645961e-002
2.809776e+003, 3.633997e-002
2.811704e+003, 3.651948e-002
2.813633e+003, 3.666216e-002
2.815561e+003, 3.685914e-002
2.817490e+003, 3.709323e-002
2.819418e+003, 3.697703e-002
2.821347e+003, 3.665258e-002
2.823275e+003, 3.664039e-002
2.825204e+003, 3.714876e-002
2.827132e+003, 3.728028e-002
2.829061e+003, 3.737890e-002
2.830989e+003, 3.758004e-002
2.832917e+003, 3.771418e-002
2.834846e+003, 3.772654e-002
2.836774e+003, 3.755951e-002
2.838703e+003, 3.749598e-002
2.840631e+003, 3.744640e-002
2.842560e+003, 3.729550e-002
2.844488e+003, 3.689585e-002
2.846417e+003, 3.626305e-002
2.848345e+003, 3.577269e-002
2.850274e+003, 3.552228e-002
2.852202e+003, 3.599761e-002
2.854131e+003, 3.655231e-002
2.856059e+003, 3.697954e-002
2.857988e+003, 3.752866e-002
2.859916e+003, 3.797212e-002
2.861844e+003, 3.826304e-002
2.863773e+003, 3.853392e-002
2.865701e+003, 3.857696e-002
2.867630e+003, 3.857182e-002
2.869558e+003, 3.864351e-002
2.871487e+003, 3.860711e-002
2.873415e+003, 3.870036e-002
2.875344e+003, 3.885384e-002
2.877272e+003, 3.910952e-002
2.879201e+003, 3.926925e-002
2.881129e+003, 3.947284e-002
2.883058e+003, 3.953519e-002
2.884986e+003, 3.910036e-002
2.886915e+003, 3.882382e-002
2.888843e+003, 3.901015e-002
2.890771e+003, 3.910571e-002
2.892700e+003, 3.932912e-002
2.894628e+003, 3.946020e-002
2.896557e+003, 3.919493e-002
2.898485e+003, 3.915123e-002
2.900414e+003, 3.937859e-002
2.902342e+003, 3.952707e-002
2.904271e+003, 3.955160e-002
2.906199e+003, 3.969784e-002
2.908128e+003, 3.948204e-002
2.910056e+003, 3.908058e-002
2.911985e+003, 3.846891e-002
2.913913e+003, 3.799132e-002
2.915842e+003, 3.756611e-002
2.917770e+003, 3.736100e-002
2.919698e+003, 3.721717e-002
2.921627e+003, 3.785642e-002
2.923555e+003, 3.897955e-002
2.925484e+003, 3.963146e-002
2.927412e+003, 3.996258e-002
2.929341e+003, 4.052471e-002
2.931269e+003, 4.089511e-002
2.933198e+003, 4.080595e-002
2.935126e+003, 4.045684e-002
2.937055e+003, 4.039839e-002
2.938983e+003, 4.060189e-002
2.940912e+003, 4.089217e-002
2.942840e+003, 4.085681e-002
2.944769e+003, 4.084264e-002
2.946697e+003, 4.123873e-002
2.948625e+003, 4.141087e-002
2.950554e+003, 4.172460e-002
2.952482e+003, 4.209681e-002
2.954411e+003, 4.246227e-002
2.956339e+003, 4.270531e-002
2.958268e+003, 4.225229e-002
2.960196e+003, 4.188576e-002
2.962125e+003, 4.233112e-002
2.964053e+003, 4.274528e-002
2.965982e+003, 4.259630e-002
2.967910e+003, 4.239345e-002
2.969839e+003, 4.231601e-002
2.971767e+003, 4.205390e-002
2.973696e+003, 4.160566e-002
2.975624e+003, 4.170468e-002
2.977552e+003, 4.214143e-002
2.979481e+003, 4.201265e-002
2.981409e+003, 4.189685e-002
2.983338e+003, 4.200221e-002
2.985266e+003, 4.237603e-002
2.987195e+003, 4.277892e-002
2.989123e+003, 4.256434e-002
2.991052e+003, 4.239494e-002
2.992980e+003, 4.245533e-002
2.994909e+003, 4.242913e-002
2.996837e+003, 4.265995e-002
2.998766e+003, 4.298338e-002
3.000694e+003, 4.319698e-002
3.002623e+003, 4.302397e-002
3.004551e+003, 4.312833e-002
3.006479e+003, 4.334305e-002
3.008408e+003, 4.344592e-002
3.010336e+003, 4.356818e-002
3.012265e+003, 4.379471e-002
3.014193e+003, 4.385502e-002
3.016122e+003, 4.390009e-002
3.018050e+003, 4.405366e-002
3.019979e+003, 4.409346e-002
3.021907e+003, 4.414652e-002
3.023836e+003, 4.414906e-002
3.025764e+003, 4.415436e-002
3.027693e+003, 4.405858e-002
3.029621e+003, 4.418896e-002
3.031550e+003, 4.434834e-002
3.033478e+003, 4.438286e-002
3.035406e+003, 4.449435e-002
3.037335e+003, 4.445918e-002
3.039263e+003, 4.474840e-002
3.041192e+003, 4.514361e-002
3.043120e+003, 4.543567e-002
3.045049e+003, 4.550859e-002
3.046977e+003, 4.550435e-002
3.048906e+003, 4.558842e-002
3.050834e+003, 4.574852e-002
3.052763e+003, 4.606912e-002
3.054691e+003, 4.627644e-002
3.056620e+003, 4.624017e-002
3.058548e+003, 4.605871e-002
3.060477e+003, 4.625811e-002
3.062405e+003, 4.657680e-002
3.064333e+003, 4.668484e-002
3.066262e+003, 4.656740e-002
3.068190e+003, 4.675636e-002
3.070119e+003, 4.657607e-002
3.072047e+003, 4.640881e-002
3.073976e+003, 4.667014e-002
3.075904e+003, 4.731398e-002
3.077833e+003, 4.789544e-002
3.079761e+003, 4.780748e-002
3.081690e+003, 4.787483e-002
3.083618e+003, 4.807429e-002
3.085547e+003, 4.784195e-002
3.087475e+003, 4.785474e-002
3.089404e+003, 4.815353e-002
3.091332e+003, 4.850868e-002
3.093260e+003, 4.860022e-002
3.095189e+003, 4.849309e-002
3.097117e+003, 4.836125e-002
3.099046e+003, 4.842197e-002
3.100974e+003, 4.849892e-002
3.102903e+003, 4.829789e-002
3.104831e+003, 4.830132e-002
3.106760e+003, 4.870560e-002
3.108688e+003, 4.934984e-002
3.110617e+003, 4.951244e-002
3.112545e+003, 4.946682e-002
3.114474e+003, 4.929611e-002
3.116402e+003, 4.962325e-002
3.118331e+003, 5.010104e-002
3.120259e+003, 5.020612e-002
3.122188e+003, 5.010013e-002
3.124116e+003, 5.034425e-002
3.126044e+003, 5.076800e-002
3.127973e+003, 5.082801e-002
3.129901e+003, 5.081344e-002
3.131830e+003, 5.039376e-002
3.133758e+003, 5.030676e-002
3.135687e+003, 5.060020e-002
3.137615e+003, 5.099732e-002
3.139544e+003, 5.112430e-002
3.141472e+003, 5.125335e-002
3.143401e+003, 5.155168e-002
3.145329e+003, 5.194631e-002
3.147258e+003, 5.195211e-002
3.149186e+003, 5.150201e-002
3.151115e+003, 5.167759e-002
3.153043e+003, 5.194711e-002
3.154971e+003, 5.179233e-002
3.156900e+003, 5.222113e-002
3.158828e+003, 5.294510e-002
3.160757e+003, 5.328980e-002
3.162685e+003, 5.297698e-002
3.164614e+003, 5.291793e-002
3.166542e+003, 5.329429e-002
3.168471e+003, 5.318464e-002
3.170399e+003, 5.302153e-002
3.172328e+003, 5.307701e-002
3.174256e+003, 5.329845e-002
3.176185e+003, 5.358383e-002
3.178113e+003, 5.411298e-002
3.180042e+003, 5.413765e-002
3.181970e+003, 5.411321e-002
3.183898e+003, 5.442573e-002
3.185827e+003, 5.464379e-002
3.187755e+003, 5.473802e-002
3.189684e+003, 5.461058e-002
3.191612e+003, 5.468448e-002
3.193541e+003, 5.457626e-002
3.195469e+003, 5.447308e-002
3.197398e+003, 5.500049e-002
3.199326e+003, 5.566968e-002
3.201255e+003, 5.550857e-002
3.203183e+003, 5.528241e-002
3.205112e+003, 5.550806e-002
3.207040e+003, 5.563673e-002
3.208969e+003, 5.578967e-002
3.210897e+003, 5.615826e-002
3.212825e+003, 5.628804e-002
3.214754e+003, 5.619747e-002
3.216682e+003, 5.620107e-002
3.218611e+003, 5.628147e-002
3.220539e+003, 5.624139e-002
3.222468e+003, 5.633238e-002
3.224396e+003, 5.672200e-002
3.226325e+003, 5.665159e-002
3.228253e+003, 5.712998e-002
3.230182e+003, 5.754392e-002
3.232110e+003, 5.745529e-002
3.234039e+003, 5.745793e-002
3.235967e+003, 5.712808e-002
3.237896e+003, 5.720733e-002
3.239824e+003, 5.756742e-002
3.241752e+003, 5.797407e-002
3.243681e+003, 5.787046e-002
3.245609e+003, 5.801990e-002
3.247538e+003, 5.816365e-002
3.249466e+003, 5.815675e-002
3.251395e+003, 5.785739e-002
3.253323e+003, 5.774243e-002
3.255252e+003, 5.789616e-002
3.257180e+003, 5.795223e-002
3.259109e+003, 5.816292e-002
3.261037e+003, 5.833363e-002
3.262966e+003, 5.873057e-002
3.264894e+003, 5.896030e-002
3.266823e+003, 5.928443e-002
3.268751e+003, 5.975999e-002
3.270679e+003, 6.026208e-002
3.272608e+003, 5.980915e-002
3.274536e+003, 5.925729e-002
3.276465e+003, 5.954717e-002
3.278393e+003, 5.999633e-002
3.280322e+003, 5.973018e-002
3.282250e+003, 5.960161e-002
3.284179e+003, 6.010356e-002
3.286107e+003, 6.022058e-002
3.288036e+003, 6.024167e-002
3.289964e+003, 6.025219e-002
3.291893e+003, 6.007336e-002
3.293821e+003, 6.036270e-002
3.295750e+003, 6.046782e-002
3.297678e+003, 6.040720e-002
3.299606e+003, 6.040040e-002
3.301535e+003, 6.067849e-002
3.303463e+003, 6.129991e-002
3.305392e+003, 6.163068e-002
3.307320e+003, 6.106332e-002
3.309249e+003, 6.083005e-002
3.311177e+003, 6.180268e-002
3.313106e+003, 6.208652e-002
3.315034e+003, 6.200038e-002
3.316963e+003, 6.165851e-002
3.318891e+003, 6.149989e-002
3.320820e+003, 6.200508e-002
3.322748e+003, 6.264652e-002
3.324677e+003, 6.255652e-002
3.326605e+003, 6.205257e-002
3.328533e+003, 6.232660e-002
3.330462e+003, 6.268508e-002
3.332390e+003, 6.284136e-002
3.334319e+003, 6.333316e-002
3.336247e+003, 6.363723e-002
3.338176e+003, 6.381672e-002
3.340104e+003, 6.401164e-002
3.342033e+003, 6.421256e-002
3.343961e+003, 6.445967e-002
3.345890e+003, 6.463392e-002
3.347818e+003, 6.450634e-002
3.349747e+003, 6.430052e-002
3.351675e+003, 6.446646e-002
3.353604e+003, 6.477915e-002
3.355532e+003, 6.535965e-002
3.357460e+003, 6.563489e-002
3.359389e+003, 6.523436e-002
3.361317e+003, 6.505539e-002
3.363246e+003, 6.552978e-002
3.365174e+003, 6.600504e-002
3.367103e+003, 6.630523e-002
3.369031e+003, 6.653147e-002
3.370960e+003, 6.652932e-002
3.372888e+003, 6.640559e-002
3.374817e+003, 6.667954e-002
3.376745e+003, 6.743062e-002
3.378674e+003, 6.761491e-002
3.380602e+003, 6.765569e-002
3.382531e+003, 6.756669e-002
3.384459e+003, 6.720072e-002
3.386387e+003, 6.751277e-002
3.388316e+003, 6.792231e-002
3.390244e+003, 6.846814e-002
3.392173e+003, 6.893547e-002
3.394101e+003, 6.900337e-002
3.396030e+003, 6.872668e-002
3.397958e+003, 6.899192e-002
3.399887e+003, 6.987824e-002
3.401815e+003, 6.964121e-002
3.403744e+003, 6.947342e-002
3.405672e+003, 7.009428e-002
3.407601e+003, 7.023668e-002
3.409529e+003, 7.027818e-002
3.411458e+003, 7.068679e-002
3.413386e+003, 7.080025e-002
3.415314e+003, 7.029110e-002
3.417243e+003, 7.059635e-002
3.419171e+003, 7.113096e-002
3.421100e+003, 7.139164e-002
3.423028e+003, 7.145327e-002
3.424957e+003, 7.167400e-002
3.426885e+003, 7.187613e-002
3.428814e+003, 7.191309e-002
3.430742e+003, 7.195850e-002
3.432671e+003, 7.232206e-002
3.434599e+003, 7.223245e-002
3.436528e+003, 7.228971e-002
3.438456e+003, 7.266019e-002
3.440385e+003, 7.272185e-002
3.442313e+003, 7.280017e-002
3.444241e+003, 7.262813e-002
3.446170e+003, 7.272224e-002
3.448098e+003, 7.296751e-002
3.450027e+003, 7.315015e-002
3.451955e+003, 7.335170e-002
3.453884e+003, 7.300885e-002
3.455812e+003, 7.304560e-002
3.457741e+003, 7.370794e-002
3.459669e+003, 7.387628e-002
3.461598e+003, 7.381007e-002
3.463526e+003, 7.389106e-002
3.465455e+003, 7.375656e-002
3.467383e+003, 7.370334e-002
3.469312e+003, 7.383665e-002
3.471240e+003, 7.343841e-002
3.473168e+003, 7.328961e-002
3.475097e+003, 7.353020e-002
3.477025e+003, 7.401688e-002
3.478954e+003, 7.363194e-002
3.480882e+003, 7.373509e-002
3.482811e+003, 7.456101e-002
3.484739e+003, 7.449358e-002
3.486668e+003, 7.378329e-002
3.488596e+003, 7.371022e-002
3.490525e+003, 7.434855e-002
3.492453e+003, 7.447260e-002
3.494382e+003, 7.421784e-002
3.496310e+003, 7.417665e-002
3.498239e+003, 7.480515e-002
3.500167e+003, 7.490093e-002
3.502095e+003, 7.475858e-002
3.504024e+003, 7.468423e-002
3.505952e+003, 7.488610e-002
3.507881e+003, 7.480274e-002
3.509809e+003, 7.454228e-002
3.511738e+003, 7.425063e-002
3.513666e+003, 7.446861e-002
3.515595e+003, 7.495642e-002
3.517523e+003, 7.460865e-002
3.519452e+003, 7.457826e-002
3.521380e+003, 7.481744e-002
3.523309e+003, 7.474400e-002
3.525237e+003, 7.516392e-002
3.527166e+003, 7.518573e-002
3.529094e+003, 7.492728e-002
3.531022e+003, 7.537194e-002
3.532951e+003, 7.621311e-002
3.534879e+003, 7.609147e-002
3.536808e+003, 7.621717e-002
3.538736e+003, 7.696240e-002
3.540665e+003, 7.692833e-002
3.542593e+003, 7.721022e-002
3.544522e+003, 7.759778e-002
3.546450e+003, 7.749364e-002
3.548379e+003, 7.768437e-002
3.550307e+003, 7.831010e-002
3.552236e+003, 7.858629e-002
3.554164e+003, 7.887504e-002
3.556093e+003, 7.944439e-002
3.558021e+003, 7.972649e-002
3.559949e+003, 7.961766e-002
3.561878e+003, 7.980627e-002
3.563806e+003, 8.011839e-002
3.565735e+003, 7.913046e-002
3.567663e+003, 7.921751e-002
3.569592e+003, 8.065182e-002
3.571520e+003, 8.129682e-002
3.573449e+003, 8.169957e-002
3.575377e+003, 8.187262e-002
3.577306e+003, 8.187251e-002
3.579234e+003, 8.162449e-002
3.581163e+003, 8.157039e-002
3.583091e+003, 8.200567e-002
3.585020e+003, 8.183793e-002
3.586948e+003, 8.092145e-002
3.588876e+003, 8.205249e-002
3.590805e+003, 8.313224e-002
3.592733e+003, 8.259851e-002
3.594662e+003, 8.238465e-002
3.596590e+003, 8.230381e-002
3.598519e+003, 8.293987e-002
3.600447e+003, 8.381338e-002
3.602376e+003, 8.417901e-002
3.604304e+003, 8.400968e-002
3.606233e+003, 8.343178e-002
3.608161e+003, 8.230402e-002
3.610090e+003, 8.222682e-002
3.612018e+003, 8.371536e-002
3.613947e+003, 8.433796e-002
3.615875e+003, 8.392448e-002
3.617803e+003, 8.292695e-002
3.619732e+003, 8.304964e-002
3.621660e+003, 8.452442e-002
3.623589e+003, 8.502936e-002
3.625517e+003, 8.448850e-002
3.627446e+003, 8.246641e-002
3.629374e+003, 8.239287e-002
3.631303e+003, 8.508563e-002
3.633231e+003, 8.512265e-002
3.635160e+003, 8.466624e-002
3.637088e+003, 8.522223e-002
3.639017e+003, 8.567630e-002
3.640945e+003, 8.535887e-002
3.642874e+003, 8.533793e-002
3.644802e+003, 8.475864e-002
3.646730e+003, 8.266281e-002
3.648659e+003, 8.051684e-002
3.650587e+003, 8.072660e-002
3.652516e+003, 8.294979e-002
3.654444e+003, 8.240014e-002
3.656373e+003, 8.145686e-002
3.658301e+003, 8.312270e-002
3.660230e+003, 8.435487e-002
3.662158e+003, 8.476615e-002
3.664087e+003, 8.450539e-002
3.666015e+003, 8.298209e-002
3.667944e+003, 8.104395e-002
3.669872e+003, 7.925814e-002
3.671801e+003, 8.002796e-002
3.673729e+003, 7.922739e-002
3.675657e+003, 7.630876e-002
3.677586e+003, 7.637881e-002
3.679514e+003, 7.470797e-002
3.681443e+003, 7.216381e-002
3.683371e+003, 6.919108e-002
3.685300e+003, 6.528663e-002
3.687228e+003, 5.912933e-002
3.689157e+003, 5.488279e-002
3.691085e+003, 5.335892e-002
3.693014e+003, 5.225191e-002
3.694942e+003, 5.085044e-002
3.696871e+003, 4.924349e-002
3.698799e+003, 4.807210e-002
3.700728e+003, 4.557111e-002
3.702656e+003, 4.358693e-002
3.704584e+003, 4.259114e-002
3.706513e+003, 4.195954e-002
3.708441e+003, 4.102892e-002
3.710370e+003, 3.862872e-002
3.712298e+003, 3.688063e-002
3.714227e+003, 3.869880e-002
3.716155e+003, 3.974957e-002
3.718084e+003, 3.995807e-002
3.720012e+003, 3.978129e-002
3.721941e+003, 3.913338e-002
3.723869e+003, 3.919636e-002
3.725798e+003, 3.837905e-002
3.727726e+003, 3.820512e-002
3.729655e+003, 3.806404e-002
3.731583e+003, 3.585980e-002
3.733511e+003, 3.471137e-002
3.735440e+003, 3.416529e-002
3.737368e+003, 3.601474e-002
3.739297e+003, 3.750979e-002
3.741225e+003, 3.671419e-002
3.743154e+003, 3.215126e-002
3.745082e+003, 3.155538e-002
3.747011e+003, 3.489674e-002
3.748939e+003, 3.281474e-002
3.750868e+003, 3.175006e-002
3.752796e+003, 3.417025e-002
3.754725e+003, 3.808956e-002
3.756653e+003, 3.855515e-002
3.758582e+003, 3.844543e-002
3.760510e+003, 3.883403e-002
3.762438e+003, 3.964683e-002
3.764367e+003, 3.876766e-002
3.766295e+003, 3.825605e-002
3.768224e+003, 3.764722e-002
3.770152e+003, 3.774832e-002
3.772081e+003, 3.889279e-002
3.774009e+003, 3.957742e-002
3.775938e+003, 3.912763e-002
3.777866e+003, 3.840581e-002
3.779795e+003, 3.823904e-002
3.781723e+003, 3.963843e-002
3.783652e+003, 4.006623e-002
3.785580e+003, 3.970901e-002
3.787509e+003, 4.003334e-002
3.789437e+003, 4.076073e-002
3.791365e+003, 4.055875e-002
3.793294e+003, 4.033918e-002
3.795222e+003, 3.917651e-002
3.797151e+003, 3.919362e-002
3.799079e+003, 3.833853e-002
3.801008e+003, 3.557041e-002
3.802936e+003, 3.746817e-002
3.804865e+003, 3.866789e-002
3.806793e+003, 3.737206e-002
3.808722e+003, 3.941590e-002
3.810650e+003, 4.079494e-002
3.812579e+003, 4.058621e-002
3.814507e+003, 3.747910e-002
3.816436e+003, 3.618187e-002
3.818364e+003, 3.874204e-002
3.820292e+003, 3.743237e-002
3.822221e+003, 3.741854e-002
3.824149e+003, 3.948091e-002
3.826078e+003, 3.955176e-002
3.828006e+003, 4.012218e-002
3.829935e+003, 3.973610e-002
3.831863e+003, 3.926834e-002
3.833792e+003, 3.908227e-002
3.835720e+003, 3.712728e-002
3.837649e+003, 3.568466e-002
3.839577e+003, 3.816668e-002
3.841506e+003, 3.977925e-002
3.843434e+003, 4.021249e-002
3.845363e+003, 4.071413e-002
3.847291e+003, 4.053254e-002
3.849219e+003, 3.919670e-002
3.851148e+003, 3.553638e-002
3.853076e+003, 3.179315e-002
3.855005e+003, 3.438921e-002
3.856933e+003, 3.896633e-002
3.858862e+003, 4.038072e-002
3.860790e+003, 4.030057e-002
3.862719e+003, 3.976040e-002
3.864647e+003, 3.895049e-002
3.866576e+003, 3.951161e-002
3.868504e+003, 3.853063e-002
3.870433e+003, 3.833012e-002
3.872361e+003, 3.995962e-002
3.874290e+003, 4.024803e-002
3.876218e+003, 4.097164e-002
3.878146e+003, 4.052367e-002
3.880075e+003, 3.984039e-002
3.882003e+003, 4.076950e-002
3.883932e+003, 4.049847e-002
3.885860e+003, 3.970591e-002
3.887789e+003, 4.059067e-002
3.889717e+003, 3.962840e-002
3.891646e+003, 3.960770e-002
3.893574e+003, 4.134265e-002
3.895503e+003, 4.158276e-002
3.897431e+003, 4.058487e-002
3.899360e+003, 3.975971e-002
3.901288e+003, 3.947906e-002
3.903217e+003, 3.963539e-002
3.905145e+003, 4.052919e-002
3.907073e+003, 4.194201e-002
3.909002e+003, 4.213683e-002
3.910930e+003, 4.144102e-002
3.912859e+003, 4.186290e-002
3.914787e+003, 4.138458e-002
3.916716e+003, 4.019818e-002
3.918644e+003, 4.019663e-002
3.920573e+003, 4.117748e-002
3.922501e+003, 4.199875e-002
3.924430e+003, 4.170002e-002
3.926358e+003, 4.129960e-002
3.928287e+003, 4.130528e-002
3.930215e+003, 4.098865e-002
3.932144e+003, 4.085269e-002
3.934072e+003, 4.187693e-002
3.936000e+003, 4.191195e-002
3.937929e+003, 4.130299e-002
3.939857e+003, 4.212106e-002
3.941786e+003, 4.290146e-002
3.943714e+003, 4.256829e-002
3.945643e+003, 4.181936e-002
3.947571e+003, 4.116542e-002
3.949500e+003, 4.151658e-002
3.951428e+003, 4.188733e-002
3.953357e+003, 4.217080e-002
3.955285e+003, 4.270407e-002
3.957214e+003, 4.216653e-002
3.959142e+003, 4.196937e-002
3.961071e+003, 4.199634e-002
3.962999e+003, 4.229352e-002
3.964927e+003, 4.298281e-002
3.966856e+003, 4.268874e-002
3.968784e+003, 4.238850e-002
3.970713e+003, 4.257786e-002
3.972641e+003, 4.250821e-002
3.974570e+003, 4.199880e-002
3.976498e+003, 4.267860e-002
3.978427e+003, 4.309519e-002
3.980355e+003, 4.253643e-002
3.982284e+003, 4.215537e-002
3.984212e+003, 4.327705e-002
3.986141e+003, 4.370656e-002
3.988069e+003, 4.372887e-002
3.989998e+003, 4.379456e-002
3.991926e+003, 4.323584e-002
3.993854e+003, 4.325679e-002
3.995783e+003, 4.347650e-002
3.997711e+003, 4.317364e-002
3.999640e+003, 4.303859e-002
4.001568e+003, 0.000000e+000
##END=



