##NAMES=Diopside
##RRUFFID=R050496
##IDEAL CHEMISTRY=CaMgSi_2_O_6_
##LOCALITY=New City Quarry, Riverside, Riverside County, Calfornia, USA
##OWNER=RRUFF
##SOURCE=California Institute of Technology
##DESCRIPTION=Aggregate of light green irregular grains
##STATUS=The identification of this mineral has been confirmed by X-ray diffraction and chemical analysis
##URL=rruff.info/R050496
##MEASURED CHEMISTRY=Ca(Mg_0.66_Fe_0.33_Mn_0.01_)(Si_0.95_Al_0.05_)_2_O_6_
3.953357e+002, 9.307596e-002
3.972641e+002, 9.186525e-002
3.991926e+002, 9.362890e-002
4.011211e+002, 9.208250e-002
4.030495e+002, 8.812825e-002
4.049780e+002, 8.436687e-002
4.069065e+002, 8.317425e-002
4.088349e+002, 8.172370e-002
4.107634e+002, 8.057524e-002
4.126919e+002, 7.723228e-002
4.146203e+002, 7.103868e-002
4.165488e+002, 6.678917e-002
4.184773e+002, 6.619272e-002
4.204057e+002, 6.668168e-002
4.223342e+002, 6.620125e-002
4.242627e+002, 6.596670e-002
4.261911e+002, 6.762274e-002
4.281196e+002, 6.978826e-002
4.300481e+002, 7.083597e-002
4.319765e+002, 7.283182e-002
4.339050e+002, 7.552767e-002
4.358335e+002, 7.868266e-002
4.377619e+002, 8.143667e-002
4.396904e+002, 8.379025e-002
4.416189e+002, 8.671000e-002
4.435473e+002, 9.094808e-002
4.454758e+002, 9.431100e-002
4.474043e+002, 9.731393e-002
4.493327e+002, 9.991052e-002
4.512612e+002, 1.018649e-001
4.531897e+002, 1.038985e-001
4.551181e+002, 1.064314e-001
4.570466e+002, 1.084549e-001
4.589751e+002, 1.096644e-001
4.609035e+002, 1.106996e-001
4.628320e+002, 1.120812e-001
4.647605e+002, 1.124744e-001
4.666889e+002, 1.135302e-001
4.686174e+002, 1.147398e-001
4.705459e+002, 1.145522e-001
4.724743e+002, 1.138212e-001
4.744028e+002, 1.129545e-001
4.763313e+002, 1.120522e-001
4.782597e+002, 1.102273e-001
4.801882e+002, 1.073536e-001
4.821167e+002, 1.048552e-001
4.840451e+002, 1.023953e-001
4.859736e+002, 9.941044e-002
4.879021e+002, 9.708648e-002
4.898305e+002, 9.564672e-002
4.917590e+002, 9.500588e-002
4.936875e+002, 9.520290e-002
4.956159e+002, 9.613881e-002
4.975444e+002, 9.743563e-002
4.994729e+002, 9.842881e-002
5.014013e+002, 9.952603e-002
5.033298e+002, 1.004353e-001
5.052583e+002, 1.008998e-001
5.071867e+002, 1.005959e-001
5.091152e+002, 9.961312e-002
5.110437e+002, 9.852093e-002
5.129721e+002, 9.725282e-002
5.149006e+002, 9.542819e-002
5.168290e+002, 9.300613e-002
5.187575e+002, 8.995909e-002
5.206860e+002, 8.686568e-002
5.226144e+002, 8.385337e-002
5.245429e+002, 8.112500e-002
5.264714e+002, 7.847982e-002
5.283998e+002, 7.592816e-002
5.303283e+002, 7.369410e-002
5.322568e+002, 7.141413e-002
5.341852e+002, 6.869499e-002
5.361137e+002, 6.586588e-002
5.380422e+002, 6.331170e-002
5.399706e+002, 6.101540e-002
5.418991e+002, 5.864376e-002
5.438276e+002, 5.597845e-002
5.457560e+002, 5.299155e-002
5.476845e+002, 5.059348e-002
5.496130e+002, 4.823011e-002
5.515414e+002, 4.576482e-002
5.534699e+002, 4.329396e-002
5.553984e+002, 4.037226e-002
5.573268e+002, 3.750220e-002
5.592553e+002, 3.497794e-002
5.611838e+002, 3.300073e-002
5.631122e+002, 3.079344e-002
5.650407e+002, 2.845958e-002
5.669692e+002, 2.634700e-002
5.688976e+002, 2.445945e-002
5.708261e+002, 2.278743e-002
5.727546e+002, 2.101865e-002
5.746830e+002, 1.937057e-002
5.766115e+002, 1.788988e-002
5.785400e+002, 1.677082e-002
5.804684e+002, 1.583271e-002
5.823969e+002, 1.491140e-002
5.843254e+002, 1.419714e-002
5.862538e+002, 1.367156e-002
5.881823e+002, 1.332563e-002
5.901108e+002, 1.311640e-002
5.920392e+002, 1.310417e-002
5.939677e+002, 1.337865e-002
5.958962e+002, 1.382434e-002
5.978246e+002, 1.434558e-002
5.997531e+002, 1.494018e-002
6.016816e+002, 1.565914e-002
6.036100e+002, 1.637293e-002
6.055385e+002, 1.701922e-002
6.074670e+002, 1.770646e-002
6.093954e+002, 1.795419e-002
6.113239e+002, 1.835730e-002
6.132524e+002, 1.901023e-002
6.151808e+002, 2.000799e-002
6.171093e+002, 2.125208e-002
6.190378e+002, 2.300938e-002
6.209662e+002, 2.500608e-002
6.228947e+002, 2.719502e-002
6.248232e+002, 2.976708e-002
6.267516e+002, 3.220045e-002
6.286801e+002, 3.382060e-002
6.306086e+002, 3.445319e-002
6.325370e+002, 3.388417e-002
6.344655e+002, 3.220986e-002
6.363940e+002, 2.992907e-002
6.383224e+002, 2.716197e-002
6.402509e+002, 2.392125e-002
6.421794e+002, 2.101261e-002
6.441078e+002, 1.899365e-002
6.460363e+002, 1.763619e-002
6.479648e+002, 1.665980e-002
6.498932e+002, 1.609518e-002
6.518217e+002, 1.608391e-002
6.537502e+002, 1.618878e-002
6.556786e+002, 1.649659e-002
6.576071e+002, 1.683666e-002
6.595356e+002, 1.752851e-002
6.614641e+002, 1.884013e-002
6.633925e+002, 2.023406e-002
6.653210e+002, 2.168284e-002
6.672495e+002, 2.299743e-002
6.691779e+002, 2.359649e-002
6.711064e+002, 2.334956e-002
6.730349e+002, 2.236931e-002
6.749633e+002, 2.042310e-002
6.768918e+002, 1.798435e-002
6.788203e+002, 1.588365e-002
6.807487e+002, 1.421458e-002
6.826772e+002, 1.304605e-002
6.846057e+002, 1.231381e-002
6.865341e+002, 1.176193e-002
6.884626e+002, 1.131138e-002
6.903911e+002, 1.109168e-002
6.923195e+002, 1.107068e-002
6.942480e+002, 1.089578e-002
6.961765e+002, 1.084695e-002
6.981049e+002, 1.082490e-002
7.000334e+002, 1.073308e-002
7.019619e+002, 1.041330e-002
7.038903e+002, 1.036049e-002
7.058188e+002, 1.047891e-002
7.077473e+002, 1.055146e-002
7.096757e+002, 1.066887e-002
7.116042e+002, 1.077657e-002
7.135327e+002, 1.082887e-002
7.154611e+002, 1.107883e-002
7.173896e+002, 1.120172e-002
7.193181e+002, 1.130288e-002
7.212465e+002, 1.152942e-002
7.231750e+002, 1.179408e-002
7.251035e+002, 1.223043e-002
7.270319e+002, 1.245209e-002
7.289604e+002, 1.265192e-002
7.308889e+002, 1.294731e-002
7.328173e+002, 1.333679e-002
7.347458e+002, 1.391898e-002
7.366743e+002, 1.443610e-002
7.386027e+002, 1.510429e-002
7.405312e+002, 1.567024e-002
7.424597e+002, 1.614337e-002
7.443881e+002, 1.667100e-002
7.463166e+002, 1.716195e-002
7.482451e+002, 1.771082e-002
7.501735e+002, 1.856543e-002
7.521020e+002, 1.921772e-002
7.540305e+002, 1.976015e-002
7.559589e+002, 2.044103e-002
7.578874e+002, 2.095556e-002
7.598159e+002, 2.159766e-002
7.617443e+002, 2.214598e-002
7.636728e+002, 2.258941e-002
7.656013e+002, 2.331119e-002
7.675297e+002, 2.431546e-002
7.694582e+002, 2.522603e-002
7.713867e+002, 2.598168e-002
7.733151e+002, 2.668301e-002
7.752436e+002, 2.754395e-002
7.771721e+002, 2.841066e-002
7.791005e+002, 2.908724e-002
7.810290e+002, 2.957716e-002
7.829575e+002, 3.021283e-002
7.848859e+002, 3.097245e-002
7.868144e+002, 3.148599e-002
7.887429e+002, 3.206140e-002
7.906713e+002, 3.298332e-002
7.925998e+002, 3.382463e-002
7.945283e+002, 3.458545e-002
7.964567e+002, 3.556764e-002
7.983852e+002, 3.649600e-002
8.003137e+002, 3.758129e-002
8.022421e+002, 3.905819e-002
8.041706e+002, 4.067712e-002
8.060991e+002, 4.240998e-002
8.080275e+002, 4.430907e-002
8.099560e+002, 4.632559e-002
8.118845e+002, 4.853189e-002
8.138129e+002, 5.074499e-002
8.157414e+002, 5.313186e-002
8.176699e+002, 5.545967e-002
8.195983e+002, 5.768465e-002
8.215268e+002, 6.007464e-002
8.234553e+002, 6.236357e-002
8.253837e+002, 6.441553e-002
8.273122e+002, 6.672651e-002
8.292407e+002, 6.930675e-002
8.311691e+002, 7.182685e-002
8.330976e+002, 7.443612e-002
8.350261e+002, 7.768059e-002
8.369545e+002, 8.079658e-002
8.388830e+002, 8.371737e-002
8.408115e+002, 8.650216e-002
8.427399e+002, 8.955747e-002
8.446684e+002, 9.285535e-002
8.465969e+002, 9.630594e-002
8.485253e+002, 9.943395e-002
8.504538e+002, 1.020578e-001
8.523823e+002, 1.044004e-001
8.543107e+002, 1.062019e-001
8.562392e+002, 1.074566e-001
8.581677e+002, 1.087135e-001
8.600961e+002, 1.096194e-001
8.620246e+002, 1.100007e-001
8.639531e+002, 1.100630e-001
8.658815e+002, 1.099933e-001
8.678100e+002, 1.098981e-001
8.697385e+002, 1.095766e-001
8.716669e+002, 1.087960e-001
8.735954e+002, 1.078551e-001
8.755239e+002, 1.067356e-001
8.774523e+002, 1.051852e-001
8.793808e+002, 1.034191e-001
8.813093e+002, 1.016596e-001
8.832377e+002, 9.998829e-002
8.851662e+002, 9.835494e-002
8.870947e+002, 9.673113e-002
8.890231e+002, 9.516191e-002
8.909516e+002, 9.365636e-002
8.928801e+002, 9.232637e-002
8.948085e+002, 9.109969e-002
8.967370e+002, 8.997586e-002
8.986655e+002, 8.918763e-002
9.005939e+002, 8.854266e-002
9.025224e+002, 8.783253e-002
9.044509e+002, 8.720810e-002
9.063793e+002, 8.700137e-002
9.083078e+002, 8.692418e-002
9.102363e+002, 8.662935e-002
9.121647e+002, 8.611946e-002
9.140932e+002, 8.548775e-002
9.160217e+002, 8.468034e-002
9.179501e+002, 8.331032e-002
9.198786e+002, 8.121742e-002
9.218071e+002, 7.866943e-002
9.237355e+002, 7.568598e-002
9.256640e+002, 7.210964e-002
9.275925e+002, 6.840580e-002
9.295209e+002, 6.492750e-002
9.314494e+002, 6.191950e-002
9.333779e+002, 5.988242e-002
9.353063e+002, 5.893854e-002
9.372348e+002, 5.901669e-002
9.391633e+002, 5.996983e-002
9.410917e+002, 6.146727e-002
9.430202e+002, 6.332617e-002
9.449487e+002, 6.575828e-002
9.468771e+002, 6.884173e-002
9.488056e+002, 7.243287e-002
9.507341e+002, 7.624971e-002
9.526625e+002, 7.985527e-002
9.545910e+002, 8.312633e-002
9.565195e+002, 8.608596e-002
9.584479e+002, 8.863764e-002
9.603764e+002, 9.044721e-002
9.623049e+002, 9.125927e-002
9.642333e+002, 9.108454e-002
9.661618e+002, 8.993941e-002
9.680903e+002, 8.786384e-002
9.700187e+002, 8.522367e-002
9.719472e+002, 8.214150e-002
9.738757e+002, 7.875585e-002
9.758041e+002, 7.502886e-002
9.777326e+002, 7.150777e-002
9.796611e+002, 6.808746e-002
9.815895e+002, 6.457973e-002
9.835180e+002, 6.127944e-002
9.854465e+002, 5.816056e-002
9.873749e+002, 5.515613e-002
9.893034e+002, 5.239105e-002
9.912319e+002, 4.963416e-002
9.931603e+002, 4.712427e-002
9.950888e+002, 4.477829e-002
9.970173e+002, 4.258069e-002
9.989457e+002, 4.060899e-002
1.000874e+003, 3.892917e-002
1.002803e+003, 3.766048e-002
1.004731e+003, 3.680754e-002
1.006660e+003, 3.623511e-002
1.008588e+003, 3.612838e-002
1.010517e+003, 3.628616e-002
1.012445e+003, 3.675919e-002
1.014373e+003, 3.756551e-002
1.016302e+003, 3.854331e-002
1.018230e+003, 3.967169e-002
1.020159e+003, 4.102331e-002
1.022087e+003, 4.245460e-002
1.024016e+003, 4.375165e-002
1.025944e+003, 4.499014e-002
1.027873e+003, 4.629840e-002
1.029801e+003, 4.787641e-002
1.031730e+003, 4.975234e-002
1.033658e+003, 5.162267e-002
1.035587e+003, 5.373219e-002
1.037515e+003, 5.614950e-002
1.039443e+003, 5.882248e-002
1.041372e+003, 6.153546e-002
1.043300e+003, 6.435183e-002
1.045229e+003, 6.753042e-002
1.047157e+003, 7.092295e-002
1.049086e+003, 7.438041e-002
1.051014e+003, 7.779896e-002
1.052943e+003, 8.117354e-002
1.054871e+003, 8.443867e-002
1.056800e+003, 8.731864e-002
1.058728e+003, 8.995099e-002
1.060657e+003, 9.216530e-002
1.062585e+003, 9.404627e-002
1.064514e+003, 9.537280e-002
1.066442e+003, 9.576412e-002
1.068370e+003, 9.514502e-002
1.070299e+003, 9.360473e-002
1.072227e+003, 9.123629e-002
1.074156e+003, 8.845607e-002
1.076084e+003, 8.538108e-002
1.078013e+003, 8.208575e-002
1.079941e+003, 7.861196e-002
1.081870e+003, 7.492447e-002
1.083798e+003, 7.113285e-002
1.085727e+003, 6.737190e-002
1.087655e+003, 6.389138e-002
1.089584e+003, 6.066459e-002
1.091512e+003, 5.718003e-002
1.093441e+003, 5.364903e-002
1.095369e+003, 5.029356e-002
1.097297e+003, 4.714617e-002
1.099226e+003, 4.406849e-002
1.101154e+003, 4.092591e-002
1.103083e+003, 3.783087e-002
1.105011e+003, 3.492999e-002
1.106940e+003, 3.210495e-002
1.108868e+003, 2.940066e-002
1.110797e+003, 2.671633e-002
1.112725e+003, 2.424239e-002
1.114654e+003, 2.201968e-002
1.116582e+003, 2.003216e-002
1.118511e+003, 1.816467e-002
1.120439e+003, 1.643105e-002
1.122368e+003, 1.462918e-002
1.124296e+003, 1.296423e-002
1.126224e+003, 1.145724e-002
1.128153e+003, 1.000625e-002
1.130081e+003, 8.803797e-003
1.132010e+003, 7.712744e-003
1.133938e+003, 6.544869e-003
1.135867e+003, 5.756521e-003
1.137795e+003, 5.196080e-003
1.139724e+003, 4.648197e-003
1.141652e+003, 4.149674e-003
1.143581e+003, 3.643579e-003
1.145509e+003, 3.270330e-003
1.147438e+003, 2.978611e-003
1.149366e+003, 2.636530e-003
1.151295e+003, 2.394897e-003
1.153223e+003, 2.236145e-003
1.155151e+003, 2.079900e-003
1.157080e+003, 1.896422e-003
1.159008e+003, 1.775244e-003
1.160937e+003, 1.754569e-003
1.162865e+003, 1.601224e-003
1.164794e+003, 1.269800e-003
1.166722e+003, 1.013093e-003
1.168651e+003, 1.008283e-003
1.170579e+003, 9.593053e-004
1.172508e+003, 9.029314e-004
1.174436e+003, 8.311344e-004
1.176365e+003, 6.862723e-004
1.178293e+003, 5.758385e-004
1.180222e+003, 5.533686e-004
1.182150e+003, 5.275303e-004
1.184078e+003, 3.657877e-004
1.186007e+003, 2.802282e-004
1.187935e+003, 2.997035e-004
1.189864e+003, 2.448455e-004
1.191792e+003, 1.484672e-004
1.193721e+003, 1.277751e-004
1.195649e+003, 5.289936e-005
1.197578e+003, -4.482692e-005
1.199506e+003, -1.122113e-004
1.201435e+003, -2.425917e-004
1.203363e+003, -4.014890e-004
1.205292e+003, -4.123456e-004
1.207220e+003, -2.639074e-004
1.209149e+003, -2.085897e-004
1.211077e+003, -3.577853e-004
1.213005e+003, -4.329676e-004
1.214934e+003, -3.825295e-004
1.216862e+003, -4.620150e-004
1.218791e+003, -4.805348e-004
1.220719e+003, -4.943823e-004
1.222648e+003, -5.399621e-004
1.224576e+003, -5.210687e-004
1.226505e+003, -4.805537e-004
1.228433e+003, -4.462085e-004
1.230362e+003, -5.162662e-004
1.232290e+003, -6.353842e-004
1.234219e+003, -6.117051e-004
1.236147e+003, -4.651578e-004
1.238076e+003, -4.045540e-004
1.240004e+003, -3.135776e-004
1.241932e+003, -3.438747e-004
1.243861e+003, -4.195579e-004
1.245789e+003, -3.886091e-004
1.247718e+003, -3.261162e-004
1.249646e+003, -3.209864e-004
1.251575e+003, -2.668874e-004
1.253503e+003, -2.820650e-004
1.255432e+003, -4.162970e-004
1.257360e+003, -5.286412e-004
1.259289e+003, -5.005986e-004
1.261217e+003, -4.548839e-004
1.263146e+003, -3.429060e-004
1.265074e+003, -1.698854e-004
1.267003e+003, -1.365567e-004
1.268931e+003, -1.467958e-004
1.270859e+003, -1.510497e-004
1.272788e+003, -8.178144e-005
1.274716e+003, -1.740366e-005
1.276645e+003, -4.376456e-005
1.278573e+003, -4.013362e-005
1.280502e+003, 1.236801e-004
1.282430e+003, 3.371867e-004
1.284359e+003, 2.697580e-004
1.286287e+003, 1.106078e-004
1.288216e+003, 2.256784e-004
1.290144e+003, 2.764972e-004
1.292073e+003, 1.982076e-004
1.294001e+003, 3.114596e-004
1.295930e+003, 3.031320e-004
1.297858e+003, 2.207439e-004
1.299786e+003, 2.434522e-004
1.301715e+003, 3.375585e-004
1.303643e+003, 4.313102e-004
1.305572e+003, 4.454717e-004
1.307500e+003, 4.300236e-004
1.309429e+003, 5.424867e-004
1.311357e+003, 6.801009e-004
1.313286e+003, 6.976350e-004
1.315214e+003, 6.226410e-004
1.317143e+003, 6.671796e-004
1.319071e+003, 7.242728e-004
1.321000e+003, 7.480131e-004
1.322928e+003, 7.038379e-004
1.324857e+003, 5.956796e-004
1.326785e+003, 5.444676e-004
1.328714e+003, 4.504239e-004
1.330642e+003, 3.134591e-004
1.332570e+003, 3.638115e-004
1.334499e+003, 3.790934e-004
1.336427e+003, 4.111722e-004
1.338356e+003, 4.202196e-004
1.340284e+003, 3.850802e-004
1.342213e+003, 2.887038e-004
1.344141e+003, 2.301074e-004
1.346070e+003, 3.941868e-004
1.347998e+003, 4.997290e-004
1.349927e+003, 5.370473e-004
1.351855e+003, 5.828973e-004
1.353784e+003, 5.310499e-004
1.355712e+003, 5.053971e-004
1.357641e+003, 5.052012e-004
1.359569e+003, 6.041077e-004
1.361497e+003, 7.339764e-004
1.363426e+003, 7.837175e-004
1.365354e+003, 6.761037e-004
1.367283e+003, 6.265696e-004
1.369211e+003, 6.782152e-004
1.371140e+003, 7.625725e-004
1.373068e+003, 8.125577e-004
1.374997e+003, 7.994996e-004
1.376925e+003, 8.778178e-004
1.378854e+003, 1.007426e-003
1.380782e+003, 9.612087e-004
1.382711e+003, 1.019580e-003
1.384639e+003, 1.264552e-003
1.386568e+003, 1.487140e-003
1.388496e+003, 1.506401e-003
1.390424e+003, 1.467838e-003
1.392353e+003, 1.552926e-003
1.394281e+003, 1.748188e-003
1.396210e+003, 1.862881e-003
1.398138e+003, 1.891463e-003
1.400067e+003, 1.845207e-003
1.401995e+003, 1.902397e-003
1.403924e+003, 2.088082e-003
1.405852e+003, 2.249552e-003
1.407781e+003, 2.350999e-003
1.409709e+003, 2.355385e-003
1.411638e+003, 2.420153e-003
1.413566e+003, 2.595479e-003
1.415495e+003, 2.900516e-003
1.417423e+003, 3.259866e-003
1.419351e+003, 3.417492e-003
1.421280e+003, 3.220725e-003
1.423208e+003, 3.180914e-003
1.425137e+003, 3.324723e-003
1.427065e+003, 3.350558e-003
1.428994e+003, 3.380360e-003
1.430922e+003, 3.361270e-003
1.432851e+003, 3.434344e-003
1.434779e+003, 3.740568e-003
1.436708e+003, 3.980388e-003
1.438636e+003, 3.812141e-003
1.440565e+003, 3.739361e-003
1.442493e+003, 3.736913e-003
1.444422e+003, 3.668680e-003
1.446350e+003, 3.706982e-003
1.448278e+003, 3.752954e-003
1.450207e+003, 3.740883e-003
1.452135e+003, 3.738113e-003
1.454064e+003, 3.811317e-003
1.455992e+003, 4.299707e-003
1.457921e+003, 4.277335e-003
1.459849e+003, 3.780543e-003
1.461778e+003, 3.527409e-003
1.463706e+003, 3.618626e-003
1.465635e+003, 3.706523e-003
1.467563e+003, 3.532274e-003
1.469492e+003, 3.522866e-003
1.471420e+003, 3.803935e-003
1.473349e+003, 3.800128e-003
1.475277e+003, 3.459772e-003
1.477205e+003, 3.247312e-003
1.479134e+003, 3.183928e-003
1.481062e+003, 3.252985e-003
1.482991e+003, 3.319107e-003
1.484919e+003, 3.238021e-003
1.486848e+003, 3.232526e-003
1.488776e+003, 3.228096e-003
1.490705e+003, 2.988547e-003
1.492633e+003, 2.783827e-003
1.494562e+003, 2.993752e-003
1.496490e+003, 3.202332e-003
1.498419e+003, 3.015799e-003
1.500347e+003, 2.782105e-003
1.502276e+003, 2.638189e-003
1.504204e+003, 2.917866e-003
1.506132e+003, 3.396330e-003
1.508061e+003, 3.032617e-003
1.509989e+003, 2.518296e-003
1.511918e+003, 2.461831e-003
1.513846e+003, 2.313502e-003
1.515775e+003, 2.193090e-003
1.517703e+003, 2.167281e-003
1.519632e+003, 2.330754e-003
1.521560e+003, 2.435765e-003
1.523489e+003, 2.170444e-003
1.525417e+003, 2.069054e-003
1.527346e+003, 1.911436e-003
1.529274e+003, 1.774130e-003
1.531203e+003, 1.707655e-003
1.533131e+003, 1.780864e-003
1.535059e+003, 1.637268e-003
1.536988e+003, 1.732611e-003
1.538916e+003, 2.241502e-003
1.540845e+003, 2.263992e-003
1.542773e+003, 1.855401e-003
1.544702e+003, 1.627597e-003
1.546630e+003, 1.366056e-003
1.548559e+003, 1.355371e-003
1.550487e+003, 1.506729e-003
1.552416e+003, 1.411705e-003
1.554344e+003, 1.413987e-003
1.556273e+003, 1.668273e-003
1.558201e+003, 2.271660e-003
1.560130e+003, 2.201712e-003
1.562058e+003, 1.411400e-003
1.563986e+003, 1.143912e-003
1.565915e+003, 1.157653e-003
1.567843e+003, 1.144575e-003
1.569772e+003, 1.182051e-003
1.571700e+003, 1.036738e-003
1.573629e+003, 1.098279e-003
1.575557e+003, 1.492483e-003
1.577486e+003, 1.413453e-003
1.579414e+003, 1.044603e-003
1.581343e+003, 1.004493e-003
1.583271e+003, 9.839841e-004
1.585200e+003, 7.916649e-004
1.587128e+003, 7.998570e-004
1.589057e+003, 8.915069e-004
1.590985e+003, 1.067761e-003
1.592913e+003, 1.098833e-003
1.594842e+003, 9.654962e-004
1.596770e+003, 8.327603e-004
1.598699e+003, 8.570661e-004
1.600627e+003, 9.034664e-004
1.602556e+003, 8.336962e-004
1.604484e+003, 8.719236e-004
1.606413e+003, 9.277770e-004
1.608341e+003, 8.236905e-004
1.610270e+003, 8.611284e-004
1.612198e+003, 9.011160e-004
1.614127e+003, 1.009858e-003
1.616055e+003, 1.377520e-003
1.617984e+003, 1.349266e-003
1.619912e+003, 9.951465e-004
1.621840e+003, 9.309180e-004
1.623769e+003, 8.913734e-004
1.625697e+003, 8.433757e-004
1.627626e+003, 1.014758e-003
1.629554e+003, 1.161554e-003
1.631483e+003, 1.079409e-003
1.633411e+003, 1.195897e-003
1.635340e+003, 1.482391e-003
1.637268e+003, 1.275280e-003
1.639197e+003, 9.821831e-004
1.641125e+003, 8.988496e-004
1.643054e+003, 1.012326e-003
1.644982e+003, 1.396091e-003
1.646911e+003, 1.432088e-003
1.648839e+003, 1.168343e-003
1.650767e+003, 1.462564e-003
1.652696e+003, 2.196489e-003
1.654624e+003, 1.647605e-003
1.656553e+003, 1.008711e-003
1.658481e+003, 9.612668e-004
1.660410e+003, 1.040199e-003
1.662338e+003, 1.050423e-003
1.664267e+003, 8.344521e-004
1.666195e+003, 6.945738e-004
1.668124e+003, 9.422919e-004
1.670052e+003, 1.050129e-003
1.671981e+003, 8.352546e-004
1.673909e+003, 9.082658e-004
1.675838e+003, 9.479237e-004
1.677766e+003, 5.756964e-004
1.679694e+003, 5.827907e-004
1.681623e+003, 7.016491e-004
1.683551e+003, 1.128128e-003
1.685480e+003, 1.051595e-003
1.687408e+003, 5.871931e-004
1.689337e+003, 6.139418e-004
1.691265e+003, 6.340207e-004
1.693194e+003, 6.887908e-004
1.695122e+003, 1.078558e-003
1.697051e+003, 9.232286e-004
1.698979e+003, 9.919469e-004
1.700908e+003, 1.148648e-003
1.702836e+003, 6.710544e-004
1.704765e+003, 7.027140e-004
1.706693e+003, 7.849383e-004
1.708621e+003, 4.825405e-004
1.710550e+003, 3.013716e-004
1.712478e+003, 4.426997e-004
1.714407e+003, 5.902278e-004
1.716335e+003, 1.000756e-003
1.718264e+003, 9.110455e-004
1.720192e+003, 3.753615e-004
1.722121e+003, 2.357233e-004
1.724049e+003, 2.157346e-004
1.725978e+003, 1.771679e-004
1.727906e+003, 1.774560e-004
1.729835e+003, 3.474008e-004
1.731763e+003, 7.070971e-004
1.733692e+003, 9.841291e-004
1.735620e+003, 4.967616e-004
1.737548e+003, 1.759480e-004
1.739477e+003, 3.644236e-004
1.741405e+003, 2.860690e-004
1.743334e+003, 1.374081e-004
1.745262e+003, 1.877995e-004
1.747191e+003, 2.757734e-004
1.749119e+003, 2.874677e-004
1.751048e+003, 3.313518e-004
1.752976e+003, 1.315975e-004
1.754905e+003, 1.180534e-004
1.756833e+003, 2.411302e-004
1.758762e+003, 7.554852e-005
1.760690e+003, 1.449836e-004
1.762619e+003, 3.190859e-004
1.764547e+003, 2.670666e-004
1.766475e+003, 2.922800e-004
1.768404e+003, 2.200734e-004
1.770332e+003, 2.092617e-004
1.772261e+003, 2.892385e-004
1.774189e+003, 2.050896e-004
1.776118e+003, 3.084805e-004
1.778046e+003, 2.817436e-004
1.779975e+003, 1.701166e-004
1.781903e+003, 5.389416e-005
1.783832e+003, 7.012861e-005
1.785760e+003, -6.501285e-006
1.787689e+003, -2.147101e-004
1.789617e+003, -1.276958e-004
1.791546e+003, 2.563604e-004
1.793474e+003, 3.676666e-004
1.795402e+003, 3.906595e-004
1.797331e+003, 2.651735e-004
1.799259e+003, 1.002639e-004
1.801188e+003, 1.411118e-004
1.803116e+003, 7.653279e-005
1.805045e+003, -3.165897e-005
1.806973e+003, 7.145250e-006
1.808902e+003, 2.727373e-005
1.810830e+003, 4.930589e-005
1.812759e+003, 1.138556e-004
1.814687e+003, -3.926141e-005
1.816616e+003, -9.619639e-005
1.818544e+003, -5.926246e-005
1.820473e+003, 5.013611e-005
1.822401e+003, 2.861448e-005
1.824329e+003, 6.314514e-005
1.826258e+003, -1.772574e-004
1.828186e+003, -2.901056e-004
1.830115e+003, -1.682158e-004
1.832043e+003, -1.221017e-004
1.833972e+003, -3.224246e-004
1.835900e+003, -6.080897e-004
1.837829e+003, -5.007320e-004
1.839757e+003, -2.336681e-004
1.841686e+003, -6.207007e-005
1.843614e+003, -1.377263e-005
1.845543e+003, -2.636783e-004
1.847471e+003, -3.489623e-004
1.849400e+003, -1.275210e-004
1.851328e+003, 2.696359e-005
1.853256e+003, -1.265884e-004
1.855185e+003, -2.566587e-004
1.857113e+003, -1.273816e-004
1.859042e+003, -1.662041e-004
1.860970e+003, -4.948479e-004
1.862899e+003, -3.568133e-004
1.864827e+003, -1.489095e-004
1.866756e+003, -3.229565e-004
1.868684e+003, -1.907289e-004
1.870613e+003, -1.064130e-004
1.872541e+003, -5.417547e-005
1.874470e+003, 9.345301e-005
1.876398e+003, -6.700677e-005
1.878327e+003, -2.648201e-004
1.880255e+003, -2.565692e-004
1.882183e+003, -3.910488e-004
1.884112e+003, -5.256088e-004
1.886040e+003, -6.846091e-004
1.887969e+003, -7.024512e-004
1.889897e+003, -6.325764e-004
1.891826e+003, -6.319152e-004
1.893754e+003, -3.820351e-004
1.895683e+003, -2.428829e-004
1.897611e+003, -5.997973e-004
1.899540e+003, -6.743284e-004
1.901468e+003, -2.790875e-004
1.903397e+003, -3.406395e-004
1.905325e+003, -3.491930e-004
1.907254e+003, -1.432224e-004
1.909182e+003, -3.302208e-004
1.911110e+003, -7.629402e-004
1.913039e+003, -5.466331e-004
1.914967e+003, -1.219143e-004
1.916896e+003, -8.529460e-006
1.918824e+003, -5.868432e-004
1.920753e+003, -1.055212e-003
1.922681e+003, -7.902472e-004
1.924610e+003, -1.146672e-003
1.926538e+003, -9.454801e-004
1.928467e+003, -2.627609e-004
1.930395e+003, -1.557028e-004
1.932324e+003, -2.522036e-004
1.934252e+003, -8.643124e-004
1.936181e+003, -9.732198e-004
1.938109e+003, -4.827967e-004
1.940037e+003, -2.711266e-004
1.941966e+003, -2.544739e-004
1.943894e+003, -4.561695e-004
1.945823e+003, -7.699804e-004
1.947751e+003, -9.718004e-004
1.949680e+003, -1.033668e-003
1.951608e+003, -8.787883e-004
1.953537e+003, -3.630122e-004
1.955465e+003, -6.177975e-004
1.957394e+003, -3.832539e-004
1.959322e+003, 1.826335e-004
1.961251e+003, -5.569109e-004
1.963179e+003, -8.651011e-004
1.965108e+003, -4.443675e-004
1.967036e+003, -4.627518e-004
1.968964e+003, -4.957900e-004
1.970893e+003, -8.106977e-005
1.972821e+003, 8.411400e-004
1.974750e+003, 1.476765e-003
1.976678e+003, 2.413993e-004
1.978607e+003, -7.254367e-004
1.980535e+003, -4.735303e-004
1.982464e+003, -7.586495e-004
1.984392e+003, 1.162912e-004
1.986321e+003, 1.214955e-004
1.988249e+003, -4.711542e-004
1.990178e+003, -6.412875e-004
1.992106e+003, -1.873821e-005
1.994035e+003, 1.210256e-004
1.995963e+003, -1.303044e-004
1.997891e+003, 1.786912e-004
1.999820e+003, 7.713900e-004
2.001748e+003, 4.348594e-004
2.003677e+003, -2.684244e-004
2.005605e+003, -1.015901e-003
2.007534e+003, -1.259585e-003
2.009462e+003, -1.145285e-004
2.011391e+003, 2.800387e-004
2.013319e+003, 6.551784e-004
2.015248e+003, 1.640342e-003
2.017176e+003, 1.662346e-003
2.019105e+003, 1.067145e-003
2.021033e+003, 2.143413e-004
2.022962e+003, -2.113089e-004
2.024890e+003, 6.300784e-004
2.026818e+003, 1.173833e-003
2.028747e+003, 9.296625e-004
2.030675e+003, 9.334919e-004
2.032604e+003, 2.259824e-004
2.034532e+003, -1.066630e-003
2.036461e+003, -1.319138e-003
2.038389e+003, -3.522341e-004
2.040318e+003, 4.258142e-004
2.042246e+003, -8.860370e-006
2.044175e+003, -9.399240e-004
2.046103e+003, -1.483410e-003
2.048031e+003, -1.622040e-003
2.049960e+003, -1.226137e-003
2.051888e+003, -5.869505e-004
2.053817e+003, 2.156640e-005
2.055745e+003, -4.231243e-004
2.057674e+003, -6.500592e-004
2.059602e+003, -8.564808e-004
2.061531e+003, -9.263996e-004
2.063459e+003, -1.183691e-003
2.065388e+003, -2.081846e-003
2.067316e+003, -2.708187e-003
2.069245e+003, -1.940204e-003
2.071173e+003, -1.184338e-003
2.073102e+003, -1.185969e-003
2.075030e+003, -6.938204e-004
2.076958e+003, -2.458812e-004
2.078887e+003, -8.105292e-004
2.080815e+003, -1.223892e-003
2.082744e+003, -1.123887e-003
2.084672e+003, -1.051543e-003
2.086601e+003, -1.300271e-003
2.088529e+003, -1.197877e-003
2.090458e+003, -6.313501e-004
2.092386e+003, -8.234958e-004
2.094315e+003, -1.682148e-003
2.096243e+003, -1.897001e-003
2.098172e+003, -1.467211e-003
2.100100e+003, -9.832717e-004
2.102029e+003, -1.105478e-003
2.103957e+003, -1.166221e-003
2.105885e+003, -8.012099e-004
2.107814e+003, -8.772664e-004
2.109742e+003, -1.634656e-003
2.111671e+003, -1.598208e-003
2.113599e+003, -1.236319e-003
2.115528e+003, -1.488251e-003
2.117456e+003, -1.329048e-003
2.119385e+003, -1.311478e-003
2.121313e+003, -1.195317e-003
2.123242e+003, -4.089735e-004
2.125170e+003, -6.592055e-004
2.127099e+003, -1.501195e-003
2.129027e+003, -1.218910e-003
2.130956e+003, -4.020454e-004
2.132884e+003, -4.099174e-004
2.134813e+003, -1.297258e-003
2.136741e+003, -1.786596e-003
2.138669e+003, -1.364484e-003
2.140598e+003, -8.571516e-004
2.142526e+003, -1.769769e-004
2.144455e+003, -6.525679e-004
2.146383e+003, -1.526207e-003
2.148312e+003, -2.111425e-003
2.150240e+003, -2.835669e-003
2.152169e+003, -3.140395e-003
2.154097e+003, -2.780299e-003
2.156026e+003, -1.518082e-003
2.157954e+003, -1.086289e-003
2.159883e+003, -2.634441e-003
2.161811e+003, -3.499517e-003
2.163740e+003, -3.023820e-003
2.165668e+003, -1.703730e-003
2.167596e+003, -1.899886e-003
2.169525e+003, -2.397464e-003
2.171453e+003, -2.431346e-003
2.173382e+003, -1.723906e-003
2.175310e+003, -1.489518e-003
2.177239e+003, -2.310966e-003
2.179167e+003, -1.842027e-003
2.181096e+003, -8.678001e-004
2.183024e+003, -9.556732e-004
2.184953e+003, -1.903471e-003
2.186881e+003, -2.857276e-003
2.188810e+003, -2.325974e-003
2.190738e+003, -1.758849e-003
2.192667e+003, -1.888877e-003
2.194595e+003, -1.780261e-003
2.196523e+003, -6.486322e-004
2.198452e+003, -4.546703e-004
2.200380e+003, -5.359545e-004
2.202309e+003, -2.579330e-004
2.204237e+003, 1.275996e-004
2.206166e+003, -4.342559e-004
2.208094e+003, -7.914463e-004
2.210023e+003, -2.486282e-005
2.211951e+003, -5.171401e-006
2.213880e+003, -1.184325e-003
2.215808e+003, -1.027953e-003
2.217737e+003, 1.569397e-004
2.219665e+003, 7.988458e-004
2.221594e+003, -4.199217e-005
2.223522e+003, -4.091221e-004
2.225450e+003, -1.407862e-004
2.227379e+003, -1.783681e-004
2.229307e+003, -6.675648e-004
2.231236e+003, -7.112963e-004
2.233164e+003, -1.890759e-005
2.235093e+003, 5.255443e-004
2.237021e+003, 9.526206e-004
2.238950e+003, 9.937779e-004
2.240878e+003, 7.316497e-004
2.242807e+003, 3.337668e-004
2.244735e+003, 5.051366e-004
2.246664e+003, 5.053051e-004
2.248592e+003, 4.612202e-004
2.250521e+003, 9.003064e-004
2.252449e+003, 9.221467e-004
2.254377e+003, 2.511014e-004
2.256306e+003, -3.237498e-005
2.258234e+003, 4.213743e-004
2.260163e+003, 8.037783e-004
2.262091e+003, 7.113972e-004
2.264020e+003, 5.565130e-004
2.265948e+003, 3.305062e-004
2.267877e+003, 5.069737e-004
2.269805e+003, 2.885383e-004
2.271734e+003, -1.478222e-004
2.273662e+003, 4.822559e-004
2.275591e+003, 8.217501e-004
2.277519e+003, 5.839051e-004
2.279448e+003, 3.004475e-004
2.281376e+003, 1.543325e-004
2.283304e+003, 1.982617e-004
2.285233e+003, 5.346849e-004
2.287161e+003, 4.604010e-004
2.289090e+003, 2.142179e-005
2.291018e+003, 3.750563e-004
2.292947e+003, 9.785187e-004
2.294875e+003, 8.863130e-004
2.296804e+003, 6.440842e-004
2.298732e+003, 5.250698e-004
2.300661e+003, 7.150345e-004
2.302589e+003, 9.748612e-004
2.304518e+003, 8.281218e-004
2.306446e+003, 5.677959e-004
2.308375e+003, 4.465433e-004
2.310303e+003, 4.148185e-004
2.312231e+003, 4.632954e-004
2.314160e+003, 7.186744e-004
2.316088e+003, 7.850762e-004
2.318017e+003, 7.671426e-004
2.319945e+003, 6.826975e-004
2.321874e+003, 7.752275e-004
2.323802e+003, 9.240361e-004
2.325731e+003, 1.288762e-003
2.327659e+003, 1.617891e-003
2.329588e+003, 1.707625e-003
2.331516e+003, 1.500150e-003
2.333445e+003, 1.588718e-003
2.335373e+003, 2.099057e-003
2.337302e+003, 2.306885e-003
2.339230e+003, 2.148325e-003
2.341158e+003, 1.931664e-003
2.343087e+003, 1.914001e-003
2.345015e+003, 2.026318e-003
2.346944e+003, 2.045051e-003
2.348872e+003, 1.545251e-003
2.350801e+003, 1.710161e-003
2.352729e+003, 1.928414e-003
2.354658e+003, 2.004929e-003
2.356586e+003, 2.115975e-003
2.358515e+003, 2.286677e-003
2.360443e+003, 2.701892e-003
2.362372e+003, 2.913122e-003
2.364300e+003, 2.955297e-003
2.366229e+003, 3.020528e-003
2.368157e+003, 2.749710e-003
2.370085e+003, 2.297517e-003
2.372014e+003, 1.997631e-003
2.373942e+003, 1.973665e-003
2.375871e+003, 1.989419e-003
2.377799e+003, 1.554723e-003
2.379728e+003, 1.365674e-003
2.381656e+003, 1.282637e-003
2.383585e+003, 1.169576e-003
2.385513e+003, 1.328281e-003
2.387442e+003, 1.359279e-003
2.389370e+003, 1.369123e-003
2.391299e+003, 1.395904e-003
2.393227e+003, 1.182388e-003
2.395156e+003, 1.106209e-003
2.397084e+003, 1.171411e-003
2.399012e+003, 1.349093e-003
2.400941e+003, 1.489050e-003
2.402869e+003, 1.159580e-003
2.404798e+003, 1.189241e-003
2.406726e+003, 1.123059e-003
2.408655e+003, 1.184509e-003
2.410583e+003, 1.536822e-003
2.412512e+003, 1.591237e-003
2.414440e+003, 1.549199e-003
2.416369e+003, 1.394089e-003
2.418297e+003, 1.079734e-003
2.420226e+003, 1.068668e-003
2.422154e+003, 1.294357e-003
2.424083e+003, 1.420660e-003
2.426011e+003, 1.115598e-003
2.427939e+003, 1.135180e-003
2.429868e+003, 1.525335e-003
2.431796e+003, 1.591920e-003
2.433725e+003, 8.040875e-004
2.435653e+003, 8.482018e-004
2.437582e+003, 1.299473e-003
2.439510e+003, 1.417645e-003
2.441439e+003, 1.061075e-003
2.443367e+003, 1.002955e-003
2.445296e+003, 1.206859e-003
2.447224e+003, 1.055246e-003
2.449153e+003, 9.208774e-004
2.451081e+003, 1.152333e-003
2.453010e+003, 1.035305e-003
2.454938e+003, 5.440856e-004
2.456866e+003, 8.420271e-004
2.458795e+003, 1.296045e-003
2.460723e+003, 1.362486e-003
2.462652e+003, 1.146220e-003
2.464580e+003, 1.053795e-003
2.466509e+003, 1.543461e-003
2.468437e+003, 1.611778e-003
2.470366e+003, 1.319894e-003
2.472294e+003, 9.672794e-004
2.474223e+003, 6.244914e-004
2.476151e+003, 7.716381e-004
2.478080e+003, 1.097115e-003
2.480008e+003, 1.434313e-003
2.481937e+003, 1.568697e-003
2.483865e+003, 1.434303e-003
2.485793e+003, 1.284698e-003
2.487722e+003, 1.336074e-003
2.489650e+003, 1.759612e-003
2.491579e+003, 1.704117e-003
2.493507e+003, 1.546941e-003
2.495436e+003, 1.341851e-003
2.497364e+003, 1.245088e-003
2.499293e+003, 1.424918e-003
2.501221e+003, 1.458005e-003
2.503150e+003, 1.735504e-003
2.505078e+003, 1.945140e-003
2.507007e+003, 1.453250e-003
2.508935e+003, 9.401829e-004
2.510864e+003, 1.124558e-003
2.512792e+003, 1.444866e-003
2.514720e+003, 1.451446e-003
2.516649e+003, 1.402160e-003
2.518577e+003, 1.268090e-003
2.520506e+003, 1.094456e-003
2.522434e+003, 1.276797e-003
2.524363e+003, 1.640371e-003
2.526291e+003, 1.643249e-003
2.528220e+003, 1.384673e-003
2.530148e+003, 1.248112e-003
2.532077e+003, 1.362497e-003
2.534005e+003, 1.108809e-003
2.535934e+003, 9.181035e-004
2.537862e+003, 1.122353e-003
2.539791e+003, 1.429910e-003
2.541719e+003, 1.533495e-003
2.543647e+003, 1.242804e-003
2.545576e+003, 1.338024e-003
2.547504e+003, 1.698468e-003
2.549433e+003, 1.464707e-003
2.551361e+003, 1.060137e-003
2.553290e+003, 9.655414e-004
2.555218e+003, 1.202411e-003
2.557147e+003, 1.209458e-003
2.559075e+003, 1.096421e-003
2.561004e+003, 1.081151e-003
2.562932e+003, 9.682738e-004
2.564861e+003, 5.332198e-004
2.566789e+003, 3.547408e-004
2.568718e+003, 7.483641e-004
2.570646e+003, 9.363969e-004
2.572574e+003, 7.401813e-004
2.574503e+003, 5.520600e-004
2.576431e+003, 7.067720e-004
2.578360e+003, 8.255726e-004
2.580288e+003, 8.131341e-004
2.582217e+003, 8.266275e-004
2.584145e+003, 7.297752e-004
2.586074e+003, 9.551962e-004
2.588002e+003, 1.059371e-003
2.589931e+003, 8.906632e-004
2.591859e+003, 9.312487e-004
2.593788e+003, 1.163628e-003
2.595716e+003, 1.065276e-003
2.597645e+003, 8.427394e-004
2.599573e+003, 7.102437e-004
2.601501e+003, 1.103052e-003
2.603430e+003, 1.158139e-003
2.605358e+003, 8.359061e-004
2.607287e+003, 4.759431e-004
2.609215e+003, 3.511986e-004
2.611144e+003, 7.816978e-004
2.613072e+003, 1.227557e-003
2.615001e+003, 1.214708e-003
2.616929e+003, 1.277451e-003
2.618858e+003, 1.327866e-003
2.620786e+003, 1.459466e-003
2.622715e+003, 1.476072e-003
2.624643e+003, 1.255000e-003
2.626572e+003, 9.231212e-004
2.628500e+003, 8.432232e-004
2.630428e+003, 1.274470e-003
2.632357e+003, 1.377701e-003
2.634285e+003, 1.440532e-003
2.636214e+003, 1.404639e-003
2.638142e+003, 1.187115e-003
2.640071e+003, 1.037515e-003
2.641999e+003, 1.182896e-003
2.643928e+003, 1.225363e-003
2.645856e+003, 1.383745e-003
2.647785e+003, 1.209318e-003
2.649713e+003, 1.314834e-003
2.651642e+003, 1.670352e-003
2.653570e+003, 1.788724e-003
2.655499e+003, 1.691369e-003
2.657427e+003, 1.751637e-003
2.659355e+003, 1.720834e-003
2.661284e+003, 1.762036e-003
2.663212e+003, 1.879676e-003
2.665141e+003, 1.783786e-003
2.667069e+003, 1.809994e-003
2.668998e+003, 1.919491e-003
2.670926e+003, 2.028188e-003
2.672855e+003, 2.137494e-003
2.674783e+003, 2.050202e-003
2.676712e+003, 1.994336e-003
2.678640e+003, 2.044799e-003
2.680569e+003, 1.944184e-003
2.682497e+003, 1.794996e-003
2.684426e+003, 1.966490e-003
2.686354e+003, 2.122917e-003
2.688282e+003, 1.860299e-003
2.690211e+003, 1.946945e-003
2.692139e+003, 2.046846e-003
2.694068e+003, 1.966366e-003
2.695996e+003, 2.064542e-003
2.697925e+003, 2.195472e-003
2.699853e+003, 2.134266e-003
2.701782e+003, 2.075477e-003
2.703710e+003, 1.952364e-003
2.705639e+003, 2.030035e-003
2.707567e+003, 2.069366e-003
2.709496e+003, 2.163514e-003
2.711424e+003, 2.392654e-003
2.713353e+003, 2.208124e-003
2.715281e+003, 1.931170e-003
2.717209e+003, 1.925828e-003
2.719138e+003, 1.891952e-003
2.721066e+003, 1.866344e-003
2.722995e+003, 2.168116e-003
2.724923e+003, 2.177390e-003
2.726852e+003, 2.152723e-003
2.728780e+003, 2.009833e-003
2.730709e+003, 2.094052e-003
2.732637e+003, 2.323163e-003
2.734566e+003, 2.247600e-003
2.736494e+003, 1.936232e-003
2.738423e+003, 2.049345e-003
2.740351e+003, 2.189914e-003
2.742280e+003, 2.042776e-003
2.744208e+003, 2.160124e-003
2.746136e+003, 2.464442e-003
2.748065e+003, 2.549712e-003
2.749993e+003, 2.342734e-003
2.751922e+003, 2.171316e-003
2.753850e+003, 2.164379e-003
2.755779e+003, 2.247817e-003
2.757707e+003, 2.104446e-003
2.759636e+003, 2.267090e-003
2.761564e+003, 2.508657e-003
2.763493e+003, 2.355763e-003
2.765421e+003, 2.174326e-003
2.767350e+003, 2.059325e-003
2.769278e+003, 2.255498e-003
2.771207e+003, 2.516012e-003
2.773135e+003, 2.512926e-003
2.775063e+003, 2.679666e-003
2.776992e+003, 2.662576e-003
2.778920e+003, 2.360553e-003
2.780849e+003, 2.073219e-003
2.782777e+003, 2.245774e-003
2.784706e+003, 2.595092e-003
2.786634e+003, 2.669385e-003
2.788563e+003, 2.429536e-003
2.790491e+003, 2.503071e-003
2.792420e+003, 2.707356e-003
2.794348e+003, 2.684866e-003
2.796277e+003, 2.515004e-003
2.798205e+003, 2.362941e-003
2.800134e+003, 2.489100e-003
2.802062e+003, 2.494683e-003
2.803990e+003, 2.471588e-003
2.805919e+003, 2.565665e-003
2.807847e+003, 2.333678e-003
2.809776e+003, 2.220705e-003
2.811704e+003, 2.331756e-003
2.813633e+003, 2.149981e-003
2.815561e+003, 2.425169e-003
2.817490e+003, 2.921893e-003
2.819418e+003, 2.822072e-003
2.821347e+003, 2.858436e-003
2.823275e+003, 2.920735e-003
2.825204e+003, 2.797245e-003
2.827132e+003, 2.418084e-003
2.829061e+003, 2.712480e-003
2.830989e+003, 2.845992e-003
2.832917e+003, 2.653912e-003
2.834846e+003, 2.739827e-003
2.836774e+003, 2.700110e-003
2.838703e+003, 2.723493e-003
2.840631e+003, 2.922833e-003
2.842560e+003, 2.691720e-003
2.844488e+003, 2.392514e-003
2.846417e+003, 2.587258e-003
2.848345e+003, 2.691201e-003
2.850274e+003, 2.851051e-003
2.852202e+003, 3.118945e-003
2.854131e+003, 3.171349e-003
2.856059e+003, 3.050789e-003
2.857988e+003, 2.803548e-003
2.859916e+003, 3.055963e-003
2.861844e+003, 3.356678e-003
2.863773e+003, 3.203353e-003
2.865701e+003, 3.008996e-003
2.867630e+003, 2.531437e-003
2.869558e+003, 2.295993e-003
2.871487e+003, 2.859320e-003
2.873415e+003, 3.062849e-003
2.875344e+003, 2.769309e-003
2.877272e+003, 2.708930e-003
2.879201e+003, 2.524189e-003
2.881129e+003, 2.562478e-003
2.883058e+003, 2.779737e-003
2.884986e+003, 2.892205e-003
2.886915e+003, 2.912700e-003
2.888843e+003, 2.824707e-003
2.890771e+003, 2.504912e-003
2.892700e+003, 2.328690e-003
2.894628e+003, 2.388731e-003
2.896557e+003, 2.741010e-003
2.898485e+003, 2.914310e-003
2.900414e+003, 2.976126e-003
2.902342e+003, 3.057873e-003
2.904271e+003, 3.147746e-003
2.906199e+003, 3.174406e-003
2.908128e+003, 2.926600e-003
2.910056e+003, 2.852254e-003
2.911985e+003, 3.074789e-003
2.913913e+003, 3.044076e-003
2.915842e+003, 3.275779e-003
2.917770e+003, 3.800744e-003
2.919698e+003, 3.785357e-003
2.921627e+003, 3.504924e-003
2.923555e+003, 3.461839e-003
2.925484e+003, 3.466603e-003
2.927412e+003, 3.378014e-003
2.929341e+003, 3.432258e-003
2.931269e+003, 3.233202e-003
2.933198e+003, 3.176727e-003
2.935126e+003, 3.035179e-003
2.937055e+003, 3.247844e-003
2.938983e+003, 3.329028e-003
2.940912e+003, 3.166177e-003
2.942840e+003, 2.727440e-003
2.944769e+003, 2.759110e-003
2.946697e+003, 3.053460e-003
2.948625e+003, 3.558689e-003
2.950554e+003, 3.863244e-003
2.952482e+003, 3.592986e-003
2.954411e+003, 2.933644e-003
2.956339e+003, 2.832824e-003
2.958268e+003, 3.374346e-003
2.960196e+003, 3.482513e-003
2.962125e+003, 2.956976e-003
2.964053e+003, 2.505840e-003
2.965982e+003, 2.399727e-003
2.967910e+003, 2.898380e-003
2.969839e+003, 2.832071e-003
2.971767e+003, 2.491694e-003
2.973696e+003, 2.765461e-003
2.975624e+003, 2.697267e-003
2.977552e+003, 2.640543e-003
2.979481e+003, 2.651021e-003
2.981409e+003, 2.732189e-003
2.983338e+003, 2.650012e-003
2.985266e+003, 2.591230e-003
2.987195e+003, 2.399485e-003
2.989123e+003, 2.536245e-003
2.991052e+003, 2.566046e-003
2.992980e+003, 2.181595e-003
2.994909e+003, 2.552677e-003
2.996837e+003, 2.893880e-003
2.998766e+003, 2.706517e-003
3.000694e+003, 2.708113e-003
3.002623e+003, 2.833742e-003
3.004551e+003, 2.712718e-003
3.006479e+003, 2.251023e-003
3.008408e+003, 2.276986e-003
3.010336e+003, 2.619868e-003
3.012265e+003, 2.415713e-003
3.014193e+003, 2.757945e-003
3.016122e+003, 3.495954e-003
3.018050e+003, 3.347454e-003
3.019979e+003, 2.503349e-003
3.021907e+003, 2.060974e-003
3.023836e+003, 2.365537e-003
3.025764e+003, 2.572816e-003
3.027693e+003, 2.388172e-003
3.029621e+003, 2.370449e-003
3.031550e+003, 2.457549e-003
3.033478e+003, 2.740353e-003
3.035406e+003, 3.050691e-003
3.037335e+003, 2.912584e-003
3.039263e+003, 2.454570e-003
3.041192e+003, 2.389658e-003
3.043120e+003, 2.322258e-003
3.045049e+003, 2.551921e-003
3.046977e+003, 2.800334e-003
3.048906e+003, 2.726146e-003
3.050834e+003, 2.469049e-003
3.052763e+003, 2.676101e-003
3.054691e+003, 3.148911e-003
3.056620e+003, 2.917903e-003
3.058548e+003, 2.281835e-003
3.060477e+003, 2.181156e-003
3.062405e+003, 2.434266e-003
3.064333e+003, 2.761495e-003
3.066262e+003, 2.892192e-003
3.068190e+003, 2.706121e-003
3.070119e+003, 2.577017e-003
3.072047e+003, 2.657122e-003
3.073976e+003, 2.540376e-003
3.075904e+003, 2.230640e-003
3.077833e+003, 2.118103e-003
3.079761e+003, 2.323411e-003
3.081690e+003, 2.418824e-003
3.083618e+003, 2.401264e-003
3.085547e+003, 2.404463e-003
3.087475e+003, 2.590923e-003
3.089404e+003, 2.927399e-003
3.091332e+003, 3.060803e-003
3.093260e+003, 2.890009e-003
3.095189e+003, 2.867307e-003
3.097117e+003, 2.970356e-003
3.099046e+003, 3.226165e-003
3.100974e+003, 2.739322e-003
3.102903e+003, 2.498188e-003
3.104831e+003, 2.571956e-003
3.106760e+003, 2.586719e-003
3.108688e+003, 2.714293e-003
3.110617e+003, 2.532645e-003
3.112545e+003, 2.375891e-003
3.114474e+003, 2.388596e-003
3.116402e+003, 2.894599e-003
3.118331e+003, 3.027869e-003
3.120259e+003, 2.890660e-003
3.122188e+003, 2.842954e-003
3.124116e+003, 2.922371e-003
3.126044e+003, 2.629476e-003
3.127973e+003, 2.130434e-003
3.129901e+003, 2.573521e-003
3.131830e+003, 3.129421e-003
3.133758e+003, 2.999149e-003
3.135687e+003, 2.388626e-003
3.137615e+003, 2.383707e-003
3.139544e+003, 2.705912e-003
3.141472e+003, 2.629425e-003
3.143401e+003, 2.488989e-003
3.145329e+003, 2.727607e-003
3.147258e+003, 3.114745e-003
3.149186e+003, 2.781059e-003
3.151115e+003, 2.450601e-003
3.153043e+003, 2.772349e-003
3.154971e+003, 2.735778e-003
3.156900e+003, 2.767802e-003
3.158828e+003, 2.846962e-003
3.160757e+003, 2.917187e-003
3.162685e+003, 2.922398e-003
3.164614e+003, 2.602120e-003
3.166542e+003, 2.909378e-003
3.168471e+003, 2.819389e-003
3.170399e+003, 2.679492e-003
3.172328e+003, 2.576514e-003
3.174256e+003, 2.703856e-003
3.176185e+003, 2.541086e-003
3.178113e+003, 2.437420e-003
3.180042e+003, 2.803691e-003
3.181970e+003, 3.607954e-003
3.183898e+003, 3.546954e-003
3.185827e+003, 2.622217e-003
3.187755e+003, 2.571275e-003
3.189684e+003, 2.739570e-003
3.191612e+003, 2.268170e-003
3.193541e+003, 2.441947e-003
3.195469e+003, 2.907820e-003
3.197398e+003, 2.627061e-003
3.199326e+003, 2.243989e-003
3.201255e+003, 2.310638e-003
3.203183e+003, 2.466366e-003
3.205112e+003, 2.567822e-003
3.207040e+003, 2.767028e-003
3.208969e+003, 3.164706e-003
3.210897e+003, 3.262642e-003
3.212825e+003, 3.030379e-003
3.214754e+003, 2.514002e-003
3.216682e+003, 2.605479e-003
3.218611e+003, 2.893375e-003
3.220539e+003, 2.638256e-003
3.222468e+003, 2.366727e-003
3.224396e+003, 2.248783e-003
3.226325e+003, 2.319050e-003
3.228253e+003, 2.890173e-003
3.230182e+003, 2.493819e-003
3.232110e+003, 2.180761e-003
3.234039e+003, 2.418468e-003
3.235967e+003, 2.710111e-003
3.237896e+003, 2.666969e-003
3.239824e+003, 2.233658e-003
3.241752e+003, 2.053898e-003
3.243681e+003, 1.904635e-003
3.245609e+003, 1.949885e-003
3.247538e+003, 2.312552e-003
3.249466e+003, 2.546743e-003
3.251395e+003, 2.437163e-003
3.253323e+003, 2.470538e-003
3.255252e+003, 2.581199e-003
3.257180e+003, 2.698603e-003
3.259109e+003, 2.384391e-003
3.261037e+003, 2.277208e-003
3.262966e+003, 2.738275e-003
3.264894e+003, 2.877400e-003
3.266823e+003, 2.922777e-003
3.268751e+003, 2.697664e-003
3.270679e+003, 2.251204e-003
3.272608e+003, 2.110767e-003
3.274536e+003, 2.222270e-003
3.276465e+003, 2.303900e-003
3.278393e+003, 2.112651e-003
3.280322e+003, 2.030592e-003
3.282250e+003, 2.232693e-003
3.284179e+003, 2.021354e-003
3.286107e+003, 2.038309e-003
3.288036e+003, 1.906596e-003
3.289964e+003, 2.007123e-003
3.291893e+003, 2.171886e-003
3.293821e+003, 1.996733e-003
3.295750e+003, 1.912896e-003
3.297678e+003, 1.905449e-003
3.299606e+003, 1.967937e-003
3.301535e+003, 2.548865e-003
3.303463e+003, 2.289269e-003
3.305392e+003, 1.994311e-003
3.307320e+003, 2.186504e-003
3.309249e+003, 2.287232e-003
3.311177e+003, 2.351718e-003
3.313106e+003, 2.178999e-003
3.315034e+003, 1.825732e-003
3.316963e+003, 1.620998e-003
3.318891e+003, 2.146574e-003
3.320820e+003, 2.961811e-003
3.322748e+003, 3.187789e-003
3.324677e+003, 2.651388e-003
3.326605e+003, 2.336774e-003
3.328533e+003, 2.384824e-003
3.330462e+003, 2.118821e-003
3.332390e+003, 1.875766e-003
3.334319e+003, 1.831244e-003
3.336247e+003, 1.783231e-003
3.338176e+003, 1.864741e-003
3.340104e+003, 1.872315e-003
3.342033e+003, 1.834336e-003
3.343961e+003, 2.267748e-003
3.345890e+003, 2.556075e-003
3.347818e+003, 2.689755e-003
3.349747e+003, 1.975237e-003
3.351675e+003, 1.462340e-003
3.353604e+003, 1.547676e-003
3.355532e+003, 1.581256e-003
3.357460e+003, 1.863579e-003
3.359389e+003, 1.570854e-003
3.361317e+003, 1.329137e-003
3.363246e+003, 1.650788e-003
3.365174e+003, 2.151760e-003
3.367103e+003, 2.103346e-003
3.369031e+003, 2.261702e-003
3.370960e+003, 2.918645e-003
3.372888e+003, 3.207751e-003
3.374817e+003, 3.024882e-003
3.376745e+003, 2.449294e-003
3.378674e+003, 2.241433e-003
3.380602e+003, 2.653092e-003
3.382531e+003, 2.160859e-003
3.384459e+003, 2.061093e-003
3.386387e+003, 2.511071e-003
3.388316e+003, 2.456915e-003
3.390244e+003, 2.409891e-003
3.392173e+003, 2.516945e-003
3.394101e+003, 2.605417e-003
3.396030e+003, 2.728497e-003
3.397958e+003, 2.511096e-003
3.399887e+003, 1.639915e-003
3.401815e+003, 1.113272e-003
3.403744e+003, 1.598236e-003
3.405672e+003, 1.780767e-003
3.407601e+003, 1.558495e-003
3.409529e+003, 1.808726e-003
3.411458e+003, 2.259077e-003
3.413386e+003, 2.470898e-003
3.415314e+003, 2.809857e-003
3.417243e+003, 2.469421e-003
3.419171e+003, 1.919384e-003
3.421100e+003, 1.729541e-003
3.423028e+003, 1.797934e-003
3.424957e+003, 2.188781e-003
3.426885e+003, 2.656046e-003
3.428814e+003, 2.222927e-003
3.430742e+003, 1.587781e-003
3.432671e+003, 1.326223e-003
3.434599e+003, 1.273737e-003
3.436528e+003, 1.946260e-003
3.438456e+003, 2.250445e-003
3.440385e+003, 2.470430e-003
3.442313e+003, 2.378677e-003
3.444241e+003, 2.142813e-003
3.446170e+003, 1.944925e-003
3.448098e+003, 2.030285e-003
3.450027e+003, 2.377806e-003
3.451955e+003, 2.525047e-003
3.453884e+003, 1.955094e-003
3.455812e+003, 2.017265e-003
3.457741e+003, 2.193999e-003
3.459669e+003, 1.980190e-003
3.461598e+003, 1.745148e-003
3.463526e+003, 1.389852e-003
3.465455e+003, 1.657014e-003
3.467383e+003, 2.182341e-003
3.469312e+003, 2.147262e-003
3.471240e+003, 2.343204e-003
3.473168e+003, 2.398186e-003
3.475097e+003, 2.247025e-003
3.477025e+003, 2.023733e-003
3.478954e+003, 1.502725e-003
3.480882e+003, 1.192310e-003
3.482811e+003, 1.368484e-003
3.484739e+003, 1.523615e-003
3.486668e+003, 9.708350e-004
3.488596e+003, 1.076590e-003
3.490525e+003, 1.679909e-003
3.492453e+003, 2.012500e-003
3.494382e+003, 2.021232e-003
3.496310e+003, 2.005149e-003
3.498239e+003, 2.084684e-003
3.500167e+003, 1.773207e-003
3.502095e+003, 1.279447e-003
3.504024e+003, 1.128839e-003
3.505952e+003, 1.346127e-003
3.507881e+003, 2.018682e-003
3.509809e+003, 2.515321e-003
3.511738e+003, 2.448718e-003
3.513666e+003, 2.448749e-003
3.515595e+003, 1.623080e-003
3.517523e+003, 1.332054e-003
3.519452e+003, 1.443043e-003
3.521380e+003, 1.375027e-003
3.523309e+003, 1.846463e-003
3.525237e+003, 1.963457e-003
3.527166e+003, 2.205458e-003
3.529094e+003, 2.781107e-003
3.531022e+003, 2.707937e-003
3.532951e+003, 2.208029e-003
3.534879e+003, 1.626375e-003
3.536808e+003, 8.619581e-004
3.538736e+003, 3.978940e-004
3.540665e+003, 1.029996e-003
3.542593e+003, 1.840834e-003
3.544522e+003, 1.943284e-003
3.546450e+003, 1.569734e-003
3.548379e+003, 1.092818e-003
3.550307e+003, 1.343190e-003
3.552236e+003, 1.878797e-003
3.554164e+003, 1.733591e-003
3.556093e+003, 1.490928e-003
3.558021e+003, 1.428812e-003
3.559949e+003, 1.564735e-003
3.561878e+003, 1.505422e-003
3.563806e+003, 2.108290e-003
3.565735e+003, 2.484478e-003
3.567663e+003, 2.180707e-003
3.569592e+003, 1.741076e-003
3.571520e+003, 1.604923e-003
3.573449e+003, 1.950465e-003
3.575377e+003, 1.785911e-003
3.577306e+003, 1.259577e-003
3.579234e+003, 8.626685e-004
3.581163e+003, 6.699538e-004
3.583091e+003, 6.784712e-004
3.585020e+003, 1.424801e-003
3.586948e+003, 1.985799e-003
3.588876e+003, 1.809918e-003
3.590805e+003, 9.026307e-004
3.592733e+003, 8.791449e-004
3.594662e+003, 1.612652e-003
3.596590e+003, 2.384059e-003
3.598519e+003, 2.432246e-003
3.600447e+003, 1.583274e-003
3.602376e+003, 1.824863e-003
3.604304e+003, 1.724296e-003
3.606233e+003, 1.596006e-003
3.608161e+003, 2.040871e-003
3.610090e+003, 1.307309e-003
3.612018e+003, 8.708459e-004
3.613947e+003, 8.173591e-004
3.615875e+003, 1.016521e-003
3.617803e+003, 1.617241e-003
3.619732e+003, 1.528153e-003
3.621660e+003, 8.043200e-004
3.623589e+003, 6.760802e-004
3.625517e+003, 7.602968e-004
3.627446e+003, 1.818361e-003
3.629374e+003, 2.189911e-003
3.631303e+003, 1.758433e-003
3.633231e+003, 1.025323e-003
3.635160e+003, 2.634575e-004
3.637088e+003, 4.889747e-004
3.639017e+003, 9.665341e-004
3.640945e+003, 9.023081e-004
3.642874e+003, 9.150752e-004
3.644802e+003, 1.128447e-003
3.646730e+003, 1.484909e-003
3.648659e+003, 1.685096e-003
3.650587e+003, 1.125430e-003
3.652516e+003, 6.197279e-004
3.654444e+003, 2.780979e-004
3.656373e+003, -5.721868e-007
3.658301e+003, -3.008257e-004
3.660230e+003, -3.909811e-004
3.662158e+003, -3.302048e-004
3.664087e+003, -1.951858e-004
3.666015e+003, -4.767002e-004
3.667944e+003, -4.146604e-004
3.669872e+003, 8.687208e-004
3.671801e+003, 1.208670e-003
3.673729e+003, 1.196494e-003
3.675657e+003, 9.772293e-004
3.677586e+003, 4.256875e-005
3.679514e+003, 4.387250e-004
3.681443e+003, 8.606493e-004
3.683371e+003, 2.680975e-004
3.685300e+003, -1.008868e-003
3.687228e+003, -3.350791e-004
3.689157e+003, 3.266086e-004
3.691085e+003, -5.285543e-004
3.693014e+003, -1.097313e-003
3.694942e+003, -9.212512e-004
3.696871e+003, -6.771466e-004
3.698799e+003, -4.913138e-004
3.700728e+003, -2.404110e-004
3.702656e+003, -4.025123e-005
3.704584e+003, -2.467418e-004
3.706513e+003, -3.970745e-004
3.708441e+003, 6.034773e-005
3.710370e+003, 1.835434e-004
3.712298e+003, 1.979941e-004
3.714227e+003, 4.127081e-005
3.716155e+003, 7.942629e-005
3.718084e+003, 4.469848e-004
3.720012e+003, 1.603140e-004
3.721941e+003, -8.452357e-004
3.723869e+003, -1.638332e-004
3.725798e+003, 5.404034e-004
3.727726e+003, 7.755482e-004
3.729655e+003, 4.578274e-004
3.731583e+003, 4.292193e-004
3.733511e+003, 8.843264e-004
3.735440e+003, 8.120644e-004
3.737368e+003, 3.533344e-004
3.739297e+003, -2.762096e-004
3.741225e+003, -9.173290e-005
3.743154e+003, -2.388654e-005
3.745082e+003, -8.324059e-006
3.747011e+003, 2.492377e-004
3.748939e+003, 1.338591e-003
3.750868e+003, 1.364346e-003
3.752796e+003, 8.390314e-004
3.754725e+003, -1.308143e-004
3.756653e+003, -7.025013e-004
3.758582e+003, -5.804253e-004
3.760510e+003, -4.953427e-004
3.762438e+003, -9.690386e-004
3.764367e+003, -7.127865e-004
3.766295e+003, -1.052616e-004
3.768224e+003, 1.030110e-004
3.770152e+003, -7.139031e-005
3.772081e+003, -2.629375e-004
3.774009e+003, -2.169183e-005
3.775938e+003, 8.208548e-005
3.777866e+003, 4.470156e-004
3.779795e+003, 3.909179e-005
3.781723e+003, -8.528770e-004
3.783652e+003, -4.724145e-004
3.785580e+003, -1.779974e-004
3.787509e+003, -9.509312e-004
3.789437e+003, -1.286607e-003
3.791365e+003, -8.518151e-004
3.793294e+003, -5.489071e-004
3.795222e+003, -3.430646e-004
3.797151e+003, -7.165963e-004
3.799079e+003, -4.790635e-004
3.801008e+003, 6.089392e-004
3.802936e+003, 7.603402e-004
3.804865e+003, -2.156443e-004
3.806793e+003, -6.673618e-005
3.808722e+003, -4.612504e-005
3.810650e+003, -7.912144e-004
3.812579e+003, -1.533180e-003
3.814507e+003, -1.420239e-003
3.816436e+003, -7.521283e-004
3.818364e+003, -5.080843e-004
3.820292e+003, 5.158978e-004
3.822221e+003, 4.062777e-004
3.824149e+003, -3.144416e-004
3.826078e+003, 3.267975e-005
3.828006e+003, 2.514517e-004
3.829935e+003, 4.308782e-004
3.831863e+003, 2.298960e-004
3.833792e+003, 7.153696e-005
3.835720e+003, 3.486227e-004
3.837649e+003, 6.889920e-004
3.839577e+003, 2.722260e-005
3.841506e+003, -8.882649e-004
3.843434e+003, -9.619412e-004
3.845363e+003, -3.976357e-004
3.847291e+003, -1.206630e-004
3.849219e+003, -8.851982e-007
3.851148e+003, 7.652506e-004
3.853076e+003, 2.466873e-003
3.855005e+003, 1.594972e-003
3.856933e+003, -8.618204e-005
3.858862e+003, -1.134216e-003
3.860790e+003, -1.302667e-003
3.862719e+003, -7.046108e-004
3.864647e+003, -1.377613e-004
3.866576e+003, -4.135310e-004
3.868504e+003, 2.419427e-004
3.870433e+003, 4.912522e-004
3.872361e+003, -4.761204e-004
3.874290e+003, -2.406318e-004
3.876218e+003, 3.147237e-005
3.878146e+003, 3.896093e-004
3.880075e+003, 1.333638e-003
3.882003e+003, 6.070935e-004
3.883932e+003, 5.029531e-004
3.885860e+003, 3.076672e-004
3.887789e+003, -4.639343e-004
3.889717e+003, 5.938238e-005
3.891646e+003, 4.598037e-004
3.893574e+003, -1.386705e-004
3.895503e+003, -7.128461e-005
3.897431e+003, 5.674520e-004
3.899360e+003, 6.663034e-004
3.901288e+003, 2.479202e-004
3.903217e+003, -1.558624e-005
3.905145e+003, -6.694627e-004
3.907073e+003, -1.313376e-003
3.909002e+003, -4.609687e-004
3.910930e+003, 4.434795e-005
3.912859e+003, -3.953996e-004
3.914787e+003, -6.051849e-004
3.916716e+003, -2.976388e-004
3.918644e+003, -2.174608e-004
3.920573e+003, -1.164745e-003
3.922501e+003, -1.678829e-003
3.924430e+003, -9.143781e-004
3.926358e+003, -6.507649e-004
3.928287e+003, -1.258889e-003
3.930215e+003, -1.372227e-003
3.932144e+003, -7.133042e-004
3.934072e+003, -7.823524e-004
3.936000e+003, -6.762725e-004
3.937929e+003, -2.871317e-004
3.939857e+003, -3.661466e-004
3.941786e+003, -4.330826e-004
3.943714e+003, -2.650546e-004
3.945643e+003, -8.221132e-004
3.947571e+003, -1.084915e-003
3.949500e+003, -8.794922e-004
3.951428e+003, -5.227875e-004
3.953357e+003, -3.596459e-004
3.955285e+003, -4.233985e-004
3.957214e+003, -3.036942e-004
3.959142e+003, -3.228895e-004
3.961071e+003, -8.604798e-004
3.962999e+003, -1.323646e-003
3.964927e+003, -7.942832e-004
3.966856e+003, -1.326945e-004
3.968784e+003, -3.290945e-004
3.970713e+003, -1.043809e-003
3.972641e+003, -9.575177e-004
3.974570e+003, -1.009210e-003
3.976498e+003, -1.442518e-003
3.978427e+003, -1.438503e-003
3.980355e+003, -1.234442e-003
3.982284e+003, -1.639554e-003
3.984212e+003, -1.353095e-003
3.986141e+003, -1.086373e-003
3.988069e+003, -2.470875e-004
3.989998e+003, 2.136255e-004
3.991926e+003, -7.609722e-004
3.993854e+003, -9.518398e-004
3.995783e+003, -8.958197e-004
3.997711e+003, -1.145696e-003
##END=



