##NAMES=Dioptase
##RRUFFID=R040028
##IDEAL CHEMISTRY=Cu^2+^SiO_3_&#183;H_2_O
##LOCALITY=Tantara mine, Democratic Republic of the Congo
##OWNER=RRUFF
##SOURCE=University of Arizona Mineral Museum
##DESCRIPTION=Bluish green coarsely crystallized fragment
##STATUS=The identification of this mineral has been confirmed by X-ray diffraction and chemical analysis
##URL=rruff.info/R040028
##MEASURED CHEMISTRY=Cu_1.00_Si_1.00_O_3_Â·H_2_O; H_2_O estimated by difference
3.991926e+002, 0.000000e+000
4.011211e+002, 2.224419e-001
4.030496e+002, 2.235220e-001
4.049780e+002, 2.208409e-001
4.069065e+002, 2.259167e-001
4.088350e+002, 2.216750e-001
4.107634e+002, 2.186659e-001
4.126919e+002, 2.022790e-001
4.146204e+002, 1.686780e-001
4.165488e+002, 1.336367e-001
4.184773e+002, 1.106572e-001
4.204058e+002, 9.941175e-002
4.223342e+002, 9.535807e-002
4.242627e+002, 9.434169e-002
4.261912e+002, 9.862423e-002
4.281196e+002, 1.105563e-001
4.300481e+002, 1.224021e-001
4.319766e+002, 1.330198e-001
4.339050e+002, 1.424254e-001
4.358335e+002, 1.531230e-001
4.377620e+002, 1.671229e-001
4.396904e+002, 1.819975e-001
4.416189e+002, 1.977087e-001
4.435474e+002, 2.106712e-001
4.454758e+002, 2.246787e-001
4.474043e+002, 2.372859e-001
4.493328e+002, 2.470825e-001
4.512612e+002, 2.525704e-001
4.531897e+002, 2.582785e-001
4.551182e+002, 2.605282e-001
4.570466e+002, 2.490403e-001
4.589751e+002, 2.226117e-001
4.609036e+002, 1.930701e-001
4.628320e+002, 1.726068e-001
4.647605e+002, 1.660383e-001
4.666890e+002, 1.654981e-001
4.686174e+002, 1.679429e-001
4.705459e+002, 1.715248e-001
4.724744e+002, 1.756752e-001
4.744028e+002, 1.778369e-001
4.763313e+002, 1.791058e-001
4.782598e+002, 1.807337e-001
4.801882e+002, 1.832676e-001
4.821167e+002, 1.844163e-001
4.840452e+002, 1.867393e-001
4.859736e+002, 1.911973e-001
4.879021e+002, 1.965385e-001
4.898306e+002, 2.030399e-001
4.917590e+002, 2.108174e-001
4.936875e+002, 2.194495e-001
4.956160e+002, 2.302988e-001
4.975444e+002, 2.433405e-001
4.994729e+002, 2.547644e-001
5.014014e+002, 2.653201e-001
5.033298e+002, 2.757826e-001
5.052583e+002, 2.841076e-001
5.071868e+002, 2.899761e-001
5.091152e+002, 2.934207e-001
5.110437e+002, 2.937258e-001
5.129722e+002, 2.874011e-001
5.149006e+002, 2.751258e-001
5.168291e+002, 2.602452e-001
5.187576e+002, 2.428913e-001
5.206860e+002, 2.232886e-001
5.226145e+002, 2.043087e-001
5.245430e+002, 1.871856e-001
5.264714e+002, 1.713853e-001
5.283999e+002, 1.574447e-001
5.303284e+002, 1.464779e-001
5.322568e+002, 1.379471e-001
5.341853e+002, 1.317123e-001
5.361138e+002, 1.283656e-001
5.380422e+002, 1.272934e-001
5.399707e+002, 1.266604e-001
5.418992e+002, 1.269075e-001
5.438276e+002, 1.269090e-001
5.457561e+002, 1.252176e-001
5.476846e+002, 1.219388e-001
5.496130e+002, 1.185723e-001
5.515415e+002, 1.162224e-001
5.534700e+002, 1.158342e-001
5.553984e+002, 1.170630e-001
5.573269e+002, 1.210480e-001
5.592554e+002, 1.279948e-001
5.611838e+002, 1.389818e-001
5.631123e+002, 1.528155e-001
5.650408e+002, 1.682771e-001
5.669692e+002, 1.834826e-001
5.688977e+002, 1.952701e-001
5.708262e+002, 2.003307e-001
5.727546e+002, 1.972161e-001
5.746831e+002, 1.864812e-001
5.766116e+002, 1.713067e-001
5.785400e+002, 1.540909e-001
5.804685e+002, 1.369998e-001
5.823970e+002, 1.211910e-001
5.843254e+002, 1.071605e-001
5.862539e+002, 9.445655e-002
5.881824e+002, 8.324327e-002
5.901108e+002, 7.374206e-002
5.920393e+002, 6.596654e-002
5.939678e+002, 5.952679e-002
5.958962e+002, 5.456281e-002
5.978247e+002, 5.115460e-002
5.997532e+002, 4.927183e-002
6.016816e+002, 4.870075e-002
6.036101e+002, 4.963718e-002
6.055386e+002, 5.165391e-002
6.074670e+002, 5.367735e-002
6.093955e+002, 5.586594e-002
6.113240e+002, 5.689993e-002
6.132524e+002, 5.590453e-002
6.151809e+002, 5.369294e-002
6.171094e+002, 5.147140e-002
6.190378e+002, 4.918823e-002
6.209663e+002, 4.724041e-002
6.228948e+002, 4.538166e-002
6.248232e+002, 4.364546e-002
6.267517e+002, 4.223071e-002
6.286802e+002, 4.149198e-002
6.306086e+002, 4.064669e-002
6.325371e+002, 3.998201e-002
6.344656e+002, 3.953514e-002
6.363940e+002, 3.903284e-002
6.383225e+002, 3.883752e-002
6.402510e+002, 3.899407e-002
6.421794e+002, 3.913600e-002
6.441079e+002, 3.940203e-002
6.460364e+002, 3.943294e-002
6.479648e+002, 3.946125e-002
6.498933e+002, 3.944114e-002
6.518218e+002, 3.943464e-002
6.537502e+002, 3.982433e-002
6.556787e+002, 4.013586e-002
6.576072e+002, 4.043381e-002
6.595356e+002, 4.067346e-002
6.614641e+002, 4.109206e-002
6.633926e+002, 4.201194e-002
6.653210e+002, 4.308562e-002
6.672495e+002, 4.397796e-002
6.691780e+002, 4.521906e-002
6.711064e+002, 4.655911e-002
6.730349e+002, 4.803691e-002
6.749634e+002, 4.993293e-002
6.768918e+002, 5.181478e-002
6.788203e+002, 5.247437e-002
6.807488e+002, 5.172892e-002
6.826772e+002, 5.008631e-002
6.846057e+002, 4.844502e-002
6.865342e+002, 4.735163e-002
6.884626e+002, 4.699228e-002
6.903911e+002, 4.725892e-002
6.923196e+002, 4.779788e-002
6.942480e+002, 4.876284e-002
6.961765e+002, 5.004403e-002
6.981050e+002, 5.143847e-002
7.000334e+002, 5.290495e-002
7.019619e+002, 5.480547e-002
7.038904e+002, 5.694664e-002
7.058188e+002, 5.907254e-002
7.077473e+002, 6.121635e-002
7.096758e+002, 6.352485e-002
7.116042e+002, 6.580871e-002
7.135327e+002, 6.847602e-002
7.154612e+002, 7.128768e-002
7.173896e+002, 7.388952e-002
7.193181e+002, 7.619969e-002
7.212466e+002, 7.855734e-002
7.231750e+002, 8.086134e-002
7.251035e+002, 8.277193e-002
7.270320e+002, 8.425390e-002
7.289604e+002, 8.555946e-002
7.308889e+002, 8.648581e-002
7.328174e+002, 8.697717e-002
7.347458e+002, 8.776000e-002
7.366743e+002, 8.884852e-002
7.386028e+002, 8.966631e-002
7.405313e+002, 9.041333e-002
7.424597e+002, 9.158845e-002
7.443882e+002, 9.376318e-002
7.463167e+002, 9.625280e-002
7.482451e+002, 9.895914e-002
7.501736e+002, 1.027304e-001
7.521021e+002, 1.078266e-001
7.540305e+002, 1.137896e-001
7.559590e+002, 1.207054e-001
7.578875e+002, 1.286265e-001
7.598159e+002, 1.379372e-001
7.617444e+002, 1.486510e-001
7.636729e+002, 1.610264e-001
7.656013e+002, 1.746940e-001
7.675298e+002, 1.890306e-001
7.694583e+002, 2.026644e-001
7.713867e+002, 2.134831e-001
7.733152e+002, 2.202521e-001
7.752437e+002, 2.217992e-001
7.771721e+002, 2.175786e-001
7.791006e+002, 2.084829e-001
7.810291e+002, 1.962637e-001
7.829575e+002, 1.818811e-001
7.848860e+002, 1.658821e-001
7.868145e+002, 1.494996e-001
7.887429e+002, 1.334976e-001
7.906714e+002, 1.185906e-001
7.925999e+002, 1.050359e-001
7.945283e+002, 9.343366e-002
7.964568e+002, 8.415019e-002
7.983853e+002, 7.703856e-002
8.003137e+002, 7.162534e-002
8.022422e+002, 6.814353e-002
8.041707e+002, 6.588296e-002
8.060991e+002, 6.426672e-002
8.080276e+002, 6.340224e-002
8.099561e+002, 6.327737e-002
8.118845e+002, 6.354082e-002
8.138130e+002, 6.389943e-002
8.157415e+002, 6.406590e-002
8.176699e+002, 6.477377e-002
8.195984e+002, 6.591210e-002
8.215269e+002, 6.706683e-002
8.234553e+002, 6.802755e-002
8.253838e+002, 6.921351e-002
8.273123e+002, 7.068988e-002
8.292407e+002, 7.216039e-002
8.311692e+002, 7.352363e-002
8.330977e+002, 7.502065e-002
8.350261e+002, 7.648610e-002
8.369546e+002, 7.816455e-002
8.388831e+002, 7.983245e-002
8.408115e+002, 8.171942e-002
8.427400e+002, 8.349042e-002
8.446685e+002, 8.574886e-002
8.465969e+002, 8.809771e-002
8.485254e+002, 9.029054e-002
8.504539e+002, 9.265099e-002
8.523823e+002, 9.539884e-002
8.543108e+002, 9.887572e-002
8.562393e+002, 1.031977e-001
8.581677e+002, 1.077604e-001
8.600962e+002, 1.128320e-001
8.620247e+002, 1.186140e-001
8.639531e+002, 1.253596e-001
8.658816e+002, 1.329963e-001
8.678101e+002, 1.418144e-001
8.697385e+002, 1.517900e-001
8.716670e+002, 1.631472e-001
8.735955e+002, 1.756005e-001
8.755239e+002, 1.895179e-001
8.774524e+002, 2.042752e-001
8.793809e+002, 2.192543e-001
8.813093e+002, 2.331223e-001
8.832378e+002, 2.434516e-001
8.851663e+002, 2.478509e-001
8.870947e+002, 2.454389e-001
8.890232e+002, 2.378325e-001
8.909517e+002, 2.284152e-001
8.928801e+002, 2.200590e-001
8.948085e+002, 2.150005e-001
8.967370e+002, 2.144650e-001
8.986655e+002, 2.184235e-001
9.005939e+002, 2.260344e-001
9.025224e+002, 2.365265e-001
9.044509e+002, 2.492349e-001
9.063793e+002, 2.634444e-001
9.083078e+002, 2.786663e-001
9.102363e+002, 2.944476e-001
9.121647e+002, 3.107657e-001
9.140932e+002, 3.277409e-001
9.160217e+002, 3.444980e-001
9.179501e+002, 3.609714e-001
9.198786e+002, 3.778504e-001
9.218071e+002, 3.942427e-001
9.237355e+002, 4.088556e-001
9.256640e+002, 4.218010e-001
9.275925e+002, 4.321852e-001
9.295209e+002, 4.376533e-001
9.314494e+002, 4.372666e-001
9.333779e+002, 4.305603e-001
9.353063e+002, 4.182018e-001
9.372348e+002, 4.027985e-001
9.391633e+002, 3.879941e-001
9.410917e+002, 3.786958e-001
9.430202e+002, 3.784061e-001
9.449487e+002, 3.857520e-001
9.468771e+002, 3.956264e-001
9.488056e+002, 4.021388e-001
9.507341e+002, 4.028243e-001
9.526625e+002, 3.982740e-001
9.545910e+002, 3.893367e-001
9.565195e+002, 3.773232e-001
9.584479e+002, 3.630562e-001
9.603764e+002, 3.469704e-001
9.623049e+002, 3.304042e-001
9.642333e+002, 3.141392e-001
9.661618e+002, 2.983784e-001
9.680903e+002, 2.833109e-001
9.700187e+002, 2.694700e-001
9.719472e+002, 2.573289e-001
9.738757e+002, 2.476622e-001
9.758041e+002, 2.408892e-001
9.777326e+002, 2.376889e-001
9.796611e+002, 2.390974e-001
9.815895e+002, 2.454352e-001
9.835180e+002, 2.561269e-001
9.854465e+002, 2.697680e-001
9.873749e+002, 2.849973e-001
9.893034e+002, 2.997786e-001
9.912319e+002, 3.112769e-001
9.931603e+002, 3.170362e-001
9.950888e+002, 3.153144e-001
9.970173e+002, 3.061324e-001
9.989457e+002, 2.918018e-001
1.000874e+003, 2.749989e-001
1.002803e+003, 2.579360e-001
1.004731e+003, 2.413974e-001
1.006660e+003, 2.259367e-001
1.008588e+003, 2.115065e-001
1.010517e+003, 1.985033e-001
1.012445e+003, 1.865572e-001
1.014373e+003, 1.754558e-001
1.016302e+003, 1.652967e-001
1.018230e+003, 1.562274e-001
1.020159e+003, 1.482661e-001
1.022087e+003, 1.415037e-001
1.024016e+003, 1.349956e-001
1.025944e+003, 1.284585e-001
1.027873e+003, 1.219147e-001
1.029801e+003, 1.153984e-001
1.031730e+003, 1.089638e-001
1.033658e+003, 1.028080e-001
1.035587e+003, 9.648378e-002
1.037515e+003, 9.024756e-002
1.039444e+003, 8.420950e-002
1.041372e+003, 7.812658e-002
1.043301e+003, 7.198633e-002
1.045229e+003, 6.617112e-002
1.047157e+003, 6.090255e-002
1.049086e+003, 5.625632e-002
1.051014e+003, 5.195613e-002
1.052943e+003, 4.797655e-002
1.054871e+003, 4.465173e-002
1.056800e+003, 4.199203e-002
1.058728e+003, 3.949279e-002
1.060657e+003, 3.739121e-002
1.062585e+003, 3.562532e-002
1.064514e+003, 3.390203e-002
1.066442e+003, 3.223574e-002
1.068371e+003, 3.091872e-002
1.070299e+003, 2.941632e-002
1.072228e+003, 2.802554e-002
1.074156e+003, 2.695294e-002
1.076084e+003, 2.596188e-002
1.078013e+003, 2.503022e-002
1.079941e+003, 2.439316e-002
1.081870e+003, 2.379527e-002
1.083798e+003, 2.311196e-002
1.085727e+003, 2.251921e-002
1.087655e+003, 2.217278e-002
1.089584e+003, 2.180657e-002
1.091512e+003, 2.144779e-002
1.093441e+003, 2.111548e-002
1.095369e+003, 2.075659e-002
1.097298e+003, 2.023778e-002
1.099226e+003, 1.989227e-002
1.101155e+003, 1.952124e-002
1.103083e+003, 1.925255e-002
1.105011e+003, 1.885125e-002
1.106940e+003, 1.855543e-002
1.108868e+003, 1.816666e-002
1.110797e+003, 1.794973e-002
1.112725e+003, 1.782636e-002
1.114654e+003, 1.774161e-002
1.116582e+003, 1.742124e-002
1.118511e+003, 1.731139e-002
1.120439e+003, 1.732097e-002
1.122368e+003, 1.724531e-002
1.124296e+003, 1.698670e-002
1.126225e+003, 1.676931e-002
1.128153e+003, 1.661481e-002
1.130082e+003, 1.648666e-002
1.132010e+003, 1.638231e-002
1.133938e+003, 1.643640e-002
1.135867e+003, 1.619631e-002
1.137795e+003, 1.575599e-002
1.139724e+003, 1.542309e-002
1.141652e+003, 1.537036e-002
1.143581e+003, 1.501258e-002
1.145509e+003, 1.456438e-002
1.147438e+003, 1.437253e-002
1.149366e+003, 1.437411e-002
1.151295e+003, 1.409526e-002
1.153223e+003, 1.376628e-002
1.155152e+003, 1.350664e-002
1.157080e+003, 1.335470e-002
1.159009e+003, 1.315974e-002
1.160937e+003, 1.297501e-002
1.162865e+003, 1.271516e-002
1.164794e+003, 1.266204e-002
1.166722e+003, 1.246005e-002
1.168651e+003, 1.235159e-002
1.170579e+003, 1.228837e-002
1.172508e+003, 1.212954e-002
1.174436e+003, 1.197732e-002
1.176365e+003, 1.173277e-002
1.178293e+003, 1.155018e-002
1.180222e+003, 1.159712e-002
1.182150e+003, 1.157440e-002
1.184079e+003, 1.137018e-002
1.186007e+003, 1.110943e-002
1.187936e+003, 1.094131e-002
1.189864e+003, 1.076151e-002
1.191792e+003, 1.049787e-002
1.193721e+003, 1.031276e-002
1.195649e+003, 1.028133e-002
1.197578e+003, 9.997680e-003
1.199506e+003, 9.816544e-003
1.201435e+003, 9.698922e-003
1.203363e+003, 9.603240e-003
1.205292e+003, 9.500070e-003
1.207220e+003, 9.413894e-003
1.209149e+003, 9.301886e-003
1.211077e+003, 9.130541e-003
1.213006e+003, 9.037205e-003
1.214934e+003, 9.075897e-003
1.216863e+003, 8.977267e-003
1.218791e+003, 8.985577e-003
1.220719e+003, 9.017154e-003
1.222648e+003, 9.159520e-003
1.224576e+003, 9.229368e-003
1.226505e+003, 9.366230e-003
1.228433e+003, 9.428927e-003
1.230362e+003, 9.440697e-003
1.232290e+003, 9.052403e-003
1.234219e+003, 8.729112e-003
1.236147e+003, 8.610548e-003
1.238076e+003, 8.559578e-003
1.240004e+003, 8.372401e-003
1.241933e+003, 8.334056e-003
1.243861e+003, 8.284048e-003
1.245790e+003, 8.155066e-003
1.247718e+003, 8.103729e-003
1.249646e+003, 8.067669e-003
1.251575e+003, 7.929748e-003
1.253503e+003, 7.826334e-003
1.255432e+003, 7.855969e-003
1.257360e+003, 7.993496e-003
1.259289e+003, 8.277308e-003
1.261217e+003, 8.576393e-003
1.263146e+003, 8.583891e-003
1.265074e+003, 8.617602e-003
1.267003e+003, 8.696288e-003
1.268931e+003, 8.667492e-003
1.270860e+003, 8.364765e-003
1.272788e+003, 8.296026e-003
1.274717e+003, 8.445167e-003
1.276645e+003, 8.512707e-003
1.278573e+003, 8.306895e-003
1.280502e+003, 8.366454e-003
1.282430e+003, 8.670383e-003
1.284359e+003, 8.779600e-003
1.286287e+003, 8.904627e-003
1.288216e+003, 9.258050e-003
1.290144e+003, 9.721038e-003
1.292073e+003, 1.021886e-002
1.294001e+003, 1.082239e-002
1.295930e+003, 1.153579e-002
1.297858e+003, 1.149243e-002
1.299787e+003, 1.110536e-002
1.301715e+003, 1.083075e-002
1.303644e+003, 1.050509e-002
1.305572e+003, 9.960041e-003
1.307500e+003, 9.832667e-003
1.309429e+003, 9.720002e-003
1.311357e+003, 9.781787e-003
1.313286e+003, 9.849870e-003
1.315214e+003, 9.795391e-003
1.317143e+003, 9.602192e-003
1.319071e+003, 9.562559e-003
1.321000e+003, 9.621179e-003
1.322928e+003, 9.603798e-003
1.324857e+003, 9.749894e-003
1.326785e+003, 9.946049e-003
1.328714e+003, 9.943306e-003
1.330642e+003, 1.002614e-002
1.332571e+003, 1.017358e-002
1.334499e+003, 1.048201e-002
1.336427e+003, 1.072594e-002
1.338356e+003, 1.087997e-002
1.340284e+003, 1.081805e-002
1.342213e+003, 1.077200e-002
1.344141e+003, 1.068627e-002
1.346070e+003, 1.069647e-002
1.347998e+003, 1.061441e-002
1.349927e+003, 1.067163e-002
1.351855e+003, 1.080731e-002
1.353784e+003, 1.081391e-002
1.355712e+003, 1.060356e-002
1.357641e+003, 1.069069e-002
1.359569e+003, 1.093519e-002
1.361498e+003, 1.093595e-002
1.363426e+003, 1.084951e-002
1.365354e+003, 1.094655e-002
1.367283e+003, 1.105574e-002
1.369211e+003, 1.113411e-002
1.371140e+003, 1.123187e-002
1.373068e+003, 1.122522e-002
1.374997e+003, 1.117005e-002
1.376925e+003, 1.127344e-002
1.378854e+003, 1.127200e-002
1.380782e+003, 1.138348e-002
1.382711e+003, 1.139784e-002
1.384639e+003, 1.148752e-002
1.386568e+003, 1.149013e-002
1.388496e+003, 1.142433e-002
1.390424e+003, 1.143639e-002
1.392353e+003, 1.160507e-002
1.394281e+003, 1.158828e-002
1.396210e+003, 1.159949e-002
1.398138e+003, 1.159261e-002
1.400067e+003, 1.166052e-002
1.401995e+003, 1.166067e-002
1.403924e+003, 1.164446e-002
1.405852e+003, 1.181526e-002
1.407781e+003, 1.202657e-002
1.409709e+003, 1.195797e-002
1.411638e+003, 1.183059e-002
1.413566e+003, 1.168858e-002
1.415495e+003, 1.175414e-002
1.417423e+003, 1.191618e-002
1.419351e+003, 1.187074e-002
1.421280e+003, 1.163996e-002
1.423208e+003, 1.159237e-002
1.425137e+003, 1.148025e-002
1.427065e+003, 1.138269e-002
1.428994e+003, 1.133051e-002
1.430922e+003, 1.128202e-002
1.432851e+003, 1.129021e-002
1.434779e+003, 1.139550e-002
1.436708e+003, 1.142493e-002
1.438636e+003, 1.146041e-002
1.440565e+003, 1.121889e-002
1.442493e+003, 1.116578e-002
1.444422e+003, 1.110983e-002
1.446350e+003, 1.107471e-002
1.448278e+003, 1.114931e-002
1.450207e+003, 1.119335e-002
1.452135e+003, 1.115813e-002
1.454064e+003, 1.125102e-002
1.455992e+003, 1.126870e-002
1.457921e+003, 1.140338e-002
1.459849e+003, 1.129825e-002
1.461778e+003, 1.113841e-002
1.463706e+003, 1.089383e-002
1.465635e+003, 1.094366e-002
1.467563e+003, 1.123890e-002
1.469492e+003, 1.153472e-002
1.471420e+003, 1.165491e-002
1.473349e+003, 1.162593e-002
1.475277e+003, 1.169327e-002
1.477205e+003, 1.176603e-002
1.479134e+003, 1.164418e-002
1.481062e+003, 1.177535e-002
1.482991e+003, 1.184638e-002
1.484919e+003, 1.184686e-002
1.486848e+003, 1.178131e-002
1.488776e+003, 1.189044e-002
1.490705e+003, 1.215119e-002
1.492633e+003, 1.230641e-002
1.494562e+003, 1.230212e-002
1.496490e+003, 1.238511e-002
1.498419e+003, 1.246352e-002
1.500347e+003, 1.251554e-002
1.502276e+003, 1.261032e-002
1.504204e+003, 1.274303e-002
1.506132e+003, 1.281378e-002
1.508061e+003, 1.274489e-002
1.509989e+003, 1.271838e-002
1.511918e+003, 1.295449e-002
1.513846e+003, 1.320301e-002
1.515775e+003, 1.333882e-002
1.517703e+003, 1.337124e-002
1.519632e+003, 1.356141e-002
1.521560e+003, 1.360533e-002
1.523489e+003, 1.380269e-002
1.525417e+003, 1.402740e-002
1.527346e+003, 1.401681e-002
1.529274e+003, 1.402239e-002
1.531203e+003, 1.423234e-002
1.533131e+003, 1.443069e-002
1.535059e+003, 1.478001e-002
1.536988e+003, 1.504678e-002
1.538916e+003, 1.534756e-002
1.540845e+003, 1.540242e-002
1.542773e+003, 1.567559e-002
1.544702e+003, 1.600422e-002
1.546630e+003, 1.618975e-002
1.548559e+003, 1.641574e-002
1.550487e+003, 1.668855e-002
1.552416e+003, 1.699352e-002
1.554344e+003, 1.731189e-002
1.556273e+003, 1.733432e-002
1.558201e+003, 1.753063e-002
1.560130e+003, 1.778536e-002
1.562058e+003, 1.800880e-002
1.563986e+003, 1.822098e-002
1.565915e+003, 1.858409e-002
1.567843e+003, 1.885960e-002
1.569772e+003, 1.907618e-002
1.571700e+003, 1.926164e-002
1.573629e+003, 1.956786e-002
1.575557e+003, 1.958717e-002
1.577486e+003, 1.976537e-002
1.579414e+003, 1.991386e-002
1.581343e+003, 1.989345e-002
1.583271e+003, 1.984746e-002
1.585200e+003, 1.994748e-002
1.587128e+003, 2.002529e-002
1.589057e+003, 2.024354e-002
1.590985e+003, 2.010060e-002
1.592913e+003, 2.006509e-002
1.594842e+003, 2.011815e-002
1.596770e+003, 1.996636e-002
1.598699e+003, 1.985631e-002
1.600627e+003, 1.989019e-002
1.602556e+003, 1.993443e-002
1.604484e+003, 1.983391e-002
1.606413e+003, 1.950752e-002
1.608341e+003, 1.933811e-002
1.610270e+003, 1.925259e-002
1.612198e+003, 1.900708e-002
1.614127e+003, 1.873450e-002
1.616055e+003, 1.882249e-002
1.617984e+003, 1.857143e-002
1.619912e+003, 1.836858e-002
1.621840e+003, 1.825648e-002
1.623769e+003, 1.809550e-002
1.625697e+003, 1.819730e-002
1.627626e+003, 1.813721e-002
1.629554e+003, 1.769949e-002
1.631483e+003, 1.742547e-002
1.633411e+003, 1.735366e-002
1.635340e+003, 1.756041e-002
1.637268e+003, 1.735322e-002
1.639197e+003, 1.721756e-002
1.641125e+003, 1.711064e-002
1.643054e+003, 1.684970e-002
1.644982e+003, 1.661437e-002
1.646911e+003, 1.650702e-002
1.648839e+003, 1.634691e-002
1.650767e+003, 1.628371e-002
1.652696e+003, 1.611275e-002
1.654624e+003, 1.598814e-002
1.656553e+003, 1.594756e-002
1.658481e+003, 1.589764e-002
1.660410e+003, 1.565098e-002
1.662338e+003, 1.546953e-002
1.664267e+003, 1.553029e-002
1.666195e+003, 1.555714e-002
1.668124e+003, 1.538531e-002
1.670052e+003, 1.533629e-002
1.671981e+003, 1.522087e-002
1.673909e+003, 1.521339e-002
1.675838e+003, 1.494503e-002
1.677766e+003, 1.480273e-002
1.679694e+003, 1.491631e-002
1.681623e+003, 1.538039e-002
1.683551e+003, 1.547267e-002
1.685480e+003, 1.497931e-002
1.687408e+003, 1.439196e-002
1.689337e+003, 1.395678e-002
1.691265e+003, 1.361355e-002
1.693194e+003, 1.344289e-002
1.695122e+003, 1.351747e-002
1.697051e+003, 1.318689e-002
1.698979e+003, 1.277423e-002
1.700908e+003, 1.259558e-002
1.702836e+003, 1.213434e-002
1.704765e+003, 1.165811e-002
1.706693e+003, 1.118677e-002
1.708621e+003, 1.101667e-002
1.710550e+003, 1.106212e-002
1.712478e+003, 1.086366e-002
1.714407e+003, 1.077266e-002
1.716335e+003, 1.084190e-002
1.718264e+003, 1.040260e-002
1.720192e+003, 9.802569e-003
1.722121e+003, 9.498360e-003
1.724049e+003, 9.183981e-003
1.725978e+003, 9.018101e-003
1.727906e+003, 9.000420e-003
1.729835e+003, 8.788444e-003
1.731763e+003, 8.609758e-003
1.733692e+003, 8.343920e-003
1.735620e+003, 8.253949e-003
1.737548e+003, 8.451372e-003
1.739477e+003, 8.539849e-003
1.741405e+003, 8.315697e-003
1.743334e+003, 8.374605e-003
1.745262e+003, 8.250860e-003
1.747191e+003, 8.382535e-003
1.749119e+003, 8.747801e-003
1.751048e+003, 9.189651e-003
1.752976e+003, 9.120469e-003
1.754905e+003, 9.010575e-003
1.756833e+003, 9.270385e-003
1.758762e+003, 9.462321e-003
1.760690e+003, 9.337328e-003
1.762619e+003, 9.273895e-003
1.764547e+003, 9.101669e-003
1.766475e+003, 8.955502e-003
1.768404e+003, 8.718468e-003
1.770332e+003, 8.907758e-003
1.772261e+003, 8.871008e-003
1.774189e+003, 8.757572e-003
1.776118e+003, 8.681201e-003
1.778046e+003, 8.699682e-003
1.779975e+003, 8.996841e-003
1.781903e+003, 9.148644e-003
1.783832e+003, 9.069077e-003
1.785760e+003, 8.890505e-003
1.787689e+003, 9.061714e-003
1.789617e+003, 9.301236e-003
1.791546e+003, 9.437788e-003
1.793474e+003, 9.225665e-003
1.795402e+003, 8.774603e-003
1.797331e+003, 8.729102e-003
1.799259e+003, 8.825828e-003
1.801188e+003, 9.067883e-003
1.803116e+003, 8.900880e-003
1.805045e+003, 8.715395e-003
1.806973e+003, 8.676274e-003
1.808902e+003, 8.809838e-003
1.810830e+003, 8.620720e-003
1.812759e+003, 8.281834e-003
1.814687e+003, 8.184375e-003
1.816616e+003, 7.952019e-003
1.818544e+003, 7.803745e-003
1.820473e+003, 8.176151e-003
1.822401e+003, 8.119044e-003
1.824329e+003, 8.134291e-003
1.826258e+003, 8.121615e-003
1.828186e+003, 8.337677e-003
1.830115e+003, 8.263138e-003
1.832043e+003, 8.397779e-003
1.833972e+003, 8.538109e-003
1.835900e+003, 8.148571e-003
1.837829e+003, 7.845897e-003
1.839757e+003, 7.791956e-003
1.841686e+003, 7.765554e-003
1.843614e+003, 7.909829e-003
1.845543e+003, 7.932740e-003
1.847471e+003, 7.938428e-003
1.849400e+003, 7.822826e-003
1.851328e+003, 8.068440e-003
1.853256e+003, 8.395281e-003
1.855185e+003, 8.419668e-003
1.857113e+003, 8.018012e-003
1.859042e+003, 7.717945e-003
1.860970e+003, 7.367077e-003
1.862899e+003, 7.753711e-003
1.864827e+003, 8.003822e-003
1.866756e+003, 8.047393e-003
1.868684e+003, 8.122744e-003
1.870613e+003, 7.897710e-003
1.872541e+003, 7.578564e-003
1.874470e+003, 7.411293e-003
1.876398e+003, 7.212588e-003
1.878327e+003, 7.534007e-003
1.880255e+003, 8.023784e-003
1.882183e+003, 7.912107e-003
1.884112e+003, 7.855288e-003
1.886040e+003, 8.135247e-003
1.887969e+003, 7.610118e-003
1.889897e+003, 7.561957e-003
1.891826e+003, 7.427720e-003
1.893754e+003, 7.281380e-003
1.895683e+003, 6.821763e-003
1.897611e+003, 6.948343e-003
1.899540e+003, 7.298540e-003
1.901468e+003, 7.447136e-003
1.903397e+003, 7.200046e-003
1.905325e+003, 7.179001e-003
1.907254e+003, 6.828156e-003
1.909182e+003, 6.333244e-003
1.911110e+003, 6.438741e-003
1.913039e+003, 6.606742e-003
1.914967e+003, 6.564922e-003
1.916896e+003, 7.194529e-003
1.918824e+003, 7.712847e-003
1.920753e+003, 8.070231e-003
1.922681e+003, 7.239437e-003
1.924610e+003, 6.277557e-003
1.926538e+003, 5.534011e-003
1.928467e+003, 5.845970e-003
1.930395e+003, 5.734469e-003
1.932324e+003, 6.279426e-003
1.934252e+003, 6.962600e-003
1.936181e+003, 7.179089e-003
1.938109e+003, 6.388095e-003
1.940037e+003, 5.886088e-003
1.941966e+003, 6.112986e-003
1.943894e+003, 5.426774e-003
1.945823e+003, 5.309007e-003
1.947751e+003, 6.664737e-003
1.949680e+003, 6.528297e-003
1.951608e+003, 5.836798e-003
1.953537e+003, 4.217794e-003
1.955465e+003, 3.603522e-003
1.957394e+003, 2.742953e-003
1.959322e+003, 2.921783e-003
1.961251e+003, 3.991925e-003
1.963179e+003, 4.992351e-003
1.965108e+003, 5.224418e-003
1.967036e+003, 4.387113e-003
1.968964e+003, 2.967252e-003
1.970893e+003, 2.793309e-003
1.972821e+003, 1.786426e-003
1.974750e+003, 1.691268e-003
1.976678e+003, 2.391118e-003
1.978607e+003, 3.134153e-003
1.980535e+003, 2.745545e-003
1.982464e+003, 3.483478e-003
1.984392e+003, 3.939467e-003
1.986321e+003, 3.608348e-003
1.988249e+003, 4.163293e-003
1.990178e+003, 4.517591e-003
1.992106e+003, 3.406245e-003
1.994035e+003, 3.524699e-003
1.995963e+003, 3.882975e-003
1.997891e+003, 3.991661e-003
1.999820e+003, 4.157686e-003
2.001748e+003, 3.738874e-003
2.003677e+003, 2.409579e-003
2.005605e+003, 1.603023e-003
2.007534e+003, 1.071273e-003
2.009462e+003, 2.647040e-003
2.011391e+003, 3.649525e-003
2.013319e+003, 3.911637e-003
2.015248e+003, 3.820547e-003
2.017176e+003, 3.622837e-003
2.019105e+003, 4.668918e-003
2.021033e+003, 4.961967e-003
2.022962e+003, 3.506562e-003
2.024890e+003, 3.165488e-003
2.026818e+003, 2.913299e-003
2.028747e+003, 2.458384e-003
2.030675e+003, 2.613491e-003
2.032604e+003, 4.479764e-003
2.034532e+003, 5.517475e-003
2.036461e+003, 5.503556e-003
2.038389e+003, 3.834354e-003
2.040318e+003, 4.402182e-003
2.042246e+003, 5.265588e-003
2.044175e+003, 5.422650e-003
2.046103e+003, 6.368685e-003
2.048032e+003, 7.275894e-003
2.049960e+003, 7.381568e-003
2.051889e+003, 8.125419e-003
2.053817e+003, 8.342328e-003
2.055746e+003, 7.571438e-003
2.057674e+003, 7.672815e-003
2.059603e+003, 8.492445e-003
2.061531e+003, 8.477017e-003
2.063459e+003, 8.672979e-003
2.065388e+003, 8.542893e-003
2.067316e+003, 7.936856e-003
2.069245e+003, 8.608130e-003
2.071173e+003, 8.687866e-003
2.073102e+003, 8.805474e-003
2.075030e+003, 9.658881e-003
2.076959e+003, 9.648171e-003
2.078887e+003, 1.025838e-002
2.080816e+003, 1.071939e-002
2.082744e+003, 1.077737e-002
2.084673e+003, 1.112643e-002
2.086601e+003, 1.099738e-002
2.088530e+003, 1.121820e-002
2.090458e+003, 1.059819e-002
2.092386e+003, 9.894261e-003
2.094315e+003, 1.064674e-002
2.096243e+003, 1.050560e-002
2.098172e+003, 1.025910e-002
2.100100e+003, 1.072184e-002
2.102029e+003, 1.155326e-002
2.103957e+003, 1.228059e-002
2.105886e+003, 1.271436e-002
2.107814e+003, 1.331809e-002
2.109743e+003, 1.298527e-002
2.111671e+003, 1.140865e-002
2.113600e+003, 1.115519e-002
2.115528e+003, 1.093331e-002
2.117457e+003, 1.037680e-002
2.119385e+003, 1.002198e-002
2.121313e+003, 1.091149e-002
2.123242e+003, 1.094618e-002
2.125170e+003, 1.068197e-002
2.127099e+003, 1.118769e-002
2.129027e+003, 1.128073e-002
2.130956e+003, 9.991184e-003
2.132884e+003, 1.018091e-002
2.134813e+003, 8.922706e-003
2.136741e+003, 9.058084e-003
2.138670e+003, 1.061262e-002
2.140598e+003, 1.164162e-002
2.142527e+003, 1.119905e-002
2.144455e+003, 1.017234e-002
2.146384e+003, 9.553803e-003
2.148312e+003, 9.777869e-003
2.150240e+003, 8.763560e-003
2.152169e+003, 9.454346e-003
2.154097e+003, 8.532406e-003
2.156026e+003, 7.372590e-003
2.157954e+003, 9.961212e-003
2.159883e+003, 1.250777e-002
2.161811e+003, 1.225380e-002
2.163740e+003, 1.191934e-002
2.165668e+003, 1.215426e-002
2.167597e+003, 1.249960e-002
2.169525e+003, 1.264323e-002
2.171454e+003, 1.171506e-002
2.173382e+003, 1.121230e-002
2.175311e+003, 1.162108e-002
2.177239e+003, 1.109934e-002
2.179167e+003, 1.191599e-002
2.181096e+003, 1.071728e-002
2.183024e+003, 1.208578e-002
2.184953e+003, 1.295658e-002
2.186881e+003, 1.226266e-002
2.188810e+003, 1.239632e-002
2.190738e+003, 1.222340e-002
2.192667e+003, 1.110756e-002
2.194595e+003, 1.153713e-002
2.196524e+003, 1.202939e-002
2.198452e+003, 1.085752e-002
2.200381e+003, 1.046207e-002
2.202309e+003, 1.213903e-002
2.204238e+003, 1.207577e-002
2.206166e+003, 1.155682e-002
2.208094e+003, 1.236856e-002
2.210023e+003, 1.185336e-002
2.211951e+003, 1.090587e-002
2.213880e+003, 1.140005e-002
2.215808e+003, 1.212651e-002
2.217737e+003, 1.174401e-002
2.219665e+003, 1.186754e-002
2.221594e+003, 1.282773e-002
2.223522e+003, 1.222274e-002
2.225451e+003, 1.283916e-002
2.227379e+003, 1.344729e-002
2.229308e+003, 1.301645e-002
2.231236e+003, 1.187491e-002
2.233165e+003, 1.167119e-002
2.235093e+003, 1.245601e-002
2.237021e+003, 1.344409e-002
2.238950e+003, 1.235442e-002
2.240878e+003, 1.221069e-002
2.242807e+003, 1.252330e-002
2.244735e+003, 1.276697e-002
2.246664e+003, 1.302098e-002
2.248592e+003, 1.358071e-002
2.250521e+003, 1.378103e-002
2.252449e+003, 1.249875e-002
2.254378e+003, 1.217056e-002
2.256306e+003, 1.270954e-002
2.258235e+003, 1.212055e-002
2.260163e+003, 1.172103e-002
2.262092e+003, 1.293866e-002
2.264020e+003, 1.341787e-002
2.265948e+003, 1.364122e-002
2.267877e+003, 1.402616e-002
2.269805e+003, 1.290703e-002
2.271734e+003, 1.282252e-002
2.273662e+003, 1.407661e-002
2.275591e+003, 1.507298e-002
2.277519e+003, 1.502768e-002
2.279448e+003, 1.478270e-002
2.281376e+003, 1.490125e-002
2.283305e+003, 1.488581e-002
2.285233e+003, 1.446765e-002
2.287162e+003, 1.409146e-002
2.289090e+003, 1.430992e-002
2.291019e+003, 1.487353e-002
2.292947e+003, 1.518045e-002
2.294875e+003, 1.556341e-002
2.296804e+003, 1.447303e-002
2.298732e+003, 1.411817e-002
2.300661e+003, 1.433863e-002
2.302589e+003, 1.383447e-002
2.304518e+003, 1.425624e-002
2.306446e+003, 1.466088e-002
2.308375e+003, 1.392825e-002
2.310303e+003, 1.353967e-002
2.312232e+003, 1.349592e-002
2.314160e+003, 1.375278e-002
2.316089e+003, 1.446965e-002
2.318017e+003, 1.507062e-002
2.319946e+003, 1.539017e-002
2.321874e+003, 1.572134e-002
2.323802e+003, 1.523884e-002
2.325731e+003, 1.439598e-002
2.327659e+003, 1.401104e-002
2.329588e+003, 1.401733e-002
2.331516e+003, 1.372036e-002
2.333445e+003, 1.368813e-002
2.335373e+003, 1.382910e-002
2.337302e+003, 1.394879e-002
2.339230e+003, 1.388573e-002
2.341159e+003, 1.430720e-002
2.343087e+003, 1.451907e-002
2.345016e+003, 1.393094e-002
2.346944e+003, 1.357406e-002
2.348873e+003, 1.385381e-002
2.350801e+003, 1.401473e-002
2.352729e+003, 1.354132e-002
2.354658e+003, 1.375768e-002
2.356586e+003, 1.414755e-002
2.358515e+003, 1.424589e-002
2.360443e+003, 1.366878e-002
2.362372e+003, 1.329037e-002
2.364300e+003, 1.327035e-002
2.366229e+003, 1.316816e-002
2.368157e+003, 1.354058e-002
2.370086e+003, 1.397398e-002
2.372014e+003, 1.378962e-002
2.373942e+003, 1.355102e-002
2.375871e+003, 1.393555e-002
2.377799e+003, 1.448276e-002
2.379728e+003, 1.476010e-002
2.381656e+003, 1.412195e-002
2.383585e+003, 1.376436e-002
2.385513e+003, 1.416853e-002
2.387442e+003, 1.463591e-002
2.389370e+003, 1.459346e-002
2.391299e+003, 1.471541e-002
2.393227e+003, 1.432320e-002
2.395156e+003, 1.429933e-002
2.397084e+003, 1.423234e-002
2.399012e+003, 1.401882e-002
2.400941e+003, 1.414153e-002
2.402869e+003, 1.417161e-002
2.404798e+003, 1.366707e-002
2.406726e+003, 1.432685e-002
2.408655e+003, 1.500880e-002
2.410583e+003, 1.498849e-002
2.412512e+003, 1.500964e-002
2.414440e+003, 1.515644e-002
2.416369e+003, 1.496769e-002
2.418297e+003, 1.483659e-002
2.420226e+003, 1.369925e-002
2.422154e+003, 1.414030e-002
2.424083e+003, 1.491135e-002
2.426011e+003, 1.458361e-002
2.427939e+003, 1.431888e-002
2.429868e+003, 1.424367e-002
2.431796e+003, 1.404714e-002
2.433725e+003, 1.416738e-002
2.435653e+003, 1.482938e-002
2.437582e+003, 1.551649e-002
2.439510e+003, 1.544347e-002
2.441439e+003, 1.550862e-002
2.443367e+003, 1.516226e-002
2.445296e+003, 1.499679e-002
2.447224e+003, 1.507836e-002
2.449153e+003, 1.523084e-002
2.451081e+003, 1.516424e-002
2.453010e+003, 1.540275e-002
2.454938e+003, 1.573015e-002
2.456866e+003, 1.524519e-002
2.458795e+003, 1.498547e-002
2.460723e+003, 1.440444e-002
2.462652e+003, 1.381497e-002
2.464580e+003, 1.428963e-002
2.466509e+003, 1.514636e-002
2.468437e+003, 1.545182e-002
2.470366e+003, 1.470980e-002
2.472294e+003, 1.454208e-002
2.474223e+003, 1.508655e-002
2.476151e+003, 1.507701e-002
2.478080e+003, 1.424167e-002
2.480008e+003, 1.459420e-002
2.481937e+003, 1.501917e-002
2.483865e+003, 1.470065e-002
2.485793e+003, 1.496742e-002
2.487722e+003, 1.551817e-002
2.489650e+003, 1.570419e-002
2.491579e+003, 1.545320e-002
2.493507e+003, 1.543482e-002
2.495436e+003, 1.528473e-002
2.497364e+003, 1.497567e-002
2.499293e+003, 1.486264e-002
2.501221e+003, 1.502812e-002
2.503150e+003, 1.476492e-002
2.505078e+003, 1.501822e-002
2.507007e+003, 1.529082e-002
2.508935e+003, 1.464780e-002
2.510864e+003, 1.432983e-002
2.512792e+003, 1.497279e-002
2.514720e+003, 1.577093e-002
2.516649e+003, 1.491605e-002
2.518577e+003, 1.430469e-002
2.520506e+003, 1.447853e-002
2.522434e+003, 1.528574e-002
2.524363e+003, 1.552917e-002
2.526291e+003, 1.505195e-002
2.528220e+003, 1.511541e-002
2.530148e+003, 1.586946e-002
2.532077e+003, 1.609676e-002
2.534005e+003, 1.594851e-002
2.535934e+003, 1.488436e-002
2.537862e+003, 1.434929e-002
2.539791e+003, 1.470775e-002
2.541719e+003, 1.525580e-002
2.543647e+003, 1.534480e-002
2.545576e+003, 1.499472e-002
2.547504e+003, 1.571630e-002
2.549433e+003, 1.625363e-002
2.551361e+003, 1.538782e-002
2.553290e+003, 1.584295e-002
2.555218e+003, 1.623037e-002
2.557147e+003, 1.577071e-002
2.559075e+003, 1.542754e-002
2.561004e+003, 1.622794e-002
2.562932e+003, 1.658402e-002
2.564861e+003, 1.642744e-002
2.566789e+003, 1.588038e-002
2.568718e+003, 1.553590e-002
2.570646e+003, 1.560767e-002
2.572574e+003, 1.579435e-002
2.574503e+003, 1.610065e-002
2.576431e+003, 1.587405e-002
2.578360e+003, 1.557472e-002
2.580288e+003, 1.563145e-002
2.582217e+003, 1.578612e-002
2.584145e+003, 1.606931e-002
2.586074e+003, 1.607261e-002
2.588002e+003, 1.602927e-002
2.589931e+003, 1.671638e-002
2.591859e+003, 1.746133e-002
2.593788e+003, 1.737246e-002
2.595716e+003, 1.719158e-002
2.597645e+003, 1.737819e-002
2.599573e+003, 1.788848e-002
2.601501e+003, 1.742552e-002
2.603430e+003, 1.745211e-002
2.605358e+003, 1.785102e-002
2.607287e+003, 1.726102e-002
2.609215e+003, 1.709314e-002
2.611144e+003, 1.734550e-002
2.613072e+003, 1.751498e-002
2.615001e+003, 1.782589e-002
2.616929e+003, 1.794579e-002
2.618858e+003, 1.792499e-002
2.620786e+003, 1.784857e-002
2.622715e+003, 1.779867e-002
2.624643e+003, 1.822011e-002
2.626572e+003, 1.819389e-002
2.628500e+003, 1.798382e-002
2.630428e+003, 1.805970e-002
2.632357e+003, 1.801570e-002
2.634285e+003, 1.804432e-002
2.636214e+003, 1.809658e-002
2.638142e+003, 1.782781e-002
2.640071e+003, 1.763402e-002
2.641999e+003, 1.781439e-002
2.643928e+003, 1.830191e-002
2.645856e+003, 1.851160e-002
2.647785e+003, 1.823518e-002
2.649713e+003, 1.790483e-002
2.651642e+003, 1.799390e-002
2.653570e+003, 1.827690e-002
2.655499e+003, 1.814555e-002
2.657427e+003, 1.807913e-002
2.659355e+003, 1.825758e-002
2.661284e+003, 1.826544e-002
2.663212e+003, 1.821969e-002
2.665141e+003, 1.821251e-002
2.667069e+003, 1.763739e-002
2.668998e+003, 1.747398e-002
2.670926e+003, 1.772974e-002
2.672855e+003, 1.791809e-002
2.674783e+003, 1.832747e-002
2.676712e+003, 1.873539e-002
2.678640e+003, 1.850719e-002
2.680569e+003, 1.858115e-002
2.682497e+003, 1.858657e-002
2.684426e+003, 1.822548e-002
2.686354e+003, 1.810847e-002
2.688282e+003, 1.832034e-002
2.690211e+003, 1.851123e-002
2.692139e+003, 1.829116e-002
2.694068e+003, 1.842052e-002
2.695996e+003, 1.876588e-002
2.697925e+003, 1.896617e-002
2.699853e+003, 1.892918e-002
2.701782e+003, 1.823228e-002
2.703710e+003, 1.789678e-002
2.705639e+003, 1.849261e-002
2.707567e+003, 1.912476e-002
2.709496e+003, 1.911521e-002
2.711424e+003, 1.868129e-002
2.713353e+003, 1.839209e-002
2.715281e+003, 1.860110e-002
2.717209e+003, 1.864148e-002
2.719138e+003, 1.873462e-002
2.721066e+003, 1.890372e-002
2.722995e+003, 1.910929e-002
2.724923e+003, 1.959630e-002
2.726852e+003, 1.956957e-002
2.728780e+003, 1.957403e-002
2.730709e+003, 1.980663e-002
2.732637e+003, 1.963198e-002
2.734566e+003, 1.998470e-002
2.736494e+003, 2.058575e-002
2.738423e+003, 2.066590e-002
2.740351e+003, 2.090203e-002
2.742280e+003, 2.118577e-002
2.744208e+003, 2.091284e-002
2.746136e+003, 2.057960e-002
2.748065e+003, 2.060600e-002
2.749993e+003, 2.082860e-002
2.751922e+003, 2.112772e-002
2.753850e+003, 2.130023e-002
2.755779e+003, 2.081574e-002
2.757707e+003, 2.073491e-002
2.759636e+003, 2.106735e-002
2.761564e+003, 2.098458e-002
2.763493e+003, 2.094929e-002
2.765421e+003, 2.084969e-002
2.767350e+003, 2.069098e-002
2.769278e+003, 2.112499e-002
2.771207e+003, 2.135932e-002
2.773135e+003, 2.131732e-002
2.775063e+003, 2.121385e-002
2.776992e+003, 2.190688e-002
2.778920e+003, 2.182139e-002
2.780849e+003, 2.182818e-002
2.782777e+003, 2.157305e-002
2.784706e+003, 2.148478e-002
2.786634e+003, 2.222583e-002
2.788563e+003, 2.276061e-002
2.790491e+003, 2.316675e-002
2.792420e+003, 2.330913e-002
2.794348e+003, 2.260161e-002
2.796277e+003, 2.239116e-002
2.798205e+003, 2.307354e-002
2.800134e+003, 2.343878e-002
2.802062e+003, 2.330737e-002
2.803990e+003, 2.282774e-002
2.805919e+003, 2.238626e-002
2.807847e+003, 2.264729e-002
2.809776e+003, 2.380986e-002
2.811704e+003, 2.413973e-002
2.813633e+003, 2.366944e-002
2.815561e+003, 2.327017e-002
2.817490e+003, 2.370417e-002
2.819418e+003, 2.332490e-002
2.821347e+003, 2.290455e-002
2.823275e+003, 2.366272e-002
2.825204e+003, 2.419175e-002
2.827132e+003, 2.436305e-002
2.829061e+003, 2.441953e-002
2.830989e+003, 2.450804e-002
2.832917e+003, 2.460402e-002
2.834846e+003, 2.447963e-002
2.836774e+003, 2.428814e-002
2.838703e+003, 2.430878e-002
2.840631e+003, 2.476945e-002
2.842560e+003, 2.531076e-002
2.844488e+003, 2.531129e-002
2.846417e+003, 2.436781e-002
2.848345e+003, 2.371436e-002
2.850274e+003, 2.462383e-002
2.852202e+003, 2.462525e-002
2.854131e+003, 2.428985e-002
2.856059e+003, 2.426669e-002
2.857988e+003, 2.474311e-002
2.859916e+003, 2.492657e-002
2.861844e+003, 2.484238e-002
2.863773e+003, 2.495912e-002
2.865701e+003, 2.595768e-002
2.867630e+003, 2.602618e-002
2.869558e+003, 2.599815e-002
2.871487e+003, 2.622509e-002
2.873415e+003, 2.626506e-002
2.875344e+003, 2.616399e-002
2.877272e+003, 2.697006e-002
2.879201e+003, 2.741303e-002
2.881129e+003, 2.672824e-002
2.883058e+003, 2.704723e-002
2.884986e+003, 2.758732e-002
2.886915e+003, 2.717871e-002
2.888843e+003, 2.752059e-002
2.890771e+003, 2.797981e-002
2.892700e+003, 2.752901e-002
2.894628e+003, 2.739522e-002
2.896557e+003, 2.777822e-002
2.898485e+003, 2.758809e-002
2.900414e+003, 2.745204e-002
2.902342e+003, 2.826006e-002
2.904271e+003, 2.834615e-002
2.906199e+003, 2.751328e-002
2.908128e+003, 2.704976e-002
2.910056e+003, 2.757690e-002
2.911985e+003, 2.773156e-002
2.913913e+003, 2.817624e-002
2.915842e+003, 2.802163e-002
2.917770e+003, 2.824784e-002
2.919698e+003, 2.850325e-002
2.921627e+003, 2.859594e-002
2.923555e+003, 2.850871e-002
2.925484e+003, 2.807841e-002
2.927412e+003, 2.852776e-002
2.929341e+003, 2.924486e-002
2.931269e+003, 2.923619e-002
2.933198e+003, 2.921694e-002
2.935126e+003, 2.901486e-002
2.937055e+003, 2.879361e-002
2.938983e+003, 2.935009e-002
2.940912e+003, 3.019323e-002
2.942840e+003, 3.058858e-002
2.944769e+003, 3.079711e-002
2.946697e+003, 3.087339e-002
2.948625e+003, 3.151528e-002
2.950554e+003, 3.175965e-002
2.952482e+003, 3.130797e-002
2.954411e+003, 3.099412e-002
2.956339e+003, 3.103994e-002
2.958268e+003, 3.119325e-002
2.960196e+003, 3.143368e-002
2.962125e+003, 3.235342e-002
2.964053e+003, 3.329159e-002
2.965982e+003, 3.369815e-002
2.967910e+003, 3.456212e-002
2.969839e+003, 3.507479e-002
2.971767e+003, 3.512448e-002
2.973696e+003, 3.506142e-002
2.975624e+003, 3.471889e-002
2.977552e+003, 3.449565e-002
2.979481e+003, 3.482210e-002
2.981409e+003, 3.538909e-002
2.983338e+003, 3.636605e-002
2.985266e+003, 3.645303e-002
2.987195e+003, 3.652738e-002
2.989123e+003, 3.645419e-002
2.991052e+003, 3.661145e-002
2.992980e+003, 3.762211e-002
2.994909e+003, 3.851162e-002
2.996837e+003, 3.883470e-002
2.998766e+003, 3.933867e-002
3.000694e+003, 3.956166e-002
3.002623e+003, 4.005451e-002
3.004551e+003, 3.907457e-002
3.006479e+003, 3.848095e-002
3.008408e+003, 3.927038e-002
3.010336e+003, 3.969567e-002
3.012265e+003, 3.990208e-002
3.014193e+003, 4.080478e-002
3.016122e+003, 4.074056e-002
3.018050e+003, 4.057207e-002
3.019979e+003, 4.104579e-002
3.021907e+003, 4.140543e-002
3.023836e+003, 4.205366e-002
3.025764e+003, 4.290008e-002
3.027693e+003, 4.308425e-002
3.029621e+003, 4.305516e-002
3.031550e+003, 4.277113e-002
3.033478e+003, 4.267811e-002
3.035406e+003, 4.327196e-002
3.037335e+003, 4.374162e-002
3.039263e+003, 4.407048e-002
3.041192e+003, 4.401134e-002
3.043120e+003, 4.374061e-002
3.045049e+003, 4.371577e-002
3.046977e+003, 4.383789e-002
3.048906e+003, 4.446476e-002
3.050834e+003, 4.518563e-002
3.052763e+003, 4.597811e-002
3.054691e+003, 4.586308e-002
3.056620e+003, 4.649175e-002
3.058548e+003, 4.686611e-002
3.060477e+003, 4.684692e-002
3.062405e+003, 4.684785e-002
3.064333e+003, 4.727717e-002
3.066262e+003, 4.821078e-002
3.068190e+003, 4.875707e-002
3.070119e+003, 4.868853e-002
3.072047e+003, 4.922386e-002
3.073976e+003, 4.962025e-002
3.075904e+003, 5.024270e-002
3.077833e+003, 5.092409e-002
3.079761e+003, 5.097370e-002
3.081690e+003, 5.095014e-002
3.083618e+003, 5.079046e-002
3.085547e+003, 5.072931e-002
3.087475e+003, 5.193312e-002
3.089404e+003, 5.255965e-002
3.091332e+003, 5.276598e-002
3.093260e+003, 5.291734e-002
3.095189e+003, 5.344860e-002
3.097117e+003, 5.428472e-002
3.099046e+003, 5.524160e-002
3.100974e+003, 5.547050e-002
3.102903e+003, 5.517667e-002
3.104831e+003, 5.459517e-002
3.106760e+003, 5.482933e-002
3.108688e+003, 5.533588e-002
3.110617e+003, 5.615301e-002
3.112545e+003, 5.722299e-002
3.114474e+003, 5.794052e-002
3.116402e+003, 5.792185e-002
3.118331e+003, 5.817598e-002
3.120259e+003, 5.760340e-002
3.122188e+003, 5.773065e-002
3.124116e+003, 5.806706e-002
3.126044e+003, 5.900319e-002
3.127973e+003, 5.989804e-002
3.129901e+003, 6.059278e-002
3.131830e+003, 6.113788e-002
3.133758e+003, 6.204933e-002
3.135687e+003, 6.235941e-002
3.137615e+003, 6.208239e-002
3.139544e+003, 6.271601e-002
3.141472e+003, 6.266331e-002
3.143401e+003, 6.268618e-002
3.145329e+003, 6.299069e-002
3.147258e+003, 6.319771e-002
3.149186e+003, 6.411720e-002
3.151115e+003, 6.439590e-002
3.153043e+003, 6.436304e-002
3.154971e+003, 6.484623e-002
3.156900e+003, 6.568009e-002
3.158828e+003, 6.635369e-002
3.160757e+003, 6.643224e-002
3.162685e+003, 6.643746e-002
3.164614e+003, 6.676733e-002
3.166542e+003, 6.728832e-002
3.168471e+003, 6.813127e-002
3.170399e+003, 6.885019e-002
3.172328e+003, 6.909784e-002
3.174256e+003, 6.971644e-002
3.176185e+003, 7.093459e-002
3.178113e+003, 7.020817e-002
3.180042e+003, 7.002052e-002
3.181970e+003, 7.072929e-002
3.183898e+003, 7.161472e-002
3.185827e+003, 7.266089e-002
3.187755e+003, 7.403754e-002
3.189684e+003, 7.479763e-002
3.191612e+003, 7.472476e-002
3.193541e+003, 7.417067e-002
3.195469e+003, 7.512362e-002
3.197398e+003, 7.585624e-002
3.199326e+003, 7.676379e-002
3.201255e+003, 7.783543e-002
3.203183e+003, 7.852665e-002
3.205112e+003, 7.847179e-002
3.207040e+003, 7.855003e-002
3.208969e+003, 7.875825e-002
3.210897e+003, 7.877405e-002
3.212825e+003, 7.948261e-002
3.214754e+003, 8.088558e-002
3.216682e+003, 8.049461e-002
3.218611e+003, 7.941475e-002
3.220539e+003, 7.869856e-002
3.222468e+003, 7.912684e-002
3.224396e+003, 7.910579e-002
3.226325e+003, 7.879968e-002
3.228253e+003, 7.826710e-002
3.230182e+003, 7.841821e-002
3.232110e+003, 7.813426e-002
3.234039e+003, 7.852419e-002
3.235967e+003, 7.853723e-002
3.237896e+003, 7.833627e-002
3.239824e+003, 7.856670e-002
3.241752e+003, 7.897912e-002
3.243681e+003, 7.826535e-002
3.245609e+003, 7.776187e-002
3.247538e+003, 7.706441e-002
3.249466e+003, 7.848120e-002
3.251395e+003, 8.000448e-002
3.253323e+003, 8.031799e-002
3.255252e+003, 7.995740e-002
3.257180e+003, 7.962235e-002
3.259109e+003, 7.861876e-002
3.261037e+003, 7.803696e-002
3.262966e+003, 7.782485e-002
3.264894e+003, 7.688284e-002
3.266823e+003, 7.648345e-002
3.268751e+003, 7.819901e-002
3.270679e+003, 7.836080e-002
3.272608e+003, 7.868502e-002
3.274536e+003, 7.946641e-002
3.276465e+003, 7.899245e-002
3.278393e+003, 7.700497e-002
3.280322e+003, 7.684882e-002
3.282250e+003, 7.761134e-002
3.284179e+003, 7.770979e-002
3.286107e+003, 7.725110e-002
3.288036e+003, 7.735198e-002
3.289964e+003, 7.855111e-002
3.291893e+003, 7.899249e-002
3.293821e+003, 7.887430e-002
3.295750e+003, 7.992704e-002
3.297678e+003, 8.143972e-002
3.299606e+003, 8.131690e-002
3.301535e+003, 8.087082e-002
3.303463e+003, 8.122961e-002
3.305392e+003, 8.172065e-002
3.307320e+003, 8.351664e-002
3.309249e+003, 8.487194e-002
3.311177e+003, 8.623623e-002
3.313106e+003, 8.874635e-002
3.315034e+003, 9.115660e-002
3.316963e+003, 9.284944e-002
3.318891e+003, 9.519027e-002
3.320820e+003, 9.716541e-002
3.322748e+003, 9.947427e-002
3.324677e+003, 1.023629e-001
3.326605e+003, 1.053858e-001
3.328533e+003, 1.083187e-001
3.330462e+003, 1.125680e-001
3.332390e+003, 1.166226e-001
3.334319e+003, 1.211701e-001
3.336247e+003, 1.265042e-001
3.338176e+003, 1.324355e-001
3.340104e+003, 1.387647e-001
3.342033e+003, 1.465033e-001
3.343961e+003, 1.535616e-001
3.345890e+003, 1.596796e-001
3.347818e+003, 1.675896e-001
3.349747e+003, 1.757544e-001
3.351675e+003, 1.830204e-001
3.353604e+003, 1.909551e-001
3.355532e+003, 1.970193e-001
3.357460e+003, 2.019626e-001
3.359389e+003, 2.051500e-001
3.361317e+003, 2.076789e-001
3.363246e+003, 2.068638e-001
3.365174e+003, 2.030251e-001
3.367103e+003, 1.996719e-001
3.369031e+003, 1.964913e-001
3.370960e+003, 1.922036e-001
3.372888e+003, 1.865070e-001
3.374817e+003, 1.790759e-001
3.376745e+003, 1.734910e-001
3.378674e+003, 1.675725e-001
3.380602e+003, 1.629363e-001
3.382531e+003, 1.580583e-001
3.384459e+003, 1.517204e-001
3.386387e+003, 1.455609e-001
3.388316e+003, 1.398178e-001
3.390244e+003, 1.334365e-001
3.392173e+003, 1.284286e-001
3.394101e+003, 1.232921e-001
3.396030e+003, 1.174338e-001
3.397958e+003, 1.121545e-001
3.399887e+003, 1.083217e-001
3.401815e+003, 1.043198e-001
3.403744e+003, 1.007017e-001
3.405672e+003, 9.598197e-002
3.407601e+003, 9.175795e-002
3.409529e+003, 8.805335e-002
3.411458e+003, 8.513155e-002
3.413386e+003, 8.198004e-002
3.415314e+003, 7.909428e-002
3.417243e+003, 7.538662e-002
3.419171e+003, 7.269576e-002
3.421100e+003, 7.023533e-002
3.423028e+003, 6.879555e-002
3.424957e+003, 6.692421e-002
3.426885e+003, 6.464693e-002
3.428814e+003, 6.326579e-002
3.430742e+003, 6.282192e-002
3.432671e+003, 6.164984e-002
3.434599e+003, 5.915604e-002
3.436528e+003, 5.669571e-002
3.438456e+003, 5.637740e-002
3.440385e+003, 5.639516e-002
3.442313e+003, 5.474978e-002
3.444241e+003, 5.351214e-002
3.446170e+003, 5.347976e-002
3.448098e+003, 5.227553e-002
3.450027e+003, 5.187782e-002
3.451955e+003, 5.094455e-002
3.453884e+003, 4.976480e-002
3.455812e+003, 4.896588e-002
3.457741e+003, 4.841124e-002
3.459669e+003, 4.705162e-002
3.461598e+003, 4.620913e-002
3.463526e+003, 4.594667e-002
3.465455e+003, 4.608652e-002
3.467383e+003, 4.457497e-002
3.469312e+003, 4.340388e-002
3.471240e+003, 4.354678e-002
3.473168e+003, 4.319664e-002
3.475097e+003, 4.193295e-002
3.477025e+003, 4.316590e-002
3.478954e+003, 4.438207e-002
3.480882e+003, 4.250988e-002
3.482811e+003, 4.009510e-002
3.484739e+003, 4.056974e-002
3.486668e+003, 4.109933e-002
3.488596e+003, 4.148740e-002
3.490525e+003, 4.079769e-002
3.492453e+003, 4.121162e-002
3.494382e+003, 3.997858e-002
3.496310e+003, 3.923725e-002
3.498239e+003, 3.788456e-002
3.500167e+003, 3.803554e-002
3.502095e+003, 3.789549e-002
3.504024e+003, 3.733033e-002
3.505952e+003, 3.813674e-002
3.507881e+003, 3.771025e-002
3.509809e+003, 3.641299e-002
3.511738e+003, 3.577038e-002
3.513666e+003, 3.433571e-002
3.515595e+003, 3.385326e-002
3.517523e+003, 3.399782e-002
3.519452e+003, 3.468690e-002
3.521380e+003, 3.318534e-002
3.523309e+003, 3.300875e-002
3.525237e+003, 3.249561e-002
3.527166e+003, 3.202757e-002
3.529094e+003, 3.145977e-002
3.531022e+003, 3.290930e-002
3.532951e+003, 3.352752e-002
3.534879e+003, 3.416089e-002
3.536808e+003, 3.310651e-002
3.538736e+003, 3.071919e-002
3.540665e+003, 2.888210e-002
3.542593e+003, 3.007618e-002
3.544522e+003, 3.014750e-002
3.546450e+003, 2.997896e-002
3.548379e+003, 3.029671e-002
3.550307e+003, 2.958743e-002
3.552236e+003, 2.854063e-002
3.554164e+003, 2.881608e-002
3.556093e+003, 2.717122e-002
3.558021e+003, 2.544989e-002
3.559949e+003, 2.519925e-002
3.561878e+003, 2.639502e-002
3.563806e+003, 2.665607e-002
3.565735e+003, 2.491347e-002
3.567663e+003, 2.304719e-002
3.569592e+003, 2.393652e-002
3.571520e+003, 2.259551e-002
3.573449e+003, 2.127649e-002
3.575377e+003, 2.243729e-002
3.577306e+003, 2.334273e-002
3.579234e+003, 2.287231e-002
3.581163e+003, 2.295817e-002
3.583091e+003, 2.323136e-002
3.585020e+003, 2.343017e-002
3.586948e+003, 2.128738e-002
3.588876e+003, 2.049870e-002
3.590805e+003, 2.072329e-002
3.592733e+003, 1.958642e-002
3.594662e+003, 1.944836e-002
3.596590e+003, 2.116587e-002
3.598519e+003, 2.056414e-002
3.600447e+003, 2.003184e-002
3.602376e+003, 2.210103e-002
3.604304e+003, 2.378046e-002
3.606233e+003, 2.053122e-002
3.608161e+003, 1.816069e-002
3.610090e+003, 1.847954e-002
3.612018e+003, 1.935214e-002
3.613947e+003, 1.963965e-002
3.615875e+003, 2.030672e-002
3.617803e+003, 1.929348e-002
3.619732e+003, 1.913076e-002
3.621660e+003, 1.863261e-002
3.623589e+003, 1.807871e-002
3.625517e+003, 1.923266e-002
3.627446e+003, 1.930351e-002
3.629374e+003, 1.696627e-002
3.631303e+003, 1.625329e-002
3.633231e+003, 1.545624e-002
3.635160e+003, 1.551187e-002
3.637088e+003, 1.491037e-002
3.639017e+003, 1.572506e-002
3.640945e+003, 1.537939e-002
3.642874e+003, 1.499085e-002
3.644802e+003, 1.493845e-002
3.646730e+003, 1.498242e-002
3.648659e+003, 1.549366e-002
3.650587e+003, 1.755272e-002
3.652516e+003, 1.668983e-002
3.654444e+003, 1.506821e-002
3.656373e+003, 1.598040e-002
3.658301e+003, 1.875308e-002
3.660230e+003, 1.712236e-002
3.662158e+003, 1.433791e-002
3.664087e+003, 1.499155e-002
3.666015e+003, 1.720789e-002
3.667944e+003, 1.640195e-002
3.669872e+003, 1.546962e-002
3.671801e+003, 1.589886e-002
3.673729e+003, 1.529580e-002
3.675657e+003, 1.384535e-002
3.677586e+003, 1.522299e-002
3.679514e+003, 1.613679e-002
3.681443e+003, 1.589006e-002
3.683371e+003, 1.605167e-002
3.685300e+003, 1.701126e-002
3.687228e+003, 1.571500e-002
3.689157e+003, 1.578377e-002
3.691085e+003, 1.568660e-002
3.693014e+003, 1.544465e-002
3.694942e+003, 1.653942e-002
3.696871e+003, 1.575788e-002
3.698799e+003, 1.399718e-002
3.700728e+003, 1.495899e-002
3.702656e+003, 1.556836e-002
3.704584e+003, 1.542626e-002
3.706513e+003, 1.529774e-002
3.708441e+003, 1.532048e-002
3.710370e+003, 1.571215e-002
3.712298e+003, 1.664118e-002
3.714227e+003, 1.605934e-002
3.716155e+003, 1.524995e-002
3.718084e+003, 1.611897e-002
3.720012e+003, 1.728469e-002
3.721941e+003, 1.647023e-002
3.723869e+003, 1.768444e-002
3.725798e+003, 1.764512e-002
3.727726e+003, 1.686439e-002
3.729655e+003, 1.755074e-002
3.731583e+003, 1.815816e-002
3.733511e+003, 1.690662e-002
3.735440e+003, 1.809608e-002
3.737368e+003, 1.982898e-002
3.739297e+003, 2.003921e-002
3.741225e+003, 1.755991e-002
3.743154e+003, 1.671865e-002
3.745082e+003, 1.565951e-002
3.747011e+003, 1.796435e-002
3.748939e+003, 1.653445e-002
3.750868e+003, 1.571671e-002
3.752796e+003, 1.652818e-002
3.754725e+003, 1.822411e-002
3.756653e+003, 1.746943e-002
3.758582e+003, 1.683311e-002
3.760510e+003, 1.638353e-002
3.762438e+003, 1.752369e-002
3.764367e+003, 1.667549e-002
3.766295e+003, 1.684933e-002
3.768224e+003, 1.596873e-002
3.770152e+003, 1.495041e-002
3.772081e+003, 1.587609e-002
3.774009e+003, 1.619056e-002
3.775938e+003, 1.656161e-002
3.777866e+003, 2.025033e-002
3.779795e+003, 2.130350e-002
3.781723e+003, 2.040131e-002
3.783652e+003, 2.073538e-002
3.785580e+003, 2.067904e-002
3.787509e+003, 1.863562e-002
3.789437e+003, 1.732850e-002
3.791365e+003, 1.705343e-002
3.793294e+003, 1.811174e-002
3.795222e+003, 1.946751e-002
3.797151e+003, 1.918537e-002
3.799079e+003, 1.892278e-002
3.801008e+003, 1.964175e-002
3.802936e+003, 1.993680e-002
3.804865e+003, 1.923437e-002
3.806793e+003, 1.764012e-002
3.808722e+003, 1.762049e-002
3.810650e+003, 1.846728e-002
3.812579e+003, 2.017516e-002
3.814507e+003, 1.943909e-002
3.816436e+003, 1.907743e-002
3.818364e+003, 1.908012e-002
3.820292e+003, 1.831595e-002
3.822221e+003, 1.962755e-002
3.824149e+003, 2.140613e-002
3.826078e+003, 2.118048e-002
3.828006e+003, 2.028489e-002
3.829935e+003, 1.839750e-002
3.831863e+003, 1.893846e-002
3.833792e+003, 1.930593e-002
3.835720e+003, 1.920727e-002
3.837649e+003, 2.071685e-002
3.839577e+003, 2.199365e-002
3.841506e+003, 1.950008e-002
3.843434e+003, 1.839009e-002
3.845363e+003, 1.744978e-002
3.847291e+003, 1.845781e-002
3.849219e+003, 2.040889e-002
3.851148e+003, 2.201054e-002
3.853076e+003, 1.941478e-002
3.855005e+003, 1.833932e-002
3.856933e+003, 1.852171e-002
3.858862e+003, 1.822486e-002
3.860790e+003, 1.716302e-002
3.862719e+003, 1.757587e-002
3.864647e+003, 2.042835e-002
3.866576e+003, 2.206202e-002
3.868504e+003, 2.061651e-002
3.870433e+003, 1.788769e-002
3.872361e+003, 1.743224e-002
3.874290e+003, 1.867943e-002
3.876218e+003, 1.808799e-002
3.878146e+003, 1.874308e-002
3.880075e+003, 1.888206e-002
3.882003e+003, 2.048915e-002
3.883932e+003, 1.931475e-002
3.885860e+003, 1.732115e-002
3.887789e+003, 1.627215e-002
3.889717e+003, 1.796186e-002
3.891646e+003, 1.897423e-002
3.893574e+003, 2.010423e-002
3.895503e+003, 1.908143e-002
3.897431e+003, 1.897236e-002
3.899360e+003, 2.021281e-002
3.901288e+003, 2.225415e-002
3.903217e+003, 2.230626e-002
3.905145e+003, 2.201072e-002
3.907073e+003, 2.137369e-002
3.909002e+003, 1.968329e-002
3.910930e+003, 1.882672e-002
3.912859e+003, 2.030368e-002
3.914787e+003, 1.956889e-002
3.916716e+003, 1.889416e-002
3.918644e+003, 1.882883e-002
3.920573e+003, 2.091203e-002
3.922501e+003, 2.178979e-002
3.924430e+003, 2.194720e-002
3.926358e+003, 2.219082e-002
3.928287e+003, 2.123411e-002
3.930215e+003, 2.062821e-002
3.932144e+003, 2.297149e-002
3.934072e+003, 1.997698e-002
3.936000e+003, 1.934550e-002
3.937929e+003, 2.145151e-002
3.939857e+003, 2.127483e-002
3.941786e+003, 2.029760e-002
3.943714e+003, 2.070571e-002
3.945643e+003, 2.029394e-002
3.947571e+003, 2.024766e-002
3.949500e+003, 1.900165e-002
3.951428e+003, 2.053210e-002
3.953357e+003, 2.226988e-002
3.955285e+003, 2.250433e-002
3.957214e+003, 2.332590e-002
3.959142e+003, 2.318472e-002
3.961071e+003, 2.229350e-002
3.962999e+003, 2.156938e-002
3.964927e+003, 2.012252e-002
3.966856e+003, 1.946903e-002
3.968784e+003, 1.878487e-002
3.970713e+003, 1.899571e-002
3.972641e+003, 1.772351e-002
3.974570e+003, 1.794831e-002
3.976498e+003, 2.049777e-002
3.978427e+003, 2.188717e-002
3.980355e+003, 2.113358e-002
3.982284e+003, 2.053496e-002
3.984212e+003, 2.074790e-002
3.986141e+003, 2.183136e-002
3.988069e+003, 2.081458e-002
3.989998e+003, 2.077191e-002
3.991926e+003, 1.924371e-002
3.993854e+003, 2.066667e-002
3.995783e+003, 2.175274e-002
3.997711e+003, 2.136495e-002
3.999640e+003, 2.137619e-002
##END=



