##NAMES=Dolomite
##RRUFFID=R050241
##IDEAL CHEMISTRY=CaMg(CO_3_)_2_
##LOCALITY=Eugui quarries, Navarre, Spain
##OWNER=RRUFF
##SOURCE=Marcus Origlieri
##DESCRIPTION=Light gray colored tabular crystals
##STATUS=The identification of this mineral has been confirmed by X-ray diffraction and chemical analysis
##URL=rruff.info/R050241
##MEASURED CHEMISTRY=(Ca_0.96_Mg_0.04_)_Σ=1_(Mg_0.98_Fe^2+^_0.02_)_Σ=1_(CO_3_)_2_ ; CO_2_ estimated by difference
3.953357e+002, 6.913556e-002
3.972641e+002, 6.672850e-002
3.991926e+002, 6.613609e-002
4.011211e+002, 6.311917e-002
4.030495e+002, 5.944663e-002
4.049780e+002, 5.414625e-002
4.069065e+002, 4.985816e-002
4.088349e+002, 4.686238e-002
4.107634e+002, 4.722675e-002
4.126919e+002, 4.723220e-002
4.146203e+002, 4.192767e-002
4.165488e+002, 3.653211e-002
4.184773e+002, 3.510721e-002
4.204057e+002, 3.474086e-002
4.223342e+002, 3.279230e-002
4.242627e+002, 2.926001e-002
4.261911e+002, 2.625561e-002
4.281196e+002, 2.487188e-002
4.300481e+002, 2.290766e-002
4.319765e+002, 2.122619e-002
4.339050e+002, 2.021967e-002
4.358335e+002, 1.846310e-002
4.377619e+002, 1.593786e-002
4.396904e+002, 1.436680e-002
4.416189e+002, 1.364043e-002
4.435473e+002, 1.323913e-002
4.454758e+002, 1.246240e-002
4.474043e+002, 1.145029e-002
4.493327e+002, 1.064927e-002
4.512612e+002, 9.767996e-003
4.531897e+002, 8.826587e-003
4.551181e+002, 8.479636e-003
4.570466e+002, 8.486985e-003
4.589751e+002, 7.988658e-003
4.609035e+002, 7.376833e-003
4.628320e+002, 7.097539e-003
4.647605e+002, 6.446140e-003
4.666889e+002, 6.046580e-003
4.686174e+002, 5.922908e-003
4.705459e+002, 5.765399e-003
4.724743e+002, 5.224119e-003
4.744028e+002, 4.613509e-003
4.763313e+002, 4.731684e-003
4.782597e+002, 5.013126e-003
4.801882e+002, 4.881010e-003
4.821167e+002, 4.685836e-003
4.840451e+002, 4.669754e-003
4.859736e+002, 4.642366e-003
4.879021e+002, 4.312765e-003
4.898305e+002, 4.163113e-003
4.917590e+002, 4.250354e-003
4.936875e+002, 4.284440e-003
4.956159e+002, 4.434634e-003
4.975444e+002, 4.415256e-003
4.994729e+002, 4.325684e-003
5.014013e+002, 4.322358e-003
5.033298e+002, 4.025401e-003
5.052583e+002, 4.015025e-003
5.071867e+002, 3.987926e-003
5.091152e+002, 3.805355e-003
5.110437e+002, 4.159016e-003
5.129721e+002, 4.479431e-003
5.149006e+002, 3.967756e-003
5.168290e+002, 3.605262e-003
5.187575e+002, 3.556192e-003
5.206860e+002, 3.230171e-003
5.226144e+002, 2.704579e-003
5.245429e+002, 2.785022e-003
5.264714e+002, 3.170743e-003
5.283998e+002, 3.390033e-003
5.303283e+002, 3.429807e-003
5.322568e+002, 2.962471e-003
5.341852e+002, 2.581372e-003
5.361137e+002, 2.649056e-003
5.380422e+002, 2.682722e-003
5.399706e+002, 2.516653e-003
5.418991e+002, 2.217881e-003
5.438276e+002, 2.027773e-003
5.457560e+002, 2.065782e-003
5.476845e+002, 2.226199e-003
5.496130e+002, 2.337076e-003
5.515414e+002, 2.702444e-003
5.534699e+002, 2.644326e-003
5.553984e+002, 2.146088e-003
5.573268e+002, 1.964067e-003
5.592553e+002, 1.940551e-003
5.611838e+002, 1.903394e-003
5.631122e+002, 1.900124e-003
5.650407e+002, 1.938830e-003
5.669692e+002, 1.765223e-003
5.688976e+002, 1.748463e-003
5.708261e+002, 2.053893e-003
5.727546e+002, 2.026941e-003
5.746830e+002, 2.034572e-003
5.766115e+002, 1.919688e-003
5.785400e+002, 1.852509e-003
5.804684e+002, 1.903328e-003
5.823969e+002, 1.885330e-003
5.843254e+002, 1.836921e-003
5.862538e+002, 1.840505e-003
5.881823e+002, 1.932219e-003
5.901108e+002, 1.861175e-003
5.920392e+002, 1.896828e-003
5.939677e+002, 1.897049e-003
5.958962e+002, 1.707732e-003
5.978246e+002, 1.715382e-003
5.997531e+002, 1.629227e-003
6.016816e+002, 1.485981e-003
6.036100e+002, 1.511216e-003
6.055385e+002, 1.528375e-003
6.074670e+002, 1.512888e-003
6.093954e+002, 1.328856e-003
6.113239e+002, 1.376038e-003
6.132524e+002, 1.441928e-003
6.151808e+002, 1.465237e-003
6.171093e+002, 1.534690e-003
6.190378e+002, 1.560192e-003
6.209662e+002, 1.566078e-003
6.228947e+002, 1.452767e-003
6.248232e+002, 1.560784e-003
6.267516e+002, 1.715700e-003
6.286801e+002, 1.584046e-003
6.306086e+002, 1.694125e-003
6.325370e+002, 1.898594e-003
6.344655e+002, 1.808756e-003
6.363940e+002, 1.909741e-003
6.383224e+002, 2.036290e-003
6.402509e+002, 1.893298e-003
6.421794e+002, 1.899561e-003
6.441078e+002, 2.178367e-003
6.460363e+002, 2.329383e-003
6.479648e+002, 2.407045e-003
6.498932e+002, 2.451831e-003
6.518217e+002, 2.568020e-003
6.537502e+002, 2.606076e-003
6.556786e+002, 2.672655e-003
6.576071e+002, 2.485018e-003
6.595356e+002, 2.332936e-003
6.614641e+002, 2.385503e-003
6.633925e+002, 2.529108e-003
6.653210e+002, 2.740486e-003
6.672495e+002, 2.888014e-003
6.691779e+002, 2.652083e-003
6.711064e+002, 2.490125e-003
6.730349e+002, 2.705050e-003
6.749633e+002, 2.713667e-003
6.768918e+002, 2.484670e-003
6.788203e+002, 2.530511e-003
6.807487e+002, 2.589576e-003
6.826772e+002, 2.620218e-003
6.846057e+002, 2.740498e-003
6.865341e+002, 2.802199e-003
6.884626e+002, 2.632041e-003
6.903911e+002, 2.568605e-003
6.923195e+002, 2.703120e-003
6.942480e+002, 2.710640e-003
6.961765e+002, 2.922290e-003
6.981049e+002, 3.107673e-003
7.000334e+002, 3.104858e-003
7.019619e+002, 3.090861e-003
7.038903e+002, 3.263523e-003
7.058188e+002, 3.458889e-003
7.077473e+002, 3.700676e-003
7.096757e+002, 4.089243e-003
7.116042e+002, 4.459590e-003
7.135327e+002, 4.876595e-003
7.154611e+002, 5.558475e-003
7.173896e+002, 6.358774e-003
7.193181e+002, 7.511083e-003
7.212465e+002, 9.445994e-003
7.231750e+002, 1.275599e-002
7.251035e+002, 1.836947e-002
7.270319e+002, 2.560588e-002
7.289604e+002, 2.906576e-002
7.308889e+002, 2.346754e-002
7.328173e+002, 1.414286e-002
7.347458e+002, 7.829050e-003
7.366743e+002, 4.653701e-003
7.386027e+002, 3.305570e-003
7.405312e+002, 2.671271e-003
7.424597e+002, 2.268924e-003
7.443881e+002, 2.011065e-003
7.463166e+002, 1.795633e-003
7.482451e+002, 1.780492e-003
7.501735e+002, 1.968280e-003
7.521020e+002, 1.836904e-003
7.540305e+002, 1.665924e-003
7.559589e+002, 1.671377e-003
7.578874e+002, 1.667993e-003
7.598159e+002, 1.752072e-003
7.617443e+002, 1.847478e-003
7.636728e+002, 1.874645e-003
7.656013e+002, 1.865006e-003
7.675297e+002, 1.897373e-003
7.694582e+002, 1.915792e-003
7.713867e+002, 1.934854e-003
7.733151e+002, 1.979467e-003
7.752436e+002, 2.014229e-003
7.771721e+002, 2.124336e-003
7.791005e+002, 2.125893e-003
7.810290e+002, 2.101938e-003
7.829575e+002, 2.247603e-003
7.848859e+002, 2.437969e-003
7.868144e+002, 2.496151e-003
7.887429e+002, 2.439425e-003
7.906713e+002, 2.466948e-003
7.925998e+002, 2.606737e-003
7.945283e+002, 2.671622e-003
7.964567e+002, 2.797727e-003
7.983852e+002, 2.750077e-003
8.003137e+002, 2.745931e-003
8.022421e+002, 2.797703e-003
8.041706e+002, 2.874178e-003
8.060991e+002, 3.046020e-003
8.080275e+002, 3.118753e-003
8.099560e+002, 3.208645e-003
8.118845e+002, 3.298635e-003
8.138129e+002, 3.259894e-003
8.157414e+002, 3.339797e-003
8.176699e+002, 3.551370e-003
8.195983e+002, 3.724485e-003
8.215268e+002, 3.882804e-003
8.234553e+002, 4.030311e-003
8.253837e+002, 4.031201e-003
8.273122e+002, 4.127221e-003
8.292407e+002, 4.399731e-003
8.311691e+002, 4.597109e-003
8.330976e+002, 4.874048e-003
8.350261e+002, 5.262695e-003
8.369545e+002, 5.460573e-003
8.388830e+002, 5.775033e-003
8.408115e+002, 6.088201e-003
8.427399e+002, 6.442385e-003
8.446684e+002, 6.999699e-003
8.465969e+002, 7.792964e-003
8.485253e+002, 8.850561e-003
8.504538e+002, 1.078763e-002
8.523823e+002, 1.296628e-002
8.543107e+002, 1.212611e-002
8.562392e+002, 1.139412e-002
8.581677e+002, 1.283882e-002
8.600961e+002, 1.467092e-002
8.620246e+002, 1.689200e-002
8.639531e+002, 1.963111e-002
8.658815e+002, 2.294892e-002
8.678100e+002, 2.701230e-002
8.697385e+002, 3.216013e-002
8.716669e+002, 3.856213e-002
8.735954e+002, 4.609358e-002
8.755239e+002, 5.305966e-002
8.774523e+002, 5.820984e-002
8.793808e+002, 6.089224e-002
8.813093e+002, 6.092764e-002
8.832377e+002, 5.801011e-002
8.851662e+002, 5.164993e-002
8.870947e+002, 4.259500e-002
8.890231e+002, 3.278422e-002
8.909516e+002, 2.362514e-002
8.928801e+002, 1.602832e-002
8.948085e+002, 1.034903e-002
8.967370e+002, 6.916310e-003
8.986655e+002, 5.378711e-003
9.005939e+002, 4.704137e-003
9.025224e+002, 4.459280e-003
9.044509e+002, 4.374131e-003
9.063793e+002, 4.231164e-003
9.083078e+002, 4.176046e-003
9.102363e+002, 4.242645e-003
9.121647e+002, 4.198117e-003
9.140932e+002, 4.162704e-003
9.160217e+002, 4.226847e-003
9.179501e+002, 4.194376e-003
9.198786e+002, 4.082223e-003
9.218071e+002, 4.073688e-003
9.237355e+002, 4.225917e-003
9.256640e+002, 4.285823e-003
9.275925e+002, 4.305689e-003
9.295209e+002, 4.350878e-003
9.314494e+002, 4.392945e-003
9.333779e+002, 4.470265e-003
9.353063e+002, 4.605231e-003
9.372348e+002, 4.806736e-003
9.391633e+002, 4.884018e-003
9.410917e+002, 4.920748e-003
9.430202e+002, 5.129889e-003
9.449487e+002, 5.228149e-003
9.468771e+002, 5.330791e-003
9.488056e+002, 5.393724e-003
9.507341e+002, 5.572635e-003
9.526625e+002, 5.668861e-003
9.545910e+002, 5.698556e-003
9.565195e+002, 5.784979e-003
9.584479e+002, 5.945221e-003
9.603764e+002, 6.009612e-003
9.623049e+002, 5.979861e-003
9.642333e+002, 5.828453e-003
9.661618e+002, 5.789320e-003
9.680903e+002, 5.827550e-003
9.700187e+002, 5.919861e-003
9.719472e+002, 5.948948e-003
9.738757e+002, 5.906112e-003
9.758041e+002, 5.893456e-003
9.777326e+002, 6.011489e-003
9.796611e+002, 6.049661e-003
9.815895e+002, 6.064976e-003
9.835180e+002, 6.149295e-003
9.854465e+002, 6.096246e-003
9.873749e+002, 5.971258e-003
9.893034e+002, 6.106792e-003
9.912319e+002, 6.075170e-003
9.931603e+002, 6.103087e-003
9.950888e+002, 6.177718e-003
9.970173e+002, 6.171407e-003
9.989457e+002, 6.234793e-003
1.000874e+003, 6.310091e-003
1.002803e+003, 6.264720e-003
1.004731e+003, 6.242672e-003
1.006660e+003, 6.194209e-003
1.008588e+003, 6.317409e-003
1.010517e+003, 6.382700e-003
1.012445e+003, 6.398059e-003
1.014373e+003, 6.507561e-003
1.016302e+003, 6.557025e-003
1.018230e+003, 6.589069e-003
1.020159e+003, 6.669292e-003
1.022087e+003, 6.736577e-003
1.024016e+003, 6.775656e-003
1.025944e+003, 6.873759e-003
1.027873e+003, 6.924292e-003
1.029801e+003, 6.961936e-003
1.031730e+003, 7.188607e-003
1.033658e+003, 7.258408e-003
1.035587e+003, 7.342341e-003
1.037515e+003, 7.539686e-003
1.039443e+003, 7.582155e-003
1.041372e+003, 7.656525e-003
1.043300e+003, 7.756197e-003
1.045229e+003, 7.832242e-003
1.047157e+003, 7.804246e-003
1.049086e+003, 7.859375e-003
1.051014e+003, 7.886948e-003
1.052943e+003, 7.823994e-003
1.054871e+003, 7.969770e-003
1.056800e+003, 8.184282e-003
1.058728e+003, 8.286734e-003
1.060657e+003, 8.221274e-003
1.062585e+003, 8.424800e-003
1.064514e+003, 8.661325e-003
1.066442e+003, 8.841346e-003
1.068370e+003, 9.032522e-003
1.070299e+003, 9.102654e-003
1.072227e+003, 9.101035e-003
1.074156e+003, 9.230053e-003
1.076084e+003, 9.396825e-003
1.078013e+003, 9.529956e-003
1.079941e+003, 9.684571e-003
1.081870e+003, 9.769848e-003
1.083798e+003, 9.842942e-003
1.085727e+003, 9.867973e-003
1.087655e+003, 9.914523e-003
1.089584e+003, 1.006379e-002
1.091512e+003, 1.010764e-002
1.093441e+003, 1.018159e-002
1.095369e+003, 1.034157e-002
1.097297e+003, 1.057926e-002
1.099226e+003, 1.075382e-002
1.101154e+003, 1.064529e-002
1.103083e+003, 1.047142e-002
1.105011e+003, 1.048638e-002
1.106940e+003, 1.044616e-002
1.108868e+003, 1.063769e-002
1.110797e+003, 1.092028e-002
1.112725e+003, 1.105856e-002
1.114654e+003, 1.119804e-002
1.116582e+003, 1.137902e-002
1.118511e+003, 1.151633e-002
1.120439e+003, 1.152481e-002
1.122368e+003, 1.154387e-002
1.124296e+003, 1.171183e-002
1.126224e+003, 1.184234e-002
1.128153e+003, 1.179108e-002
1.130081e+003, 1.184440e-002
1.132010e+003, 1.200264e-002
1.133938e+003, 1.195679e-002
1.135867e+003, 1.204614e-002
1.137795e+003, 1.219763e-002
1.139724e+003, 1.233838e-002
1.141652e+003, 1.247126e-002
1.143581e+003, 1.249383e-002
1.145509e+003, 1.253902e-002
1.147438e+003, 1.262122e-002
1.149366e+003, 1.274496e-002
1.151295e+003, 1.294285e-002
1.153223e+003, 1.299546e-002
1.155151e+003, 1.303368e-002
1.157080e+003, 1.315275e-002
1.159008e+003, 1.334913e-002
1.160937e+003, 1.353745e-002
1.162865e+003, 1.376024e-002
1.164794e+003, 1.389335e-002
1.166722e+003, 1.410758e-002
1.168651e+003, 1.433829e-002
1.170579e+003, 1.442478e-002
1.172508e+003, 1.461627e-002
1.174436e+003, 1.489261e-002
1.176365e+003, 1.504449e-002
1.178293e+003, 1.520434e-002
1.180222e+003, 1.537044e-002
1.182150e+003, 1.562093e-002
1.184078e+003, 1.575218e-002
1.186007e+003, 1.581871e-002
1.187935e+003, 1.610458e-002
1.189864e+003, 1.634515e-002
1.191792e+003, 1.641937e-002
1.193721e+003, 1.659815e-002
1.195649e+003, 1.654770e-002
1.197578e+003, 1.659154e-002
1.199506e+003, 1.684846e-002
1.201435e+003, 1.705410e-002
1.203363e+003, 1.718471e-002
1.205292e+003, 1.737571e-002
1.207220e+003, 1.768231e-002
1.209149e+003, 1.795463e-002
1.211077e+003, 1.813281e-002
1.213005e+003, 1.831071e-002
1.214934e+003, 1.849105e-002
1.216862e+003, 1.868102e-002
1.218791e+003, 1.894956e-002
1.220719e+003, 1.926664e-002
1.222648e+003, 1.951486e-002
1.224576e+003, 1.984062e-002
1.226505e+003, 2.020078e-002
1.228433e+003, 2.046946e-002
1.230362e+003, 2.061305e-002
1.232290e+003, 2.072714e-002
1.234219e+003, 2.090229e-002
1.236147e+003, 2.130081e-002
1.238076e+003, 2.162218e-002
1.240004e+003, 2.192016e-002
1.241932e+003, 2.218514e-002
1.243861e+003, 2.242765e-002
1.245789e+003, 2.273174e-002
1.247718e+003, 2.294007e-002
1.249646e+003, 2.311285e-002
1.251575e+003, 2.342376e-002
1.253503e+003, 2.386305e-002
1.255432e+003, 2.411455e-002
1.257360e+003, 2.433686e-002
1.259289e+003, 2.471304e-002
1.261217e+003, 2.502714e-002
1.263146e+003, 2.534598e-002
1.265074e+003, 2.575021e-002
1.267003e+003, 2.606890e-002
1.268931e+003, 2.637809e-002
1.270859e+003, 2.678320e-002
1.272788e+003, 2.719450e-002
1.274716e+003, 2.764353e-002
1.276645e+003, 2.818622e-002
1.278573e+003, 2.866199e-002
1.280502e+003, 2.916337e-002
1.282430e+003, 2.963299e-002
1.284359e+003, 2.993209e-002
1.286287e+003, 3.027696e-002
1.288216e+003, 3.074933e-002
1.290144e+003, 3.123862e-002
1.292073e+003, 3.166473e-002
1.294001e+003, 3.222806e-002
1.295930e+003, 3.271757e-002
1.297858e+003, 3.309812e-002
1.299786e+003, 3.356461e-002
1.301715e+003, 3.417133e-002
1.303643e+003, 3.475604e-002
1.305572e+003, 3.521150e-002
1.307500e+003, 3.551706e-002
1.309429e+003, 3.603298e-002
1.311357e+003, 3.684496e-002
1.313286e+003, 3.742196e-002
1.315214e+003, 3.792068e-002
1.317143e+003, 3.856595e-002
1.319071e+003, 3.916314e-002
1.321000e+003, 3.971280e-002
1.322928e+003, 4.029254e-002
1.324857e+003, 4.102594e-002
1.326785e+003, 4.187480e-002
1.328714e+003, 4.259085e-002
1.330642e+003, 4.334015e-002
1.332570e+003, 4.414788e-002
1.334499e+003, 4.472405e-002
1.336427e+003, 4.547717e-002
1.338356e+003, 4.632937e-002
1.340284e+003, 4.717807e-002
1.342213e+003, 4.801762e-002
1.344141e+003, 4.891469e-002
1.346070e+003, 4.979040e-002
1.347998e+003, 5.057785e-002
1.349927e+003, 5.150538e-002
1.351855e+003, 5.258124e-002
1.353784e+003, 5.363028e-002
1.355712e+003, 5.473267e-002
1.357641e+003, 5.579986e-002
1.359569e+003, 5.694380e-002
1.361497e+003, 5.822464e-002
1.363426e+003, 5.948305e-002
1.365354e+003, 6.053400e-002
1.367283e+003, 6.171477e-002
1.369211e+003, 6.293920e-002
1.371140e+003, 6.427237e-002
1.373068e+003, 6.559497e-002
1.374997e+003, 6.689978e-002
1.376925e+003, 6.830261e-002
1.378854e+003, 6.988385e-002
1.380782e+003, 7.134081e-002
1.382711e+003, 7.285819e-002
1.384639e+003, 7.452092e-002
1.386568e+003, 7.645623e-002
1.388496e+003, 7.822692e-002
1.390424e+003, 7.983781e-002
1.392353e+003, 8.182941e-002
1.394281e+003, 8.401903e-002
1.396210e+003, 8.606656e-002
1.398138e+003, 8.820320e-002
1.400067e+003, 9.039366e-002
1.401995e+003, 9.230728e-002
1.403924e+003, 9.418035e-002
1.405852e+003, 9.575212e-002
1.407781e+003, 9.696126e-002
1.409709e+003, 9.796476e-002
1.411638e+003, 9.914536e-002
1.413566e+003, 1.010437e-001
1.415495e+003, 1.032099e-001
1.417423e+003, 1.050717e-001
1.419351e+003, 1.063942e-001
1.421280e+003, 1.070717e-001
1.423208e+003, 1.082588e-001
1.425137e+003, 1.097699e-001
1.427065e+003, 1.110193e-001
1.428994e+003, 1.121290e-001
1.430922e+003, 1.127847e-001
1.432851e+003, 1.131051e-001
1.434779e+003, 1.134320e-001
1.436708e+003, 1.132940e-001
1.438636e+003, 1.123684e-001
1.440565e+003, 1.114459e-001
1.442493e+003, 1.105689e-001
1.444422e+003, 1.096519e-001
1.446350e+003, 1.088901e-001
1.448278e+003, 1.081345e-001
1.450207e+003, 1.069981e-001
1.452135e+003, 1.056166e-001
1.454064e+003, 1.044964e-001
1.455992e+003, 1.040469e-001
1.457921e+003, 1.026567e-001
1.459849e+003, 1.005073e-001
1.461778e+003, 9.861060e-002
1.463706e+003, 9.720537e-002
1.465635e+003, 9.567045e-002
1.467563e+003, 9.383782e-002
1.469492e+003, 9.224894e-002
1.471420e+003, 9.092451e-002
1.473349e+003, 8.914874e-002
1.475277e+003, 8.704893e-002
1.477205e+003, 8.510341e-002
1.479134e+003, 8.327281e-002
1.481062e+003, 8.153052e-002
1.482991e+003, 7.978972e-002
1.484919e+003, 7.799526e-002
1.486848e+003, 7.629226e-002
1.488776e+003, 7.468535e-002
1.490705e+003, 7.292541e-002
1.492633e+003, 7.099043e-002
1.494562e+003, 6.956018e-002
1.496490e+003, 6.825331e-002
1.498419e+003, 6.626873e-002
1.500347e+003, 6.411831e-002
1.502276e+003, 6.223746e-002
1.504204e+003, 6.103334e-002
1.506132e+003, 6.005527e-002
1.508061e+003, 5.765644e-002
1.509989e+003, 5.494575e-002
1.511918e+003, 5.291592e-002
1.513846e+003, 5.096402e-002
1.515775e+003, 4.905579e-002
1.517703e+003, 4.723613e-002
1.519632e+003, 4.569132e-002
1.521560e+003, 4.403041e-002
1.523489e+003, 4.172487e-002
1.525417e+003, 3.986065e-002
1.527346e+003, 3.809150e-002
1.529274e+003, 3.622939e-002
1.531203e+003, 3.448364e-002
1.533131e+003, 3.308827e-002
1.535059e+003, 3.147111e-002
1.536988e+003, 3.017858e-002
1.538916e+003, 2.958912e-002
1.540845e+003, 2.811529e-002
1.542773e+003, 2.607861e-002
1.544702e+003, 2.447724e-002
1.546630e+003, 2.283806e-002
1.548559e+003, 2.153339e-002
1.550487e+003, 2.037439e-002
1.552416e+003, 1.910810e-002
1.554344e+003, 1.793997e-002
1.556273e+003, 1.697702e-002
1.558201e+003, 1.661520e-002
1.560130e+003, 1.506865e-002
1.562058e+003, 1.246048e-002
1.563986e+003, 1.065515e-002
1.565915e+003, 9.248181e-003
1.567843e+003, 7.870683e-003
1.569772e+003, 6.435679e-003
1.571700e+003, 4.745596e-003
1.573629e+003, 3.591083e-003
1.575557e+003, 3.373551e-003
1.577486e+003, 2.731299e-003
1.579414e+003, 1.847235e-003
1.581343e+003, 1.613867e-003
1.583271e+003, 1.401137e-003
1.585200e+003, 1.115663e-003
1.587128e+003, 1.038560e-003
1.589057e+003, 9.884265e-004
1.590985e+003, 1.036049e-003
1.592913e+003, 1.146273e-003
1.594842e+003, 1.135029e-003
1.596770e+003, 1.005167e-003
1.598699e+003, 9.515505e-004
1.600627e+003, 9.620641e-004
1.602556e+003, 8.062389e-004
1.604484e+003, 8.433682e-004
1.606413e+003, 7.893537e-004
1.608341e+003, 4.747156e-004
1.610270e+003, 4.682032e-004
1.612198e+003, 4.769619e-004
1.614127e+003, 6.211569e-004
1.616055e+003, 1.026716e-003
1.617984e+003, 6.241797e-004
1.619912e+003, -7.128362e-006
1.621840e+003, -1.293046e-004
1.623769e+003, -2.676696e-004
1.625697e+003, -5.059224e-004
1.627626e+003, -5.041346e-004
1.629554e+003, -5.033087e-004
1.631483e+003, -6.846077e-004
1.633411e+003, -4.808246e-004
1.635340e+003, -9.745880e-006
1.637268e+003, -3.437726e-004
1.639197e+003, -8.315374e-004
1.641125e+003, -9.174932e-004
1.643054e+003, -7.195297e-004
1.644982e+003, -3.187836e-004
1.646911e+003, -3.404079e-004
1.648839e+003, -7.401190e-004
1.650767e+003, -1.650480e-004
1.652696e+003, 1.128864e-003
1.654624e+003, 2.665951e-004
1.656553e+003, -9.852085e-004
1.658481e+003, -1.194615e-003
1.660410e+003, -1.049099e-003
1.662338e+003, -9.636661e-004
1.664267e+003, -1.245619e-003
1.666195e+003, -1.347503e-003
1.668124e+003, -8.794079e-004
1.670052e+003, -8.533202e-004
1.671981e+003, -1.082555e-003
1.673909e+003, -9.459262e-004
1.675838e+003, -9.439987e-004
1.677766e+003, -1.400840e-003
1.679694e+003, -1.405093e-003
1.681623e+003, -1.115114e-003
1.683551e+003, -2.697801e-004
1.685480e+003, -3.100919e-004
1.687408e+003, -1.057470e-003
1.689337e+003, -1.270237e-003
1.691265e+003, -1.453730e-003
1.693194e+003, -1.297620e-003
1.695122e+003, -5.599695e-004
1.697051e+003, -6.033959e-004
1.698979e+003, -4.842966e-004
1.700908e+003, -3.803401e-004
1.702836e+003, -1.189424e-003
1.704765e+003, -1.200503e-003
1.706693e+003, -1.291599e-003
1.708621e+003, -1.463692e-003
1.710550e+003, -1.440430e-003
1.712478e+003, -1.337651e-003
1.714407e+003, -1.164184e-003
1.716335e+003, -4.669180e-004
1.718264e+003, -4.666780e-004
1.720192e+003, -1.269155e-003
1.722121e+003, -1.506178e-003
1.724049e+003, -1.647443e-003
1.725978e+003, -1.700786e-003
1.727906e+003, -1.700204e-003
1.729835e+003, -1.746280e-003
1.731763e+003, -1.305095e-003
1.733692e+003, -6.827598e-004
1.735620e+003, -1.315704e-003
1.737548e+003, -1.904788e-003
1.739477e+003, -1.640822e-003
1.741405e+003, -1.581756e-003
1.743334e+003, -1.609536e-003
1.745262e+003, -1.516129e-003
1.747191e+003, -1.450178e-003
1.749119e+003, -1.430989e-003
1.751048e+003, -1.285029e-003
1.752976e+003, -1.559477e-003
1.754905e+003, -1.648899e-003
1.756833e+003, -1.521027e-003
1.758762e+003, -1.776432e-003
1.760690e+003, -1.599299e-003
1.762619e+003, -1.382620e-003
1.764547e+003, -1.529293e-003
1.766475e+003, -1.303791e-003
1.768404e+003, -1.141151e-003
1.770332e+003, -1.174581e-003
1.772261e+003, -9.565167e-004
1.774189e+003, -1.248984e-003
1.776118e+003, -1.486591e-003
1.778046e+003, -1.452837e-003
1.779975e+003, -1.281415e-003
1.781903e+003, -1.146073e-003
1.783832e+003, -9.998442e-004
1.785760e+003, -1.126872e-003
1.787689e+003, -1.177214e-003
1.789617e+003, -8.396572e-004
1.791546e+003, -3.175375e-004
1.793474e+003, -1.418861e-004
1.795402e+003, -3.277370e-004
1.797331e+003, -5.217387e-004
1.799259e+003, -5.586102e-004
1.801188e+003, -2.097470e-004
1.803116e+003, -5.971117e-005
1.805045e+003, -7.152677e-005
1.806973e+003, 6.792809e-005
1.808902e+003, 3.366727e-004
1.810830e+003, 6.610865e-004
1.812759e+003, 8.088738e-004
1.814687e+003, 7.229724e-004
1.816616e+003, 6.247312e-004
1.818544e+003, 6.918213e-004
1.820473e+003, 9.057281e-004
1.822401e+003, 9.118564e-004
1.824329e+003, 8.325501e-004
1.826258e+003, 3.939312e-004
1.828186e+003, 4.312440e-005
1.830115e+003, -4.818191e-005
1.832043e+003, -3.169929e-004
1.833972e+003, -8.611840e-004
1.835900e+003, -1.370438e-003
1.837829e+003, -1.417681e-003
1.839757e+003, -1.210272e-003
1.841686e+003, -1.082087e-003
1.843614e+003, -1.006198e-003
1.845543e+003, -1.137722e-003
1.847471e+003, -1.354507e-003
1.849400e+003, -1.184032e-003
1.851328e+003, -1.164777e-003
1.853256e+003, -1.361780e-003
1.855185e+003, -1.486627e-003
1.857113e+003, -1.489553e-003
1.859042e+003, -1.407384e-003
1.860970e+003, -1.413490e-003
1.862899e+003, -1.431128e-003
1.864827e+003, -1.403525e-003
1.866756e+003, -1.376664e-003
1.868684e+003, -1.231982e-003
1.870613e+003, -1.274560e-003
1.872541e+003, -1.236690e-003
1.874470e+003, -1.456378e-003
1.876398e+003, -1.822863e-003
1.878327e+003, -1.696176e-003
1.880255e+003, -1.532631e-003
1.882183e+003, -1.706667e-003
1.884112e+003, -1.797392e-003
1.886040e+003, -1.919459e-003
1.887969e+003, -1.684316e-003
1.889897e+003, -1.537956e-003
1.891826e+003, -1.749062e-003
1.893754e+003, -1.521636e-003
1.895683e+003, -1.126874e-003
1.897611e+003, -1.338806e-003
1.899540e+003, -1.625837e-003
1.901468e+003, -1.710380e-003
1.903397e+003, -1.836758e-003
1.905325e+003, -1.738725e-003
1.907254e+003, -1.591577e-003
1.909182e+003, -1.697434e-003
1.911110e+003, -1.702977e-003
1.913039e+003, -9.603778e-004
1.914967e+003, -5.021355e-004
1.916896e+003, -6.725262e-004
1.918824e+003, -1.041583e-003
1.920753e+003, -1.365511e-003
1.922681e+003, -1.744453e-003
1.924610e+003, -2.190918e-003
1.926538e+003, -1.938012e-003
1.928467e+003, -1.338038e-003
1.930395e+003, -1.348165e-003
1.932324e+003, -1.541646e-003
1.934252e+003, -1.447791e-003
1.936181e+003, -1.340149e-003
1.938109e+003, -1.024610e-003
1.940037e+003, -7.884619e-004
1.941966e+003, -9.520052e-004
1.943894e+003, -1.774046e-003
1.945823e+003, -2.054342e-003
1.947751e+003, -1.682422e-003
1.949680e+003, -1.768655e-003
1.951608e+003, -2.095995e-003
1.953537e+003, -1.510277e-003
1.955465e+003, -1.246613e-003
1.957394e+003, -9.455723e-004
1.959322e+003, -9.270725e-004
1.961251e+003, -1.545948e-003
1.963179e+003, -2.070261e-003
1.965108e+003, -2.388645e-003
1.967036e+003, -2.078371e-003
1.968964e+003, -1.260911e-003
1.970893e+003, -1.001291e-003
1.972821e+003, -7.411788e-004
1.974750e+003, -7.299912e-004
1.976678e+003, -1.524080e-003
1.978607e+003, -1.306469e-003
1.980535e+003, -1.350916e-003
1.982464e+003, -1.903288e-003
1.984392e+003, -1.071358e-003
1.986321e+003, -8.493542e-004
1.988249e+003, -1.686523e-003
1.990178e+003, -2.099327e-003
1.992106e+003, -1.661625e-003
1.994035e+003, -1.072571e-003
1.995963e+003, -1.019527e-003
1.997891e+003, -1.031305e-003
1.999820e+003, -1.795738e-003
2.001748e+003, -2.045983e-003
2.003677e+003, -2.026158e-003
2.005605e+003, -3.035811e-003
2.007534e+003, -2.838662e-003
2.009462e+003, -2.154623e-003
2.011391e+003, -2.366554e-003
2.013319e+003, -1.620446e-003
2.015248e+003, -8.866806e-004
2.017176e+003, -9.228034e-004
2.019105e+003, -5.956102e-004
2.021033e+003, -6.013515e-004
2.022962e+003, -1.227725e-003
2.024890e+003, -1.233946e-003
2.026818e+003, -1.305135e-003
2.028747e+003, -1.201018e-003
2.030675e+003, -1.047243e-003
2.032604e+003, -1.035586e-003
2.034532e+003, -1.877523e-003
2.036461e+003, -2.272194e-003
2.038389e+003, -2.168973e-003
2.040318e+003, -1.875459e-003
2.042246e+003, -1.720818e-003
2.044175e+003, -2.480706e-003
2.046103e+003, -2.880700e-003
2.048031e+003, -2.879371e-003
2.049960e+003, -2.753103e-003
2.051888e+003, -2.221109e-003
2.053817e+003, -1.379040e-003
2.055745e+003, -1.776210e-003
2.057674e+003, -1.935747e-003
2.059602e+003, -1.798683e-003
2.061531e+003, -1.929503e-003
2.063459e+003, -1.847613e-003
2.065388e+003, -2.209579e-003
2.067316e+003, -2.695523e-003
2.069245e+003, -2.486609e-003
2.071173e+003, -2.214893e-003
2.073102e+003, -2.207488e-003
2.075030e+003, -2.178054e-003
2.076958e+003, -1.667274e-003
2.078887e+003, -2.113163e-003
2.080815e+003, -2.297951e-003
2.082744e+003, -1.770950e-003
2.084672e+003, -1.407392e-003
2.086601e+003, -1.736870e-003
2.088529e+003, -1.824943e-003
2.090458e+003, -1.800688e-003
2.092386e+003, -1.715667e-003
2.094315e+003, -1.828446e-003
2.096243e+003, -2.334508e-003
2.098172e+003, -2.327986e-003
2.100100e+003, -2.084190e-003
2.102029e+003, -2.028888e-003
2.103957e+003, -1.709515e-003
2.105885e+003, -1.021740e-003
2.107814e+003, -1.237020e-003
2.109742e+003, -2.179060e-003
2.111671e+003, -2.554458e-003
2.113599e+003, -2.316275e-003
2.115528e+003, -1.867705e-003
2.117456e+003, -1.708035e-003
2.119385e+003, -1.652373e-003
2.121313e+003, -1.434856e-003
2.123242e+003, -1.546875e-003
2.125170e+003, -2.206239e-003
2.127099e+003, -2.396643e-003
2.129027e+003, -1.592121e-003
2.130956e+003, -7.423417e-004
2.132884e+003, -1.216750e-004
2.134813e+003, -9.764123e-004
2.136741e+003, -1.964488e-003
2.138669e+003, -1.924671e-003
2.140598e+003, -1.172208e-003
2.142526e+003, 8.638378e-005
2.144455e+003, -3.206998e-005
2.146383e+003, -9.364078e-004
2.148312e+003, -1.854025e-003
2.150240e+003, -2.345915e-003
2.152169e+003, -1.396402e-003
2.154097e+003, -6.283111e-004
2.156026e+003, -6.852357e-004
2.157954e+003, -1.489172e-003
2.159883e+003, -2.976283e-003
2.161811e+003, -2.692482e-003
2.163740e+003, -1.968322e-003
2.165668e+003, -1.297280e-003
2.167596e+003, -2.353480e-003
2.169525e+003, -2.937586e-003
2.171453e+003, -2.506494e-003
2.173382e+003, -1.792509e-003
2.175310e+003, -1.852166e-003
2.177239e+003, -3.085418e-003
2.179167e+003, -2.675991e-003
2.181096e+003, -1.286368e-003
2.183024e+003, -1.211377e-003
2.184953e+003, -2.005201e-003
2.186881e+003, -2.057405e-003
2.188810e+003, -1.295013e-003
2.190738e+003, -1.651200e-003
2.192667e+003, -2.805963e-003
2.194595e+003, -3.355784e-003
2.196523e+003, -2.864517e-003
2.198452e+003, -2.162415e-003
2.200380e+003, -1.770246e-003
2.202309e+003, -1.499989e-003
2.204237e+003, -1.493965e-003
2.206166e+003, -1.270993e-003
2.208094e+003, -1.714798e-003
2.210023e+003, -2.107589e-003
2.211951e+003, -2.083442e-003
2.213880e+003, -2.545104e-003
2.215808e+003, -2.775899e-003
2.217737e+003, -2.122055e-003
2.219665e+003, -1.243513e-003
2.221594e+003, -1.167913e-003
2.223522e+003, -1.541753e-003
2.225450e+003, -1.539453e-003
2.227379e+003, -1.364461e-003
2.229307e+003, -2.078919e-003
2.231236e+003, -2.680419e-003
2.233164e+003, -2.143459e-003
2.235093e+003, -2.020371e-003
2.237021e+003, -1.776098e-003
2.238950e+003, -1.225250e-003
2.240878e+003, -1.533205e-003
2.242807e+003, -1.682784e-003
2.244735e+003, -1.820309e-003
2.246664e+003, -2.384513e-003
2.248592e+003, -2.330929e-003
2.250521e+003, -1.821842e-003
2.252449e+003, -2.061639e-003
2.254377e+003, -2.126150e-003
2.256306e+003, -2.343720e-003
2.258234e+003, -2.357521e-003
2.260163e+003, -2.001706e-003
2.262091e+003, -1.505517e-003
2.264020e+003, -1.749683e-003
2.265948e+003, -2.447516e-003
2.267877e+003, -2.248507e-003
2.269805e+003, -2.392417e-003
2.271734e+003, -2.757819e-003
2.273662e+003, -2.014236e-003
2.275591e+003, -1.880388e-003
2.277519e+003, -2.037358e-003
2.279448e+003, -2.129623e-003
2.281376e+003, -2.457593e-003
2.283304e+003, -2.747540e-003
2.285233e+003, -2.276061e-003
2.287161e+003, -2.073574e-003
2.289090e+003, -2.373926e-003
2.291018e+003, -2.306108e-003
2.292947e+003, -1.737510e-003
2.294875e+003, -1.426292e-003
2.296804e+003, -1.560034e-003
2.298732e+003, -1.952579e-003
2.300661e+003, -1.921593e-003
2.302589e+003, -1.676399e-003
2.304518e+003, -1.543440e-003
2.306446e+003, -1.511145e-003
2.308375e+003, -1.612901e-003
2.310303e+003, -1.583112e-003
2.312231e+003, -1.551656e-003
2.314160e+003, -1.288898e-003
2.316088e+003, -1.203644e-003
2.318017e+003, -1.217901e-003
2.319945e+003, -1.274956e-003
2.321874e+003, -1.328134e-003
2.323802e+003, -1.059198e-003
2.325731e+003, -6.910880e-004
2.327659e+003, -4.226574e-004
2.329588e+003, -3.654936e-004
2.331516e+003, -5.299293e-004
2.333445e+003, -3.402049e-004
2.335373e+003, 1.079224e-004
2.337302e+003, 2.368405e-004
2.339230e+003, 4.414856e-004
2.341158e+003, 3.776846e-004
2.343087e+003, -8.144153e-005
2.345015e+003, -3.136085e-004
2.346944e+003, -5.658264e-004
2.348872e+003, -9.996253e-004
2.350801e+003, -8.746731e-004
2.352729e+003, -3.083741e-004
2.354658e+003, 2.853464e-004
2.356586e+003, 6.163702e-004
2.358515e+003, 5.177961e-004
2.360443e+003, 6.337127e-004
2.362372e+003, 7.282516e-004
2.364300e+003, 8.006837e-004
2.366229e+003, 7.223421e-004
2.368157e+003, 6.056871e-004
2.370085e+003, 3.033280e-004
2.372014e+003, -1.822839e-004
2.373942e+003, -4.529877e-004
2.375871e+003, -6.944425e-004
2.377799e+003, -1.122490e-003
2.379728e+003, -1.331724e-003
2.381656e+003, -1.436904e-003
2.383585e+003, -1.690245e-003
2.385513e+003, -1.843626e-003
2.387442e+003, -1.700481e-003
2.389370e+003, -1.443251e-003
2.391299e+003, -1.289085e-003
2.393227e+003, -1.302514e-003
2.395156e+003, -1.398787e-003
2.397084e+003, -1.773910e-003
2.399012e+003, -1.922455e-003
2.400941e+003, -1.682896e-003
2.402869e+003, -1.615852e-003
2.404798e+003, -1.601740e-003
2.406726e+003, -1.695613e-003
2.408655e+003, -1.826747e-003
2.410583e+003, -1.404669e-003
2.412512e+003, -1.496913e-003
2.414440e+003, -1.798195e-003
2.416369e+003, -1.553564e-003
2.418297e+003, -1.676740e-003
2.420226e+003, -1.612145e-003
2.422154e+003, -1.422952e-003
2.424083e+003, -1.175393e-003
2.426011e+003, -1.635908e-003
2.427939e+003, -1.775261e-003
2.429868e+003, -1.173749e-003
2.431796e+003, -1.124959e-003
2.433725e+003, -1.661495e-003
2.435653e+003, -1.872791e-003
2.437582e+003, -1.746896e-003
2.439510e+003, -1.683253e-003
2.441439e+003, -1.890374e-003
2.443367e+003, -1.797814e-003
2.445296e+003, -1.321929e-003
2.447224e+003, -1.629472e-003
2.449153e+003, -1.785844e-003
2.451081e+003, -1.387487e-003
2.453010e+003, -1.356127e-003
2.454938e+003, -1.907943e-003
2.456866e+003, -2.009647e-003
2.458795e+003, -1.412921e-003
2.460723e+003, -1.158506e-003
2.462652e+003, -1.583186e-003
2.464580e+003, -1.736426e-003
2.466509e+003, -1.249935e-003
2.468437e+003, -1.104692e-003
2.470366e+003, -1.261820e-003
2.472294e+003, -1.560527e-003
2.474223e+003, -1.629786e-003
2.476151e+003, -1.441249e-003
2.478080e+003, -1.353175e-003
2.480008e+003, -8.783077e-004
2.481937e+003, -8.232997e-004
2.483865e+003, -1.306084e-003
2.485793e+003, -1.405420e-003
2.487722e+003, -9.804374e-004
2.489650e+003, -4.584006e-004
2.491579e+003, -6.969856e-004
2.493507e+003, -1.023298e-003
2.495436e+003, -1.019732e-003
2.497364e+003, -8.307125e-004
2.499293e+003, -8.635629e-004
2.501221e+003, -9.686630e-004
2.503150e+003, -5.694493e-004
2.505078e+003, -4.505243e-004
2.507007e+003, -1.076519e-003
2.508935e+003, -1.362517e-003
2.510864e+003, -8.231133e-004
2.512792e+003, -2.347522e-004
2.514720e+003, -3.699803e-005
2.516649e+003, 6.635280e-005
2.518577e+003, -5.269680e-005
2.520506e+003, -6.277530e-005
2.522434e+003, 1.743610e-004
2.524363e+003, 5.788547e-004
2.526291e+003, 6.023916e-004
2.528220e+003, 3.654956e-004
2.530148e+003, 2.111254e-004
2.532077e+003, 4.555356e-005
2.534005e+003, -1.266260e-004
2.535934e+003, -4.104403e-005
2.537862e+003, 3.558120e-006
2.539791e+003, -1.530533e-004
2.541719e+003, -3.321069e-004
2.543647e+003, -2.226738e-004
2.545576e+003, -2.943667e-004
2.547504e+003, -1.907230e-004
2.549433e+003, -2.652921e-004
2.551361e+003, -6.816710e-004
2.553290e+003, -8.938939e-004
2.555218e+003, -9.090516e-004
2.557147e+003, -1.105640e-003
2.559075e+003, -1.102594e-003
2.561004e+003, -1.223641e-003
2.562932e+003, -1.334766e-003
2.564861e+003, -1.432547e-003
2.566789e+003, -1.613864e-003
2.568718e+003, -1.521603e-003
2.570646e+003, -1.485169e-003
2.572574e+003, -1.580870e-003
2.574503e+003, -1.766138e-003
2.576431e+003, -1.774382e-003
2.578360e+003, -1.576715e-003
2.580288e+003, -1.330986e-003
2.582217e+003, -1.345499e-003
2.584145e+003, -1.675469e-003
2.586074e+003, -1.412673e-003
2.588002e+003, -1.353021e-003
2.589931e+003, -1.615947e-003
2.591859e+003, -1.664588e-003
2.593788e+003, -1.959037e-003
2.595716e+003, -2.314782e-003
2.597645e+003, -2.364707e-003
2.599573e+003, -2.378169e-003
2.601501e+003, -2.360427e-003
2.603430e+003, -2.261732e-003
2.605358e+003, -2.103255e-003
2.607287e+003, -2.391160e-003
2.609215e+003, -2.338766e-003
2.611144e+003, -2.020496e-003
2.613072e+003, -1.983803e-003
2.615001e+003, -2.081723e-003
2.616929e+003, -1.842122e-003
2.618858e+003, -1.761366e-003
2.620786e+003, -1.766757e-003
2.622715e+003, -1.589063e-003
2.624643e+003, -1.553516e-003
2.626572e+003, -1.973934e-003
2.628500e+003, -2.313725e-003
2.630428e+003, -1.975216e-003
2.632357e+003, -1.773966e-003
2.634285e+003, -1.491060e-003
2.636214e+003, -1.516069e-003
2.638142e+003, -1.706436e-003
2.640071e+003, -1.794517e-003
2.641999e+003, -1.824774e-003
2.643928e+003, -1.826738e-003
2.645856e+003, -1.887519e-003
2.647785e+003, -2.212324e-003
2.649713e+003, -2.193272e-003
2.651642e+003, -1.946431e-003
2.653570e+003, -2.126557e-003
2.655499e+003, -2.175458e-003
2.657427e+003, -1.941236e-003
2.659355e+003, -1.903076e-003
2.661284e+003, -1.921818e-003
2.663212e+003, -1.756182e-003
2.665141e+003, -1.892104e-003
2.667069e+003, -1.989474e-003
2.668998e+003, -2.011149e-003
2.670926e+003, -1.995832e-003
2.672855e+003, -1.890575e-003
2.674783e+003, -1.902664e-003
2.676712e+003, -1.874035e-003
2.678640e+003, -1.616723e-003
2.680569e+003, -1.650009e-003
2.682497e+003, -1.839450e-003
2.684426e+003, -1.991125e-003
2.686354e+003, -2.081336e-003
2.688282e+003, -2.102140e-003
2.690211e+003, -2.164522e-003
2.692139e+003, -2.304089e-003
2.694068e+003, -2.146099e-003
2.695996e+003, -1.994102e-003
2.697925e+003, -2.061134e-003
2.699853e+003, -2.241029e-003
2.701782e+003, -2.203603e-003
2.703710e+003, -1.998086e-003
2.705639e+003, -2.178776e-003
2.707567e+003, -2.240249e-003
2.709496e+003, -1.902034e-003
2.711424e+003, -1.716645e-003
2.713353e+003, -1.892566e-003
2.715281e+003, -2.092598e-003
2.717209e+003, -2.113333e-003
2.719138e+003, -2.216472e-003
2.721066e+003, -2.402795e-003
2.722995e+003, -2.287460e-003
2.724923e+003, -2.185191e-003
2.726852e+003, -1.966327e-003
2.728780e+003, -2.134981e-003
2.730709e+003, -2.151769e-003
2.732637e+003, -1.869034e-003
2.734566e+003, -1.942014e-003
2.736494e+003, -2.131040e-003
2.738423e+003, -2.014265e-003
2.740351e+003, -1.946989e-003
2.742280e+003, -1.998175e-003
2.744208e+003, -1.993605e-003
2.746136e+003, -1.960688e-003
2.748065e+003, -1.949899e-003
2.749993e+003, -2.111289e-003
2.751922e+003, -2.209354e-003
2.753850e+003, -2.244346e-003
2.755779e+003, -2.044592e-003
2.757707e+003, -2.179573e-003
2.759636e+003, -2.142782e-003
2.761564e+003, -2.093784e-003
2.763493e+003, -2.014643e-003
2.765421e+003, -1.979104e-003
2.767350e+003, -2.181970e-003
2.769278e+003, -2.187810e-003
2.771207e+003, -2.110158e-003
2.773135e+003, -2.231705e-003
2.775063e+003, -2.088163e-003
2.776992e+003, -1.928328e-003
2.778920e+003, -2.168398e-003
2.780849e+003, -2.408388e-003
2.782777e+003, -2.303601e-003
2.784706e+003, -2.208789e-003
2.786634e+003, -2.108032e-003
2.788563e+003, -2.273489e-003
2.790491e+003, -2.199123e-003
2.792420e+003, -2.033944e-003
2.794348e+003, -2.270492e-003
2.796277e+003, -2.475416e-003
2.798205e+003, -2.116606e-003
2.800134e+003, -1.976831e-003
2.802062e+003, -2.248745e-003
2.803990e+003, -2.444019e-003
2.805919e+003, -2.395147e-003
2.807847e+003, -2.544716e-003
2.809776e+003, -2.777045e-003
2.811704e+003, -2.549918e-003
2.813633e+003, -2.428409e-003
2.815561e+003, -2.422827e-003
2.817490e+003, -2.134245e-003
2.819418e+003, -2.244731e-003
2.821347e+003, -2.219598e-003
2.823275e+003, -2.062007e-003
2.825204e+003, -2.400466e-003
2.827132e+003, -2.484392e-003
2.829061e+003, -2.261566e-003
2.830989e+003, -2.485755e-003
2.832917e+003, -2.454677e-003
2.834846e+003, -2.119788e-003
2.836774e+003, -2.093939e-003
2.838703e+003, -2.299869e-003
2.840631e+003, -2.319769e-003
2.842560e+003, -2.287041e-003
2.844488e+003, -2.493488e-003
2.846417e+003, -2.426764e-003
2.848345e+003, -2.172766e-003
2.850274e+003, -2.154077e-003
2.852202e+003, -2.241207e-003
2.854131e+003, -2.178171e-003
2.856059e+003, -2.139604e-003
2.857988e+003, -2.233516e-003
2.859916e+003, -1.996650e-003
2.861844e+003, -1.779116e-003
2.863773e+003, -1.903122e-003
2.865701e+003, -2.040461e-003
2.867630e+003, -2.058161e-003
2.869558e+003, -2.474111e-003
2.871487e+003, -2.388716e-003
2.873415e+003, -1.840115e-003
2.875344e+003, -1.752799e-003
2.877272e+003, -1.830624e-003
2.879201e+003, -1.793003e-003
2.881129e+003, -1.825580e-003
2.883058e+003, -1.901789e-003
2.884986e+003, -1.804862e-003
2.886915e+003, -1.823945e-003
2.888843e+003, -1.970835e-003
2.890771e+003, -1.743011e-003
2.892700e+003, -1.808127e-003
2.894628e+003, -1.848992e-003
2.896557e+003, -1.607567e-003
2.898485e+003, -1.520602e-003
2.900414e+003, -1.731244e-003
2.902342e+003, -1.651838e-003
2.904271e+003, -1.295396e-003
2.906199e+003, -1.218643e-003
2.908128e+003, -1.520929e-003
2.910056e+003, -1.760863e-003
2.911985e+003, -1.903386e-003
2.913913e+003, -1.959610e-003
2.915842e+003, -1.855003e-003
2.917770e+003, -1.322000e-003
2.919698e+003, -1.376236e-003
2.921627e+003, -1.765348e-003
2.923555e+003, -1.913651e-003
2.925484e+003, -1.505169e-003
2.927412e+003, -1.473720e-003
2.929341e+003, -1.904308e-003
2.931269e+003, -2.155660e-003
2.933198e+003, -1.950807e-003
2.935126e+003, -1.644834e-003
2.937055e+003, -1.695984e-003
2.938983e+003, -1.976284e-003
2.940912e+003, -2.281307e-003
2.942840e+003, -2.516496e-003
2.944769e+003, -2.047049e-003
2.946697e+003, -1.638150e-003
2.948625e+003, -1.756125e-003
2.950554e+003, -1.818504e-003
2.952482e+003, -1.763632e-003
2.954411e+003, -1.994212e-003
2.956339e+003, -2.155428e-003
2.958268e+003, -2.096863e-003
2.960196e+003, -2.544207e-003
2.962125e+003, -2.486812e-003
2.964053e+003, -2.187588e-003
2.965982e+003, -2.107297e-003
2.967910e+003, -1.894343e-003
2.969839e+003, -2.265575e-003
2.971767e+003, -2.347953e-003
2.973696e+003, -1.872308e-003
2.975624e+003, -2.072096e-003
2.977552e+003, -2.067645e-003
2.979481e+003, -1.789442e-003
2.981409e+003, -1.799394e-003
2.983338e+003, -2.049503e-003
2.985266e+003, -2.189390e-003
2.987195e+003, -2.088155e-003
2.989123e+003, -1.771178e-003
2.991052e+003, -1.794009e-003
2.992980e+003, -2.021349e-003
2.994909e+003, -1.925565e-003
2.996837e+003, -1.596414e-003
2.998766e+003, -1.445910e-003
3.000694e+003, -1.561857e-003
3.002623e+003, -1.720564e-003
3.004551e+003, -1.614106e-003
3.006479e+003, -1.776029e-003
3.008408e+003, -1.957051e-003
3.010336e+003, -1.627225e-003
3.012265e+003, -1.347343e-003
3.014193e+003, -6.604366e-004
3.016122e+003, 4.785146e-004
3.018050e+003, 3.095533e-004
3.019979e+003, -1.126123e-003
3.021907e+003, -1.868156e-003
3.023836e+003, -1.654741e-003
3.025764e+003, -1.210362e-003
3.027693e+003, -1.087566e-003
3.029621e+003, -1.170416e-003
3.031550e+003, -1.309764e-003
3.033478e+003, -1.311214e-003
3.035406e+003, -1.226354e-003
3.037335e+003, -1.096938e-003
3.039263e+003, -1.482257e-003
3.041192e+003, -1.799027e-003
3.043120e+003, -1.938220e-003
3.045049e+003, -1.986614e-003
3.046977e+003, -1.610716e-003
3.048906e+003, -1.540614e-003
3.050834e+003, -1.620863e-003
3.052763e+003, -1.338999e-003
3.054691e+003, -1.009289e-003
3.056620e+003, -9.533676e-004
3.058548e+003, -1.243481e-003
3.060477e+003, -1.592133e-003
3.062405e+003, -1.613115e-003
3.064333e+003, -1.505737e-003
3.066262e+003, -1.044266e-003
3.068190e+003, -9.644823e-004
3.070119e+003, -1.325406e-003
3.072047e+003, -1.561133e-003
3.073976e+003, -1.542391e-003
3.075904e+003, -1.394840e-003
3.077833e+003, -1.109639e-003
3.079761e+003, -8.914233e-004
3.081690e+003, -1.101980e-003
3.083618e+003, -1.421670e-003
3.085547e+003, -1.184599e-003
3.087475e+003, -8.906508e-004
3.089404e+003, -7.485142e-004
3.091332e+003, -5.909227e-004
3.093260e+003, -5.655907e-004
3.095189e+003, -6.048119e-004
3.097117e+003, -7.965900e-004
3.099046e+003, -9.341995e-004
3.100974e+003, -1.153579e-003
3.102903e+003, -8.484724e-004
3.104831e+003, -9.971545e-004
3.106760e+003, -1.416065e-003
3.108688e+003, -1.266006e-003
3.110617e+003, -1.049109e-003
3.112545e+003, -9.412601e-004
3.114474e+003, -1.189328e-003
3.116402e+003, -1.294896e-003
3.118331e+003, -1.157897e-003
3.120259e+003, -8.567572e-004
3.122188e+003, -5.792744e-004
3.124116e+003, -5.651599e-004
3.126044e+003, -1.021933e-003
3.127973e+003, -1.175842e-003
3.129901e+003, -4.681858e-004
3.131830e+003, -3.644390e-004
3.133758e+003, -8.745774e-004
3.135687e+003, -1.427606e-003
3.137615e+003, -1.290679e-003
3.139544e+003, -7.462854e-004
3.141472e+003, -4.355625e-004
3.143401e+003, -2.709080e-004
3.145329e+003, -2.829659e-004
3.147258e+003, -2.342256e-005
3.149186e+003, -2.378577e-004
3.151115e+003, -5.809998e-004
3.153043e+003, -3.553716e-004
3.154971e+003, -1.201233e-004
3.156900e+003, -2.176888e-004
3.158828e+003, -4.360074e-004
3.160757e+003, 1.533153e-005
3.162685e+003, 2.119331e-004
3.164614e+003, 2.580927e-005
3.166542e+003, 3.525123e-005
3.168471e+003, -3.965824e-004
3.170399e+003, -5.421763e-004
3.172328e+003, -8.202961e-004
3.174256e+003, -6.342240e-004
3.176185e+003, -1.409800e-004
3.178113e+003, -2.765832e-004
3.180042e+003, -3.903257e-004
3.181970e+003, -3.633820e-004
3.183898e+003, -5.872960e-004
3.185827e+003, -6.234337e-004
3.187755e+003, 2.476478e-005
3.189684e+003, -9.655820e-005
3.191612e+003, -7.723732e-004
3.193541e+003, -9.526286e-004
3.195469e+003, -5.268587e-004
3.197398e+003, -5.514444e-004
3.199326e+003, -7.029923e-004
3.201255e+003, -4.335955e-004
3.203183e+003, -6.138047e-004
3.205112e+003, -5.875434e-004
3.207040e+003, -7.351791e-005
3.208969e+003, 3.742690e-005
3.210897e+003, -9.735934e-005
3.212825e+003, -2.941286e-004
3.214754e+003, -4.427638e-004
3.216682e+003, -9.970900e-005
3.218611e+003, 2.051270e-004
3.220539e+003, -1.700623e-004
3.222468e+003, -5.351406e-004
3.224396e+003, -5.142249e-004
3.226325e+003, -3.639701e-004
3.228253e+003, -2.781176e-004
3.230182e+003, -8.247818e-004
3.232110e+003, -9.352019e-004
3.234039e+003, -4.431007e-004
3.235967e+003, -2.093713e-004
3.237896e+003, -2.723700e-004
3.239824e+003, -5.327888e-004
3.241752e+003, -6.599217e-004
3.243681e+003, -5.979085e-004
3.245609e+003, -7.186648e-004
3.247538e+003, -5.776748e-004
3.249466e+003, -1.156064e-004
3.251395e+003, -2.868516e-004
3.253323e+003, -7.192463e-004
3.255252e+003, -6.786152e-004
3.257180e+003, -4.590641e-004
3.259109e+003, -4.158436e-004
3.261037e+003, -5.320054e-004
3.262966e+003, -5.019639e-004
3.264894e+003, -2.168666e-004
3.266823e+003, -2.841059e-004
3.268751e+003, -5.477181e-004
3.270679e+003, -6.190073e-004
3.272608e+003, -3.899155e-004
3.274536e+003, -5.687937e-004
3.276465e+003, -7.956013e-004
3.278393e+003, -8.802212e-004
3.280322e+003, -1.307031e-003
3.282250e+003, -1.329546e-003
3.284179e+003, -9.382564e-004
3.286107e+003, -8.945375e-004
3.288036e+003, -1.113357e-003
3.289964e+003, -9.058534e-004
3.291893e+003, -4.087116e-004
3.293821e+003, -6.341367e-004
3.295750e+003, -1.014760e-003
3.297678e+003, -6.671266e-004
3.299606e+003, -2.938640e-004
3.301535e+003, -2.815803e-004
3.303463e+003, -7.193206e-004
3.305392e+003, -1.039907e-003
3.307320e+003, -1.290285e-003
3.309249e+003, -1.156959e-003
3.311177e+003, -5.021661e-004
3.313106e+003, -5.316646e-004
3.315034e+003, -5.901790e-004
3.316963e+003, -6.797374e-004
3.318891e+003, -5.476943e-004
3.320820e+003, -2.493691e-004
3.322748e+003, 9.978434e-005
3.324677e+003, -5.265710e-006
3.326605e+003, -5.406475e-004
3.328533e+003, -6.131826e-004
3.330462e+003, -7.206519e-004
3.332390e+003, -6.814654e-004
3.334319e+003, -7.653525e-004
3.336247e+003, -1.086732e-003
3.338176e+003, -1.088257e-003
3.340104e+003, -1.116659e-003
3.342033e+003, -1.097178e-003
3.343961e+003, -4.455690e-004
3.345890e+003, 1.557499e-004
3.347818e+003, -3.574992e-005
3.349747e+003, -9.566883e-004
3.351675e+003, -1.271848e-003
3.353604e+003, -8.476579e-004
3.355532e+003, -8.499356e-004
3.357460e+003, -9.879605e-004
3.359389e+003, -1.491012e-003
3.361317e+003, -1.502451e-003
3.363246e+003, -9.766778e-004
3.365174e+003, -8.775201e-004
3.367103e+003, -1.036915e-003
3.369031e+003, -8.614851e-004
3.370960e+003, -8.084055e-004
3.372888e+003, -1.056044e-003
3.374817e+003, -6.155561e-004
3.376745e+003, -5.753260e-004
3.378674e+003, -1.105551e-003
3.380602e+003, -6.679345e-004
3.382531e+003, -5.361323e-004
3.384459e+003, -8.341589e-004
3.386387e+003, -9.934288e-004
3.388316e+003, -4.318173e-004
3.390244e+003, -4.709337e-004
3.392173e+003, -8.163425e-004
3.394101e+003, -9.370826e-004
3.396030e+003, -7.952563e-004
3.397958e+003, -6.107148e-004
3.399887e+003, -9.397301e-004
3.401815e+003, -9.630292e-004
3.403744e+003, -6.007472e-004
3.405672e+003, -9.713663e-004
3.407601e+003, -1.451957e-003
3.409529e+003, -1.057277e-003
3.411458e+003, -6.667894e-004
3.413386e+003, -6.900175e-004
3.415314e+003, -4.027536e-004
3.417243e+003, -7.444685e-004
3.419171e+003, -1.317412e-003
3.421100e+003, -1.628336e-003
3.423028e+003, -1.449232e-003
3.424957e+003, -1.214913e-003
3.426885e+003, -8.045120e-004
3.428814e+003, -1.171239e-003
3.430742e+003, -1.943632e-003
3.432671e+003, -2.017318e-003
3.434599e+003, -1.751485e-003
3.436528e+003, -1.251295e-003
3.438456e+003, -8.424966e-004
3.440385e+003, -6.482643e-004
3.442313e+003, -9.712463e-004
3.444241e+003, -1.717030e-003
3.446170e+003, -1.727581e-003
3.448098e+003, -1.329215e-003
3.450027e+003, -5.457053e-004
3.451955e+003, -7.782219e-004
3.453884e+003, -1.668632e-003
3.455812e+003, -1.095294e-003
3.457741e+003, -5.698859e-004
3.459669e+003, -8.458907e-004
3.461598e+003, -6.455301e-004
3.463526e+003, -7.725370e-004
3.465455e+003, -1.039902e-003
3.467383e+003, -7.374830e-004
3.469312e+003, -3.558298e-004
3.471240e+003, 4.210242e-005
3.473168e+003, -2.354399e-004
3.475097e+003, -6.904927e-004
3.477025e+003, -7.945235e-004
3.478954e+003, -1.207837e-003
3.480882e+003, -1.481159e-003
3.482811e+003, -1.079478e-003
3.484739e+003, -7.838775e-004
3.486668e+003, -1.348389e-003
3.488596e+003, -1.799486e-003
3.490525e+003, -1.553150e-003
3.492453e+003, -1.353560e-003
3.494382e+003, -1.605669e-003
3.496310e+003, -1.398829e-003
3.498239e+003, -6.609548e-004
3.500167e+003, -6.383781e-004
3.502095e+003, -1.348317e-003
3.504024e+003, -1.028185e-003
3.505952e+003, -9.548166e-004
3.507881e+003, -1.285784e-003
3.509809e+003, -9.013825e-004
3.511738e+003, -4.437637e-004
3.513666e+003, -2.313647e-004
3.515595e+003, -6.940457e-004
3.517523e+003, -1.168155e-003
3.519452e+003, -1.163334e-003
3.521380e+003, -1.421734e-003
3.523309e+003, -1.347065e-003
3.525237e+003, -1.099803e-003
3.527166e+003, -8.031703e-004
3.529094e+003, -5.529155e-004
3.531022e+003, -6.991813e-004
3.532951e+003, -9.490169e-004
3.534879e+003, -1.146766e-003
3.536808e+003, -1.656007e-003
3.538736e+003, -1.856257e-003
3.540665e+003, -1.700142e-003
3.542593e+003, -1.313171e-003
3.544522e+003, -4.651533e-004
3.546450e+003, -5.065362e-004
3.548379e+003, -9.581973e-004
3.550307e+003, -5.233389e-004
3.552236e+003, -2.994777e-004
3.554164e+003, -8.385729e-004
3.556093e+003, -1.863830e-003
3.558021e+003, -1.858023e-003
3.559949e+003, -9.500859e-004
3.561878e+003, -5.540262e-004
3.563806e+003, -3.202497e-004
3.565735e+003, -1.969922e-004
3.567663e+003, -8.780026e-004
3.569592e+003, -1.675714e-003
3.571520e+003, -1.526614e-003
3.573449e+003, -8.155626e-004
3.575377e+003, -1.002252e-003
3.577306e+003, -1.492891e-003
3.579234e+003, -1.871849e-003
3.581163e+003, -1.609151e-003
3.583091e+003, -1.457270e-003
3.585020e+003, -1.005376e-003
3.586948e+003, 1.073653e-004
3.588876e+003, -3.464458e-004
3.590805e+003, -1.822009e-003
3.592733e+003, -1.633576e-003
3.594662e+003, -6.662628e-004
3.596590e+003, -5.662121e-004
3.598519e+003, -8.830593e-004
3.600447e+003, -7.601403e-004
3.602376e+003, -5.181174e-004
3.604304e+003, -8.274669e-004
3.606233e+003, -8.834528e-004
3.608161e+003, -7.810604e-004
3.610090e+003, -1.394575e-003
3.612018e+003, -1.223614e-003
3.613947e+003, -1.114320e-003
3.615875e+003, -1.519298e-003
3.617803e+003, -5.764031e-004
3.619732e+003, 7.070666e-005
3.621660e+003, -1.002829e-003
3.623589e+003, -1.947025e-003
3.625517e+003, -1.912678e-003
3.627446e+003, -9.805935e-005
3.629374e+003, 6.936663e-004
3.631303e+003, -2.468881e-004
3.633231e+003, -7.447780e-004
3.635160e+003, -1.338359e-003
3.637088e+003, -1.445999e-003
3.639017e+003, -1.644688e-003
3.640945e+003, -1.918634e-003
3.642874e+003, -1.866857e-003
3.644802e+003, -1.372862e-003
3.646730e+003, -8.233588e-004
3.648659e+003, -6.818803e-005
3.650587e+003, -4.578976e-004
3.652516e+003, -9.189235e-004
3.654444e+003, -1.132155e-003
3.656373e+003, -1.534280e-003
3.658301e+003, -1.819534e-003
3.660230e+003, -1.924318e-003
3.662158e+003, -1.964734e-003
3.664087e+003, -1.865983e-003
3.666015e+003, -1.740549e-003
3.667944e+003, -1.710886e-003
3.669872e+003, -1.066072e-003
3.671801e+003, -8.899820e-004
3.673729e+003, 4.718299e-004
3.675657e+003, 9.289710e-004
3.677586e+003, -1.631941e-003
3.679514e+003, -2.359497e-003
3.681443e+003, -1.452225e-003
3.683371e+003, -1.339838e-003
3.685300e+003, -1.771300e-003
3.687228e+003, -4.831306e-004
3.689157e+003, -4.853531e-004
3.691085e+003, -2.084874e-003
3.693014e+003, -2.379972e-003
3.694942e+003, -2.246265e-003
3.696871e+003, -2.523624e-003
3.698799e+003, -2.385696e-003
3.700728e+003, -2.129077e-003
3.702656e+003, -1.559153e-003
3.704584e+003, -2.178394e-003
3.706513e+003, -2.803807e-003
3.708441e+003, -1.300380e-003
3.710370e+003, -4.644350e-004
3.712298e+003, -7.776125e-004
3.714227e+003, -1.819072e-003
3.716155e+003, -1.888044e-003
3.718084e+003, -1.575964e-003
3.720012e+003, -1.736495e-003
3.721941e+003, -2.191054e-003
3.723869e+003, -1.715023e-003
3.725798e+003, -1.028891e-003
3.727726e+003, -1.088436e-003
3.729655e+003, -1.498841e-003
3.731583e+003, -1.107504e-003
3.733511e+003, -6.053692e-004
3.735440e+003, 1.649155e-004
3.737368e+003, -2.123107e-004
3.739297e+003, -1.204653e-003
3.741225e+003, -4.168977e-004
3.743154e+003, 1.299739e-003
3.745082e+003, 9.804112e-004
3.747011e+003, -3.709901e-004
3.748939e+003, 8.259451e-004
3.750868e+003, 5.997116e-004
3.752796e+003, -1.089939e-003
3.754725e+003, -2.394272e-003
3.756653e+003, -1.765974e-003
3.758582e+003, -1.512454e-003
3.760510e+003, -2.076550e-003
3.762438e+003, -2.704501e-003
3.764367e+003, -2.180315e-003
3.766295e+003, -1.775722e-003
3.768224e+003, -1.307485e-003
3.770152e+003, -1.191565e-003
3.772081e+003, -1.472779e-003
3.774009e+003, -1.070563e-003
3.775938e+003, -1.068729e-003
3.777866e+003, -1.118304e-003
3.779795e+003, -1.504551e-003
3.781723e+003, -2.114117e-003
3.783652e+003, -1.925243e-003
3.785580e+003, -2.311794e-003
3.787509e+003, -2.897100e-003
3.789437e+003, -2.785133e-003
3.791365e+003, -2.472862e-003
3.793294e+003, -2.578904e-003
3.795222e+003, -2.462308e-003
3.797151e+003, -1.961097e-003
3.799079e+003, -1.197225e-003
3.801008e+003, 3.453237e-004
3.802936e+003, 1.446232e-004
3.804865e+003, -6.146342e-004
3.806793e+003, -4.600985e-004
3.808722e+003, -1.564763e-003
3.810650e+003, -2.503785e-003
3.812579e+003, -3.289921e-003
3.814507e+003, -2.772185e-003
3.816436e+003, -1.804637e-003
3.818364e+003, -1.736911e-003
3.820292e+003, -2.090694e-004
3.822221e+003, -3.544032e-004
3.824149e+003, -1.896976e-003
3.826078e+003, -1.750648e-003
3.828006e+003, -1.782186e-003
3.829935e+003, -1.616623e-003
3.831863e+003, -1.691247e-003
3.833792e+003, -1.355900e-003
3.835720e+003, -1.418581e-004
3.837649e+003, 4.261346e-004
3.839577e+003, -8.044872e-004
3.841506e+003, -1.381105e-003
3.843434e+003, -1.708007e-003
3.845363e+003, -1.705547e-003
3.847291e+003, -1.649594e-003
3.849219e+003, -1.631043e-003
3.851148e+003, -6.566739e-005
3.853076e+003, 2.666867e-003
3.855005e+003, 1.306506e-003
3.856933e+003, -1.413512e-003
3.858862e+003, -2.495919e-003
3.860790e+003, -2.021409e-003
3.862719e+003, -1.338488e-003
3.864647e+003, -1.012973e-003
3.866576e+003, -2.461975e-003
3.868504e+003, -1.998778e-003
3.870433e+003, -7.345192e-004
3.872361e+003, -1.844137e-003
3.874290e+003, -2.459794e-003
3.876218e+003, -2.518844e-003
3.878146e+003, -1.779853e-003
3.880075e+003, -1.191272e-003
3.882003e+003, -1.297379e-003
3.883932e+003, -6.496561e-004
3.885860e+003, -5.525330e-004
3.887789e+003, -1.680753e-003
3.889717e+003, -1.445293e-003
3.891646e+003, -1.095014e-003
3.893574e+003, -2.210775e-003
3.895503e+003, -2.705366e-003
3.897431e+003, -1.823538e-003
3.899360e+003, -8.587668e-004
3.901288e+003, -3.230415e-004
3.903217e+003, -4.745958e-004
3.905145e+003, -1.869234e-003
3.907073e+003, -2.865573e-003
3.909002e+003, -1.601278e-003
3.910930e+003, -1.124397e-003
3.912859e+003, -1.589620e-003
3.914787e+003, -1.600755e-003
3.916716e+003, -1.465645e-003
3.918644e+003, -1.984280e-003
3.920573e+003, -2.217873e-003
3.922501e+003, -1.998927e-003
3.924430e+003, -1.535640e-003
3.926358e+003, -1.951356e-003
3.928287e+003, -2.038753e-003
3.930215e+003, -1.910185e-003
3.932144e+003, -2.028754e-003
3.934072e+003, -2.383182e-003
3.936000e+003, -2.568869e-003
3.937929e+003, -2.492721e-003
3.939857e+003, -2.349360e-003
3.941786e+003, -2.060265e-003
3.943714e+003, -1.214792e-003
3.945643e+003, -1.251299e-003
3.947571e+003, -2.076436e-003
3.949500e+003, -2.528048e-003
3.951428e+003, -1.946741e-003
3.953357e+003, -1.552487e-003
3.955285e+003, -1.919418e-003
3.957214e+003, -2.391906e-003
3.959142e+003, -2.192088e-003
3.961071e+003, -2.164824e-003
3.962999e+003, -2.524115e-003
3.964927e+003, -2.519947e-003
3.966856e+003, -1.658786e-003
3.968784e+003, -1.746936e-003
3.970713e+003, -2.155952e-003
3.972641e+003, -2.300667e-003
3.974570e+003, -2.089218e-003
3.976498e+003, -1.903336e-003
3.978427e+003, -1.859338e-003
3.980355e+003, -2.444013e-003
3.982284e+003, -2.935663e-003
3.984212e+003, -2.400467e-003
3.986141e+003, -2.904713e-003
3.988069e+003, -2.594740e-003
3.989998e+003, -1.651604e-003
3.991926e+003, -1.967780e-003
3.993854e+003, -1.841681e-003
3.995783e+003, -1.666376e-003
3.997711e+003, -2.475799e-003
##END=



