##NAMES=Duftite
##RRUFFID=R050507
##IDEAL CHEMISTRY=Pb^2+^Cu^2+^As^5+^O_4_(OH)
##LOCALITY=Mt. Bonney, Northern Territory, Australia
##OWNER=RRUFF
##SOURCE=University of Arizona Mineral Museum
##DESCRIPTION=Green aggregate of acicular crystals forming round wheel-like shapes, intimately mixed with mimetite
##STATUS=The identification of this mineral has been confirmed by X-ray diffraction and chemical analysis
##URL=rruff.info/R050507
##MEASURED CHEMISTRY=Pb_1.00_Cu_1.00_As_1.00_O_4_(OH) ; = dark phase. The lght phase is mimetite: (Pb_4.95_Cu_0.05_)_Î£=5_(As_1.00_O_4_)_3_Cl_1.00_; OH estimated by charge balance
399.1926, 0.4709491
401.1211, 0.4066234
403.0496, 0.4066234
404.9780, 0.3977124
406.9065, 0.3830797
408.8350, 0.3695873
410.7634, 0.3640578
412.6919, 0.3461712
414.6204, 0.3202077
416.5488, 0.3095165
418.4773, 0.3058141
420.4058, 0.2952379
422.3342, 0.2890502
424.2627, 0.2881946
426.1912, 0.2848025
428.1196, 0.2756090
430.0481, 0.2589600
431.9766, 0.2509371
433.9050, 0.2514786
435.8335, 0.2477832
437.7620, 0.2422646
439.6904, 0.2412168
441.6189, 0.2374000
443.5474, 0.2276309
445.4758, 0.2182083
447.4043, 0.2060701
449.3328, 0.1903394
451.2612, 0.1788725
453.1897, 0.1720951
455.1182, 0.1680829
457.0466, 0.1616251
458.9751, 0.1522211
460.9036, 0.1437728
462.8320, 0.1337264
464.7605, 0.1218272
466.6890, 0.1126457
468.6174, 0.1067039
470.5459, 0.1014812
472.4744, 0.1004044
474.4028, 0.1010871
476.3313, 0.1005091
478.2598, 0.1000739
480.1882, 9.9574320E-02
482.1167, 9.9485859E-02
484.0452, 9.9432491E-02
485.9736, 9.8037243E-02
487.9021, 9.7755343E-02
489.8306, 9.9271089E-02
491.7590, 0.1031437
493.6875, 0.1072670
495.6160, 0.1097517
497.5444, 0.1142781
499.4729, 0.1224150
501.4014, 0.1346508
503.3298, 0.1509176
505.2583, 0.1731733
507.1868, 0.2018186
509.1152, 0.2319073
511.0437, 0.2531866
512.9722, 0.2572410
514.9006, 0.2458302
516.8291, 0.2267888
518.7576, 0.2131043
520.6860, 0.2083392
522.6145, 0.2122252
524.5430, 0.2190261
526.4714, 0.2200327
528.3999, 0.2117521
530.3284, 0.1959655
532.2568, 0.1760739
534.1853, 0.1547348
536.1138, 0.1370599
538.0422, 0.1247642
539.9707, 0.1161272
541.8992, 0.1100186
543.8276, 0.1023638
545.7561, 9.4058692E-02
547.6846, 8.8319346E-02
549.6130, 8.5358143E-02
551.5415, 8.4546886E-02
553.4700, 8.5227370E-02
555.3984, 8.5912153E-02
557.3269, 8.6051777E-02
559.2554, 8.6290449E-02
561.1838, 8.5767329E-02
563.1123, 8.7052859E-02
565.0408, 8.8794909E-02
566.9692, 8.9510873E-02
568.8977, 8.8319346E-02
570.8262, 8.5874878E-02
572.7546, 8.3747387E-02
574.6831, 8.2734682E-02
576.6116, 8.2774773E-02
578.5400, 8.2663372E-02
580.4685, 8.2612999E-02
582.3970, 8.3027542E-02
584.3254, 8.4633768E-02
586.2539, 8.6434722E-02
588.1824, 8.7589659E-02
590.1108, 8.8249683E-02
592.0393, 8.8089213E-02
593.9678, 8.8366337E-02
595.8962, 8.9051656E-02
597.8247, 8.9678541E-02
599.7532, 9.1619387E-02
601.6816, 9.3138233E-02
603.6101, 9.4535917E-02
605.5386, 9.6483499E-02
607.4670, 9.7456083E-02
609.3955, 9.8441809E-02
611.3240, 0.1000093
613.2524, 0.1002754
615.1809, 0.1009570
617.1094, 0.1026951
619.0378, 0.1047131
620.9663, 0.1064008
622.8948, 0.1083886
624.8232, 0.1105094
626.7517, 0.1126693
628.6802, 0.1149128
630.6086, 0.1169126
632.5371, 0.1195521
634.4656, 0.1230200
636.3940, 0.1257493
638.3225, 0.1286304
640.2510, 0.1322154
642.1794, 0.1360933
644.1079, 0.1404256
646.0364, 0.1449343
647.9648, 0.1486480
649.8933, 0.1528963
651.8218, 0.1585741
653.7502, 0.1639283
655.6787, 0.1689335
657.6072, 0.1743580
659.5356, 0.1805511
661.4641, 0.1869560
663.3926, 0.1928059
665.3210, 0.1992430
667.2495, 0.2062638
669.1780, 0.2129625
671.1064, 0.2196729
673.0349, 0.2269608
674.9634, 0.2344385
676.8918, 0.2416773
678.8203, 0.2489875
680.7488, 0.2565084
682.6772, 0.2643160
684.6057, 0.2723401
686.5342, 0.2804223
688.4626, 0.2886649
690.3911, 0.2962663
692.3196, 0.3041186
694.2480, 0.3120766
696.1765, 0.3192938
698.1050, 0.3263316
700.0334, 0.3341865
701.9619, 0.3417927
703.8904, 0.3495537
705.8188, 0.3580344
707.7473, 0.3659320
709.6758, 0.3741813
711.6042, 0.3826835
713.5327, 0.3902837
715.4612, 0.3982366
717.3896, 0.4064984
719.3181, 0.4145314
721.2466, 0.4221650
723.1750, 0.4291414
725.1035, 0.4365730
727.0320, 0.4442743
728.9604, 0.4516570
730.8889, 0.4587137
732.8174, 0.4646361
734.7458, 0.4697311
736.6743, 0.4722811
738.6028, 0.4727524
740.5313, 0.4711620
742.4597, 0.4666494
744.3882, 0.4589948
746.3167, 0.4486217
748.2451, 0.4379720
750.1736, 0.4281298
752.1021, 0.4172392
754.0305, 0.4059860
755.9590, 0.3940285
757.8875, 0.3814347
759.8159, 0.3686453
761.7444, 0.3559717
763.6729, 0.3429903
765.6013, 0.3297083
767.5298, 0.3157817
769.4583, 0.3010098
771.3867, 0.2873741
773.3152, 0.2755238
775.2437, 0.2659805
777.1721, 0.2585200
779.1006, 0.2523467
781.0291, 0.2480650
782.9575, 0.2454516
784.8860, 0.2434898
786.8145, 0.2429515
788.7429, 0.2438646
790.6714, 0.2452164
792.5999, 0.2495729
794.5283, 0.2593386
796.4568, 0.2732611
798.3853, 0.2873955
800.3137, 0.2993581
802.2422, 0.3045284
804.1707, 0.2980202
806.0991, 0.2833130
808.0276, 0.2680474
809.9561, 0.2582543
811.8845, 0.2549616
813.8130, 0.2540990
815.7415, 0.2513497
817.6699, 0.2440564
819.5984, 0.2325144
821.5269, 0.2172533
823.4553, 0.2002987
825.3838, 0.1832540
827.3123, 0.1665693
829.2407, 0.1506016
831.1692, 0.1355531
833.0977, 0.1209642
835.0261, 0.1075848
836.9546, 9.6630283E-02
838.8831, 8.8334464E-02
840.8115, 8.1204720E-02
842.7400, 7.4639328E-02
844.6685, 6.8580493E-02
846.5969, 6.4233139E-02
848.5254, 6.0981698E-02
850.4539, 5.7971239E-02
852.3823, 5.5215418E-02
854.3108, 5.2440569E-02
856.2393, 4.9468890E-02
858.1677, 4.6843171E-02
860.0962, 4.4831861E-02
862.0247, 4.3145891E-02
863.9531, 4.2179622E-02
865.8816, 4.1338690E-02
867.8101, 4.0359441E-02
869.7385, 3.9664309E-02
871.6670, 3.9222941E-02
873.5955, 3.8458370E-02
875.5239, 3.7605241E-02
877.4524, 3.7407000E-02
879.3809, 3.7185170E-02
881.3093, 3.6692161E-02
883.2378, 3.6509179E-02
885.1663, 3.6686141E-02
887.0947, 3.7444450E-02
889.0232, 3.8834531E-02
890.9517, 4.0999789E-02
892.8801, 4.3851130E-02
894.8085, 4.7078859E-02
896.7370, 5.0059050E-02
898.6655, 5.2865829E-02
900.5939, 5.7104111E-02
902.5224, 6.2594973E-02
904.4509, 6.8095587E-02
906.3793, 7.3068254E-02
908.3078, 7.6154359E-02
910.2363, 7.5542927E-02
912.1647, 7.2098017E-02
914.0932, 6.7834496E-02
916.0217, 6.4579427E-02
917.9501, 6.2671818E-02
919.8786, 5.9977360E-02
921.8071, 5.5138480E-02
923.7355, 4.9056809E-02
925.6640, 4.3489911E-02
927.5925, 3.9648730E-02
929.5209, 3.7130669E-02
931.4494, 3.5263669E-02
933.3779, 3.4195609E-02
935.3063, 3.3822231E-02
937.2348, 3.3960041E-02
939.1633, 3.3980861E-02
941.0917, 3.4302279E-02
943.0202, 3.4932211E-02
944.9487, 3.5643969E-02
946.8771, 3.6506910E-02
948.8056, 3.7536740E-02
950.7341, 3.9100170E-02
952.6625, 4.0142931E-02
954.5910, 4.0848009E-02
956.5195, 4.1080859E-02
958.4479, 4.0934142E-02
960.3764, 4.0944699E-02
962.3049, 4.1333549E-02
964.2333, 4.2465791E-02
966.1618, 4.4358879E-02
968.0903, 4.7472648E-02
970.0187, 5.1708192E-02
971.9472, 5.6630660E-02
973.8757, 6.2689766E-02
975.8041, 6.9519363E-02
977.7326, 7.6443598E-02
979.6611, 8.3506092E-02
981.5895, 9.1370396E-02
983.5180, 9.9386252E-02
985.4465, 0.1059696
987.3749, 0.1095962
989.3034, 0.1090705
991.2319, 0.1044704
993.1603, 9.6478663E-02
995.0888, 8.6636193E-02
997.0173, 7.6829307E-02
998.9457, 6.8242118E-02
1000.874, 6.1570469E-02
1002.803, 5.6783579E-02
1004.731, 5.3495411E-02
1006.660, 5.1116198E-02
1008.588, 4.8733272E-02
1010.517, 4.5644041E-02
1012.445, 4.1854989E-02
1014.373, 3.8032480E-02
1016.302, 3.4817960E-02
1018.230, 3.2291621E-02
1020.159, 3.0062910E-02
1022.087, 2.8416680E-02
1024.016, 2.7126750E-02
1025.944, 2.5925931E-02
1027.873, 2.4807280E-02
1029.801, 2.3961540E-02
1031.730, 2.3460509E-02
1033.658, 2.3018779E-02
1035.587, 2.2574950E-02
1037.515, 2.2046721E-02
1039.444, 2.1589840E-02
1041.372, 2.1254070E-02
1043.301, 2.1091569E-02
1045.229, 2.0914629E-02
1047.157, 2.0517860E-02
1049.086, 2.0007450E-02
1051.014, 1.9897411E-02
1052.943, 1.9934600E-02
1054.871, 1.9786950E-02
1056.800, 1.9395459E-02
1058.728, 1.9060479E-02
1060.657, 1.9149670E-02
1062.585, 1.9166920E-02
1064.514, 1.9104630E-02
1066.442, 1.9129070E-02
1068.371, 1.9089051E-02
1070.299, 1.9065879E-02
1072.228, 1.8895101E-02
1074.156, 1.9202100E-02
1076.084, 1.9558750E-02
1078.013, 1.9597501E-02
1079.941, 1.9826170E-02
1081.870, 2.0069700E-02
1083.798, 1.9793469E-02
1085.727, 1.9811779E-02
1087.655, 1.9880001E-02
1089.584, 1.9817321E-02
1091.512, 1.9864220E-02
1093.441, 2.0210650E-02
1095.369, 2.0282440E-02
1097.298, 2.0153860E-02
1099.226, 2.0131679E-02
1101.155, 1.9963739E-02
1103.083, 2.0014949E-02
1105.011, 2.0039480E-02
1106.940, 1.9950761E-02
1108.868, 1.9644540E-02
1110.797, 1.9376511E-02
1112.725, 1.9246159E-02
1114.654, 1.8905830E-02
1116.582, 1.8592181E-02
1118.511, 1.8350920E-02
1120.439, 1.8137580E-02
1122.368, 1.7903240E-02
1124.296, 1.7648671E-02
1126.225, 1.7527141E-02
1128.153, 1.7367961E-02
1130.082, 1.7197531E-02
1132.010, 1.6852630E-02
1133.938, 1.6676830E-02
1135.867, 1.6681410E-02
1137.795, 1.6504740E-02
1139.724, 1.6367299E-02
1141.652, 1.6073940E-02
1143.581, 1.5782749E-02
1145.509, 1.5720081E-02
1147.438, 1.5714649E-02
1149.366, 1.5749210E-02
1151.295, 1.5711660E-02
1153.223, 1.5588240E-02
1155.152, 1.5490850E-02
1157.080, 1.5475430E-02
1159.009, 1.5546070E-02
1160.937, 1.5308800E-02
1162.865, 1.5321740E-02
1164.794, 1.5610050E-02
1166.722, 1.5651340E-02
1168.651, 1.5704820E-02
1170.579, 1.5644571E-02
1172.508, 1.5606990E-02
1174.436, 1.5471590E-02
1176.365, 1.5536690E-02
1178.293, 1.5842609E-02
1180.222, 1.5983731E-02
1182.150, 1.5992770E-02
1184.079, 1.5960390E-02
1186.007, 1.5935330E-02
1187.936, 1.5962970E-02
1189.864, 1.6075840E-02
1191.792, 1.6072260E-02
1193.721, 1.6143890E-02
1195.649, 1.6131639E-02
1197.578, 1.5966030E-02
1199.506, 1.5903680E-02
1201.435, 1.6186319E-02
1203.363, 1.6399570E-02
1205.292, 1.6177449E-02
1207.220, 1.5804639E-02
1209.149, 1.5810059E-02
1211.077, 1.5852470E-02
1213.006, 1.5891170E-02
1214.934, 1.6080240E-02
1216.863, 1.6125180E-02
1218.791, 1.6223950E-02
1220.719, 1.6312771E-02
1222.648, 1.6240770E-02
1224.576, 1.6132429E-02
1226.505, 1.6063871E-02
1228.433, 1.6238570E-02
1230.362, 1.6308160E-02
1232.290, 1.6374080E-02
1234.219, 1.6202969E-02
1236.147, 1.5987240E-02
1238.076, 1.6009141E-02
1240.004, 1.5989341E-02
1241.933, 1.5876800E-02
1243.861, 1.5985450E-02
1245.790, 1.6001331E-02
1247.718, 1.5990781E-02
1249.646, 1.6178651E-02
1251.575, 1.6189590E-02
1253.503, 1.6168891E-02
1255.432, 1.6351821E-02
1257.360, 1.6500469E-02
1259.289, 1.6680241E-02
1261.217, 1.6517751E-02
1263.146, 1.6408140E-02
1265.074, 1.6550930E-02
1267.003, 1.6739219E-02
1268.931, 1.7084479E-02
1270.860, 1.7414249E-02
1272.788, 1.7562229E-02
1274.717, 1.7886011E-02
1276.645, 1.8298870E-02
1278.573, 1.8537750E-02
1280.502, 1.8456010E-02
1282.430, 1.8201079E-02
1284.359, 1.8020030E-02
1286.287, 1.7872989E-02
1288.216, 1.7620889E-02
1290.144, 1.7579790E-02
1292.073, 1.7793830E-02
1294.001, 1.7875720E-02
1295.930, 1.7910110E-02
1297.858, 1.7993949E-02
1299.787, 1.7943669E-02
1301.715, 1.7869329E-02
1303.644, 1.7977411E-02
1305.572, 1.8041169E-02
1307.500, 1.7954590E-02
1309.429, 1.8179109E-02
1311.357, 1.8253051E-02
1313.286, 1.8014019E-02
1315.214, 1.7969569E-02
1317.143, 1.8106069E-02
1319.071, 1.8158890E-02
1321.000, 1.8165531E-02
1322.928, 1.8098259E-02
1324.857, 1.8222230E-02
1326.785, 1.8196169E-02
1328.714, 1.8225510E-02
1330.642, 1.8337131E-02
1332.571, 1.8232970E-02
1334.499, 1.8499160E-02
1336.427, 1.8751601E-02
1338.356, 1.8702410E-02
1340.284, 1.8722611E-02
1342.213, 1.8772921E-02
1344.141, 1.8925929E-02
1346.070, 1.8822979E-02
1347.998, 1.8912019E-02
1349.927, 1.9104419E-02
1351.855, 1.9152960E-02
1353.784, 1.9069869E-02
1355.712, 1.9217649E-02
1357.641, 1.9471660E-02
1359.569, 1.9636780E-02
1361.498, 1.9645579E-02
1363.426, 1.9774079E-02
1365.354, 1.9871220E-02
1367.283, 2.0054890E-02
1369.211, 2.0390840E-02
1371.140, 2.0523969E-02
1373.068, 2.0714480E-02
1374.997, 2.1034770E-02
1376.925, 2.1209219E-02
1378.854, 2.1418231E-02
1380.782, 2.1417500E-02
1382.711, 2.1490470E-02
1384.639, 2.1528210E-02
1386.568, 2.1639749E-02
1388.496, 2.1842420E-02
1390.424, 2.2081301E-02
1392.353, 2.2225130E-02
1394.281, 2.2422070E-02
1396.210, 2.2270260E-02
1398.138, 2.2374900E-02
1400.067, 2.2480860E-02
1401.995, 2.2449041E-02
1403.924, 2.2416350E-02
1405.852, 2.2491850E-02
1407.781, 2.2711020E-02
1409.709, 2.2974480E-02
1411.638, 2.3108721E-02
1413.566, 2.3043901E-02
1415.495, 2.2859320E-02
1417.423, 2.2945831E-02
1419.351, 2.2877719E-02
1421.280, 2.2758121E-02
1423.208, 2.2920409E-02
1425.137, 2.3201119E-02
1427.065, 2.3387911E-02
1428.994, 2.3326481E-02
1430.922, 2.3261771E-02
1432.851, 2.3521680E-02
1434.779, 2.3848740E-02
1436.708, 2.4017571E-02
1438.636, 2.3723450E-02
1440.565, 2.3524581E-02
1442.493, 2.3503460E-02
1444.422, 2.3584791E-02
1446.350, 2.3677500E-02
1448.278, 2.3686180E-02
1450.207, 2.3894530E-02
1452.135, 2.3969909E-02
1454.064, 2.3969250E-02
1455.992, 2.4084250E-02
1457.921, 2.4086490E-02
1459.849, 2.3981679E-02
1461.778, 2.3797359E-02
1463.706, 2.3806710E-02
1465.635, 2.3806291E-02
1467.563, 2.3702350E-02
1469.492, 2.3671130E-02
1471.420, 2.3865899E-02
1473.349, 2.3807229E-02
1475.277, 2.3799600E-02
1477.205, 2.3852101E-02
1479.134, 2.3868350E-02
1481.062, 2.3861069E-02
1482.991, 2.3951320E-02
1484.919, 2.4118820E-02
1486.848, 2.4058120E-02
1488.776, 2.4090830E-02
1490.705, 2.4225101E-02
1492.633, 2.4117909E-02
1494.562, 2.4087289E-02
1496.490, 2.4242129E-02
1498.419, 2.4120361E-02
1500.347, 2.3834500E-02
1502.276, 2.3932060E-02
1504.204, 2.4229441E-02
1506.132, 2.4416121E-02
1508.061, 2.4269350E-02
1509.989, 2.4025621E-02
1511.918, 2.3940850E-02
1513.846, 2.3987981E-02
1515.775, 2.3943201E-02
1517.703, 2.3998519E-02
1519.632, 2.4276990E-02
1521.560, 2.4424000E-02
1523.489, 2.4295740E-02
1525.417, 2.4384821E-02
1527.346, 2.4442229E-02
1529.274, 2.4413560E-02
1531.203, 2.4427230E-02
1533.131, 2.4559570E-02
1535.059, 2.4549890E-02
1536.988, 2.4656070E-02
1538.916, 2.4879660E-02
1540.845, 2.4867941E-02
1542.773, 2.4738351E-02
1544.702, 2.4695210E-02
1546.630, 2.4697701E-02
1548.559, 2.4636390E-02
1550.487, 2.4695421E-02
1552.416, 2.4648041E-02
1554.344, 2.4413450E-02
1556.273, 2.4563599E-02
1558.201, 2.5023330E-02
1560.130, 2.5030309E-02
1562.058, 2.4746699E-02
1563.986, 2.4589131E-02
1565.915, 2.4553049E-02
1567.843, 2.4715200E-02
1569.772, 2.4757011E-02
1571.700, 2.4614230E-02
1573.629, 2.4537969E-02
1575.557, 2.4756869E-02
1577.486, 2.4926011E-02
1579.414, 2.4855100E-02
1581.343, 2.4749890E-02
1583.271, 2.4808889E-02
1585.200, 2.4776580E-02
1587.128, 2.4869410E-02
1589.057, 2.5008380E-02
1590.985, 2.5135489E-02
1592.913, 2.5189869E-02
1594.842, 2.5212420E-02
1596.770, 2.5014130E-02
1598.699, 2.5300350E-02
1600.627, 2.5821241E-02
1602.556, 2.5943380E-02
1604.484, 2.5618671E-02
1606.413, 2.5448980E-02
1608.341, 2.5440609E-02
1610.270, 2.5452981E-02
1612.198, 2.5474589E-02
1614.127, 2.5414931E-02
1616.055, 2.5353210E-02
1617.984, 2.5332561E-02
1619.912, 2.5293751E-02
1621.840, 2.5431549E-02
1623.769, 2.5448591E-02
1625.697, 2.5412019E-02
1627.626, 2.5539519E-02
1629.554, 2.5351670E-02
1631.483, 2.5180040E-02
1633.411, 2.5252130E-02
1635.340, 2.5433730E-02
1637.268, 2.5382720E-02
1639.197, 2.5431830E-02
1641.125, 2.5515139E-02
1643.054, 2.5479330E-02
1644.982, 2.5537981E-02
1646.911, 2.5529509E-02
1648.839, 2.5463630E-02
1650.767, 2.5675230E-02
1652.696, 2.5833759E-02
1654.624, 2.5415320E-02
1656.553, 2.5261261E-02
1658.481, 2.5274221E-02
1660.410, 2.5316160E-02
1662.338, 2.5370879E-02
1664.267, 2.5463279E-02
1666.195, 2.5413711E-02
1668.124, 2.5365820E-02
1670.052, 2.5201211E-02
1671.981, 2.5167961E-02
1673.909, 2.5204159E-02
1675.838, 2.5463980E-02
1677.766, 2.5340740E-02
1679.694, 2.5202410E-02
1681.623, 2.5348609E-02
1683.551, 2.5847331E-02
1685.480, 2.5917981E-02
1687.408, 2.5611959E-02
1689.337, 2.5664611E-02
1691.265, 2.5804359E-02
1693.194, 2.5968879E-02
1695.122, 2.6148699E-02
1697.051, 2.6283011E-02
1698.979, 2.6419330E-02
1700.908, 2.6360771E-02
1702.836, 2.6382430E-02
1704.765, 2.6564641E-02
1706.693, 2.6485000E-02
1708.621, 2.6317259E-02
1710.550, 2.6335670E-02
1712.478, 2.6452530E-02
1714.407, 2.6665280E-02
1716.335, 2.7215250E-02
1718.264, 2.7184879E-02
1720.192, 2.7061900E-02
1722.121, 2.7101850E-02
1724.049, 2.7424879E-02
1725.978, 2.7659090E-02
1727.906, 2.7368911E-02
1729.835, 2.7037250E-02
1731.763, 2.6893120E-02
1733.692, 2.6755311E-02
1735.620, 2.6133429E-02
1737.548, 2.5756011E-02
1739.477, 2.5604861E-02
1741.405, 2.5199991E-02
1743.334, 2.5099570E-02
1745.262, 2.5249740E-02
1747.191, 2.5301831E-02
1749.119, 2.5319390E-02
1751.048, 2.5531830E-02
1752.976, 2.5862269E-02
1754.905, 2.6161261E-02
1756.833, 2.6698509E-02
1758.762, 2.7263060E-02
1760.690, 2.7498269E-02
1762.619, 2.7620001E-02
1764.547, 2.7954930E-02
1766.475, 2.8234260E-02
1768.404, 2.8313261E-02
1770.332, 2.8519310E-02
1772.261, 2.8814331E-02
1774.189, 2.8771240E-02
1776.118, 2.8849419E-02
1778.046, 2.8973339E-02
1779.975, 2.8909091E-02
1781.903, 2.8881360E-02
1783.832, 2.8643601E-02
1785.760, 2.8354321E-02
1787.689, 2.8132429E-02
1789.617, 2.8091781E-02
1791.546, 2.8097440E-02
1793.474, 2.7916061E-02
1795.402, 2.7649380E-02
1797.331, 2.7489720E-02
1799.259, 2.7439320E-02
1801.188, 2.7204880E-02
1803.116, 2.7170600E-02
1805.045, 2.7244041E-02
1806.973, 2.7055940E-02
1808.902, 2.6674090E-02
1810.830, 2.6560061E-02
1812.759, 2.6436580E-02
1814.687, 2.6156090E-02
1816.616, 2.6176009E-02
1818.544, 2.6198249E-02
1820.473, 2.6023930E-02
1822.401, 2.6158620E-02
1824.329, 2.6280330E-02
1826.258, 2.6401300E-02
1828.186, 2.6410069E-02
1830.115, 2.6271779E-02
1832.043, 2.6192300E-02
1833.972, 2.6052991E-02
1835.900, 2.5856091E-02
1837.829, 2.6105350E-02
1839.757, 2.5978940E-02
1841.686, 2.6090570E-02
1843.614, 2.6393341E-02
1845.543, 2.6079200E-02
1847.471, 2.5949569E-02
1849.400, 2.6051801E-02
1851.328, 2.5939509E-02
1853.256, 2.5260421E-02
1855.185, 2.4973949E-02
1857.113, 2.5175130E-02
1859.042, 2.5162170E-02
1860.970, 2.5389960E-02
1862.899, 2.5944261E-02
1864.827, 2.5888620E-02
1866.756, 2.5827151E-02
1868.684, 2.6084799E-02
1870.613, 2.5959980E-02
1872.541, 2.5889140E-02
1874.470, 2.6080079E-02
1876.398, 2.5832949E-02
1878.327, 2.5447501E-02
1880.255, 2.5481651E-02
1882.183, 2.5738791E-02
1884.112, 2.5862800E-02
1886.040, 2.5596671E-02
1887.969, 2.5586270E-02
1889.897, 2.5844270E-02
1891.826, 2.5922270E-02
1893.754, 2.5758650E-02
1895.683, 2.5736010E-02
1897.611, 2.5419321E-02
1899.540, 2.5138050E-02
1901.468, 2.4938921E-02
1903.397, 2.5460150E-02
1905.325, 2.5822960E-02
1907.254, 2.5984460E-02
1909.182, 2.6519910E-02
1911.110, 2.6435491E-02
1913.039, 2.5992449E-02
1914.967, 2.5680751E-02
1916.896, 2.5686231E-02
1918.824, 2.5870360E-02
1920.753, 2.5673360E-02
1922.681, 2.5381420E-02
1924.610, 2.5311980E-02
1926.538, 2.6005710E-02
1928.467, 2.6801409E-02
1930.395, 2.6932919E-02
1932.324, 2.6025239E-02
1934.252, 2.5762130E-02
1936.181, 2.6322121E-02
1938.109, 2.6305569E-02
1940.037, 2.6165031E-02
1941.966, 2.6157459E-02
1943.894, 2.5976580E-02
1945.823, 2.5991751E-02
1947.751, 2.6089299E-02
1949.680, 2.6352219E-02
1951.608, 2.5773490E-02
1953.537, 2.4671320E-02
1955.465, 2.4235191E-02
1957.394, 2.3193991E-02
1959.322, 2.1927619E-02
1961.251, 2.2509340E-02
1963.179, 2.3357561E-02
1965.108, 2.1719400E-02
1967.036, 1.9344710E-02
1968.964, 1.8788660E-02
1970.893, 2.0705409E-02
1972.821, 2.2983979E-02
1974.750, 2.3416620E-02
1976.678, 2.2240371E-02
1978.607, 2.1343751E-02
1980.535, 2.1598030E-02
1982.464, 2.1136340E-02
1984.392, 2.0203389E-02
1986.321, 2.1105900E-02
1988.249, 2.2689819E-02
1990.178, 2.2836899E-02
1992.106, 2.2289511E-02
1994.035, 2.2192420E-02
1995.963, 2.2787411E-02
1997.891, 2.2643469E-02
1999.820, 2.1773361E-02
2001.748, 2.2945620E-02
2003.677, 2.4018871E-02
2005.605, 2.2297150E-02
2007.534, 2.1769840E-02
2009.462, 2.2994570E-02
2011.391, 2.3189479E-02
2013.319, 2.1919951E-02
2015.248, 2.1205600E-02
2017.176, 2.0535471E-02
2019.105, 2.0757470E-02
2021.033, 2.2142380E-02
2022.962, 2.2905180E-02
2024.890, 2.2686750E-02
2026.818, 2.3072200E-02
2028.747, 2.4060151E-02
2030.675, 2.3894710E-02
2032.604, 2.3253310E-02
2034.532, 2.3659520E-02
2036.461, 2.3978250E-02
2038.389, 2.3358850E-02
2040.318, 2.3700140E-02
2042.246, 2.3878289E-02
2044.175, 2.4082460E-02
2046.103, 2.4831731E-02
2048.032, 2.4710041E-02
2049.960, 2.4490779E-02
2051.889, 2.4111180E-02
2053.817, 2.4546379E-02
2055.746, 2.4786061E-02
2057.674, 2.4567530E-02
2059.603, 2.4702640E-02
2061.531, 2.4947871E-02
2063.459, 2.4752380E-02
2065.388, 2.4645690E-02
2067.316, 2.5599450E-02
2069.245, 2.5678920E-02
2071.173, 2.4863269E-02
2073.102, 2.4419241E-02
2075.030, 2.4664059E-02
2076.959, 2.5146300E-02
2078.887, 2.4991360E-02
2080.816, 2.5037900E-02
2082.744, 2.4773991E-02
2084.673, 2.4028910E-02
2086.601, 2.4233580E-02
2088.530, 2.4929561E-02
2090.458, 2.5494440E-02
2092.386, 2.5027860E-02
2094.315, 2.4840850E-02
2096.243, 2.5158901E-02
2098.172, 2.5020350E-02
2100.100, 2.5082299E-02
2102.029, 2.4595540E-02
2103.957, 2.4813419E-02
2105.886, 2.5194610E-02
2107.814, 2.4925660E-02
2109.743, 2.5851719E-02
2111.671, 2.6297931E-02
2113.600, 2.5364099E-02
2115.528, 2.4561670E-02
2117.457, 2.4538251E-02
2119.385, 2.4453061E-02
2121.313, 2.4434410E-02
2123.242, 2.4958650E-02
2125.170, 2.4991600E-02
2127.099, 2.5055170E-02
2129.027, 2.5185941E-02
2130.956, 2.4649400E-02
2132.884, 2.4360809E-02
2134.813, 2.4593230E-02
2136.741, 2.4358289E-02
2138.670, 2.4851199E-02
2140.598, 2.4784621E-02
2142.527, 2.4470661E-02
2144.455, 2.4606170E-02
2146.384, 2.4506450E-02
2148.312, 2.4551610E-02
2150.240, 2.4681181E-02
2152.169, 2.3919361E-02
2154.097, 2.2537880E-02
2156.026, 2.1312080E-02
2157.954, 2.1598721E-02
2159.883, 2.3643980E-02
2161.811, 2.5207320E-02
2163.740, 2.4891550E-02
2165.668, 2.5460189E-02
2167.597, 2.5981329E-02
2169.525, 2.4828959E-02
2171.454, 2.3775240E-02
2173.382, 2.4205871E-02
2175.311, 2.5723839E-02
2177.239, 2.6497999E-02
2179.167, 2.6786249E-02
2181.096, 2.6186921E-02
2183.024, 2.5016449E-02
2184.953, 2.4601329E-02
2186.881, 2.5535310E-02
2188.810, 2.5711119E-02
2190.738, 2.4742100E-02
2192.667, 2.4847340E-02
2194.595, 2.4801491E-02
2196.524, 2.4164880E-02
2198.452, 2.4337610E-02
2200.381, 2.5179300E-02
2202.309, 2.5439700E-02
2204.238, 2.5922479E-02
2206.166, 2.6949629E-02
2208.094, 2.6619770E-02
2210.023, 2.5592700E-02
2211.951, 2.5924770E-02
2213.880, 2.6215291E-02
2215.808, 2.5711611E-02
2217.737, 2.6006941E-02
2219.665, 2.6640231E-02
2221.594, 2.6795840E-02
2223.522, 2.6679659E-02
2225.451, 2.6311630E-02
2227.379, 2.6872709E-02
2229.308, 2.7672080E-02
2231.236, 2.6652461E-02
2233.165, 2.5767690E-02
2235.093, 2.5970921E-02
2237.021, 2.6817480E-02
2238.950, 2.7058341E-02
2240.878, 2.6257521E-02
2242.807, 2.5255149E-02
2244.735, 2.5152409E-02
2246.664, 2.5889600E-02
2248.592, 2.6198780E-02
2250.521, 2.6408520E-02
2252.449, 2.6725009E-02
2254.378, 2.6880501E-02
2256.306, 2.7389949E-02
2258.235, 2.7577350E-02
2260.163, 2.7138850E-02
2262.092, 2.6532730E-02
2264.020, 2.6268469E-02
2265.948, 2.6564740E-02
2267.877, 2.7399469E-02
2269.805, 2.8080720E-02
2271.734, 2.7641820E-02
2273.662, 2.7240230E-02
2275.591, 2.6958020E-02
2277.519, 2.7139310E-02
2279.448, 2.7844800E-02
2281.376, 2.7972391E-02
2283.305, 2.8349761E-02
2285.233, 2.8474631E-02
2287.162, 2.8015360E-02
2289.090, 2.7481850E-02
2291.019, 2.7632819E-02
2292.947, 2.8023491E-02
2294.875, 2.7553059E-02
2296.804, 2.7408119E-02
2298.732, 2.7454000E-02
2300.661, 2.7863670E-02
2302.589, 2.8163370E-02
2304.518, 2.8195361E-02
2306.446, 2.7905010E-02
2308.375, 2.7725231E-02
2310.303, 2.7924510E-02
2312.232, 2.8118679E-02
2314.160, 2.8242070E-02
2316.089, 2.8487399E-02
2318.017, 2.8512450E-02
2319.946, 2.8689260E-02
2321.874, 2.8947551E-02
2323.802, 2.8937001E-02
2325.731, 2.8644551E-02
2327.659, 2.8536091E-02
2329.588, 2.8575080E-02
2331.516, 2.8863201E-02
2333.445, 2.9183000E-02
2335.373, 2.9259870E-02
2337.302, 2.9294251E-02
2339.230, 2.9231239E-02
2341.159, 2.8999159E-02
2343.087, 2.8813230E-02
2345.016, 2.8797800E-02
2346.944, 2.8442539E-02
2348.873, 2.8365320E-02
2350.801, 2.8681111E-02
2352.729, 2.8926410E-02
2354.658, 2.9092470E-02
2356.586, 2.9281249E-02
2358.515, 2.9380180E-02
2360.443, 2.9709380E-02
2362.372, 2.9902689E-02
2364.300, 2.9544329E-02
2366.229, 2.9273480E-02
2368.157, 2.9287800E-02
2370.086, 2.9027600E-02
2372.014, 2.8481530E-02
2373.942, 2.8426480E-02
2375.871, 2.8542560E-02
2377.799, 2.8579639E-02
2379.728, 2.8265830E-02
2381.656, 2.7861230E-02
2383.585, 2.7794430E-02
2385.513, 2.8084461E-02
2387.442, 2.8373880E-02
2389.370, 2.8534530E-02
2391.299, 2.8302889E-02
2393.227, 2.8384419E-02
2395.156, 2.8349370E-02
2397.084, 2.8449330E-02
2399.012, 2.8649120E-02
2400.941, 2.8723910E-02
2402.869, 2.8675560E-02
2404.798, 2.8537080E-02
2406.726, 2.8213110E-02
2408.655, 2.8667809E-02
2410.583, 2.9059490E-02
2412.512, 2.8585561E-02
2414.440, 2.7958609E-02
2416.369, 2.8006921E-02
2418.297, 2.8214380E-02
2420.226, 2.8322591E-02
2422.154, 2.8301410E-02
2424.083, 2.8394610E-02
2426.011, 2.8265551E-02
2427.939, 2.8096020E-02
2429.868, 2.8185530E-02
2431.796, 2.7978331E-02
2433.725, 2.8392730E-02
2435.653, 2.8664971E-02
2437.582, 2.8480640E-02
2439.510, 2.8451350E-02
2441.439, 2.8333239E-02
2443.367, 2.8847970E-02
2445.296, 2.8856469E-02
2447.224, 2.8453929E-02
2449.153, 2.8755950E-02
2451.081, 2.8872401E-02
2453.010, 2.8837880E-02
2454.938, 2.8865211E-02
2456.866, 2.8958810E-02
2458.795, 2.9106960E-02
2460.723, 2.9049600E-02
2462.652, 2.8794151E-02
2464.580, 2.8627239E-02
2466.509, 2.8840739E-02
2468.437, 2.9029369E-02
2470.366, 2.9276781E-02
2472.294, 2.8960440E-02
2474.223, 2.8871659E-02
2476.151, 2.8539659E-02
2478.080, 2.8492879E-02
2480.008, 2.9119540E-02
2481.937, 2.9524639E-02
2483.865, 2.9049670E-02
2485.793, 2.8950529E-02
2487.722, 2.8821910E-02
2489.650, 2.8661510E-02
2491.579, 2.8955270E-02
2493.507, 2.9292800E-02
2495.436, 2.9105300E-02
2497.364, 2.8870100E-02
2499.293, 2.8983010E-02
2501.221, 2.9164720E-02
2503.150, 2.9293260E-02
2505.078, 2.9567949E-02
2507.007, 2.9524570E-02
2508.935, 2.9537480E-02
2510.864, 2.9171240E-02
2512.792, 2.8931471E-02
2514.720, 2.9170349E-02
2516.649, 2.8885150E-02
2518.577, 2.8654991E-02
2520.506, 2.9363880E-02
2522.434, 2.9513830E-02
2524.363, 2.9232791E-02
2526.291, 2.8964911E-02
2528.220, 2.9241940E-02
2530.148, 2.9625980E-02
2532.077, 2.9584941E-02
2534.005, 2.9533191E-02
2535.934, 2.9240521E-02
2537.862, 2.9277170E-02
2539.791, 2.9310700E-02
2541.719, 2.8793940E-02
2543.647, 2.8388949E-02
2545.576, 2.9321119E-02
2547.504, 2.9807361E-02
2549.433, 2.9495809E-02
2551.361, 2.9409930E-02
2553.290, 2.9246621E-02
2555.218, 2.9116919E-02
2557.147, 2.9233150E-02
2559.075, 2.9382560E-02
2561.004, 2.9536670E-02
2562.932, 2.9931329E-02
2564.861, 2.9997051E-02
2566.789, 2.9721551E-02
2568.718, 2.9386111E-02
2570.646, 2.9560570E-02
2572.574, 3.0085281E-02
2574.503, 3.0219600E-02
2576.431, 2.9675290E-02
2578.360, 2.9719779E-02
2580.288, 3.0082511E-02
2582.217, 2.9686751E-02
2584.145, 2.9671600E-02
2586.074, 2.9825071E-02
2588.002, 2.9787660E-02
2589.931, 2.9445169E-02
2591.859, 2.9504290E-02
2593.788, 2.9856190E-02
2595.716, 2.9985860E-02
2597.645, 2.9905740E-02
2599.573, 3.0280059E-02
2601.501, 3.0990651E-02
2603.430, 3.0794190E-02
2605.358, 3.0329730E-02
2607.287, 3.0279500E-02
2609.215, 2.9984649E-02
2611.144, 3.0124061E-02
2613.072, 3.0550219E-02
2615.001, 3.0675370E-02
2616.929, 3.0733019E-02
2618.858, 3.0560641E-02
2620.786, 3.0292179E-02
2622.715, 3.0454710E-02
2624.643, 3.0801410E-02
2626.572, 3.0839929E-02
2628.500, 3.0843850E-02
2630.428, 3.0933321E-02
2632.357, 3.1333178E-02
2634.285, 3.1119270E-02
2636.214, 3.0985881E-02
2638.142, 3.1108551E-02
2640.071, 3.1230951E-02
2641.999, 3.1320211E-02
2643.928, 3.1439349E-02
2645.856, 3.1357579E-02
2647.785, 3.0915530E-02
2649.713, 3.0678719E-02
2651.642, 3.0787719E-02
2653.570, 3.1155581E-02
2655.499, 3.1082140E-02
2657.427, 3.0944251E-02
2659.355, 3.1156790E-02
2661.284, 3.1392869E-02
2663.212, 3.1058900E-02
2665.141, 3.0719290E-02
2667.069, 3.0906349E-02
2668.998, 3.1257220E-02
2670.926, 3.1005559E-02
2672.855, 3.0917700E-02
2674.783, 3.0862350E-02
2676.712, 3.0660581E-02
2678.640, 3.1227849E-02
2680.569, 3.1590171E-02
2682.497, 3.1444948E-02
2684.426, 3.1149130E-02
2686.354, 3.1083031E-02
2688.282, 3.1442668E-02
2690.211, 3.1506289E-02
2692.139, 3.1358931E-02
2694.068, 3.1298559E-02
2695.996, 3.1601571E-02
2697.925, 3.1427529E-02
2699.853, 3.1461511E-02
2701.782, 3.1851869E-02
2703.710, 3.2091610E-02
2705.639, 3.1842850E-02
2707.567, 3.1580050E-02
2709.496, 3.1763099E-02
2711.424, 3.1567290E-02
2713.353, 3.1588878E-02
2715.281, 3.2198761E-02
2717.209, 3.2453720E-02
2719.138, 3.2401562E-02
2721.066, 3.2107770E-02
2722.995, 3.1887490E-02
2724.923, 3.2018479E-02
2726.852, 3.2025870E-02
2728.780, 3.1789869E-02
2730.709, 3.1604309E-02
2732.637, 3.1812120E-02
2734.566, 3.2148950E-02
2736.494, 3.2353621E-02
2738.423, 3.2386959E-02
2740.351, 3.2605920E-02
2742.280, 3.2576531E-02
2744.208, 3.2548890E-02
2746.136, 3.2551561E-02
2748.065, 3.2210320E-02
2749.993, 3.2047130E-02
2751.922, 3.2305721E-02
2753.850, 3.2480001E-02
2755.779, 3.2399058E-02
2757.707, 3.2513779E-02
2759.636, 3.2639109E-02
2761.564, 3.2672189E-02
2763.493, 3.2659821E-02
2765.421, 3.2885361E-02
2767.350, 3.2887042E-02
2769.278, 3.2573991E-02
2771.207, 3.2375820E-02
2773.135, 3.2642499E-02
2775.063, 3.2918490E-02
2776.992, 3.2905050E-02
2778.920, 3.2734599E-02
2780.849, 3.2600641E-02
2782.777, 3.2675538E-02
2784.706, 3.2812171E-02
2786.634, 3.2840941E-02
2788.563, 3.2932181E-02
2790.491, 3.3089589E-02
2792.420, 3.3271641E-02
2794.348, 3.3319179E-02
2796.277, 3.3330310E-02
2798.205, 3.3318460E-02
2800.134, 3.3281080E-02
2802.062, 3.3205319E-02
2803.990, 3.3215761E-02
2805.919, 3.3373348E-02
2807.847, 3.3377610E-02
2809.776, 3.3128791E-02
2811.704, 3.3179250E-02
2813.633, 3.3164829E-02
2815.561, 3.3171419E-02
2817.490, 3.3500850E-02
2819.418, 3.3491299E-02
2821.347, 3.3375029E-02
2823.275, 3.3410668E-02
2825.204, 3.3374421E-02
2827.132, 3.3593170E-02
2829.061, 3.3784449E-02
2830.989, 3.3901330E-02
2832.917, 3.4154821E-02
2834.846, 3.4147941E-02
2836.774, 3.4136500E-02
2838.703, 3.4420691E-02
2840.631, 3.4454480E-02
2842.560, 3.4162991E-02
2844.488, 3.3694919E-02
2846.417, 3.3310559E-02
2848.345, 3.3519071E-02
2850.274, 3.3688080E-02
2852.202, 3.3305340E-02
2854.131, 3.2779261E-02
2856.059, 3.2911379E-02
2857.988, 3.3456258E-02
2859.916, 3.4079619E-02
2861.844, 3.4363341E-02
2863.773, 3.4635302E-02
2865.701, 3.4946710E-02
2867.630, 3.4897160E-02
2869.558, 3.4756862E-02
2871.487, 3.5003599E-02
2873.415, 3.5321601E-02
2875.344, 3.5216231E-02
2877.272, 3.4880139E-02
2879.201, 3.4782879E-02
2881.129, 3.4657590E-02
2883.058, 3.4699071E-02
2884.986, 3.5191219E-02
2886.915, 3.5496172E-02
2888.843, 3.5676919E-02
2890.771, 3.5766240E-02
2892.700, 3.5919290E-02
2894.628, 3.5990588E-02
2896.557, 3.5862681E-02
2898.485, 3.5711851E-02
2900.414, 3.5531659E-02
2902.342, 3.5601169E-02
2904.271, 3.5622459E-02
2906.199, 3.5277471E-02
2908.128, 3.5126451E-02
2910.056, 3.5432711E-02
2911.985, 3.5855658E-02
2913.913, 3.5828669E-02
2915.842, 3.5760559E-02
2917.770, 3.5642710E-02
2919.698, 3.5378281E-02
2921.627, 3.5359699E-02
2923.555, 3.5589520E-02
2925.484, 3.5766318E-02
2927.412, 3.5747141E-02
2929.341, 3.5666160E-02
2931.269, 3.5602219E-02
2933.198, 3.5790060E-02
2935.126, 3.6176480E-02
2937.055, 3.6264181E-02
2938.983, 3.6186710E-02
2940.912, 3.6443021E-02
2942.840, 3.6584619E-02
2944.769, 3.6741812E-02
2946.697, 3.6715809E-02
2948.625, 3.6397111E-02
2950.554, 3.6471050E-02
2952.482, 3.7028611E-02
2954.411, 3.7117392E-02
2956.339, 3.7084911E-02
2958.268, 3.7003431E-02
2960.196, 3.6937661E-02
2962.125, 3.7418380E-02
2964.053, 3.7739199E-02
2965.982, 3.7659261E-02
2967.910, 3.7682459E-02
2969.839, 3.7992161E-02
2971.767, 3.7915461E-02
2973.696, 3.7548270E-02
2975.624, 3.7502680E-02
2977.552, 3.7556361E-02
2979.481, 3.8005970E-02
2981.409, 3.8592771E-02
2983.338, 3.8750589E-02
2985.266, 3.8633522E-02
2987.195, 3.8780872E-02
2989.123, 3.8894389E-02
2991.052, 3.8942479E-02
2992.980, 3.8749609E-02
2994.909, 3.8603172E-02
2996.837, 3.9065111E-02
2998.766, 3.9227400E-02
3000.694, 3.9239701E-02
3002.623, 3.9036401E-02
3004.551, 3.8665861E-02
3006.479, 3.9161220E-02
3008.408, 3.9486859E-02
3010.336, 3.9395642E-02
3012.265, 3.9759830E-02
3014.193, 4.0129229E-02
3016.122, 4.0244229E-02
3018.050, 4.0553510E-02
3019.979, 4.0785801E-02
3021.907, 4.0647149E-02
3023.836, 4.0351149E-02
3025.764, 4.0108260E-02
3027.693, 4.0215328E-02
3029.621, 4.0548518E-02
3031.550, 4.1184410E-02
3033.478, 4.1615158E-02
3035.406, 4.1283298E-02
3037.335, 4.1345391E-02
3039.263, 4.1483030E-02
3041.192, 4.1430309E-02
3043.120, 4.1699551E-02
3045.049, 4.2227451E-02
3046.977, 4.2461339E-02
3048.906, 4.2435732E-02
3050.834, 4.2844381E-02
3052.763, 4.3250311E-02
3054.691, 4.3087751E-02
3056.620, 4.2824119E-02
3058.548, 4.3165140E-02
3060.477, 4.3687981E-02
3062.405, 4.3665450E-02
3064.333, 4.3508001E-02
3066.262, 4.3588951E-02
3068.190, 4.3919541E-02
3070.119, 4.3990370E-02
3072.047, 4.3875441E-02
3073.976, 4.4062279E-02
3075.904, 4.4126611E-02
3077.833, 4.4570629E-02
3079.761, 4.4874929E-02
3081.690, 4.5037419E-02
3083.618, 4.5600910E-02
3085.547, 4.5927539E-02
3087.475, 4.5844831E-02
3089.404, 4.5762278E-02
3091.332, 4.5613792E-02
3093.260, 4.6528731E-02
3095.189, 4.7226671E-02
3097.117, 4.7176290E-02
3099.046, 4.6907730E-02
3100.974, 4.6679631E-02
3102.903, 4.6969719E-02
3104.831, 4.7448300E-02
3106.760, 4.7644041E-02
3108.688, 4.8068170E-02
3110.617, 4.8268560E-02
3112.545, 4.8450898E-02
3114.474, 4.8897590E-02
3116.402, 4.8907939E-02
3118.331, 4.8579309E-02
3120.259, 4.8646800E-02
3122.188, 4.8399370E-02
3124.116, 4.8627820E-02
3126.044, 4.9045611E-02
3127.973, 4.9304020E-02
3129.901, 4.9795918E-02
3131.830, 5.0255340E-02
3133.758, 5.0395090E-02
3135.687, 5.0469998E-02
3137.615, 5.0595209E-02
3139.544, 5.0964970E-02
3141.472, 5.1424328E-02
3143.401, 5.1473789E-02
3145.329, 5.1915910E-02
3147.258, 5.2255660E-02
3149.186, 5.2108631E-02
3151.115, 5.2381549E-02
3153.043, 5.3036291E-02
3154.971, 5.3319521E-02
3156.900, 5.3013790E-02
3158.828, 5.2873090E-02
3160.757, 5.3311240E-02
3162.685, 5.3904928E-02
3164.614, 5.4331429E-02
3166.542, 5.4507051E-02
3168.471, 5.4394372E-02
3170.399, 5.4507311E-02
3172.328, 5.4813351E-02
3174.256, 5.4637760E-02
3176.185, 5.4938551E-02
3178.113, 5.5775318E-02
3180.042, 5.5953711E-02
3181.970, 5.6269109E-02
3183.898, 5.7048939E-02
3185.827, 5.6484830E-02
3187.755, 5.5977009E-02
3189.684, 5.6525961E-02
3191.612, 5.6743249E-02
3193.541, 5.7067521E-02
3195.469, 5.7333589E-02
3197.398, 5.7561532E-02
3199.326, 5.7874721E-02
3201.255, 5.7596151E-02
3203.183, 5.7206638E-02
3205.112, 5.7225809E-02
3207.040, 5.7193220E-02
3208.969, 5.7416819E-02
3210.897, 5.8045462E-02
3212.825, 5.8435410E-02
3214.754, 5.8163781E-02
3216.682, 5.7710420E-02
3218.611, 5.8381099E-02
3220.539, 5.8606781E-02
3222.468, 5.8700420E-02
3224.396, 5.9091382E-02
3226.325, 5.9453402E-02
3228.253, 5.9313711E-02
3230.182, 5.9430599E-02
3232.110, 6.0136560E-02
3234.039, 6.0397420E-02
3235.967, 5.9944540E-02
3237.896, 5.9639800E-02
3239.824, 6.0006961E-02
3241.752, 5.9569571E-02
3243.681, 5.8619291E-02
3245.609, 5.7767909E-02
3247.538, 5.7848681E-02
3249.466, 5.7448018E-02
3251.395, 5.6463432E-02
3253.323, 5.6247380E-02
3255.252, 5.5748612E-02
3257.180, 5.5032641E-02
3259.109, 5.4628439E-02
3261.037, 5.4249361E-02
3262.966, 5.3988289E-02
3264.894, 5.4071821E-02
3266.823, 5.3380098E-02
3268.751, 5.2718561E-02
3270.679, 5.2240301E-02
3272.608, 5.1488109E-02
3274.536, 5.0881371E-02
3276.465, 5.0913628E-02
3278.393, 5.0972201E-02
3280.322, 5.0668109E-02
3282.250, 4.9670670E-02
3284.179, 4.9187630E-02
3286.107, 4.9070619E-02
3288.036, 4.8059139E-02
3289.964, 4.7568388E-02
3291.893, 4.7053311E-02
3293.821, 4.6342701E-02
3295.750, 4.5734480E-02
3297.678, 4.5452770E-02
3299.606, 4.5319270E-02
3301.535, 4.5158431E-02
3303.463, 4.5035511E-02
3305.392, 4.4348050E-02
3307.320, 4.3241929E-02
3309.249, 4.2410150E-02
3311.177, 4.2560879E-02
3313.106, 4.2099040E-02
3315.034, 4.1485209E-02
3316.963, 4.1435849E-02
3318.891, 4.0920999E-02
3320.820, 4.0499229E-02
3322.748, 4.0061280E-02
3324.677, 3.9323810E-02
3326.605, 3.9089430E-02
3328.533, 3.8760949E-02
3330.462, 3.8418990E-02
3332.390, 3.8569089E-02
3334.319, 3.8402189E-02
3336.247, 3.7326802E-02
3338.176, 3.6712211E-02
3340.104, 3.6457289E-02
3342.033, 3.6232300E-02
3343.961, 3.5910219E-02
3345.890, 3.4904700E-02
3347.818, 3.4716949E-02
3349.747, 3.5133060E-02
3351.675, 3.5488509E-02
3353.604, 3.5255119E-02
3355.532, 3.4790419E-02
3357.460, 3.4473810E-02
3359.389, 3.4154389E-02
3361.317, 3.3730090E-02
3363.246, 3.3484999E-02
3365.174, 3.3228170E-02
3367.103, 3.2817852E-02
3369.031, 3.2628790E-02
3370.960, 3.2169212E-02
3372.888, 3.2418981E-02
3374.817, 3.2396529E-02
3376.745, 3.1777501E-02
3378.674, 3.2185379E-02
3380.602, 3.2538600E-02
3382.531, 3.2114480E-02
3384.459, 3.1508610E-02
3386.387, 3.1235181E-02
3388.316, 3.1408399E-02
3390.244, 3.1103820E-02
3392.173, 3.0295201E-02
3394.101, 3.0291401E-02
3396.030, 3.0388290E-02
3397.958, 3.0380011E-02
3399.887, 3.0437831E-02
3401.815, 3.0824389E-02
3403.744, 3.0376920E-02
3405.672, 3.0192859E-02
3407.601, 3.0349810E-02
3409.529, 2.9793231E-02
3411.458, 2.8671060E-02
3413.386, 2.9319851E-02
3415.314, 3.0317759E-02
3417.243, 2.9907160E-02
3419.171, 2.9337540E-02
3421.100, 2.9454749E-02
3423.028, 2.9763101E-02
3424.957, 2.9893961E-02
3426.885, 2.9817650E-02
3428.814, 2.9149340E-02
3430.742, 2.9284511E-02
3432.671, 2.9933751E-02
3434.599, 2.9523080E-02
3436.528, 2.8606789E-02
3438.456, 2.8685469E-02
3440.385, 2.8778780E-02
3442.313, 2.8646780E-02
3444.241, 2.8478021E-02
3446.170, 2.8389800E-02
3448.098, 2.9236199E-02
3450.027, 2.9566489E-02
3451.955, 2.8781651E-02
3453.884, 2.8906081E-02
3455.812, 2.9548800E-02
3457.741, 2.9110290E-02
3459.669, 2.8925950E-02
3461.598, 2.8796310E-02
3463.526, 2.8575219E-02
3465.455, 2.8379960E-02
3467.383, 2.8988320E-02
3469.312, 2.8708721E-02
3471.240, 2.8078141E-02
3473.168, 2.8032290E-02
3475.097, 2.8055441E-02
3477.025, 2.8408900E-02
3478.954, 2.9141650E-02
3480.882, 2.9150691E-02
3482.811, 2.8679101E-02
3484.739, 2.9385639E-02
3486.668, 2.9596180E-02
3488.596, 2.8863370E-02
3490.525, 2.8611070E-02
3492.453, 2.8617160E-02
3494.382, 2.8290590E-02
3496.310, 2.8302999E-02
3498.239, 2.7987059E-02
3500.167, 2.8148910E-02
3502.095, 2.7993880E-02
3504.024, 2.8153500E-02
3505.952, 2.8519100E-02
3507.881, 2.8548259E-02
3509.809, 2.8849769E-02
3511.738, 2.8873710E-02
3513.666, 2.8741891E-02
3515.595, 2.8375121E-02
3517.523, 2.8709540E-02
3519.452, 2.8749401E-02
3521.380, 2.8139999E-02
3523.309, 2.7745610E-02
3525.237, 2.8282311E-02
3527.166, 2.8685650E-02
3529.094, 2.8717790E-02
3531.022, 2.8424820E-02
3532.951, 2.8628340E-02
3534.879, 2.8357470E-02
3536.808, 2.7415991E-02
3538.736, 2.7302541E-02
3540.665, 2.7622890E-02
3542.593, 2.7861619E-02
3544.522, 2.7800789E-02
3546.450, 2.7908890E-02
3548.379, 2.7619081E-02
3550.307, 2.7836321E-02
3552.236, 2.8420251E-02
3554.164, 2.8303500E-02
3556.093, 2.8022891E-02
3558.021, 2.7570430E-02
3559.949, 2.6684450E-02
3561.878, 2.6555760E-02
3563.806, 2.6612440E-02
3565.735, 2.6618890E-02
3567.663, 2.6865480E-02
3569.592, 2.7731379E-02
3571.520, 2.7770020E-02
3573.449, 2.7388001E-02
3575.377, 2.7687870E-02
3577.306, 2.7773200E-02
3579.234, 2.7545990E-02
3581.163, 2.7781570E-02
3583.091, 2.7823430E-02
3585.020, 2.7658841E-02
3586.948, 2.7525170E-02
3588.876, 2.7875720E-02
3590.805, 2.7970619E-02
3592.733, 2.8428640E-02
3594.662, 2.8351100E-02
3596.590, 2.8414950E-02
3598.519, 2.8219759E-02
3600.447, 2.7387761E-02
3602.376, 2.7530670E-02
3604.304, 2.8281679E-02
3606.233, 2.8924640E-02
3608.161, 2.8823610E-02
3610.090, 2.9029520E-02
3612.018, 2.8745789E-02
3613.947, 2.8080400E-02
3615.875, 2.8382299E-02
3617.803, 2.9080110E-02
3619.732, 2.8947160E-02
3621.660, 2.8646640E-02
3623.589, 2.8383611E-02
3625.517, 2.8348161E-02
3627.446, 2.8497379E-02
3629.374, 2.8702641E-02
3631.303, 2.8806120E-02
3633.231, 2.8696509E-02
3635.160, 2.8019570E-02
3637.088, 2.7458200E-02
3639.017, 2.7699590E-02
3640.945, 2.8009990E-02
3642.874, 2.8174330E-02
3644.802, 2.8259469E-02
3646.730, 2.8403839E-02
3648.659, 2.8234079E-02
3650.587, 2.8082199E-02
3652.516, 2.7862331E-02
3654.444, 2.8717360E-02
3656.373, 2.9849520E-02
3658.301, 2.8729260E-02
3660.230, 2.8129671E-02
3662.158, 2.8588880E-02
3664.087, 2.8299680E-02
3666.015, 2.8376181E-02
3667.944, 2.8736340E-02
3669.872, 2.8242180E-02
3671.801, 2.8904660E-02
3673.729, 2.8796490E-02
3675.657, 2.7880980E-02
3677.586, 2.8248079E-02
3679.514, 2.8643990E-02
3681.443, 2.8791530E-02
3683.371, 2.8961049E-02
3685.300, 3.0105811E-02
3687.228, 3.0496551E-02
3689.157, 2.9344060E-02
3691.085, 2.8602220E-02
3693.014, 2.8515700E-02
3694.942, 2.8906260E-02
3696.871, 2.9186791E-02
3698.799, 2.8624980E-02
3700.728, 2.9036390E-02
3702.656, 2.8512871E-02
3704.584, 2.7764861E-02
3706.513, 2.8030841E-02
3708.441, 2.8942309E-02
3710.370, 2.9106570E-02
3712.298, 2.8638780E-02
3714.227, 2.8626710E-02
3716.155, 2.9221419E-02
3718.084, 2.9389260E-02
3720.012, 2.8932359E-02
3721.941, 2.9215571E-02
3723.869, 3.0213170E-02
3725.798, 3.0837230E-02
3727.726, 2.9852390E-02
3729.655, 2.8760830E-02
3731.583, 2.8913129E-02
3733.511, 2.9369120E-02
3735.440, 2.9427590E-02
3737.368, 2.9678270E-02
3739.297, 2.9638890E-02
3741.225, 2.9663090E-02
3743.154, 2.9719990E-02
3745.082, 2.9470099E-02
3747.011, 2.9253030E-02
3748.939, 2.9338920E-02
3750.868, 2.9586781E-02
3752.796, 3.0106019E-02
3754.725, 2.9978661E-02
3756.653, 2.9490281E-02
3758.582, 2.8877320E-02
3760.510, 2.8748831E-02
3762.438, 3.0009581E-02
3764.367, 3.0714629E-02
3766.295, 3.0081730E-02
3768.224, 3.0019701E-02
3770.152, 2.9563410E-02
3772.081, 2.8865920E-02
3774.009, 2.9353280E-02
3775.938, 2.9896080E-02
3777.866, 3.0077970E-02
3779.795, 2.9761931E-02
3781.723, 2.9504931E-02
3783.652, 2.9643470E-02
3785.580, 2.9402910E-02
3787.509, 2.9782159E-02
3789.437, 3.0508850E-02
3791.365, 3.0272000E-02
3793.294, 2.9491421E-02
3795.222, 2.7864691E-02
3797.151, 2.7651571E-02
3799.079, 2.8717469E-02
3801.008, 2.9957989E-02
3802.936, 3.0034080E-02
3804.865, 2.9891109E-02
3806.793, 2.9604660E-02
3808.722, 3.0058190E-02
3810.650, 3.0140150E-02
3812.579, 2.9716410E-02
3814.507, 3.0399950E-02
3816.436, 3.0933430E-02
3818.364, 3.0487239E-02
3820.292, 3.0251291E-02
3822.221, 2.9574789E-02
3824.149, 2.9443150E-02
3826.078, 2.9759239E-02
3828.006, 2.9813571E-02
3829.935, 3.0031200E-02
3831.863, 3.0344730E-02
3833.792, 3.0217830E-02
3835.720, 3.0383570E-02
3837.649, 3.0521540E-02
3839.577, 3.0858289E-02
3841.506, 3.1306900E-02
3843.434, 3.0426851E-02
3845.363, 2.9178251E-02
3847.291, 2.9082160E-02
3849.219, 2.9801611E-02
3851.148, 3.0203439E-02
3853.076, 3.0765129E-02
3855.005, 3.0520789E-02
3856.933, 3.0313751E-02
3858.862, 3.0358050E-02
3860.790, 2.9877590E-02
3862.719, 2.9506451E-02
3864.647, 3.0715659E-02
3866.576, 3.1058650E-02
3868.504, 3.0494450E-02
3870.433, 3.0195020E-02
3872.361, 2.9858001E-02
3874.290, 2.9502369E-02
3876.218, 3.0148990E-02
3878.146, 3.0574180E-02
3880.075, 3.0504759E-02
3882.003, 3.0511830E-02
3883.932, 3.0351371E-02
3885.860, 3.0182090E-02
3887.789, 3.1038759E-02
3889.717, 3.1333178E-02
3891.646, 3.0651189E-02
3893.574, 3.0346179E-02
3895.503, 3.0790210E-02
3897.431, 3.0785549E-02
3899.360, 3.0395189E-02
3901.288, 2.9762080E-02
3903.217, 2.9729079E-02
3905.145, 2.9507199E-02
3907.073, 2.9866980E-02
3909.002, 3.0610660E-02
3910.930, 3.0351941E-02
3912.859, 3.0419599E-02
3914.787, 3.0130841E-02
3916.716, 2.9732941E-02
3918.644, 2.9827829E-02
3920.573, 3.0138090E-02
3922.501, 3.0818200E-02
3924.430, 3.0359300E-02
3926.358, 3.0159540E-02
3928.287, 3.1265128E-02
3930.215, 3.2014601E-02
3932.144, 3.0978050E-02
3934.072, 3.0060140E-02
3936.000, 3.0790100E-02
3937.929, 3.1884100E-02
3939.857, 3.2037031E-02
3941.786, 3.1009439E-02
3943.714, 3.0780571E-02
3945.643, 3.1305831E-02
3947.571, 3.1640269E-02
3949.500, 3.1989451E-02
3951.428, 3.1949900E-02
3953.357, 3.1557672E-02
3955.285, 3.0963739E-02
3957.214, 3.0931721E-02
3959.142, 3.2068279E-02
3961.071, 3.2093361E-02
3962.999, 3.2321960E-02
3964.927, 3.1737391E-02
3966.856, 3.1465109E-02
3968.784, 3.1997941E-02
3970.713, 3.1389769E-02
3972.641, 3.0389469E-02
3974.570, 2.9853670E-02
3976.498, 3.0480379E-02
3978.427, 3.1277630E-02
3980.355, 3.0667190E-02
3982.284, 3.0509479E-02
3984.212, 3.1652819E-02
3986.141, 3.2163970E-02
3988.069, 3.2161150E-02
3989.998, 3.0577449E-02
3991.926, 3.0246640E-02
3993.854, 3.0620329E-02
3995.783, 3.0810731E-02
3997.711, 3.1061931E-02
3999.640, 3.1061931E-02
##END=



