##NAMES=Dumortierite
##RRUFFID=R060069
##IDEAL CHEMISTRY=AlAl_6_BSi_3_O_18_
##LOCALITY=Dehesa, San Diego County, California, USA
##OWNER=RRUFF
##SOURCE=University of Arizona Mineral Museum
##DESCRIPTION=Radial aggregate of purple acicular crystals
##STATUS=The identification of this mineral has been confirmed by X-ray diffraction and chemical analysis
##URL=rruff.info/R060069
##MEASURED CHEMISTRY=(Al_6.89_Ti_0.11_)_Σ=7_(BO_3_)(Si_2.89_Al_0.11_)_Σ=1_O_4_)_3_O_3_ ; B not measured but estimated by difference and charge balance
3.741225e+002, 2.636724e-001
3.760510e+002, 2.751252e-001
3.779795e+002, 2.731449e-001
3.799079e+002, 2.654431e-001
3.818364e+002, 2.725306e-001
3.837649e+002, 2.824091e-001
3.856933e+002, 2.815341e-001
3.876218e+002, 2.842665e-001
3.895503e+002, 2.866037e-001
3.914787e+002, 2.879392e-001
3.934072e+002, 2.880177e-001
3.953357e+002, 2.858623e-001
3.972641e+002, 2.877904e-001
3.991926e+002, 2.946352e-001
4.011211e+002, 3.061195e-001
4.030495e+002, 3.119384e-001
4.049780e+002, 3.090725e-001
4.069065e+002, 3.140076e-001
4.088349e+002, 3.163471e-001
4.107634e+002, 3.214768e-001
4.126919e+002, 3.243862e-001
4.146203e+002, 3.180271e-001
4.165488e+002, 3.151209e-001
4.184773e+002, 3.171280e-001
4.204057e+002, 3.133564e-001
4.223342e+002, 3.036071e-001
4.242627e+002, 2.966796e-001
4.261911e+002, 2.931690e-001
4.281196e+002, 2.889197e-001
4.300481e+002, 2.792198e-001
4.319765e+002, 2.644558e-001
4.339050e+002, 2.511986e-001
4.358335e+002, 2.355953e-001
4.377619e+002, 2.195051e-001
4.396904e+002, 2.061087e-001
4.416189e+002, 1.978689e-001
4.435473e+002, 1.963146e-001
4.454758e+002, 2.011226e-001
4.474043e+002, 2.098106e-001
4.493327e+002, 2.222064e-001
4.512612e+002, 2.372373e-001
4.531897e+002, 2.498170e-001
4.551181e+002, 2.604195e-001
4.570466e+002, 2.701905e-001
4.589751e+002, 2.778691e-001
4.609035e+002, 2.849817e-001
4.628320e+002, 2.930079e-001
4.647605e+002, 2.972026e-001
4.666889e+002, 2.986069e-001
4.686174e+002, 2.991576e-001
4.705459e+002, 2.976568e-001
4.724743e+002, 2.937832e-001
4.744028e+002, 2.908276e-001
4.763313e+002, 2.880825e-001
4.782597e+002, 2.848379e-001
4.801882e+002, 2.811796e-001
4.821167e+002, 2.768785e-001
4.840451e+002, 2.717914e-001
4.859736e+002, 2.643627e-001
4.879021e+002, 2.567534e-001
4.898305e+002, 2.496680e-001
4.917590e+002, 2.429924e-001
4.936875e+002, 2.373698e-001
4.956159e+002, 2.318254e-001
4.975444e+002, 2.284854e-001
4.994729e+002, 2.271459e-001
5.014013e+002, 2.269522e-001
5.033298e+002, 2.284925e-001
5.052583e+002, 2.326862e-001
5.071867e+002, 2.376506e-001
5.091152e+002, 2.426276e-001
5.110437e+002, 2.501139e-001
5.129721e+002, 2.588004e-001
5.149006e+002, 2.666103e-001
5.168290e+002, 2.740199e-001
5.187575e+002, 2.808330e-001
5.206860e+002, 2.867186e-001
5.226144e+002, 2.908186e-001
5.245429e+002, 2.934737e-001
5.264714e+002, 2.956471e-001
5.283998e+002, 2.966165e-001
5.303283e+002, 2.959836e-001
5.322568e+002, 2.941194e-001
5.341852e+002, 2.907587e-001
5.361137e+002, 2.873090e-001
5.380422e+002, 2.826389e-001
5.399706e+002, 2.773842e-001
5.418991e+002, 2.719257e-001
5.438276e+002, 2.667630e-001
5.457560e+002, 2.619098e-001
5.476845e+002, 2.567645e-001
5.496130e+002, 2.529936e-001
5.515414e+002, 2.502019e-001
5.534699e+002, 2.474275e-001
5.553984e+002, 2.445991e-001
5.573268e+002, 2.426823e-001
5.592553e+002, 2.413960e-001
5.611838e+002, 2.399832e-001
5.631122e+002, 2.388783e-001
5.650407e+002, 2.384640e-001
5.669692e+002, 2.373387e-001
5.688976e+002, 2.355825e-001
5.708261e+002, 2.344061e-001
5.727546e+002, 2.325610e-001
5.746830e+002, 2.308807e-001
5.766115e+002, 2.287211e-001
5.785400e+002, 2.255633e-001
5.804684e+002, 2.224403e-001
5.823969e+002, 2.203755e-001
5.843254e+002, 2.184343e-001
5.862538e+002, 2.165753e-001
5.881823e+002, 2.149046e-001
5.901108e+002, 2.132660e-001
5.920392e+002, 2.120637e-001
5.939677e+002, 2.114121e-001
5.958962e+002, 2.120951e-001
5.978246e+002, 2.134514e-001
5.997531e+002, 2.147164e-001
6.016816e+002, 2.159323e-001
6.036100e+002, 2.167104e-001
6.055385e+002, 2.163981e-001
6.074670e+002, 2.156830e-001
6.093954e+002, 2.148010e-001
6.113239e+002, 2.147031e-001
6.132524e+002, 2.159546e-001
6.151808e+002, 2.184076e-001
6.171093e+002, 2.214460e-001
6.190378e+002, 2.230644e-001
6.209662e+002, 2.224239e-001
6.228947e+002, 2.207668e-001
6.248232e+002, 2.190039e-001
6.267516e+002, 2.174876e-001
6.286801e+002, 2.167025e-001
6.306086e+002, 2.166151e-001
6.325370e+002, 2.162353e-001
6.344655e+002, 2.151600e-001
6.363940e+002, 2.137000e-001
6.383224e+002, 2.111926e-001
6.402509e+002, 2.074428e-001
6.421794e+002, 2.022945e-001
6.441078e+002, 1.964950e-001
6.460363e+002, 1.899443e-001
6.479648e+002, 1.826558e-001
6.498932e+002, 1.756539e-001
6.518217e+002, 1.694588e-001
6.537502e+002, 1.637180e-001
6.556786e+002, 1.582789e-001
6.576071e+002, 1.531100e-001
6.595356e+002, 1.481709e-001
6.614641e+002, 1.433363e-001
6.633925e+002, 1.383992e-001
6.653210e+002, 1.336383e-001
6.672495e+002, 1.290971e-001
6.691779e+002, 1.245938e-001
6.711064e+002, 1.202280e-001
6.730349e+002, 1.166961e-001
6.749633e+002, 1.142858e-001
6.768918e+002, 1.125599e-001
6.788203e+002, 1.120387e-001
6.807487e+002, 1.131808e-001
6.826772e+002, 1.154800e-001
6.846057e+002, 1.180088e-001
6.865341e+002, 1.203604e-001
6.884626e+002, 1.224424e-001
6.903911e+002, 1.241434e-001
6.923195e+002, 1.252799e-001
6.942480e+002, 1.259791e-001
6.961765e+002, 1.260153e-001
6.981049e+002, 1.258214e-001
7.000334e+002, 1.260931e-001
7.019619e+002, 1.267452e-001
7.038903e+002, 1.278859e-001
7.058188e+002, 1.294892e-001
7.077473e+002, 1.316188e-001
7.096757e+002, 1.341137e-001
7.116042e+002, 1.367557e-001
7.135327e+002, 1.393716e-001
7.154611e+002, 1.417068e-001
7.173896e+002, 1.435836e-001
7.193181e+002, 1.449053e-001
7.212465e+002, 1.452693e-001
7.231750e+002, 1.445632e-001
7.251035e+002, 1.433349e-001
7.270319e+002, 1.415478e-001
7.289604e+002, 1.392962e-001
7.308889e+002, 1.368903e-001
7.328173e+002, 1.345437e-001
7.347458e+002, 1.325851e-001
7.366743e+002, 1.308368e-001
7.386027e+002, 1.293610e-001
7.405312e+002, 1.288032e-001
7.424597e+002, 1.291041e-001
7.443881e+002, 1.302967e-001
7.463166e+002, 1.322329e-001
7.482451e+002, 1.343138e-001
7.501735e+002, 1.366535e-001
7.521020e+002, 1.390102e-001
7.540305e+002, 1.409843e-001
7.559589e+002, 1.417619e-001
7.578874e+002, 1.410956e-001
7.598159e+002, 1.389965e-001
7.617443e+002, 1.355719e-001
7.636728e+002, 1.311395e-001
7.656013e+002, 1.261300e-001
7.675297e+002, 1.207140e-001
7.694582e+002, 1.151233e-001
7.713867e+002, 1.099658e-001
7.733151e+002, 1.054057e-001
7.752436e+002, 1.015198e-001
7.771721e+002, 9.815536e-002
7.791005e+002, 9.493867e-002
7.810290e+002, 9.114660e-002
7.829575e+002, 8.702064e-002
7.848859e+002, 8.281727e-002
7.868144e+002, 7.871601e-002
7.887429e+002, 7.498413e-002
7.906713e+002, 7.206383e-002
7.925998e+002, 7.002632e-002
7.945283e+002, 6.887936e-002
7.964567e+002, 6.884243e-002
7.983852e+002, 6.967445e-002
8.003137e+002, 7.130782e-002
8.022421e+002, 7.399714e-002
8.041706e+002, 7.789098e-002
8.060991e+002, 8.292575e-002
8.080275e+002, 8.863466e-002
8.099560e+002, 9.445147e-002
8.118845e+002, 9.957858e-002
8.138129e+002, 1.029449e-001
8.157414e+002, 1.043155e-001
8.176699e+002, 1.045861e-001
8.195983e+002, 1.045338e-001
8.215268e+002, 1.046555e-001
8.234553e+002, 1.053235e-001
8.253837e+002, 1.072112e-001
8.273122e+002, 1.106357e-001
8.292407e+002, 1.152016e-001
8.311691e+002, 1.207477e-001
8.330976e+002, 1.262953e-001
8.350261e+002, 1.308942e-001
8.369545e+002, 1.338434e-001
8.388830e+002, 1.357071e-001
8.408115e+002, 1.371671e-001
8.427399e+002, 1.383483e-001
8.446684e+002, 1.394753e-001
8.465969e+002, 1.401638e-001
8.485253e+002, 1.404855e-001
8.504538e+002, 1.405769e-001
8.523823e+002, 1.402020e-001
8.543107e+002, 1.389801e-001
8.562392e+002, 1.371875e-001
8.581677e+002, 1.356668e-001
8.600961e+002, 1.338538e-001
8.620246e+002, 1.318542e-001
8.639531e+002, 1.301799e-001
8.658815e+002, 1.289349e-001
8.678100e+002, 1.280665e-001
8.697385e+002, 1.274533e-001
8.716669e+002, 1.272838e-001
8.735954e+002, 1.273789e-001
8.755239e+002, 1.276457e-001
8.774523e+002, 1.279144e-001
8.793808e+002, 1.282738e-001
8.813093e+002, 1.289815e-001
8.832377e+002, 1.297580e-001
8.851662e+002, 1.307256e-001
8.870947e+002, 1.317951e-001
8.890231e+002, 1.329996e-001
8.909516e+002, 1.342255e-001
8.928801e+002, 1.355753e-001
8.948085e+002, 1.370327e-001
8.967370e+002, 1.385431e-001
8.986655e+002, 1.405597e-001
9.005939e+002, 1.429187e-001
9.025224e+002, 1.454737e-001
9.044509e+002, 1.484674e-001
9.063793e+002, 1.521581e-001
9.083078e+002, 1.561515e-001
9.102363e+002, 1.599390e-001
9.121647e+002, 1.627723e-001
9.140932e+002, 1.635091e-001
9.160217e+002, 1.625664e-001
9.179501e+002, 1.611137e-001
9.198786e+002, 1.601961e-001
9.218071e+002, 1.601122e-001
9.237355e+002, 1.608195e-001
9.256640e+002, 1.624223e-001
9.275925e+002, 1.648401e-001
9.295209e+002, 1.680306e-001
9.314494e+002, 1.719391e-001
9.333779e+002, 1.762200e-001
9.353063e+002, 1.803359e-001
9.372348e+002, 1.837204e-001
9.391633e+002, 1.863848e-001
9.410917e+002, 1.881248e-001
9.430202e+002, 1.891810e-001
9.449487e+002, 1.901600e-001
9.468771e+002, 1.908683e-001
9.488056e+002, 1.901768e-001
9.507341e+002, 1.867937e-001
9.526625e+002, 1.808636e-001
9.545910e+002, 1.739297e-001
9.565195e+002, 1.679840e-001
9.584479e+002, 1.640644e-001
9.603764e+002, 1.618150e-001
9.623049e+002, 1.608114e-001
9.642333e+002, 1.607484e-001
9.661618e+002, 1.610308e-001
9.680903e+002, 1.612509e-001
9.700187e+002, 1.614475e-001
9.719472e+002, 1.615443e-001
9.738757e+002, 1.614564e-001
9.758041e+002, 1.615217e-001
9.777326e+002, 1.615767e-001
9.796611e+002, 1.614775e-001
9.815895e+002, 1.617257e-001
9.835180e+002, 1.624174e-001
9.854465e+002, 1.635081e-001
9.873749e+002, 1.653392e-001
9.893034e+002, 1.680954e-001
9.912319e+002, 1.717664e-001
9.931603e+002, 1.767436e-001
9.950888e+002, 1.833005e-001
9.970173e+002, 1.908804e-001
9.989457e+002, 1.985742e-001
1.000874e+003, 2.051006e-001
1.002803e+003, 2.096419e-001
1.004731e+003, 2.124627e-001
1.006660e+003, 2.134800e-001
1.008588e+003, 2.120132e-001
1.010517e+003, 2.082006e-001
1.012445e+003, 2.031237e-001
1.014373e+003, 1.982802e-001
1.016302e+003, 1.942632e-001
1.018230e+003, 1.916490e-001
1.020159e+003, 1.906814e-001
1.022087e+003, 1.916195e-001
1.024016e+003, 1.946056e-001
1.025944e+003, 1.990268e-001
1.027873e+003, 2.039641e-001
1.029801e+003, 2.081007e-001
1.031730e+003, 2.100386e-001
1.033658e+003, 2.094472e-001
1.035587e+003, 2.067896e-001
1.037515e+003, 2.030399e-001
1.039443e+003, 1.996918e-001
1.041372e+003, 1.973187e-001
1.043300e+003, 1.960799e-001
1.045229e+003, 1.959353e-001
1.047157e+003, 1.962514e-001
1.049086e+003, 1.958309e-001
1.051014e+003, 1.936568e-001
1.052943e+003, 1.893127e-001
1.054871e+003, 1.835761e-001
1.056800e+003, 1.771713e-001
1.058728e+003, 1.708715e-001
1.060657e+003, 1.654389e-001
1.062585e+003, 1.612991e-001
1.064514e+003, 1.585130e-001
1.066442e+003, 1.563015e-001
1.068370e+003, 1.533136e-001
1.070299e+003, 1.486437e-001
1.072227e+003, 1.420272e-001
1.074156e+003, 1.340624e-001
1.076084e+003, 1.255858e-001
1.078013e+003, 1.172249e-001
1.079941e+003, 1.092620e-001
1.081870e+003, 1.017593e-001
1.083798e+003, 9.464984e-002
1.085727e+003, 8.832163e-002
1.087655e+003, 8.287448e-002
1.089584e+003, 7.824016e-002
1.091512e+003, 7.432049e-002
1.093441e+003, 7.101762e-002
1.095369e+003, 6.825633e-002
1.097297e+003, 6.602805e-002
1.099226e+003, 6.436501e-002
1.101154e+003, 6.308527e-002
1.103083e+003, 6.224553e-002
1.105011e+003, 6.167396e-002
1.106940e+003, 6.124977e-002
1.108868e+003, 6.122042e-002
1.110797e+003, 6.185653e-002
1.112725e+003, 6.355485e-002
1.114654e+003, 6.652565e-002
1.116582e+003, 7.088776e-002
1.118511e+003, 7.580604e-002
1.120439e+003, 7.691765e-002
1.122368e+003, 7.213512e-002
1.124296e+003, 6.485686e-002
1.126224e+003, 5.820685e-002
1.128153e+003, 5.303217e-002
1.130081e+003, 4.866233e-002
1.132010e+003, 4.453181e-002
1.133938e+003, 4.097499e-002
1.135867e+003, 3.804706e-002
1.137795e+003, 3.544698e-002
1.139724e+003, 3.323010e-002
1.141652e+003, 3.147066e-002
1.143581e+003, 3.012194e-002
1.145509e+003, 2.897516e-002
1.147438e+003, 2.788792e-002
1.149366e+003, 2.708582e-002
1.151295e+003, 2.643830e-002
1.153223e+003, 2.583463e-002
1.155151e+003, 2.535058e-002
1.157080e+003, 2.500616e-002
1.159008e+003, 2.473876e-002
1.160937e+003, 2.448345e-002
1.162865e+003, 2.422376e-002
1.164794e+003, 2.389787e-002
1.166722e+003, 2.348754e-002
1.168651e+003, 2.304205e-002
1.170579e+003, 2.246005e-002
1.172508e+003, 2.177495e-002
1.174436e+003, 2.091962e-002
1.176365e+003, 2.004942e-002
1.178293e+003, 1.913109e-002
1.180222e+003, 1.819428e-002
1.182150e+003, 1.735639e-002
1.184078e+003, 1.665169e-002
1.186007e+003, 1.612867e-002
1.187935e+003, 1.573555e-002
1.189864e+003, 1.540000e-002
1.191792e+003, 1.501923e-002
1.193721e+003, 1.455476e-002
1.195649e+003, 1.413941e-002
1.197578e+003, 1.380388e-002
1.199506e+003, 1.351427e-002
1.201435e+003, 1.319988e-002
1.203363e+003, 1.280257e-002
1.205292e+003, 1.244054e-002
1.207220e+003, 1.232208e-002
1.209149e+003, 1.210847e-002
1.211077e+003, 1.175609e-002
1.213005e+003, 1.141141e-002
1.214934e+003, 1.118761e-002
1.216862e+003, 1.111154e-002
1.218791e+003, 1.111537e-002
1.220719e+003, 1.106769e-002
1.222648e+003, 1.094839e-002
1.224576e+003, 1.080215e-002
1.226505e+003, 1.075711e-002
1.228433e+003, 1.071783e-002
1.230362e+003, 1.061699e-002
1.232290e+003, 1.058569e-002
1.234219e+003, 1.070786e-002
1.236147e+003, 1.076682e-002
1.238076e+003, 1.067126e-002
1.240004e+003, 1.067027e-002
1.241932e+003, 1.087134e-002
1.243861e+003, 1.104829e-002
1.245789e+003, 1.118784e-002
1.247718e+003, 1.129928e-002
1.249646e+003, 1.132210e-002
1.251575e+003, 1.137230e-002
1.253503e+003, 1.146510e-002
1.255432e+003, 1.150746e-002
1.257360e+003, 1.152768e-002
1.259289e+003, 1.151165e-002
1.261217e+003, 1.148071e-002
1.263146e+003, 1.136395e-002
1.265074e+003, 1.130838e-002
1.267003e+003, 1.120115e-002
1.268931e+003, 1.120189e-002
1.270859e+003, 1.129368e-002
1.272788e+003, 1.145856e-002
1.274716e+003, 1.168134e-002
1.276645e+003, 1.197478e-002
1.278573e+003, 1.223891e-002
1.280502e+003, 1.251848e-002
1.282430e+003, 1.284619e-002
1.284359e+003, 1.319259e-002
1.286287e+003, 1.371057e-002
1.288216e+003, 1.415134e-002
1.290144e+003, 1.451397e-002
1.292073e+003, 1.498088e-002
1.294001e+003, 1.541493e-002
1.295930e+003, 1.586839e-002
1.297858e+003, 1.643077e-002
1.299786e+003, 1.710308e-002
1.301715e+003, 1.773285e-002
1.303643e+003, 1.844452e-002
1.305572e+003, 1.931142e-002
1.307500e+003, 2.005759e-002
1.309429e+003, 2.093392e-002
1.311357e+003, 2.220507e-002
1.313286e+003, 2.359363e-002
1.315214e+003, 2.506707e-002
1.317143e+003, 2.663244e-002
1.319071e+003, 2.831829e-002
1.321000e+003, 3.020416e-002
1.322928e+003, 3.212669e-002
1.324857e+003, 3.409630e-002
1.326785e+003, 3.621516e-002
1.328714e+003, 3.844589e-002
1.330642e+003, 4.094832e-002
1.332570e+003, 4.391652e-002
1.334499e+003, 4.757696e-002
1.336427e+003, 5.228309e-002
1.338356e+003, 5.797151e-002
1.340284e+003, 6.448158e-002
1.342213e+003, 7.179022e-002
1.344141e+003, 7.956814e-002
1.346070e+003, 8.760964e-002
1.347998e+003, 9.531624e-002
1.349927e+003, 1.022896e-001
1.351855e+003, 1.082786e-001
1.353784e+003, 1.129139e-001
1.355712e+003, 1.161845e-001
1.357641e+003, 1.180959e-001
1.359569e+003, 1.188222e-001
1.361497e+003, 1.188661e-001
1.363426e+003, 1.181918e-001
1.365354e+003, 1.169984e-001
1.367283e+003, 1.156796e-001
1.369211e+003, 1.142284e-001
1.371140e+003, 1.126288e-001
1.373068e+003, 1.108427e-001
1.374997e+003, 1.089588e-001
1.376925e+003, 1.071692e-001
1.378854e+003, 1.055477e-001
1.380782e+003, 1.039355e-001
1.382711e+003, 1.023703e-001
1.384639e+003, 1.006987e-001
1.386568e+003, 9.867422e-002
1.388496e+003, 9.589060e-002
1.390424e+003, 9.251522e-002
1.392353e+003, 8.861651e-002
1.394281e+003, 8.428236e-002
1.396210e+003, 7.966947e-002
1.398138e+003, 7.498092e-002
1.400067e+003, 7.048464e-002
1.401995e+003, 6.640488e-002
1.403924e+003, 6.253129e-002
1.405852e+003, 5.891054e-002
1.407781e+003, 5.566399e-002
1.409709e+003, 5.258076e-002
1.411638e+003, 4.964791e-002
1.413566e+003, 4.696862e-002
1.415495e+003, 4.456048e-002
1.417423e+003, 4.247978e-002
1.419351e+003, 4.050303e-002
1.421280e+003, 3.850098e-002
1.423208e+003, 3.680202e-002
1.425137e+003, 3.511985e-002
1.427065e+003, 3.352107e-002
1.428994e+003, 3.211305e-002
1.430922e+003, 3.068279e-002
1.432851e+003, 2.941005e-002
1.434779e+003, 2.858159e-002
1.436708e+003, 2.777125e-002
1.438636e+003, 2.645406e-002
1.440565e+003, 2.516782e-002
1.442493e+003, 2.404649e-002
1.444422e+003, 2.297840e-002
1.446350e+003, 2.179822e-002
1.448278e+003, 2.046374e-002
1.450207e+003, 1.900274e-002
1.452135e+003, 1.751670e-002
1.454064e+003, 1.612323e-002
1.455992e+003, 1.494485e-002
1.457921e+003, 1.332792e-002
1.459849e+003, 1.148085e-002
1.461778e+003, 1.004397e-002
1.463706e+003, 8.880538e-003
1.465635e+003, 7.765735e-003
1.467563e+003, 6.591396e-003
1.469492e+003, 5.796514e-003
1.471420e+003, 5.372002e-003
1.473349e+003, 4.773506e-003
1.475277e+003, 4.024263e-003
1.477205e+003, 3.544153e-003
1.479134e+003, 3.187355e-003
1.481062e+003, 3.007822e-003
1.482991e+003, 2.899427e-003
1.484919e+003, 2.816748e-003
1.486848e+003, 2.802136e-003
1.488776e+003, 2.850843e-003
1.490705e+003, 2.731400e-003
1.492633e+003, 2.548161e-003
1.494562e+003, 2.576896e-003
1.496490e+003, 2.720656e-003
1.498419e+003, 2.667813e-003
1.500347e+003, 2.524951e-003
1.502276e+003, 2.404028e-003
1.504204e+003, 2.687241e-003
1.506132e+003, 3.149128e-003
1.508061e+003, 3.017443e-003
1.509989e+003, 2.636202e-003
1.511918e+003, 2.521677e-003
1.513846e+003, 2.490446e-003
1.515775e+003, 2.585015e-003
1.517703e+003, 2.705682e-003
1.519632e+003, 2.848664e-003
1.521560e+003, 3.005846e-003
1.523489e+003, 2.807507e-003
1.525417e+003, 2.709193e-003
1.527346e+003, 2.687613e-003
1.529274e+003, 2.648215e-003
1.531203e+003, 2.729689e-003
1.533131e+003, 2.824530e-003
1.535059e+003, 2.770506e-003
1.536988e+003, 2.989099e-003
1.538916e+003, 3.593695e-003
1.540845e+003, 3.659277e-003
1.542773e+003, 3.389592e-003
1.544702e+003, 3.223333e-003
1.546630e+003, 3.146661e-003
1.548559e+003, 3.183563e-003
1.550487e+003, 3.206209e-003
1.552416e+003, 3.246993e-003
1.554344e+003, 3.466333e-003
1.556273e+003, 3.670775e-003
1.558201e+003, 4.321536e-003
1.560130e+003, 4.331502e-003
1.562058e+003, 3.777819e-003
1.563986e+003, 3.703645e-003
1.565915e+003, 3.797371e-003
1.567843e+003, 3.901097e-003
1.569772e+003, 4.086546e-003
1.571700e+003, 4.006284e-003
1.573629e+003, 4.133452e-003
1.575557e+003, 4.641739e-003
1.577486e+003, 4.597852e-003
1.579414e+003, 4.287078e-003
1.581343e+003, 4.398928e-003
1.583271e+003, 4.433807e-003
1.585200e+003, 4.437517e-003
1.587128e+003, 4.319927e-003
1.589057e+003, 4.338626e-003
1.590985e+003, 4.579567e-003
1.592913e+003, 4.829240e-003
1.594842e+003, 4.884898e-003
1.596770e+003, 4.905833e-003
1.598699e+003, 4.951559e-003
1.600627e+003, 5.077566e-003
1.602556e+003, 5.135134e-003
1.604484e+003, 5.212657e-003
1.606413e+003, 5.265421e-003
1.608341e+003, 5.328504e-003
1.610270e+003, 5.464530e-003
1.612198e+003, 5.468065e-003
1.614127e+003, 5.664690e-003
1.616055e+003, 6.254243e-003
1.617984e+003, 6.185127e-003
1.619912e+003, 5.976761e-003
1.621840e+003, 6.131418e-003
1.623769e+003, 6.232068e-003
1.625697e+003, 6.195243e-003
1.627626e+003, 6.191327e-003
1.629554e+003, 6.240557e-003
1.631483e+003, 6.345194e-003
1.633411e+003, 6.589027e-003
1.635340e+003, 6.991347e-003
1.637268e+003, 6.866266e-003
1.639197e+003, 6.505611e-003
1.641125e+003, 6.316180e-003
1.643054e+003, 6.416594e-003
1.644982e+003, 6.797491e-003
1.646911e+003, 6.992799e-003
1.648839e+003, 6.751901e-003
1.650767e+003, 6.928505e-003
1.652696e+003, 7.418634e-003
1.654624e+003, 6.870145e-003
1.656553e+003, 6.309780e-003
1.658481e+003, 6.233657e-003
1.660410e+003, 6.125223e-003
1.662338e+003, 6.152180e-003
1.664267e+003, 5.963870e-003
1.666195e+003, 5.919306e-003
1.668124e+003, 6.160630e-003
1.670052e+003, 6.143378e-003
1.671981e+003, 5.883255e-003
1.673909e+003, 5.897825e-003
1.675838e+003, 5.905641e-003
1.677766e+003, 5.718904e-003
1.679694e+003, 5.687630e-003
1.681623e+003, 5.799179e-003
1.683551e+003, 6.356623e-003
1.685480e+003, 6.315361e-003
1.687408e+003, 5.883142e-003
1.689337e+003, 5.965325e-003
1.691265e+003, 5.981584e-003
1.693194e+003, 6.118124e-003
1.695122e+003, 6.611126e-003
1.697051e+003, 6.614748e-003
1.698979e+003, 6.583204e-003
1.700908e+003, 6.545546e-003
1.702836e+003, 6.008375e-003
1.704765e+003, 5.984047e-003
1.706693e+003, 6.039406e-003
1.708621e+003, 5.990249e-003
1.710550e+003, 5.782857e-003
1.712478e+003, 5.761718e-003
1.714407e+003, 5.872019e-003
1.716335e+003, 5.996671e-003
1.718264e+003, 5.722833e-003
1.720192e+003, 5.385148e-003
1.722121e+003, 5.237701e-003
1.724049e+003, 5.031003e-003
1.725978e+003, 4.875060e-003
1.727906e+003, 4.825092e-003
1.729835e+003, 4.951012e-003
1.731763e+003, 5.135336e-003
1.733692e+003, 5.212565e-003
1.735620e+003, 4.822454e-003
1.737548e+003, 4.395478e-003
1.739477e+003, 4.401712e-003
1.741405e+003, 4.354266e-003
1.743334e+003, 4.263780e-003
1.745262e+003, 4.119485e-003
1.747191e+003, 4.053284e-003
1.749119e+003, 4.049322e-003
1.751048e+003, 4.129873e-003
1.752976e+003, 3.904272e-003
1.754905e+003, 3.834426e-003
1.756833e+003, 3.962526e-003
1.758762e+003, 3.995486e-003
1.760690e+003, 4.039886e-003
1.762619e+003, 4.092411e-003
1.764547e+003, 4.083923e-003
1.766475e+003, 3.934200e-003
1.768404e+003, 3.773337e-003
1.770332e+003, 3.904635e-003
1.772261e+003, 4.168824e-003
1.774189e+003, 4.176695e-003
1.776118e+003, 3.992524e-003
1.778046e+003, 3.764131e-003
1.779975e+003, 3.710043e-003
1.781903e+003, 3.768373e-003
1.783832e+003, 3.924956e-003
1.785760e+003, 3.984117e-003
1.787689e+003, 3.884729e-003
1.789617e+003, 4.018158e-003
1.791546e+003, 4.236992e-003
1.793474e+003, 4.180280e-003
1.795402e+003, 3.900466e-003
1.797331e+003, 3.932336e-003
1.799259e+003, 4.036172e-003
1.801188e+003, 3.956176e-003
1.803116e+003, 3.845820e-003
1.805045e+003, 3.822616e-003
1.806973e+003, 3.868665e-003
1.808902e+003, 4.161386e-003
1.810830e+003, 4.082376e-003
1.812759e+003, 3.771171e-003
1.814687e+003, 3.660059e-003
1.816616e+003, 3.782692e-003
1.818544e+003, 3.907716e-003
1.820473e+003, 3.940079e-003
1.822401e+003, 3.888395e-003
1.824329e+003, 4.210420e-003
1.826258e+003, 4.210948e-003
1.828186e+003, 4.255914e-003
1.830115e+003, 4.376154e-003
1.832043e+003, 4.304382e-003
1.833972e+003, 4.238251e-003
1.835900e+003, 3.976028e-003
1.837829e+003, 3.788036e-003
1.839757e+003, 3.989409e-003
1.841686e+003, 4.005818e-003
1.843614e+003, 3.985674e-003
1.845543e+003, 3.985513e-003
1.847471e+003, 3.995064e-003
1.849400e+003, 4.027967e-003
1.851328e+003, 4.021474e-003
1.853256e+003, 3.753588e-003
1.855185e+003, 3.799699e-003
1.857113e+003, 3.869591e-003
1.859042e+003, 3.900321e-003
1.860970e+003, 3.896039e-003
1.862899e+003, 3.984096e-003
1.864827e+003, 4.025388e-003
1.866756e+003, 3.721639e-003
1.868684e+003, 3.699199e-003
1.870613e+003, 3.758220e-003
1.872541e+003, 3.650628e-003
1.874470e+003, 3.854464e-003
1.876398e+003, 3.929695e-003
1.878327e+003, 3.598072e-003
1.880255e+003, 3.532520e-003
1.882183e+003, 3.722716e-003
1.884112e+003, 3.646475e-003
1.886040e+003, 3.571194e-003
1.887969e+003, 3.494776e-003
1.889897e+003, 3.599847e-003
1.891826e+003, 3.694382e-003
1.893754e+003, 3.827933e-003
1.895683e+003, 3.633704e-003
1.897611e+003, 3.565534e-003
1.899540e+003, 3.494908e-003
1.901468e+003, 3.177552e-003
1.903397e+003, 2.858636e-003
1.905325e+003, 3.478430e-003
1.907254e+003, 3.770910e-003
1.909182e+003, 3.615667e-003
1.911110e+003, 3.703403e-003
1.913039e+003, 4.003214e-003
1.914967e+003, 4.059529e-003
1.916896e+003, 4.201592e-003
1.918824e+003, 3.961216e-003
1.920753e+003, 4.054352e-003
1.922681e+003, 4.148157e-003
1.924610e+003, 3.833039e-003
1.926538e+003, 3.674998e-003
1.928467e+003, 3.935304e-003
1.930395e+003, 4.079584e-003
1.932324e+003, 3.918848e-003
1.934252e+003, 3.578443e-003
1.936181e+003, 3.541893e-003
1.938109e+003, 3.381867e-003
1.940037e+003, 3.020321e-003
1.941966e+003, 3.181031e-003
1.943894e+003, 3.436281e-003
1.945823e+003, 3.408564e-003
1.947751e+003, 3.816567e-003
1.949680e+003, 4.199097e-003
1.951608e+003, 3.927213e-003
1.953537e+003, 3.394905e-003
1.955465e+003, 2.838848e-003
1.957394e+003, 2.758082e-003
1.959322e+003, 3.709710e-003
1.961251e+003, 4.442485e-003
1.963179e+003, 4.551611e-003
1.965108e+003, 4.030515e-003
1.967036e+003, 2.806636e-003
1.968964e+003, 2.495869e-003
1.970893e+003, 3.034502e-003
1.972821e+003, 3.183596e-003
1.974750e+003, 4.090690e-003
1.976678e+003, 5.242699e-003
1.978607e+003, 6.291719e-003
1.980535e+003, 5.796221e-003
1.982464e+003, 5.469095e-003
1.984392e+003, 5.648780e-003
1.986321e+003, 5.107280e-003
1.988249e+003, 3.699862e-003
1.990178e+003, 3.153445e-003
1.992106e+003, 3.053262e-003
1.994035e+003, 3.285201e-003
1.995963e+003, 3.532136e-003
1.997891e+003, 4.441125e-003
1.999820e+003, 5.316684e-003
2.001748e+003, 3.905442e-003
2.003677e+003, 2.873001e-003
2.005605e+003, 2.980620e-003
2.007534e+003, 4.132873e-003
2.009462e+003, 4.568176e-003
2.011391e+003, 4.205476e-003
2.013319e+003, 4.251745e-003
2.015248e+003, 4.655661e-003
2.017176e+003, 5.180382e-003
2.019105e+003, 4.972257e-003
2.021033e+003, 4.139761e-003
2.022962e+003, 3.434830e-003
2.024890e+003, 3.681065e-003
2.026818e+003, 3.835572e-003
2.028747e+003, 4.046280e-003
2.030675e+003, 3.625283e-003
2.032604e+003, 3.917631e-003
2.034532e+003, 3.674750e-003
2.036461e+003, 3.303755e-003
2.038389e+003, 3.351409e-003
2.040318e+003, 3.427005e-003
2.042246e+003, 3.632858e-003
2.044175e+003, 3.660674e-003
2.046103e+003, 3.332525e-003
2.048031e+003, 3.444435e-003
2.049960e+003, 3.994260e-003
2.051888e+003, 3.766173e-003
2.053817e+003, 3.175987e-003
2.055745e+003, 3.259572e-003
2.057674e+003, 3.392387e-003
2.059602e+003, 3.447436e-003
2.061531e+003, 3.768315e-003
2.063459e+003, 3.740593e-003
2.065388e+003, 2.987850e-003
2.067316e+003, 2.908982e-003
2.069245e+003, 3.386960e-003
2.071173e+003, 3.413011e-003
2.073102e+003, 2.774912e-003
2.075030e+003, 2.907922e-003
2.076958e+003, 3.163541e-003
2.078887e+003, 3.067873e-003
2.080815e+003, 3.076232e-003
2.082744e+003, 3.263142e-003
2.084672e+003, 3.669519e-003
2.086601e+003, 3.251329e-003
2.088529e+003, 2.940930e-003
2.090458e+003, 3.477519e-003
2.092386e+003, 3.368582e-003
2.094315e+003, 2.654932e-003
2.096243e+003, 2.746874e-003
2.098172e+003, 3.623948e-003
2.100100e+003, 3.772722e-003
2.102029e+003, 3.659682e-003
2.103957e+003, 3.509067e-003
2.105885e+003, 3.416110e-003
2.107814e+003, 3.241097e-003
2.109742e+003, 2.815078e-003
2.111671e+003, 3.568642e-003
2.113599e+003, 4.163511e-003
2.115528e+003, 3.527868e-003
2.117456e+003, 3.086379e-003
2.119385e+003, 3.297707e-003
2.121313e+003, 3.357475e-003
2.123242e+003, 3.358226e-003
2.125170e+003, 3.534430e-003
2.127099e+003, 2.962210e-003
2.129027e+003, 2.563068e-003
2.130956e+003, 2.593233e-003
2.132884e+003, 2.078445e-003
2.134813e+003, 2.271657e-003
2.136741e+003, 2.566383e-003
2.138669e+003, 2.824272e-003
2.140598e+003, 3.884066e-003
2.142526e+003, 3.988830e-003
2.144455e+003, 2.976364e-003
2.146383e+003, 3.039128e-003
2.148312e+003, 3.213102e-003
2.150240e+003, 2.527716e-003
2.152169e+003, 2.497033e-003
2.154097e+003, 3.292643e-003
2.156026e+003, 3.381385e-003
2.157954e+003, 3.822191e-003
2.159883e+003, 5.718462e-003
2.161811e+003, 6.323657e-003
2.163740e+003, 5.840644e-003
2.165668e+003, 6.182554e-003
2.167596e+003, 6.131230e-003
2.169525e+003, 6.498577e-003
2.171453e+003, 6.349993e-003
2.173382e+003, 6.106056e-003
2.175310e+003, 6.735199e-003
2.177239e+003, 7.267780e-003
2.179167e+003, 6.609563e-003
2.181096e+003, 6.278466e-003
2.183024e+003, 6.780032e-003
2.184953e+003, 8.289373e-003
2.186881e+003, 8.712448e-003
2.188810e+003, 8.236948e-003
2.190738e+003, 8.251343e-003
2.192667e+003, 8.013518e-003
2.194595e+003, 8.416635e-003
2.196523e+003, 8.359636e-003
2.198452e+003, 7.938634e-003
2.200380e+003, 8.228360e-003
2.202309e+003, 8.820988e-003
2.204237e+003, 8.861092e-003
2.206166e+003, 9.015786e-003
2.208094e+003, 8.555230e-003
2.210023e+003, 8.623892e-003
2.211951e+003, 8.423349e-003
2.213880e+003, 8.297521e-003
2.215808e+003, 8.514938e-003
2.217737e+003, 9.526689e-003
2.219665e+003, 1.000214e-002
2.221594e+003, 9.119354e-003
2.223522e+003, 8.466718e-003
2.225450e+003, 8.838656e-003
2.227379e+003, 8.788990e-003
2.229307e+003, 8.561155e-003
2.231236e+003, 8.432860e-003
2.233164e+003, 8.329519e-003
2.235093e+003, 8.584075e-003
2.237021e+003, 8.369765e-003
2.238950e+003, 8.041257e-003
2.240878e+003, 8.157677e-003
2.242807e+003, 7.816304e-003
2.244735e+003, 7.995689e-003
2.246664e+003, 8.578654e-003
2.248592e+003, 9.375220e-003
2.250521e+003, 9.180498e-003
2.252449e+003, 8.492107e-003
2.254377e+003, 9.303532e-003
2.256306e+003, 9.712441e-003
2.258234e+003, 9.077305e-003
2.260163e+003, 8.973623e-003
2.262091e+003, 8.587197e-003
2.264020e+003, 8.705437e-003
2.265948e+003, 9.085769e-003
2.267877e+003, 8.799472e-003
2.269805e+003, 8.953400e-003
2.271734e+003, 9.459655e-003
2.273662e+003, 9.564139e-003
2.275591e+003, 9.584183e-003
2.277519e+003, 9.518933e-003
2.279448e+003, 9.505760e-003
2.281376e+003, 9.508579e-003
2.283304e+003, 9.640460e-003
2.285233e+003, 9.673547e-003
2.287161e+003, 9.536441e-003
2.289090e+003, 9.500644e-003
2.291018e+003, 9.393484e-003
2.292947e+003, 8.988585e-003
2.294875e+003, 8.908188e-003
2.296804e+003, 9.032524e-003
2.298732e+003, 8.929584e-003
2.300661e+003, 8.869903e-003
2.302589e+003, 9.167578e-003
2.304518e+003, 8.841644e-003
2.306446e+003, 8.336801e-003
2.308375e+003, 8.566747e-003
2.310303e+003, 9.156580e-003
2.312231e+003, 9.391574e-003
2.314160e+003, 9.119979e-003
2.316088e+003, 8.878862e-003
2.318017e+003, 9.277499e-003
2.319945e+003, 9.918928e-003
2.321874e+003, 1.021791e-002
2.323802e+003, 1.017241e-002
2.325731e+003, 9.721533e-003
2.327659e+003, 9.445369e-003
2.329588e+003, 9.438533e-003
2.331516e+003, 9.301027e-003
2.333445e+003, 9.159806e-003
2.335373e+003, 9.199470e-003
2.337302e+003, 9.448633e-003
2.339230e+003, 9.353600e-003
2.341158e+003, 9.449663e-003
2.343087e+003, 9.769754e-003
2.345015e+003, 9.520600e-003
2.346944e+003, 9.035971e-003
2.348872e+003, 8.836051e-003
2.350801e+003, 8.673126e-003
2.352729e+003, 8.862714e-003
2.354658e+003, 9.339139e-003
2.356586e+003, 9.662176e-003
2.358515e+003, 9.750649e-003
2.360443e+003, 9.696585e-003
2.362372e+003, 9.785131e-003
2.364300e+003, 9.902014e-003
2.366229e+003, 9.937328e-003
2.368157e+003, 1.000163e-002
2.370085e+003, 9.804306e-003
2.372014e+003, 9.729755e-003
2.373942e+003, 9.678111e-003
2.375871e+003, 9.607822e-003
2.377799e+003, 9.494008e-003
2.379728e+003, 9.421793e-003
2.381656e+003, 9.299151e-003
2.383585e+003, 9.285485e-003
2.385513e+003, 9.651612e-003
2.387442e+003, 9.808100e-003
2.389370e+003, 9.640300e-003
2.391299e+003, 9.707636e-003
2.393227e+003, 9.891754e-003
2.395156e+003, 9.815252e-003
2.397084e+003, 9.484535e-003
2.399012e+003, 9.750807e-003
2.400941e+003, 1.012437e-002
2.402869e+003, 1.030682e-002
2.404798e+003, 1.031351e-002
2.406726e+003, 1.032881e-002
2.408655e+003, 1.044718e-002
2.410583e+003, 1.038326e-002
2.412512e+003, 1.049209e-002
2.414440e+003, 1.074064e-002
2.416369e+003, 1.057467e-002
2.418297e+003, 1.039977e-002
2.420226e+003, 1.035379e-002
2.422154e+003, 1.047844e-002
2.424083e+003, 1.077865e-002
2.426011e+003, 1.088429e-002
2.427939e+003, 1.087973e-002
2.429868e+003, 1.129009e-002
2.431796e+003, 1.126378e-002
2.433725e+003, 1.100079e-002
2.435653e+003, 1.111375e-002
2.437582e+003, 1.109451e-002
2.439510e+003, 1.109792e-002
2.441439e+003, 1.116819e-002
2.443367e+003, 1.125730e-002
2.445296e+003, 1.128184e-002
2.447224e+003, 1.163690e-002
2.449153e+003, 1.167801e-002
2.451081e+003, 1.171178e-002
2.453010e+003, 1.140979e-002
2.454938e+003, 1.103721e-002
2.456866e+003, 1.119240e-002
2.458795e+003, 1.125159e-002
2.460723e+003, 1.130420e-002
2.462652e+003, 1.133157e-002
2.464580e+003, 1.166716e-002
2.466509e+003, 1.160733e-002
2.468437e+003, 1.157716e-002
2.470366e+003, 1.178532e-002
2.472294e+003, 1.195771e-002
2.474223e+003, 1.164191e-002
2.476151e+003, 1.159620e-002
2.478080e+003, 1.170858e-002
2.480008e+003, 1.176308e-002
2.481937e+003, 1.154955e-002
2.483865e+003, 1.140485e-002
2.485793e+003, 1.128646e-002
2.487722e+003, 1.129266e-002
2.489650e+003, 1.114143e-002
2.491579e+003, 1.107093e-002
2.493507e+003, 1.099657e-002
2.495436e+003, 1.124784e-002
2.497364e+003, 1.136183e-002
2.499293e+003, 1.117057e-002
2.501221e+003, 1.123833e-002
2.503150e+003, 1.119340e-002
2.505078e+003, 1.090464e-002
2.507007e+003, 1.090165e-002
2.508935e+003, 1.116845e-002
2.510864e+003, 1.108378e-002
2.512792e+003, 1.094707e-002
2.514720e+003, 1.105441e-002
2.516649e+003, 1.131016e-002
2.518577e+003, 1.140705e-002
2.520506e+003, 1.112413e-002
2.522434e+003, 1.071753e-002
2.524363e+003, 1.065084e-002
2.526291e+003, 1.094717e-002
2.528220e+003, 1.128430e-002
2.530148e+003, 1.140626e-002
2.532077e+003, 1.117868e-002
2.534005e+003, 1.097402e-002
2.535934e+003, 1.097620e-002
2.537862e+003, 1.104904e-002
2.539791e+003, 1.116508e-002
2.541719e+003, 1.118585e-002
2.543647e+003, 1.127924e-002
2.545576e+003, 1.130342e-002
2.547504e+003, 1.094753e-002
2.549433e+003, 1.116061e-002
2.551361e+003, 1.128813e-002
2.553290e+003, 1.126771e-002
2.555218e+003, 1.112514e-002
2.557147e+003, 1.103755e-002
2.559075e+003, 1.083809e-002
2.561004e+003, 1.085451e-002
2.562932e+003, 1.080878e-002
2.564861e+003, 1.089358e-002
2.566789e+003, 1.103957e-002
2.568718e+003, 1.105107e-002
2.570646e+003, 1.100022e-002
2.572574e+003, 1.074349e-002
2.574503e+003, 1.093228e-002
2.576431e+003, 1.103274e-002
2.578360e+003, 1.079277e-002
2.580288e+003, 1.076513e-002
2.582217e+003, 1.067845e-002
2.584145e+003, 1.090007e-002
2.586074e+003, 1.121569e-002
2.588002e+003, 1.109444e-002
2.589931e+003, 1.058055e-002
2.591859e+003, 1.041216e-002
2.593788e+003, 1.081639e-002
2.595716e+003, 1.085408e-002
2.597645e+003, 1.060585e-002
2.599573e+003, 1.037129e-002
2.601501e+003, 1.042103e-002
2.603430e+003, 1.078649e-002
2.605358e+003, 1.083347e-002
2.607287e+003, 1.093275e-002
2.609215e+003, 1.075837e-002
2.611144e+003, 1.057606e-002
2.613072e+003, 1.080992e-002
2.615001e+003, 1.089377e-002
2.616929e+003, 1.074042e-002
2.618858e+003, 1.081110e-002
2.620786e+003, 1.068874e-002
2.622715e+003, 1.072436e-002
2.624643e+003, 1.113607e-002
2.626572e+003, 1.086161e-002
2.628500e+003, 1.040399e-002
2.630428e+003, 1.039178e-002
2.632357e+003, 1.049758e-002
2.634285e+003, 1.040585e-002
2.636214e+003, 1.032845e-002
2.638142e+003, 1.061868e-002
2.640071e+003, 1.075309e-002
2.641999e+003, 1.069737e-002
2.643928e+003, 1.038225e-002
2.645856e+003, 1.049813e-002
2.647785e+003, 1.070442e-002
2.649713e+003, 1.075355e-002
2.651642e+003, 1.064116e-002
2.653570e+003, 1.072499e-002
2.655499e+003, 1.101383e-002
2.657427e+003, 1.094774e-002
2.659355e+003, 1.072705e-002
2.661284e+003, 1.052956e-002
2.663212e+003, 1.047393e-002
2.665141e+003, 1.044073e-002
2.667069e+003, 1.054428e-002
2.668998e+003, 1.041629e-002
2.670926e+003, 1.032966e-002
2.672855e+003, 1.046163e-002
2.674783e+003, 1.043487e-002
2.676712e+003, 1.041532e-002
2.678640e+003, 1.052495e-002
2.680569e+003, 1.080335e-002
2.682497e+003, 1.069409e-002
2.684426e+003, 1.041767e-002
2.686354e+003, 1.052964e-002
2.688282e+003, 1.059791e-002
2.690211e+003, 1.059728e-002
2.692139e+003, 1.085282e-002
2.694068e+003, 1.098092e-002
2.695996e+003, 1.069689e-002
2.697925e+003, 1.032765e-002
2.699853e+003, 1.005625e-002
2.701782e+003, 9.970020e-003
2.703710e+003, 1.014795e-002
2.705639e+003, 1.016616e-002
2.707567e+003, 1.039996e-002
2.709496e+003, 1.059979e-002
2.711424e+003, 1.058898e-002
2.713353e+003, 1.049514e-002
2.715281e+003, 1.061339e-002
2.717209e+003, 1.053721e-002
2.719138e+003, 1.057863e-002
2.721066e+003, 1.085202e-002
2.722995e+003, 1.084144e-002
2.724923e+003, 1.088096e-002
2.726852e+003, 1.095864e-002
2.728780e+003, 1.102566e-002
2.730709e+003, 1.110975e-002
2.732637e+003, 1.106371e-002
2.734566e+003, 1.124515e-002
2.736494e+003, 1.130712e-002
2.738423e+003, 1.134719e-002
2.740351e+003, 1.145515e-002
2.742280e+003, 1.146729e-002
2.744208e+003, 1.143593e-002
2.746136e+003, 1.144786e-002
2.748065e+003, 1.142717e-002
2.749993e+003, 1.162732e-002
2.751922e+003, 1.181903e-002
2.753850e+003, 1.177482e-002
2.755779e+003, 1.186103e-002
2.757707e+003, 1.194182e-002
2.759636e+003, 1.182803e-002
2.761564e+003, 1.168906e-002
2.763493e+003, 1.175995e-002
2.765421e+003, 1.190812e-002
2.767350e+003, 1.198203e-002
2.769278e+003, 1.213862e-002
2.771207e+003, 1.227744e-002
2.773135e+003, 1.250761e-002
2.775063e+003, 1.249991e-002
2.776992e+003, 1.229352e-002
2.778920e+003, 1.214706e-002
2.780849e+003, 1.232734e-002
2.782777e+003, 1.249551e-002
2.784706e+003, 1.274047e-002
2.786634e+003, 1.280429e-002
2.788563e+003, 1.278369e-002
2.790491e+003, 1.279716e-002
2.792420e+003, 1.264121e-002
2.794348e+003, 1.268170e-002
2.796277e+003, 1.275735e-002
2.798205e+003, 1.294215e-002
2.800134e+003, 1.326632e-002
2.802062e+003, 1.346427e-002
2.803990e+003, 1.372112e-002
2.805919e+003, 1.378655e-002
2.807847e+003, 1.362944e-002
2.809776e+003, 1.354688e-002
2.811704e+003, 1.382387e-002
2.813633e+003, 1.398898e-002
2.815561e+003, 1.421661e-002
2.817490e+003, 1.424227e-002
2.819418e+003, 1.410369e-002
2.821347e+003, 1.412160e-002
2.823275e+003, 1.425054e-002
2.825204e+003, 1.431611e-002
2.827132e+003, 1.458514e-002
2.829061e+003, 1.477168e-002
2.830989e+003, 1.470081e-002
2.832917e+003, 1.482715e-002
2.834846e+003, 1.534523e-002
2.836774e+003, 1.587984e-002
2.838703e+003, 1.587478e-002
2.840631e+003, 1.584584e-002
2.842560e+003, 1.613383e-002
2.844488e+003, 1.654726e-002
2.846417e+003, 1.688317e-002
2.848345e+003, 1.730295e-002
2.850274e+003, 1.755291e-002
2.852202e+003, 1.787985e-002
2.854131e+003, 1.824461e-002
2.856059e+003, 1.794204e-002
2.857988e+003, 1.780760e-002
2.859916e+003, 1.805164e-002
2.861844e+003, 1.782143e-002
2.863773e+003, 1.728438e-002
2.865701e+003, 1.700716e-002
2.867630e+003, 1.691416e-002
2.869558e+003, 1.698178e-002
2.871487e+003, 1.713685e-002
2.873415e+003, 1.734919e-002
2.875344e+003, 1.710645e-002
2.877272e+003, 1.701148e-002
2.879201e+003, 1.700329e-002
2.881129e+003, 1.699383e-002
2.883058e+003, 1.673310e-002
2.884986e+003, 1.676351e-002
2.886915e+003, 1.717762e-002
2.888843e+003, 1.776538e-002
2.890771e+003, 1.797005e-002
2.892700e+003, 1.777772e-002
2.894628e+003, 1.784937e-002
2.896557e+003, 1.859608e-002
2.898485e+003, 1.902973e-002
2.900414e+003, 1.901191e-002
2.902342e+003, 1.897959e-002
2.904271e+003, 1.932981e-002
2.906199e+003, 1.981876e-002
2.908128e+003, 2.013661e-002
2.910056e+003, 2.006753e-002
2.911985e+003, 2.015949e-002
2.913913e+003, 2.085751e-002
2.915842e+003, 2.138455e-002
2.917770e+003, 2.188849e-002
2.919698e+003, 2.240644e-002
2.921627e+003, 2.269307e-002
2.923555e+003, 2.282871e-002
2.925484e+003, 2.291408e-002
2.927412e+003, 2.283533e-002
2.929341e+003, 2.263946e-002
2.931269e+003, 2.199298e-002
2.933198e+003, 2.112707e-002
2.935126e+003, 2.078610e-002
2.937055e+003, 2.050330e-002
2.938983e+003, 1.981641e-002
2.940912e+003, 1.908972e-002
2.942840e+003, 1.891860e-002
2.944769e+003, 1.899245e-002
2.946697e+003, 1.950238e-002
2.948625e+003, 1.970408e-002
2.950554e+003, 1.960544e-002
2.952482e+003, 1.953040e-002
2.954411e+003, 1.960414e-002
2.956339e+003, 1.972012e-002
2.958268e+003, 2.003586e-002
2.960196e+003, 1.999398e-002
2.962125e+003, 1.985515e-002
2.964053e+003, 1.980390e-002
2.965982e+003, 1.929154e-002
2.967910e+003, 1.890122e-002
2.969839e+003, 1.854824e-002
2.971767e+003, 1.786918e-002
2.973696e+003, 1.753841e-002
2.975624e+003, 1.740504e-002
2.977552e+003, 1.743106e-002
2.979481e+003, 1.719008e-002
2.981409e+003, 1.688247e-002
2.983338e+003, 1.690115e-002
2.985266e+003, 1.696865e-002
2.987195e+003, 1.703311e-002
2.989123e+003, 1.701115e-002
2.991052e+003, 1.690983e-002
2.992980e+003, 1.728784e-002
2.994909e+003, 1.741459e-002
2.996837e+003, 1.745262e-002
2.998766e+003, 1.721289e-002
3.000694e+003, 1.691657e-002
3.002623e+003, 1.694443e-002
3.004551e+003, 1.749928e-002
3.006479e+003, 1.760365e-002
3.008408e+003, 1.762257e-002
3.010336e+003, 1.771703e-002
3.012265e+003, 1.771963e-002
3.014193e+003, 1.786962e-002
3.016122e+003, 1.863719e-002
3.018050e+003, 1.820557e-002
3.019979e+003, 1.732715e-002
3.021907e+003, 1.729869e-002
3.023836e+003, 1.740025e-002
3.025764e+003, 1.739028e-002
3.027693e+003, 1.709211e-002
3.029621e+003, 1.680177e-002
3.031550e+003, 1.693247e-002
3.033478e+003, 1.731211e-002
3.035406e+003, 1.723024e-002
3.037335e+003, 1.733596e-002
3.039263e+003, 1.734744e-002
3.041192e+003, 1.751849e-002
3.043120e+003, 1.779964e-002
3.045049e+003, 1.776741e-002
3.046977e+003, 1.753072e-002
3.048906e+003, 1.743317e-002
3.050834e+003, 1.782664e-002
3.052763e+003, 1.797330e-002
3.054691e+003, 1.815379e-002
3.056620e+003, 1.824376e-002
3.058548e+003, 1.830227e-002
3.060477e+003, 1.815555e-002
3.062405e+003, 1.791712e-002
3.064333e+003, 1.779047e-002
3.066262e+003, 1.803197e-002
3.068190e+003, 1.780103e-002
3.070119e+003, 1.771775e-002
3.072047e+003, 1.822568e-002
3.073976e+003, 1.818556e-002
3.075904e+003, 1.797110e-002
3.077833e+003, 1.779277e-002
3.079761e+003, 1.815934e-002
3.081690e+003, 1.819840e-002
3.083618e+003, 1.821980e-002
3.085547e+003, 1.878166e-002
3.087475e+003, 1.875621e-002
3.089404e+003, 1.820507e-002
3.091332e+003, 1.790164e-002
3.093260e+003, 1.808654e-002
3.095189e+003, 1.880904e-002
3.097117e+003, 1.893820e-002
3.099046e+003, 1.865027e-002
3.100974e+003, 1.886584e-002
3.102903e+003, 1.932226e-002
3.104831e+003, 1.875099e-002
3.106760e+003, 1.781152e-002
3.108688e+003, 1.809944e-002
3.110617e+003, 1.882728e-002
3.112545e+003, 1.941723e-002
3.114474e+003, 1.940975e-002
3.116402e+003, 1.885776e-002
3.118331e+003, 1.890219e-002
3.120259e+003, 1.916684e-002
3.122188e+003, 1.943813e-002
3.124116e+003, 1.943392e-002
3.126044e+003, 1.898269e-002
3.127973e+003, 1.903661e-002
3.129901e+003, 1.944294e-002
3.131830e+003, 1.943414e-002
3.133758e+003, 1.922153e-002
3.135687e+003, 1.956043e-002
3.137615e+003, 1.980720e-002
3.139544e+003, 1.978207e-002
3.141472e+003, 1.959227e-002
3.143401e+003, 1.926239e-002
3.145329e+003, 1.925250e-002
3.147258e+003, 1.952402e-002
3.149186e+003, 1.961353e-002
3.151115e+003, 1.950487e-002
3.153043e+003, 1.933842e-002
3.154971e+003, 1.969726e-002
3.156900e+003, 2.022527e-002
3.158828e+003, 2.034975e-002
3.160757e+003, 2.025031e-002
3.162685e+003, 2.000518e-002
3.164614e+003, 1.987840e-002
3.166542e+003, 2.031568e-002
3.168471e+003, 2.073433e-002
3.170399e+003, 2.066799e-002
3.172328e+003, 2.056817e-002
3.174256e+003, 2.061543e-002
3.176185e+003, 2.050069e-002
3.178113e+003, 2.037566e-002
3.180042e+003, 2.045395e-002
3.181970e+003, 2.088166e-002
3.183898e+003, 2.111190e-002
3.185827e+003, 2.120300e-002
3.187755e+003, 2.089889e-002
3.189684e+003, 2.068256e-002
3.191612e+003, 2.043314e-002
3.193541e+003, 2.041687e-002
3.195469e+003, 2.039672e-002
3.197398e+003, 2.060369e-002
3.199326e+003, 2.091177e-002
3.201255e+003, 2.098451e-002
3.203183e+003, 2.122211e-002
3.205112e+003, 2.111947e-002
3.207040e+003, 2.107797e-002
3.208969e+003, 2.090733e-002
3.210897e+003, 2.042315e-002
3.212825e+003, 2.058089e-002
3.214754e+003, 2.084574e-002
3.216682e+003, 2.095049e-002
3.218611e+003, 2.112615e-002
3.220539e+003, 2.107648e-002
3.222468e+003, 2.126294e-002
3.224396e+003, 2.165314e-002
3.226325e+003, 2.161481e-002
3.228253e+003, 2.120095e-002
3.230182e+003, 2.112177e-002
3.232110e+003, 2.088345e-002
3.234039e+003, 2.070326e-002
3.235967e+003, 2.130653e-002
3.237896e+003, 2.154913e-002
3.239824e+003, 2.105624e-002
3.241752e+003, 2.101355e-002
3.243681e+003, 2.138792e-002
3.245609e+003, 2.126718e-002
3.247538e+003, 2.129823e-002
3.249466e+003, 2.117367e-002
3.251395e+003, 2.152808e-002
3.253323e+003, 2.171758e-002
3.255252e+003, 2.173829e-002
3.257180e+003, 2.144682e-002
3.259109e+003, 2.127334e-002
3.261037e+003, 2.155419e-002
3.262966e+003, 2.179579e-002
3.264894e+003, 2.219085e-002
3.266823e+003, 2.226615e-002
3.268751e+003, 2.224185e-002
3.270679e+003, 2.186542e-002
3.272608e+003, 2.152748e-002
3.274536e+003, 2.157923e-002
3.276465e+003, 2.165583e-002
3.278393e+003, 2.157258e-002
3.280322e+003, 2.135881e-002
3.282250e+003, 2.105751e-002
3.284179e+003, 2.085219e-002
3.286107e+003, 2.106227e-002
3.288036e+003, 2.181169e-002
3.289964e+003, 2.147107e-002
3.291893e+003, 2.120439e-002
3.293821e+003, 2.170679e-002
3.295750e+003, 2.197292e-002
3.297678e+003, 2.185038e-002
3.299606e+003, 2.190596e-002
3.301535e+003, 2.207868e-002
3.303463e+003, 2.200951e-002
3.305392e+003, 2.155174e-002
3.307320e+003, 2.141722e-002
3.309249e+003, 2.169835e-002
3.311177e+003, 2.146639e-002
3.313106e+003, 2.138569e-002
3.315034e+003, 2.161930e-002
3.316963e+003, 2.204647e-002
3.318891e+003, 2.206081e-002
3.320820e+003, 2.178906e-002
3.322748e+003, 2.149880e-002
3.324677e+003, 2.174528e-002
3.326605e+003, 2.191316e-002
3.328533e+003, 2.207755e-002
3.330462e+003, 2.228596e-002
3.332390e+003, 2.227201e-002
3.334319e+003, 2.218188e-002
3.336247e+003, 2.197018e-002
3.338176e+003, 2.185596e-002
3.340104e+003, 2.145234e-002
3.342033e+003, 2.127477e-002
3.343961e+003, 2.162851e-002
3.345890e+003, 2.156961e-002
3.347818e+003, 2.224831e-002
3.349747e+003, 2.243487e-002
3.351675e+003, 2.184180e-002
3.353604e+003, 2.174379e-002
3.355532e+003, 2.184406e-002
3.357460e+003, 2.193020e-002
3.359389e+003, 2.221939e-002
3.361317e+003, 2.197034e-002
3.363246e+003, 2.208438e-002
3.365174e+003, 2.252779e-002
3.367103e+003, 2.241376e-002
3.369031e+003, 2.177618e-002
3.370960e+003, 2.183487e-002
3.372888e+003, 2.220218e-002
3.374817e+003, 2.218487e-002
3.376745e+003, 2.226440e-002
3.378674e+003, 2.228322e-002
3.380602e+003, 2.224517e-002
3.382531e+003, 2.241998e-002
3.384459e+003, 2.230542e-002
3.386387e+003, 2.229565e-002
3.388316e+003, 2.245387e-002
3.390244e+003, 2.236817e-002
3.392173e+003, 2.238177e-002
3.394101e+003, 2.217935e-002
3.396030e+003, 2.190203e-002
3.397958e+003, 2.201328e-002
3.399887e+003, 2.207056e-002
3.401815e+003, 2.195033e-002
3.403744e+003, 2.230055e-002
3.405672e+003, 2.269754e-002
3.407601e+003, 2.270885e-002
3.409529e+003, 2.231563e-002
3.411458e+003, 2.224009e-002
3.413386e+003, 2.242403e-002
3.415314e+003, 2.192494e-002
3.417243e+003, 2.176250e-002
3.419171e+003, 2.206517e-002
3.421100e+003, 2.207838e-002
3.423028e+003, 2.230906e-002
3.424957e+003, 2.222356e-002
3.426885e+003, 2.194562e-002
3.428814e+003, 2.209388e-002
3.430742e+003, 2.194613e-002
3.432671e+003, 2.190753e-002
3.434599e+003, 2.214338e-002
3.436528e+003, 2.212157e-002
3.438456e+003, 2.170282e-002
3.440385e+003, 2.197082e-002
3.442313e+003, 2.243550e-002
3.444241e+003, 2.239091e-002
3.446170e+003, 2.174510e-002
3.448098e+003, 2.187408e-002
3.450027e+003, 2.261176e-002
3.451955e+003, 2.259102e-002
3.453884e+003, 2.200937e-002
3.455812e+003, 2.236374e-002
3.457741e+003, 2.273077e-002
3.459669e+003, 2.247006e-002
3.461598e+003, 2.255670e-002
3.463526e+003, 2.332313e-002
3.465455e+003, 2.332173e-002
3.467383e+003, 2.309281e-002
3.469312e+003, 2.317029e-002
3.471240e+003, 2.300421e-002
3.473168e+003, 2.305937e-002
3.475097e+003, 2.343741e-002
3.477025e+003, 2.386559e-002
3.478954e+003, 2.390279e-002
3.480882e+003, 2.398045e-002
3.482811e+003, 2.437782e-002
3.484739e+003, 2.414478e-002
3.486668e+003, 2.394049e-002
3.488596e+003, 2.446119e-002
3.490525e+003, 2.459810e-002
3.492453e+003, 2.446734e-002
3.494382e+003, 2.447952e-002
3.496310e+003, 2.432983e-002
3.498239e+003, 2.425559e-002
3.500167e+003, 2.405282e-002
3.502095e+003, 2.387282e-002
3.504024e+003, 2.408844e-002
3.505952e+003, 2.431162e-002
3.507881e+003, 2.400778e-002
3.509809e+003, 2.358767e-002
3.511738e+003, 2.302236e-002
3.513666e+003, 2.323934e-002
3.515595e+003, 2.320947e-002
3.517523e+003, 2.291264e-002
3.519452e+003, 2.294658e-002
3.521380e+003, 2.268236e-002
3.523309e+003, 2.238694e-002
3.525237e+003, 2.163558e-002
3.527166e+003, 2.076352e-002
3.529094e+003, 2.075432e-002
3.531022e+003, 2.077914e-002
3.532951e+003, 2.016111e-002
3.534879e+003, 2.028078e-002
3.536808e+003, 2.084193e-002
3.538736e+003, 2.049757e-002
3.540665e+003, 2.014031e-002
3.542593e+003, 1.953283e-002
3.544522e+003, 1.927939e-002
3.546450e+003, 1.947725e-002
3.548379e+003, 2.004860e-002
3.550307e+003, 2.027684e-002
3.552236e+003, 1.981588e-002
3.554164e+003, 1.950147e-002
3.556093e+003, 2.004046e-002
3.558021e+003, 1.996136e-002
3.559949e+003, 1.973259e-002
3.561878e+003, 1.954710e-002
3.563806e+003, 1.975879e-002
3.565735e+003, 2.015409e-002
3.567663e+003, 2.050330e-002
3.569592e+003, 2.068969e-002
3.571520e+003, 2.004533e-002
3.573449e+003, 1.945126e-002
3.575377e+003, 1.990923e-002
3.577306e+003, 2.038282e-002
3.579234e+003, 2.055755e-002
3.581163e+003, 2.068847e-002
3.583091e+003, 2.053884e-002
3.585020e+003, 2.048703e-002
3.586948e+003, 2.027982e-002
3.588876e+003, 2.027093e-002
3.590805e+003, 2.116156e-002
3.592733e+003, 2.183778e-002
3.594662e+003, 2.141543e-002
3.596590e+003, 2.094612e-002
3.598519e+003, 2.098040e-002
3.600447e+003, 2.186081e-002
3.602376e+003, 2.200478e-002
3.604304e+003, 2.218124e-002
3.606233e+003, 2.313963e-002
3.608161e+003, 2.451874e-002
3.610090e+003, 2.596910e-002
3.612018e+003, 2.749282e-002
3.613947e+003, 2.981450e-002
3.615875e+003, 3.392044e-002
3.617803e+003, 4.093068e-002
3.619732e+003, 4.649643e-002
3.621660e+003, 4.590240e-002
3.623589e+003, 4.086282e-002
3.625517e+003, 3.584836e-002
3.627446e+003, 3.366048e-002
3.629374e+003, 3.234069e-002
3.631303e+003, 3.038622e-002
3.633231e+003, 2.918549e-002
3.635160e+003, 2.844189e-002
3.637088e+003, 2.834578e-002
3.639017e+003, 2.920766e-002
3.640945e+003, 3.038321e-002
3.642874e+003, 3.155161e-002
3.644802e+003, 3.259866e-002
3.646730e+003, 3.504167e-002
3.648659e+003, 3.728363e-002
3.650587e+003, 3.783787e-002
3.652516e+003, 3.732137e-002
3.654444e+003, 3.644227e-002
3.656373e+003, 3.494972e-002
3.658301e+003, 3.314595e-002
3.660230e+003, 3.192789e-002
3.662158e+003, 3.228429e-002
3.664087e+003, 3.321276e-002
3.666015e+003, 3.549102e-002
3.667944e+003, 3.912345e-002
3.669872e+003, 4.449175e-002
3.671801e+003, 5.384302e-002
3.673729e+003, 6.541689e-002
3.675657e+003, 6.377681e-002
3.677586e+003, 4.860418e-002
3.679514e+003, 3.697499e-002
3.681443e+003, 3.290050e-002
3.683371e+003, 3.255497e-002
3.685300e+003, 3.383596e-002
3.687228e+003, 3.767212e-002
3.689157e+003, 4.131279e-002
3.691085e+003, 4.345194e-002
3.693014e+003, 4.465019e-002
3.694942e+003, 4.503907e-002
3.696871e+003, 4.400015e-002
3.698799e+003, 4.092317e-002
3.700728e+003, 3.735942e-002
3.702656e+003, 3.258669e-002
3.704584e+003, 2.679099e-002
3.706513e+003, 2.220046e-002
3.708441e+003, 2.020375e-002
3.710370e+003, 1.903524e-002
3.712298e+003, 1.661603e-002
3.714227e+003, 1.395216e-002
3.716155e+003, 1.231705e-002
3.718084e+003, 1.106093e-002
3.720012e+003, 9.902705e-003
3.721941e+003, 1.023800e-002
3.723869e+003, 9.891801e-003
3.725798e+003, 8.753966e-003
3.727726e+003, 7.981762e-003
3.729655e+003, 8.276473e-003
3.731583e+003, 8.822270e-003
3.733511e+003, 9.046703e-003
3.735440e+003, 8.861925e-003
3.737368e+003, 8.387466e-003
3.739297e+003, 7.855001e-003
3.741225e+003, 7.477704e-003
3.743154e+003, 8.680993e-003
3.745082e+003, 8.507842e-003
3.747011e+003, 7.535438e-003
3.748939e+003, 8.332703e-003
3.750868e+003, 8.898981e-003
3.752796e+003, 8.316185e-003
3.754725e+003, 7.744999e-003
3.756653e+003, 8.057170e-003
3.758582e+003, 7.849203e-003
3.760510e+003, 7.721783e-003
3.762438e+003, 7.149067e-003
3.764367e+003, 7.025475e-003
3.766295e+003, 7.369134e-003
3.768224e+003, 7.221426e-003
3.770152e+003, 7.157502e-003
3.772081e+003, 7.192566e-003
3.774009e+003, 6.928250e-003
3.775938e+003, 6.649770e-003
3.777866e+003, 7.117024e-003
3.779795e+003, 7.594182e-003
3.781723e+003, 7.656237e-003
3.783652e+003, 7.588235e-003
3.785580e+003, 7.406657e-003
3.787509e+003, 7.105025e-003
3.789437e+003, 6.617824e-003
3.791365e+003, 6.160533e-003
3.793294e+003, 6.764548e-003
3.795222e+003, 7.118945e-003
3.797151e+003, 7.104254e-003
3.799079e+003, 7.047838e-003
3.801008e+003, 7.139463e-003
3.802936e+003, 6.913181e-003
3.804865e+003, 6.940133e-003
3.806793e+003, 7.118852e-003
3.808722e+003, 6.895885e-003
3.810650e+003, 6.574465e-003
3.812579e+003, 6.878555e-003
3.814507e+003, 8.060245e-003
3.816436e+003, 8.013266e-003
3.818364e+003, 6.900765e-003
3.820292e+003, 7.095069e-003
3.822221e+003, 7.112161e-003
3.824149e+003, 7.196703e-003
3.826078e+003, 7.300186e-003
3.828006e+003, 6.855260e-003
3.829935e+003, 6.984135e-003
3.831863e+003, 7.137627e-003
3.833792e+003, 7.281578e-003
3.835720e+003, 7.503566e-003
3.837649e+003, 7.054618e-003
3.839577e+003, 6.603049e-003
3.841506e+003, 7.322160e-003
3.843434e+003, 7.809432e-003
3.845363e+003, 7.541120e-003
3.847291e+003, 7.230723e-003
3.849219e+003, 7.434346e-003
3.851148e+003, 8.295543e-003
3.853076e+003, 9.155985e-003
3.855005e+003, 8.463350e-003
3.856933e+003, 7.133496e-003
3.858862e+003, 7.341651e-003
3.860790e+003, 7.791644e-003
3.862719e+003, 7.339421e-003
3.864647e+003, 7.464141e-003
3.866576e+003, 7.428654e-003
3.868504e+003, 7.235414e-003
3.870433e+003, 7.074465e-003
3.872361e+003, 6.693450e-003
3.874290e+003, 7.630580e-003
3.876218e+003, 7.655705e-003
3.878146e+003, 7.146511e-003
3.880075e+003, 7.304655e-003
3.882003e+003, 7.541641e-003
3.883932e+003, 7.910260e-003
3.885860e+003, 7.764437e-003
3.887789e+003, 7.333950e-003
3.889717e+003, 7.282875e-003
3.891646e+003, 7.014065e-003
3.893574e+003, 6.362204e-003
3.895503e+003, 6.401665e-003
3.897431e+003, 7.019553e-003
3.899360e+003, 7.392725e-003
3.901288e+003, 7.270624e-003
3.903217e+003, 6.711429e-003
3.905145e+003, 6.465896e-003
3.907073e+003, 6.484338e-003
3.909002e+003, 6.661676e-003
3.910930e+003, 7.031915e-003
3.912859e+003, 7.333443e-003
3.914787e+003, 7.392081e-003
3.916716e+003, 7.443866e-003
3.918644e+003, 7.653770e-003
3.920573e+003, 7.207451e-003
3.922501e+003, 6.436702e-003
3.924430e+003, 6.749548e-003
3.926358e+003, 6.777198e-003
3.928287e+003, 7.339189e-003
3.930215e+003, 7.300859e-003
3.932144e+003, 6.852072e-003
3.934072e+003, 6.617172e-003
3.936000e+003, 6.679634e-003
3.937929e+003, 7.066150e-003
3.939857e+003, 6.409242e-003
3.941786e+003, 6.206487e-003
3.943714e+003, 6.706562e-003
3.945643e+003, 6.697546e-003
3.947571e+003, 6.414110e-003
3.949500e+003, 6.255071e-003
3.951428e+003, 6.404581e-003
3.953357e+003, 6.555805e-003
3.955285e+003, 6.646939e-003
3.957214e+003, 6.406202e-003
3.959142e+003, 6.586489e-003
3.961071e+003, 6.885691e-003
3.962999e+003, 7.012889e-003
3.964927e+003, 6.727626e-003
3.966856e+003, 7.308735e-003
3.968784e+003, 7.190720e-003
3.970713e+003, 6.183859e-003
3.972641e+003, 5.989172e-003
3.974570e+003, 6.512501e-003
3.976498e+003, 7.193526e-003
3.978427e+003, 7.398027e-003
3.980355e+003, 7.192134e-003
3.982284e+003, 6.887773e-003
3.984212e+003, 6.913699e-003
3.986141e+003, 7.500942e-003
3.988069e+003, 7.797694e-003
3.989998e+003, 7.679206e-003
3.991926e+003, 7.256691e-003
3.993854e+003, 6.838109e-003
3.995783e+003, 6.688620e-003
3.997711e+003, 6.771021e-003
3.999640e+003, 6.953835e-003
##END=



