##NAMES=Edenite
##RRUFFID=R060029
##IDEAL CHEMISTRY=NaCa_2_Mg_5_(Si_7_Al)O_22_(OH)_2_
##LOCALITY=Renfrew County, Ontario, Canada
##OWNER=RRUFF
##SOURCE=University of Arizona Mineral Museum
##DESCRIPTION=Black prismatic
##STATUS=The identification of this mineral has been confirmed by X-ray diffraction and chemical analysis
##URL=rruff.info/R060029
##MEASURED CHEMISTRY=(Na_0.62_K_0.34_[box]_0.04_)(Ca_0.86_Na_0.14_)_2_(Mg_0.57_Fe^2+^_0.30_Fe^3+^_0.07_Al_0.05_Ti_0.01_Mn_0.01_)_5_(Si_6.61_Al_1.39_)O_22_((OH)_0.69_F_0.31_)_2_
3.741225e+002, 1.658317e-001
3.760510e+002, 1.797682e-001
3.779795e+002, 1.927204e-001
3.799079e+002, 1.848697e-001
3.818364e+002, 1.866605e-001
3.837649e+002, 2.030563e-001
3.856933e+002, 2.045102e-001
3.876218e+002, 2.027721e-001
3.895503e+002, 2.109991e-001
3.914787e+002, 2.148760e-001
3.934072e+002, 2.125956e-001
3.953357e+002, 2.077295e-001
3.972641e+002, 2.051765e-001
3.991926e+002, 2.030411e-001
4.011211e+002, 2.036637e-001
4.030495e+002, 2.056337e-001
4.049780e+002, 2.010139e-001
4.069065e+002, 2.033437e-001
4.088349e+002, 2.067378e-001
4.107634e+002, 2.042475e-001
4.126919e+002, 2.009210e-001
4.146203e+002, 2.010352e-001
4.165488e+002, 2.041418e-001
4.184773e+002, 2.081354e-001
4.204057e+002, 2.094487e-001
4.223342e+002, 2.096755e-001
4.242627e+002, 2.133338e-001
4.261911e+002, 2.162472e-001
4.281196e+002, 2.165251e-001
4.300481e+002, 2.180634e-001
4.319765e+002, 2.157197e-001
4.339050e+002, 2.125499e-001
4.358335e+002, 2.110559e-001
4.377619e+002, 2.120548e-001
4.396904e+002, 2.143898e-001
4.416189e+002, 2.158375e-001
4.435473e+002, 2.173942e-001
4.454758e+002, 2.185491e-001
4.474043e+002, 2.193432e-001
4.493327e+002, 2.214391e-001
4.512612e+002, 2.244599e-001
4.531897e+002, 2.239295e-001
4.551181e+002, 2.227120e-001
4.570466e+002, 2.233886e-001
4.589751e+002, 2.221227e-001
4.609035e+002, 2.178116e-001
4.628320e+002, 2.132923e-001
4.647605e+002, 2.099503e-001
4.666889e+002, 2.064100e-001
4.686174e+002, 2.019893e-001
4.705459e+002, 1.968685e-001
4.724743e+002, 1.905704e-001
4.744028e+002, 1.842535e-001
4.763313e+002, 1.784474e-001
4.782597e+002, 1.725943e-001
4.801882e+002, 1.670475e-001
4.821167e+002, 1.624018e-001
4.840451e+002, 1.592771e-001
4.859736e+002, 1.576377e-001
4.879021e+002, 1.576932e-001
4.898305e+002, 1.579849e-001
4.917590e+002, 1.586107e-001
4.936875e+002, 1.601033e-001
4.956159e+002, 1.621689e-001
4.975444e+002, 1.633990e-001
4.994729e+002, 1.643786e-001
5.014013e+002, 1.648940e-001
5.033298e+002, 1.644096e-001
5.052583e+002, 1.636016e-001
5.071867e+002, 1.628467e-001
5.091152e+002, 1.609262e-001
5.110437e+002, 1.589467e-001
5.129721e+002, 1.565213e-001
5.149006e+002, 1.527748e-001
5.168290e+002, 1.489699e-001
5.187575e+002, 1.455795e-001
5.206860e+002, 1.424876e-001
5.226144e+002, 1.390345e-001
5.245429e+002, 1.356177e-001
5.264714e+002, 1.321102e-001
5.283998e+002, 1.279182e-001
5.303283e+002, 1.237029e-001
5.322568e+002, 1.199216e-001
5.341852e+002, 1.162107e-001
5.361137e+002, 1.119538e-001
5.380422e+002, 1.074584e-001
5.399706e+002, 1.026766e-001
5.418991e+002, 9.732862e-002
5.438276e+002, 9.187166e-002
5.457560e+002, 8.694989e-002
5.476845e+002, 8.235197e-002
5.496130e+002, 7.750180e-002
5.515414e+002, 7.290684e-002
5.534699e+002, 6.841780e-002
5.553984e+002, 6.400966e-002
5.573268e+002, 6.027593e-002
5.592553e+002, 5.681694e-002
5.611838e+002, 5.349867e-002
5.631122e+002, 5.039119e-002
5.650407e+002, 4.743550e-002
5.669692e+002, 4.448396e-002
5.688976e+002, 4.182393e-002
5.708261e+002, 3.949974e-002
5.727546e+002, 3.737993e-002
5.746830e+002, 3.516468e-002
5.766115e+002, 3.347287e-002
5.785400e+002, 3.222847e-002
5.804684e+002, 3.120211e-002
5.823969e+002, 3.028177e-002
5.843254e+002, 2.965394e-002
5.862538e+002, 2.946751e-002
5.881823e+002, 2.960926e-002
5.901108e+002, 2.992050e-002
5.920392e+002, 3.036069e-002
5.939677e+002, 3.100196e-002
5.958962e+002, 3.220704e-002
5.978246e+002, 3.363572e-002
5.997531e+002, 3.511569e-002
6.016816e+002, 3.667108e-002
6.036100e+002, 3.820532e-002
6.055385e+002, 3.962347e-002
6.074670e+002, 4.099702e-002
6.093954e+002, 4.256270e-002
6.113239e+002, 4.408276e-002
6.132524e+002, 4.516917e-002
6.151808e+002, 4.607525e-002
6.171093e+002, 4.710586e-002
6.190378e+002, 4.790954e-002
6.209662e+002, 4.846225e-002
6.228947e+002, 4.896574e-002
6.248232e+002, 4.952510e-002
6.267516e+002, 5.015813e-002
6.286801e+002, 5.058746e-002
6.306086e+002, 5.109023e-002
6.325370e+002, 5.190457e-002
6.344655e+002, 5.271238e-002
6.363940e+002, 5.363892e-002
6.383224e+002, 5.429046e-002
6.402509e+002, 5.483475e-002
6.421794e+002, 5.521113e-002
6.441078e+002, 5.563016e-002
6.460363e+002, 5.623096e-002
6.479648e+002, 5.712844e-002
6.498932e+002, 5.816507e-002
6.518217e+002, 5.928932e-002
6.537502e+002, 6.058921e-002
6.556786e+002, 6.199746e-002
6.576071e+002, 6.333168e-002
6.595356e+002, 6.417581e-002
6.614641e+002, 6.463325e-002
6.633925e+002, 6.479422e-002
6.653210e+002, 6.452681e-002
6.672495e+002, 6.414862e-002
6.691779e+002, 6.390977e-002
6.711064e+002, 6.363657e-002
6.730349e+002, 6.345023e-002
6.749633e+002, 6.338906e-002
6.768918e+002, 6.339303e-002
6.788203e+002, 6.319747e-002
6.807487e+002, 6.254105e-002
6.826772e+002, 6.160100e-002
6.846057e+002, 6.043979e-002
6.865341e+002, 5.922003e-002
6.884626e+002, 5.813072e-002
6.903911e+002, 5.732141e-002
6.923195e+002, 5.677517e-002
6.942480e+002, 5.650924e-002
6.961765e+002, 5.623644e-002
6.981049e+002, 5.566768e-002
7.000334e+002, 5.472889e-002
7.019619e+002, 5.336512e-002
7.038903e+002, 5.200044e-002
7.058188e+002, 5.082040e-002
7.077473e+002, 4.975747e-002
7.096757e+002, 4.904889e-002
7.116042e+002, 4.881995e-002
7.135327e+002, 4.913067e-002
7.154611e+002, 4.983576e-002
7.173896e+002, 5.092135e-002
7.193181e+002, 5.231969e-002
7.212465e+002, 5.386304e-002
7.231750e+002, 5.543929e-002
7.251035e+002, 5.713758e-002
7.270319e+002, 5.866440e-002
7.289604e+002, 6.004161e-002
7.308889e+002, 6.111516e-002
7.328173e+002, 6.145762e-002
7.347458e+002, 6.119356e-002
7.366743e+002, 6.067563e-002
7.386027e+002, 5.973260e-002
7.405312e+002, 5.875403e-002
7.424597e+002, 5.792679e-002
7.443881e+002, 5.720302e-002
7.463166e+002, 5.670451e-002
7.482451e+002, 5.629135e-002
7.501735e+002, 5.608057e-002
7.521020e+002, 5.608777e-002
7.540305e+002, 5.633925e-002
7.559589e+002, 5.675421e-002
7.578874e+002, 5.752765e-002
7.598159e+002, 5.846202e-002
7.617443e+002, 5.956052e-002
7.636728e+002, 6.114396e-002
7.656013e+002, 6.296697e-002
7.675297e+002, 6.502096e-002
7.694582e+002, 6.710035e-002
7.713867e+002, 6.893399e-002
7.733151e+002, 7.083891e-002
7.752436e+002, 7.289746e-002
7.771721e+002, 7.492065e-002
7.791005e+002, 7.674561e-002
7.810290e+002, 7.832012e-002
7.829575e+002, 7.967646e-002
7.848859e+002, 8.073673e-002
7.868144e+002, 8.153223e-002
7.887429e+002, 8.218668e-002
7.906713e+002, 8.247855e-002
7.925998e+002, 8.246053e-002
7.945283e+002, 8.219362e-002
7.964567e+002, 8.174457e-002
7.983852e+002, 8.108653e-002
8.003137e+002, 8.022407e-002
8.022421e+002, 7.932645e-002
8.041706e+002, 7.848427e-002
8.060991e+002, 7.780087e-002
8.080275e+002, 7.764788e-002
8.099560e+002, 7.803546e-002
8.118845e+002, 7.897461e-002
8.138129e+002, 8.033144e-002
8.157414e+002, 8.207719e-002
8.176699e+002, 8.434062e-002
8.195983e+002, 8.711752e-002
8.215268e+002, 9.047360e-002
8.234553e+002, 9.417931e-002
8.253837e+002, 9.810320e-002
8.273122e+002, 1.024447e-001
8.292407e+002, 1.071374e-001
8.311691e+002, 1.123046e-001
8.330976e+002, 1.177210e-001
8.350261e+002, 1.234201e-001
8.369545e+002, 1.295689e-001
8.388830e+002, 1.362322e-001
8.408115e+002, 1.430619e-001
8.427399e+002, 1.496977e-001
8.446684e+002, 1.562517e-001
8.465969e+002, 1.626570e-001
8.485253e+002, 1.686063e-001
8.504538e+002, 1.742675e-001
8.523823e+002, 1.796282e-001
8.543107e+002, 1.843762e-001
8.562392e+002, 1.887132e-001
8.581677e+002, 1.929416e-001
8.600961e+002, 1.967364e-001
8.620246e+002, 2.001274e-001
8.639531e+002, 2.034085e-001
8.658815e+002, 2.066833e-001
8.678100e+002, 2.096276e-001
8.697385e+002, 2.121978e-001
8.716669e+002, 2.150282e-001
8.735954e+002, 2.181833e-001
8.755239e+002, 2.213483e-001
8.774523e+002, 2.248063e-001
8.793808e+002, 2.288858e-001
8.813093e+002, 2.333457e-001
8.832377e+002, 2.381221e-001
8.851662e+002, 2.430896e-001
8.870947e+002, 2.477681e-001
8.890231e+002, 2.523209e-001
8.909516e+002, 2.569922e-001
8.928801e+002, 2.615482e-001
8.948085e+002, 2.659784e-001
8.967370e+002, 2.707805e-001
8.986655e+002, 2.760017e-001
9.005939e+002, 2.811497e-001
9.025224e+002, 2.858705e-001
9.044509e+002, 2.900564e-001
9.063793e+002, 2.937078e-001
9.083078e+002, 2.968425e-001
9.102363e+002, 2.993271e-001
9.121647e+002, 3.010697e-001
9.140932e+002, 3.020400e-001
9.160217e+002, 3.025347e-001
9.179501e+002, 3.029642e-001
9.198786e+002, 3.036084e-001
9.218071e+002, 3.042990e-001
9.237355e+002, 3.050374e-001
9.256640e+002, 3.058322e-001
9.275925e+002, 3.069410e-001
9.295209e+002, 3.079598e-001
9.314494e+002, 3.087862e-001
9.333779e+002, 3.092651e-001
9.353063e+002, 3.088869e-001
9.372348e+002, 3.078927e-001
9.391633e+002, 3.064863e-001
9.410917e+002, 3.047526e-001
9.430202e+002, 3.024108e-001
9.449487e+002, 2.995472e-001
9.468771e+002, 2.964895e-001
9.488056e+002, 2.931904e-001
9.507341e+002, 2.895564e-001
9.526625e+002, 2.859594e-001
9.545910e+002, 2.824569e-001
9.565195e+002, 2.787779e-001
9.584479e+002, 2.753129e-001
9.603764e+002, 2.720183e-001
9.623049e+002, 2.686912e-001
9.642333e+002, 2.655525e-001
9.661618e+002, 2.624671e-001
9.680903e+002, 2.589856e-001
9.700187e+002, 2.554425e-001
9.719472e+002, 2.518028e-001
9.738757e+002, 2.480123e-001
9.758041e+002, 2.438693e-001
9.777326e+002, 2.394329e-001
9.796611e+002, 2.346246e-001
9.815895e+002, 2.295899e-001
9.835180e+002, 2.242012e-001
9.854465e+002, 2.186767e-001
9.873749e+002, 2.129799e-001
9.893034e+002, 2.070274e-001
9.912319e+002, 2.007999e-001
9.931603e+002, 1.946918e-001
9.950888e+002, 1.886503e-001
9.970173e+002, 1.826606e-001
9.989457e+002, 1.771070e-001
1.000874e+003, 1.715811e-001
1.002803e+003, 1.662018e-001
1.004731e+003, 1.613141e-001
1.006660e+003, 1.568120e-001
1.008588e+003, 1.527007e-001
1.010517e+003, 1.490378e-001
1.012445e+003, 1.457846e-001
1.014373e+003, 1.430896e-001
1.016302e+003, 1.407064e-001
1.018230e+003, 1.388585e-001
1.020159e+003, 1.375164e-001
1.022087e+003, 1.364082e-001
1.024016e+003, 1.356320e-001
1.025944e+003, 1.350013e-001
1.027873e+003, 1.346610e-001
1.029801e+003, 1.344165e-001
1.031730e+003, 1.342666e-001
1.033658e+003, 1.342744e-001
1.035587e+003, 1.342417e-001
1.037515e+003, 1.342771e-001
1.039443e+003, 1.342828e-001
1.041372e+003, 1.342881e-001
1.043300e+003, 1.342153e-001
1.045229e+003, 1.340183e-001
1.047157e+003, 1.335070e-001
1.049086e+003, 1.327752e-001
1.051014e+003, 1.318121e-001
1.052943e+003, 1.302432e-001
1.054871e+003, 1.279358e-001
1.056800e+003, 1.252399e-001
1.058728e+003, 1.223707e-001
1.060657e+003, 1.191441e-001
1.062585e+003, 1.156048e-001
1.064514e+003, 1.119232e-001
1.066442e+003, 1.081461e-001
1.068370e+003, 1.044790e-001
1.070299e+003, 1.008145e-001
1.072227e+003, 9.712635e-002
1.074156e+003, 9.347289e-002
1.076084e+003, 9.002540e-002
1.078013e+003, 8.684829e-002
1.079941e+003, 8.377469e-002
1.081870e+003, 8.061370e-002
1.083798e+003, 7.754079e-002
1.085727e+003, 7.476807e-002
1.087655e+003, 7.221428e-002
1.089584e+003, 6.985760e-002
1.091512e+003, 6.757551e-002
1.093441e+003, 6.556658e-002
1.095369e+003, 6.377651e-002
1.097297e+003, 6.188771e-002
1.099226e+003, 5.988650e-002
1.101154e+003, 5.810784e-002
1.103083e+003, 5.654532e-002
1.105011e+003, 5.481597e-002
1.106940e+003, 5.284793e-002
1.108868e+003, 5.097840e-002
1.110797e+003, 4.899523e-002
1.112725e+003, 4.671692e-002
1.114654e+003, 4.412594e-002
1.116582e+003, 4.127091e-002
1.118511e+003, 3.835105e-002
1.120439e+003, 3.523310e-002
1.122368e+003, 3.211837e-002
1.124296e+003, 2.903570e-002
1.126224e+003, 2.606571e-002
1.128153e+003, 2.344584e-002
1.130081e+003, 2.087161e-002
1.132010e+003, 1.847303e-002
1.133938e+003, 1.635068e-002
1.135867e+003, 1.436461e-002
1.137795e+003, 1.264248e-002
1.139724e+003, 1.118087e-002
1.141652e+003, 1.001997e-002
1.143581e+003, 9.171288e-003
1.145509e+003, 8.437878e-003
1.147438e+003, 7.706203e-003
1.149366e+003, 7.177434e-003
1.151295e+003, 6.694407e-003
1.153223e+003, 6.241047e-003
1.155151e+003, 5.859438e-003
1.157080e+003, 5.539427e-003
1.159008e+003, 5.214691e-003
1.160937e+003, 5.078376e-003
1.162865e+003, 4.801761e-003
1.164794e+003, 4.382480e-003
1.166722e+003, 4.119966e-003
1.168651e+003, 3.976540e-003
1.170579e+003, 3.772092e-003
1.172508e+003, 3.539496e-003
1.174436e+003, 3.330980e-003
1.176365e+003, 3.114556e-003
1.178293e+003, 2.840769e-003
1.180222e+003, 2.583121e-003
1.182150e+003, 2.489995e-003
1.184078e+003, 2.323458e-003
1.186007e+003, 2.128997e-003
1.187935e+003, 2.149296e-003
1.189864e+003, 2.058135e-003
1.191792e+003, 1.873739e-003
1.193721e+003, 1.768690e-003
1.195649e+003, 1.578745e-003
1.197578e+003, 1.414153e-003
1.199506e+003, 1.339839e-003
1.201435e+003, 1.237517e-003
1.203363e+003, 1.093165e-003
1.205292e+003, 9.497048e-004
1.207220e+003, 9.950256e-004
1.209149e+003, 9.405825e-004
1.211077e+003, 7.774500e-004
1.213005e+003, 5.895412e-004
1.214934e+003, 4.618944e-004
1.216862e+003, 3.584012e-004
1.218791e+003, 3.621212e-004
1.220719e+003, 3.944276e-004
1.222648e+003, 2.980439e-004
1.224576e+003, 1.139473e-004
1.226505e+003, 6.864379e-005
1.228433e+003, 7.778901e-005
1.230362e+003, 5.789206e-005
1.232290e+003, 2.053826e-005
1.234219e+003, 2.699115e-005
1.236147e+003, 1.384417e-005
1.238076e+003, -1.424111e-004
1.240004e+003, -1.172887e-004
1.241932e+003, 1.106953e-005
1.243861e+003, 8.407750e-006
1.245789e+003, -2.464243e-005
1.247718e+003, 1.570996e-006
1.249646e+003, 4.720286e-006
1.251575e+003, -3.159901e-005
1.253503e+003, -7.733012e-005
1.255432e+003, -1.385022e-004
1.257360e+003, -8.968967e-005
1.259289e+003, -5.261310e-005
1.261217e+003, 3.665037e-005
1.263146e+003, 6.198796e-005
1.265074e+003, 5.948346e-005
1.267003e+003, 8.464002e-005
1.268931e+003, 1.175278e-004
1.270859e+003, 1.741470e-004
1.272788e+003, 3.221661e-004
1.274716e+003, 4.316141e-004
1.276645e+003, 5.808772e-004
1.278573e+003, 6.625491e-004
1.280502e+003, 6.872946e-004
1.282430e+003, 6.782467e-004
1.284359e+003, 5.505206e-004
1.286287e+003, 5.943095e-004
1.288216e+003, 5.946023e-004
1.290144e+003, 4.836851e-004
1.292073e+003, 4.056151e-004
1.294001e+003, 3.055709e-004
1.295930e+003, 3.561231e-004
1.297858e+003, 3.812670e-004
1.299786e+003, 4.094589e-004
1.301715e+003, 4.219793e-004
1.303643e+003, 3.682705e-004
1.305572e+003, 3.001662e-004
1.307500e+003, 3.416161e-004
1.309429e+003, 3.369973e-004
1.311357e+003, 3.194078e-004
1.313286e+003, 3.423004e-004
1.315214e+003, 3.752458e-004
1.317143e+003, 3.431310e-004
1.319071e+003, 2.302903e-004
1.321000e+003, 2.291382e-004
1.322928e+003, 2.711331e-004
1.324857e+003, 2.376242e-004
1.326785e+003, 1.873954e-004
1.328714e+003, 1.508516e-004
1.330642e+003, 1.230670e-004
1.332570e+003, 6.676385e-005
1.334499e+003, 9.485395e-005
1.336427e+003, 1.607188e-004
1.338356e+003, 2.279343e-004
1.340284e+003, 1.821055e-004
1.342213e+003, 5.634992e-005
1.344141e+003, 5.705446e-005
1.346070e+003, 1.178024e-004
1.347998e+003, 1.011741e-004
1.349927e+003, 1.030188e-004
1.351855e+003, 1.540165e-004
1.353784e+003, 1.784207e-004
1.355712e+003, 1.976821e-004
1.357641e+003, 2.595255e-004
1.359569e+003, 3.235333e-004
1.361497e+003, 4.665961e-004
1.363426e+003, 4.675283e-004
1.365354e+003, 4.152649e-004
1.367283e+003, 4.050164e-004
1.369211e+003, 4.982532e-004
1.371140e+003, 6.444295e-004
1.373068e+003, 7.219923e-004
1.374997e+003, 7.046240e-004
1.376925e+003, 8.236531e-004
1.378854e+003, 9.530576e-004
1.380782e+003, 9.686419e-004
1.382711e+003, 9.634327e-004
1.384639e+003, 1.101684e-003
1.386568e+003, 1.254620e-003
1.388496e+003, 1.323171e-003
1.390424e+003, 1.385265e-003
1.392353e+003, 1.395972e-003
1.394281e+003, 1.476630e-003
1.396210e+003, 1.584555e-003
1.398138e+003, 1.633332e-003
1.400067e+003, 1.669216e-003
1.401995e+003, 1.726158e-003
1.403924e+003, 1.727599e-003
1.405852e+003, 1.779117e-003
1.407781e+003, 1.908817e-003
1.409709e+003, 2.049390e-003
1.411638e+003, 2.126957e-003
1.413566e+003, 2.075580e-003
1.415495e+003, 2.138887e-003
1.417423e+003, 2.294988e-003
1.419351e+003, 2.303681e-003
1.421280e+003, 2.120173e-003
1.423208e+003, 2.175009e-003
1.425137e+003, 2.171037e-003
1.427065e+003, 2.186502e-003
1.428994e+003, 2.272995e-003
1.430922e+003, 2.241230e-003
1.432851e+003, 2.109137e-003
1.434779e+003, 2.262492e-003
1.436708e+003, 2.541984e-003
1.438636e+003, 2.332349e-003
1.440565e+003, 2.118528e-003
1.442493e+003, 2.075614e-003
1.444422e+003, 2.123191e-003
1.446350e+003, 2.151753e-003
1.448278e+003, 2.110468e-003
1.450207e+003, 2.013919e-003
1.452135e+003, 1.952451e-003
1.454064e+003, 2.078873e-003
1.455992e+003, 2.391092e-003
1.457921e+003, 2.364001e-003
1.459849e+003, 2.031969e-003
1.461778e+003, 1.928444e-003
1.463706e+003, 1.982798e-003
1.465635e+003, 1.919211e-003
1.467563e+003, 1.701661e-003
1.469492e+003, 1.686664e-003
1.471420e+003, 1.943120e-003
1.473349e+003, 2.066724e-003
1.475277e+003, 1.875064e-003
1.477205e+003, 1.725308e-003
1.479134e+003, 1.676307e-003
1.481062e+003, 1.792060e-003
1.482991e+003, 1.829527e-003
1.484919e+003, 1.894820e-003
1.486848e+003, 2.056500e-003
1.488776e+003, 2.101232e-003
1.490705e+003, 1.996530e-003
1.492633e+003, 1.821088e-003
1.494562e+003, 2.025937e-003
1.496490e+003, 2.331089e-003
1.498419e+003, 2.329360e-003
1.500347e+003, 2.190035e-003
1.502276e+003, 2.037742e-003
1.504204e+003, 2.328150e-003
1.506132e+003, 2.809647e-003
1.508061e+003, 2.627793e-003
1.509989e+003, 2.229762e-003
1.511918e+003, 2.165859e-003
1.513846e+003, 2.144466e-003
1.515775e+003, 2.229134e-003
1.517703e+003, 2.282581e-003
1.519632e+003, 2.348996e-003
1.521560e+003, 2.518203e-003
1.523489e+003, 2.213482e-003
1.525417e+003, 2.016912e-003
1.527346e+003, 2.129064e-003
1.529274e+003, 2.166168e-003
1.531203e+003, 2.194910e-003
1.533131e+003, 2.264750e-003
1.535059e+003, 2.170383e-003
1.536988e+003, 2.350884e-003
1.538916e+003, 2.909571e-003
1.540845e+003, 2.996035e-003
1.542773e+003, 2.657845e-003
1.544702e+003, 2.471992e-003
1.546630e+003, 2.426937e-003
1.548559e+003, 2.532241e-003
1.550487e+003, 2.548596e-003
1.552416e+003, 2.598185e-003
1.554344e+003, 2.769719e-003
1.556273e+003, 2.899919e-003
1.558201e+003, 3.399965e-003
1.560130e+003, 3.227398e-003
1.562058e+003, 2.566160e-003
1.563986e+003, 2.364670e-003
1.565915e+003, 2.454646e-003
1.567843e+003, 2.508295e-003
1.569772e+003, 2.559567e-003
1.571700e+003, 2.454830e-003
1.573629e+003, 2.456743e-003
1.575557e+003, 2.849561e-003
1.577486e+003, 2.787391e-003
1.579414e+003, 2.476700e-003
1.581343e+003, 2.590478e-003
1.583271e+003, 2.576418e-003
1.585200e+003, 2.528524e-003
1.587128e+003, 2.562636e-003
1.589057e+003, 2.562051e-003
1.590985e+003, 2.635483e-003
1.592913e+003, 2.794196e-003
1.594842e+003, 2.840344e-003
1.596770e+003, 2.818014e-003
1.598699e+003, 2.812375e-003
1.600627e+003, 2.858050e-003
1.602556e+003, 2.980296e-003
1.604484e+003, 3.022111e-003
1.606413e+003, 2.935138e-003
1.608341e+003, 2.904841e-003
1.610270e+003, 2.973262e-003
1.612198e+003, 2.981651e-003
1.614127e+003, 3.047041e-003
1.616055e+003, 3.372465e-003
1.617984e+003, 3.175266e-003
1.619912e+003, 2.909462e-003
1.621840e+003, 2.982107e-003
1.623769e+003, 3.079455e-003
1.625697e+003, 3.042537e-003
1.627626e+003, 2.986299e-003
1.629554e+003, 2.823828e-003
1.631483e+003, 2.828093e-003
1.633411e+003, 3.086870e-003
1.635340e+003, 3.420278e-003
1.637268e+003, 3.216163e-003
1.639197e+003, 2.898124e-003
1.641125e+003, 2.712318e-003
1.643054e+003, 2.792236e-003
1.644982e+003, 3.204816e-003
1.646911e+003, 3.281097e-003
1.648839e+003, 2.948086e-003
1.650767e+003, 3.290704e-003
1.652696e+003, 3.901977e-003
1.654624e+003, 3.238912e-003
1.656553e+003, 2.599535e-003
1.658481e+003, 2.683362e-003
1.660410e+003, 2.695317e-003
1.662338e+003, 2.679595e-003
1.664267e+003, 2.528850e-003
1.666195e+003, 2.337182e-003
1.668124e+003, 2.404934e-003
1.670052e+003, 2.445413e-003
1.671981e+003, 2.281385e-003
1.673909e+003, 2.370204e-003
1.675838e+003, 2.450820e-003
1.677766e+003, 2.125401e-003
1.679694e+003, 2.082019e-003
1.681623e+003, 2.151578e-003
1.683551e+003, 2.608592e-003
1.685480e+003, 2.484366e-003
1.687408e+003, 1.974402e-003
1.689337e+003, 1.991476e-003
1.691265e+003, 1.922391e-003
1.693194e+003, 1.936058e-003
1.695122e+003, 2.520333e-003
1.697051e+003, 2.574490e-003
1.698979e+003, 2.609955e-003
1.700908e+003, 2.630960e-003
1.702836e+003, 2.010784e-003
1.704765e+003, 2.061037e-003
1.706693e+003, 2.126996e-003
1.708621e+003, 2.114127e-003
1.710550e+003, 2.079342e-003
1.712478e+003, 2.116111e-003
1.714407e+003, 2.287478e-003
1.716335e+003, 2.503883e-003
1.718264e+003, 2.383717e-003
1.720192e+003, 2.061742e-003
1.722121e+003, 2.000544e-003
1.724049e+003, 1.860462e-003
1.725978e+003, 1.762221e-003
1.727906e+003, 1.821637e-003
1.729835e+003, 1.919167e-003
1.731763e+003, 2.097648e-003
1.733692e+003, 2.168479e-003
1.735620e+003, 1.665779e-003
1.737548e+003, 1.188473e-003
1.739477e+003, 1.092702e-003
1.741405e+003, 9.131888e-004
1.743334e+003, 8.449765e-004
1.745262e+003, 8.090927e-004
1.747191e+003, 7.149492e-004
1.749119e+003, 6.315705e-004
1.751048e+003, 6.840067e-004
1.752976e+003, 4.388868e-004
1.754905e+003, 2.730494e-004
1.756833e+003, 3.502776e-004
1.758762e+003, 4.354957e-004
1.760690e+003, 5.351538e-004
1.762619e+003, 6.194357e-004
1.764547e+003, 6.450993e-004
1.766475e+003, 6.360802e-004
1.768404e+003, 5.812417e-004
1.770332e+003, 6.197984e-004
1.772261e+003, 8.022103e-004
1.774189e+003, 5.269620e-004
1.776118e+003, 1.609126e-004
1.778046e+003, 1.190152e-004
1.779975e+003, 2.102843e-004
1.781903e+003, 3.396821e-004
1.783832e+003, 2.942833e-004
1.785760e+003, 1.734450e-004
1.787689e+003, 8.861813e-005
1.789617e+003, 2.774420e-004
1.791546e+003, 4.549581e-004
1.793474e+003, 3.629933e-004
1.795402e+003, 1.168450e-004
1.797331e+003, 8.099607e-005
1.799259e+003, 9.312689e-005
1.801188e+003, 1.362031e-004
1.803116e+003, 8.842240e-006
1.805045e+003, -5.310808e-005
1.806973e+003, -1.472122e-004
1.808902e+003, -6.754522e-005
1.810830e+003, -3.887912e-005
1.812759e+003, -1.591536e-004
1.814687e+003, -4.291363e-004
1.816616e+003, -5.639762e-004
1.818544e+003, -2.873674e-004
1.820473e+003, -9.620392e-005
1.822401e+003, -2.708340e-004
1.824329e+003, -2.284582e-004
1.826258e+003, -3.543960e-004
1.828186e+003, -3.107505e-004
1.830115e+003, -1.390939e-004
1.832043e+003, -1.863364e-004
1.833972e+003, -2.894409e-004
1.835900e+003, -4.573164e-004
1.837829e+003, -6.724812e-004
1.839757e+003, -6.960267e-004
1.841686e+003, -6.068215e-004
1.843614e+003, -4.574674e-004
1.845543e+003, -4.885030e-004
1.847471e+003, -3.058902e-004
1.849400e+003, -1.364547e-004
1.851328e+003, -2.853122e-004
1.853256e+003, -6.482463e-004
1.855185e+003, -7.100317e-004
1.857113e+003, -7.298282e-004
1.859042e+003, -8.545218e-004
1.860970e+003, -8.958144e-004
1.862899e+003, -8.275606e-004
1.864827e+003, -8.097758e-004
1.866756e+003, -9.373992e-004
1.868684e+003, -1.031687e-003
1.870613e+003, -1.292452e-003
1.872541e+003, -1.543947e-003
1.874470e+003, -1.130153e-003
1.876398e+003, -9.909268e-004
1.878327e+003, -1.108240e-003
1.880255e+003, -1.100978e-003
1.882183e+003, -1.330956e-003
1.884112e+003, -1.510367e-003
1.886040e+003, -1.346348e-003
1.887969e+003, -1.220498e-003
1.889897e+003, -1.405865e-003
1.891826e+003, -1.516989e-003
1.893754e+003, -1.408484e-003
1.895683e+003, -1.671227e-003
1.897611e+003, -1.839193e-003
1.899540e+003, -1.557727e-003
1.901468e+003, -1.378432e-003
1.903397e+003, -1.676769e-003
1.905325e+003, -1.281074e-003
1.907254e+003, -1.043514e-003
1.909182e+003, -1.301226e-003
1.911110e+003, -1.621442e-003
1.913039e+003, -1.656101e-003
1.914967e+003, -1.397340e-003
1.916896e+003, -1.346625e-003
1.918824e+003, -1.641122e-003
1.920753e+003, -1.656110e-003
1.922681e+003, -2.002558e-003
1.924610e+003, -2.203538e-003
1.926538e+003, -1.936905e-003
1.928467e+003, -1.854690e-003
1.930395e+003, -2.196829e-003
1.932324e+003, -2.120666e-003
1.934252e+003, -2.277026e-003
1.936181e+003, -2.589285e-003
1.938109e+003, -2.854561e-003
1.940037e+003, -3.268654e-003
1.941966e+003, -3.136521e-003
1.943894e+003, -3.100556e-003
1.945823e+003, -3.373062e-003
1.947751e+003, -2.630945e-003
1.949680e+003, -2.332426e-003
1.951608e+003, -2.920457e-003
1.953537e+003, -3.551140e-003
1.955465e+003, -4.034746e-003
1.957394e+003, -4.547348e-003
1.959322e+003, -4.313775e-003
1.961251e+003, -3.852956e-003
1.963179e+003, -3.725218e-003
1.965108e+003, -3.552008e-003
1.967036e+003, -3.814426e-003
1.968964e+003, -4.505765e-003
1.970893e+003, -5.111046e-003
1.972821e+003, -5.099608e-003
1.974750e+003, -4.298003e-003
1.976678e+003, -3.761332e-003
1.978607e+003, -3.777599e-003
1.980535e+003, -3.861444e-003
1.982464e+003, -3.361401e-003
1.984392e+003, -2.469286e-003
1.986321e+003, -2.460332e-003
1.988249e+003, -3.086167e-003
1.990178e+003, -3.024436e-003
1.992106e+003, -2.923698e-003
1.994035e+003, -2.616133e-003
1.995963e+003, -2.862720e-003
1.997891e+003, -2.604628e-003
1.999820e+003, -1.891577e-003
2.001748e+003, -2.597620e-003
2.003677e+003, -3.059571e-003
2.005605e+003, -3.330536e-003
2.007534e+003, -2.952505e-003
2.009462e+003, -2.906303e-003
2.011391e+003, -3.047774e-003
2.013319e+003, -2.996383e-003
2.015248e+003, -2.868948e-003
2.017176e+003, -2.394176e-003
2.019105e+003, -2.475189e-003
2.021033e+003, -3.451412e-003
2.022962e+003, -3.786468e-003
2.024890e+003, -3.117971e-003
2.026818e+003, -3.004560e-003
2.028747e+003, -3.024167e-003
2.030675e+003, -2.934100e-003
2.032604e+003, -2.463799e-003
2.034532e+003, -2.933693e-003
2.036461e+003, -2.539124e-003
2.038389e+003, -1.812135e-003
2.040318e+003, -2.271149e-003
2.042246e+003, -2.548496e-003
2.044175e+003, -2.353604e-003
2.046103e+003, -2.528229e-003
2.048031e+003, -2.456717e-003
2.049960e+003, -1.479094e-003
2.051888e+003, -1.371133e-003
2.053817e+003, -1.645458e-003
2.055745e+003, -1.383028e-003
2.057674e+003, -1.419315e-003
2.059602e+003, -1.804297e-003
2.061531e+003, -1.223564e-003
2.063459e+003, -1.107537e-003
2.065388e+003, -1.700903e-003
2.067316e+003, -1.703654e-003
2.069245e+003, -1.443382e-003
2.071173e+003, -1.213661e-003
2.073102e+003, -1.544068e-003
2.075030e+003, -1.620177e-003
2.076958e+003, -1.402453e-003
2.078887e+003, -1.090362e-003
2.080815e+003, -1.223098e-003
2.082744e+003, -1.223887e-003
2.084672e+003, -1.350901e-003
2.086601e+003, -1.840299e-003
2.088529e+003, -2.105706e-003
2.090458e+003, -1.904736e-003
2.092386e+003, -2.116857e-003
2.094315e+003, -2.535833e-003
2.096243e+003, -2.586928e-003
2.098172e+003, -1.740600e-003
2.100100e+003, -1.578764e-003
2.102029e+003, -1.767713e-003
2.103957e+003, -1.595791e-003
2.105885e+003, -1.712595e-003
2.107814e+003, -1.837053e-003
2.109742e+003, -1.509457e-003
2.111671e+003, -7.988985e-004
2.113599e+003, -8.982820e-004
2.115528e+003, -1.759056e-003
2.117456e+003, -2.249729e-003
2.119385e+003, -2.085249e-003
2.121313e+003, -2.268270e-003
2.123242e+003, -2.518100e-003
2.125170e+003, -2.074290e-003
2.127099e+003, -2.156546e-003
2.129027e+003, -2.898941e-003
2.130956e+003, -3.407927e-003
2.132884e+003, -3.670370e-003
2.134813e+003, -3.221044e-003
2.136741e+003, -3.121293e-003
2.138669e+003, -3.652093e-003
2.140598e+003, -3.091441e-003
2.142526e+003, -2.039310e-003
2.144455e+003, -2.561186e-003
2.146383e+003, -3.265717e-003
2.148312e+003, -3.059161e-003
2.150240e+003, -3.275561e-003
2.152169e+003, -3.694536e-003
2.154097e+003, -4.087352e-003
2.156026e+003, -4.963112e-003
2.157954e+003, -4.483785e-003
2.159883e+003, -1.458947e-003
2.161811e+003, -1.009791e-003
2.163740e+003, -1.838571e-003
2.165668e+003, -1.265665e-003
2.167596e+003, -5.785576e-004
2.169525e+003, -1.179759e-003
2.171453e+003, -1.834067e-003
2.173382e+003, -2.316978e-003
2.175310e+003, -2.085761e-003
2.177239e+003, -1.736347e-003
2.179167e+003, -1.146132e-003
2.181096e+003, -4.315615e-004
2.183024e+003, 2.902421e-004
2.184953e+003, 1.244222e-003
2.186881e+003, 1.117994e-003
2.188810e+003, 2.473394e-004
2.190738e+003, 4.645314e-004
2.192667e+003, 5.180763e-004
2.194595e+003, 1.100753e-003
2.196523e+003, 1.102084e-003
2.198452e+003, 7.355665e-004
2.200380e+003, 1.080589e-003
2.202309e+003, 1.486560e-003
2.204237e+003, 1.148292e-003
2.206166e+003, 7.846755e-004
2.208094e+003, 7.922444e-004
2.210023e+003, 1.596357e-003
2.211951e+003, 1.555979e-003
2.213880e+003, 1.120193e-003
2.215808e+003, 8.991379e-004
2.217737e+003, 1.386438e-003
2.219665e+003, 1.638684e-003
2.221594e+003, 1.322285e-003
2.223522e+003, 1.268693e-003
2.225450e+003, 2.297682e-003
2.227379e+003, 2.307440e-003
2.229307e+003, 2.057875e-003
2.231236e+003, 2.523848e-003
2.233164e+003, 2.430037e-003
2.235093e+003, 1.937355e-003
2.237021e+003, 1.948310e-003
2.238950e+003, 1.982177e-003
2.240878e+003, 2.393324e-003
2.242807e+003, 2.783810e-003
2.244735e+003, 3.154599e-003
2.246664e+003, 3.117429e-003
2.248592e+003, 2.577993e-003
2.250521e+003, 2.518972e-003
2.252449e+003, 2.772950e-003
2.254377e+003, 3.156534e-003
2.256306e+003, 3.178885e-003
2.258234e+003, 3.336253e-003
2.260163e+003, 3.787962e-003
2.262091e+003, 3.708732e-003
2.264020e+003, 3.459069e-003
2.265948e+003, 3.159930e-003
2.267877e+003, 2.983444e-003
2.269805e+003, 3.281282e-003
2.271734e+003, 3.809167e-003
2.273662e+003, 3.823065e-003
2.275591e+003, 3.588133e-003
2.277519e+003, 3.673278e-003
2.279448e+003, 4.065664e-003
2.281376e+003, 3.992066e-003
2.283304e+003, 3.947130e-003
2.285233e+003, 4.158252e-003
2.287161e+003, 4.374257e-003
2.289090e+003, 4.451388e-003
2.291018e+003, 4.432796e-003
2.292947e+003, 3.878296e-003
2.294875e+003, 3.713940e-003
2.296804e+003, 3.968098e-003
2.298732e+003, 3.884105e-003
2.300661e+003, 3.955858e-003
2.302589e+003, 4.146394e-003
2.304518e+003, 3.679804e-003
2.306446e+003, 3.234653e-003
2.308375e+003, 3.495981e-003
2.310303e+003, 3.801223e-003
2.312231e+003, 3.863614e-003
2.314160e+003, 3.862064e-003
2.316088e+003, 3.918054e-003
2.318017e+003, 4.130987e-003
2.319945e+003, 4.561039e-003
2.321874e+003, 5.072316e-003
2.323802e+003, 5.179069e-003
2.325731e+003, 4.540985e-003
2.327659e+003, 4.106895e-003
2.329588e+003, 4.053412e-003
2.331516e+003, 4.059870e-003
2.333445e+003, 3.987001e-003
2.335373e+003, 3.900418e-003
2.337302e+003, 4.081607e-003
2.339230e+003, 4.110111e-003
2.341158e+003, 4.076426e-003
2.343087e+003, 3.845110e-003
2.345015e+003, 3.660249e-003
2.346944e+003, 3.463721e-003
2.348872e+003, 3.128794e-003
2.350801e+003, 3.120112e-003
2.352729e+003, 3.634345e-003
2.354658e+003, 4.066014e-003
2.356586e+003, 4.234377e-003
2.358515e+003, 4.454132e-003
2.360443e+003, 4.490373e-003
2.362372e+003, 4.365430e-003
2.364300e+003, 4.195692e-003
2.366229e+003, 4.037035e-003
2.368157e+003, 3.866561e-003
2.370085e+003, 3.536958e-003
2.372014e+003, 3.337883e-003
2.373942e+003, 3.425038e-003
2.375871e+003, 3.407679e-003
2.377799e+003, 3.213875e-003
2.379728e+003, 3.067634e-003
2.381656e+003, 3.157662e-003
2.383585e+003, 3.209098e-003
2.385513e+003, 2.990904e-003
2.387442e+003, 2.860207e-003
2.389370e+003, 2.966441e-003
2.391299e+003, 3.189361e-003
2.393227e+003, 3.057040e-003
2.395156e+003, 2.832444e-003
2.397084e+003, 2.922812e-003
2.399012e+003, 3.230108e-003
2.400941e+003, 3.194322e-003
2.402869e+003, 3.217012e-003
2.404798e+003, 3.249727e-003
2.406726e+003, 3.079402e-003
2.408655e+003, 3.214511e-003
2.410583e+003, 3.238877e-003
2.412512e+003, 3.110055e-003
2.414440e+003, 3.164376e-003
2.416369e+003, 2.926334e-003
2.418297e+003, 3.030962e-003
2.420226e+003, 3.584023e-003
2.422154e+003, 4.011277e-003
2.424083e+003, 3.965612e-003
2.426011e+003, 3.842338e-003
2.427939e+003, 3.372112e-003
2.429868e+003, 3.332791e-003
2.431796e+003, 3.669559e-003
2.433725e+003, 3.862972e-003
2.435653e+003, 3.952300e-003
2.437582e+003, 3.598379e-003
2.439510e+003, 3.331015e-003
2.441439e+003, 3.554155e-003
2.443367e+003, 3.681008e-003
2.445296e+003, 3.699768e-003
2.447224e+003, 3.837849e-003
2.449153e+003, 3.874836e-003
2.451081e+003, 3.983856e-003
2.453010e+003, 4.278363e-003
2.454938e+003, 3.985879e-003
2.456866e+003, 3.773724e-003
2.458795e+003, 3.743820e-003
2.460723e+003, 3.595154e-003
2.462652e+003, 3.450857e-003
2.464580e+003, 3.280465e-003
2.466509e+003, 3.365011e-003
2.468437e+003, 3.556284e-003
2.470366e+003, 3.912998e-003
2.472294e+003, 4.020637e-003
2.474223e+003, 3.771671e-003
2.476151e+003, 3.505908e-003
2.478080e+003, 3.537059e-003
2.480008e+003, 3.784201e-003
2.481937e+003, 3.604694e-003
2.483865e+003, 3.708903e-003
2.485793e+003, 3.802947e-003
2.487722e+003, 3.703000e-003
2.489650e+003, 3.449545e-003
2.491579e+003, 3.146489e-003
2.493507e+003, 2.946847e-003
2.495436e+003, 3.379178e-003
2.497364e+003, 3.629674e-003
2.499293e+003, 3.643445e-003
2.501221e+003, 3.831124e-003
2.503150e+003, 3.844981e-003
2.505078e+003, 3.568516e-003
2.507007e+003, 3.388430e-003
2.508935e+003, 3.651579e-003
2.510864e+003, 3.776349e-003
2.512792e+003, 3.612501e-003
2.514720e+003, 3.707152e-003
2.516649e+003, 4.098546e-003
2.518577e+003, 4.119026e-003
2.520506e+003, 4.032653e-003
2.522434e+003, 3.882404e-003
2.524363e+003, 3.791112e-003
2.526291e+003, 3.859360e-003
2.528220e+003, 3.954781e-003
2.530148e+003, 3.922966e-003
2.532077e+003, 3.842603e-003
2.534005e+003, 3.996105e-003
2.535934e+003, 4.036759e-003
2.537862e+003, 4.056792e-003
2.539791e+003, 4.022881e-003
2.541719e+003, 3.789544e-003
2.543647e+003, 3.899407e-003
2.545576e+003, 4.236586e-003
2.547504e+003, 3.951740e-003
2.549433e+003, 4.021961e-003
2.551361e+003, 4.150495e-003
2.553290e+003, 4.199489e-003
2.555218e+003, 4.127451e-003
2.557147e+003, 3.973415e-003
2.559075e+003, 3.809380e-003
2.561004e+003, 3.665295e-003
2.562932e+003, 3.744142e-003
2.564861e+003, 3.964250e-003
2.566789e+003, 3.865326e-003
2.568718e+003, 3.754472e-003
2.570646e+003, 4.165366e-003
2.572574e+003, 4.331407e-003
2.574503e+003, 4.231896e-003
2.576431e+003, 4.287424e-003
2.578360e+003, 4.475803e-003
2.580288e+003, 4.564220e-003
2.582217e+003, 4.531979e-003
2.584145e+003, 4.586431e-003
2.586074e+003, 5.089243e-003
2.588002e+003, 5.278255e-003
2.589931e+003, 4.808430e-003
2.591859e+003, 4.649620e-003
2.593788e+003, 4.704601e-003
2.595716e+003, 4.753787e-003
2.597645e+003, 4.797425e-003
2.599573e+003, 4.621164e-003
2.601501e+003, 4.627968e-003
2.603430e+003, 4.842156e-003
2.605358e+003, 4.866203e-003
2.607287e+003, 5.089161e-003
2.609215e+003, 5.084241e-003
2.611144e+003, 4.984845e-003
2.613072e+003, 5.016877e-003
2.615001e+003, 5.152698e-003
2.616929e+003, 5.180713e-003
2.618858e+003, 5.254007e-003
2.620786e+003, 5.080532e-003
2.622715e+003, 5.059393e-003
2.624643e+003, 5.182181e-003
2.626572e+003, 5.008791e-003
2.628500e+003, 4.789863e-003
2.630428e+003, 4.638472e-003
2.632357e+003, 4.691792e-003
2.634285e+003, 4.868426e-003
2.636214e+003, 4.982348e-003
2.638142e+003, 5.118920e-003
2.640071e+003, 5.247002e-003
2.641999e+003, 5.190155e-003
2.643928e+003, 4.764227e-003
2.645856e+003, 4.803972e-003
2.647785e+003, 4.949058e-003
2.649713e+003, 4.965889e-003
2.651642e+003, 4.806448e-003
2.653570e+003, 4.744786e-003
2.655499e+003, 5.087373e-003
2.657427e+003, 5.267697e-003
2.659355e+003, 4.993517e-003
2.661284e+003, 4.783814e-003
2.663212e+003, 4.691232e-003
2.665141e+003, 4.467402e-003
2.667069e+003, 4.679393e-003
2.668998e+003, 4.845989e-003
2.670926e+003, 4.892771e-003
2.672855e+003, 5.037722e-003
2.674783e+003, 5.046341e-003
2.676712e+003, 4.906754e-003
2.678640e+003, 4.660842e-003
2.680569e+003, 4.698263e-003
2.682497e+003, 4.723596e-003
2.684426e+003, 4.765573e-003
2.686354e+003, 5.061019e-003
2.688282e+003, 5.096143e-003
2.690211e+003, 5.216280e-003
2.692139e+003, 5.367601e-003
2.694068e+003, 5.384360e-003
2.695996e+003, 5.230369e-003
2.697925e+003, 5.148361e-003
2.699853e+003, 4.875692e-003
2.701782e+003, 4.511476e-003
2.703710e+003, 4.604360e-003
2.705639e+003, 4.703949e-003
2.707567e+003, 4.741890e-003
2.709496e+003, 4.819004e-003
2.711424e+003, 5.012700e-003
2.713353e+003, 5.118205e-003
2.715281e+003, 5.222417e-003
2.717209e+003, 5.028550e-003
2.719138e+003, 4.997555e-003
2.721066e+003, 5.232911e-003
2.722995e+003, 5.236619e-003
2.724923e+003, 5.371199e-003
2.726852e+003, 5.370553e-003
2.728780e+003, 5.358364e-003
2.730709e+003, 5.266813e-003
2.732637e+003, 5.077469e-003
2.734566e+003, 4.985602e-003
2.736494e+003, 5.121424e-003
2.738423e+003, 5.231565e-003
2.740351e+003, 5.231693e-003
2.742280e+003, 5.243953e-003
2.744208e+003, 5.313034e-003
2.746136e+003, 5.387694e-003
2.748065e+003, 5.283277e-003
2.749993e+003, 5.276002e-003
2.751922e+003, 5.220630e-003
2.753850e+003, 5.243076e-003
2.755779e+003, 5.334794e-003
2.757707e+003, 5.463357e-003
2.759636e+003, 5.513291e-003
2.761564e+003, 5.639132e-003
2.763493e+003, 5.475371e-003
2.765421e+003, 5.247896e-003
2.767350e+003, 5.351759e-003
2.769278e+003, 5.475772e-003
2.771207e+003, 5.643784e-003
2.773135e+003, 5.743910e-003
2.775063e+003, 5.759269e-003
2.776992e+003, 5.754302e-003
2.778920e+003, 5.554593e-003
2.780849e+003, 5.637502e-003
2.782777e+003, 5.781392e-003
2.784706e+003, 5.707246e-003
2.786634e+003, 5.446835e-003
2.788563e+003, 5.628911e-003
2.790491e+003, 5.650732e-003
2.792420e+003, 5.421246e-003
2.794348e+003, 5.349288e-003
2.796277e+003, 5.518268e-003
2.798205e+003, 5.730255e-003
2.800134e+003, 5.987225e-003
2.802062e+003, 5.977912e-003
2.803990e+003, 5.734074e-003
2.805919e+003, 5.495829e-003
2.807847e+003, 5.409892e-003
2.809776e+003, 5.621318e-003
2.811704e+003, 5.822394e-003
2.813633e+003, 5.855800e-003
2.815561e+003, 6.012337e-003
2.817490e+003, 6.064865e-003
2.819418e+003, 5.887647e-003
2.821347e+003, 5.575066e-003
2.823275e+003, 5.603686e-003
2.825204e+003, 5.886090e-003
2.827132e+003, 6.173079e-003
2.829061e+003, 6.204799e-003
2.830989e+003, 6.286811e-003
2.832917e+003, 6.417525e-003
2.834846e+003, 6.455508e-003
2.836774e+003, 6.447994e-003
2.838703e+003, 6.512797e-003
2.840631e+003, 6.528576e-003
2.842560e+003, 6.618228e-003
2.844488e+003, 6.745623e-003
2.846417e+003, 6.692635e-003
2.848345e+003, 6.653995e-003
2.850274e+003, 6.629351e-003
2.852202e+003, 6.832143e-003
2.854131e+003, 7.159737e-003
2.856059e+003, 7.058167e-003
2.857988e+003, 7.041886e-003
2.859916e+003, 7.176823e-003
2.861844e+003, 6.852571e-003
2.863773e+003, 6.542461e-003
2.865701e+003, 6.597840e-003
2.867630e+003, 6.688538e-003
2.869558e+003, 6.745613e-003
2.871487e+003, 6.590882e-003
2.873415e+003, 6.387822e-003
2.875344e+003, 6.293096e-003
2.877272e+003, 6.478808e-003
2.879201e+003, 6.614917e-003
2.881129e+003, 6.553035e-003
2.883058e+003, 6.092343e-003
2.884986e+003, 6.037920e-003
2.886915e+003, 6.576097e-003
2.888843e+003, 7.142267e-003
2.890771e+003, 7.035586e-003
2.892700e+003, 6.930886e-003
2.894628e+003, 7.077670e-003
2.896557e+003, 7.452291e-003
2.898485e+003, 7.843941e-003
2.900414e+003, 7.794040e-003
2.902342e+003, 7.721331e-003
2.904271e+003, 7.640100e-003
2.906199e+003, 7.441840e-003
2.908128e+003, 7.541480e-003
2.910056e+003, 7.530185e-003
2.911985e+003, 7.685145e-003
2.913913e+003, 8.230342e-003
2.915842e+003, 8.162663e-003
2.917770e+003, 8.155218e-003
2.919698e+003, 8.606818e-003
2.921627e+003, 8.769430e-003
2.923555e+003, 8.938025e-003
2.925484e+003, 9.030902e-003
2.927412e+003, 9.092051e-003
2.929341e+003, 9.042026e-003
2.931269e+003, 8.637700e-003
2.933198e+003, 8.046341e-003
2.935126e+003, 7.886048e-003
2.937055e+003, 7.817595e-003
2.938983e+003, 7.568303e-003
2.940912e+003, 7.357144e-003
2.942840e+003, 7.649645e-003
2.944769e+003, 8.004835e-003
2.946697e+003, 8.135842e-003
2.948625e+003, 7.929102e-003
2.950554e+003, 7.777395e-003
2.952482e+003, 7.969988e-003
2.954411e+003, 7.838874e-003
2.956339e+003, 7.619895e-003
2.958268e+003, 7.444238e-003
2.960196e+003, 7.555443e-003
2.962125e+003, 7.875240e-003
2.964053e+003, 7.967327e-003
2.965982e+003, 7.751719e-003
2.967910e+003, 7.281476e-003
2.969839e+003, 7.216937e-003
2.971767e+003, 7.214692e-003
2.973696e+003, 6.725441e-003
2.975624e+003, 6.450246e-003
2.977552e+003, 6.640250e-003
2.979481e+003, 6.788841e-003
2.981409e+003, 6.725509e-003
2.983338e+003, 6.645303e-003
2.985266e+003, 6.702990e-003
2.987195e+003, 6.841143e-003
2.989123e+003, 6.919936e-003
2.991052e+003, 6.835030e-003
2.992980e+003, 6.993272e-003
2.994909e+003, 6.873373e-003
2.996837e+003, 6.781472e-003
2.998766e+003, 6.606164e-003
3.000694e+003, 6.258004e-003
3.002623e+003, 6.548366e-003
3.004551e+003, 7.174255e-003
3.006479e+003, 7.392031e-003
3.008408e+003, 7.352564e-003
3.010336e+003, 7.169014e-003
3.012265e+003, 6.910296e-003
3.014193e+003, 6.651494e-003
3.016122e+003, 6.622603e-003
3.018050e+003, 6.532665e-003
3.019979e+003, 6.793504e-003
3.021907e+003, 7.100929e-003
3.023836e+003, 7.331027e-003
3.025764e+003, 7.578996e-003
3.027693e+003, 7.375484e-003
3.029621e+003, 6.683924e-003
3.031550e+003, 6.810446e-003
3.033478e+003, 7.275365e-003
3.035406e+003, 6.755118e-003
3.037335e+003, 6.598985e-003
3.039263e+003, 6.859358e-003
3.041192e+003, 7.185250e-003
3.043120e+003, 7.357704e-003
3.045049e+003, 7.442623e-003
3.046977e+003, 7.260232e-003
3.048906e+003, 7.277017e-003
3.050834e+003, 7.666802e-003
3.052763e+003, 7.868424e-003
3.054691e+003, 7.725055e-003
3.056620e+003, 7.224959e-003
3.058548e+003, 7.627987e-003
3.060477e+003, 8.057754e-003
3.062405e+003, 7.837341e-003
3.064333e+003, 7.651811e-003
3.066262e+003, 7.434294e-003
3.068190e+003, 7.314458e-003
3.070119e+003, 7.542874e-003
3.072047e+003, 7.894477e-003
3.073976e+003, 7.944924e-003
3.075904e+003, 7.875375e-003
3.077833e+003, 7.657211e-003
3.079761e+003, 7.613054e-003
3.081690e+003, 7.554770e-003
3.083618e+003, 7.634816e-003
3.085547e+003, 7.646994e-003
3.087475e+003, 8.020876e-003
3.089404e+003, 8.079848e-003
3.091332e+003, 7.460983e-003
3.093260e+003, 7.196464e-003
3.095189e+003, 7.848515e-003
3.097117e+003, 8.190773e-003
3.099046e+003, 7.860981e-003
3.100974e+003, 8.040338e-003
3.102903e+003, 8.326586e-003
3.104831e+003, 8.284975e-003
3.106760e+003, 8.041980e-003
3.108688e+003, 8.418394e-003
3.110617e+003, 8.834793e-003
3.112545e+003, 8.914806e-003
3.114474e+003, 8.773247e-003
3.116402e+003, 8.563455e-003
3.118331e+003, 8.732531e-003
3.120259e+003, 8.806402e-003
3.122188e+003, 8.916182e-003
3.124116e+003, 9.058716e-003
3.126044e+003, 8.616740e-003
3.127973e+003, 8.767044e-003
3.129901e+003, 9.153063e-003
3.131830e+003, 9.143137e-003
3.133758e+003, 8.995946e-003
3.135687e+003, 9.087768e-003
3.137615e+003, 9.215080e-003
3.139544e+003, 9.478304e-003
3.141472e+003, 9.459389e-003
3.143401e+003, 8.959567e-003
3.145329e+003, 8.548136e-003
3.147258e+003, 8.695782e-003
3.149186e+003, 8.833536e-003
3.151115e+003, 8.772848e-003
3.153043e+003, 9.046889e-003
3.154971e+003, 9.308154e-003
3.156900e+003, 9.194739e-003
3.158828e+003, 9.332390e-003
3.160757e+003, 9.431935e-003
3.162685e+003, 9.378497e-003
3.164614e+003, 9.283712e-003
3.166542e+003, 9.356130e-003
3.168471e+003, 9.615006e-003
3.170399e+003, 9.866088e-003
3.172328e+003, 9.394284e-003
3.174256e+003, 9.149045e-003
3.176185e+003, 9.293605e-003
3.178113e+003, 9.440255e-003
3.180042e+003, 9.806739e-003
3.181970e+003, 1.024056e-002
3.183898e+003, 1.050091e-002
3.185827e+003, 1.002776e-002
3.187755e+003, 9.450180e-003
3.189684e+003, 9.777721e-003
3.191612e+003, 9.757221e-003
3.193541e+003, 9.748944e-003
3.195469e+003, 1.003059e-002
3.197398e+003, 1.027036e-002
3.199326e+003, 1.003298e-002
3.201255e+003, 9.814259e-003
3.203183e+003, 1.011371e-002
3.205112e+003, 1.022699e-002
3.207040e+003, 1.028817e-002
3.208969e+003, 1.026576e-002
3.210897e+003, 9.749215e-003
3.212825e+003, 9.104299e-003
3.214754e+003, 9.630605e-003
3.216682e+003, 1.050272e-002
3.218611e+003, 1.065688e-002
3.220539e+003, 9.873918e-003
3.222468e+003, 9.828002e-003
3.224396e+003, 1.062952e-002
3.226325e+003, 1.098104e-002
3.228253e+003, 1.049114e-002
3.230182e+003, 1.026656e-002
3.232110e+003, 1.022511e-002
3.234039e+003, 9.959120e-003
3.235967e+003, 1.007855e-002
3.237896e+003, 9.893961e-003
3.239824e+003, 9.692954e-003
3.241752e+003, 1.013693e-002
3.243681e+003, 1.039023e-002
3.245609e+003, 1.014693e-002
3.247538e+003, 9.935562e-003
3.249466e+003, 9.757036e-003
3.251395e+003, 1.026680e-002
3.253323e+003, 1.034793e-002
3.255252e+003, 1.008137e-002
3.257180e+003, 9.910285e-003
3.259109e+003, 9.721293e-003
3.261037e+003, 1.026928e-002
3.262966e+003, 1.061571e-002
3.264894e+003, 1.066373e-002
3.266823e+003, 1.059325e-002
3.268751e+003, 1.059525e-002
3.270679e+003, 1.068929e-002
3.272608e+003, 1.064140e-002
3.274536e+003, 1.041911e-002
3.276465e+003, 1.039091e-002
3.278393e+003, 1.050558e-002
3.280322e+003, 1.038497e-002
3.282250e+003, 1.027189e-002
3.284179e+003, 9.946736e-003
3.286107e+003, 9.985689e-003
3.288036e+003, 1.048852e-002
3.289964e+003, 1.039189e-002
3.291893e+003, 1.043303e-002
3.293821e+003, 1.055524e-002
3.295750e+003, 1.071093e-002
3.297678e+003, 1.078853e-002
3.299606e+003, 1.069692e-002
3.301535e+003, 1.065435e-002
3.303463e+003, 1.054567e-002
3.305392e+003, 1.007705e-002
3.307320e+003, 1.010765e-002
3.309249e+003, 1.047412e-002
3.311177e+003, 1.028937e-002
3.313106e+003, 1.021278e-002
3.315034e+003, 1.018421e-002
3.316963e+003, 1.049156e-002
3.318891e+003, 1.086225e-002
3.320820e+003, 1.083497e-002
3.322748e+003, 1.057008e-002
3.324677e+003, 1.068008e-002
3.326605e+003, 1.087762e-002
3.328533e+003, 1.121099e-002
3.330462e+003, 1.144626e-002
3.332390e+003, 1.096440e-002
3.334319e+003, 1.069347e-002
3.336247e+003, 1.090937e-002
3.338176e+003, 1.069336e-002
3.340104e+003, 1.054870e-002
3.342033e+003, 1.053695e-002
3.343961e+003, 1.077853e-002
3.345890e+003, 1.058317e-002
3.347818e+003, 1.063854e-002
3.349747e+003, 1.068000e-002
3.351675e+003, 1.047428e-002
3.353604e+003, 1.096276e-002
3.355532e+003, 1.110630e-002
3.357460e+003, 1.097705e-002
3.359389e+003, 1.133185e-002
3.361317e+003, 1.110940e-002
3.363246e+003, 1.104908e-002
3.365174e+003, 1.099385e-002
3.367103e+003, 1.033125e-002
3.369031e+003, 1.002512e-002
3.370960e+003, 1.053398e-002
3.372888e+003, 1.143877e-002
3.374817e+003, 1.160997e-002
3.376745e+003, 1.111631e-002
3.378674e+003, 1.131432e-002
3.380602e+003, 1.123014e-002
3.382531e+003, 1.080124e-002
3.384459e+003, 1.077000e-002
3.386387e+003, 1.089505e-002
3.388316e+003, 1.111617e-002
3.390244e+003, 1.118271e-002
3.392173e+003, 1.143632e-002
3.394101e+003, 1.126093e-002
3.396030e+003, 1.090431e-002
3.397958e+003, 1.062788e-002
3.399887e+003, 1.062880e-002
3.401815e+003, 1.087656e-002
3.403744e+003, 1.106042e-002
3.405672e+003, 1.120119e-002
3.407601e+003, 1.123757e-002
3.409529e+003, 1.106693e-002
3.411458e+003, 1.118400e-002
3.413386e+003, 1.095821e-002
3.415314e+003, 1.032487e-002
3.417243e+003, 1.023322e-002
3.419171e+003, 1.062724e-002
3.421100e+003, 1.066658e-002
3.423028e+003, 1.072605e-002
3.424957e+003, 1.075678e-002
3.426885e+003, 1.077622e-002
3.428814e+003, 1.100946e-002
3.430742e+003, 1.106066e-002
3.432671e+003, 1.075546e-002
3.434599e+003, 1.054568e-002
3.436528e+003, 1.076537e-002
3.438456e+003, 1.073469e-002
3.440385e+003, 1.087344e-002
3.442313e+003, 1.082945e-002
3.444241e+003, 1.067183e-002
3.446170e+003, 9.965188e-003
3.448098e+003, 9.943277e-003
3.450027e+003, 1.052743e-002
3.451955e+003, 1.051327e-002
3.453884e+003, 1.032232e-002
3.455812e+003, 1.012103e-002
3.457741e+003, 1.005297e-002
3.459669e+003, 1.026170e-002
3.461598e+003, 1.089312e-002
3.463526e+003, 1.088879e-002
3.465455e+003, 1.028383e-002
3.467383e+003, 1.006632e-002
3.469312e+003, 1.032236e-002
3.471240e+003, 1.044588e-002
3.473168e+003, 1.038528e-002
3.475097e+003, 1.054305e-002
3.477025e+003, 1.053939e-002
3.478954e+003, 1.058761e-002
3.480882e+003, 1.067304e-002
3.482811e+003, 1.081772e-002
3.484739e+003, 1.068649e-002
3.486668e+003, 1.054628e-002
3.488596e+003, 1.047553e-002
3.490525e+003, 1.041866e-002
3.492453e+003, 1.060247e-002
3.494382e+003, 1.038681e-002
3.496310e+003, 1.023123e-002
3.498239e+003, 1.031168e-002
3.500167e+003, 1.064165e-002
3.502095e+003, 1.044000e-002
3.504024e+003, 9.947360e-003
3.505952e+003, 1.026097e-002
3.507881e+003, 1.034057e-002
3.509809e+003, 1.008459e-002
3.511738e+003, 9.360466e-003
3.513666e+003, 9.588655e-003
3.515595e+003, 1.041749e-002
3.517523e+003, 9.956119e-003
3.519452e+003, 1.008858e-002
3.521380e+003, 1.024375e-002
3.523309e+003, 9.972611e-003
3.525237e+003, 9.839697e-003
3.527166e+003, 9.501895e-003
3.529094e+003, 9.258376e-003
3.531022e+003, 9.339474e-003
3.532951e+003, 9.060291e-003
3.534879e+003, 9.406476e-003
3.536808e+003, 1.019012e-002
3.538736e+003, 9.521032e-003
3.540665e+003, 9.073464e-003
3.542593e+003, 8.971316e-003
3.544522e+003, 8.689522e-003
3.546450e+003, 8.828027e-003
3.548379e+003, 9.705273e-003
3.550307e+003, 1.021860e-002
3.552236e+003, 9.527507e-003
3.554164e+003, 9.006660e-003
3.556093e+003, 9.482605e-003
3.558021e+003, 9.385029e-003
3.559949e+003, 9.929227e-003
3.561878e+003, 9.863814e-003
3.563806e+003, 9.424524e-003
3.565735e+003, 9.322408e-003
3.567663e+003, 8.935167e-003
3.569592e+003, 9.285850e-003
3.571520e+003, 9.225390e-003
3.573449e+003, 8.738170e-003
3.575377e+003, 8.799953e-003
3.577306e+003, 9.241407e-003
3.579234e+003, 9.148206e-003
3.581163e+003, 8.517560e-003
3.583091e+003, 8.489439e-003
3.585020e+003, 9.221423e-003
3.586948e+003, 9.322510e-003
3.588876e+003, 8.690036e-003
3.590805e+003, 8.543125e-003
3.592733e+003, 9.106913e-003
3.594662e+003, 9.305534e-003
3.596590e+003, 8.342300e-003
3.598519e+003, 7.656702e-003
3.600447e+003, 7.973013e-003
3.602376e+003, 7.887427e-003
3.604304e+003, 7.216633e-003
3.606233e+003, 7.645258e-003
3.608161e+003, 9.127621e-003
3.610090e+003, 9.041663e-003
3.612018e+003, 8.096677e-003
3.613947e+003, 8.229915e-003
3.615875e+003, 8.491464e-003
3.617803e+003, 8.761888e-003
3.619732e+003, 8.681894e-003
3.621660e+003, 8.587095e-003
3.623589e+003, 8.158579e-003
3.625517e+003, 7.405502e-003
3.627446e+003, 8.123166e-003
3.629374e+003, 8.827036e-003
3.631303e+003, 8.045815e-003
3.633231e+003, 7.906226e-003
3.635160e+003, 8.145404e-003
3.637088e+003, 8.353971e-003
3.639017e+003, 8.471983e-003
3.640945e+003, 8.017102e-003
3.642874e+003, 7.487281e-003
3.644802e+003, 7.322349e-003
3.646730e+003, 8.721865e-003
3.648659e+003, 9.868237e-003
3.650587e+003, 9.365985e-003
3.652516e+003, 8.258623e-003
3.654444e+003, 8.389575e-003
3.656373e+003, 8.986756e-003
3.658301e+003, 8.362117e-003
3.660230e+003, 7.996669e-003
3.662158e+003, 8.192849e-003
3.664087e+003, 8.147375e-003
3.666015e+003, 8.175105e-003
3.667944e+003, 8.627794e-003
3.669872e+003, 9.255234e-003
3.671801e+003, 8.952244e-003
3.673729e+003, 8.941645e-003
3.675657e+003, 9.188978e-003
3.677586e+003, 8.984853e-003
3.679514e+003, 7.834063e-003
3.681443e+003, 7.107878e-003
3.683371e+003, 7.508961e-003
3.685300e+003, 7.357828e-003
3.687228e+003, 7.945884e-003
3.689157e+003, 8.486715e-003
3.691085e+003, 7.492371e-003
3.693014e+003, 6.775171e-003
3.694942e+003, 6.657488e-003
3.696871e+003, 6.230885e-003
3.698799e+003, 5.803578e-003
3.700728e+003, 6.111093e-003
3.702656e+003, 6.232753e-003
3.704584e+003, 5.860455e-003
3.706513e+003, 5.653731e-003
3.708441e+003, 6.070300e-003
3.710370e+003, 6.618130e-003
3.712298e+003, 6.553024e-003
3.714227e+003, 6.177117e-003
3.716155e+003, 6.275254e-003
3.718084e+003, 6.831433e-003
3.720012e+003, 6.459962e-003
3.721941e+003, 6.096978e-003
3.723869e+003, 6.332873e-003
3.725798e+003, 6.314216e-003
3.727726e+003, 6.359149e-003
3.729655e+003, 6.470502e-003
3.731583e+003, 6.125060e-003
3.733511e+003, 6.044409e-003
3.735440e+003, 6.577842e-003
3.737368e+003, 6.555874e-003
3.739297e+003, 5.783313e-003
3.741225e+003, 5.318480e-003
3.743154e+003, 6.889079e-003
3.745082e+003, 7.382446e-003
3.747011e+003, 6.853787e-003
3.748939e+003, 7.434722e-003
3.750868e+003, 7.227563e-003
3.752796e+003, 6.520139e-003
3.754725e+003, 5.832520e-003
3.756653e+003, 6.314775e-003
3.758582e+003, 6.641726e-003
3.760510e+003, 6.646761e-003
3.762438e+003, 6.522497e-003
3.764367e+003, 6.697787e-003
3.766295e+003, 6.786553e-003
3.768224e+003, 6.931583e-003
3.770152e+003, 7.042268e-003
3.772081e+003, 6.298050e-003
3.774009e+003, 5.544375e-003
3.775938e+003, 5.489964e-003
3.777866e+003, 6.007791e-003
3.779795e+003, 6.183075e-003
3.781723e+003, 6.337923e-003
3.783652e+003, 6.327437e-003
3.785580e+003, 5.590069e-003
3.787509e+003, 5.420663e-003
3.789437e+003, 5.532268e-003
3.791365e+003, 5.783161e-003
3.793294e+003, 5.865061e-003
3.795222e+003, 5.819836e-003
3.797151e+003, 5.984666e-003
3.799079e+003, 6.093200e-003
3.801008e+003, 6.032331e-003
3.802936e+003, 5.179678e-003
3.804865e+003, 5.156885e-003
3.806793e+003, 6.025562e-003
3.808722e+003, 5.511673e-003
3.810650e+003, 4.693883e-003
3.812579e+003, 5.392159e-003
3.814507e+003, 7.041979e-003
3.816436e+003, 7.019633e-003
3.818364e+003, 5.728108e-003
3.820292e+003, 6.073735e-003
3.822221e+003, 6.446733e-003
3.824149e+003, 5.789046e-003
3.826078e+003, 5.493543e-003
3.828006e+003, 5.239144e-003
3.829935e+003, 5.666007e-003
3.831863e+003, 6.143105e-003
3.833792e+003, 6.484485e-003
3.835720e+003, 6.499612e-003
3.837649e+003, 5.874176e-003
3.839577e+003, 5.926281e-003
3.841506e+003, 7.083129e-003
3.843434e+003, 7.114181e-003
3.845363e+003, 6.582210e-003
3.847291e+003, 6.151588e-003
3.849219e+003, 6.137518e-003
3.851148e+003, 6.753665e-003
3.853076e+003, 8.091211e-003
3.855005e+003, 7.295825e-003
3.856933e+003, 5.669916e-003
3.858862e+003, 5.814521e-003
3.860790e+003, 6.098577e-003
3.862719e+003, 5.841139e-003
3.864647e+003, 6.252472e-003
3.866576e+003, 6.159664e-003
3.868504e+003, 5.809885e-003
3.870433e+003, 5.868375e-003
3.872361e+003, 5.681009e-003
3.874290e+003, 5.991711e-003
3.876218e+003, 5.983093e-003
3.878146e+003, 6.083176e-003
3.880075e+003, 5.931505e-003
3.882003e+003, 5.840743e-003
3.883932e+003, 6.245825e-003
3.885860e+003, 5.990095e-003
3.887789e+003, 5.409616e-003
3.889717e+003, 5.941976e-003
3.891646e+003, 5.852016e-003
3.893574e+003, 5.513312e-003
3.895503e+003, 6.241113e-003
3.897431e+003, 7.093912e-003
3.899360e+003, 7.031383e-003
3.901288e+003, 5.848615e-003
3.903217e+003, 4.993770e-003
3.905145e+003, 5.427795e-003
3.907073e+003, 5.599706e-003
3.909002e+003, 5.318945e-003
3.910930e+003, 5.380066e-003
3.912859e+003, 5.506281e-003
3.914787e+003, 5.549727e-003
3.916716e+003, 5.880469e-003
3.918644e+003, 6.126242e-003
3.920573e+003, 5.859015e-003
3.922501e+003, 5.511505e-003
3.924430e+003, 5.607491e-003
3.926358e+003, 5.495519e-003
3.928287e+003, 5.553324e-003
3.930215e+003, 5.990904e-003
3.932144e+003, 5.736032e-003
3.934072e+003, 5.123719e-003
3.936000e+003, 4.791265e-003
3.937929e+003, 5.340636e-003
3.939857e+003, 5.319942e-003
3.941786e+003, 4.940159e-003
3.943714e+003, 5.412057e-003
3.945643e+003, 5.425589e-003
3.947571e+003, 5.133166e-003
3.949500e+003, 5.449403e-003
3.951428e+003, 5.516292e-003
3.953357e+003, 5.244879e-003
3.955285e+003, 5.492883e-003
3.957214e+003, 5.454390e-003
3.959142e+003, 5.287556e-003
3.961071e+003, 5.072001e-003
3.962999e+003, 5.160208e-003
3.964927e+003, 5.563474e-003
3.966856e+003, 6.401868e-003
3.968784e+003, 5.875116e-003
3.970713e+003, 5.348276e-003
3.972641e+003, 5.125895e-003
3.974570e+003, 4.567508e-003
3.976498e+003, 4.519788e-003
3.978427e+003, 4.267974e-003
3.980355e+003, 4.256822e-003
3.982284e+003, 5.012616e-003
3.984212e+003, 5.441545e-003
3.986141e+003, 5.685862e-003
3.988069e+003, 5.722818e-003
3.989998e+003, 5.703302e-003
3.991926e+003, 5.472513e-003
3.993854e+003, 5.224940e-003
3.995783e+003, 5.377263e-003
3.997711e+003, 5.708081e-003
3.999640e+003, 6.068935e-003
##END=



