##NAMES=Elbaite
##RRUFFID=R060003
##IDEAL CHEMISTRY=Na(Al_1.5_Li_1.5_)Al_6_(Si_6_O_18_)(BO_3_)_3_(OH)_3_OH
##LOCALITY=Mount Begbie, Revelstoke, British Columbia, Canada
##OWNER=RRUFF
##SOURCE=Bob Downs
##DESCRIPTION=Pink crystal associated with trilithionite, R060004
##STATUS=The identification of this mineral has been confirmed by X-ray diffraction and chemical analysis
##URL=rruff.info/R060003
##MEASURED CHEMISTRY=(Na_0.58_[box]_0.42_)(Al_1.69_Li_1.27_Mn_0.04_)Al_6_(BO_3_)_3_[Si_6_O_18_](OH)_4_
3.991926e+002, 2.378900e-001
4.011211e+002, 2.400861e-001
4.030495e+002, 2.461014e-001
4.049780e+002, 2.488500e-001
4.069065e+002, 2.454666e-001
4.088349e+002, 2.525635e-001
4.107634e+002, 2.647276e-001
4.126919e+002, 2.679630e-001
4.146203e+002, 2.689739e-001
4.165488e+002, 2.696131e-001
4.184773e+002, 2.723397e-001
4.204057e+002, 2.747459e-001
4.223342e+002, 2.726607e-001
4.242627e+002, 2.802797e-001
4.261911e+002, 2.852873e-001
4.281196e+002, 2.836626e-001
4.300481e+002, 2.800914e-001
4.319765e+002, 2.754077e-001
4.339050e+002, 2.712992e-001
4.358335e+002, 2.755380e-001
4.377619e+002, 2.774079e-001
4.396904e+002, 2.778961e-001
4.416189e+002, 2.807193e-001
4.435473e+002, 2.847479e-001
4.454758e+002, 2.895054e-001
4.474043e+002, 2.919115e-001
4.493327e+002, 2.917275e-001
4.512612e+002, 2.894120e-001
4.531897e+002, 2.891126e-001
4.551181e+002, 2.913129e-001
4.570466e+002, 2.861586e-001
4.589751e+002, 2.831807e-001
4.609035e+002, 2.836711e-001
4.628320e+002, 2.824044e-001
4.647605e+002, 2.827054e-001
4.666889e+002, 2.851745e-001
4.686174e+002, 2.846945e-001
4.705459e+002, 2.832447e-001
4.724743e+002, 2.839499e-001
4.744028e+002, 2.858495e-001
4.763313e+002, 2.868372e-001
4.782597e+002, 2.872291e-001
4.801882e+002, 2.865200e-001
4.821167e+002, 2.869964e-001
4.840451e+002, 2.886550e-001
4.859736e+002, 2.889995e-001
4.879021e+002, 2.884167e-001
4.898305e+002, 2.874036e-001
4.917590e+002, 2.838497e-001
4.936875e+002, 2.788717e-001
4.956159e+002, 2.762057e-001
4.975444e+002, 2.742359e-001
4.994729e+002, 2.709700e-001
5.014013e+002, 2.688985e-001
5.033298e+002, 2.666677e-001
5.052583e+002, 2.630778e-001
5.071867e+002, 2.621343e-001
5.091152e+002, 2.601706e-001
5.110437e+002, 2.570715e-001
5.129721e+002, 2.527331e-001
5.149006e+002, 2.484326e-001
5.168290e+002, 2.435497e-001
5.187575e+002, 2.383159e-001
5.206860e+002, 2.362751e-001
5.226144e+002, 2.337598e-001
5.245429e+002, 2.302606e-001
5.264714e+002, 2.278355e-001
5.283998e+002, 2.250735e-001
5.303283e+002, 2.222614e-001
5.322568e+002, 2.190697e-001
5.341852e+002, 2.154999e-001
5.361137e+002, 2.118607e-001
5.380422e+002, 2.091866e-001
5.399706e+002, 2.074879e-001
5.418991e+002, 2.043572e-001
5.438276e+002, 2.014633e-001
5.457560e+002, 1.978004e-001
5.476845e+002, 1.950530e-001
5.496130e+002, 1.928091e-001
5.515414e+002, 1.919141e-001
5.534699e+002, 1.907720e-001
5.553984e+002, 1.888032e-001
5.573268e+002, 1.887099e-001
5.592553e+002, 1.882186e-001
5.611838e+002, 1.877189e-001
5.631122e+002, 1.876526e-001
5.650407e+002, 1.866160e-001
5.669692e+002, 1.856048e-001
5.688976e+002, 1.851151e-001
5.708261e+002, 1.838690e-001
5.727546e+002, 1.831716e-001
5.746830e+002, 1.826680e-001
5.766115e+002, 1.806089e-001
5.785400e+002, 1.784284e-001
5.804684e+002, 1.771686e-001
5.823969e+002, 1.766012e-001
5.843254e+002, 1.751727e-001
5.862538e+002, 1.724799e-001
5.881823e+002, 1.696661e-001
5.901108e+002, 1.679756e-001
5.920392e+002, 1.666628e-001
5.939677e+002, 1.637337e-001
5.958962e+002, 1.597776e-001
5.978246e+002, 1.561713e-001
5.997531e+002, 1.522253e-001
6.016816e+002, 1.476617e-001
6.036100e+002, 1.438903e-001
6.055385e+002, 1.405384e-001
6.074670e+002, 1.370092e-001
6.093954e+002, 1.342290e-001
6.113239e+002, 1.321593e-001
6.132524e+002, 1.304472e-001
6.151808e+002, 1.284576e-001
6.171093e+002, 1.270951e-001
6.190378e+002, 1.264867e-001
6.209662e+002, 1.260974e-001
6.228947e+002, 1.258839e-001
6.248232e+002, 1.258023e-001
6.267516e+002, 1.257296e-001
6.286801e+002, 1.244149e-001
6.306086e+002, 1.225267e-001
6.325370e+002, 1.205253e-001
6.344655e+002, 1.188299e-001
6.363940e+002, 1.173441e-001
6.383224e+002, 1.154883e-001
6.402509e+002, 1.129491e-001
6.421794e+002, 1.103632e-001
6.441078e+002, 1.079094e-001
6.460363e+002, 1.048691e-001
6.479648e+002, 1.015344e-001
6.498932e+002, 9.848879e-002
6.518217e+002, 9.666264e-002
6.537502e+002, 9.568358e-002
6.556786e+002, 9.432290e-002
6.576071e+002, 9.310968e-002
6.595356e+002, 9.155384e-002
6.614641e+002, 8.926080e-002
6.633925e+002, 8.702292e-002
6.653210e+002, 8.456246e-002
6.672495e+002, 8.151028e-002
6.691779e+002, 7.827841e-002
6.711064e+002, 7.591918e-002
6.730349e+002, 7.462401e-002
6.749633e+002, 7.414388e-002
6.768918e+002, 7.424206e-002
6.788203e+002, 7.373465e-002
6.807487e+002, 7.271831e-002
6.826772e+002, 7.198352e-002
6.846057e+002, 7.186861e-002
6.865341e+002, 7.240139e-002
6.884626e+002, 7.327097e-002
6.903911e+002, 7.509594e-002
6.923195e+002, 7.660432e-002
6.942480e+002, 7.777689e-002
6.961765e+002, 7.972933e-002
6.981049e+002, 8.218572e-002
7.000334e+002, 8.548433e-002
7.019619e+002, 8.977391e-002
7.038903e+002, 9.466091e-002
7.058188e+002, 9.984922e-002
7.077473e+002, 1.045126e-001
7.096757e+002, 1.080641e-001
7.116042e+002, 1.106427e-001
7.135327e+002, 1.122786e-001
7.154611e+002, 1.126193e-001
7.173896e+002, 1.116028e-001
7.193181e+002, 1.096050e-001
7.212465e+002, 1.058467e-001
7.231750e+002, 1.009052e-001
7.251035e+002, 9.494543e-002
7.270319e+002, 8.866180e-002
7.289604e+002, 8.273859e-002
7.308889e+002, 7.715860e-002
7.328173e+002, 7.281232e-002
7.347458e+002, 6.955728e-002
7.366743e+002, 6.726112e-002
7.386027e+002, 6.572510e-002
7.405312e+002, 6.482000e-002
7.424597e+002, 6.469003e-002
7.443881e+002, 6.497727e-002
7.463166e+002, 6.572711e-002
7.482451e+002, 6.730174e-002
7.501735e+002, 6.846252e-002
7.521020e+002, 6.848283e-002
7.540305e+002, 6.747609e-002
7.559589e+002, 6.585255e-002
7.578874e+002, 6.423652e-002
7.598159e+002, 6.309213e-002
7.617443e+002, 6.284911e-002
7.636728e+002, 6.353597e-002
7.656013e+002, 6.467648e-002
7.675297e+002, 6.667560e-002
7.694582e+002, 6.954058e-002
7.713867e+002, 7.374644e-002
7.733151e+002, 7.896239e-002
7.752436e+002, 8.484425e-002
7.771721e+002, 9.203061e-002
7.791005e+002, 9.860177e-002
7.810290e+002, 1.026292e-001
7.829575e+002, 1.040400e-001
7.848859e+002, 1.032155e-001
7.868144e+002, 1.005648e-001
7.887429e+002, 9.697045e-002
7.906713e+002, 9.260730e-002
7.925998e+002, 8.720250e-002
7.945283e+002, 8.051030e-002
7.964567e+002, 7.326521e-002
7.983852e+002, 6.602457e-002
8.003137e+002, 5.902442e-002
8.022421e+002, 5.256578e-002
8.041706e+002, 4.682120e-002
8.060991e+002, 4.241219e-002
8.080275e+002, 3.987305e-002
8.099560e+002, 3.806128e-002
8.118845e+002, 3.679523e-002
8.138129e+002, 3.597642e-002
8.157414e+002, 3.478343e-002
8.176699e+002, 3.429995e-002
8.195983e+002, 3.477255e-002
8.215268e+002, 3.523680e-002
8.234553e+002, 3.556274e-002
8.253837e+002, 3.619220e-002
8.273122e+002, 3.699665e-002
8.292407e+002, 3.802836e-002
8.311691e+002, 3.910661e-002
8.330976e+002, 3.971025e-002
8.350261e+002, 4.024433e-002
8.369545e+002, 4.091485e-002
8.388830e+002, 4.177301e-002
8.408115e+002, 4.219184e-002
8.427399e+002, 4.281920e-002
8.446684e+002, 4.381451e-002
8.465969e+002, 4.533721e-002
8.485253e+002, 4.698516e-002
8.504538e+002, 4.806459e-002
8.523823e+002, 4.953325e-002
8.543107e+002, 5.135278e-002
8.562392e+002, 5.295526e-002
8.581677e+002, 5.483995e-002
8.600961e+002, 5.671757e-002
8.620246e+002, 5.831734e-002
8.639531e+002, 5.921169e-002
8.658815e+002, 6.057387e-002
8.678100e+002, 6.228655e-002
8.697385e+002, 6.324466e-002
8.716669e+002, 6.396312e-002
8.735954e+002, 6.498950e-002
8.755239e+002, 6.576258e-002
8.774523e+002, 6.588127e-002
8.793808e+002, 6.591860e-002
8.813093e+002, 6.624813e-002
8.832377e+002, 6.658203e-002
8.851662e+002, 6.674603e-002
8.870947e+002, 6.710895e-002
8.890231e+002, 6.766750e-002
8.909516e+002, 6.852558e-002
8.928801e+002, 6.941272e-002
8.948085e+002, 6.994621e-002
8.967370e+002, 7.049301e-002
8.986655e+002, 7.093640e-002
9.005939e+002, 7.149602e-002
9.025224e+002, 7.239785e-002
9.044509e+002, 7.356356e-002
9.063793e+002, 7.564606e-002
9.083078e+002, 7.893680e-002
9.102363e+002, 8.263666e-002
9.121647e+002, 8.649839e-002
9.140932e+002, 9.091324e-002
9.160217e+002, 9.579171e-002
9.179501e+002, 1.009483e-001
9.198786e+002, 1.061974e-001
9.218071e+002, 1.122876e-001
9.237355e+002, 1.187961e-001
9.256640e+002, 1.252989e-001
9.275925e+002, 1.322189e-001
9.295209e+002, 1.394725e-001
9.314494e+002, 1.467459e-001
9.333779e+002, 1.542579e-001
9.353063e+002, 1.621621e-001
9.372348e+002, 1.704122e-001
9.391633e+002, 1.787936e-001
9.410917e+002, 1.870901e-001
9.430202e+002, 1.954264e-001
9.449487e+002, 2.040855e-001
9.468771e+002, 2.128446e-001
9.488056e+002, 2.212996e-001
9.507341e+002, 2.297197e-001
9.526625e+002, 2.379967e-001
9.545910e+002, 2.461788e-001
9.565195e+002, 2.537058e-001
9.584479e+002, 2.605233e-001
9.603764e+002, 2.665785e-001
9.623049e+002, 2.719477e-001
9.642333e+002, 2.768913e-001
9.661618e+002, 2.810207e-001
9.680903e+002, 2.837949e-001
9.700187e+002, 2.855142e-001
9.719472e+002, 2.863059e-001
9.738757e+002, 2.866061e-001
9.758041e+002, 2.863848e-001
9.777326e+002, 2.856314e-001
9.796611e+002, 2.849042e-001
9.815895e+002, 2.836531e-001
9.835180e+002, 2.819715e-001
9.854465e+002, 2.800829e-001
9.873749e+002, 2.780395e-001
9.893034e+002, 2.758486e-001
9.912319e+002, 2.728158e-001
9.931603e+002, 2.696128e-001
9.950888e+002, 2.658337e-001
9.970173e+002, 2.615696e-001
9.989457e+002, 2.570031e-001
1.000874e+003, 2.519612e-001
1.002803e+003, 2.466076e-001
1.004731e+003, 2.410899e-001
1.006660e+003, 2.354398e-001
1.008588e+003, 2.308921e-001
1.010517e+003, 2.265372e-001
1.012445e+003, 2.223065e-001
1.014373e+003, 2.186835e-001
1.016302e+003, 2.154474e-001
1.018230e+003, 2.124190e-001
1.020159e+003, 2.105766e-001
1.022087e+003, 2.090433e-001
1.024016e+003, 2.070060e-001
1.025944e+003, 2.055736e-001
1.027873e+003, 2.041778e-001
1.029801e+003, 2.017917e-001
1.031730e+003, 1.990654e-001
1.033658e+003, 1.954288e-001
1.035587e+003, 1.908180e-001
1.037515e+003, 1.860380e-001
1.039443e+003, 1.812688e-001
1.041372e+003, 1.762721e-001
1.043300e+003, 1.715734e-001
1.045229e+003, 1.668946e-001
1.047157e+003, 1.628588e-001
1.049086e+003, 1.599346e-001
1.051014e+003, 1.576738e-001
1.052943e+003, 1.553672e-001
1.054871e+003, 1.530639e-001
1.056800e+003, 1.507210e-001
1.058728e+003, 1.484908e-001
1.060657e+003, 1.465397e-001
1.062585e+003, 1.442432e-001
1.064514e+003, 1.420709e-001
1.066442e+003, 1.401964e-001
1.068370e+003, 1.380110e-001
1.070299e+003, 1.358688e-001
1.072227e+003, 1.333647e-001
1.074156e+003, 1.305561e-001
1.076084e+003, 1.276754e-001
1.078013e+003, 1.247830e-001
1.079941e+003, 1.219682e-001
1.081870e+003, 1.195910e-001
1.083798e+003, 1.177999e-001
1.085727e+003, 1.166621e-001
1.087655e+003, 1.162085e-001
1.089584e+003, 1.163084e-001
1.091512e+003, 1.162720e-001
1.093441e+003, 1.166623e-001
1.095369e+003, 1.173683e-001
1.097297e+003, 1.185464e-001
1.099226e+003, 1.194801e-001
1.101154e+003, 1.202412e-001
1.103083e+003, 1.209071e-001
1.105011e+003, 1.209874e-001
1.106940e+003, 1.204167e-001
1.108868e+003, 1.194656e-001
1.110797e+003, 1.179569e-001
1.112725e+003, 1.158327e-001
1.114654e+003, 1.129398e-001
1.116582e+003, 1.089270e-001
1.118511e+003, 1.044659e-001
1.120439e+003, 9.962659e-002
1.122368e+003, 9.505063e-002
1.124296e+003, 9.055461e-002
1.126224e+003, 8.606746e-002
1.128153e+003, 8.163150e-002
1.130081e+003, 7.721460e-002
1.132010e+003, 7.312068e-002
1.133938e+003, 6.911673e-002
1.135867e+003, 6.519453e-002
1.137795e+003, 6.159721e-002
1.139724e+003, 5.809299e-002
1.141652e+003, 5.447002e-002
1.143581e+003, 5.118106e-002
1.145509e+003, 4.761394e-002
1.147438e+003, 4.388510e-002
1.149366e+003, 3.971581e-002
1.151295e+003, 3.578175e-002
1.153223e+003, 3.246523e-002
1.155151e+003, 2.929589e-002
1.157080e+003, 2.683730e-002
1.159008e+003, 2.464365e-002
1.160937e+003, 2.251413e-002
1.162865e+003, 2.114849e-002
1.164794e+003, 1.993570e-002
1.166722e+003, 1.899017e-002
1.168651e+003, 1.821352e-002
1.170579e+003, 1.734924e-002
1.172508e+003, 1.749646e-002
1.174436e+003, 1.783419e-002
1.176365e+003, 1.808081e-002
1.178293e+003, 1.817767e-002
1.180222e+003, 1.828130e-002
1.182150e+003, 1.903401e-002
1.184078e+003, 1.998070e-002
1.186007e+003, 2.091065e-002
1.187935e+003, 2.181088e-002
1.189864e+003, 2.246064e-002
1.191792e+003, 2.246674e-002
1.193721e+003, 2.211697e-002
1.195649e+003, 2.202050e-002
1.197578e+003, 2.219774e-002
1.199506e+003, 2.197167e-002
1.201435e+003, 2.132915e-002
1.203363e+003, 2.101564e-002
1.205292e+003, 2.111459e-002
1.207220e+003, 2.135907e-002
1.209149e+003, 2.180856e-002
1.211077e+003, 2.252829e-002
1.213005e+003, 2.330734e-002
1.214934e+003, 2.378937e-002
1.216862e+003, 2.463599e-002
1.218791e+003, 2.592844e-002
1.220719e+003, 2.731590e-002
1.222648e+003, 2.885433e-002
1.224576e+003, 3.041729e-002
1.226505e+003, 3.256822e-002
1.228433e+003, 3.484872e-002
1.230362e+003, 3.758318e-002
1.232290e+003, 4.020901e-002
1.234219e+003, 4.308766e-002
1.236147e+003, 4.667238e-002
1.238076e+003, 5.041322e-002
1.240004e+003, 5.413570e-002
1.241932e+003, 5.794501e-002
1.243861e+003, 6.185620e-002
1.245789e+003, 6.586295e-002
1.247718e+003, 6.956742e-002
1.249646e+003, 7.301261e-002
1.251575e+003, 7.619153e-002
1.253503e+003, 7.861974e-002
1.255432e+003, 8.071436e-002
1.257360e+003, 8.276039e-002
1.259289e+003, 8.450276e-002
1.261217e+003, 8.668524e-002
1.263146e+003, 8.931990e-002
1.265074e+003, 9.144812e-002
1.267003e+003, 9.363676e-002
1.268931e+003, 9.636153e-002
1.270859e+003, 9.892257e-002
1.272788e+003, 1.009789e-001
1.274716e+003, 1.029922e-001
1.276645e+003, 1.049168e-001
1.278573e+003, 1.065350e-001
1.280502e+003, 1.079413e-001
1.282430e+003, 1.090926e-001
1.284359e+003, 1.095947e-001
1.286287e+003, 1.101957e-001
1.288216e+003, 1.111071e-001
1.290144e+003, 1.119973e-001
1.292073e+003, 1.127959e-001
1.294001e+003, 1.136532e-001
1.295930e+003, 1.146521e-001
1.297858e+003, 1.157197e-001
1.299786e+003, 1.163914e-001
1.301715e+003, 1.164965e-001
1.303643e+003, 1.159048e-001
1.305572e+003, 1.148220e-001
1.307500e+003, 1.136134e-001
1.309429e+003, 1.123671e-001
1.311357e+003, 1.107545e-001
1.313286e+003, 1.088464e-001
1.315214e+003, 1.070116e-001
1.317143e+003, 1.054382e-001
1.319071e+003, 1.036087e-001
1.321000e+003, 1.015442e-001
1.322928e+003, 9.959261e-002
1.324857e+003, 9.798720e-002
1.326785e+003, 9.654562e-002
1.328714e+003, 9.507514e-002
1.330642e+003, 9.354349e-002
1.332570e+003, 9.249928e-002
1.334499e+003, 9.185977e-002
1.336427e+003, 9.155937e-002
1.338356e+003, 9.126738e-002
1.340284e+003, 9.084074e-002
1.342213e+003, 9.070082e-002
1.344141e+003, 9.109446e-002
1.346070e+003, 9.115097e-002
1.347998e+003, 9.093269e-002
1.349927e+003, 9.097564e-002
1.351855e+003, 9.054425e-002
1.353784e+003, 8.984669e-002
1.355712e+003, 8.926227e-002
1.357641e+003, 8.801383e-002
1.359569e+003, 8.594976e-002
1.361497e+003, 8.332121e-002
1.363426e+003, 8.048603e-002
1.365354e+003, 7.725558e-002
1.367283e+003, 7.404159e-002
1.369211e+003, 7.127306e-002
1.371140e+003, 6.881917e-002
1.373068e+003, 6.623337e-002
1.374997e+003, 6.395738e-002
1.376925e+003, 6.130163e-002
1.378854e+003, 5.890829e-002
1.380782e+003, 5.722576e-002
1.382711e+003, 5.576123e-002
1.384639e+003, 5.416628e-002
1.386568e+003, 5.255010e-002
1.388496e+003, 5.114029e-002
1.390424e+003, 4.948623e-002
1.392353e+003, 4.734693e-002
1.394281e+003, 4.541274e-002
1.396210e+003, 4.348953e-002
1.398138e+003, 4.146437e-002
1.400067e+003, 3.941827e-002
1.401995e+003, 3.743014e-002
1.403924e+003, 3.594451e-002
1.405852e+003, 3.477318e-002
1.407781e+003, 3.323550e-002
1.409709e+003, 3.160751e-002
1.411638e+003, 3.009417e-002
1.413566e+003, 2.892341e-002
1.415495e+003, 2.774148e-002
1.417423e+003, 2.615963e-002
1.419351e+003, 2.466960e-002
1.421280e+003, 2.370176e-002
1.423208e+003, 2.284550e-002
1.425137e+003, 2.153882e-002
1.427065e+003, 2.001952e-002
1.428994e+003, 1.877089e-002
1.430922e+003, 1.758357e-002
1.432851e+003, 1.640397e-002
1.434779e+003, 1.565806e-002
1.436708e+003, 1.532393e-002
1.438636e+003, 1.515263e-002
1.440565e+003, 1.496318e-002
1.442493e+003, 1.475318e-002
1.444422e+003, 1.453922e-002
1.446350e+003, 1.425250e-002
1.448278e+003, 1.365766e-002
1.450207e+003, 1.286700e-002
1.452135e+003, 1.256111e-002
1.454064e+003, 1.269133e-002
1.455992e+003, 1.276984e-002
1.457921e+003, 1.300472e-002
1.459849e+003, 1.333602e-002
1.461778e+003, 1.350808e-002
1.463706e+003, 1.368272e-002
1.465635e+003, 1.363615e-002
1.467563e+003, 1.276113e-002
1.469492e+003, 1.154844e-002
1.471420e+003, 1.040367e-002
1.473349e+003, 9.147070e-003
1.475277e+003, 8.173939e-003
1.477205e+003, 7.512352e-003
1.479134e+003, 7.030693e-003
1.481062e+003, 6.812966e-003
1.482991e+003, 6.976996e-003
1.484919e+003, 6.705612e-003
1.486848e+003, 6.274414e-003
1.488776e+003, 6.071687e-003
1.490705e+003, 6.085685e-003
1.492633e+003, 5.750520e-003
1.494562e+003, 5.620169e-003
1.496490e+003, 5.615768e-003
1.498419e+003, 5.777868e-003
1.500347e+003, 6.114962e-003
1.502276e+003, 6.397422e-003
1.504204e+003, 6.352990e-003
1.506132e+003, 6.478206e-003
1.508061e+003, 6.546154e-003
1.509989e+003, 6.618859e-003
1.511918e+003, 6.610562e-003
1.513846e+003, 6.352487e-003
1.515775e+003, 5.963832e-003
1.517703e+003, 5.634658e-003
1.519632e+003, 5.517358e-003
1.521560e+003, 5.419031e-003
1.523489e+003, 5.051825e-003
1.525417e+003, 4.727152e-003
1.527346e+003, 4.711415e-003
1.529274e+003, 4.700625e-003
1.531203e+003, 4.474366e-003
1.533131e+003, 4.328945e-003
1.535059e+003, 4.269427e-003
1.536988e+003, 4.391609e-003
1.538916e+003, 4.225247e-003
1.540845e+003, 4.085105e-003
1.542773e+003, 4.151373e-003
1.544702e+003, 4.267348e-003
1.546630e+003, 4.082862e-003
1.548559e+003, 3.745368e-003
1.550487e+003, 3.298667e-003
1.552416e+003, 3.522490e-003
1.554344e+003, 3.993022e-003
1.556273e+003, 4.259564e-003
1.558201e+003, 4.109927e-003
1.560130e+003, 4.051098e-003
1.562058e+003, 4.081411e-003
1.563986e+003, 3.705614e-003
1.565915e+003, 3.462530e-003
1.567843e+003, 3.551648e-003
1.569772e+003, 3.654842e-003
1.571700e+003, 3.609962e-003
1.573629e+003, 3.344810e-003
1.575557e+003, 3.499435e-003
1.577486e+003, 3.648052e-003
1.579414e+003, 3.887200e-003
1.581343e+003, 4.289744e-003
1.583271e+003, 4.305269e-003
1.585200e+003, 4.225106e-003
1.587128e+003, 4.081263e-003
1.589057e+003, 4.162283e-003
1.590985e+003, 4.528330e-003
1.592913e+003, 4.627806e-003
1.594842e+003, 4.504521e-003
1.596770e+003, 4.315251e-003
1.598699e+003, 4.239235e-003
1.600627e+003, 4.575580e-003
1.602556e+003, 4.894539e-003
1.604484e+003, 4.780835e-003
1.606413e+003, 4.524184e-003
1.608341e+003, 4.519263e-003
1.610270e+003, 4.910039e-003
1.612198e+003, 4.875844e-003
1.614127e+003, 4.524000e-003
1.616055e+003, 4.821620e-003
1.617984e+003, 5.161751e-003
1.619912e+003, 5.317964e-003
1.621840e+003, 5.212330e-003
1.623769e+003, 5.198040e-003
1.625697e+003, 5.388139e-003
1.627626e+003, 5.247820e-003
1.629554e+003, 5.147212e-003
1.631483e+003, 5.267336e-003
1.633411e+003, 5.592716e-003
1.635340e+003, 5.381113e-003
1.637268e+003, 5.602095e-003
1.639197e+003, 5.592982e-003
1.641125e+003, 5.442012e-003
1.643054e+003, 5.889988e-003
1.644982e+003, 6.059426e-003
1.646911e+003, 5.545497e-003
1.648839e+003, 5.565315e-003
1.650767e+003, 5.576785e-003
1.652696e+003, 5.331630e-003
1.654624e+003, 5.232309e-003
1.656553e+003, 5.116947e-003
1.658481e+003, 5.118144e-003
1.660410e+003, 5.177566e-003
1.662338e+003, 5.435045e-003
1.664267e+003, 5.918995e-003
1.666195e+003, 6.009073e-003
1.668124e+003, 5.718812e-003
1.670052e+003, 5.503922e-003
1.671981e+003, 5.297852e-003
1.673909e+003, 5.399059e-003
1.675838e+003, 5.274668e-003
1.677766e+003, 4.843264e-003
1.679694e+003, 4.956690e-003
1.681623e+003, 5.576584e-003
1.683551e+003, 5.755397e-003
1.685480e+003, 5.817942e-003
1.687408e+003, 5.648336e-003
1.689337e+003, 5.074135e-003
1.691265e+003, 5.222364e-003
1.693194e+003, 5.363090e-003
1.695122e+003, 5.323089e-003
1.697051e+003, 5.131617e-003
1.698979e+003, 4.720235e-003
1.700908e+003, 4.942067e-003
1.702836e+003, 5.188543e-003
1.704765e+003, 5.334365e-003
1.706693e+003, 5.011366e-003
1.708621e+003, 4.577537e-003
1.710550e+003, 4.679829e-003
1.712478e+003, 4.667404e-003
1.714407e+003, 4.473131e-003
1.716335e+003, 4.443379e-003
1.718264e+003, 4.619925e-003
1.720192e+003, 4.388059e-003
1.722121e+003, 4.242269e-003
1.724049e+003, 4.605247e-003
1.725978e+003, 4.920898e-003
1.727906e+003, 4.630757e-003
1.729835e+003, 4.471408e-003
1.731763e+003, 3.931168e-003
1.733692e+003, 3.402168e-003
1.735620e+003, 3.501449e-003
1.737548e+003, 3.955528e-003
1.739477e+003, 4.031708e-003
1.741405e+003, 4.103122e-003
1.743334e+003, 4.531173e-003
1.745262e+003, 4.833632e-003
1.747191e+003, 4.599963e-003
1.749119e+003, 4.577053e-003
1.751048e+003, 4.179220e-003
1.752976e+003, 4.375176e-003
1.754905e+003, 4.725990e-003
1.756833e+003, 4.531944e-003
1.758762e+003, 4.435157e-003
1.760690e+003, 4.651644e-003
1.762619e+003, 4.377919e-003
1.764547e+003, 4.292748e-003
1.766475e+003, 4.328988e-003
1.768404e+003, 4.069948e-003
1.770332e+003, 4.160488e-003
1.772261e+003, 4.078412e-003
1.774189e+003, 4.018613e-003
1.776118e+003, 4.445896e-003
1.778046e+003, 4.353671e-003
1.779975e+003, 4.302287e-003
1.781903e+003, 4.396128e-003
1.783832e+003, 4.606584e-003
1.785760e+003, 4.789437e-003
1.787689e+003, 4.927588e-003
1.789617e+003, 4.442354e-003
1.791546e+003, 4.433648e-003
1.793474e+003, 4.554133e-003
1.795402e+003, 3.845253e-003
1.797331e+003, 3.190145e-003
1.799259e+003, 3.750353e-003
1.801188e+003, 4.520776e-003
1.803116e+003, 4.396552e-003
1.805045e+003, 4.216389e-003
1.806973e+003, 4.382776e-003
1.808902e+003, 4.554725e-003
1.810830e+003, 4.906484e-003
1.812759e+003, 5.061493e-003
1.814687e+003, 4.651426e-003
1.816616e+003, 4.350902e-003
1.818544e+003, 5.138779e-003
1.820473e+003, 5.201362e-003
1.822401e+003, 4.300522e-003
1.824329e+003, 3.978465e-003
1.826258e+003, 4.185639e-003
1.828186e+003, 4.423994e-003
1.830115e+003, 5.385554e-003
1.832043e+003, 5.478568e-003
1.833972e+003, 4.697494e-003
1.835900e+003, 4.828374e-003
1.837829e+003, 4.636321e-003
1.839757e+003, 4.208858e-003
1.841686e+003, 4.175359e-003
1.843614e+003, 4.264783e-003
1.845543e+003, 4.457877e-003
1.847471e+003, 4.790078e-003
1.849400e+003, 5.114339e-003
1.851328e+003, 5.858966e-003
1.853256e+003, 5.762521e-003
1.855185e+003, 4.950462e-003
1.857113e+003, 4.005928e-003
1.859042e+003, 3.504303e-003
1.860970e+003, 4.065436e-003
1.862899e+003, 3.887219e-003
1.864827e+003, 3.871376e-003
1.866756e+003, 4.349408e-003
1.868684e+003, 4.445975e-003
1.870613e+003, 3.892105e-003
1.872541e+003, 3.947303e-003
1.874470e+003, 4.477163e-003
1.876398e+003, 4.184625e-003
1.878327e+003, 3.774465e-003
1.880255e+003, 3.943907e-003
1.882183e+003, 4.107954e-003
1.884112e+003, 3.828929e-003
1.886040e+003, 3.885903e-003
1.887969e+003, 3.796669e-003
1.889897e+003, 4.805908e-003
1.891826e+003, 5.557308e-003
1.893754e+003, 4.546885e-003
1.895683e+003, 4.952488e-003
1.897611e+003, 4.458090e-003
1.899540e+003, 2.998590e-003
1.901468e+003, 2.934737e-003
1.903397e+003, 3.409942e-003
1.905325e+003, 4.467898e-003
1.907254e+003, 5.339711e-003
1.909182e+003, 4.296588e-003
1.911110e+003, 3.816998e-003
1.913039e+003, 4.182624e-003
1.914967e+003, 3.644582e-003
1.916896e+003, 3.123780e-003
1.918824e+003, 3.060875e-003
1.920753e+003, 1.858515e-003
1.922681e+003, 2.168250e-003
1.924610e+003, 4.441698e-003
1.926538e+003, 5.792192e-003
1.928467e+003, 4.076879e-003
1.930395e+003, 3.296989e-003
1.932324e+003, 3.867599e-003
1.934252e+003, 4.198666e-003
1.936181e+003, 4.180415e-003
1.938109e+003, 2.910155e-003
1.940037e+003, 2.199875e-003
1.941966e+003, 3.820707e-003
1.943894e+003, 4.128394e-003
1.945823e+003, 3.133515e-003
1.947751e+003, 2.967117e-003
1.949680e+003, 5.106619e-003
1.951608e+003, 6.208050e-003
1.953537e+003, 5.482254e-003
1.955465e+003, 2.823289e-003
1.957394e+003, 1.662921e-003
1.959322e+003, 3.109447e-003
1.961251e+003, 3.819090e-003
1.963179e+003, 2.230029e-003
1.965108e+003, 1.541745e-003
1.967036e+003, 3.071517e-003
1.968964e+003, 2.965717e-003
1.970893e+003, 5.139633e-004
1.972821e+003, 1.437553e-004
1.974750e+003, 1.754768e-003
1.976678e+003, 2.444882e-003
1.978607e+003, 2.153367e-003
1.980535e+003, 4.981940e-003
1.982464e+003, 9.026837e-003
1.984392e+003, 8.001109e-003
1.986321e+003, 6.150485e-003
1.988249e+003, 5.750356e-003
1.990178e+003, 4.777600e-003
1.992106e+003, 3.344207e-003
1.994035e+003, 2.349080e-003
1.995963e+003, 1.266074e-003
1.997891e+003, 6.283161e-004
1.999820e+003, 1.959924e-003
2.001748e+003, 2.386698e-003
2.003677e+003, 2.766146e-003
2.005605e+003, 3.774503e-003
2.007534e+003, 2.929767e-003
2.009462e+003, 2.524961e-003
2.011391e+003, 2.779135e-003
2.013319e+003, 2.620934e-003
2.015248e+003, 3.955360e-003
2.017176e+003, 2.508848e-003
2.019105e+003, -5.719856e-005
2.021033e+003, -1.038280e-003
2.022962e+003, -6.486002e-004
2.024890e+003, 1.500737e-003
2.026818e+003, 2.032290e-003
2.028747e+003, 1.608914e-003
2.030675e+003, 3.135237e-003
2.032604e+003, 3.426593e-003
2.034532e+003, 2.879145e-003
2.036461e+003, 6.862091e-003
2.038389e+003, 8.681616e-003
2.040318e+003, 9.404702e-003
2.042246e+003, 8.247558e-003
2.044175e+003, 7.729437e-003
2.046103e+003, 6.833230e-003
2.048031e+003, 5.503094e-003
2.049960e+003, 6.017935e-003
2.051888e+003, 4.992947e-003
2.053817e+003, 4.494521e-003
2.055745e+003, 3.783423e-003
2.057674e+003, 3.258414e-003
2.059602e+003, 3.358938e-003
2.061531e+003, 4.731870e-003
2.063459e+003, 6.736046e-003
2.065388e+003, 8.283823e-003
2.067316e+003, 9.872454e-003
2.069245e+003, 7.520732e-003
2.071173e+003, 4.241622e-003
2.073102e+003, 2.935518e-003
2.075030e+003, 4.583235e-003
2.076958e+003, 6.126916e-003
2.078887e+003, 6.838670e-003
2.080815e+003, 6.477176e-003
2.082744e+003, 5.316854e-003
2.084672e+003, 5.513425e-003
2.086601e+003, 6.442612e-003
2.088529e+003, 6.058635e-003
2.090458e+003, 4.221338e-003
2.092386e+003, 4.990406e-003
2.094315e+003, 6.197399e-003
2.096243e+003, 5.708682e-003
2.098172e+003, 6.973001e-003
2.100100e+003, 8.455004e-003
2.102029e+003, 7.182215e-003
2.103957e+003, 6.580738e-003
2.105885e+003, 6.441932e-003
2.107814e+003, 6.805338e-003
2.109742e+003, 7.852700e-003
2.111671e+003, 7.312978e-003
2.113599e+003, 6.137495e-003
2.115528e+003, 5.441653e-003
2.117456e+003, 5.348658e-003
2.119385e+003, 6.617888e-003
2.121313e+003, 8.513805e-003
2.123242e+003, 7.791265e-003
2.125170e+003, 3.927105e-003
2.127099e+003, 1.231814e-003
2.129027e+003, 2.051203e-003
2.130956e+003, 2.461601e-003
2.132884e+003, 2.147425e-003
2.134813e+003, 3.592080e-003
2.136741e+003, 3.386392e-003
2.138669e+003, 2.504830e-003
2.140598e+003, 2.489025e-003
2.142526e+003, 3.215031e-003
2.144455e+003, 3.847649e-003
2.146383e+003, 5.603439e-003
2.148312e+003, 5.518533e-003
2.150240e+003, 4.262038e-003
2.152169e+003, 1.372442e-003
2.154097e+003, 1.433573e-003
2.156026e+003, 2.351326e-003
2.157954e+003, 4.039245e-003
2.159883e+003, 7.482178e-003
2.161811e+003, 8.639254e-003
2.163740e+003, 5.967960e-003
2.165668e+003, 3.684412e-003
2.167596e+003, 3.078041e-003
2.169525e+003, 3.325517e-003
2.171453e+003, 4.763886e-003
2.173382e+003, 8.753087e-003
2.175310e+003, 9.759854e-003
2.177239e+003, 7.436575e-003
2.179167e+003, 5.369101e-003
2.181096e+003, 7.280632e-003
2.183024e+003, 7.829529e-003
2.184953e+003, 8.728374e-003
2.186881e+003, 7.700977e-003
2.188810e+003, 5.438591e-003
2.190738e+003, 6.261165e-003
2.192667e+003, 7.106671e-003
2.194595e+003, 6.424082e-003
2.196523e+003, 5.613754e-003
2.198452e+003, 6.525579e-003
2.200380e+003, 6.928448e-003
2.202309e+003, 5.691594e-003
2.204237e+003, 6.029093e-003
2.206166e+003, 5.709798e-003
2.208094e+003, 6.311506e-003
2.210023e+003, 6.423388e-003
2.211951e+003, 4.977524e-003
2.213880e+003, 4.290544e-003
2.215808e+003, 4.689351e-003
2.217737e+003, 4.942975e-003
2.219665e+003, 5.173362e-003
2.221594e+003, 4.369527e-003
2.223522e+003, 4.810070e-003
2.225450e+003, 7.024693e-003
2.227379e+003, 7.110402e-003
2.229307e+003, 9.179342e-003
2.231236e+003, 9.223479e-003
2.233164e+003, 7.756996e-003
2.235093e+003, 7.161960e-003
2.237021e+003, 4.551181e-003
2.238950e+003, 6.007138e-003
2.240878e+003, 7.729304e-003
2.242807e+003, 6.261354e-003
2.244735e+003, 5.803859e-003
2.246664e+003, 6.254815e-003
2.248592e+003, 4.961948e-003
2.250521e+003, 6.219249e-003
2.252449e+003, 6.315840e-003
2.254377e+003, 7.795594e-003
2.256306e+003, 1.010467e-002
2.258234e+003, 8.227313e-003
2.260163e+003, 7.321737e-003
2.262091e+003, 7.876666e-003
2.264020e+003, 7.787198e-003
2.265948e+003, 8.290093e-003
2.267877e+003, 9.096646e-003
2.269805e+003, 8.168453e-003
2.271734e+003, 8.039393e-003
2.273662e+003, 1.003923e-002
2.275591e+003, 1.030089e-002
2.277519e+003, 1.083820e-002
2.279448e+003, 1.154433e-002
2.281376e+003, 1.108265e-002
2.283304e+003, 9.800134e-003
2.285233e+003, 8.700507e-003
2.287161e+003, 9.669063e-003
2.289090e+003, 9.822516e-003
2.291018e+003, 9.907073e-003
2.292947e+003, 1.053654e-002
2.294875e+003, 9.751352e-003
2.296804e+003, 9.389963e-003
2.298732e+003, 1.010199e-002
2.300661e+003, 1.034883e-002
2.302589e+003, 9.820958e-003
2.304518e+003, 1.025655e-002
2.306446e+003, 1.044335e-002
2.308375e+003, 1.009554e-002
2.310303e+003, 9.371050e-003
2.312231e+003, 8.542870e-003
2.314160e+003, 9.208620e-003
2.316088e+003, 1.016501e-002
2.318017e+003, 9.525612e-003
2.319945e+003, 9.887378e-003
2.321874e+003, 1.136154e-002
2.323802e+003, 1.164005e-002
2.325731e+003, 1.014786e-002
2.327659e+003, 8.774430e-003
2.329588e+003, 8.977386e-003
2.331516e+003, 9.097371e-003
2.333445e+003, 8.668656e-003
2.335373e+003, 8.843943e-003
2.337302e+003, 9.054229e-003
2.339230e+003, 8.792796e-003
2.341158e+003, 9.097894e-003
2.343087e+003, 9.382022e-003
2.345015e+003, 9.273769e-003
2.346944e+003, 9.749763e-003
2.348872e+003, 9.874623e-003
2.350801e+003, 9.565823e-003
2.352729e+003, 8.734637e-003
2.354658e+003, 8.710242e-003
2.356586e+003, 7.862495e-003
2.358515e+003, 7.857195e-003
2.360443e+003, 9.275034e-003
2.362372e+003, 9.429064e-003
2.364300e+003, 8.652605e-003
2.366229e+003, 7.591165e-003
2.368157e+003, 8.012676e-003
2.370085e+003, 9.035287e-003
2.372014e+003, 8.726807e-003
2.373942e+003, 8.287702e-003
2.375871e+003, 8.824838e-003
2.377799e+003, 9.445478e-003
2.379728e+003, 9.286364e-003
2.381656e+003, 8.716124e-003
2.383585e+003, 8.506169e-003
2.385513e+003, 9.447404e-003
2.387442e+003, 1.006696e-002
2.389370e+003, 9.925293e-003
2.391299e+003, 9.992981e-003
2.393227e+003, 1.024775e-002
2.395156e+003, 9.789890e-003
2.397084e+003, 9.159446e-003
2.399012e+003, 8.138306e-003
2.400941e+003, 9.065603e-003
2.402869e+003, 9.955888e-003
2.404798e+003, 1.033455e-002
2.406726e+003, 9.464944e-003
2.408655e+003, 9.324839e-003
2.410583e+003, 1.000131e-002
2.412512e+003, 1.079849e-002
2.414440e+003, 1.117164e-002
2.416369e+003, 1.020874e-002
2.418297e+003, 9.706868e-003
2.420226e+003, 1.043908e-002
2.422154e+003, 9.828548e-003
2.424083e+003, 8.234362e-003
2.426011e+003, 8.277937e-003
2.427939e+003, 9.282378e-003
2.429868e+003, 1.067771e-002
2.431796e+003, 1.099252e-002
2.433725e+003, 1.019527e-002
2.435653e+003, 9.397930e-003
2.437582e+003, 9.399178e-003
2.439510e+003, 1.022245e-002
2.441439e+003, 1.040190e-002
2.443367e+003, 9.645316e-003
2.445296e+003, 9.501515e-003
2.447224e+003, 1.041910e-002
2.449153e+003, 1.040052e-002
2.451081e+003, 1.021058e-002
2.453010e+003, 9.109638e-003
2.454938e+003, 8.822970e-003
2.456866e+003, 1.049838e-002
2.458795e+003, 1.083273e-002
2.460723e+003, 1.000563e-002
2.462652e+003, 1.056274e-002
2.464580e+003, 1.016260e-002
2.466509e+003, 9.629873e-003
2.468437e+003, 1.035316e-002
2.470366e+003, 1.038993e-002
2.472294e+003, 1.015232e-002
2.474223e+003, 1.050706e-002
2.476151e+003, 1.117926e-002
2.478080e+003, 1.118498e-002
2.480008e+003, 1.041919e-002
2.481937e+003, 9.423528e-003
2.483865e+003, 9.901610e-003
2.485793e+003, 1.013475e-002
2.487722e+003, 9.087998e-003
2.489650e+003, 9.359534e-003
2.491579e+003, 8.474872e-003
2.493507e+003, 7.751986e-003
2.495436e+003, 8.657672e-003
2.497364e+003, 9.475092e-003
2.499293e+003, 9.024716e-003
2.501221e+003, 8.839741e-003
2.503150e+003, 9.790670e-003
2.505078e+003, 1.077523e-002
2.507007e+003, 8.360004e-003
2.508935e+003, 7.216686e-003
2.510864e+003, 8.899485e-003
2.512792e+003, 9.713210e-003
2.514720e+003, 1.014167e-002
2.516649e+003, 8.898721e-003
2.518577e+003, 8.373782e-003
2.520506e+003, 1.026701e-002
2.522434e+003, 1.038505e-002
2.524363e+003, 1.020015e-002
2.526291e+003, 9.474061e-003
2.528220e+003, 8.647543e-003
2.530148e+003, 8.299817e-003
2.532077e+003, 8.895081e-003
2.534005e+003, 8.066992e-003
2.535934e+003, 8.241246e-003
2.537862e+003, 9.720105e-003
2.539791e+003, 1.045073e-002
2.541719e+003, 9.907027e-003
2.543647e+003, 1.003863e-002
2.545576e+003, 9.358719e-003
2.547504e+003, 7.996287e-003
2.549433e+003, 8.066498e-003
2.551361e+003, 9.262343e-003
2.553290e+003, 9.130978e-003
2.555218e+003, 8.176742e-003
2.557147e+003, 7.739411e-003
2.559075e+003, 6.974484e-003
2.561004e+003, 6.112254e-003
2.562932e+003, 6.610767e-003
2.564861e+003, 7.739994e-003
2.566789e+003, 8.694093e-003
2.568718e+003, 9.061639e-003
2.570646e+003, 8.876022e-003
2.572574e+003, 8.888952e-003
2.574503e+003, 1.021102e-002
2.576431e+003, 9.891856e-003
2.578360e+003, 9.199184e-003
2.580288e+003, 1.052226e-002
2.582217e+003, 1.135246e-002
2.584145e+003, 1.091264e-002
2.586074e+003, 1.085849e-002
2.588002e+003, 1.109459e-002
2.589931e+003, 1.039848e-002
2.591859e+003, 9.755815e-003
2.593788e+003, 9.328058e-003
2.595716e+003, 8.966052e-003
2.597645e+003, 9.587560e-003
2.599573e+003, 1.004301e-002
2.601501e+003, 1.016562e-002
2.603430e+003, 1.040070e-002
2.605358e+003, 1.062606e-002
2.607287e+003, 1.122411e-002
2.609215e+003, 1.077209e-002
2.611144e+003, 1.112145e-002
2.613072e+003, 1.158223e-002
2.615001e+003, 1.078819e-002
2.616929e+003, 1.097220e-002
2.618858e+003, 1.101025e-002
2.620786e+003, 1.075350e-002
2.622715e+003, 1.056115e-002
2.624643e+003, 1.087688e-002
2.626572e+003, 1.127320e-002
2.628500e+003, 1.191601e-002
2.630428e+003, 1.201556e-002
2.632357e+003, 1.201758e-002
2.634285e+003, 1.212994e-002
2.636214e+003, 1.178991e-002
2.638142e+003, 1.114076e-002
2.640071e+003, 1.097349e-002
2.641999e+003, 1.158982e-002
2.643928e+003, 1.163235e-002
2.645856e+003, 1.128355e-002
2.647785e+003, 1.131277e-002
2.649713e+003, 1.090135e-002
2.651642e+003, 1.110692e-002
2.653570e+003, 1.143268e-002
2.655499e+003, 1.155874e-002
2.657427e+003, 1.245721e-002
2.659355e+003, 1.195270e-002
2.661284e+003, 1.134685e-002
2.663212e+003, 1.077607e-002
2.665141e+003, 1.066943e-002
2.667069e+003, 1.080889e-002
2.668998e+003, 1.070620e-002
2.670926e+003, 1.031019e-002
2.672855e+003, 1.056481e-002
2.674783e+003, 1.160446e-002
2.676712e+003, 1.225655e-002
2.678640e+003, 1.213515e-002
2.680569e+003, 1.170348e-002
2.682497e+003, 1.071353e-002
2.684426e+003, 1.049997e-002
2.686354e+003, 1.098327e-002
2.688282e+003, 1.101678e-002
2.690211e+003, 1.075072e-002
2.692139e+003, 1.051322e-002
2.694068e+003, 1.186521e-002
2.695996e+003, 1.221766e-002
2.697925e+003, 1.090687e-002
2.699853e+003, 1.068074e-002
2.701782e+003, 1.111485e-002
2.703710e+003, 1.128070e-002
2.705639e+003, 1.104157e-002
2.707567e+003, 1.016872e-002
2.709496e+003, 1.069551e-002
2.711424e+003, 1.148978e-002
2.713353e+003, 1.170487e-002
2.715281e+003, 1.144198e-002
2.717209e+003, 1.138502e-002
2.719138e+003, 1.198464e-002
2.721066e+003, 1.215026e-002
2.722995e+003, 1.164413e-002
2.724923e+003, 1.127158e-002
2.726852e+003, 1.126861e-002
2.728780e+003, 1.112525e-002
2.730709e+003, 1.172665e-002
2.732637e+003, 1.245874e-002
2.734566e+003, 1.189347e-002
2.736494e+003, 1.162348e-002
2.738423e+003, 1.116923e-002
2.740351e+003, 1.099444e-002
2.742280e+003, 1.148804e-002
2.744208e+003, 1.154359e-002
2.746136e+003, 1.150631e-002
2.748065e+003, 1.169065e-002
2.749993e+003, 1.224610e-002
2.751922e+003, 1.276644e-002
2.753850e+003, 1.238008e-002
2.755779e+003, 1.173435e-002
2.757707e+003, 1.125213e-002
2.759636e+003, 1.188291e-002
2.761564e+003, 1.246515e-002
2.763493e+003, 1.256314e-002
2.765421e+003, 1.240747e-002
2.767350e+003, 1.273848e-002
2.769278e+003, 1.246928e-002
2.771207e+003, 1.255005e-002
2.773135e+003, 1.327737e-002
2.775063e+003, 1.310719e-002
2.776992e+003, 1.328932e-002
2.778920e+003, 1.351716e-002
2.780849e+003, 1.273022e-002
2.782777e+003, 1.268025e-002
2.784706e+003, 1.394370e-002
2.786634e+003, 1.370484e-002
2.788563e+003, 1.275993e-002
2.790491e+003, 1.322473e-002
2.792420e+003, 1.316316e-002
2.794348e+003, 1.298526e-002
2.796277e+003, 1.386462e-002
2.798205e+003, 1.443409e-002
2.800134e+003, 1.462488e-002
2.802062e+003, 1.452304e-002
2.803990e+003, 1.350420e-002
2.805919e+003, 1.276983e-002
2.807847e+003, 1.325366e-002
2.809776e+003, 1.408496e-002
2.811704e+003, 1.388109e-002
2.813633e+003, 1.401999e-002
2.815561e+003, 1.370973e-002
2.817490e+003, 1.367494e-002
2.819418e+003, 1.408699e-002
2.821347e+003, 1.413720e-002
2.823275e+003, 1.379743e-002
2.825204e+003, 1.287765e-002
2.827132e+003, 1.329081e-002
2.829061e+003, 1.407050e-002
2.830989e+003, 1.399100e-002
2.832917e+003, 1.464534e-002
2.834846e+003, 1.518555e-002
2.836774e+003, 1.582781e-002
2.838703e+003, 1.557440e-002
2.840631e+003, 1.462665e-002
2.842560e+003, 1.519044e-002
2.844488e+003, 1.575333e-002
2.846417e+003, 1.513887e-002
2.848345e+003, 1.540492e-002
2.850274e+003, 1.654701e-002
2.852202e+003, 1.650802e-002
2.854131e+003, 1.575626e-002
2.856059e+003, 1.550720e-002
2.857988e+003, 1.536819e-002
2.859916e+003, 1.581248e-002
2.861844e+003, 1.619669e-002
2.863773e+003, 1.591059e-002
2.865701e+003, 1.640834e-002
2.867630e+003, 1.617880e-002
2.869558e+003, 1.596797e-002
2.871487e+003, 1.598622e-002
2.873415e+003, 1.624144e-002
2.875344e+003, 1.693038e-002
2.877272e+003, 1.629280e-002
2.879201e+003, 1.588983e-002
2.881129e+003, 1.537539e-002
2.883058e+003, 1.416147e-002
2.884986e+003, 1.509659e-002
2.886915e+003, 1.675905e-002
2.888843e+003, 1.580268e-002
2.890771e+003, 1.474264e-002
2.892700e+003, 1.603762e-002
2.894628e+003, 1.675367e-002
2.896557e+003, 1.598318e-002
2.898485e+003, 1.627330e-002
2.900414e+003, 1.734826e-002
2.902342e+003, 1.764842e-002
2.904271e+003, 1.762317e-002
2.906199e+003, 1.783575e-002
2.908128e+003, 1.776031e-002
2.910056e+003, 1.751171e-002
2.911985e+003, 1.654137e-002
2.913913e+003, 1.694004e-002
2.915842e+003, 1.749196e-002
2.917770e+003, 1.820909e-002
2.919698e+003, 1.819502e-002
2.921627e+003, 1.708702e-002
2.923555e+003, 1.711215e-002
2.925484e+003, 1.905784e-002
2.927412e+003, 2.029341e-002
2.929341e+003, 1.994311e-002
2.931269e+003, 1.908794e-002
2.933198e+003, 1.885141e-002
2.935126e+003, 1.874192e-002
2.937055e+003, 1.826626e-002
2.938983e+003, 1.948104e-002
2.940912e+003, 2.026858e-002
2.942840e+003, 1.943987e-002
2.944769e+003, 1.927935e-002
2.946697e+003, 1.920030e-002
2.948625e+003, 1.786170e-002
2.950554e+003, 1.727215e-002
2.952482e+003, 1.754554e-002
2.954411e+003, 1.776125e-002
2.956339e+003, 1.752586e-002
2.958268e+003, 1.777689e-002
2.960196e+003, 1.793696e-002
2.962125e+003, 1.781002e-002
2.964053e+003, 1.835667e-002
2.965982e+003, 1.919856e-002
2.967910e+003, 2.042518e-002
2.969839e+003, 2.091532e-002
2.971767e+003, 1.933037e-002
2.973696e+003, 1.897480e-002
2.975624e+003, 1.954602e-002
2.977552e+003, 1.926235e-002
2.979481e+003, 1.916921e-002
2.981409e+003, 1.889190e-002
2.983338e+003, 1.916323e-002
2.985266e+003, 1.909199e-002
2.987195e+003, 1.945383e-002
2.989123e+003, 2.007790e-002
2.991052e+003, 2.012488e-002
2.992980e+003, 1.966577e-002
2.994909e+003, 1.993719e-002
2.996837e+003, 2.012992e-002
2.998766e+003, 2.065337e-002
3.000694e+003, 1.966639e-002
3.002623e+003, 1.929084e-002
3.004551e+003, 2.064781e-002
3.006479e+003, 2.049924e-002
3.008408e+003, 1.956395e-002
3.010336e+003, 2.023295e-002
3.012265e+003, 1.942673e-002
3.014193e+003, 1.964608e-002
3.016122e+003, 1.988662e-002
3.018050e+003, 1.908877e-002
3.019979e+003, 1.915620e-002
3.021907e+003, 1.956423e-002
3.023836e+003, 1.932697e-002
3.025764e+003, 1.913379e-002
3.027693e+003, 1.980627e-002
3.029621e+003, 1.979555e-002
3.031550e+003, 1.863601e-002
3.033478e+003, 1.922275e-002
3.035406e+003, 2.046693e-002
3.037335e+003, 2.065258e-002
3.039263e+003, 2.023757e-002
3.041192e+003, 2.047380e-002
3.043120e+003, 1.829087e-002
3.045049e+003, 1.736879e-002
3.046977e+003, 1.909769e-002
3.048906e+003, 1.943482e-002
3.050834e+003, 1.975828e-002
3.052763e+003, 2.031184e-002
3.054691e+003, 2.234907e-002
3.056620e+003, 2.408737e-002
3.058548e+003, 2.219282e-002
3.060477e+003, 2.021665e-002
3.062405e+003, 1.922012e-002
3.064333e+003, 1.931577e-002
3.066262e+003, 2.049369e-002
3.068190e+003, 2.030765e-002
3.070119e+003, 2.030214e-002
3.072047e+003, 2.147220e-002
3.073976e+003, 2.227835e-002
3.075904e+003, 2.165556e-002
3.077833e+003, 2.053809e-002
3.079761e+003, 2.049293e-002
3.081690e+003, 2.141218e-002
3.083618e+003, 2.237068e-002
3.085547e+003, 2.158557e-002
3.087475e+003, 2.192814e-002
3.089404e+003, 2.198554e-002
3.091332e+003, 2.173118e-002
3.093260e+003, 2.103358e-002
3.095189e+003, 2.233366e-002
3.097117e+003, 2.482164e-002
3.099046e+003, 2.322278e-002
3.100974e+003, 2.111776e-002
3.102903e+003, 2.152175e-002
3.104831e+003, 2.263211e-002
3.106760e+003, 2.332918e-002
3.108688e+003, 2.260953e-002
3.110617e+003, 2.255355e-002
3.112545e+003, 2.326088e-002
3.114474e+003, 2.302555e-002
3.116402e+003, 2.184738e-002
3.118331e+003, 2.057448e-002
3.120259e+003, 2.144864e-002
3.122188e+003, 2.317129e-002
3.124116e+003, 2.226539e-002
3.126044e+003, 2.110269e-002
3.127973e+003, 1.942598e-002
3.129901e+003, 1.884928e-002
3.131830e+003, 2.068240e-002
3.133758e+003, 2.209496e-002
3.135687e+003, 2.237933e-002
3.137615e+003, 2.317200e-002
3.139544e+003, 2.339915e-002
3.141472e+003, 2.324887e-002
3.143401e+003, 2.171491e-002
3.145329e+003, 2.187130e-002
3.147258e+003, 2.149015e-002
3.149186e+003, 2.248894e-002
3.151115e+003, 2.370410e-002
3.153043e+003, 2.218197e-002
3.154971e+003, 2.192635e-002
3.156900e+003, 2.263824e-002
3.158828e+003, 2.288586e-002
3.160757e+003, 2.269795e-002
3.162685e+003, 2.237613e-002
3.164614e+003, 2.447945e-002
3.166542e+003, 2.367616e-002
3.168471e+003, 2.399319e-002
3.170399e+003, 2.380995e-002
3.172328e+003, 2.302674e-002
3.174256e+003, 2.389242e-002
3.176185e+003, 2.294173e-002
3.178113e+003, 2.371543e-002
3.180042e+003, 2.546659e-002
3.181970e+003, 2.561768e-002
3.183898e+003, 2.437864e-002
3.185827e+003, 2.407242e-002
3.187755e+003, 2.454793e-002
3.189684e+003, 2.487049e-002
3.191612e+003, 2.668559e-002
3.193541e+003, 2.635829e-002
3.195469e+003, 2.496400e-002
3.197398e+003, 2.448750e-002
3.199326e+003, 2.421768e-002
3.201255e+003, 2.242262e-002
3.203183e+003, 2.271638e-002
3.205112e+003, 2.475758e-002
3.207040e+003, 2.480590e-002
3.208969e+003, 2.506740e-002
3.210897e+003, 2.486465e-002
3.212825e+003, 2.549049e-002
3.214754e+003, 2.533754e-002
3.216682e+003, 2.331401e-002
3.218611e+003, 2.304944e-002
3.220539e+003, 2.297646e-002
3.222468e+003, 2.335996e-002
3.224396e+003, 2.270545e-002
3.226325e+003, 2.240800e-002
3.228253e+003, 2.349273e-002
3.230182e+003, 2.563026e-002
3.232110e+003, 2.517512e-002
3.234039e+003, 2.554726e-002
3.235967e+003, 2.618567e-002
3.237896e+003, 2.402030e-002
3.239824e+003, 2.333177e-002
3.241752e+003, 2.425020e-002
3.243681e+003, 2.497674e-002
3.245609e+003, 2.548754e-002
3.247538e+003, 2.544637e-002
3.249466e+003, 2.572275e-002
3.251395e+003, 2.630524e-002
3.253323e+003, 2.599987e-002
3.255252e+003, 2.516497e-002
3.257180e+003, 2.660441e-002
3.259109e+003, 2.685610e-002
3.261037e+003, 2.693289e-002
3.262966e+003, 2.680723e-002
3.264894e+003, 2.720700e-002
3.266823e+003, 2.767476e-002
3.268751e+003, 2.669903e-002
3.270679e+003, 2.543516e-002
3.272608e+003, 2.596889e-002
3.274536e+003, 2.758777e-002
3.276465e+003, 2.816920e-002
3.278393e+003, 2.619601e-002
3.280322e+003, 2.606408e-002
3.282250e+003, 2.733245e-002
3.284179e+003, 2.694236e-002
3.286107e+003, 2.717501e-002
3.288036e+003, 2.644075e-002
3.289964e+003, 2.682642e-002
3.291893e+003, 2.744989e-002
3.293821e+003, 2.569691e-002
3.295750e+003, 2.504480e-002
3.297678e+003, 2.501765e-002
3.299606e+003, 2.510259e-002
3.301535e+003, 2.587125e-002
3.303463e+003, 2.559997e-002
3.305392e+003, 2.599504e-002
3.307320e+003, 2.614992e-002
3.309249e+003, 2.635881e-002
3.311177e+003, 2.530451e-002
3.313106e+003, 2.417675e-002
3.315034e+003, 2.484487e-002
3.316963e+003, 2.506542e-002
3.318891e+003, 2.509577e-002
3.320820e+003, 2.702700e-002
3.322748e+003, 2.711506e-002
3.324677e+003, 2.623162e-002
3.326605e+003, 2.674506e-002
3.328533e+003, 2.751462e-002
3.330462e+003, 2.627446e-002
3.332390e+003, 2.579761e-002
3.334319e+003, 2.420493e-002
3.336247e+003, 2.351319e-002
3.338176e+003, 2.525622e-002
3.340104e+003, 2.816049e-002
3.342033e+003, 2.885468e-002
3.343961e+003, 2.895102e-002
3.345890e+003, 2.996804e-002
3.347818e+003, 2.990718e-002
3.349747e+003, 2.834567e-002
3.351675e+003, 2.747741e-002
3.353604e+003, 2.615697e-002
3.355532e+003, 2.703177e-002
3.357460e+003, 2.736625e-002
3.359389e+003, 2.708450e-002
3.361317e+003, 2.814835e-002
3.363246e+003, 2.746654e-002
3.365174e+003, 2.618943e-002
3.367103e+003, 2.613936e-002
3.369031e+003, 2.650485e-002
3.370960e+003, 2.727109e-002
3.372888e+003, 2.668394e-002
3.374817e+003, 2.540248e-002
3.376745e+003, 2.504000e-002
3.378674e+003, 2.556775e-002
3.380602e+003, 2.660318e-002
3.382531e+003, 2.705039e-002
3.384459e+003, 2.617604e-002
3.386387e+003, 2.621574e-002
3.388316e+003, 2.817415e-002
3.390244e+003, 2.857395e-002
3.392173e+003, 2.876772e-002
3.394101e+003, 2.947185e-002
3.396030e+003, 3.038347e-002
3.397958e+003, 2.940610e-002
3.399887e+003, 2.899455e-002
3.401815e+003, 2.951503e-002
3.403744e+003, 2.853433e-002
3.405672e+003, 2.784039e-002
3.407601e+003, 2.874913e-002
3.409529e+003, 3.009479e-002
3.411458e+003, 3.099502e-002
3.413386e+003, 3.083677e-002
3.415314e+003, 2.997033e-002
3.417243e+003, 3.080410e-002
3.419171e+003, 3.175047e-002
3.421100e+003, 3.180138e-002
3.423028e+003, 3.178791e-002
3.424957e+003, 3.248210e-002
3.426885e+003, 3.360923e-002
3.428814e+003, 3.489346e-002
3.430742e+003, 3.456891e-002
3.432671e+003, 3.490919e-002
3.434599e+003, 3.639309e-002
3.436528e+003, 3.877019e-002
3.438456e+003, 4.085692e-002
3.440385e+003, 4.015037e-002
3.442313e+003, 3.986933e-002
3.444241e+003, 3.929861e-002
3.446170e+003, 3.967444e-002
3.448098e+003, 4.240327e-002
3.450027e+003, 4.542234e-002
3.451955e+003, 4.437819e-002
3.453884e+003, 4.325410e-002
3.455812e+003, 4.219956e-002
3.457741e+003, 4.201349e-002
3.459669e+003, 4.155580e-002
3.461598e+003, 4.184652e-002
3.463526e+003, 4.308302e-002
3.465455e+003, 4.439893e-002
3.467383e+003, 4.359628e-002
3.469312e+003, 4.053330e-002
3.471240e+003, 3.989491e-002
3.473168e+003, 4.004860e-002
3.475097e+003, 3.952998e-002
3.477025e+003, 3.921525e-002
3.478954e+003, 4.012384e-002
3.480882e+003, 4.035632e-002
3.482811e+003, 3.924817e-002
3.484739e+003, 3.544072e-002
3.486668e+003, 3.291210e-002
3.488596e+003, 3.167178e-002
3.490525e+003, 3.207871e-002
3.492453e+003, 3.389937e-002
3.494382e+003, 3.454894e-002
3.496310e+003, 3.338001e-002
3.498239e+003, 3.382906e-002
3.500167e+003, 3.404908e-002
3.502095e+003, 3.156093e-002
3.504024e+003, 3.038760e-002
3.505952e+003, 2.978832e-002
3.507881e+003, 2.869961e-002
3.509809e+003, 2.822994e-002
3.511738e+003, 2.855189e-002
3.513666e+003, 2.824496e-002
3.515595e+003, 2.762966e-002
3.517523e+003, 2.753671e-002
3.519452e+003, 2.662251e-002
3.521380e+003, 2.484501e-002
3.523309e+003, 2.374119e-002
3.525237e+003, 2.538422e-002
3.527166e+003, 2.665613e-002
3.529094e+003, 2.657944e-002
3.531022e+003, 2.547025e-002
3.532951e+003, 2.562104e-002
3.534879e+003, 2.536565e-002
3.536808e+003, 2.603157e-002
3.538736e+003, 2.623718e-002
3.540665e+003, 2.263245e-002
3.542593e+003, 2.166627e-002
3.544522e+003, 2.446764e-002
3.546450e+003, 2.525898e-002
3.548379e+003, 2.616780e-002
3.550307e+003, 2.858516e-002
3.552236e+003, 3.070208e-002
3.554164e+003, 2.981215e-002
3.556093e+003, 2.953753e-002
3.558021e+003, 2.932092e-002
3.559949e+003, 2.851788e-002
3.561878e+003, 2.942620e-002
3.563806e+003, 3.133773e-002
3.565735e+003, 3.275326e-002
3.567663e+003, 3.152039e-002
3.569592e+003, 3.227234e-002
3.571520e+003, 3.548535e-002
3.573449e+003, 3.639565e-002
3.575377e+003, 3.383724e-002
3.577306e+003, 3.266791e-002
3.579234e+003, 3.619660e-002
3.581163e+003, 3.838411e-002
3.583091e+003, 3.489157e-002
3.585020e+003, 3.383587e-002
3.586948e+003, 3.510794e-002
3.588876e+003, 3.731430e-002
3.590805e+003, 3.879565e-002
3.592733e+003, 3.606690e-002
3.594662e+003, 3.140743e-002
3.596590e+003, 2.850481e-002
3.598519e+003, 2.747335e-002
3.600447e+003, 2.740783e-002
3.602376e+003, 2.604174e-002
3.604304e+003, 2.535167e-002
3.606233e+003, 2.710631e-002
3.608161e+003, 2.583171e-002
3.610090e+003, 2.237061e-002
3.612018e+003, 2.404408e-002
3.613947e+003, 2.385156e-002
3.615875e+003, 1.918630e-002
3.617803e+003, 1.866707e-002
3.619732e+003, 1.809710e-002
3.621660e+003, 1.713629e-002
3.623589e+003, 1.807132e-002
3.625517e+003, 1.940675e-002
3.627446e+003, 1.942814e-002
3.629374e+003, 2.089561e-002
3.631303e+003, 2.167760e-002
3.633231e+003, 2.139792e-002
3.635160e+003, 2.125411e-002
3.637088e+003, 1.778078e-002
3.639017e+003, 1.786496e-002
3.640945e+003, 2.156271e-002
3.642874e+003, 2.323764e-002
3.644802e+003, 2.449705e-002
3.646730e+003, 2.530111e-002
3.648659e+003, 2.490167e-002
3.650587e+003, 2.404561e-002
3.652516e+003, 2.337063e-002
3.654444e+003, 2.408737e-002
3.656373e+003, 2.193498e-002
3.658301e+003, 1.822985e-002
3.660230e+003, 1.894857e-002
3.662158e+003, 1.923475e-002
3.664087e+003, 1.912175e-002
3.666015e+003, 2.102016e-002
3.667944e+003, 2.117703e-002
3.669872e+003, 1.984041e-002
3.671801e+003, 1.975032e-002
3.673729e+003, 2.044977e-002
3.675657e+003, 1.906430e-002
3.677586e+003, 1.895260e-002
3.679514e+003, 2.111844e-002
3.681443e+003, 1.898210e-002
3.683371e+003, 1.638419e-002
3.685300e+003, 1.721620e-002
3.687228e+003, 1.667650e-002
3.689157e+003, 1.623667e-002
3.691085e+003, 1.671137e-002
3.693014e+003, 2.198905e-002
3.694942e+003, 2.342368e-002
3.696871e+003, 1.925590e-002
3.698799e+003, 1.688500e-002
3.700728e+003, 1.562095e-002
3.702656e+003, 1.747301e-002
3.704584e+003, 2.196573e-002
3.706513e+003, 2.107691e-002
3.708441e+003, 1.977225e-002
3.710370e+003, 2.103258e-002
3.712298e+003, 2.064042e-002
3.714227e+003, 1.855509e-002
3.716155e+003, 1.762249e-002
3.718084e+003, 1.888694e-002
3.720012e+003, 1.985341e-002
3.721941e+003, 1.792598e-002
3.723869e+003, 1.715681e-002
3.725798e+003, 1.913385e-002
3.727726e+003, 2.034129e-002
3.729655e+003, 1.890495e-002
3.731583e+003, 1.702753e-002
3.733511e+003, 1.628805e-002
3.735440e+003, 1.983939e-002
3.737368e+003, 2.161325e-002
3.739297e+003, 1.992184e-002
3.741225e+003, 1.932522e-002
3.743154e+003, 1.772055e-002
3.745082e+003, 1.503023e-002
3.747011e+003, 1.574159e-002
3.748939e+003, 1.549498e-002
3.750868e+003, 1.617309e-002
3.752796e+003, 1.823465e-002
3.754725e+003, 1.904562e-002
3.756653e+003, 1.835837e-002
3.758582e+003, 1.663230e-002
3.760510e+003, 1.803539e-002
3.762438e+003, 1.876896e-002
3.764367e+003, 1.660095e-002
3.766295e+003, 1.362290e-002
3.768224e+003, 1.514882e-002
3.770152e+003, 1.750767e-002
3.772081e+003, 1.881503e-002
3.774009e+003, 2.193540e-002
3.775938e+003, 2.266178e-002
3.777866e+003, 1.931917e-002
3.779795e+003, 1.736359e-002
3.781723e+003, 1.575813e-002
3.783652e+003, 1.763549e-002
3.785580e+003, 1.807649e-002
3.787509e+003, 1.601539e-002
3.789437e+003, 1.629578e-002
3.791365e+003, 1.436468e-002
3.793294e+003, 1.302719e-002
3.795222e+003, 1.553152e-002
3.797151e+003, 1.865248e-002
3.799079e+003, 2.006437e-002
3.801008e+003, 1.886084e-002
3.802936e+003, 1.699687e-002
3.804865e+003, 1.675942e-002
3.806793e+003, 1.654877e-002
3.808722e+003, 1.456692e-002
3.810650e+003, 1.641914e-002
3.812579e+003, 1.963985e-002
3.814507e+003, 1.747196e-002
3.816436e+003, 1.647982e-002
3.818364e+003, 1.885470e-002
3.820292e+003, 1.855033e-002
3.822221e+003, 1.823609e-002
3.824149e+003, 1.461532e-002
3.826078e+003, 1.365468e-002
3.828006e+003, 1.681651e-002
3.829935e+003, 1.768255e-002
3.831863e+003, 1.513532e-002
3.833792e+003, 1.529702e-002
3.835720e+003, 1.813539e-002
3.837649e+003, 1.871484e-002
3.839577e+003, 1.622014e-002
3.841506e+003, 1.562919e-002
3.843434e+003, 1.685212e-002
3.845363e+003, 1.620997e-002
3.847291e+003, 1.908070e-002
3.849219e+003, 2.250982e-002
3.851148e+003, 2.310734e-002
3.853076e+003, 2.277863e-002
3.855005e+003, 1.947792e-002
3.856933e+003, 1.660320e-002
3.858862e+003, 1.483286e-002
3.860790e+003, 1.511661e-002
3.862719e+003, 1.597713e-002
3.864647e+003, 1.778509e-002
3.866576e+003, 1.742149e-002
3.868504e+003, 1.824866e-002
3.870433e+003, 1.899054e-002
3.872361e+003, 1.442294e-002
3.874290e+003, 1.267715e-002
3.876218e+003, 1.490359e-002
3.878146e+003, 1.664832e-002
3.880075e+003, 2.011921e-002
3.882003e+003, 2.122600e-002
3.883932e+003, 1.787150e-002
3.885860e+003, 1.947647e-002
3.887789e+003, 1.935348e-002
3.889717e+003, 1.626512e-002
3.891646e+003, 1.538420e-002
3.893574e+003, 1.678634e-002
3.895503e+003, 1.642825e-002
3.897431e+003, 1.104377e-002
3.899360e+003, 1.287335e-002
3.901288e+003, 1.629041e-002
3.903217e+003, 1.876035e-002
3.905145e+003, 1.980351e-002
3.907073e+003, 1.656371e-002
3.909002e+003, 1.480228e-002
3.910930e+003, 1.543755e-002
3.912859e+003, 1.417983e-002
3.914787e+003, 1.271740e-002
3.916716e+003, 1.406242e-002
3.918644e+003, 1.461864e-002
3.920573e+003, 1.560605e-002
3.922501e+003, 1.729268e-002
3.924430e+003, 1.515350e-002
3.926358e+003, 1.113032e-002
3.928287e+003, 1.154774e-002
3.930215e+003, 1.549172e-002
3.932144e+003, 1.736085e-002
3.934072e+003, 1.596646e-002
3.936000e+003, 1.626524e-002
3.937929e+003, 1.727041e-002
3.939857e+003, 1.892141e-002
3.941786e+003, 1.774796e-002
3.943714e+003, 1.853793e-002
3.945643e+003, 1.953423e-002
3.947571e+003, 1.597293e-002
3.949500e+003, 1.456164e-002
3.951428e+003, 1.510189e-002
3.953357e+003, 1.743069e-002
3.955285e+003, 1.927261e-002
3.957214e+003, 1.681481e-002
3.959142e+003, 1.259294e-002
3.961071e+003, 1.256404e-002
3.962999e+003, 1.422065e-002
3.964927e+003, 1.441780e-002
3.966856e+003, 1.523962e-002
3.968784e+003, 1.724633e-002
3.970713e+003, 1.641625e-002
3.972641e+003, 1.602933e-002
3.974570e+003, 1.648059e-002
3.976498e+003, 1.614982e-002
3.978427e+003, 1.270487e-002
3.980355e+003, 9.154083e-003
3.982284e+003, 1.254812e-002
3.984212e+003, 1.594717e-002
3.986141e+003, 1.423990e-002
3.988069e+003, 1.488843e-002
3.989998e+003, 1.219161e-002
3.991926e+003, 9.493737e-003
3.993854e+003, 1.261884e-002
3.995783e+003, 1.880892e-002
3.997711e+003, 1.920127e-002
3.999640e+003, 1.730050e-002
4.001568e+003, 0.000000e+000
##END=



