##NAMES=Elbaite
##RRUFFID=R050260
##IDEAL CHEMISTRY=Na(Al_1.5_Li_1.5_)Al_6_(Si_6_O_18_)(BO_3_)_3_(OH)_3_OH
##LOCALITY=Minas Gerais, Brazil
##OWNER=RRUFF
##SOURCE=Marcus Origlieri
##DESCRIPTION=Greenish-gray prismatic single crystal
##STATUS=The identification of this mineral has been confirmed by X-ray diffraction and chemical analysis
##URL=rruff.info/R050260
##MEASURED CHEMISTRY=(Na_0.76_[box]_0.17_Ca_0.07_)_Σ=1_(Al_1.67_Li_0.97_Mn_0.36_)_Σ=3_Al_6.00_(B_1.00_O_3_)_3_Si_6.00_O_18_((OH)_3.40_F_0.60_)_Σ=4_; B assumed by stoichiometry; OH estimated by charge balance
3.721941e+002, 0.000000e+000
3.741225e+002, 2.410367e-001
3.760510e+002, 2.227933e-001
3.779795e+002, 2.212041e-001
3.799079e+002, 2.274734e-001
3.818364e+002, 2.308791e-001
3.837649e+002, 2.361633e-001
3.856933e+002, 2.317985e-001
3.876218e+002, 2.292426e-001
3.895503e+002, 2.343924e-001
3.914787e+002, 2.364368e-001
3.934072e+002, 2.263933e-001
3.953357e+002, 2.191812e-001
3.972641e+002, 2.227340e-001
3.991926e+002, 2.223240e-001
4.011211e+002, 2.245260e-001
4.030495e+002, 2.270297e-001
4.049780e+002, 2.290465e-001
4.069065e+002, 2.356644e-001
4.088349e+002, 2.397721e-001
4.107634e+002, 2.378697e-001
4.126919e+002, 2.398397e-001
4.146203e+002, 2.384493e-001
4.165488e+002, 2.415333e-001
4.184773e+002, 2.457962e-001
4.204057e+002, 2.490914e-001
4.223342e+002, 2.518080e-001
4.242627e+002, 2.516834e-001
4.261911e+002, 2.524009e-001
4.281196e+002, 2.525077e-001
4.300481e+002, 2.508726e-001
4.319765e+002, 2.482647e-001
4.339050e+002, 2.486789e-001
4.358335e+002, 2.522182e-001
4.377619e+002, 2.557043e-001
4.396904e+002, 2.576311e-001
4.416189e+002, 2.595124e-001
4.435473e+002, 2.635553e-001
4.454758e+002, 2.664124e-001
4.474043e+002, 2.654685e-001
4.493327e+002, 2.635648e-001
4.512612e+002, 2.626172e-001
4.531897e+002, 2.618524e-001
4.551181e+002, 2.599054e-001
4.570466e+002, 2.565859e-001
4.589751e+002, 2.544826e-001
4.609035e+002, 2.525988e-001
4.628320e+002, 2.513233e-001
4.647605e+002, 2.511711e-001
4.666889e+002, 2.500980e-001
4.686174e+002, 2.492294e-001
4.705459e+002, 2.510810e-001
4.724743e+002, 2.522033e-001
4.744028e+002, 2.523938e-001
4.763313e+002, 2.527549e-001
4.782597e+002, 2.525795e-001
4.801882e+002, 2.520436e-001
4.821167e+002, 2.531691e-001
4.840451e+002, 2.535559e-001
4.859736e+002, 2.534522e-001
4.879021e+002, 2.544491e-001
4.898305e+002, 2.552330e-001
4.917590e+002, 2.552771e-001
4.936875e+002, 2.557912e-001
4.956159e+002, 2.550296e-001
4.975444e+002, 2.534921e-001
4.994729e+002, 2.519200e-001
5.014013e+002, 2.499220e-001
5.033298e+002, 2.479462e-001
5.052583e+002, 2.448954e-001
5.071867e+002, 2.409234e-001
5.091152e+002, 2.362244e-001
5.110437e+002, 2.314676e-001
5.129721e+002, 2.276551e-001
5.149006e+002, 2.239316e-001
5.168290e+002, 2.193976e-001
5.187575e+002, 2.146771e-001
5.206860e+002, 2.103306e-001
5.226144e+002, 2.070939e-001
5.245429e+002, 2.033596e-001
5.264714e+002, 1.993991e-001
5.283998e+002, 1.960985e-001
5.303283e+002, 1.929378e-001
5.322568e+002, 1.890713e-001
5.341852e+002, 1.864731e-001
5.361137e+002, 1.841147e-001
5.380422e+002, 1.809602e-001
5.399706e+002, 1.783146e-001
5.418991e+002, 1.763854e-001
5.438276e+002, 1.748894e-001
5.457560e+002, 1.736898e-001
5.476845e+002, 1.721985e-001
5.496130e+002, 1.702702e-001
5.515414e+002, 1.690425e-001
5.534699e+002, 1.672149e-001
5.553984e+002, 1.646435e-001
5.573268e+002, 1.629314e-001
5.592553e+002, 1.610778e-001
5.611838e+002, 1.587782e-001
5.631122e+002, 1.569653e-001
5.650407e+002, 1.557358e-001
5.669692e+002, 1.542501e-001
5.688976e+002, 1.525256e-001
5.708261e+002, 1.513781e-001
5.727546e+002, 1.502496e-001
5.746830e+002, 1.493202e-001
5.766115e+002, 1.485410e-001
5.785400e+002, 1.484058e-001
5.804684e+002, 1.481428e-001
5.823969e+002, 1.472406e-001
5.843254e+002, 1.457413e-001
5.862538e+002, 1.441545e-001
5.881823e+002, 1.422105e-001
5.901108e+002, 1.400718e-001
5.920392e+002, 1.376620e-001
5.939677e+002, 1.347863e-001
5.958962e+002, 1.315965e-001
5.978246e+002, 1.285260e-001
5.997531e+002, 1.257376e-001
6.016816e+002, 1.232862e-001
6.036100e+002, 1.209758e-001
6.055385e+002, 1.189587e-001
6.074670e+002, 1.171913e-001
6.093954e+002, 1.155176e-001
6.113239e+002, 1.144795e-001
6.132524e+002, 1.140367e-001
6.151808e+002, 1.140894e-001
6.171093e+002, 1.145671e-001
6.190378e+002, 1.157036e-001
6.209662e+002, 1.171453e-001
6.228947e+002, 1.182248e-001
6.248232e+002, 1.185720e-001
6.267516e+002, 1.181752e-001
6.286801e+002, 1.170618e-001
6.306086e+002, 1.153582e-001
6.325370e+002, 1.132429e-001
6.344655e+002, 1.106255e-001
6.363940e+002, 1.075429e-001
6.383224e+002, 1.041165e-001
6.402509e+002, 1.003106e-001
6.421794e+002, 9.675299e-002
6.441078e+002, 9.385169e-002
6.460363e+002, 9.152133e-002
6.479648e+002, 8.988638e-002
6.498932e+002, 8.838648e-002
6.518217e+002, 8.705321e-002
6.537502e+002, 8.596095e-002
6.556786e+002, 8.487604e-002
6.576071e+002, 8.381370e-002
6.595356e+002, 8.253910e-002
6.614641e+002, 8.076175e-002
6.633925e+002, 7.850403e-002
6.653210e+002, 7.612202e-002
6.672495e+002, 7.365865e-002
6.691779e+002, 7.105453e-002
6.711064e+002, 6.866163e-002
6.730349e+002, 6.714215e-002
6.749633e+002, 6.615625e-002
6.768918e+002, 6.520796e-002
6.788203e+002, 6.449507e-002
6.807487e+002, 6.373249e-002
6.826772e+002, 6.298329e-002
6.846057e+002, 6.308640e-002
6.865341e+002, 6.411218e-002
6.884626e+002, 6.581420e-002
6.903911e+002, 6.822772e-002
6.923195e+002, 7.110631e-002
6.942480e+002, 7.430184e-002
6.961765e+002, 7.764874e-002
6.981049e+002, 8.131958e-002
7.000334e+002, 8.578942e-002
7.019619e+002, 9.054060e-002
7.038903e+002, 9.537514e-002
7.058188e+002, 9.938639e-002
7.077473e+002, 1.022169e-001
7.096757e+002, 1.041470e-001
7.116042e+002, 1.054720e-001
7.135327e+002, 1.061069e-001
7.154611e+002, 1.052231e-001
7.173896e+002, 1.026720e-001
7.193181e+002, 9.895697e-002
7.212465e+002, 9.417932e-002
7.231750e+002, 8.853999e-002
7.251035e+002, 8.225954e-002
7.270319e+002, 7.561734e-002
7.289604e+002, 6.953109e-002
7.308889e+002, 6.459998e-002
7.328173e+002, 6.066151e-002
7.347458e+002, 5.749805e-002
7.366743e+002, 5.525395e-002
7.386027e+002, 5.333947e-002
7.405312e+002, 5.217860e-002
7.424597e+002, 5.206150e-002
7.443881e+002, 5.289550e-002
7.463166e+002, 5.481614e-002
7.482451e+002, 5.747976e-002
7.501735e+002, 6.005798e-002
7.521020e+002, 6.139282e-002
7.540305e+002, 6.127686e-002
7.559589e+002, 6.064526e-002
7.578874e+002, 6.021328e-002
7.598159e+002, 6.057695e-002
7.617443e+002, 6.167960e-002
7.636728e+002, 6.295318e-002
7.656013e+002, 6.472470e-002
7.675297e+002, 6.746712e-002
7.694582e+002, 7.113786e-002
7.713867e+002, 7.559390e-002
7.733151e+002, 8.110610e-002
7.752436e+002, 8.725143e-002
7.771721e+002, 9.258629e-002
7.791005e+002, 9.571382e-002
7.810290e+002, 9.646340e-002
7.829575e+002, 9.531454e-002
7.848859e+002, 9.260777e-002
7.868144e+002, 8.873797e-002
7.887429e+002, 8.418625e-002
7.906713e+002, 7.926369e-002
7.925998e+002, 7.365380e-002
7.945283e+002, 6.737246e-002
7.964567e+002, 6.079200e-002
7.983852e+002, 5.403375e-002
8.003137e+002, 4.750321e-002
8.022421e+002, 4.171573e-002
8.041706e+002, 3.712425e-002
8.060991e+002, 3.387961e-002
8.080275e+002, 3.186139e-002
8.099560e+002, 3.069980e-002
8.118845e+002, 3.002016e-002
8.138129e+002, 2.972629e-002
8.157414e+002, 2.979990e-002
8.176699e+002, 3.024068e-002
8.195983e+002, 3.081976e-002
8.215268e+002, 3.158098e-002
8.234553e+002, 3.247314e-002
8.253837e+002, 3.340869e-002
8.273122e+002, 3.463749e-002
8.292407e+002, 3.593485e-002
8.311691e+002, 3.701723e-002
8.330976e+002, 3.802821e-002
8.350261e+002, 3.932772e-002
8.369545e+002, 4.046949e-002
8.388830e+002, 4.161470e-002
8.408115e+002, 4.300816e-002
8.427399e+002, 4.448604e-002
8.446684e+002, 4.603938e-002
8.465969e+002, 4.735700e-002
8.485253e+002, 4.838123e-002
8.504538e+002, 4.938521e-002
8.523823e+002, 4.993027e-002
8.543107e+002, 5.025353e-002
8.562392e+002, 5.069560e-002
8.581677e+002, 5.120304e-002
8.600961e+002, 5.130389e-002
8.620246e+002, 5.150387e-002
8.639531e+002, 5.184834e-002
8.658815e+002, 5.230369e-002
8.678100e+002, 5.221149e-002
8.697385e+002, 5.195408e-002
8.716669e+002, 5.255765e-002
8.735954e+002, 5.306826e-002
8.755239e+002, 5.328106e-002
8.774523e+002, 5.392483e-002
8.793808e+002, 5.483887e-002
8.813093e+002, 5.559694e-002
8.832377e+002, 5.667071e-002
8.851662e+002, 5.815835e-002
8.870947e+002, 5.995618e-002
8.890231e+002, 6.214355e-002
8.909516e+002, 6.454321e-002
8.928801e+002, 6.676169e-002
8.948085e+002, 6.879546e-002
8.967370e+002, 7.101058e-002
8.986655e+002, 7.312144e-002
9.005939e+002, 7.513402e-002
9.025224e+002, 7.767417e-002
9.044509e+002, 8.056939e-002
9.063793e+002, 8.382378e-002
9.083078e+002, 8.776860e-002
9.102363e+002, 9.233695e-002
9.121647e+002, 9.738186e-002
9.140932e+002, 1.027950e-001
9.160217e+002, 1.086662e-001
9.179501e+002, 1.151061e-001
9.198786e+002, 1.216548e-001
9.218071e+002, 1.284739e-001
9.237355e+002, 1.356590e-001
9.256640e+002, 1.428460e-001
9.275925e+002, 1.500680e-001
9.295209e+002, 1.571775e-001
9.314494e+002, 1.641467e-001
9.333779e+002, 1.712526e-001
9.353063e+002, 1.785275e-001
9.372348e+002, 1.858032e-001
9.391633e+002, 1.927642e-001
9.410917e+002, 1.993972e-001
9.430202e+002, 2.058845e-001
9.449487e+002, 2.121711e-001
9.468771e+002, 2.184064e-001
9.488056e+002, 2.244302e-001
9.507341e+002, 2.301393e-001
9.526625e+002, 2.356005e-001
9.545910e+002, 2.404280e-001
9.565195e+002, 2.446156e-001
9.584479e+002, 2.482637e-001
9.603764e+002, 2.511466e-001
9.623049e+002, 2.533635e-001
9.642333e+002, 2.549664e-001
9.661618e+002, 2.557956e-001
9.680903e+002, 2.561576e-001
9.700187e+002, 2.562546e-001
9.719472e+002, 2.558685e-001
9.738757e+002, 2.551996e-001
9.758041e+002, 2.543159e-001
9.777326e+002, 2.529241e-001
9.796611e+002, 2.511541e-001
9.815895e+002, 2.491806e-001
9.835180e+002, 2.467437e-001
9.854465e+002, 2.434816e-001
9.873749e+002, 2.397926e-001
9.893034e+002, 2.358397e-001
9.912319e+002, 2.314093e-001
9.931603e+002, 2.266799e-001
9.950888e+002, 2.216501e-001
9.970173e+002, 2.165625e-001
9.989457e+002, 2.115169e-001
1.000874e+003, 2.067511e-001
1.002803e+003, 2.022929e-001
1.004731e+003, 1.983862e-001
1.006660e+003, 1.951980e-001
1.008588e+003, 1.926513e-001
1.010517e+003, 1.905321e-001
1.012445e+003, 1.889836e-001
1.014373e+003, 1.881922e-001
1.016302e+003, 1.878250e-001
1.018230e+003, 1.875580e-001
1.020159e+003, 1.872316e-001
1.022087e+003, 1.865989e-001
1.024016e+003, 1.855490e-001
1.025944e+003, 1.835847e-001
1.027873e+003, 1.805487e-001
1.029801e+003, 1.770374e-001
1.031730e+003, 1.730843e-001
1.033658e+003, 1.685654e-001
1.035587e+003, 1.640529e-001
1.037515e+003, 1.599142e-001
1.039443e+003, 1.562002e-001
1.041372e+003, 1.531345e-001
1.043300e+003, 1.505785e-001
1.045229e+003, 1.485651e-001
1.047157e+003, 1.469928e-001
1.049086e+003, 1.451907e-001
1.051014e+003, 1.429984e-001
1.052943e+003, 1.404332e-001
1.054871e+003, 1.376079e-001
1.056800e+003, 1.342245e-001
1.058728e+003, 1.300862e-001
1.060657e+003, 1.257002e-001
1.062585e+003, 1.213061e-001
1.064514e+003, 1.166838e-001
1.066442e+003, 1.123627e-001
1.068370e+003, 1.084004e-001
1.070299e+003, 1.050309e-001
1.072227e+003, 1.021217e-001
1.074156e+003, 9.966401e-002
1.076084e+003, 9.816221e-002
1.078013e+003, 9.766916e-002
1.079941e+003, 9.814815e-002
1.081870e+003, 9.990732e-002
1.083798e+003, 1.028473e-001
1.085727e+003, 1.064618e-001
1.087655e+003, 1.102782e-001
1.089584e+003, 1.138018e-001
1.091512e+003, 1.168311e-001
1.093441e+003, 1.195059e-001
1.095369e+003, 1.215847e-001
1.097297e+003, 1.227929e-001
1.099226e+003, 1.229398e-001
1.101154e+003, 1.222165e-001
1.103083e+003, 1.203782e-001
1.105011e+003, 1.178704e-001
1.106940e+003, 1.147491e-001
1.108868e+003, 1.106715e-001
1.110797e+003, 1.059758e-001
1.112725e+003, 1.007733e-001
1.114654e+003, 9.531686e-002
1.116582e+003, 8.967511e-002
1.118511e+003, 8.393038e-002
1.120439e+003, 7.841188e-002
1.122368e+003, 7.291726e-002
1.124296e+003, 6.750736e-002
1.126224e+003, 6.247065e-002
1.128153e+003, 5.770014e-002
1.130081e+003, 5.336332e-002
1.132010e+003, 4.957616e-002
1.133938e+003, 4.593546e-002
1.135867e+003, 4.261083e-002
1.137795e+003, 3.992252e-002
1.139724e+003, 3.738949e-002
1.141652e+003, 3.474994e-002
1.143581e+003, 3.203740e-002
1.145509e+003, 2.920300e-002
1.147438e+003, 2.621150e-002
1.149366e+003, 2.348866e-002
1.151295e+003, 2.108008e-002
1.153223e+003, 1.887290e-002
1.155151e+003, 1.699839e-002
1.157080e+003, 1.546643e-002
1.159008e+003, 1.431234e-002
1.160937e+003, 1.342953e-002
1.162865e+003, 1.274562e-002
1.164794e+003, 1.216475e-002
1.166722e+003, 1.166950e-002
1.168651e+003, 1.141826e-002
1.170579e+003, 1.130991e-002
1.172508e+003, 1.140149e-002
1.174436e+003, 1.157304e-002
1.176365e+003, 1.176977e-002
1.178293e+003, 1.208295e-002
1.180222e+003, 1.251496e-002
1.182150e+003, 1.299810e-002
1.184078e+003, 1.340303e-002
1.186007e+003, 1.385123e-002
1.187935e+003, 1.423353e-002
1.189864e+003, 1.454295e-002
1.191792e+003, 1.479423e-002
1.193721e+003, 1.510636e-002
1.195649e+003, 1.530631e-002
1.197578e+003, 1.560827e-002
1.199506e+003, 1.607184e-002
1.201435e+003, 1.654964e-002
1.203363e+003, 1.713251e-002
1.205292e+003, 1.797356e-002
1.207220e+003, 1.904084e-002
1.209149e+003, 2.036585e-002
1.211077e+003, 2.181785e-002
1.213005e+003, 2.339563e-002
1.214934e+003, 2.515804e-002
1.216862e+003, 2.727606e-002
1.218791e+003, 2.985585e-002
1.220719e+003, 3.260216e-002
1.222648e+003, 3.575724e-002
1.224576e+003, 3.919103e-002
1.226505e+003, 4.265505e-002
1.228433e+003, 4.610020e-002
1.230362e+003, 4.931669e-002
1.232290e+003, 5.234692e-002
1.234219e+003, 5.501121e-002
1.236147e+003, 5.728231e-002
1.238076e+003, 5.942551e-002
1.240004e+003, 6.134125e-002
1.241932e+003, 6.310932e-002
1.243861e+003, 6.482056e-002
1.245789e+003, 6.652641e-002
1.247718e+003, 6.836940e-002
1.249646e+003, 7.018411e-002
1.251575e+003, 7.195399e-002
1.253503e+003, 7.387639e-002
1.255432e+003, 7.583505e-002
1.257360e+003, 7.784370e-002
1.259289e+003, 8.006195e-002
1.261217e+003, 8.232412e-002
1.263146e+003, 8.463082e-002
1.265074e+003, 8.708645e-002
1.267003e+003, 8.946101e-002
1.268931e+003, 9.167664e-002
1.270859e+003, 9.383620e-002
1.272788e+003, 9.591387e-002
1.274716e+003, 9.771194e-002
1.276645e+003, 9.923934e-002
1.278573e+003, 1.007104e-001
1.280502e+003, 1.023206e-001
1.282430e+003, 1.039483e-001
1.284359e+003, 1.053718e-001
1.286287e+003, 1.068506e-001
1.288216e+003, 1.081896e-001
1.290144e+003, 1.094308e-001
1.292073e+003, 1.102647e-001
1.294001e+003, 1.104219e-001
1.295930e+003, 1.099574e-001
1.297858e+003, 1.091722e-001
1.299786e+003, 1.077958e-001
1.301715e+003, 1.058535e-001
1.303643e+003, 1.036171e-001
1.305572e+003, 1.014648e-001
1.307500e+003, 9.943514e-002
1.309429e+003, 9.709976e-002
1.311357e+003, 9.482960e-002
1.313286e+003, 9.266112e-002
1.315214e+003, 9.025321e-002
1.317143e+003, 8.780839e-002
1.319071e+003, 8.517618e-002
1.321000e+003, 8.266956e-002
1.322928e+003, 8.046706e-002
1.324857e+003, 7.833390e-002
1.326785e+003, 7.642889e-002
1.328714e+003, 7.484055e-002
1.330642e+003, 7.361190e-002
1.332570e+003, 7.286604e-002
1.334499e+003, 7.250272e-002
1.336427e+003, 7.249121e-002
1.338356e+003, 7.270044e-002
1.340284e+003, 7.290810e-002
1.342213e+003, 7.322747e-002
1.344141e+003, 7.359024e-002
1.346070e+003, 7.387476e-002
1.347998e+003, 7.407373e-002
1.349927e+003, 7.372078e-002
1.351855e+003, 7.287601e-002
1.353784e+003, 7.159361e-002
1.355712e+003, 6.986061e-002
1.357641e+003, 6.765435e-002
1.359569e+003, 6.522474e-002
1.361497e+003, 6.273820e-002
1.363426e+003, 5.999856e-002
1.365354e+003, 5.745688e-002
1.367283e+003, 5.500064e-002
1.369211e+003, 5.245841e-002
1.371140e+003, 5.015786e-002
1.373068e+003, 4.811806e-002
1.374997e+003, 4.646784e-002
1.376925e+003, 4.516283e-002
1.378854e+003, 4.409728e-002
1.380782e+003, 4.312597e-002
1.382711e+003, 4.218629e-002
1.384639e+003, 4.131776e-002
1.386568e+003, 4.052537e-002
1.388496e+003, 3.962937e-002
1.390424e+003, 3.855959e-002
1.392353e+003, 3.747725e-002
1.394281e+003, 3.629604e-002
1.396210e+003, 3.486134e-002
1.398138e+003, 3.324319e-002
1.400067e+003, 3.160767e-002
1.401995e+003, 3.009206e-002
1.403924e+003, 2.875771e-002
1.405852e+003, 2.762826e-002
1.407781e+003, 2.666572e-002
1.409709e+003, 2.588511e-002
1.411638e+003, 2.512307e-002
1.413566e+003, 2.416984e-002
1.415495e+003, 2.287057e-002
1.417423e+003, 2.147839e-002
1.419351e+003, 2.016964e-002
1.421280e+003, 1.915173e-002
1.423208e+003, 1.825601e-002
1.425137e+003, 1.756082e-002
1.427065e+003, 1.708475e-002
1.428994e+003, 1.674810e-002
1.430922e+003, 1.670765e-002
1.432851e+003, 1.687374e-002
1.434779e+003, 1.684362e-002
1.436708e+003, 1.672614e-002
1.438636e+003, 1.654482e-002
1.440565e+003, 1.624070e-002
1.442493e+003, 1.578152e-002
1.444422e+003, 1.522466e-002
1.446350e+003, 1.464379e-002
1.448278e+003, 1.426621e-002
1.450207e+003, 1.404325e-002
1.452135e+003, 1.370739e-002
1.454064e+003, 1.350208e-002
1.455992e+003, 1.340041e-002
1.457921e+003, 1.339372e-002
1.459849e+003, 1.325176e-002
1.461778e+003, 1.283211e-002
1.463706e+003, 1.229777e-002
1.465635e+003, 1.163867e-002
1.467563e+003, 1.099843e-002
1.469492e+003, 1.040585e-002
1.471420e+003, 9.951762e-003
1.473349e+003, 9.648078e-003
1.475277e+003, 9.437778e-003
1.477205e+003, 9.404343e-003
1.479134e+003, 9.404218e-003
1.481062e+003, 9.475023e-003
1.482991e+003, 9.547982e-003
1.484919e+003, 9.483532e-003
1.486848e+003, 9.369661e-003
1.488776e+003, 9.154167e-003
1.490705e+003, 8.952681e-003
1.492633e+003, 8.808618e-003
1.494562e+003, 8.504424e-003
1.496490e+003, 8.266408e-003
1.498419e+003, 8.110928e-003
1.500347e+003, 7.908018e-003
1.502276e+003, 7.773990e-003
1.504204e+003, 7.583957e-003
1.506132e+003, 7.329833e-003
1.508061e+003, 7.155898e-003
1.509989e+003, 6.742019e-003
1.511918e+003, 6.171011e-003
1.513846e+003, 5.800253e-003
1.515775e+003, 5.688065e-003
1.517703e+003, 5.749463e-003
1.519632e+003, 5.861902e-003
1.521560e+003, 5.960777e-003
1.523489e+003, 6.222025e-003
1.525417e+003, 6.426597e-003
1.527346e+003, 6.412738e-003
1.529274e+003, 6.351095e-003
1.531203e+003, 6.281191e-003
1.533131e+003, 5.970979e-003
1.535059e+003, 5.678268e-003
1.536988e+003, 5.508940e-003
1.538916e+003, 5.307966e-003
1.540845e+003, 5.077987e-003
1.542773e+003, 4.910614e-003
1.544702e+003, 4.716536e-003
1.546630e+003, 4.626940e-003
1.548559e+003, 4.585989e-003
1.550487e+003, 4.556520e-003
1.552416e+003, 4.347667e-003
1.554344e+003, 4.132441e-003
1.556273e+003, 4.031577e-003
1.558201e+003, 3.942826e-003
1.560130e+003, 3.815272e-003
1.562058e+003, 3.880724e-003
1.563986e+003, 4.090047e-003
1.565915e+003, 4.160280e-003
1.567843e+003, 4.004542e-003
1.569772e+003, 3.904938e-003
1.571700e+003, 4.071429e-003
1.573629e+003, 4.136363e-003
1.575557e+003, 4.147992e-003
1.577486e+003, 4.256349e-003
1.579414e+003, 4.338432e-003
1.581343e+003, 4.349208e-003
1.583271e+003, 4.472773e-003
1.585200e+003, 4.533833e-003
1.587128e+003, 4.566343e-003
1.589057e+003, 4.543947e-003
1.590985e+003, 4.462123e-003
1.592913e+003, 4.544133e-003
1.594842e+003, 4.728694e-003
1.596770e+003, 4.797429e-003
1.598699e+003, 4.748499e-003
1.600627e+003, 4.680221e-003
1.602556e+003, 4.521061e-003
1.604484e+003, 4.570325e-003
1.606413e+003, 4.693426e-003
1.608341e+003, 4.560981e-003
1.610270e+003, 4.395964e-003
1.612198e+003, 4.348498e-003
1.614127e+003, 4.339493e-003
1.616055e+003, 4.236221e-003
1.617984e+003, 4.227038e-003
1.619912e+003, 4.329549e-003
1.621840e+003, 4.220845e-003
1.623769e+003, 4.006751e-003
1.625697e+003, 3.963788e-003
1.627626e+003, 3.919620e-003
1.629554e+003, 3.885177e-003
1.631483e+003, 3.936686e-003
1.633411e+003, 3.883875e-003
1.635340e+003, 3.760825e-003
1.637268e+003, 3.741268e-003
1.639197e+003, 3.575078e-003
1.641125e+003, 3.449496e-003
1.643054e+003, 3.537628e-003
1.644982e+003, 3.664599e-003
1.646911e+003, 3.594695e-003
1.648839e+003, 3.488555e-003
1.650767e+003, 3.294143e-003
1.652696e+003, 3.150911e-003
1.654624e+003, 3.368374e-003
1.656553e+003, 3.429714e-003
1.658481e+003, 3.308113e-003
1.660410e+003, 3.382105e-003
1.662338e+003, 3.406847e-003
1.664267e+003, 3.254862e-003
1.666195e+003, 3.088411e-003
1.668124e+003, 3.097588e-003
1.670052e+003, 3.105234e-003
1.671981e+003, 3.091636e-003
1.673909e+003, 3.013337e-003
1.675838e+003, 2.920309e-003
1.677766e+003, 2.983345e-003
1.679694e+003, 2.956104e-003
1.681623e+003, 2.949090e-003
1.683551e+003, 2.916134e-003
1.685480e+003, 2.952453e-003
1.687408e+003, 2.935632e-003
1.689337e+003, 2.902863e-003
1.691265e+003, 2.839185e-003
1.693194e+003, 2.711335e-003
1.695122e+003, 2.674343e-003
1.697051e+003, 2.858119e-003
1.698979e+003, 2.751980e-003
1.700908e+003, 2.486412e-003
1.702836e+003, 2.494564e-003
1.704765e+003, 2.475978e-003
1.706693e+003, 2.532637e-003
1.708621e+003, 2.561575e-003
1.710550e+003, 2.322356e-003
1.712478e+003, 2.240525e-003
1.714407e+003, 2.216056e-003
1.716335e+003, 1.947967e-003
1.718264e+003, 1.931504e-003
1.720192e+003, 2.019292e-003
1.722121e+003, 1.990378e-003
1.724049e+003, 1.963583e-003
1.725978e+003, 1.868383e-003
1.727906e+003, 1.659017e-003
1.729835e+003, 1.617113e-003
1.731763e+003, 1.654354e-003
1.733692e+003, 1.568768e-003
1.735620e+003, 1.564467e-003
1.737548e+003, 1.647790e-003
1.739477e+003, 1.434332e-003
1.741405e+003, 1.341948e-003
1.743334e+003, 1.302194e-003
1.745262e+003, 9.989047e-004
1.747191e+003, 7.409574e-004
1.749119e+003, 8.265988e-004
1.751048e+003, 8.292119e-004
1.752976e+003, 1.144776e-003
1.754905e+003, 1.460231e-003
1.756833e+003, 1.507696e-003
1.758762e+003, 1.425469e-003
1.760690e+003, 1.499645e-003
1.762619e+003, 1.812081e-003
1.764547e+003, 1.998533e-003
1.766475e+003, 1.871646e-003
1.768404e+003, 1.656121e-003
1.770332e+003, 1.851900e-003
1.772261e+003, 2.067110e-003
1.774189e+003, 1.987924e-003
1.776118e+003, 1.954341e-003
1.778046e+003, 1.925772e-003
1.779975e+003, 1.877864e-003
1.781903e+003, 1.865065e-003
1.783832e+003, 1.800336e-003
1.785760e+003, 1.853784e-003
1.787689e+003, 1.861616e-003
1.789617e+003, 1.872562e-003
1.791546e+003, 1.957853e-003
1.793474e+003, 2.027245e-003
1.795402e+003, 2.067084e-003
1.797331e+003, 1.951827e-003
1.799259e+003, 1.910795e-003
1.801188e+003, 2.083559e-003
1.803116e+003, 2.228756e-003
1.805045e+003, 2.122790e-003
1.806973e+003, 1.887144e-003
1.808902e+003, 1.594186e-003
1.810830e+003, 1.703354e-003
1.812759e+003, 1.951845e-003
1.814687e+003, 1.835924e-003
1.816616e+003, 1.668869e-003
1.818544e+003, 1.798265e-003
1.820473e+003, 1.964052e-003
1.822401e+003, 2.106306e-003
1.824329e+003, 1.775106e-003
1.826258e+003, 1.561683e-003
1.828186e+003, 1.558857e-003
1.830115e+003, 1.469944e-003
1.832043e+003, 1.518106e-003
1.833972e+003, 1.754518e-003
1.835900e+003, 2.040840e-003
1.837829e+003, 2.071951e-003
1.839757e+003, 1.891558e-003
1.841686e+003, 1.806340e-003
1.843614e+003, 1.573623e-003
1.845543e+003, 1.519667e-003
1.847471e+003, 1.527846e-003
1.849400e+003, 1.217095e-003
1.851328e+003, 1.119736e-003
1.853256e+003, 1.517155e-003
1.855185e+003, 1.671560e-003
1.857113e+003, 1.641327e-003
1.859042e+003, 1.567949e-003
1.860970e+003, 1.320976e-003
1.862899e+003, 1.575531e-003
1.864827e+003, 1.824187e-003
1.866756e+003, 1.572968e-003
1.868684e+003, 1.328861e-003
1.870613e+003, 1.203938e-003
1.872541e+003, 1.445341e-003
1.874470e+003, 1.271549e-003
1.876398e+003, 1.138519e-003
1.878327e+003, 9.737033e-004
1.880255e+003, 8.420904e-004
1.882183e+003, 9.336894e-004
1.884112e+003, 1.094586e-003
1.886040e+003, 1.144850e-003
1.887969e+003, 1.588458e-003
1.889897e+003, 1.446731e-003
1.891826e+003, 1.385700e-003
1.893754e+003, 1.553608e-003
1.895683e+003, 1.368755e-003
1.897611e+003, 1.383216e-003
1.899540e+003, 1.410624e-003
1.901468e+003, 1.120580e-003
1.903397e+003, 1.380758e-003
1.905325e+003, 1.559335e-003
1.907254e+003, 1.648282e-003
1.909182e+003, 1.582008e-003
1.911110e+003, 1.364241e-003
1.913039e+003, 1.070354e-003
1.914967e+003, 6.154301e-004
1.916896e+003, 7.430795e-004
1.918824e+003, 8.997805e-004
1.920753e+003, 7.244906e-004
1.922681e+003, 7.787997e-004
1.924610e+003, 4.406362e-004
1.926538e+003, 1.427953e-004
1.928467e+003, 2.380612e-004
1.930395e+003, 4.990381e-004
1.932324e+003, 8.826335e-004
1.934252e+003, 8.334725e-004
1.936181e+003, 3.060814e-004
1.938109e+003, 2.737264e-004
1.940037e+003, 2.275120e-004
1.941966e+003, 9.775418e-004
1.943894e+003, 1.034783e-003
1.945823e+003, 7.780423e-004
1.947751e+003, 1.556127e-003
1.949680e+003, 1.765802e-003
1.951608e+003, 8.975862e-004
1.953537e+003, 1.250355e-004
1.955465e+003, 1.348532e-004
1.957394e+003, 1.025970e-003
1.959322e+003, 7.274386e-004
1.961251e+003, 6.643538e-004
1.963179e+003, 1.081241e-003
1.965108e+003, 5.847609e-004
1.967036e+003, 4.277111e-004
1.968964e+003, 8.837283e-004
1.970893e+003, 1.234744e-003
1.972821e+003, 1.777020e-003
1.974750e+003, 1.503219e-003
1.976678e+003, 1.541447e-003
1.978607e+003, 2.354396e-003
1.980535e+003, 2.737710e-003
1.982464e+003, 3.025213e-003
1.984392e+003, 3.840422e-003
1.986321e+003, 3.787319e-003
1.988249e+003, 3.111759e-003
1.990178e+003, 2.751068e-003
1.992106e+003, 2.869137e-003
1.994035e+003, 2.796103e-003
1.995963e+003, 2.226114e-003
1.997891e+003, 1.960784e-003
1.999820e+003, 2.229481e-003
2.001748e+003, 1.381177e-003
2.003677e+003, 3.856402e-004
2.005605e+003, 1.626090e-003
2.007534e+003, 2.609540e-003
2.009462e+003, 2.829506e-003
2.011391e+003, 3.011827e-003
2.013319e+003, 3.334511e-003
2.015248e+003, 3.178061e-003
2.017176e+003, 2.145905e-003
2.019105e+003, 1.398400e-003
2.021033e+003, 1.543830e-003
2.022962e+003, 1.938652e-003
2.024890e+003, 2.394342e-003
2.026818e+003, 2.999253e-003
2.028747e+003, 2.643467e-003
2.030675e+003, 3.642868e-003
2.032604e+003, 4.059382e-003
2.034532e+003, 3.611313e-003
2.036461e+003, 3.750828e-003
2.038389e+003, 4.161804e-003
2.040318e+003, 3.581629e-003
2.042246e+003, 3.417897e-003
2.044175e+003, 3.615071e-003
2.046103e+003, 3.435832e-003
2.048031e+003, 2.880923e-003
2.049960e+003, 2.957958e-003
2.051888e+003, 2.670353e-003
2.053817e+003, 2.565132e-003
2.055745e+003, 2.278241e-003
2.057674e+003, 2.698283e-003
2.059602e+003, 2.871769e-003
2.061531e+003, 2.385994e-003
2.063459e+003, 2.270179e-003
2.065388e+003, 2.244713e-003
2.067316e+003, 2.620461e-003
2.069245e+003, 2.932042e-003
2.071173e+003, 3.204916e-003
2.073102e+003, 3.300069e-003
2.075030e+003, 3.512510e-003
2.076958e+003, 3.610523e-003
2.078887e+003, 3.187649e-003
2.080815e+003, 3.168887e-003
2.082744e+003, 3.127704e-003
2.084672e+003, 2.889455e-003
2.086601e+003, 2.646201e-003
2.088529e+003, 2.495732e-003
2.090458e+003, 2.682583e-003
2.092386e+003, 2.423178e-003
2.094315e+003, 2.212831e-003
2.096243e+003, 2.735919e-003
2.098172e+003, 3.098272e-003
2.100100e+003, 2.918505e-003
2.102029e+003, 2.730964e-003
2.103957e+003, 3.184260e-003
2.105885e+003, 3.166752e-003
2.107814e+003, 2.241367e-003
2.109742e+003, 1.922610e-003
2.111671e+003, 2.460503e-003
2.113599e+003, 3.085961e-003
2.115528e+003, 3.238351e-003
2.117456e+003, 2.821436e-003
2.119385e+003, 2.443783e-003
2.121313e+003, 2.116689e-003
2.123242e+003, 1.910270e-003
2.125170e+003, 1.723186e-003
2.127099e+003, 1.644128e-003
2.129027e+003, 1.756774e-003
2.130956e+003, 2.042273e-003
2.132884e+003, 2.360504e-003
2.134813e+003, 2.526452e-003
2.136741e+003, 2.445226e-003
2.138669e+003, 1.991638e-003
2.140598e+003, 2.036174e-003
2.142526e+003, 2.622780e-003
2.144455e+003, 1.692527e-003
2.146383e+003, 1.303261e-003
2.148312e+003, 2.317927e-003
2.150240e+003, 3.732352e-003
2.152169e+003, 3.710161e-003
2.154097e+003, 3.910332e-003
2.156026e+003, 4.300847e-003
2.157954e+003, 6.062264e-003
2.159883e+003, 8.234528e-003
2.161811e+003, 7.129280e-003
2.163740e+003, 5.953175e-003
2.165668e+003, 6.261506e-003
2.167596e+003, 5.988174e-003
2.169525e+003, 5.344198e-003
2.171453e+003, 5.294758e-003
2.173382e+003, 5.240063e-003
2.175310e+003, 4.006260e-003
2.177239e+003, 4.151123e-003
2.179167e+003, 4.365785e-003
2.181096e+003, 4.149904e-003
2.183024e+003, 4.821504e-003
2.184953e+003, 5.350665e-003
2.186881e+003, 5.123694e-003
2.188810e+003, 5.152353e-003
2.190738e+003, 4.263659e-003
2.192667e+003, 3.526984e-003
2.194595e+003, 4.832383e-003
2.196523e+003, 5.814980e-003
2.198452e+003, 4.711292e-003
2.200380e+003, 3.379520e-003
2.202309e+003, 3.438971e-003
2.204237e+003, 3.580186e-003
2.206166e+003, 4.205146e-003
2.208094e+003, 5.276597e-003
2.210023e+003, 4.599520e-003
2.211951e+003, 3.836527e-003
2.213880e+003, 4.188369e-003
2.215808e+003, 3.847446e-003
2.217737e+003, 3.986890e-003
2.219665e+003, 4.364011e-003
2.221594e+003, 4.965707e-003
2.223522e+003, 5.238006e-003
2.225450e+003, 4.393551e-003
2.227379e+003, 4.138176e-003
2.229307e+003, 4.748109e-003
2.231236e+003, 5.300807e-003
2.233164e+003, 5.334608e-003
2.235093e+003, 5.402680e-003
2.237021e+003, 5.484266e-003
2.238950e+003, 5.283985e-003
2.240878e+003, 4.767196e-003
2.242807e+003, 4.758449e-003
2.244735e+003, 4.495286e-003
2.246664e+003, 4.400256e-003
2.248592e+003, 4.578962e-003
2.250521e+003, 4.574426e-003
2.252449e+003, 4.780442e-003
2.254377e+003, 5.204998e-003
2.256306e+003, 5.126234e-003
2.258234e+003, 4.939269e-003
2.260163e+003, 4.709169e-003
2.262091e+003, 4.784174e-003
2.264020e+003, 5.164186e-003
2.265948e+003, 5.090989e-003
2.267877e+003, 5.040016e-003
2.269805e+003, 5.805175e-003
2.271734e+003, 6.233630e-003
2.273662e+003, 6.483100e-003
2.275591e+003, 6.529973e-003
2.277519e+003, 6.079699e-003
2.279448e+003, 6.123315e-003
2.281376e+003, 6.025629e-003
2.283304e+003, 5.747929e-003
2.285233e+003, 5.880576e-003
2.287161e+003, 6.040455e-003
2.289090e+003, 5.927315e-003
2.291018e+003, 5.960790e-003
2.292947e+003, 5.811989e-003
2.294875e+003, 5.368087e-003
2.296804e+003, 5.344574e-003
2.298732e+003, 5.581812e-003
2.300661e+003, 5.297794e-003
2.302589e+003, 5.187597e-003
2.304518e+003, 5.638671e-003
2.306446e+003, 5.713065e-003
2.308375e+003, 5.531500e-003
2.310303e+003, 5.401757e-003
2.312231e+003, 5.615516e-003
2.314160e+003, 5.487469e-003
2.316088e+003, 5.308854e-003
2.318017e+003, 5.485825e-003
2.319945e+003, 5.872985e-003
2.321874e+003, 6.072743e-003
2.323802e+003, 6.033927e-003
2.325731e+003, 5.678152e-003
2.327659e+003, 5.469400e-003
2.329588e+003, 5.180418e-003
2.331516e+003, 4.899045e-003
2.333445e+003, 5.000275e-003
2.335373e+003, 5.598194e-003
2.337302e+003, 5.463924e-003
2.339230e+003, 5.011669e-003
2.341158e+003, 5.183439e-003
2.343087e+003, 5.198342e-003
2.345015e+003, 4.696134e-003
2.346944e+003, 4.542893e-003
2.348872e+003, 4.576827e-003
2.350801e+003, 4.659123e-003
2.352729e+003, 4.592432e-003
2.354658e+003, 4.846263e-003
2.356586e+003, 5.149006e-003
2.358515e+003, 5.070398e-003
2.360443e+003, 5.015457e-003
2.362372e+003, 5.051482e-003
2.364300e+003, 5.128321e-003
2.366229e+003, 5.003050e-003
2.368157e+003, 4.933883e-003
2.370085e+003, 4.596525e-003
2.372014e+003, 4.130983e-003
2.373942e+003, 4.063244e-003
2.375871e+003, 3.904255e-003
2.377799e+003, 3.691839e-003
2.379728e+003, 3.268783e-003
2.381656e+003, 3.351986e-003
2.383585e+003, 3.610912e-003
2.385513e+003, 3.967167e-003
2.387442e+003, 4.104843e-003
2.389370e+003, 3.890939e-003
2.391299e+003, 3.862794e-003
2.393227e+003, 3.911495e-003
2.395156e+003, 3.862403e-003
2.397084e+003, 3.677505e-003
2.399012e+003, 3.638071e-003
2.400941e+003, 3.628550e-003
2.402869e+003, 3.433499e-003
2.404798e+003, 3.819733e-003
2.406726e+003, 4.231667e-003
2.408655e+003, 4.375858e-003
2.410583e+003, 4.286746e-003
2.412512e+003, 3.840446e-003
2.414440e+003, 3.780298e-003
2.416369e+003, 3.808027e-003
2.418297e+003, 3.739949e-003
2.420226e+003, 3.712750e-003
2.422154e+003, 3.544904e-003
2.424083e+003, 3.669559e-003
2.426011e+003, 3.718076e-003
2.427939e+003, 3.629987e-003
2.429868e+003, 3.754090e-003
2.431796e+003, 3.805705e-003
2.433725e+003, 3.545050e-003
2.435653e+003, 3.742707e-003
2.437582e+003, 4.062659e-003
2.439510e+003, 4.026872e-003
2.441439e+003, 3.918021e-003
2.443367e+003, 4.144615e-003
2.445296e+003, 4.298792e-003
2.447224e+003, 4.034151e-003
2.449153e+003, 3.653933e-003
2.451081e+003, 3.619095e-003
2.453010e+003, 3.505193e-003
2.454938e+003, 3.275084e-003
2.456866e+003, 3.284461e-003
2.458795e+003, 3.398114e-003
2.460723e+003, 3.488816e-003
2.462652e+003, 3.208877e-003
2.464580e+003, 3.158415e-003
2.466509e+003, 3.295424e-003
2.468437e+003, 2.649784e-003
2.470366e+003, 2.207003e-003
2.472294e+003, 2.736252e-003
2.474223e+003, 3.364120e-003
2.476151e+003, 3.431130e-003
2.478080e+003, 3.500127e-003
2.480008e+003, 3.177301e-003
2.481937e+003, 3.037279e-003
2.483865e+003, 2.640958e-003
2.485793e+003, 2.157912e-003
2.487722e+003, 2.896320e-003
2.489650e+003, 3.704917e-003
2.491579e+003, 3.333780e-003
2.493507e+003, 3.141162e-003
2.495436e+003, 3.505369e-003
2.497364e+003, 3.348568e-003
2.499293e+003, 2.924637e-003
2.501221e+003, 2.956339e-003
2.503150e+003, 3.037821e-003
2.505078e+003, 3.435188e-003
2.507007e+003, 3.687704e-003
2.508935e+003, 3.095842e-003
2.510864e+003, 2.615390e-003
2.512792e+003, 2.957886e-003
2.514720e+003, 3.277967e-003
2.516649e+003, 3.259341e-003
2.518577e+003, 2.638506e-003
2.520506e+003, 2.108689e-003
2.522434e+003, 2.076828e-003
2.524363e+003, 2.562485e-003
2.526291e+003, 3.203706e-003
2.528220e+003, 3.468162e-003
2.530148e+003, 3.333255e-003
2.532077e+003, 3.003990e-003
2.534005e+003, 2.999994e-003
2.535934e+003, 3.061697e-003
2.537862e+003, 3.149307e-003
2.539791e+003, 3.215364e-003
2.541719e+003, 2.881146e-003
2.543647e+003, 2.734729e-003
2.545576e+003, 2.750108e-003
2.547504e+003, 2.895403e-003
2.549433e+003, 2.456801e-003
2.551361e+003, 2.631960e-003
2.553290e+003, 2.763636e-003
2.555218e+003, 2.752260e-003
2.557147e+003, 2.792665e-003
2.559075e+003, 3.001719e-003
2.561004e+003, 3.332056e-003
2.562932e+003, 3.342848e-003
2.564861e+003, 3.129171e-003
2.566789e+003, 3.096079e-003
2.568718e+003, 3.017021e-003
2.570646e+003, 3.154253e-003
2.572574e+003, 3.440047e-003
2.574503e+003, 3.343655e-003
2.576431e+003, 3.142693e-003
2.578360e+003, 3.298864e-003
2.580288e+003, 3.621998e-003
2.582217e+003, 3.586972e-003
2.584145e+003, 3.048928e-003
2.586074e+003, 2.948055e-003
2.588002e+003, 2.863199e-003
2.589931e+003, 3.047336e-003
2.591859e+003, 3.255372e-003
2.593788e+003, 3.531671e-003
2.595716e+003, 3.776267e-003
2.597645e+003, 3.667702e-003
2.599573e+003, 3.523829e-003
2.601501e+003, 3.160867e-003
2.603430e+003, 2.825164e-003
2.605358e+003, 3.258683e-003
2.607287e+003, 3.686582e-003
2.609215e+003, 3.887718e-003
2.611144e+003, 4.049156e-003
2.613072e+003, 4.285761e-003
2.615001e+003, 4.473949e-003
2.616929e+003, 4.383015e-003
2.618858e+003, 4.309455e-003
2.620786e+003, 4.095027e-003
2.622715e+003, 4.006507e-003
2.624643e+003, 4.470959e-003
2.626572e+003, 5.002803e-003
2.628500e+003, 5.103086e-003
2.630428e+003, 4.513723e-003
2.632357e+003, 4.206788e-003
2.634285e+003, 4.188608e-003
2.636214e+003, 4.078277e-003
2.638142e+003, 4.488395e-003
2.640071e+003, 4.739821e-003
2.641999e+003, 4.558218e-003
2.643928e+003, 4.649261e-003
2.645856e+003, 4.829701e-003
2.647785e+003, 5.029470e-003
2.649713e+003, 4.932740e-003
2.651642e+003, 5.030947e-003
2.653570e+003, 4.987048e-003
2.655499e+003, 4.980271e-003
2.657427e+003, 4.777285e-003
2.659355e+003, 4.794769e-003
2.661284e+003, 4.726733e-003
2.663212e+003, 4.315802e-003
2.665141e+003, 4.044577e-003
2.667069e+003, 4.119727e-003
2.668998e+003, 4.232962e-003
2.670926e+003, 4.206482e-003
2.672855e+003, 4.102373e-003
2.674783e+003, 4.017137e-003
2.676712e+003, 4.132388e-003
2.678640e+003, 4.514881e-003
2.680569e+003, 4.612952e-003
2.682497e+003, 4.318571e-003
2.684426e+003, 4.173174e-003
2.686354e+003, 4.239544e-003
2.688282e+003, 4.306099e-003
2.690211e+003, 4.237479e-003
2.692139e+003, 4.252631e-003
2.694068e+003, 4.266646e-003
2.695996e+003, 4.183039e-003
2.697925e+003, 4.295881e-003
2.699853e+003, 4.252126e-003
2.701782e+003, 4.142803e-003
2.703710e+003, 4.344224e-003
2.705639e+003, 4.333225e-003
2.707567e+003, 4.201570e-003
2.709496e+003, 4.234775e-003
2.711424e+003, 4.353331e-003
2.713353e+003, 4.399330e-003
2.715281e+003, 4.301092e-003
2.717209e+003, 4.272563e-003
2.719138e+003, 4.568532e-003
2.721066e+003, 4.559956e-003
2.722995e+003, 4.513044e-003
2.724923e+003, 4.604830e-003
2.726852e+003, 4.633425e-003
2.728780e+003, 4.557960e-003
2.730709e+003, 4.531251e-003
2.732637e+003, 4.537662e-003
2.734566e+003, 4.500616e-003
2.736494e+003, 4.726913e-003
2.738423e+003, 4.645481e-003
2.740351e+003, 4.761736e-003
2.742280e+003, 4.847142e-003
2.744208e+003, 4.604123e-003
2.746136e+003, 4.611227e-003
2.748065e+003, 4.834629e-003
2.749993e+003, 4.889287e-003
2.751922e+003, 5.045570e-003
2.753850e+003, 4.751380e-003
2.755779e+003, 4.620643e-003
2.757707e+003, 4.554486e-003
2.759636e+003, 4.630214e-003
2.761564e+003, 5.000961e-003
2.763493e+003, 5.032806e-003
2.765421e+003, 5.139429e-003
2.767350e+003, 5.432499e-003
2.769278e+003, 5.452182e-003
2.771207e+003, 5.058553e-003
2.773135e+003, 4.922880e-003
2.775063e+003, 5.032153e-003
2.776992e+003, 4.987177e-003
2.778920e+003, 4.755870e-003
2.780849e+003, 4.834225e-003
2.782777e+003, 4.859839e-003
2.784706e+003, 4.977201e-003
2.786634e+003, 5.153691e-003
2.788563e+003, 4.933612e-003
2.790491e+003, 4.720876e-003
2.792420e+003, 4.811216e-003
2.794348e+003, 5.229215e-003
2.796277e+003, 5.289816e-003
2.798205e+003, 5.242936e-003
2.800134e+003, 5.263181e-003
2.802062e+003, 5.384623e-003
2.803990e+003, 5.487563e-003
2.805919e+003, 5.442727e-003
2.807847e+003, 5.303909e-003
2.809776e+003, 5.550914e-003
2.811704e+003, 5.658081e-003
2.813633e+003, 5.328727e-003
2.815561e+003, 5.341327e-003
2.817490e+003, 5.598211e-003
2.819418e+003, 5.338415e-003
2.821347e+003, 5.154809e-003
2.823275e+003, 5.384038e-003
2.825204e+003, 5.550333e-003
2.827132e+003, 5.642894e-003
2.829061e+003, 5.451502e-003
2.830989e+003, 5.692514e-003
2.832917e+003, 5.878353e-003
2.834846e+003, 5.693275e-003
2.836774e+003, 5.771983e-003
2.838703e+003, 5.845128e-003
2.840631e+003, 5.765920e-003
2.842560e+003, 5.502325e-003
2.844488e+003, 5.052531e-003
2.846417e+003, 4.220018e-003
2.848345e+003, 3.395444e-003
2.850274e+003, 2.921079e-003
2.852202e+003, 2.693131e-003
2.854131e+003, 2.447849e-003
2.856059e+003, 2.775385e-003
2.857988e+003, 3.262550e-003
2.859916e+003, 3.965199e-003
2.861844e+003, 4.449334e-003
2.863773e+003, 4.632085e-003
2.865701e+003, 4.728453e-003
2.867630e+003, 4.535619e-003
2.869558e+003, 4.553794e-003
2.871487e+003, 5.050097e-003
2.873415e+003, 5.307358e-003
2.875344e+003, 5.362241e-003
2.877272e+003, 5.563899e-003
2.879201e+003, 5.697992e-003
2.881129e+003, 5.416502e-003
2.883058e+003, 5.445792e-003
2.884986e+003, 5.673185e-003
2.886915e+003, 5.637344e-003
2.888843e+003, 5.674032e-003
2.890771e+003, 5.774954e-003
2.892700e+003, 5.322821e-003
2.894628e+003, 4.645186e-003
2.896557e+003, 4.722794e-003
2.898485e+003, 4.691082e-003
2.900414e+003, 4.784542e-003
2.902342e+003, 4.654945e-003
2.904271e+003, 4.340369e-003
2.906199e+003, 4.325222e-003
2.908128e+003, 4.628389e-003
2.910056e+003, 4.332515e-003
2.911985e+003, 3.582241e-003
2.913913e+003, 3.213218e-003
2.915842e+003, 2.700020e-003
2.917770e+003, 2.219395e-003
2.919698e+003, 2.072059e-003
2.921627e+003, 1.357722e-003
2.923555e+003, 9.273228e-004
2.925484e+003, 1.286056e-003
2.927412e+003, 1.557872e-003
2.929341e+003, 1.926808e-003
2.931269e+003, 2.626518e-003
2.933198e+003, 2.848496e-003
2.935126e+003, 2.979864e-003
2.937055e+003, 3.436780e-003
2.938983e+003, 3.777273e-003
2.940912e+003, 4.174890e-003
2.942840e+003, 4.735000e-003
2.944769e+003, 4.859792e-003
2.946697e+003, 4.734049e-003
2.948625e+003, 4.727197e-003
2.950554e+003, 4.702170e-003
2.952482e+003, 5.147988e-003
2.954411e+003, 5.551967e-003
2.956339e+003, 5.305976e-003
2.958268e+003, 5.516194e-003
2.960196e+003, 5.913706e-003
2.962125e+003, 6.062557e-003
2.964053e+003, 6.105227e-003
2.965982e+003, 6.133554e-003
2.967910e+003, 6.548889e-003
2.969839e+003, 6.470212e-003
2.971767e+003, 6.015577e-003
2.973696e+003, 6.105051e-003
2.975624e+003, 6.394882e-003
2.977552e+003, 6.238663e-003
2.979481e+003, 6.276287e-003
2.981409e+003, 6.613079e-003
2.983338e+003, 6.536132e-003
2.985266e+003, 6.424602e-003
2.987195e+003, 6.309740e-003
2.989123e+003, 6.415185e-003
2.991052e+003, 6.682732e-003
2.992980e+003, 6.688192e-003
2.994909e+003, 6.432254e-003
2.996837e+003, 6.362501e-003
2.998766e+003, 6.587028e-003
3.000694e+003, 6.613191e-003
3.002623e+003, 6.440823e-003
3.004551e+003, 6.357380e-003
3.006479e+003, 6.626599e-003
3.008408e+003, 6.464998e-003
3.010336e+003, 6.393221e-003
3.012265e+003, 6.779152e-003
3.014193e+003, 6.570931e-003
3.016122e+003, 5.705309e-003
3.018050e+003, 5.658987e-003
3.019979e+003, 6.596483e-003
3.021907e+003, 6.908102e-003
3.023836e+003, 6.792617e-003
3.025764e+003, 6.718203e-003
3.027693e+003, 6.838795e-003
3.029621e+003, 6.862581e-003
3.031550e+003, 6.640539e-003
3.033478e+003, 6.838080e-003
3.035406e+003, 6.955919e-003
3.037335e+003, 7.018254e-003
3.039263e+003, 7.437197e-003
3.041192e+003, 7.534181e-003
3.043120e+003, 7.425964e-003
3.045049e+003, 7.374306e-003
3.046977e+003, 7.027008e-003
3.048906e+003, 6.832881e-003
3.050834e+003, 7.268742e-003
3.052763e+003, 7.684852e-003
3.054691e+003, 7.279868e-003
3.056620e+003, 7.167420e-003
3.058548e+003, 7.914961e-003
3.060477e+003, 7.679800e-003
3.062405e+003, 7.260522e-003
3.064333e+003, 7.251768e-003
3.066262e+003, 7.285708e-003
3.068190e+003, 7.717580e-003
3.070119e+003, 7.949543e-003
3.072047e+003, 7.771413e-003
3.073976e+003, 7.475091e-003
3.075904e+003, 7.102128e-003
3.077833e+003, 7.061724e-003
3.079761e+003, 7.159356e-003
3.081690e+003, 7.184728e-003
3.083618e+003, 7.453094e-003
3.085547e+003, 7.772011e-003
3.087475e+003, 7.909358e-003
3.089404e+003, 7.652733e-003
3.091332e+003, 7.285656e-003
3.093260e+003, 7.788897e-003
3.095189e+003, 8.138986e-003
3.097117e+003, 8.191299e-003
3.099046e+003, 8.304824e-003
3.100974e+003, 8.350992e-003
3.102903e+003, 8.377959e-003
3.104831e+003, 7.889759e-003
3.106760e+003, 7.992363e-003
3.108688e+003, 8.580011e-003
3.110617e+003, 8.165593e-003
3.112545e+003, 8.028675e-003
3.114474e+003, 8.709871e-003
3.116402e+003, 8.699830e-003
3.118331e+003, 8.367164e-003
3.120259e+003, 8.168630e-003
3.122188e+003, 8.597479e-003
3.124116e+003, 8.715776e-003
3.126044e+003, 8.274284e-003
3.127973e+003, 8.370381e-003
3.129901e+003, 9.117163e-003
3.131830e+003, 8.851676e-003
3.133758e+003, 8.755505e-003
3.135687e+003, 9.031169e-003
3.137615e+003, 8.634147e-003
3.139544e+003, 8.626629e-003
3.141472e+003, 8.948575e-003
3.143401e+003, 8.398088e-003
3.145329e+003, 8.460136e-003
3.147258e+003, 8.928809e-003
3.149186e+003, 9.031391e-003
3.151115e+003, 9.021535e-003
3.153043e+003, 9.122809e-003
3.154971e+003, 9.231689e-003
3.156900e+003, 9.468865e-003
3.158828e+003, 9.478823e-003
3.160757e+003, 9.083686e-003
3.162685e+003, 8.929701e-003
3.164614e+003, 9.193590e-003
3.166542e+003, 9.140837e-003
3.168471e+003, 8.866133e-003
3.170399e+003, 9.073003e-003
3.172328e+003, 9.560927e-003
3.174256e+003, 9.842809e-003
3.176185e+003, 9.291346e-003
3.178113e+003, 9.094264e-003
3.180042e+003, 9.134093e-003
3.181970e+003, 9.094275e-003
3.183898e+003, 9.057896e-003
3.185827e+003, 9.057922e-003
3.187755e+003, 9.448370e-003
3.189684e+003, 9.842277e-003
3.191612e+003, 9.480480e-003
3.193541e+003, 9.378983e-003
3.195469e+003, 9.731519e-003
3.197398e+003, 1.013896e-002
3.199326e+003, 9.821313e-003
3.201255e+003, 9.507076e-003
3.203183e+003, 9.644207e-003
3.205112e+003, 9.904286e-003
3.207040e+003, 9.606722e-003
3.208969e+003, 9.437961e-003
3.210897e+003, 9.620537e-003
3.212825e+003, 9.835415e-003
3.214754e+003, 9.827760e-003
3.216682e+003, 9.614664e-003
3.218611e+003, 9.531372e-003
3.220539e+003, 9.986845e-003
3.222468e+003, 1.030392e-002
3.224396e+003, 1.040582e-002
3.226325e+003, 1.026609e-002
3.228253e+003, 9.991403e-003
3.230182e+003, 9.962946e-003
3.232110e+003, 1.018145e-002
3.234039e+003, 1.021230e-002
3.235967e+003, 1.025636e-002
3.237896e+003, 1.011978e-002
3.239824e+003, 9.946296e-003
3.241752e+003, 1.005872e-002
3.243681e+003, 9.875365e-003
3.245609e+003, 9.658235e-003
3.247538e+003, 9.545186e-003
3.249466e+003, 9.508756e-003
3.251395e+003, 9.862864e-003
3.253323e+003, 1.014648e-002
3.255252e+003, 1.033811e-002
3.257180e+003, 1.015787e-002
3.259109e+003, 9.722007e-003
3.261037e+003, 1.018200e-002
3.262966e+003, 1.106015e-002
3.264894e+003, 1.066886e-002
3.266823e+003, 1.039094e-002
3.268751e+003, 1.045039e-002
3.270679e+003, 1.027967e-002
3.272608e+003, 1.035242e-002
3.274536e+003, 1.046230e-002
3.276465e+003, 1.054881e-002
3.278393e+003, 1.055037e-002
3.280322e+003, 1.026936e-002
3.282250e+003, 9.847768e-003
3.284179e+003, 1.071686e-002
3.286107e+003, 1.090927e-002
3.288036e+003, 1.039066e-002
3.289964e+003, 1.021170e-002
3.291893e+003, 1.045582e-002
3.293821e+003, 1.062001e-002
3.295750e+003, 1.103747e-002
3.297678e+003, 1.078724e-002
3.299606e+003, 1.079086e-002
3.301535e+003, 1.066950e-002
3.303463e+003, 1.044711e-002
3.305392e+003, 1.033038e-002
3.307320e+003, 1.028615e-002
3.309249e+003, 1.089044e-002
3.311177e+003, 1.133170e-002
3.313106e+003, 1.102937e-002
3.315034e+003, 1.118551e-002
3.316963e+003, 1.076540e-002
3.318891e+003, 1.019760e-002
3.320820e+003, 1.038668e-002
3.322748e+003, 1.047827e-002
3.324677e+003, 1.097839e-002
3.326605e+003, 1.143480e-002
3.328533e+003, 1.094659e-002
3.330462e+003, 1.073053e-002
3.332390e+003, 1.079821e-002
3.334319e+003, 1.053419e-002
3.336247e+003, 1.106690e-002
3.338176e+003, 1.176197e-002
3.340104e+003, 1.109153e-002
3.342033e+003, 1.015700e-002
3.343961e+003, 1.019697e-002
3.345890e+003, 1.043984e-002
3.347818e+003, 1.041264e-002
3.349747e+003, 1.089252e-002
3.351675e+003, 1.094765e-002
3.353604e+003, 1.111893e-002
3.355532e+003, 1.130544e-002
3.357460e+003, 1.120114e-002
3.359389e+003, 1.170260e-002
3.361317e+003, 1.152034e-002
3.363246e+003, 1.076277e-002
3.365174e+003, 1.053686e-002
3.367103e+003, 1.038149e-002
3.369031e+003, 1.035513e-002
3.370960e+003, 1.128032e-002
3.372888e+003, 1.126510e-002
3.374817e+003, 1.123871e-002
3.376745e+003, 1.169715e-002
3.378674e+003, 1.132570e-002
3.380602e+003, 1.123843e-002
3.382531e+003, 1.202528e-002
3.384459e+003, 1.184136e-002
3.386387e+003, 1.133294e-002
3.388316e+003, 1.124286e-002
3.390244e+003, 1.143712e-002
3.392173e+003, 1.115885e-002
3.394101e+003, 1.073541e-002
3.396030e+003, 1.094607e-002
3.397958e+003, 1.102110e-002
3.399887e+003, 1.120426e-002
3.401815e+003, 1.148954e-002
3.403744e+003, 1.172197e-002
3.405672e+003, 1.185688e-002
3.407601e+003, 1.204008e-002
3.409529e+003, 1.232421e-002
3.411458e+003, 1.243372e-002
3.413386e+003, 1.280742e-002
3.415314e+003, 1.304269e-002
3.417243e+003, 1.277875e-002
3.419171e+003, 1.315917e-002
3.421100e+003, 1.370563e-002
3.423028e+003, 1.366879e-002
3.424957e+003, 1.405696e-002
3.426885e+003, 1.423678e-002
3.428814e+003, 1.428134e-002
3.430742e+003, 1.443853e-002
3.432671e+003, 1.497257e-002
3.434599e+003, 1.624854e-002
3.436528e+003, 1.613170e-002
3.438456e+003, 1.557926e-002
3.440385e+003, 1.589071e-002
3.442313e+003, 1.642820e-002
3.444241e+003, 1.734418e-002
3.446170e+003, 1.792981e-002
3.448098e+003, 1.819454e-002
3.450027e+003, 1.769218e-002
3.451955e+003, 1.789380e-002
3.453884e+003, 1.846752e-002
3.455812e+003, 1.851698e-002
3.457741e+003, 1.902343e-002
3.459669e+003, 1.990866e-002
3.461598e+003, 2.030458e-002
3.463526e+003, 2.113065e-002
3.465455e+003, 2.228398e-002
3.467383e+003, 2.231220e-002
3.469312e+003, 2.211703e-002
3.471240e+003, 2.214201e-002
3.473168e+003, 2.221559e-002
3.475097e+003, 2.211921e-002
3.477025e+003, 2.175599e-002
3.478954e+003, 2.158313e-002
3.480882e+003, 2.176260e-002
3.482811e+003, 2.199542e-002
3.484739e+003, 2.190541e-002
3.486668e+003, 2.126876e-002
3.488596e+003, 2.059077e-002
3.490525e+003, 2.036860e-002
3.492453e+003, 2.049170e-002
3.494382e+003, 2.036989e-002
3.496310e+003, 1.956063e-002
3.498239e+003, 1.868741e-002
3.500167e+003, 1.785926e-002
3.502095e+003, 1.658058e-002
3.504024e+003, 1.569919e-002
3.505952e+003, 1.474695e-002
3.507881e+003, 1.430572e-002
3.509809e+003, 1.324944e-002
3.511738e+003, 1.239130e-002
3.513666e+003, 1.133202e-002
3.515595e+003, 1.055436e-002
3.517523e+003, 1.012362e-002
3.519452e+003, 9.892484e-003
3.521380e+003, 9.462498e-003
3.523309e+003, 9.758736e-003
3.525237e+003, 9.858551e-003
3.527166e+003, 9.134591e-003
3.529094e+003, 8.969099e-003
3.531022e+003, 9.709767e-003
3.532951e+003, 9.969849e-003
3.534879e+003, 9.782993e-003
3.536808e+003, 9.681084e-003
3.538736e+003, 1.028749e-002
3.540665e+003, 1.121182e-002
3.542593e+003, 1.205167e-002
3.544522e+003, 1.215988e-002
3.546450e+003, 1.175043e-002
3.548379e+003, 1.204008e-002
3.550307e+003, 1.299817e-002
3.552236e+003, 1.336927e-002
3.554164e+003, 1.407071e-002
3.556093e+003, 1.437690e-002
3.558021e+003, 1.375556e-002
3.559949e+003, 1.346476e-002
3.561878e+003, 1.415313e-002
3.563806e+003, 1.506572e-002
3.565735e+003, 1.481521e-002
3.567663e+003, 1.421214e-002
3.569592e+003, 1.422455e-002
3.571520e+003, 1.464583e-002
3.573449e+003, 1.522753e-002
3.575377e+003, 1.580287e-002
3.577306e+003, 1.650755e-002
3.579234e+003, 1.643851e-002
3.581163e+003, 1.709934e-002
3.583091e+003, 1.770554e-002
3.585020e+003, 1.723693e-002
3.586948e+003, 1.699911e-002
3.588876e+003, 1.674495e-002
3.590805e+003, 1.631081e-002
3.592733e+003, 1.573599e-002
3.594662e+003, 1.446360e-002
3.596590e+003, 1.345243e-002
3.598519e+003, 1.247762e-002
3.600447e+003, 1.162218e-002
3.602376e+003, 1.112592e-002
3.604304e+003, 1.015839e-002
3.606233e+003, 8.839628e-003
3.608161e+003, 7.139088e-003
3.610090e+003, 5.169866e-003
3.612018e+003, 4.074899e-003
3.613947e+003, 4.025765e-003
3.615875e+003, 4.374084e-003
3.617803e+003, 4.488044e-003
3.619732e+003, 3.602283e-003
3.621660e+003, 2.981142e-003
3.623589e+003, 2.603837e-003
3.625517e+003, 3.150593e-003
3.627446e+003, 3.670519e-003
3.629374e+003, 3.599995e-003
3.631303e+003, 3.120166e-003
3.633231e+003, 3.714866e-003
3.635160e+003, 3.943175e-003
3.637088e+003, 3.260020e-003
3.639017e+003, 3.507726e-003
3.640945e+003, 4.052133e-003
3.642874e+003, 4.010316e-003
3.644802e+003, 4.177422e-003
3.646730e+003, 4.235446e-003
3.648659e+003, 4.376812e-003
3.650587e+003, 3.951718e-003
3.652516e+003, 3.403181e-003
3.654444e+003, 3.662688e-003
3.656373e+003, 3.787961e-003
3.658301e+003, 3.296084e-003
3.660230e+003, 2.734726e-003
3.662158e+003, 2.895357e-003
3.664087e+003, 3.445591e-003
3.666015e+003, 4.140778e-003
3.667944e+003, 3.997552e-003
3.669872e+003, 3.924772e-003
3.671801e+003, 3.699472e-003
3.673729e+003, 3.091232e-003
3.675657e+003, 3.429384e-003
3.677586e+003, 3.831607e-003
3.679514e+003, 3.158525e-003
3.681443e+003, 3.297515e-003
3.683371e+003, 3.376133e-003
3.685300e+003, 3.699828e-003
3.687228e+003, 3.688381e-003
3.689157e+003, 3.422833e-003
3.691085e+003, 2.921066e-003
3.693014e+003, 2.467461e-003
3.694942e+003, 2.047945e-003
3.696871e+003, 1.847359e-003
3.698799e+003, 3.107880e-003
3.700728e+003, 4.355210e-003
3.702656e+003, 4.273908e-003
3.704584e+003, 3.354673e-003
3.706513e+003, 3.278474e-003
3.708441e+003, 4.122288e-003
3.710370e+003, 4.415175e-003
3.712298e+003, 4.194443e-003
3.714227e+003, 3.356177e-003
3.716155e+003, 2.936813e-003
3.718084e+003, 3.769980e-003
3.720012e+003, 4.032725e-003
3.721941e+003, 3.754032e-003
3.723869e+003, 3.958292e-003
3.725798e+003, 4.636119e-003
3.727726e+003, 4.657930e-003
3.729655e+003, 4.054997e-003
3.731583e+003, 3.075421e-003
3.733511e+003, 3.435189e-003
3.735440e+003, 4.097526e-003
3.737368e+003, 4.209632e-003
3.739297e+003, 3.901148e-003
3.741225e+003, 3.831335e-003
3.743154e+003, 3.678651e-003
3.745082e+003, 3.285718e-003
3.747011e+003, 3.228056e-003
3.748939e+003, 3.682321e-003
3.750868e+003, 4.323210e-003
3.752796e+003, 4.561330e-003
3.754725e+003, 4.392765e-003
3.756653e+003, 4.321622e-003
3.758582e+003, 3.704123e-003
3.760510e+003, 3.564651e-003
3.762438e+003, 4.535890e-003
3.764367e+003, 4.434406e-003
3.766295e+003, 3.759354e-003
3.768224e+003, 3.621375e-003
3.770152e+003, 3.226396e-003
3.772081e+003, 3.127491e-003
3.774009e+003, 3.578416e-003
3.775938e+003, 3.879941e-003
3.777866e+003, 4.370456e-003
3.779795e+003, 4.094057e-003
3.781723e+003, 4.285839e-003
3.783652e+003, 4.980484e-003
3.785580e+003, 5.166480e-003
3.787509e+003, 4.673176e-003
3.789437e+003, 4.118857e-003
3.791365e+003, 3.507381e-003
3.793294e+003, 3.146703e-003
3.795222e+003, 3.313238e-003
3.797151e+003, 3.898584e-003
3.799079e+003, 4.985532e-003
3.801008e+003, 4.264136e-003
3.802936e+003, 3.044753e-003
3.804865e+003, 3.085458e-003
3.806793e+003, 3.752486e-003
3.808722e+003, 4.385165e-003
3.810650e+003, 4.065227e-003
3.812579e+003, 3.585640e-003
3.814507e+003, 3.971792e-003
3.816436e+003, 4.340557e-003
3.818364e+003, 3.420710e-003
3.820292e+003, 2.734714e-003
3.822221e+003, 2.814248e-003
3.824149e+003, 3.513007e-003
3.826078e+003, 3.886046e-003
3.828006e+003, 3.966194e-003
3.829935e+003, 3.514658e-003
3.831863e+003, 2.610024e-003
3.833792e+003, 3.133692e-003
3.835720e+003, 3.860211e-003
3.837649e+003, 3.678125e-003
3.839577e+003, 3.775616e-003
3.841506e+003, 3.896546e-003
3.843434e+003, 3.370146e-003
3.845363e+003, 2.874260e-003
3.847291e+003, 3.020274e-003
3.849219e+003, 3.060519e-003
3.851148e+003, 3.190934e-003
3.853076e+003, 2.989437e-003
3.855005e+003, 2.994778e-003
3.856933e+003, 3.898340e-003
3.858862e+003, 3.847240e-003
3.860790e+003, 3.531744e-003
3.862719e+003, 3.706940e-003
3.864647e+003, 3.950855e-003
3.866576e+003, 4.205589e-003
3.868504e+003, 3.598842e-003
3.870433e+003, 2.976560e-003
3.872361e+003, 3.305333e-003
3.874290e+003, 4.692201e-003
3.876218e+003, 5.373308e-003
3.878146e+003, 4.508010e-003
3.880075e+003, 3.474694e-003
3.882003e+003, 3.492673e-003
3.883932e+003, 4.086062e-003
3.885860e+003, 3.868972e-003
3.887789e+003, 3.065566e-003
3.889717e+003, 2.411583e-003
3.891646e+003, 3.245760e-003
3.893574e+003, 3.567466e-003
3.895503e+003, 3.722400e-003
3.897431e+003, 4.657273e-003
3.899360e+003, 4.600515e-003
3.901288e+003, 3.472151e-003
3.903217e+003, 2.817752e-003
3.905145e+003, 2.989864e-003
3.907073e+003, 3.267880e-003
3.909002e+003, 3.392148e-003
3.910930e+003, 3.915255e-003
3.912859e+003, 4.112137e-003
3.914787e+003, 3.653438e-003
3.916716e+003, 4.039757e-003
3.918644e+003, 3.798803e-003
3.920573e+003, 3.125122e-003
3.922501e+003, 2.521189e-003
3.924430e+003, 3.126422e-003
3.926358e+003, 4.410573e-003
3.928287e+003, 4.150881e-003
3.930215e+003, 2.965954e-003
3.932144e+003, 2.308717e-003
3.934072e+003, 2.662084e-003
3.936000e+003, 2.625532e-003
3.937929e+003, 2.434630e-003
3.939857e+003, 3.129771e-003
3.941786e+003, 3.871439e-003
3.943714e+003, 3.474877e-003
3.945643e+003, 3.720412e-003
3.947571e+003, 4.516689e-003
3.949500e+003, 4.393358e-003
3.951428e+003, 3.950361e-003
3.953357e+003, 3.458852e-003
3.955285e+003, 2.649209e-003
3.957214e+003, 2.324616e-003
3.959142e+003, 3.054075e-003
3.961071e+003, 3.990157e-003
3.962999e+003, 3.048564e-003
3.964927e+003, 2.496893e-003
3.966856e+003, 2.591990e-003
3.968784e+003, 2.600664e-003
3.970713e+003, 2.934829e-003
3.972641e+003, 3.626431e-003
3.974570e+003, 4.105113e-003
3.976498e+003, 3.695644e-003
3.978427e+003, 3.230680e-003
3.980355e+003, 3.075177e-003
3.982284e+003, 2.897342e-003
3.984212e+003, 3.283107e-003
3.986141e+003, 2.731954e-003
3.988069e+003, 2.669261e-003
3.989998e+003, 3.393033e-003
3.991926e+003, 3.178176e-003
3.993854e+003, 2.725860e-003
3.995783e+003, 3.326705e-003
3.997711e+003, 3.725874e-003
3.999640e+003, 3.737678e-003
##END=



