##NAMES=Enargite
##RRUFFID=R050435
##IDEAL CHEMISTRY=Cu_3_AsS_4_
##LOCALITY=Longfellow mine, Red Mountain Pass, Ouray, Colorado, USA
##OWNER=RRUFF
##SOURCE=University of Arizona Mineral Museum
##DESCRIPTION=Grayish black prismatic crystals
##STATUS=The identification of this mineral has been confirmed by X-ray diffraction and chemical analysis
##URL=rruff.info/R050435
##MEASURED CHEMISTRY=Cu_2.97_As_0.95_Sb_0.02_S_4_
399.1926, 0.1556841
401.1211, 0.1418813
403.0496, 0.1425634
404.9780, 0.1530106
406.9065, 0.1656535
408.8350, 0.1790325
410.7634, 0.1923362
412.6919, 0.2084402
414.6204, 0.2243830
416.5488, 0.2315048
418.4773, 0.2350012
420.4058, 0.2476149
422.3342, 0.2539506
424.2627, 0.2564609
426.1912, 0.2658468
428.1196, 0.2748236
430.0481, 0.2827530
431.9766, 0.2894359
433.9050, 0.2921861
435.8335, 0.2914160
437.7620, 0.2961007
439.6904, 0.2998421
441.6189, 0.3021853
443.5474, 0.3074424
445.4758, 0.3094783
447.4043, 0.3135599
449.3328, 0.3213206
451.2612, 0.3246395
453.1897, 0.3227705
455.1182, 0.3224510
457.0466, 0.3268022
458.9751, 0.3345183
460.9036, 0.3359075
462.8320, 0.3351335
464.7605, 0.3375646
466.6890, 0.3406390
468.6174, 0.3431682
470.5459, 0.3441842
472.4744, 0.3459354
474.4028, 0.3477831
476.3313, 0.3488856
478.2598, 0.3496605
480.1882, 0.3523746
482.1167, 0.3539749
484.0452, 0.3548411
485.9736, 0.3550920
487.9021, 0.3559771
489.8306, 0.3570348
491.7590, 0.3585071
493.6875, 0.3606685
495.6160, 0.3645057
497.5444, 0.3683306
499.4729, 0.3703730
501.4014, 0.3715267
503.3298, 0.3735762
505.2583, 0.3754519
507.1868, 0.3788047
509.1152, 0.3811866
511.0437, 0.3798334
512.9722, 0.3812446
514.9006, 0.3850037
516.8291, 0.3864614
518.7576, 0.3881116
520.6860, 0.3900128
522.6145, 0.3901048
524.5430, 0.3922776
526.4714, 0.3914304
528.3999, 0.3899020
530.3284, 0.3927540
532.2568, 0.3943676
534.1853, 0.3962797
536.1138, 0.3978985
538.0422, 0.3993680
539.9707, 0.4012373
541.8992, 0.4033722
543.8276, 0.4035256
545.7561, 0.4027694
547.6846, 0.4035949
549.6130, 0.4051590
551.5415, 0.4063517
553.4700, 0.4082240
555.3984, 0.4103941
557.3269, 0.4113459
559.2554, 0.4129487
561.1838, 0.4142582
563.1123, 0.4144870
565.0408, 0.4169751
566.9692, 0.4193546
568.8977, 0.4186829
570.8262, 0.4204412
572.7546, 0.4235800
574.6831, 0.4255822
576.6116, 0.4266505
578.5400, 0.4265051
580.4685, 0.4286550
582.3970, 0.4339500
584.3254, 0.4359827
586.2539, 0.4384671
588.1824, 0.4421209
590.1108, 0.4426741
592.0393, 0.4433291
593.9678, 0.4456646
595.8962, 0.4461182
597.8247, 0.4485890
599.7532, 0.4496040
601.6816, 0.4466438
603.6101, 0.4439762
605.5386, 0.4445251
607.4670, 0.4459609
609.3955, 0.4433623
611.3240, 0.4389909
613.2524, 0.4360826
615.1809, 0.4358099
617.1094, 0.4368543
619.0378, 0.4384849
620.9663, 0.4391374
622.8948, 0.4411180
624.8232, 0.4429540
626.7517, 0.4436955
628.6802, 0.4434912
630.6086, 0.4403111
632.5371, 0.4386778
634.4656, 0.4382397
636.3940, 0.4369746
638.3225, 0.4356187
640.2510, 0.4357926
642.1794, 0.4362085
644.1079, 0.4368032
646.0364, 0.4380698
647.9648, 0.4385219
649.8933, 0.4391824
651.8218, 0.4415700
653.7502, 0.4437770
655.6787, 0.4462198
657.6072, 0.4473976
659.5356, 0.4486061
661.4641, 0.4503785
663.3926, 0.4511621
665.3210, 0.4506089
667.2495, 0.4517002
669.1780, 0.4531989
671.1064, 0.4535893
673.0349, 0.4538360
674.9634, 0.4530067
676.8918, 0.4527488
678.8203, 0.4541737
680.7488, 0.4567573
682.6772, 0.4590735
684.6057, 0.4594805
686.5342, 0.4599477
688.4626, 0.4610124
690.3911, 0.4626567
692.3196, 0.4648487
694.2480, 0.4667153
696.1765, 0.4686562
698.1050, 0.4710015
700.0334, 0.4725164
701.9619, 0.4731760
703.8904, 0.4756755
705.8188, 0.4775064
707.7473, 0.4787566
709.6758, 0.4801191
711.6042, 0.4811487
713.5327, 0.4818125
715.4612, 0.4826573
717.3896, 0.4844271
719.3181, 0.4861483
721.2466, 0.4863462
723.1750, 0.4869999
725.1035, 0.4882681
727.0320, 0.4905714
728.9604, 0.4918344
730.8889, 0.4922442
732.8174, 0.4918633
734.7458, 0.4923038
736.6743, 0.4946854
738.6028, 0.4965068
740.5313, 0.4977835
742.4597, 0.4992737
744.3882, 0.4997777
746.3167, 0.4996147
748.2451, 0.5016443
750.1736, 0.5046915
752.1021, 0.5060028
754.0305, 0.5067693
755.9590, 0.5087995
757.8875, 0.5107976
759.8159, 0.5115014
761.7444, 0.5127943
763.6729, 0.5144885
765.6013, 0.5162464
767.5298, 0.5168663
769.4583, 0.5171433
771.3867, 0.5176967
773.3152, 0.5189200
775.2437, 0.5200576
777.1721, 0.5215592
779.1006, 0.5224368
781.0291, 0.5235162
782.9575, 0.5247135
784.8860, 0.5248473
786.8145, 0.5251207
788.7429, 0.5264942
790.6714, 0.5289241
792.5999, 0.5292733
794.5283, 0.5289366
796.4568, 0.5298911
798.3853, 0.5301039
800.3137, 0.5298499
802.2422, 0.5304689
804.1707, 0.5314012
806.0991, 0.5314539
808.0276, 0.5319717
809.9561, 0.5332630
811.8845, 0.5338804
813.8130, 0.5341552
815.7415, 0.5340884
817.6699, 0.5334981
819.5984, 0.5331362
821.5269, 0.5334854
823.4553, 0.5345390
825.3838, 0.5351075
827.3123, 0.5349752
829.2407, 0.5350695
831.1692, 0.5355329
833.0977, 0.5356190
835.0261, 0.5354744
836.9546, 0.5359387
838.8831, 0.5372257
840.8115, 0.5376133
842.7400, 0.5375167
844.6685, 0.5380477
846.5969, 0.5385308
848.5254, 0.5392493
850.4539, 0.5392376
852.3823, 0.5394841
854.3108, 0.5406543
856.2393, 0.5417262
858.1677, 0.5419785
860.0962, 0.5423125
862.0247, 0.5432334
863.9531, 0.5434090
865.8816, 0.5443765
867.8101, 0.5465079
869.7385, 0.5466372
871.6670, 0.5446911
873.5955, 0.5424635
875.5239, 0.5403226
877.4524, 0.5394688
879.3809, 0.5398055
881.3093, 0.5400875
883.2378, 0.5400717
885.1663, 0.5401405
887.0947, 0.5407569
889.0232, 0.5415891
890.9517, 0.5420950
892.8801, 0.5424623
894.8085, 0.5431468
896.7370, 0.5438837
898.6655, 0.5450464
900.5939, 0.5459685
902.5224, 0.5464472
904.4509, 0.5472998
906.3793, 0.5489231
908.3078, 0.5503682
910.2363, 0.5513318
912.1647, 0.5522758
914.0932, 0.5528743
916.0217, 0.5536562
917.9501, 0.5552391
919.8786, 0.5563712
921.8071, 0.5576728
923.7355, 0.5598047
925.6640, 0.5609716
927.5925, 0.5616339
929.5209, 0.5630920
931.4494, 0.5643090
933.3779, 0.5658519
935.3063, 0.5680613
937.2348, 0.5697396
939.1633, 0.5706897
941.0917, 0.5711117
943.0202, 0.5722153
944.9487, 0.5743672
946.8771, 0.5763450
948.8056, 0.5785492
950.7341, 0.5801378
952.6625, 0.5823936
954.5910, 0.5843394
956.5195, 0.5860922
958.4479, 0.5879811
960.3764, 0.5891873
962.3049, 0.5907004
964.2333, 0.5932477
966.1618, 0.5950328
968.0903, 0.5964236
970.0187, 0.5977480
971.9472, 0.5989143
973.8757, 0.6000655
975.8041, 0.6009814
977.7326, 0.6028396
979.6611, 0.6048090
981.5895, 0.6074389
983.5180, 0.6087995
985.4465, 0.6086177
987.3749, 0.6093246
989.3034, 0.6113278
991.2319, 0.6135985
993.1603, 0.6157377
995.0888, 0.6168637
997.0173, 0.6181625
998.9457, 0.6211691
1000.874, 0.6235668
1002.803, 0.6255053
1004.731, 0.6273875
1006.660, 0.6294469
1008.588, 0.6316893
1010.517, 0.6347113
1012.445, 0.6374305
1014.373, 0.6389406
1016.302, 0.6406636
1018.230, 0.6423972
1020.159, 0.6434402
1022.087, 0.6445320
1024.016, 0.6456019
1025.944, 0.6469961
1027.873, 0.6486299
1029.801, 0.6502398
1031.730, 0.6527395
1033.658, 0.6557140
1035.587, 0.6582665
1037.515, 0.6597896
1039.444, 0.6602240
1041.372, 0.6614795
1043.301, 0.6635142
1045.229, 0.6649841
1047.157, 0.6659845
1049.086, 0.6664417
1051.014, 0.6668369
1052.943, 0.6674604
1054.871, 0.6681058
1056.800, 0.6685868
1058.728, 0.6695064
1060.657, 0.6694582
1062.585, 0.6696625
1064.514, 0.6705586
1066.442, 0.6712081
1068.371, 0.6710798
1070.299, 0.6704845
1072.228, 0.6697587
1074.156, 0.6692883
1076.084, 0.6684908
1078.013, 0.6668557
1079.941, 0.6660150
1081.870, 0.6660446
1083.798, 0.6648953
1085.727, 0.6633711
1087.655, 0.6631195
1089.584, 0.6628715
1091.512, 0.6610221
1093.441, 0.6595857
1095.369, 0.6581094
1097.298, 0.6564459
1099.226, 0.6562361
1101.155, 0.6562437
1103.083, 0.6556550
1105.011, 0.6547270
1106.940, 0.6534131
1108.868, 0.6517137
1110.797, 0.6506246
1112.725, 0.6500449
1114.654, 0.6485395
1116.582, 0.6468280
1118.511, 0.6450293
1120.439, 0.6426415
1122.368, 0.6405409
1124.296, 0.6384455
1126.225, 0.6362172
1128.153, 0.6341401
1130.082, 0.6324013
1132.010, 0.6305113
1133.938, 0.6294658
1135.867, 0.6284878
1137.795, 0.6270819
1139.724, 0.6268603
1141.652, 0.6271743
1143.581, 0.6263763
1145.509, 0.6253700
1147.438, 0.6239715
1149.366, 0.6224641
1151.295, 0.6203933
1153.223, 0.6186709
1155.152, 0.6172301
1157.080, 0.6153657
1159.009, 0.6122810
1160.937, 0.6099880
1162.865, 0.6084515
1164.794, 0.6064825
1166.722, 0.6038143
1168.651, 0.6013315
1170.579, 0.5987840
1172.508, 0.5960414
1174.436, 0.5934720
1176.365, 0.5904045
1178.293, 0.5873733
1180.222, 0.5841865
1182.150, 0.5813661
1184.079, 0.5787972
1186.007, 0.5757385
1187.936, 0.5725363
1189.864, 0.5696451
1191.792, 0.5667233
1193.721, 0.5640520
1195.649, 0.5618315
1197.578, 0.5596269
1199.506, 0.5581899
1201.435, 0.5566080
1203.363, 0.5547212
1205.292, 0.5538826
1207.220, 0.5526012
1209.149, 0.5513029
1211.077, 0.5502993
1213.006, 0.5497045
1214.934, 0.5496768
1216.863, 0.5497434
1218.791, 0.5501128
1220.719, 0.5503044
1222.648, 0.5504746
1224.576, 0.5508303
1226.505, 0.5517073
1228.433, 0.5530390
1230.362, 0.5540959
1232.290, 0.5555118
1234.219, 0.5574921
1236.147, 0.5595156
1238.076, 0.5611988
1240.004, 0.5633336
1241.933, 0.5655764
1243.861, 0.5677833
1245.790, 0.5695451
1247.718, 0.5715771
1249.646, 0.5739700
1251.575, 0.5760608
1253.503, 0.5774614
1255.432, 0.5785425
1257.360, 0.5799946
1259.289, 0.5816996
1261.217, 0.5835341
1263.146, 0.5851539
1265.074, 0.5863301
1267.003, 0.5880924
1268.931, 0.5900478
1270.860, 0.5912817
1272.788, 0.5926098
1274.717, 0.5942931
1276.645, 0.5953392
1278.573, 0.5962021
1280.502, 0.5982357
1282.430, 0.6004483
1284.359, 0.6017917
1286.287, 0.6033392
1288.216, 0.6049000
1290.144, 0.6057732
1292.073, 0.6067293
1294.001, 0.6079742
1295.930, 0.6091887
1297.858, 0.6108111
1299.787, 0.6123049
1301.715, 0.6134000
1303.644, 0.6140118
1305.572, 0.6153718
1307.500, 0.6166222
1309.429, 0.6176879
1311.357, 0.6195933
1313.286, 0.6210533
1315.214, 0.6219400
1317.143, 0.6231516
1319.071, 0.6243082
1321.000, 0.6249238
1322.928, 0.6263844
1324.857, 0.6281563
1326.785, 0.6294344
1328.714, 0.6305372
1330.642, 0.6317488
1332.571, 0.6330472
1334.499, 0.6338843
1336.427, 0.6350072
1338.356, 0.6363292
1340.284, 0.6375716
1342.213, 0.6389426
1344.141, 0.6404447
1346.070, 0.6417451
1347.998, 0.6424745
1349.927, 0.6434141
1351.855, 0.6449540
1353.784, 0.6466484
1355.712, 0.6476382
1357.641, 0.6482213
1359.569, 0.6497048
1361.498, 0.6507012
1363.426, 0.6519671
1365.354, 0.6532770
1367.283, 0.6544575
1369.211, 0.6560718
1371.140, 0.6573212
1373.068, 0.6589202
1374.997, 0.6603210
1376.925, 0.6607732
1378.854, 0.6613233
1380.782, 0.6621063
1382.711, 0.6631675
1384.639, 0.6647047
1386.568, 0.6656398
1388.496, 0.6663458
1390.424, 0.6675107
1392.353, 0.6690320
1394.281, 0.6708534
1396.210, 0.6720116
1398.138, 0.6727713
1400.067, 0.6742508
1401.995, 0.6756307
1403.924, 0.6767632
1405.852, 0.6776064
1407.781, 0.6783196
1409.709, 0.6786045
1411.638, 0.6781787
1413.566, 0.6781066
1415.495, 0.6779953
1417.423, 0.6780765
1419.351, 0.6785319
1421.280, 0.6790810
1423.208, 0.6788293
1425.137, 0.6789672
1427.065, 0.6793334
1428.994, 0.6788703
1430.922, 0.6783138
1432.851, 0.6795920
1434.779, 0.6818283
1436.708, 0.6831416
1438.636, 0.6847694
1440.565, 0.6863332
1442.493, 0.6873676
1444.422, 0.6881962
1446.350, 0.6890014
1448.278, 0.6892094
1450.207, 0.6888458
1452.135, 0.6887941
1454.064, 0.6887055
1455.992, 0.6876028
1457.921, 0.6869153
1459.849, 0.6868072
1461.778, 0.6862964
1463.706, 0.6854061
1465.635, 0.6849880
1467.563, 0.6845127
1469.492, 0.6837431
1471.420, 0.6826978
1473.349, 0.6820298
1475.277, 0.6821457
1477.205, 0.6824734
1479.134, 0.6828498
1481.062, 0.6835663
1482.991, 0.6841718
1484.919, 0.6850550
1486.848, 0.6868785
1488.776, 0.6887687
1490.705, 0.6902967
1492.633, 0.6914408
1494.562, 0.6919149
1496.490, 0.6915916
1498.419, 0.6914538
1500.347, 0.6913806
1502.276, 0.6908463
1504.204, 0.6905876
1506.132, 0.6903977
1508.061, 0.6904054
1509.989, 0.6906400
1511.918, 0.6910397
1513.846, 0.6915895
1515.775, 0.6915429
1517.703, 0.6920801
1519.632, 0.6933208
1521.560, 0.6938808
1523.489, 0.6935268
1525.417, 0.6945982
1527.346, 0.6963390
1529.274, 0.6970369
1531.203, 0.6965657
1533.131, 0.6965429
1535.059, 0.6970273
1536.988, 0.6976836
1538.916, 0.6982281
1540.845, 0.6991452
1542.773, 0.7001120
1544.702, 0.7007530
1546.630, 0.7017905
1548.559, 0.7025787
1550.487, 0.7027413
1552.416, 0.7032219
1554.344, 0.7042027
1556.273, 0.7047116
1558.201, 0.7053875
1560.130, 0.7061301
1562.058, 0.7069005
1563.986, 0.7075781
1565.915, 0.7086195
1567.843, 0.7093367
1569.772, 0.7096578
1571.700, 0.7107906
1573.629, 0.7120600
1575.557, 0.7132231
1577.486, 0.7142302
1579.414, 0.7146438
1581.343, 0.7149763
1583.271, 0.7153908
1585.200, 0.7161844
1587.128, 0.7165909
1589.057, 0.7171777
1590.985, 0.7180899
1592.913, 0.7190696
1594.842, 0.7194971
1596.770, 0.7203411
1598.699, 0.7213967
1600.627, 0.7224599
1602.556, 0.7234587
1604.484, 0.7234641
1606.413, 0.7243599
1608.341, 0.7250681
1610.270, 0.7249631
1612.198, 0.7258127
1614.127, 0.7274197
1616.055, 0.7275193
1617.984, 0.7278169
1619.912, 0.7287484
1621.840, 0.7286195
1623.769, 0.7286827
1625.697, 0.7293328
1627.626, 0.7301740
1629.554, 0.7304019
1631.483, 0.7301612
1633.411, 0.7303661
1635.340, 0.7306023
1637.268, 0.7309295
1639.197, 0.7313890
1641.125, 0.7313688
1643.054, 0.7312171
1644.982, 0.7313485
1646.911, 0.7315913
1648.839, 0.7318484
1650.767, 0.7321697
1652.696, 0.7320047
1654.624, 0.7321138
1656.553, 0.7323427
1658.481, 0.7326367
1660.410, 0.7326459
1662.338, 0.7322621
1664.267, 0.7325045
1666.195, 0.7324806
1668.124, 0.7320287
1670.052, 0.7317387
1671.981, 0.7323616
1673.909, 0.7329400
1675.838, 0.7335955
1677.766, 0.7337521
1679.694, 0.7336349
1681.623, 0.7332926
1683.551, 0.7332802
1685.480, 0.7344526
1687.408, 0.7351047
1689.337, 0.7359106
1691.265, 0.7364218
1693.194, 0.7364326
1695.122, 0.7364412
1697.051, 0.7365093
1698.979, 0.7374024
1700.908, 0.7383320
1702.836, 0.7391305
1704.765, 0.7400202
1706.693, 0.7404794
1708.621, 0.7409902
1710.550, 0.7418908
1712.478, 0.7417921
1714.407, 0.7414649
1716.335, 0.7427214
1718.264, 0.7443148
1720.192, 0.7449037
1722.121, 0.7451582
1724.049, 0.7455703
1725.978, 0.7457491
1727.906, 0.7461957
1729.835, 0.7472190
1731.763, 0.7478598
1733.692, 0.7478006
1735.620, 0.7475684
1737.548, 0.7485235
1739.477, 0.7496810
1741.405, 0.7500170
1743.334, 0.7495783
1745.262, 0.7493649
1747.191, 0.7495173
1749.119, 0.7498094
1751.048, 0.7502468
1752.976, 0.7506475
1754.905, 0.7513748
1756.833, 0.7524117
1758.762, 0.7523603
1760.690, 0.7517307
1762.619, 0.7517701
1764.547, 0.7529002
1766.475, 0.7544685
1768.404, 0.7551864
1770.332, 0.7552962
1772.261, 0.7549404
1774.189, 0.7545741
1776.118, 0.7546431
1778.046, 0.7559521
1779.975, 0.7567500
1781.903, 0.7574680
1783.832, 0.7581384
1785.760, 0.7584235
1787.689, 0.7577122
1789.617, 0.7581561
1791.546, 0.7595775
1793.474, 0.7602495
1795.402, 0.7613514
1797.331, 0.7615804
1799.259, 0.7615984
1801.188, 0.7614399
1803.116, 0.7618659
1805.045, 0.7621734
1806.973, 0.7627070
1808.902, 0.7635784
1810.830, 0.7641677
1812.759, 0.7644598
1814.687, 0.7649601
1816.616, 0.7650678
1818.544, 0.7649450
1820.473, 0.7657226
1822.401, 0.7664636
1824.329, 0.7663707
1826.258, 0.7663583
1828.186, 0.7664405
1830.115, 0.7666135
1832.043, 0.7670923
1833.972, 0.7675062
1835.900, 0.7674319
1837.829, 0.7671995
1839.757, 0.7677217
1841.686, 0.7690307
1843.614, 0.7694730
1845.543, 0.7696905
1847.471, 0.7712610
1849.400, 0.7719303
1851.328, 0.7709373
1853.256, 0.7720159
1855.185, 0.7721875
1857.113, 0.7720061
1859.042, 0.7735555
1860.970, 0.7745982
1862.899, 0.7756667
1864.827, 0.7747645
1866.756, 0.7739574
1868.684, 0.7746372
1870.613, 0.7749467
1872.541, 0.7737522
1874.470, 0.7743989
1876.398, 0.7766404
1878.327, 0.7787585
1880.255, 0.7780306
1882.183, 0.7765951
1884.112, 0.7767994
1886.040, 0.7771605
1887.969, 0.7783561
1889.897, 0.7784421
1891.826, 0.7793580
1893.754, 0.7787609
1895.683, 0.7773116
1897.611, 0.7782699
1899.540, 0.7794214
1901.468, 0.7795149
1903.397, 0.7790394
1905.325, 0.7781948
1907.254, 0.7780964
1909.182, 0.7791188
1911.110, 0.7826831
1913.039, 0.7822548
1914.967, 0.7805521
1916.896, 0.7802261
1918.824, 0.7807416
1920.753, 0.7803547
1922.681, 0.7817523
1924.610, 0.7825033
1926.538, 0.7821138
1928.467, 0.7806943
1930.395, 0.7814097
1932.324, 0.7818995
1934.252, 0.7808782
1936.181, 0.7770135
1938.109, 0.7732569
1940.037, 0.7722141
1941.966, 0.7726128
1943.894, 0.7739031
1945.823, 0.7744790
1947.751, 0.7768866
1949.680, 0.7771953
1951.608, 0.7748108
1953.537, 0.7735125
1955.465, 0.7729349
1957.394, 0.7705351
1959.322, 0.7694264
1961.251, 0.7698203
1963.179, 0.7669744
1965.108, 0.7666489
1967.036, 0.7674754
1968.964, 0.7647114
1970.893, 0.7600104
1972.821, 0.7578977
1974.750, 0.7617665
1976.678, 0.7652745
1978.607, 0.7657693
1980.535, 0.7675730
1982.464, 0.7700400
1984.392, 0.7716606
1986.321, 0.7704960
1988.249, 0.7703549
1990.178, 0.7720541
1992.106, 0.7722422
1994.035, 0.7730407
1995.963, 0.7764919
1997.891, 0.7792596
1999.820, 0.7786166
2001.748, 0.7778076
2003.677, 0.7770497
2005.605, 0.7712061
2007.534, 0.7710907
2009.462, 0.7733747
2011.391, 0.7717734
2013.319, 0.7698811
2015.248, 0.7691966
2017.176, 0.7686191
2019.105, 0.7722490
2021.033, 0.7757119
2022.962, 0.7747303
2024.890, 0.7736803
2026.818, 0.7732799
2028.747, 0.7724274
2030.675, 0.7735489
2032.604, 0.7760839
2034.532, 0.7802168
2036.461, 0.7778770
2038.389, 0.7779146
2040.318, 0.7865555
2042.246, 0.7887851
2044.175, 0.7871460
2046.103, 0.7903410
2048.032, 0.7924908
2049.960, 0.7951280
2051.889, 0.7976457
2053.817, 0.8009987
2055.746, 0.8045458
2057.674, 0.8061711
2059.603, 0.8089733
2061.531, 0.8100432
2063.459, 0.8120576
2065.388, 0.8115563
2067.316, 0.8104181
2069.245, 0.8116756
2071.173, 0.8144112
2073.102, 0.8168991
2075.030, 0.8180650
2076.959, 0.8189928
2078.887, 0.8195871
2080.816, 0.8199644
2082.744, 0.8197259
2084.673, 0.8204538
2086.601, 0.8208434
2088.530, 0.8183838
2090.458, 0.8204162
2092.386, 0.8223848
2094.315, 0.8200672
2096.243, 0.8222127
2098.172, 0.8231452
2100.100, 0.8215258
2102.029, 0.8235707
2103.957, 0.8266932
2105.886, 0.8263322
2107.814, 0.8266452
2109.743, 0.8274925
2111.671, 0.8288471
2113.600, 0.8292658
2115.528, 0.8291025
2117.457, 0.8282292
2119.385, 0.8280488
2121.313, 0.8287824
2123.242, 0.8307132
2125.170, 0.8296900
2127.099, 0.8289762
2129.027, 0.8273659
2130.956, 0.8261342
2132.884, 0.8247788
2134.813, 0.8231406
2136.741, 0.8208984
2138.670, 0.8212580
2140.598, 0.8216926
2142.527, 0.8191714
2144.455, 0.8190078
2146.384, 0.8175332
2148.312, 0.8104040
2150.240, 0.8095960
2152.169, 0.8101797
2154.097, 0.8047472
2156.026, 0.7969671
2157.954, 0.7908651
2159.883, 0.7948114
2161.811, 0.8017856
2163.740, 0.8085757
2165.668, 0.8121591
2167.597, 0.8129001
2169.525, 0.8148261
2171.454, 0.8166963
2173.382, 0.8167563
2175.311, 0.8150069
2177.239, 0.8149455
2179.167, 0.8155854
2181.096, 0.8145186
2183.024, 0.8148983
2184.953, 0.8211770
2186.881, 0.8237661
2188.810, 0.8240982
2190.738, 0.8218913
2192.667, 0.8230695
2194.595, 0.8317864
2196.524, 0.8347777
2198.452, 0.8339598
2200.381, 0.8356145
2202.309, 0.8356101
2204.238, 0.8330712
2206.166, 0.8346644
2208.094, 0.8369323
2210.023, 0.8375497
2211.951, 0.8380054
2213.880, 0.8416886
2215.808, 0.8448651
2217.737, 0.8451491
2219.665, 0.8440199
2221.594, 0.8430486
2223.522, 0.8454904
2225.451, 0.8473794
2227.379, 0.8475593
2229.308, 0.8485868
2231.236, 0.8481727
2233.165, 0.8498061
2235.093, 0.8520896
2237.021, 0.8559661
2238.950, 0.8579648
2240.878, 0.8571039
2242.807, 0.8580415
2244.735, 0.8589944
2246.664, 0.8583337
2248.592, 0.8553303
2250.521, 0.8562673
2252.449, 0.8601311
2254.378, 0.8633440
2256.306, 0.8636826
2258.235, 0.8652718
2260.163, 0.8681245
2262.092, 0.8673871
2264.020, 0.8679640
2265.948, 0.8699333
2267.877, 0.8723199
2269.805, 0.8731878
2271.734, 0.8741354
2273.662, 0.8753265
2275.591, 0.8761490
2277.519, 0.8771446
2279.448, 0.8800101
2281.376, 0.8826119
2283.305, 0.8826685
2285.233, 0.8812292
2287.162, 0.8831063
2289.090, 0.8866526
2291.019, 0.8871637
2292.947, 0.8881218
2294.875, 0.8900753
2296.804, 0.8924617
2298.732, 0.8937169
2300.661, 0.8929694
2302.589, 0.8923790
2304.518, 0.8957983
2306.446, 0.8980157
2308.375, 0.8979555
2310.303, 0.8978529
2312.232, 0.8984364
2314.160, 0.8989730
2316.089, 0.9002906
2318.017, 0.9015727
2319.946, 0.9024871
2321.874, 0.9047621
2323.802, 0.9071033
2325.731, 0.9071398
2327.659, 0.9054399
2329.588, 0.9052253
2331.516, 0.9073922
2333.445, 0.9094874
2335.373, 0.9098714
2337.302, 0.9093269
2339.230, 0.9092681
2341.159, 0.9100515
2343.087, 0.9107638
2345.016, 0.9100565
2346.944, 0.9092543
2348.873, 0.9093769
2350.801, 0.9107259
2352.729, 0.9107190
2354.658, 0.9113869
2356.586, 0.9141168
2358.515, 0.9155648
2360.443, 0.9157684
2362.372, 0.9150746
2364.300, 0.9151291
2366.229, 0.9153783
2368.157, 0.9161107
2370.086, 0.9152403
2372.014, 0.9139655
2373.942, 0.9142015
2375.871, 0.9147736
2377.799, 0.9160447
2379.728, 0.9164270
2381.656, 0.9165905
2383.585, 0.9160526
2385.513, 0.9135250
2387.442, 0.9137979
2389.370, 0.9147301
2391.299, 0.9172026
2393.227, 0.9170425
2395.156, 0.9149577
2397.084, 0.9151573
2399.012, 0.9146433
2400.941, 0.9173341
2402.869, 0.9203180
2404.798, 0.9187492
2406.726, 0.9169623
2408.655, 0.9176823
2410.583, 0.9180325
2412.512, 0.9191086
2414.440, 0.9209532
2416.369, 0.9228781
2418.297, 0.9232118
2420.226, 0.9223198
2422.154, 0.9226470
2424.083, 0.9220235
2426.011, 0.9220471
2427.939, 0.9242442
2429.868, 0.9249119
2431.796, 0.9224678
2433.725, 0.9255012
2435.653, 0.9283470
2437.582, 0.9272264
2439.510, 0.9260262
2441.439, 0.9256153
2443.367, 0.9261863
2445.296, 0.9285950
2447.224, 0.9288098
2449.153, 0.9284008
2451.081, 0.9296424
2453.010, 0.9306756
2454.938, 0.9314154
2456.866, 0.9303924
2458.795, 0.9306607
2460.723, 0.9320681
2462.652, 0.9329982
2464.580, 0.9331933
2466.509, 0.9355507
2468.437, 0.9353548
2470.366, 0.9348482
2472.294, 0.9355316
2474.223, 0.9372362
2476.151, 0.9378186
2478.080, 0.9370403
2480.008, 0.9361125
2481.937, 0.9362265
2483.865, 0.9352510
2485.793, 0.9343529
2487.722, 0.9371790
2489.650, 0.9400004
2491.579, 0.9404266
2493.507, 0.9422400
2495.436, 0.9412749
2497.364, 0.9401399
2499.293, 0.9402816
2501.221, 0.9422131
2503.150, 0.9433464
2505.078, 0.9436274
2507.007, 0.9469097
2508.935, 0.9479889
2510.864, 0.9492300
2512.792, 0.9491047
2514.720, 0.9459479
2516.649, 0.9469520
2518.577, 0.9470155
2520.506, 0.9468127
2522.434, 0.9478841
2524.363, 0.9490682
2526.291, 0.9515963
2528.220, 0.9523838
2530.148, 0.9510338
2532.077, 0.9512304
2534.005, 0.9528980
2535.934, 0.9529498
2537.862, 0.9538547
2539.791, 0.9564438
2541.719, 0.9575747
2543.647, 0.9573225
2545.576, 0.9573485
2547.504, 0.9567524
2549.433, 0.9571795
2551.361, 0.9573566
2553.290, 0.9576114
2555.218, 0.9591020
2557.147, 0.9576544
2559.075, 0.9561291
2561.004, 0.9577000
2562.932, 0.9594889
2564.861, 0.9599296
2566.789, 0.9577398
2568.718, 0.9595768
2570.646, 0.9623131
2572.574, 0.9615922
2574.503, 0.9614636
2576.431, 0.9634938
2578.360, 0.9646798
2580.288, 0.9641831
2582.217, 0.9639764
2584.145, 0.9652195
2586.074, 0.9684305
2588.002, 0.9697999
2589.931, 0.9685237
2591.859, 0.9697210
2593.788, 0.9715090
2595.716, 0.9713539
2597.645, 0.9710083
2599.573, 0.9719753
2601.501, 0.9708934
2603.430, 0.9713327
2605.358, 0.9736203
2607.287, 0.9749510
2609.215, 0.9755700
2611.144, 0.9761235
2613.072, 0.9768307
2615.001, 0.9777272
2616.929, 0.9785386
2618.858, 0.9796767
2620.786, 0.9792732
2622.715, 0.9805281
2624.643, 0.9824682
2626.572, 0.9848169
2628.500, 0.9865246
2630.428, 0.9866459
2632.357, 0.9847441
2634.285, 0.9848577
2636.214, 0.9865945
2638.142, 0.9878770
2640.071, 0.9903595
2641.999, 0.9917719
2643.928, 0.9926726
2645.856, 0.9915693
2647.785, 0.9918256
2649.713, 0.9939775
2651.642, 0.9946114
2653.570, 0.9947290
2655.499, 0.9948497
2657.427, 0.9956678
2659.355, 0.9973090
2661.284, 0.9973228
2663.212, 0.9964060
2665.141, 0.9975916
2667.069, 0.9994571
2668.998, 0.9993256
2670.926, 0.9991742
2672.855, 0.9990647
2674.783, 0.9994371
2676.712, 1.000059
2678.640, 1.000419
2680.569, 1.001516
2682.497, 1.001997
2684.426, 1.002053
2686.354, 1.002073
2688.282, 1.002903
2690.211, 1.003903
2692.139, 1.004745
2694.068, 1.005746
2695.996, 1.005349
2697.925, 1.004566
2699.853, 1.006754
2701.782, 1.007782
2703.710, 1.007252
2705.639, 1.009264
2707.567, 1.009675
2709.496, 1.009272
2711.424, 1.010656
2713.353, 1.011475
2715.281, 1.010985
2717.209, 1.010684
2719.138, 1.012793
2721.066, 1.014010
2722.995, 1.013487
2724.923, 1.013029
2726.852, 1.014437
2728.780, 1.016698
2730.709, 1.017560
2732.637, 1.017469
2734.566, 1.017472
2736.494, 1.017805
2738.423, 1.018589
2740.351, 1.019201
2742.280, 1.019356
2744.208, 1.018685
2746.136, 1.018775
2748.065, 1.020921
2749.993, 1.022394
2751.922, 1.022654
2753.850, 1.022225
2755.779, 1.021676
2757.707, 1.021958
2759.636, 1.023481
2761.564, 1.023978
2763.493, 1.025451
2765.421, 1.026146
2767.350, 1.025747
2769.278, 1.025816
2771.207, 1.026806
2773.135, 1.028860
2775.063, 1.029393
2776.992, 1.029149
2778.920, 1.030435
2780.849, 1.031569
2782.777, 1.031387
2784.706, 1.030876
2786.634, 1.031565
2788.563, 1.031623
2790.491, 1.031899
2792.420, 1.032461
2794.348, 1.032517
2796.277, 1.032815
2798.205, 1.034433
2800.134, 1.036993
2802.062, 1.039173
2803.990, 1.041492
2805.919, 1.039328
2807.847, 1.036613
2809.776, 1.037043
2811.704, 1.038221
2813.633, 1.040506
2815.561, 1.040311
2817.490, 1.040684
2819.418, 1.041494
2821.347, 1.041594
2823.275, 1.041856
2825.204, 1.041696
2827.132, 1.042874
2829.061, 1.046794
2830.989, 1.048161
2832.917, 1.048080
2834.846, 1.049824
2836.774, 1.050691
2838.703, 1.051093
2840.631, 1.052227
2842.560, 1.050841
2844.488, 1.049050
2846.417, 1.050746
2848.345, 1.052099
2850.274, 1.051628
2852.202, 1.050617
2854.131, 1.050912
2856.059, 1.050773
2857.988, 1.049244
2859.916, 1.049865
2861.844, 1.051680
2863.773, 1.054534
2865.701, 1.056103
2867.630, 1.055086
2869.558, 1.054722
2871.487, 1.054519
2873.415, 1.055995
2875.344, 1.056656
2877.272, 1.058261
2879.201, 1.060652
2881.129, 1.062094
2883.058, 1.063382
2884.986, 1.063839
2886.915, 1.062611
2888.843, 1.062487
2890.771, 1.064574
2892.700, 1.067724
2894.628, 1.068630
2896.557, 1.067146
2898.485, 1.067422
2900.414, 1.068405
2902.342, 1.067877
2904.271, 1.069923
2906.199, 1.073336
2908.128, 1.073325
2910.056, 1.071165
2911.985, 1.072279
2913.913, 1.075133
2915.842, 1.073882
2917.770, 1.070286
2919.698, 1.069814
2921.627, 1.069214
2923.555, 1.066735
2925.484, 1.065896
2927.412, 1.065034
2929.341, 1.063420
2931.269, 1.061881
2933.198, 1.061614
2935.126, 1.061348
2937.055, 1.060763
2938.983, 1.060069
2940.912, 1.059821
2942.840, 1.062492
2944.769, 1.064000
2946.697, 1.064136
2948.625, 1.064173
2950.554, 1.066642
2952.482, 1.068991
2954.411, 1.067257
2956.339, 1.065777
2958.268, 1.065630
2960.196, 1.066326
2962.125, 1.066793
2964.053, 1.066331
2965.982, 1.067744
2967.910, 1.068044
2969.839, 1.069312
2971.767, 1.070040
2973.696, 1.070807
2975.624, 1.071488
2977.552, 1.071164
2979.481, 1.071042
2981.409, 1.072203
2983.338, 1.071761
2985.266, 1.071775
2987.195, 1.074171
2989.123, 1.076031
2991.052, 1.074509
2992.980, 1.074787
2994.909, 1.077294
2996.837, 1.078014
2998.766, 1.077094
3000.694, 1.075962
3002.623, 1.076388
3004.551, 1.078464
3006.479, 1.079752
3008.408, 1.080912
3010.336, 1.081287
3012.265, 1.079942
3014.193, 1.079640
3016.122, 1.079638
3018.050, 1.078158
3019.979, 1.077804
3021.907, 1.081174
3023.836, 1.084687
3025.764, 1.084087
3027.693, 1.083983
3029.621, 1.084460
3031.550, 1.084865
3033.478, 1.087536
3035.406, 1.087441
3037.335, 1.084804
3039.263, 1.085874
3041.192, 1.089960
3043.120, 1.090762
3045.049, 1.089813
3046.977, 1.087902
3048.906, 1.090539
3050.834, 1.090592
3052.763, 1.089452
3054.691, 1.091431
3056.620, 1.090544
3058.548, 1.090256
3060.477, 1.091151
3062.405, 1.094030
3064.333, 1.094766
3066.262, 1.093162
3068.190, 1.095098
3070.119, 1.100361
3072.047, 1.100954
3073.976, 1.098845
3075.904, 1.099900
3077.833, 1.099638
3079.761, 1.096827
3081.690, 1.097921
3083.618, 1.098469
3085.547, 1.096597
3087.475, 1.098427
3089.404, 1.102738
3091.332, 1.103582
3093.260, 1.102576
3095.189, 1.101799
3097.117, 1.101677
3099.046, 1.102582
3100.974, 1.103204
3102.903, 1.104919
3104.831, 1.107621
3106.760, 1.107712
3108.688, 1.107991
3110.617, 1.107650
3112.545, 1.107802
3114.474, 1.108430
3116.402, 1.110806
3118.331, 1.111176
3120.259, 1.110484
3122.188, 1.110664
3124.116, 1.112395
3126.044, 1.112762
3127.973, 1.110447
3129.901, 1.109117
3131.830, 1.109547
3133.758, 1.111658
3135.687, 1.112867
3137.615, 1.115458
3139.544, 1.116376
3141.472, 1.113707
3143.401, 1.113792
3145.329, 1.115421
3147.258, 1.116347
3149.186, 1.118193
3151.115, 1.118957
3153.043, 1.116871
3154.971, 1.116524
3156.900, 1.117961
3158.828, 1.120520
3160.757, 1.118621
3162.685, 1.119338
3164.614, 1.121260
3166.542, 1.121574
3168.471, 1.122558
3170.399, 1.123231
3172.328, 1.124245
3174.256, 1.126632
3176.185, 1.124473
3178.113, 1.123406
3180.042, 1.122421
3181.970, 1.121261
3183.898, 1.122459
3185.827, 1.124049
3187.755, 1.124896
3189.684, 1.127669
3191.612, 1.127177
3193.541, 1.125538
3195.469, 1.128104
3197.398, 1.128970
3199.326, 1.130644
3201.255, 1.132112
3203.183, 1.131963
3205.112, 1.131088
3207.040, 1.128248
3208.969, 1.125879
3210.897, 1.126537
3212.825, 1.129916
3214.754, 1.129017
3216.682, 1.129008
3218.611, 1.131925
3220.539, 1.133204
3222.468, 1.133959
3224.396, 1.133778
3226.325, 1.132332
3228.253, 1.130415
3230.182, 1.132767
3232.110, 1.131432
3234.039, 1.130665
3235.967, 1.133014
3237.896, 1.134686
3239.824, 1.135952
3241.752, 1.136538
3243.681, 1.135998
3245.609, 1.136230
3247.538, 1.136258
3249.466, 1.137746
3251.395, 1.140028
3253.323, 1.139222
3255.252, 1.136159
3257.180, 1.134310
3259.109, 1.136441
3261.037, 1.138357
3262.966, 1.136402
3264.894, 1.138703
3266.823, 1.143991
3268.751, 1.145152
3270.679, 1.144349
3272.608, 1.145770
3274.536, 1.143813
3276.465, 1.142806
3278.393, 1.144901
3280.322, 1.145041
3282.250, 1.145782
3284.179, 1.145446
3286.107, 1.145087
3288.036, 1.144651
3289.964, 1.143455
3291.893, 1.145208
3293.821, 1.142825
3295.750, 1.141084
3297.678, 1.143466
3299.606, 1.145133
3301.535, 1.146167
3303.463, 1.145535
3305.392, 1.145424
3307.320, 1.149267
3309.249, 1.149446
3311.177, 1.148548
3313.106, 1.148236
3315.034, 1.143692
3316.963, 1.144955
3318.891, 1.148267
3320.820, 1.146791
3322.748, 1.145575
3324.677, 1.146463
3326.605, 1.148125
3328.533, 1.149802
3330.462, 1.149427
3332.390, 1.149563
3334.319, 1.151870
3336.247, 1.153401
3338.176, 1.153082
3340.104, 1.150038
3342.033, 1.148531
3343.961, 1.150394
3345.890, 1.153086
3347.818, 1.153618
3349.747, 1.150975
3351.675, 1.147222
3353.604, 1.146079
3355.532, 1.147471
3357.460, 1.147779
3359.389, 1.148568
3361.317, 1.150803
3363.246, 1.152216
3365.174, 1.150700
3367.103, 1.148431
3369.031, 1.151270
3370.960, 1.154077
3372.888, 1.150988
3374.817, 1.150258
3376.745, 1.153506
3378.674, 1.154853
3380.602, 1.154381
3382.531, 1.151803
3384.459, 1.149042
3386.387, 1.151484
3388.316, 1.151246
3390.244, 1.151678
3392.173, 1.155092
3394.101, 1.154225
3396.030, 1.151192
3397.958, 1.151292
3399.887, 1.153207
3401.815, 1.154562
3403.744, 1.154536
3405.672, 1.154931
3407.601, 1.153602
3409.529, 1.152420
3411.458, 1.151823
3413.386, 1.153587
3415.314, 1.152600
3417.243, 1.152496
3419.171, 1.154131
3421.100, 1.156890
3423.028, 1.159639
3424.957, 1.160717
3426.885, 1.157676
3428.814, 1.156532
3430.742, 1.159408
3432.671, 1.158939
3434.599, 1.156834
3436.528, 1.153538
3438.456, 1.152056
3440.385, 1.155152
3442.313, 1.157853
3444.241, 1.157826
3446.170, 1.157091
3448.098, 1.158239
3450.027, 1.156500
3451.955, 1.155763
3453.884, 1.157622
3455.812, 1.154995
3457.741, 1.154031
3459.669, 1.158598
3461.598, 1.164991
3463.526, 1.162238
3465.455, 1.158514
3467.383, 1.159175
3469.312, 1.158430
3471.240, 1.159756
3473.168, 1.159882
3475.097, 1.158621
3477.025, 1.159825
3478.954, 1.156526
3480.882, 1.150216
3482.811, 1.151204
3484.739, 1.155095
3486.668, 1.154660
3488.596, 1.154709
3490.525, 1.158667
3492.453, 1.160986
3494.382, 1.162610
3496.310, 1.162025
3498.239, 1.158247
3500.167, 1.159016
3502.095, 1.162552
3504.024, 1.162122
3505.952, 1.160150
3507.881, 1.156605
3509.809, 1.155833
3511.738, 1.154951
3513.666, 1.155144
3515.595, 1.158615
3517.523, 1.161704
3519.452, 1.162421
3521.380, 1.161511
3523.309, 1.159736
3525.237, 1.155698
3527.166, 1.152924
3529.094, 1.157975
3531.022, 1.162373
3532.951, 1.157355
3534.879, 1.154399
3536.808, 1.159575
3538.736, 1.161731
3540.665, 1.162935
3542.593, 1.164551
3544.522, 1.165225
3546.450, 1.164164
3548.379, 1.165109
3550.307, 1.163633
3552.236, 1.160933
3554.164, 1.160740
3556.093, 1.163882
3558.021, 1.168105
3559.949, 1.166367
3561.878, 1.161345
3563.806, 1.164477
3565.735, 1.167405
3567.663, 1.163570
3569.592, 1.165360
3571.520, 1.168309
3573.449, 1.170355
3575.377, 1.165787
3577.306, 1.165278
3579.234, 1.171984
3581.163, 1.170055
3583.091, 1.168399
3585.020, 1.174589
3586.948, 1.172341
3588.876, 1.162834
3590.805, 1.165498
3592.733, 1.168562
3594.662, 1.171761
3596.590, 1.172312
3598.519, 1.171131
3600.447, 1.168264
3602.376, 1.167916
3604.304, 1.170958
3606.233, 1.168696
3608.161, 1.166989
3610.090, 1.167565
3612.018, 1.169660
3613.947, 1.168929
3615.875, 1.168094
3617.803, 1.174359
3619.732, 1.179157
3621.660, 1.182229
3623.589, 1.182256
3625.517, 1.178476
3627.446, 1.175122
3629.374, 1.171337
3631.303, 1.173923
3633.231, 1.176969
3635.160, 1.177460
3637.088, 1.178605
3639.017, 1.179783
3640.945, 1.181652
3642.874, 1.182576
3644.802, 1.185682
3646.730, 1.186542
3648.659, 1.181821
3650.587, 1.183918
3652.516, 1.189581
3654.444, 1.185511
3656.373, 1.183077
3658.301, 1.183984
3660.230, 1.187825
3662.158, 1.189783
3664.087, 1.190482
3666.015, 1.194079
3667.944, 1.196617
3669.872, 1.195406
3671.801, 1.193181
3673.729, 1.193577
3675.657, 1.195700
3677.586, 1.195841
3679.514, 1.194655
3681.443, 1.191350
3683.371, 1.191034
3685.300, 1.200699
3687.228, 1.204240
3689.157, 1.200543
3691.085, 1.203144
3693.014, 1.206975
3694.942, 1.206131
3696.871, 1.201871
3698.799, 1.201041
3700.728, 1.200740
3702.656, 1.199005
3704.584, 1.201202
3706.513, 1.204001
3708.441, 1.207224
3710.370, 1.212568
3712.298, 1.212517
3714.227, 1.208478
3716.155, 1.209350
3718.084, 1.213952
3720.012, 1.219211
3721.941, 1.219410
3723.869, 1.215201
3725.798, 1.214428
3727.726, 1.211877
3729.655, 1.210889
3731.583, 1.211749
3733.511, 1.207341
3735.440, 1.210461
3737.368, 1.220191
3739.297, 1.223380
3741.225, 1.223929
3743.154, 1.222223
3745.082, 1.217833
3747.011, 1.221546
3748.939, 1.227062
3750.868, 1.221107
3752.796, 1.219835
3754.725, 1.225670
3756.653, 1.229102
3758.582, 1.229116
3760.510, 1.223598
3762.438, 1.219736
3764.367, 1.222262
3766.295, 1.228867
3768.224, 1.227352
3770.152, 1.222444
3772.081, 1.223652
3774.009, 1.225456
3775.938, 1.230663
3777.866, 1.230892
3779.795, 1.226210
3781.723, 1.226357
3783.652, 1.236241
3785.580, 1.237681
3787.509, 1.235882
3789.437, 1.236655
3791.365, 1.236997
3793.294, 1.235810
3795.222, 1.234783
3797.151, 1.231858
3799.079, 1.232268
3801.008, 1.234517
3802.936, 1.235358
3804.865, 1.238545
3806.793, 1.240177
3808.722, 1.241649
3810.650, 1.245668
3812.579, 1.244229
3814.507, 1.236488
3816.436, 1.236220
3818.364, 1.239532
3820.292, 1.239553
3822.221, 1.236590
3824.149, 1.240318
3826.078, 1.242837
3828.006, 1.244585
3829.935, 1.252958
3831.863, 1.257815
3833.792, 1.258135
3835.720, 1.255159
3837.649, 1.253141
3839.577, 1.250813
3841.506, 1.250806
3843.434, 1.251750
3845.363, 1.247054
3847.291, 1.245334
3849.219, 1.248846
3851.148, 1.256256
3853.076, 1.258639
3855.005, 1.257357
3856.933, 1.255159
3858.862, 1.255382
3860.790, 1.253443
3862.719, 1.255377
3864.647, 1.261081
3866.576, 1.263456
3868.504, 1.262504
3870.433, 1.257529
3872.361, 1.259344
3874.290, 1.260505
3876.218, 1.259411
3878.146, 1.256251
3880.075, 1.254812
3882.003, 1.256468
3883.932, 1.262362
3885.860, 1.264418
3887.789, 1.261675
3889.717, 1.263835
3891.646, 1.262777
3893.574, 1.265214
3895.503, 1.266616
3897.431, 1.265177
3899.360, 1.271005
3901.288, 1.267418
3903.217, 1.264574
3905.145, 1.270223
3907.073, 1.270728
3909.002, 1.263809
3910.930, 1.262208
3912.859, 1.270576
3914.787, 1.277341
3916.716, 1.278118
3918.644, 1.277788
3920.573, 1.277562
3922.501, 1.271239
3924.430, 1.272657
3926.358, 1.275506
3928.287, 1.280812
3930.215, 1.277455
3932.144, 1.271939
3934.072, 1.276377
3936.000, 1.275277
3937.929, 1.269911
3939.857, 1.276821
3941.786, 1.278527
3943.714, 1.282952
3945.643, 1.292481
3947.571, 1.288948
3949.500, 1.281987
3951.428, 1.279162
3953.357, 1.284016
3955.285, 1.282095
3957.214, 1.279402
3959.142, 1.284619
3961.071, 1.289052
3962.999, 1.290636
3964.927, 1.288026
3966.856, 1.288633
3968.784, 1.296934
3970.713, 1.292740
3972.641, 1.291308
3974.570, 1.290548
3976.498, 1.288821
3978.427, 1.290415
3980.355, 1.285730
3982.284, 1.290157
3984.212, 1.300677
3986.141, 1.298457
3988.069, 1.295875
3989.998, 1.297027
3991.926, 1.297701
3993.854, 1.297798
3995.783, 1.295386
3997.711, 1.294137
3999.640, 1.294762
##END=



