##NAMES=Enargite
##RRUFFID=R050442
##IDEAL CHEMISTRY=Cu_3_AsS_4_
##LOCALITY=Butte, Silver Bow County, Montana, USA
##OWNER=RRUFF
##SOURCE=University of Arizona Mineral Museum
##DESCRIPTION=Black prismatic crystals associated with pyrite
##STATUS=The identification of this mineral has been confirmed by X-ray diffraction and chemical analysis
##URL=rruff.info/R050442
##MEASURED CHEMISTRY=Cu_2.98_As_0.97_Sb_0.03_S_4_
399.1926, 0.1017447
401.1211, 7.8112043E-02
403.0496, 7.8487568E-02
404.9780, 8.6150654E-02
406.9065, 9.8515868E-02
408.8350, 0.1110562
410.7634, 0.1276187
412.6919, 0.1476984
414.6204, 0.1649176
416.5488, 0.1733714
418.4773, 0.1793695
420.4058, 0.1917080
422.3342, 0.2051673
424.2627, 0.2131447
426.1912, 0.2175993
428.1196, 0.2229488
430.0481, 0.2289460
431.9766, 0.2339477
433.9050, 0.2354797
435.8335, 0.2404860
437.7620, 0.2471294
439.6904, 0.2528765
441.6189, 0.2548776
443.5474, 0.2555915
445.4758, 0.2589186
447.4043, 0.2627974
449.3328, 0.2663135
451.2612, 0.2711071
453.1897, 0.2734490
455.1182, 0.2758481
457.0466, 0.2801312
458.9751, 0.2801906
460.9036, 0.2796349
462.8320, 0.2809136
464.7605, 0.2843187
466.6890, 0.2890909
468.6174, 0.2932729
470.5459, 0.2943206
472.4744, 0.2942242
474.4028, 0.2927208
476.3313, 0.2932694
478.2598, 0.2977493
480.1882, 0.3010174
482.1167, 0.3014954
484.0452, 0.3021150
485.9736, 0.3045872
487.9021, 0.3072742
489.8306, 0.3072743
491.7590, 0.3067749
493.6875, 0.3089490
495.6160, 0.3104023
497.5444, 0.3127061
499.4729, 0.3157957
501.4014, 0.3169237
503.3298, 0.3201557
505.2583, 0.3221169
507.1868, 0.3216452
509.1152, 0.3242626
511.0437, 0.3257445
512.9722, 0.3236771
514.9006, 0.3241775
516.8291, 0.3268321
518.7576, 0.3302803
520.6860, 0.3325554
522.6145, 0.3315404
524.5430, 0.3310604
526.4714, 0.3325295
528.3999, 0.3347236
530.3284, 0.3359390
532.2568, 0.3358941
534.1853, 0.3356541
536.1138, 0.3365221
538.0422, 0.3378960
539.9707, 0.3388795
541.8992, 0.3394849
543.8276, 0.3410869
545.7561, 0.3426294
547.6846, 0.3440416
549.6130, 0.3465864
551.5415, 0.3470911
553.4700, 0.3464245
555.3984, 0.3458770
557.3269, 0.3467987
559.2554, 0.3495648
561.1838, 0.3506431
563.1123, 0.3506220
565.0408, 0.3502090
566.9692, 0.3516839
568.8977, 0.3536301
570.8262, 0.3554427
572.7546, 0.3559000
574.6831, 0.3563415
576.6116, 0.3577937
578.5400, 0.3573816
580.4685, 0.3567829
582.3970, 0.3583742
584.3254, 0.3598332
586.2539, 0.3612886
588.1824, 0.3614354
590.1108, 0.3613644
592.0393, 0.3631300
593.9678, 0.3649104
595.8962, 0.3653228
597.8247, 0.3661147
599.7532, 0.3676253
601.6816, 0.3677990
603.6101, 0.3686535
605.5386, 0.3691650
607.4670, 0.3694037
609.3955, 0.3703270
611.3240, 0.3716217
613.2524, 0.3720772
615.1809, 0.3722915
617.1094, 0.3728049
619.0378, 0.3739728
620.9663, 0.3750677
622.8948, 0.3762670
624.8232, 0.3779874
626.7517, 0.3789371
628.6802, 0.3803955
630.6086, 0.3812446
632.5371, 0.3805832
634.4656, 0.3808914
636.3940, 0.3831254
638.3225, 0.3841498
640.2510, 0.3848098
642.1794, 0.3864222
644.1079, 0.3859224
646.0364, 0.3852655
647.9648, 0.3863725
649.8933, 0.3872799
651.8218, 0.3875590
653.7502, 0.3881340
655.6787, 0.3890019
657.6072, 0.3899727
659.5356, 0.3896357
661.4641, 0.3901566
663.3926, 0.3908395
665.3210, 0.3914968
667.2495, 0.3916077
669.1780, 0.3926696
671.1064, 0.3945780
673.0349, 0.3952879
674.9634, 0.3952687
676.8918, 0.3955533
678.8203, 0.3958590
680.7488, 0.3973316
682.6772, 0.3979884
684.6057, 0.3992867
686.5342, 0.4005005
688.4626, 0.4016607
690.3911, 0.4023940
692.3196, 0.4032058
694.2480, 0.4036443
696.1765, 0.4030773
698.1050, 0.4032111
700.0334, 0.4048056
701.9619, 0.4061001
703.8904, 0.4071530
705.8188, 0.4084501
707.7473, 0.4098301
709.6758, 0.4099197
711.6042, 0.4104967
713.5327, 0.4120021
715.4612, 0.4133653
717.3896, 0.4145820
719.3181, 0.4148865
721.2466, 0.4148073
723.1750, 0.4147500
725.1035, 0.4149711
727.0320, 0.4154710
728.9604, 0.4146869
730.8889, 0.4149270
732.8174, 0.4165891
734.7458, 0.4167094
736.6743, 0.4167391
738.6028, 0.4173058
740.5313, 0.4181163
742.4597, 0.4192224
744.3882, 0.4197421
746.3167, 0.4200157
748.2451, 0.4206754
750.1736, 0.4218801
752.1021, 0.4233742
754.0305, 0.4247974
755.9590, 0.4251547
757.8875, 0.4251973
759.8159, 0.4261245
761.7444, 0.4268385
763.6729, 0.4279011
765.6013, 0.4289145
767.5298, 0.4296408
769.4583, 0.4297193
771.3867, 0.4287897
773.3152, 0.4288253
775.2437, 0.4298360
777.1721, 0.4315619
779.1006, 0.4325888
781.0291, 0.4322520
782.9575, 0.4326223
784.8860, 0.4342735
786.8145, 0.4347954
788.7429, 0.4356665
790.6714, 0.4369866
792.5999, 0.4374902
794.5283, 0.4381485
796.4568, 0.4388952
798.3853, 0.4391212
800.3137, 0.4401229
802.2422, 0.4407977
804.1707, 0.4408838
806.0991, 0.4408713
808.0276, 0.4418047
809.9561, 0.4429491
811.8845, 0.4433323
813.8130, 0.4434841
815.7415, 0.4436313
817.6699, 0.4440198
819.5984, 0.4445952
821.5269, 0.4447767
823.4553, 0.4457461
825.3838, 0.4467643
827.3123, 0.4471461
829.2407, 0.4475437
831.1692, 0.4477385
833.0977, 0.4478571
835.0261, 0.4487287
836.9546, 0.4493668
838.8831, 0.4500581
840.8115, 0.4508162
842.7400, 0.4507155
844.6685, 0.4506133
846.5969, 0.4509155
848.5254, 0.4514888
850.4539, 0.4529673
852.3823, 0.4546630
854.3108, 0.4551659
856.2393, 0.4548869
858.1677, 0.4554803
860.0962, 0.4571557
862.0247, 0.4582567
863.9531, 0.4583695
865.8816, 0.4584015
867.8101, 0.4593594
869.7385, 0.4611327
871.6670, 0.4616974
873.5955, 0.4612266
875.5239, 0.4613716
877.4524, 0.4618748
879.3809, 0.4620045
881.3093, 0.4623084
883.2378, 0.4622629
885.1663, 0.4629292
887.0947, 0.4637503
889.0232, 0.4642293
890.9517, 0.4645775
892.8801, 0.4649082
894.8085, 0.4657448
896.7370, 0.4659832
898.6655, 0.4670179
900.5939, 0.4682022
902.5224, 0.4681731
904.4509, 0.4687298
906.3793, 0.4692005
908.3078, 0.4694508
910.2363, 0.4702237
912.1647, 0.4705869
914.0932, 0.4707498
916.0217, 0.4715700
917.9501, 0.4727917
919.8786, 0.4733634
921.8071, 0.4735475
923.7355, 0.4742870
925.6640, 0.4753390
927.5925, 0.4759183
929.5209, 0.4765387
931.4494, 0.4772014
933.3779, 0.4775348
935.3063, 0.4779097
937.2348, 0.4793947
939.1633, 0.4807238
941.0917, 0.4810724
943.0202, 0.4816990
944.9487, 0.4820595
946.8771, 0.4826351
948.8056, 0.4834450
950.7341, 0.4844161
952.6625, 0.4851034
954.5910, 0.4852113
956.5195, 0.4852112
958.4479, 0.4855975
960.3764, 0.4863267
962.3049, 0.4877639
964.2333, 0.4886800
966.1618, 0.4889261
968.0903, 0.4899226
970.0187, 0.4904734
971.9472, 0.4906875
973.8757, 0.4909542
975.8041, 0.4916758
977.7326, 0.4926009
979.6611, 0.4931127
981.5895, 0.4940279
983.5180, 0.4952464
985.4465, 0.4956278
987.3749, 0.4965581
989.3034, 0.4973018
991.2319, 0.4974071
993.1603, 0.4980585
995.0888, 0.4986848
997.0173, 0.4996074
998.9457, 0.5006278
1000.874, 0.5014068
1002.803, 0.5017507
1004.731, 0.5023515
1006.660, 0.5030443
1008.588, 0.5037596
1010.517, 0.5046659
1012.445, 0.5056596
1014.373, 0.5065832
1016.302, 0.5072940
1018.230, 0.5082197
1020.159, 0.5088849
1022.087, 0.5096876
1024.016, 0.5102843
1025.944, 0.5100034
1027.873, 0.5095013
1029.801, 0.5092984
1031.730, 0.5092837
1033.658, 0.5100464
1035.587, 0.5108722
1037.515, 0.5112730
1039.444, 0.5116020
1041.372, 0.5121902
1043.301, 0.5130882
1045.229, 0.5135532
1047.157, 0.5140046
1049.086, 0.5149234
1051.014, 0.5164024
1052.943, 0.5170077
1054.871, 0.5173606
1056.800, 0.5176448
1058.728, 0.5180684
1060.657, 0.5187120
1062.585, 0.5183966
1064.514, 0.5180080
1066.442, 0.5184588
1068.371, 0.5192468
1070.299, 0.5195580
1072.228, 0.5195578
1074.156, 0.5189099
1076.084, 0.5186676
1078.013, 0.5188036
1079.941, 0.5188653
1081.870, 0.5190130
1083.798, 0.5186925
1085.727, 0.5186496
1087.655, 0.5189056
1089.584, 0.5190550
1091.512, 0.5194859
1093.441, 0.5197159
1095.369, 0.5199032
1097.298, 0.5207776
1099.226, 0.5208328
1101.155, 0.5200054
1103.083, 0.5201281
1105.011, 0.5210895
1106.940, 0.5210885
1108.868, 0.5209934
1110.797, 0.5213290
1112.725, 0.5216866
1114.654, 0.5222123
1116.582, 0.5225390
1118.511, 0.5228359
1120.439, 0.5233856
1122.368, 0.5237605
1124.296, 0.5239097
1126.225, 0.5243925
1128.153, 0.5255349
1130.082, 0.5269812
1132.010, 0.5277861
1133.938, 0.5282723
1135.867, 0.5293043
1137.795, 0.5307590
1139.724, 0.5319461
1141.652, 0.5322691
1143.581, 0.5325134
1145.509, 0.5331693
1147.438, 0.5335968
1149.366, 0.5338904
1151.295, 0.5341328
1153.223, 0.5341024
1155.152, 0.5339800
1157.080, 0.5334808
1159.009, 0.5331846
1160.937, 0.5334485
1162.865, 0.5337151
1164.794, 0.5336243
1166.722, 0.5333461
1168.651, 0.5329717
1170.579, 0.5323373
1172.508, 0.5315844
1174.436, 0.5307608
1176.365, 0.5304080
1178.293, 0.5304395
1180.222, 0.5302684
1182.150, 0.5304192
1184.079, 0.5307121
1186.007, 0.5313290
1187.936, 0.5315471
1189.864, 0.5318480
1191.792, 0.5323586
1193.721, 0.5324991
1195.649, 0.5330007
1197.578, 0.5339202
1199.506, 0.5347381
1201.435, 0.5347711
1203.363, 0.5351979
1205.292, 0.5355351
1207.220, 0.5356302
1209.149, 0.5364920
1211.077, 0.5372432
1213.006, 0.5372370
1214.934, 0.5372548
1216.863, 0.5372623
1218.791, 0.5371233
1220.719, 0.5377595
1222.648, 0.5388291
1224.576, 0.5391616
1226.505, 0.5392175
1228.433, 0.5394494
1230.362, 0.5403125
1232.290, 0.5411880
1234.219, 0.5411068
1236.147, 0.5409418
1238.076, 0.5414113
1240.004, 0.5417950
1241.933, 0.5418030
1243.861, 0.5417870
1245.790, 0.5418363
1247.718, 0.5420772
1249.646, 0.5421165
1251.575, 0.5418563
1253.503, 0.5424830
1255.432, 0.5437139
1257.360, 0.5439137
1259.289, 0.5435930
1261.217, 0.5436171
1263.146, 0.5440847
1265.074, 0.5447531
1267.003, 0.5452308
1268.931, 0.5454891
1270.860, 0.5459530
1272.788, 0.5466630
1274.717, 0.5469851
1276.645, 0.5469787
1278.573, 0.5470954
1280.502, 0.5479470
1282.430, 0.5485754
1284.359, 0.5492907
1286.287, 0.5500624
1288.216, 0.5507919
1290.144, 0.5517020
1292.073, 0.5519171
1294.001, 0.5518432
1295.930, 0.5521471
1297.858, 0.5525315
1299.787, 0.5532802
1301.715, 0.5542871
1303.644, 0.5547968
1305.572, 0.5552575
1307.500, 0.5550972
1309.429, 0.5551743
1311.357, 0.5558623
1313.286, 0.5569772
1315.214, 0.5580469
1317.143, 0.5587362
1319.071, 0.5583788
1321.000, 0.5586803
1322.928, 0.5592723
1324.857, 0.5602363
1326.785, 0.5610412
1328.714, 0.5613281
1330.642, 0.5612721
1332.571, 0.5615790
1334.499, 0.5622783
1336.427, 0.5625786
1338.356, 0.5630249
1340.284, 0.5641725
1342.213, 0.5647874
1344.141, 0.5648831
1346.070, 0.5649185
1347.998, 0.5656744
1349.927, 0.5666858
1351.855, 0.5672913
1353.784, 0.5674940
1355.712, 0.5681156
1357.641, 0.5684532
1359.569, 0.5685971
1361.498, 0.5690264
1363.426, 0.5692973
1365.354, 0.5692830
1367.283, 0.5696271
1369.211, 0.5707673
1371.140, 0.5719007
1373.068, 0.5720945
1374.997, 0.5730112
1376.925, 0.5733806
1378.854, 0.5730112
1380.782, 0.5729766
1382.711, 0.5732304
1384.639, 0.5736755
1386.568, 0.5743656
1388.496, 0.5747213
1390.424, 0.5750660
1392.353, 0.5758497
1394.281, 0.5770144
1396.210, 0.5777879
1398.138, 0.5780064
1400.067, 0.5784383
1401.995, 0.5789633
1403.924, 0.5792798
1405.852, 0.5795340
1407.781, 0.5805858
1409.709, 0.5810488
1411.638, 0.5811679
1413.566, 0.5822303
1415.495, 0.5828886
1417.423, 0.5829495
1419.351, 0.5834025
1421.280, 0.5838549
1423.208, 0.5841244
1425.137, 0.5845367
1427.065, 0.5854470
1428.994, 0.5863318
1430.922, 0.5865700
1432.851, 0.5870337
1434.779, 0.5876565
1436.708, 0.5876790
1438.636, 0.5879267
1440.565, 0.5887200
1442.493, 0.5892128
1444.422, 0.5892254
1446.350, 0.5895628
1448.278, 0.5899967
1450.207, 0.5902577
1452.135, 0.5911114
1454.064, 0.5916633
1455.992, 0.5911432
1457.921, 0.5906659
1459.849, 0.5905738
1461.778, 0.5905082
1463.706, 0.5905034
1465.635, 0.5904340
1467.563, 0.5902806
1469.492, 0.5902787
1471.420, 0.5902293
1473.349, 0.5902544
1475.277, 0.5910247
1477.205, 0.5916173
1479.134, 0.5916786
1481.062, 0.5918230
1482.991, 0.5921491
1484.919, 0.5926691
1486.848, 0.5928548
1488.776, 0.5927520
1490.705, 0.5929847
1492.633, 0.5936884
1494.562, 0.5942501
1496.490, 0.5945017
1498.419, 0.5952556
1500.347, 0.5963197
1502.276, 0.5965801
1504.204, 0.5967051
1506.132, 0.5973502
1508.061, 0.5979149
1509.989, 0.5981197
1511.918, 0.5981918
1513.846, 0.5984465
1515.775, 0.5988579
1517.703, 0.5993013
1519.632, 0.6001965
1521.560, 0.6008117
1523.489, 0.6010926
1525.417, 0.6012189
1527.346, 0.6012259
1529.274, 0.6015488
1531.203, 0.6025317
1533.131, 0.6033489
1535.059, 0.6032737
1536.988, 0.6036793
1538.916, 0.6046370
1540.845, 0.6048480
1542.773, 0.6050042
1544.702, 0.6054409
1546.630, 0.6060170
1548.559, 0.6066729
1550.487, 0.6067857
1552.416, 0.6071318
1554.344, 0.6075737
1556.273, 0.6082959
1558.201, 0.6092936
1560.130, 0.6092619
1562.058, 0.6095194
1563.986, 0.6098952
1565.915, 0.6098242
1567.843, 0.6103078
1569.772, 0.6109577
1571.700, 0.6119759
1573.629, 0.6123253
1575.557, 0.6120247
1577.486, 0.6122879
1579.414, 0.6127948
1581.343, 0.6134828
1583.271, 0.6140029
1585.200, 0.6141174
1587.128, 0.6148908
1589.057, 0.6158139
1590.985, 0.6156546
1592.913, 0.6161370
1594.842, 0.6168034
1596.770, 0.6170045
1598.699, 0.6170056
1600.627, 0.6174294
1602.556, 0.6184337
1604.484, 0.6188275
1606.413, 0.6189994
1608.341, 0.6191270
1610.270, 0.6194975
1612.198, 0.6203815
1614.127, 0.6216282
1616.055, 0.6226813
1617.984, 0.6225358
1619.912, 0.6221489
1621.840, 0.6222838
1623.769, 0.6229236
1625.697, 0.6239042
1627.626, 0.6242877
1629.554, 0.6245779
1631.483, 0.6249011
1633.411, 0.6254981
1635.340, 0.6266891
1637.268, 0.6271996
1639.197, 0.6274304
1641.125, 0.6278700
1643.054, 0.6277855
1644.982, 0.6276611
1646.911, 0.6279033
1648.839, 0.6286457
1650.767, 0.6296376
1652.696, 0.6295614
1654.624, 0.6296481
1656.553, 0.6296889
1658.481, 0.6296374
1660.410, 0.6303475
1662.338, 0.6307194
1664.267, 0.6308811
1666.195, 0.6309544
1668.124, 0.6308094
1670.052, 0.6312429
1671.981, 0.6317544
1673.909, 0.6320286
1675.838, 0.6318250
1677.766, 0.6313592
1679.694, 0.6316297
1681.623, 0.6328404
1683.551, 0.6331326
1685.480, 0.6333528
1687.408, 0.6342881
1689.337, 0.6344915
1691.265, 0.6346402
1693.194, 0.6355392
1695.122, 0.6363298
1697.051, 0.6363062
1698.979, 0.6365287
1700.908, 0.6368517
1702.836, 0.6370850
1704.765, 0.6376410
1706.693, 0.6378595
1708.621, 0.6374277
1710.550, 0.6380966
1712.478, 0.6385534
1714.407, 0.6389497
1716.335, 0.6389455
1718.264, 0.6390703
1720.192, 0.6399035
1722.121, 0.6405727
1724.049, 0.6405301
1725.978, 0.6409317
1727.906, 0.6415134
1729.835, 0.6419163
1731.763, 0.6426085
1733.692, 0.6427410
1735.620, 0.6426581
1737.548, 0.6427333
1739.477, 0.6426798
1741.405, 0.6426316
1743.334, 0.6436410
1745.262, 0.6437426
1747.191, 0.6423293
1749.119, 0.6413640
1751.048, 0.6418970
1752.976, 0.6426607
1754.905, 0.6435140
1756.833, 0.6434397
1758.762, 0.6426842
1760.690, 0.6430594
1762.619, 0.6439932
1764.547, 0.6453902
1766.475, 0.6457293
1768.404, 0.6456389
1770.332, 0.6454884
1772.261, 0.6463675
1774.189, 0.6472830
1776.118, 0.6473054
1778.046, 0.6474112
1779.975, 0.6481402
1781.903, 0.6490937
1783.832, 0.6496806
1785.760, 0.6490886
1787.689, 0.6490586
1789.617, 0.6494271
1791.546, 0.6492375
1793.474, 0.6493341
1795.402, 0.6507007
1797.331, 0.6507474
1799.259, 0.6502782
1801.188, 0.6511102
1803.116, 0.6519182
1805.045, 0.6518990
1806.973, 0.6518894
1808.902, 0.6521701
1810.830, 0.6524249
1812.759, 0.6526210
1814.687, 0.6516498
1816.616, 0.6522487
1818.544, 0.6542334
1820.473, 0.6541244
1822.401, 0.6521950
1824.329, 0.6514934
1826.258, 0.6526183
1828.186, 0.6541584
1830.115, 0.6555622
1832.043, 0.6553042
1833.972, 0.6551058
1835.900, 0.6548526
1837.829, 0.6555132
1839.757, 0.6557705
1841.686, 0.6566099
1843.614, 0.6579129
1845.543, 0.6574950
1847.471, 0.6572075
1849.400, 0.6572648
1851.328, 0.6568674
1853.256, 0.6565758
1855.185, 0.6571001
1857.113, 0.6579982
1859.042, 0.6579520
1860.970, 0.6582478
1862.899, 0.6589285
1864.827, 0.6601613
1866.756, 0.6605097
1868.684, 0.6594828
1870.613, 0.6585194
1872.541, 0.6595067
1874.470, 0.6613509
1876.398, 0.6619275
1878.327, 0.6613299
1880.255, 0.6598259
1882.183, 0.6590167
1884.112, 0.6592076
1886.040, 0.6604285
1887.969, 0.6619216
1889.897, 0.6618848
1891.826, 0.6619534
1893.754, 0.6626311
1895.683, 0.6639485
1897.611, 0.6644061
1899.540, 0.6633080
1901.468, 0.6638256
1903.397, 0.6639128
1905.325, 0.6636314
1907.254, 0.6638331
1909.182, 0.6632160
1911.110, 0.6628012
1913.039, 0.6623921
1914.967, 0.6627249
1916.896, 0.6628780
1918.824, 0.6632385
1920.753, 0.6640638
1922.681, 0.6651677
1924.610, 0.6643363
1926.538, 0.6638039
1928.467, 0.6645694
1930.395, 0.6645883
1932.324, 0.6622024
1934.252, 0.6613941
1936.181, 0.6626511
1938.109, 0.6636897
1940.037, 0.6634657
1941.966, 0.6626628
1943.894, 0.6619984
1945.823, 0.6610046
1947.751, 0.6582273
1949.680, 0.6557835
1951.608, 0.6564341
1953.537, 0.6576337
1955.465, 0.6568044
1957.394, 0.6532779
1959.322, 0.6502333
1961.251, 0.6539009
1963.179, 0.6544922
1965.108, 0.6535240
1967.036, 0.6541008
1968.964, 0.6550114
1970.893, 0.6572889
1972.821, 0.6536707
1974.750, 0.6496084
1976.678, 0.6519225
1978.607, 0.6555445
1980.535, 0.6554644
1982.464, 0.6537528
1984.392, 0.6556427
1986.321, 0.6584073
1988.249, 0.6586515
1990.178, 0.6561444
1992.106, 0.6554494
1994.035, 0.6585841
1995.963, 0.6605529
1997.891, 0.6579730
1999.820, 0.6568631
2001.748, 0.6584618
2003.677, 0.6575257
2005.605, 0.6564012
2007.534, 0.6592045
2009.462, 0.6592360
2011.391, 0.6571486
2013.319, 0.6573884
2015.248, 0.6597533
2017.176, 0.6587906
2019.105, 0.6576661
2021.033, 0.6565458
2022.962, 0.6583015
2024.890, 0.6594769
2026.818, 0.6560959
2028.747, 0.6562098
2030.675, 0.6568930
2032.604, 0.6555384
2034.532, 0.6591569
2036.461, 0.6629595
2038.389, 0.6619778
2040.318, 0.6649603
2042.246, 0.6688268
2044.175, 0.6704397
2046.103, 0.6727160
2048.032, 0.6730602
2049.960, 0.6771825
2051.889, 0.6812111
2053.817, 0.6809368
2055.746, 0.6804905
2057.674, 0.6810342
2059.603, 0.6828567
2061.531, 0.6846414
2063.459, 0.6877787
2065.388, 0.6909476
2067.316, 0.6919549
2069.245, 0.6899403
2071.173, 0.6874219
2073.102, 0.6894266
2075.030, 0.6923570
2076.959, 0.6916844
2078.887, 0.6940661
2080.816, 0.6973878
2082.744, 0.6944994
2084.673, 0.6928658
2086.601, 0.6915785
2088.530, 0.6913061
2090.458, 0.6948045
2092.386, 0.6968877
2094.315, 0.6978266
2096.243, 0.6990824
2098.172, 0.6980532
2100.100, 0.6972691
2102.029, 0.6970603
2103.957, 0.6963515
2105.886, 0.6956035
2107.814, 0.6967872
2109.743, 0.6994728
2111.671, 0.6994523
2113.600, 0.7014238
2115.528, 0.7034596
2117.457, 0.7030419
2119.385, 0.7026957
2121.313, 0.7029381
2123.242, 0.7023966
2125.170, 0.7020961
2127.099, 0.6996523
2129.027, 0.6969121
2130.956, 0.6966157
2132.884, 0.6956486
2134.813, 0.6937009
2136.741, 0.6938244
2138.670, 0.6931867
2140.598, 0.6929144
2142.527, 0.6909719
2144.455, 0.6869504
2146.384, 0.6846973
2148.312, 0.6882271
2150.240, 0.6903726
2152.169, 0.6850104
2154.097, 0.6742980
2156.026, 0.6706898
2157.954, 0.6729597
2159.883, 0.6792637
2161.811, 0.6806296
2163.740, 0.6814038
2165.668, 0.6880057
2167.597, 0.6920565
2169.525, 0.6893411
2171.454, 0.6870930
2173.382, 0.6896563
2175.311, 0.6929216
2177.239, 0.6967329
2179.167, 0.6936151
2181.096, 0.6905689
2183.024, 0.6929489
2184.953, 0.6971645
2186.881, 0.6982838
2188.810, 0.6974321
2190.738, 0.6981437
2192.667, 0.7005026
2194.595, 0.7023350
2196.524, 0.7034677
2198.452, 0.7063606
2200.381, 0.7085357
2202.309, 0.7085895
2204.238, 0.7071978
2206.166, 0.7049703
2208.094, 0.7040228
2210.023, 0.7056690
2211.951, 0.7079453
2213.880, 0.7120624
2215.808, 0.7129199
2217.737, 0.7107780
2219.665, 0.7116257
2221.594, 0.7122557
2223.522, 0.7155834
2225.451, 0.7150029
2227.379, 0.7153414
2229.308, 0.7161930
2231.236, 0.7165844
2233.165, 0.7170441
2235.093, 0.7161092
2237.021, 0.7173114
2238.950, 0.7216218
2240.878, 0.7238207
2242.807, 0.7219222
2244.735, 0.7203279
2246.664, 0.7193562
2248.592, 0.7193261
2250.521, 0.7237713
2252.449, 0.7264853
2254.378, 0.7254987
2256.306, 0.7271453
2258.235, 0.7302033
2260.163, 0.7304608
2262.092, 0.7313431
2264.020, 0.7325769
2265.948, 0.7325647
2267.877, 0.7326842
2269.805, 0.7355170
2271.734, 0.7379798
2273.662, 0.7377210
2275.591, 0.7380056
2277.519, 0.7397911
2279.448, 0.7414274
2281.376, 0.7417239
2283.305, 0.7413927
2285.233, 0.7418449
2287.162, 0.7431642
2289.090, 0.7463793
2291.019, 0.7472715
2292.947, 0.7465381
2294.875, 0.7474979
2296.804, 0.7484478
2298.732, 0.7487025
2300.661, 0.7489144
2302.589, 0.7504054
2304.518, 0.7520747
2306.446, 0.7519489
2308.375, 0.7522987
2310.303, 0.7521915
2312.232, 0.7528524
2314.160, 0.7530601
2316.089, 0.7530124
2318.017, 0.7547011
2319.946, 0.7575207
2321.874, 0.7582859
2323.802, 0.7580858
2325.731, 0.7571570
2327.659, 0.7578384
2329.588, 0.7579386
2331.516, 0.7570784
2333.445, 0.7578948
2335.373, 0.7594290
2337.302, 0.7600850
2339.230, 0.7604244
2341.159, 0.7608616
2343.087, 0.7607008
2345.016, 0.7599488
2346.944, 0.7608051
2348.873, 0.7620043
2350.801, 0.7631103
2352.729, 0.7625639
2354.658, 0.7631177
2356.586, 0.7649551
2358.515, 0.7642874
2360.443, 0.7639222
2362.372, 0.7637839
2364.300, 0.7630298
2366.229, 0.7636657
2368.157, 0.7641595
2370.086, 0.7646011
2372.014, 0.7636779
2373.942, 0.7637194
2375.871, 0.7647619
2377.799, 0.7650834
2379.728, 0.7646505
2381.656, 0.7645417
2383.585, 0.7638764
2385.513, 0.7639351
2387.442, 0.7661468
2389.370, 0.7668509
2391.299, 0.7668167
2393.227, 0.7676658
2395.156, 0.7672061
2397.084, 0.7669821
2399.012, 0.7670934
2400.941, 0.7674445
2402.869, 0.7681678
2404.798, 0.7673118
2406.726, 0.7675818
2408.655, 0.7694846
2410.583, 0.7713404
2412.512, 0.7716013
2414.440, 0.7725954
2416.369, 0.7726054
2418.297, 0.7726531
2420.226, 0.7723122
2422.154, 0.7708342
2424.083, 0.7692941
2426.011, 0.7698022
2427.939, 0.7723395
2429.868, 0.7734029
2431.796, 0.7733825
2433.725, 0.7717153
2435.653, 0.7720879
2437.582, 0.7759926
2439.510, 0.7759663
2441.439, 0.7740911
2443.367, 0.7742629
2445.296, 0.7742135
2447.224, 0.7736507
2449.153, 0.7748566
2451.081, 0.7756020
2453.010, 0.7741132
2454.938, 0.7740261
2456.866, 0.7764121
2458.795, 0.7771143
2460.723, 0.7764962
2462.652, 0.7763884
2464.580, 0.7780302
2466.509, 0.7791465
2468.437, 0.7795773
2470.366, 0.7797109
2472.294, 0.7794028
2474.223, 0.7812561
2476.151, 0.7835389
2478.080, 0.7836430
2480.008, 0.7815899
2481.937, 0.7824150
2483.865, 0.7840395
2485.793, 0.7847592
2487.722, 0.7841049
2489.650, 0.7837386
2491.579, 0.7850229
2493.507, 0.7865054
2495.436, 0.7862135
2497.364, 0.7863507
2499.293, 0.7866932
2501.221, 0.7859434
2503.150, 0.7869764
2505.078, 0.7871904
2507.007, 0.7869043
2508.935, 0.7866818
2510.864, 0.7880275
2512.792, 0.7868562
2514.720, 0.7869077
2516.649, 0.7911450
2518.577, 0.7920557
2520.506, 0.7895980
2522.434, 0.7899589
2524.363, 0.7925596
2526.291, 0.7936071
2528.220, 0.7919672
2530.148, 0.7911342
2532.077, 0.7923496
2534.005, 0.7937282
2535.934, 0.7955695
2537.862, 0.7958431
2539.791, 0.7946957
2541.719, 0.7949697
2543.647, 0.7958538
2545.576, 0.7952374
2547.504, 0.7956727
2549.433, 0.7957992
2551.361, 0.7950262
2553.290, 0.7936370
2555.218, 0.7961212
2557.147, 0.7973809
2559.075, 0.7972040
2561.004, 0.7991545
2562.932, 0.8001718
2564.861, 0.7999561
2566.789, 0.8003067
2568.718, 0.7991796
2570.646, 0.7991700
2572.574, 0.8005465
2574.503, 0.8024053
2576.431, 0.8042213
2578.360, 0.8036596
2580.288, 0.8021243
2582.217, 0.8029126
2584.145, 0.8051071
2586.074, 0.8045951
2588.002, 0.8053092
2589.931, 0.8060922
2591.859, 0.8056043
2593.788, 0.8068470
2595.716, 0.8080161
2597.645, 0.8079273
2599.573, 0.8070146
2601.501, 0.8084168
2603.430, 0.8095808
2605.358, 0.8092129
2607.287, 0.8105665
2609.215, 0.8127347
2611.144, 0.8117273
2613.072, 0.8117071
2615.001, 0.8127937
2616.929, 0.8135804
2618.858, 0.8154433
2620.786, 0.8171543
2622.715, 0.8174251
2624.643, 0.8185695
2626.572, 0.8189357
2628.500, 0.8191393
2630.428, 0.8189502
2632.357, 0.8181340
2634.285, 0.8178542
2636.214, 0.8179684
2638.142, 0.8192421
2640.071, 0.8215920
2641.999, 0.8226979
2643.928, 0.8218040
2645.856, 0.8220526
2647.785, 0.8235017
2649.713, 0.8238216
2651.642, 0.8235841
2653.570, 0.8240919
2655.499, 0.8245311
2657.427, 0.8245397
2659.355, 0.8262590
2661.284, 0.8269250
2663.212, 0.8265945
2665.141, 0.8258022
2667.069, 0.8258815
2668.998, 0.8275298
2670.926, 0.8281043
2672.855, 0.8273475
2674.783, 0.8282170
2676.712, 0.8304393
2678.640, 0.8314376
2680.569, 0.8310578
2682.497, 0.8305314
2684.426, 0.8304889
2686.354, 0.8311142
2688.282, 0.8320781
2690.211, 0.8336105
2692.139, 0.8347394
2694.068, 0.8343421
2695.996, 0.8338527
2697.925, 0.8334078
2699.853, 0.8341476
2701.782, 0.8359833
2703.710, 0.8359357
2705.639, 0.8359073
2707.567, 0.8368838
2709.496, 0.8371382
2711.424, 0.8362135
2713.353, 0.8364456
2715.281, 0.8364421
2717.209, 0.8370401
2719.138, 0.8384161
2721.066, 0.8388306
2722.995, 0.8384216
2724.923, 0.8387177
2726.852, 0.8390558
2728.780, 0.8404055
2730.709, 0.8417675
2732.637, 0.8416797
2734.566, 0.8416356
2736.494, 0.8420698
2738.423, 0.8425903
2740.351, 0.8429086
2742.280, 0.8421131
2744.208, 0.8422832
2746.136, 0.8431591
2748.065, 0.8437954
2749.993, 0.8447787
2751.922, 0.8460466
2753.850, 0.8459982
2755.779, 0.8446359
2757.707, 0.8442100
2759.636, 0.8455793
2761.564, 0.8468451
2763.493, 0.8472861
2765.421, 0.8477202
2767.350, 0.8491455
2769.278, 0.8493153
2771.207, 0.8510553
2773.135, 0.8515806
2775.063, 0.8519463
2776.992, 0.8518406
2778.920, 0.8513273
2780.849, 0.8515965
2782.777, 0.8522446
2784.706, 0.8530458
2786.634, 0.8539949
2788.563, 0.8532343
2790.491, 0.8510568
2792.420, 0.8506030
2794.348, 0.8527557
2796.277, 0.8546225
2798.205, 0.8536723
2800.134, 0.8533387
2802.062, 0.8547226
2803.990, 0.8551983
2805.919, 0.8560290
2807.847, 0.8575492
2809.776, 0.8572699
2811.704, 0.8579566
2813.633, 0.8596475
2815.561, 0.8604846
2817.490, 0.8606327
2819.418, 0.8613642
2821.347, 0.8610226
2823.275, 0.8606727
2825.204, 0.8613492
2827.132, 0.8628860
2829.061, 0.8632119
2830.989, 0.8633417
2832.917, 0.8638475
2834.846, 0.8646344
2836.774, 0.8650513
2838.703, 0.8661190
2840.631, 0.8670871
2842.560, 0.8670011
2844.488, 0.8658112
2846.417, 0.8658355
2848.345, 0.8666938
2850.274, 0.8654451
2852.202, 0.8631960
2854.131, 0.8630355
2856.059, 0.8635818
2857.988, 0.8644181
2859.916, 0.8668246
2861.844, 0.8670030
2863.773, 0.8666718
2865.701, 0.8677077
2867.630, 0.8696783
2869.558, 0.8708673
2871.487, 0.8708100
2873.415, 0.8701900
2875.344, 0.8686200
2877.272, 0.8688532
2879.201, 0.8708544
2881.129, 0.8731078
2883.058, 0.8750836
2884.986, 0.8742534
2886.915, 0.8731334
2888.843, 0.8751861
2890.771, 0.8767510
2892.700, 0.8754851
2894.628, 0.8761778
2896.557, 0.8767762
2898.485, 0.8772600
2900.414, 0.8762296
2902.342, 0.8743145
2904.271, 0.8761039
2906.199, 0.8788037
2908.128, 0.8799584
2910.056, 0.8806522
2911.985, 0.8806952
2913.913, 0.8808449
2915.842, 0.8793682
2917.770, 0.8790367
2919.698, 0.8781688
2921.627, 0.8772422
2923.555, 0.8776437
2925.484, 0.8775345
2927.412, 0.8759487
2929.341, 0.8742405
2931.269, 0.8735523
2933.198, 0.8743421
2935.126, 0.8741606
2937.055, 0.8746921
2938.983, 0.8760255
2940.912, 0.8771712
2942.840, 0.8779793
2944.769, 0.8775186
2946.697, 0.8795088
2948.625, 0.8801022
2950.554, 0.8785650
2952.482, 0.8792799
2954.411, 0.8797238
2956.339, 0.8785945
2958.268, 0.8775459
2960.196, 0.8782936
2962.125, 0.8792354
2964.053, 0.8790821
2965.982, 0.8773779
2967.910, 0.8769438
2969.839, 0.8774040
2971.767, 0.8786117
2973.696, 0.8801210
2975.624, 0.8811340
2977.552, 0.8812570
2979.481, 0.8804987
2981.409, 0.8801811
2983.338, 0.8790454
2985.266, 0.8791649
2987.195, 0.8807626
2989.123, 0.8812600
2991.052, 0.8820562
2992.980, 0.8850254
2994.909, 0.8870868
2996.837, 0.8874066
2998.766, 0.8868500
3000.694, 0.8880004
3002.623, 0.8882708
3004.551, 0.8880580
3006.479, 0.8882594
3008.408, 0.8883175
3010.336, 0.8876137
3012.265, 0.8892288
3014.193, 0.8916240
3016.122, 0.8901591
3018.050, 0.8888156
3019.979, 0.8913543
3021.907, 0.8937085
3023.836, 0.8928529
3025.764, 0.8923812
3027.693, 0.8935069
3029.621, 0.8947204
3031.550, 0.8948386
3033.478, 0.8935887
3035.406, 0.8954911
3037.335, 0.8976783
3039.263, 0.8971345
3041.192, 0.8974195
3043.120, 0.8979762
3045.049, 0.8986721
3046.977, 0.8996685
3048.906, 0.8999415
3050.834, 0.8992584
3052.763, 0.8993286
3054.691, 0.8994913
3056.620, 0.9003408
3058.548, 0.9011018
3060.477, 0.9013968
3062.405, 0.9007707
3064.333, 0.9017332
3066.262, 0.9034608
3068.190, 0.9029719
3070.119, 0.9004798
3072.047, 0.9012516
3073.976, 0.9047453
3075.904, 0.9051030
3077.833, 0.9056066
3079.761, 0.9052568
3081.690, 0.9047823
3083.618, 0.9062314
3085.547, 0.9074928
3087.475, 0.9081389
3089.404, 0.9090967
3091.332, 0.9085767
3093.260, 0.9114714
3095.189, 0.9143633
3097.117, 0.9145747
3099.046, 0.9124402
3100.974, 0.9115164
3102.903, 0.9117147
3104.831, 0.9143780
3106.760, 0.9144786
3108.688, 0.9136009
3110.617, 0.9124473
3112.545, 0.9132191
3114.474, 0.9145436
3116.402, 0.9158059
3118.331, 0.9167478
3120.259, 0.9153554
3122.188, 0.9138045
3124.116, 0.9171849
3126.044, 0.9189332
3127.973, 0.9198244
3129.901, 0.9206190
3131.830, 0.9198327
3133.758, 0.9219792
3135.687, 0.9221264
3137.615, 0.9211260
3139.544, 0.9210939
3141.472, 0.9212034
3143.401, 0.9207061
3145.329, 0.9207919
3147.258, 0.9208969
3149.186, 0.9212330
3151.115, 0.9224856
3153.043, 0.9208486
3154.971, 0.9210041
3156.900, 0.9240842
3158.828, 0.9256080
3160.757, 0.9237765
3162.685, 0.9211061
3164.614, 0.9246917
3166.542, 0.9307163
3168.471, 0.9323621
3170.399, 0.9308708
3172.328, 0.9298542
3174.256, 0.9299046
3176.185, 0.9327362
3178.113, 0.9330765
3180.042, 0.9292819
3181.970, 0.9279613
3183.898, 0.9294910
3185.827, 0.9311318
3187.755, 0.9320807
3189.684, 0.9307507
3191.612, 0.9298902
3193.541, 0.9307197
3195.469, 0.9343063
3197.398, 0.9349109
3199.326, 0.9347528
3201.255, 0.9352252
3203.183, 0.9356534
3205.112, 0.9349128
3207.040, 0.9358122
3208.969, 0.9377950
3210.897, 0.9397442
3212.825, 0.9413062
3214.754, 0.9390208
3216.682, 0.9355350
3218.611, 0.9355121
3220.539, 0.9373257
3222.468, 0.9386341
3224.396, 0.9386937
3226.325, 0.9387338
3228.253, 0.9391798
3230.182, 0.9399976
3232.110, 0.9410531
3234.039, 0.9408370
3235.967, 0.9429697
3237.896, 0.9449246
3239.824, 0.9458736
3241.752, 0.9440675
3243.681, 0.9401760
3245.609, 0.9433879
3247.538, 0.9480330
3249.466, 0.9465452
3251.395, 0.9455010
3253.323, 0.9466283
3255.252, 0.9471713
3257.180, 0.9484929
3259.109, 0.9514385
3261.037, 0.9506867
3262.966, 0.9509508
3264.894, 0.9519147
3266.823, 0.9527410
3268.751, 0.9518298
3270.679, 0.9508933
3272.608, 0.9504285
3274.536, 0.9507027
3276.465, 0.9525530
3278.393, 0.9535597
3280.322, 0.9542711
3282.250, 0.9561636
3284.179, 0.9545290
3286.107, 0.9526702
3288.036, 0.9542573
3289.964, 0.9582281
3291.893, 0.9599221
3293.821, 0.9584082
3295.750, 0.9556569
3297.678, 0.9560434
3299.606, 0.9585944
3301.535, 0.9617349
3303.463, 0.9574223
3305.392, 0.9536908
3307.320, 0.9556372
3309.249, 0.9560713
3311.177, 0.9559080
3313.106, 0.9584395
3315.034, 0.9614496
3316.963, 0.9611794
3318.891, 0.9601464
3320.820, 0.9588079
3322.748, 0.9586490
3324.677, 0.9599198
3326.605, 0.9630324
3328.533, 0.9615509
3330.462, 0.9606054
3332.390, 0.9622038
3334.319, 0.9638037
3336.247, 0.9649227
3338.176, 0.9618424
3340.104, 0.9616134
3342.033, 0.9649152
3343.961, 0.9658294
3345.890, 0.9651968
3347.818, 0.9650196
3349.747, 0.9662338
3351.675, 0.9690051
3353.604, 0.9676879
3355.532, 0.9651786
3357.460, 0.9658195
3359.389, 0.9669573
3361.317, 0.9673572
3363.246, 0.9683087
3365.174, 0.9679190
3367.103, 0.9704435
3369.031, 0.9750497
3370.960, 0.9747509
3372.888, 0.9713613
3374.817, 0.9730226
3376.745, 0.9741559
3378.674, 0.9694593
3380.602, 0.9658564
3382.531, 0.9671552
3384.459, 0.9706032
3386.387, 0.9743446
3388.316, 0.9755728
3390.244, 0.9764979
3392.173, 0.9775679
3394.101, 0.9767125
3396.030, 0.9773427
3397.958, 0.9766192
3399.887, 0.9766466
3401.815, 0.9769506
3403.744, 0.9712460
3405.672, 0.9714692
3407.601, 0.9744498
3409.529, 0.9739408
3411.458, 0.9781810
3413.386, 0.9778808
3415.314, 0.9763513
3417.243, 0.9820528
3419.171, 0.9830700
3421.100, 0.9819133
3423.028, 0.9836788
3424.957, 0.9836719
3426.885, 0.9816345
3428.814, 0.9809505
3430.742, 0.9811173
3432.671, 0.9820994
3434.599, 0.9854776
3436.528, 0.9884443
3438.456, 0.9877720
3440.385, 0.9859951
3442.313, 0.9857789
3444.241, 0.9873207
3446.170, 0.9872149
3448.098, 0.9845169
3450.027, 0.9833407
3451.955, 0.9866426
3453.884, 0.9870881
3455.812, 0.9857058
3457.741, 0.9849647
3459.669, 0.9852790
3461.598, 0.9863758
3463.526, 0.9878558
3465.455, 0.9885921
3467.383, 0.9890710
3469.312, 0.9903430
3471.240, 0.9899999
3473.168, 0.9892020
3475.097, 0.9910264
3477.025, 0.9907442
3478.954, 0.9926305
3480.882, 0.9983116
3482.811, 0.9972266
3484.739, 0.9966730
3486.668, 0.9941366
3488.596, 0.9905894
3490.525, 0.9941970
3492.453, 0.9981245
3494.382, 0.9977862
3496.310, 0.9930499
3498.239, 0.9934484
3500.167, 0.9957890
3502.095, 0.9960558
3504.024, 0.9998357
3505.952, 0.9982900
3507.881, 0.9939188
3509.809, 0.9909152
3511.738, 0.9925617
3513.666, 0.9983444
3515.595, 1.000341
3517.523, 1.000194
3519.452, 1.001474
3521.380, 1.003357
3523.309, 1.004641
3525.237, 1.000994
3527.166, 1.000607
3529.094, 1.003225
3531.022, 1.001183
3532.951, 0.9962123
3534.879, 0.9979395
3536.808, 1.000015
3538.736, 1.003573
3540.665, 1.005093
3542.593, 1.003024
3544.522, 1.003724
3546.450, 1.006360
3548.379, 1.006201
3550.307, 1.006079
3552.236, 1.004407
3554.164, 1.004349
3556.093, 1.007214
3558.021, 1.009980
3559.949, 1.009318
3561.878, 1.005004
3563.806, 1.007117
3565.735, 1.007847
3567.663, 1.007900
3569.592, 1.009386
3571.520, 1.010924
3573.449, 1.013910
3575.377, 1.014348
3577.306, 1.011718
3579.234, 1.012782
3581.163, 1.012985
3583.091, 1.013093
3585.020, 1.014879
3586.948, 1.015024
3588.876, 1.014408
3590.805, 1.014212
3592.733, 1.015944
3594.662, 1.016226
3596.590, 1.014543
3598.519, 1.011255
3600.447, 1.009772
3602.376, 1.011753
3604.304, 1.011385
3606.233, 1.013409
3608.161, 1.016370
3610.090, 1.015358
3612.018, 1.015156
3613.947, 1.020467
3615.875, 1.022837
3617.803, 1.021577
3619.732, 1.020965
3621.660, 1.022241
3623.589, 1.019447
3625.517, 1.020100
3627.446, 1.019730
3629.374, 1.019224
3631.303, 1.025785
3633.231, 1.032195
3635.160, 1.030926
3637.088, 1.026563
3639.017, 1.022740
3640.945, 1.021362
3642.874, 1.022579
3644.802, 1.026459
3646.730, 1.029324
3648.659, 1.024136
3650.587, 1.018800
3652.516, 1.024309
3654.444, 1.026001
3656.373, 1.026135
3658.301, 1.032430
3660.230, 1.038021
3662.158, 1.035405
3664.087, 1.030098
3666.015, 1.030994
3667.944, 1.033504
3669.872, 1.036103
3671.801, 1.037561
3673.729, 1.036387
3675.657, 1.037414
3677.586, 1.040978
3679.514, 1.039671
3681.443, 1.038510
3683.371, 1.040406
3685.300, 1.041005
3687.228, 1.042521
3689.157, 1.043426
3691.085, 1.041654
3693.014, 1.041440
3694.942, 1.040817
3696.871, 1.037957
3698.799, 1.043690
3700.728, 1.045319
3702.656, 1.041521
3704.584, 1.042981
3706.513, 1.047092
3708.441, 1.043954
3710.370, 1.044945
3712.298, 1.049590
3714.227, 1.052130
3716.155, 1.052227
3718.084, 1.051455
3720.012, 1.051467
3721.941, 1.050360
3723.869, 1.047136
3725.798, 1.046236
3727.726, 1.048477
3729.655, 1.055841
3731.583, 1.057379
3733.511, 1.053077
3735.440, 1.051425
3737.368, 1.050017
3739.297, 1.052384
3741.225, 1.056731
3743.154, 1.057472
3745.082, 1.057782
3747.011, 1.054479
3748.939, 1.051699
3750.868, 1.055302
3752.796, 1.058206
3754.725, 1.058038
3756.653, 1.057612
3758.582, 1.059436
3760.510, 1.058969
3762.438, 1.055290
3764.367, 1.055055
3766.295, 1.063502
3768.224, 1.066185
3770.152, 1.060719
3772.081, 1.065030
3774.009, 1.071385
3775.938, 1.071217
3777.866, 1.065259
3779.795, 1.065361
3781.723, 1.066595
3783.652, 1.066593
3785.580, 1.071320
3787.509, 1.074997
3789.437, 1.069578
3791.365, 1.067795
3793.294, 1.072042
3795.222, 1.071524
3797.151, 1.068236
3799.079, 1.069472
3801.008, 1.072358
3802.936, 1.069476
3804.865, 1.071334
3806.793, 1.078073
3808.722, 1.075771
3810.650, 1.067851
3812.579, 1.069793
3814.507, 1.070189
3816.436, 1.069544
3818.364, 1.075035
3820.292, 1.079435
3822.221, 1.083850
3824.149, 1.084164
3826.078, 1.082072
3828.006, 1.084221
3829.935, 1.085189
3831.863, 1.084472
3833.792, 1.086323
3835.720, 1.084536
3837.649, 1.084508
3839.577, 1.082397
3841.506, 1.079760
3843.434, 1.078573
3845.363, 1.080715
3847.291, 1.080634
3849.219, 1.079353
3851.148, 1.080310
3853.076, 1.081408
3855.005, 1.084410
3856.933, 1.088370
3858.862, 1.090781
3860.790, 1.091886
3862.719, 1.090645
3864.647, 1.086063
3866.576, 1.085606
3868.504, 1.090517
3870.433, 1.088490
3872.361, 1.086276
3874.290, 1.090290
3876.218, 1.093714
3878.146, 1.090502
3880.075, 1.089795
3882.003, 1.090998
3883.932, 1.091671
3885.860, 1.091559
3887.789, 1.088688
3889.717, 1.092730
3891.646, 1.095724
3893.574, 1.094283
3895.503, 1.092372
3897.431, 1.090511
3899.360, 1.096045
3901.288, 1.102910
3903.217, 1.102398
3905.145, 1.098988
3907.073, 1.096936
3909.002, 1.099541
3910.930, 1.104368
3912.859, 1.102027
3914.787, 1.096768
3916.716, 1.102133
3918.644, 1.105562
3920.573, 1.099541
3922.501, 1.100055
3924.430, 1.103381
3926.358, 1.105552
3928.287, 1.108373
3930.215, 1.108417
3932.144, 1.111694
3934.072, 1.111663
3936.000, 1.110828
3937.929, 1.108818
3939.857, 1.110576
3941.786, 1.117794
3943.714, 1.117087
3945.643, 1.110506
3947.571, 1.112482
3949.500, 1.113312
3951.428, 1.112483
3953.357, 1.112716
3955.285, 1.114483
3957.214, 1.113977
3959.142, 1.112439
3961.071, 1.110147
3962.999, 1.112064
3964.927, 1.118582
3966.856, 1.122564
3968.784, 1.128914
3970.713, 1.128791
3972.641, 1.116392
3974.570, 1.114911
3976.498, 1.120123
3978.427, 1.123999
3980.355, 1.124514
3982.284, 1.127474
3984.212, 1.125426
3986.141, 1.124926
3988.069, 1.129258
3989.998, 1.131892
3991.926, 1.130989
3993.854, 1.126534
3995.783, 1.127912
3997.711, 1.128767
3999.640, 1.129311
##END=



