##NAMES=Enstatite
##RRUFFID=R050644
##IDEAL CHEMISTRY=MgSiO_3_
##LOCALITY=Morogoro, Tanzania
##OWNER=RRUFF
##SOURCE=Jibamitra Ganguly
##DESCRIPTION=Light brown crystal fragment
##STATUS=The identification of this mineral has been confirmed by X-ray diffraction and chemical analysis
##URL=rruff.info/R050644
##MEASURED CHEMISTRY=(Mg_0.90_Fe_0.10_)SiO_3_
399.1926, 0.2181792
401.1211, 0.2240665
403.0496, 0.2251437
404.9780, 0.2296875
406.9065, 0.2221474
408.8350, 0.2092765
410.7634, 0.2018926
412.6919, 0.2054304
414.6204, 0.2058161
416.5488, 0.2066487
418.4773, 0.2121970
420.4058, 0.2182790
422.3342, 0.2227477
424.2627, 0.2283138
426.1912, 0.2378014
428.1196, 0.2472792
430.0481, 0.2572877
431.9766, 0.2699282
433.9050, 0.2696665
435.8335, 0.2650557
437.7620, 0.2696567
439.6904, 0.2823468
441.6189, 0.2939335
443.5474, 0.2988466
445.4758, 0.3026330
447.4043, 0.3004346
449.3328, 0.2930439
451.2612, 0.2860376
453.1897, 0.2791241
455.1182, 0.2712804
457.0466, 0.2651594
458.9751, 0.2608994
460.9036, 0.2519272
462.8320, 0.2419163
464.7605, 0.2341701
466.6890, 0.2287568
468.6174, 0.2276160
470.5459, 0.2289674
472.4744, 0.2315083
474.4028, 0.2363293
476.3313, 0.2443008
478.2598, 0.2533392
480.1882, 0.2601303
482.1167, 0.2636921
484.0452, 0.2691689
485.9736, 0.2751307
487.9021, 0.2775245
489.8306, 0.2811740
491.7590, 0.2859684
493.6875, 0.2882926
495.6160, 0.2895489
497.5444, 0.2889526
499.4729, 0.2849447
501.4014, 0.2798494
503.3298, 0.2721622
505.2583, 0.2639644
507.1868, 0.2560818
509.1152, 0.2475223
511.0437, 0.2397643
512.9722, 0.2320127
514.9006, 0.2253949
516.8291, 0.2186603
518.7576, 0.2081404
520.6860, 0.1962332
522.6145, 0.1843429
524.5430, 0.1717639
526.4714, 0.1611275
528.3999, 0.1568355
530.3284, 0.1595287
532.2568, 0.1679288
534.1853, 0.1784355
536.1138, 0.1843603
538.0422, 0.1855937
539.9707, 0.1854293
541.8992, 0.1847095
543.8276, 0.1830502
545.7561, 0.1803181
547.6846, 0.1774679
549.6130, 0.1738550
551.5415, 0.1692192
553.4700, 0.1636424
555.3984, 0.1580037
557.3269, 0.1525218
559.2554, 0.1473569
561.1838, 0.1442066
563.1123, 0.1416229
565.0408, 0.1363507
566.9692, 0.1284016
568.8977, 0.1194539
570.8262, 0.1108446
572.7546, 0.1033617
574.6831, 9.7640023E-02
576.6116, 9.2415936E-02
578.5400, 8.7779850E-02
580.4685, 8.4285863E-02
582.3970, 8.1127606E-02
584.3254, 7.8199573E-02
586.2539, 7.5488374E-02
588.1824, 7.3033467E-02
590.1108, 7.0279971E-02
592.0393, 6.7518942E-02
593.9678, 6.5834753E-02
595.8962, 6.3930273E-02
597.8247, 6.1812989E-02
599.7532, 6.0547121E-02
601.6816, 6.0082741E-02
603.6101, 5.9687391E-02
605.5386, 5.9748892E-02
607.4670, 5.9438620E-02
609.3955, 5.9392639E-02
611.3240, 6.0166650E-02
613.2524, 6.0789399E-02
615.1809, 6.1127599E-02
617.1094, 6.2184710E-02
619.0378, 6.3477524E-02
620.9663, 6.4937003E-02
622.8948, 6.6722117E-02
624.8232, 6.8333574E-02
626.7517, 7.0437662E-02
628.6802, 7.3592417E-02
630.6086, 7.8509733E-02
632.5371, 8.4833443E-02
634.4656, 9.2359953E-02
636.3940, 0.1009912
638.3225, 0.1097232
640.2510, 0.1167679
642.1794, 0.1212347
644.1079, 0.1227727
646.0364, 0.1202751
647.9648, 0.1150865
649.8933, 0.1098882
651.8218, 0.1040337
653.7502, 9.7180709E-02
655.6787, 9.0138517E-02
657.6072, 8.3506852E-02
659.5356, 7.8283131E-02
661.4641, 7.4370213E-02
663.3926, 7.1992010E-02
665.3210, 7.0970573E-02
667.2495, 7.0825137E-02
669.1780, 7.1215607E-02
671.1064, 7.2376586E-02
673.0349, 7.4687198E-02
674.9634, 7.7674277E-02
676.8918, 8.0526747E-02
678.8203, 8.2905203E-02
680.7488, 8.4897406E-02
682.6772, 8.7599181E-02
684.6057, 9.1672331E-02
686.5342, 9.6441083E-02
688.4626, 0.1006102
690.3911, 0.1022712
692.3196, 0.1001974
694.2480, 9.4218798E-02
696.1765, 8.7484531E-02
698.1050, 8.1885487E-02
700.0334, 7.7485219E-02
701.9619, 7.4361563E-02
703.8904, 7.2366610E-02
705.8188, 7.1635097E-02
707.7473, 7.1748093E-02
709.6758, 7.3280454E-02
711.6042, 7.5423203E-02
713.5327, 7.8301691E-02
715.4612, 8.2042702E-02
717.3896, 8.7042257E-02
719.3181, 9.3183137E-02
721.2466, 9.9187821E-02
723.1750, 0.1035542
725.1035, 0.1033646
727.0320, 9.7965308E-02
728.9604, 8.9583203E-02
730.8889, 8.1912823E-02
732.8174, 7.6419361E-02
734.7458, 7.3015280E-02
736.6743, 7.1092330E-02
738.6028, 7.0451841E-02
740.5313, 7.1387067E-02
742.4597, 7.2900057E-02
744.3882, 7.2447933E-02
746.3167, 6.8624943E-02
748.2451, 6.4532928E-02
750.1736, 6.1805751E-02
752.1021, 6.0110711E-02
754.0305, 5.9311841E-02
755.9590, 5.9321191E-02
757.8875, 5.9784561E-02
759.8159, 6.0043130E-02
761.7444, 6.0150988E-02
763.6729, 6.0355570E-02
765.6013, 6.0781620E-02
767.5298, 6.1537001E-02
769.4583, 6.2205561E-02
771.3867, 6.2379841E-02
773.3152, 6.3148938E-02
775.2437, 6.4339362E-02
777.1721, 6.5471053E-02
779.1006, 6.6908307E-02
781.0291, 6.8392187E-02
782.9575, 7.0009843E-02
784.8860, 7.1687877E-02
786.8145, 7.3124006E-02
788.7429, 7.4913867E-02
790.6714, 7.7281587E-02
792.5999, 7.9332240E-02
794.5283, 8.1143193E-02
796.4568, 8.3769716E-02
798.3853, 8.6681917E-02
800.3137, 8.9610852E-02
802.2422, 9.2936553E-02
804.1707, 9.6686020E-02
806.0991, 0.1005623
808.0276, 0.1047080
809.9561, 0.1091673
811.8845, 0.1139918
813.8130, 0.1192844
815.7415, 0.1250936
817.6699, 0.1315826
819.5984, 0.1383725
821.5269, 0.1454638
823.4553, 0.1533090
825.3838, 0.1617610
827.3123, 0.1708001
829.2407, 0.1795043
831.1692, 0.1881859
833.0977, 0.1979197
835.0261, 0.2082053
836.9546, 0.2189841
838.8831, 0.2305922
840.8115, 0.2424568
842.7400, 0.2539335
844.6685, 0.2642387
846.5969, 0.2734650
848.5254, 0.2806425
850.4539, 0.2845701
852.3823, 0.2865339
854.3108, 0.2870424
856.2393, 0.2862848
858.1677, 0.2837887
860.0962, 0.2797867
862.0247, 0.2755353
863.9531, 0.2710137
865.8816, 0.2656543
867.8101, 0.2597418
869.7385, 0.2542789
871.6670, 0.2482354
873.5955, 0.2415867
875.5239, 0.2353237
877.4524, 0.2295375
879.3809, 0.2247462
881.3093, 0.2218242
883.2378, 0.2203456
885.1663, 0.2208898
887.0947, 0.2231454
889.0232, 0.2265083
890.9517, 0.2300932
892.8801, 0.2334099
894.8085, 0.2359225
896.7370, 0.2370037
898.6655, 0.2367470
900.5939, 0.2358871
902.5224, 0.2343813
904.4509, 0.2330187
906.3793, 0.2335159
908.3078, 0.2370645
910.2363, 0.2460245
912.1647, 0.2611720
914.0932, 0.2792322
916.0217, 0.2969512
917.9501, 0.3097954
919.8786, 0.3167536
921.8071, 0.3183814
923.7355, 0.3161342
925.6640, 0.3121796
927.5925, 0.3066172
929.5209, 0.3001834
931.4494, 0.2931075
933.3779, 0.2856640
935.3063, 0.2787301
937.2348, 0.2720615
939.1633, 0.2653645
941.0917, 0.2583584
943.0202, 0.2515100
944.9487, 0.2444533
946.8771, 0.2367574
948.8056, 0.2290195
950.7341, 0.2216274
952.6625, 0.2136337
954.5910, 0.2062782
956.5195, 0.2001469
958.4479, 0.1944434
960.3764, 0.1891762
962.3049, 0.1849261
964.2333, 0.1811020
966.1618, 0.1778967
968.0903, 0.1751925
970.0187, 0.1732677
971.9472, 0.1714553
973.8757, 0.1678646
975.8041, 0.1617360
977.7326, 0.1543353
979.6611, 0.1466334
981.5895, 0.1390326
983.5180, 0.1316072
985.4465, 0.1245896
987.3749, 0.1183847
989.3034, 0.1136257
991.2319, 0.1113480
993.1603, 0.1119289
995.0888, 0.1156842
997.0173, 0.1228471
998.9457, 0.1326945
1000.874, 0.1438418
1002.803, 0.1542052
1004.731, 0.1620936
1006.660, 0.1663139
1008.588, 0.1670181
1010.517, 0.1646992
1012.445, 0.1598468
1014.373, 0.1537461
1016.302, 0.1479381
1018.230, 0.1424647
1020.159, 0.1372666
1022.087, 0.1332436
1024.016, 0.1308481
1025.944, 0.1293972
1027.873, 0.1287917
1029.801, 0.1297321
1031.730, 0.1320369
1033.658, 0.1353471
1035.587, 0.1393567
1037.515, 0.1441381
1039.444, 0.1497451
1041.372, 0.1567944
1043.301, 0.1654845
1045.229, 0.1755804
1047.157, 0.1862868
1049.086, 0.1964020
1051.014, 0.2049490
1052.943, 0.2114516
1054.871, 0.2161149
1056.800, 0.2189788
1058.728, 0.2195629
1060.657, 0.2182965
1062.585, 0.2158955
1064.514, 0.2114742
1066.442, 0.2054757
1068.371, 0.1991388
1070.299, 0.1921191
1072.228, 0.1842635
1074.156, 0.1760206
1076.084, 0.1678039
1078.013, 0.1600218
1079.941, 0.1525300
1081.870, 0.1452325
1083.798, 0.1381244
1085.727, 0.1314548
1087.655, 0.1253668
1089.584, 0.1196579
1091.512, 0.1138356
1093.441, 0.1084929
1095.369, 0.1036262
1097.298, 9.9126048E-02
1099.226, 9.4931267E-02
1101.155, 9.0420403E-02
1103.083, 8.6239353E-02
1105.011, 8.2256719E-02
1106.940, 7.8288272E-02
1108.868, 7.4528337E-02
1110.797, 7.1295127E-02
1112.725, 6.8175808E-02
1114.654, 6.5213352E-02
1116.582, 6.2847078E-02
1118.511, 6.0908739E-02
1120.439, 5.9771381E-02
1122.368, 5.9299149E-02
1124.296, 5.9095830E-02
1126.225, 5.7556190E-02
1128.153, 5.3327762E-02
1130.082, 4.6952829E-02
1132.010, 4.0300351E-02
1133.938, 3.4376942E-02
1135.867, 2.9457640E-02
1137.795, 2.5944971E-02
1139.724, 2.3767520E-02
1141.652, 2.2635460E-02
1143.581, 2.1900780E-02
1145.509, 2.1382060E-02
1147.438, 2.0085059E-02
1149.366, 1.7892640E-02
1151.295, 1.5849849E-02
1153.223, 1.4241690E-02
1155.152, 1.3061920E-02
1157.080, 1.2375530E-02
1159.009, 1.1797530E-02
1160.937, 1.1122760E-02
1162.865, 1.0679280E-02
1164.794, 1.0113180E-02
1166.722, 9.4554164E-03
1168.651, 9.3312077E-03
1170.579, 9.2757763E-03
1172.508, 8.7924236E-03
1174.436, 8.5115377E-03
1176.365, 8.2969600E-03
1178.293, 8.0427853E-03
1180.222, 7.9993829E-03
1182.150, 7.8637972E-03
1184.079, 7.5465059E-03
1186.007, 7.3601641E-03
1187.936, 7.1139438E-03
1189.864, 6.9720610E-03
1191.792, 6.7221010E-03
1193.721, 6.3984641E-03
1195.649, 6.2762192E-03
1197.578, 6.3263448E-03
1199.506, 6.1310739E-03
1201.435, 5.7777339E-03
1203.363, 5.5457298E-03
1205.292, 5.4814881E-03
1207.220, 5.5132578E-03
1209.149, 5.5152630E-03
1211.077, 5.3660949E-03
1213.006, 5.2475641E-03
1214.934, 5.1404480E-03
1216.863, 4.8501352E-03
1218.791, 4.7517852E-03
1220.719, 4.7886888E-03
1222.648, 4.7637969E-03
1224.576, 4.5930850E-03
1226.505, 4.4633420E-03
1228.433, 4.5165792E-03
1230.362, 4.4664829E-03
1232.290, 4.3542590E-03
1234.219, 4.3153111E-03
1236.147, 4.2419578E-03
1238.076, 4.1553858E-03
1240.004, 4.2006560E-03
1241.933, 4.3856748E-03
1243.861, 4.4312528E-03
1245.790, 4.0441859E-03
1247.718, 3.8926490E-03
1249.646, 3.9477120E-03
1251.575, 3.9775730E-03
1253.503, 4.0683062E-03
1255.432, 4.1054529E-03
1257.360, 3.9862650E-03
1259.289, 3.9752312E-03
1261.217, 4.0572621E-03
1263.146, 3.8654970E-03
1265.074, 3.7708550E-03
1267.003, 4.1567008E-03
1268.931, 4.1790842E-03
1270.860, 3.9835931E-03
1272.788, 4.1566868E-03
1274.717, 4.2486978E-03
1276.645, 4.0346221E-03
1278.573, 3.8456460E-03
1280.502, 3.9246790E-03
1282.430, 3.9917440E-03
1284.359, 3.9516711E-03
1286.287, 4.0390361E-03
1288.216, 4.1534882E-03
1290.144, 4.0155388E-03
1292.073, 3.7942179E-03
1294.001, 3.8879900E-03
1295.930, 4.0021921E-03
1297.858, 3.8760670E-03
1299.787, 3.8391140E-03
1301.715, 3.9564250E-03
1303.644, 3.9339690E-03
1305.572, 4.1136211E-03
1307.500, 4.2333002E-03
1309.429, 4.0664291E-03
1311.357, 3.9266199E-03
1313.286, 3.9679301E-03
1315.214, 3.9408021E-03
1317.143, 3.9149420E-03
1319.071, 3.9637131E-03
1321.000, 4.0130978E-03
1322.928, 4.0616882E-03
1324.857, 4.1872072E-03
1326.785, 4.2324052E-03
1328.714, 4.1022408E-03
1330.642, 4.0879459E-03
1332.571, 4.1318471E-03
1334.499, 4.0744580E-03
1336.427, 4.0926090E-03
1338.356, 4.4089332E-03
1340.284, 4.5384881E-03
1342.213, 4.5910510E-03
1344.141, 4.6080160E-03
1346.070, 4.5854081E-03
1347.998, 4.6203840E-03
1349.927, 4.4217221E-03
1351.855, 4.3405802E-03
1353.784, 4.4453829E-03
1355.712, 4.7114808E-03
1357.641, 4.8170448E-03
1359.569, 4.8026778E-03
1361.498, 4.9446281E-03
1363.426, 4.9794209E-03
1365.354, 4.9160281E-03
1367.283, 4.8801689E-03
1369.211, 4.7203018E-03
1371.140, 4.8236279E-03
1373.068, 5.1279231E-03
1374.997, 5.4603280E-03
1376.925, 5.5929120E-03
1378.854, 5.6030061E-03
1380.782, 5.4507069E-03
1382.711, 4.9370369E-03
1384.639, 4.7294651E-03
1386.568, 4.9471948E-03
1388.496, 5.4445290E-03
1390.424, 5.6499299E-03
1392.353, 5.5145859E-03
1394.281, 5.6570689E-03
1396.210, 5.8891252E-03
1398.138, 6.0989978E-03
1400.067, 6.1242329E-03
1401.995, 5.9566349E-03
1403.924, 5.8538378E-03
1405.852, 5.8794678E-03
1407.781, 6.0858889E-03
1409.709, 6.3255769E-03
1411.638, 6.4684609E-03
1413.566, 6.4608259E-03
1415.495, 6.5340558E-03
1417.423, 6.4599919E-03
1419.351, 6.3813892E-03
1421.280, 6.6889990E-03
1423.208, 6.8557891E-03
1425.137, 6.7465822E-03
1427.065, 6.9990740E-03
1428.994, 7.2316262E-03
1430.922, 7.1647372E-03
1432.851, 7.2411532E-03
1434.779, 7.2674928E-03
1436.708, 7.2094039E-03
1438.636, 7.1426062E-03
1440.565, 7.3546050E-03
1442.493, 7.2842250E-03
1444.422, 7.1664890E-03
1446.350, 7.2628800E-03
1448.278, 7.4500218E-03
1450.207, 7.6422100E-03
1452.135, 7.6882681E-03
1454.064, 7.4966508E-03
1455.992, 7.5302720E-03
1457.921, 7.6225740E-03
1459.849, 7.6565482E-03
1461.778, 7.6174941E-03
1463.706, 7.4104820E-03
1465.635, 7.2829858E-03
1467.563, 7.2160899E-03
1469.492, 6.9339140E-03
1471.420, 6.9964910E-03
1473.349, 7.0159771E-03
1475.277, 6.8909470E-03
1477.205, 6.8168920E-03
1479.134, 7.0042340E-03
1481.062, 6.9425250E-03
1482.991, 6.7993421E-03
1484.919, 6.9974102E-03
1486.848, 7.3565058E-03
1488.776, 7.4206349E-03
1490.705, 7.2237821E-03
1492.633, 7.1782148E-03
1494.562, 7.3234998E-03
1496.490, 7.6887440E-03
1498.419, 7.8834081E-03
1500.347, 7.6921098E-03
1502.276, 7.4428059E-03
1504.204, 7.4701058E-03
1506.132, 7.8665623E-03
1508.061, 7.8749144E-03
1509.989, 7.5723240E-03
1511.918, 7.5930422E-03
1513.846, 7.8378627E-03
1515.775, 8.1222132E-03
1517.703, 8.0574052E-03
1519.632, 7.8584412E-03
1521.560, 7.5808289E-03
1523.489, 7.6194410E-03
1525.417, 7.7626482E-03
1527.346, 7.9932371E-03
1529.274, 7.8224707E-03
1531.203, 7.8217080E-03
1533.131, 7.9995552E-03
1535.059, 7.9638036E-03
1536.988, 7.9876222E-03
1538.916, 8.0357809E-03
1540.845, 8.1277033E-03
1542.773, 8.0152042E-03
1544.702, 7.8702606E-03
1546.630, 7.8191133E-03
1548.559, 7.9224650E-03
1550.487, 7.9400763E-03
1552.416, 7.9559889E-03
1554.344, 8.1149321E-03
1556.273, 8.0189090E-03
1558.201, 8.0078430E-03
1560.130, 8.2202703E-03
1562.058, 8.1980554E-03
1563.986, 8.4287701E-03
1565.915, 8.6524282E-03
1567.843, 8.5164104E-03
1569.772, 8.5722869E-03
1571.700, 8.6356075E-03
1573.629, 8.6796833E-03
1575.557, 8.7291822E-03
1577.486, 8.7582897E-03
1579.414, 8.6897044E-03
1581.343, 8.9350576E-03
1583.271, 8.8582151E-03
1585.200, 8.8399537E-03
1587.128, 9.0860324E-03
1589.057, 8.9654159E-03
1590.985, 9.0235081E-03
1592.913, 9.1052474E-03
1594.842, 9.2250258E-03
1596.770, 9.7567821E-03
1598.699, 9.8742992E-03
1600.627, 9.6328817E-03
1602.556, 9.5234644E-03
1604.484, 9.4832946E-03
1606.413, 9.5718028E-03
1608.341, 9.6697956E-03
1610.270, 9.6445493E-03
1612.198, 9.4686747E-03
1614.127, 9.5314486E-03
1616.055, 9.5850127E-03
1617.984, 9.2221517E-03
1619.912, 9.1788163E-03
1621.840, 9.4838012E-03
1623.769, 9.6921278E-03
1625.697, 1.0071380E-02
1627.626, 1.0270930E-02
1629.554, 1.0091990E-02
1631.483, 1.0179990E-02
1633.411, 1.0061200E-02
1635.340, 9.8548084E-03
1637.268, 9.7519141E-03
1639.197, 9.7394483E-03
1641.125, 9.7462758E-03
1643.054, 9.8285414E-03
1644.982, 9.6704457E-03
1646.911, 9.7585069E-03
1648.839, 9.7964071E-03
1650.767, 9.4603887E-03
1652.696, 9.2799766E-03
1654.624, 9.2961360E-03
1656.553, 9.5716342E-03
1658.481, 9.7133229E-03
1660.410, 9.5284134E-03
1662.338, 9.2181265E-03
1664.267, 8.9213625E-03
1666.195, 8.8622272E-03
1668.124, 9.1901980E-03
1670.052, 9.0702008E-03
1671.981, 8.7853298E-03
1673.909, 8.5963104E-03
1675.838, 8.7321978E-03
1677.766, 8.8775139E-03
1679.694, 8.9491280E-03
1681.623, 8.5463962E-03
1683.551, 8.1876833E-03
1685.480, 8.6852312E-03
1687.408, 8.6752530E-03
1689.337, 7.9094265E-03
1691.265, 7.8718932E-03
1693.194, 7.9124551E-03
1695.122, 7.7662631E-03
1697.051, 7.7011711E-03
1698.979, 7.8895893E-03
1700.908, 7.9741376E-03
1702.836, 7.9821534E-03
1704.765, 7.8826556E-03
1706.693, 8.0348738E-03
1708.621, 8.3010783E-03
1710.550, 8.3279861E-03
1712.478, 8.3925193E-03
1714.407, 8.4872302E-03
1716.335, 8.0808438E-03
1718.264, 7.6858350E-03
1720.192, 7.8628063E-03
1722.121, 8.1802476E-03
1724.049, 8.1000114E-03
1725.978, 7.9414397E-03
1727.906, 7.9541896E-03
1729.835, 7.5786449E-03
1731.763, 7.4674701E-03
1733.692, 7.4121431E-03
1735.620, 7.4956599E-03
1737.548, 7.3164860E-03
1739.477, 7.1493941E-03
1741.405, 7.2540781E-03
1743.334, 7.2192471E-03
1745.262, 7.2077899E-03
1747.191, 7.1877022E-03
1749.119, 7.1348511E-03
1751.048, 7.1585891E-03
1752.976, 6.8370290E-03
1754.905, 6.5355310E-03
1756.833, 6.9845910E-03
1758.762, 7.4374098E-03
1760.690, 7.3751118E-03
1762.619, 7.0654741E-03
1764.547, 7.2617000E-03
1766.475, 7.8939749E-03
1768.404, 8.0520296E-03
1770.332, 7.7244900E-03
1772.261, 7.4221571E-03
1774.189, 7.0894281E-03
1776.118, 7.0819301E-03
1778.046, 7.2295340E-03
1779.975, 7.5800610E-03
1781.903, 8.0831870E-03
1783.832, 8.0686426E-03
1785.760, 7.5013330E-03
1787.689, 7.2470959E-03
1789.617, 7.3202760E-03
1791.546, 7.6458212E-03
1793.474, 7.9262527E-03
1795.402, 7.3468238E-03
1797.331, 6.9694621E-03
1799.259, 7.5060320E-03
1801.188, 8.3452174E-03
1803.116, 8.4761996E-03
1805.045, 8.3518419E-03
1806.973, 8.3801895E-03
1808.902, 7.8967148E-03
1810.830, 7.3280712E-03
1812.759, 6.9469321E-03
1814.687, 6.7795780E-03
1816.616, 7.4208081E-03
1818.544, 7.9812314E-03
1820.473, 8.1373481E-03
1822.401, 7.8071412E-03
1824.329, 8.0002118E-03
1826.258, 8.1423614E-03
1828.186, 7.4103530E-03
1830.115, 7.2626560E-03
1832.043, 6.9908900E-03
1833.972, 6.7986702E-03
1835.900, 6.9776238E-03
1837.829, 6.6017220E-03
1839.757, 6.7259949E-03
1841.686, 7.1165832E-03
1843.614, 7.0355348E-03
1845.543, 6.7159431E-03
1847.471, 6.4609619E-03
1849.400, 6.8357750E-03
1851.328, 7.0812479E-03
1853.256, 6.8891728E-03
1855.185, 6.2985909E-03
1857.113, 5.9736660E-03
1859.042, 6.3748239E-03
1860.970, 7.0026200E-03
1862.899, 6.9892681E-03
1864.827, 6.7777699E-03
1866.756, 6.6813710E-03
1868.684, 7.0042908E-03
1870.613, 6.9420021E-03
1872.541, 7.0333290E-03
1874.470, 6.4717382E-03
1876.398, 6.5351762E-03
1878.327, 6.1629200E-03
1880.255, 5.5292770E-03
1882.183, 5.4265200E-03
1884.112, 5.4474138E-03
1886.040, 6.1301771E-03
1887.969, 7.4733058E-03
1889.897, 7.9667866E-03
1891.826, 7.2406400E-03
1893.754, 7.5300210E-03
1895.683, 8.3167329E-03
1897.611, 7.9362635E-03
1899.540, 7.0249760E-03
1901.468, 6.1452189E-03
1903.397, 6.2322770E-03
1905.325, 6.2125120E-03
1907.254, 6.6716890E-03
1909.182, 6.9109108E-03
1911.110, 6.9745318E-03
1913.039, 7.5376178E-03
1914.967, 6.7904661E-03
1916.896, 5.9181810E-03
1918.824, 6.8407450E-03
1920.753, 7.3343390E-03
1922.681, 7.2528240E-03
1924.610, 6.5996628E-03
1926.538, 5.5020298E-03
1928.467, 4.9370239E-03
1930.395, 6.5292502E-03
1932.324, 8.3312653E-03
1934.252, 7.5052478E-03
1936.181, 5.9245471E-03
1938.109, 5.1285811E-03
1940.037, 5.1441612E-03
1941.966, 4.6766158E-03
1943.894, 4.9800202E-03
1945.823, 5.0666812E-03
1947.751, 4.7242302E-03
1949.680, 5.1175370E-03
1951.608, 5.1540881E-03
1953.537, 4.4219140E-03
1955.465, 3.5174710E-03
1957.394, 4.1369898E-03
1959.322, 4.9417689E-03
1961.251, 4.0626712E-03
1963.179, 2.7863281E-03
1965.108, 2.8437439E-03
1967.036, 2.9641851E-03
1968.964, 4.0142150E-03
1970.893, 2.7066700E-03
1972.821, 3.2659001E-03
1974.750, 6.7315670E-03
1976.678, 8.7738372E-03
1978.607, 9.5212758E-03
1980.535, 7.8791901E-03
1982.464, 6.5627801E-03
1984.392, 7.5821201E-03
1986.321, 7.6565510E-03
1988.249, 5.9171640E-03
1990.178, 6.5940958E-03
1992.106, 8.0605261E-03
1994.035, 8.0062440E-03
1995.963, 5.8229328E-03
1997.891, 3.5703890E-03
1999.820, 3.4423040E-03
2001.748, 2.4989049E-03
2003.677, 1.8786700E-03
2005.605, 1.9204380E-03
2007.534, 3.1463699E-03
2009.462, 3.6609340E-03
2011.391, 3.9741010E-03
2013.319, 2.9604330E-03
2015.248, 3.5678151E-03
2017.176, 4.2468859E-03
2019.105, 3.8782570E-03
2021.033, 1.8826619E-03
2022.962, 6.9019938E-04
2024.890, 3.4679449E-03
2026.818, 5.1883399E-03
2028.747, 3.9180461E-03
2030.675, 4.9201511E-03
2032.604, 7.0985630E-03
2034.532, 8.3316090E-03
2036.461, 7.7977460E-03
2038.389, 6.7788139E-03
2040.318, 5.3071571E-03
2042.246, 5.2038049E-03
2044.175, 6.8691769E-03
2046.103, 7.9427389E-03
2048.032, 7.6618819E-03
2049.960, 7.4342722E-03
2051.889, 5.0295270E-03
2053.817, 5.0351429E-03
2055.746, 6.9552190E-03
2057.674, 9.1284616E-03
2059.603, 9.0451194E-03
2061.531, 9.0913326E-03
2063.459, 9.6114343E-03
2065.388, 7.7593252E-03
2067.316, 5.4901280E-03
2069.245, 6.5201619E-03
2071.173, 8.9324843E-03
2073.102, 9.7495988E-03
2075.030, 8.7444307E-03
2076.959, 8.5563408E-03
2078.887, 8.8328142E-03
2080.816, 9.1756824E-03
2082.744, 8.4612612E-03
2084.673, 7.9826303E-03
2086.601, 7.2137532E-03
2088.530, 6.6345320E-03
2090.458, 7.3234430E-03
2092.386, 7.9794358E-03
2094.315, 7.3661269E-03
2096.243, 6.8799490E-03
2098.172, 7.4678650E-03
2100.100, 7.8900158E-03
2102.029, 7.4991481E-03
2103.957, 6.7350171E-03
2105.886, 7.4179368E-03
2107.814, 7.5169718E-03
2109.743, 6.9310870E-03
2111.671, 6.9181761E-03
2113.600, 6.9199782E-03
2115.528, 5.9409458E-03
2117.457, 5.5680838E-03
2119.385, 6.1144959E-03
2121.313, 5.0992598E-03
2123.242, 5.6887642E-03
2125.170, 6.6853170E-03
2127.099, 6.8952241E-03
2129.027, 5.8416212E-03
2130.956, 3.6096910E-03
2132.884, 1.8178170E-03
2134.813, 1.8362580E-03
2136.741, 2.5401970E-03
2138.670, 3.2045511E-03
2140.598, 2.2488949E-03
2142.527, 1.9365780E-03
2144.455, 5.4365098E-03
2146.384, 5.7178498E-03
2148.312, 2.2779061E-03
2150.240, 1.1192349E-03
2152.169, -1.1404790E-03
2154.097, -2.3622049E-03
2156.026, -9.9745521E-04
2157.954, -2.7545571E-04
2159.883, 4.9493549E-04
2161.811, 2.8804841E-03
2163.740, 4.7272192E-03
2165.668, 5.8499458E-03
2167.597, 4.9498379E-03
2169.525, 4.4251289E-03
2171.454, 4.4868221E-03
2173.382, 6.3118180E-03
2175.311, 4.5554088E-03
2177.239, 3.4072781E-03
2179.167, 3.4080499E-03
2181.096, 2.3785220E-03
2183.024, 3.7061700E-03
2184.953, 8.0062523E-03
2186.881, 9.9927671E-03
2188.810, 8.1663812E-03
2190.738, 4.6262299E-03
2192.667, 5.6028739E-03
2194.595, 8.2560321E-03
2196.524, 8.7913442E-03
2198.452, 9.3172109E-03
2200.381, 8.6055538E-03
2202.309, 5.7148649E-03
2204.238, 6.9337520E-03
2206.166, 9.4748074E-03
2208.094, 9.3373163E-03
2210.023, 8.5565960E-03
2211.951, 8.7642604E-03
2213.880, 9.2892665E-03
2215.808, 8.5405512E-03
2217.737, 7.1783019E-03
2219.665, 8.2548717E-03
2221.594, 1.0077820E-02
2223.522, 1.0475040E-02
2225.451, 8.9226756E-03
2227.379, 8.1326878E-03
2229.308, 7.6633370E-03
2231.236, 8.2623353E-03
2233.165, 1.0017330E-02
2235.093, 1.1557390E-02
2237.021, 1.2060380E-02
2238.950, 1.1378110E-02
2240.878, 1.1247360E-02
2242.807, 1.1752740E-02
2244.735, 1.2216130E-02
2246.664, 1.2118540E-02
2248.592, 1.3102630E-02
2250.521, 1.4219560E-02
2252.449, 1.4586290E-02
2254.378, 1.3415580E-02
2256.306, 1.1622070E-02
2258.235, 1.0775710E-02
2260.163, 1.1816100E-02
2262.092, 1.2044530E-02
2264.020, 1.2640630E-02
2265.948, 1.2506840E-02
2267.877, 1.2212880E-02
2269.805, 1.3619100E-02
2271.734, 1.5347660E-02
2273.662, 1.5520620E-02
2275.591, 1.5218270E-02
2277.519, 1.5575850E-02
2279.448, 1.5336490E-02
2281.376, 1.5419250E-02
2283.305, 1.5323560E-02
2285.233, 1.4956700E-02
2287.162, 1.5249550E-02
2289.090, 1.5999690E-02
2291.019, 1.5909720E-02
2292.947, 1.4902450E-02
2294.875, 1.4929030E-02
2296.804, 1.5261680E-02
2298.732, 1.6035501E-02
2300.661, 1.6309271E-02
2302.589, 1.5518920E-02
2304.518, 1.5556190E-02
2306.446, 1.5766149E-02
2308.375, 1.6098490E-02
2310.303, 1.7043499E-02
2312.232, 1.7311880E-02
2314.160, 1.7116571E-02
2316.089, 1.7658729E-02
2318.017, 1.8433649E-02
2319.946, 1.8076790E-02
2321.874, 1.8394981E-02
2323.802, 1.8936399E-02
2325.731, 1.7878680E-02
2327.659, 1.6331660E-02
2329.588, 1.5969660E-02
2331.516, 1.5912719E-02
2333.445, 1.5798889E-02
2335.373, 1.6621649E-02
2337.302, 1.6981900E-02
2339.230, 1.6095130E-02
2341.159, 1.6143629E-02
2343.087, 1.6967731E-02
2345.016, 1.6348811E-02
2346.944, 1.5293250E-02
2348.873, 1.5033450E-02
2350.801, 1.5430200E-02
2352.729, 1.5822330E-02
2354.658, 1.6573580E-02
2356.586, 1.7028170E-02
2358.515, 1.7005000E-02
2360.443, 1.6608501E-02
2362.372, 1.6422089E-02
2364.300, 1.6453490E-02
2366.229, 1.6989671E-02
2368.157, 1.6966021E-02
2370.086, 1.6474120E-02
2372.014, 1.5992099E-02
2373.942, 1.5877280E-02
2375.871, 1.5731180E-02
2377.799, 1.5674520E-02
2379.728, 1.5645919E-02
2381.656, 1.5241030E-02
2383.585, 1.4900930E-02
2385.513, 1.3971450E-02
2387.442, 1.4350110E-02
2389.370, 1.4799610E-02
2391.299, 1.4878740E-02
2393.227, 1.4956630E-02
2395.156, 1.4902900E-02
2397.084, 1.5088060E-02
2399.012, 1.5684830E-02
2400.941, 1.5749130E-02
2402.869, 1.5805591E-02
2404.798, 1.6744461E-02
2406.726, 1.6819891E-02
2408.655, 1.5324070E-02
2410.583, 1.4818310E-02
2412.512, 1.5344060E-02
2414.440, 1.5630590E-02
2416.369, 1.5209530E-02
2418.297, 1.5181340E-02
2420.226, 1.6745221E-02
2422.154, 1.6718039E-02
2424.083, 1.5619720E-02
2426.011, 1.6142590E-02
2427.939, 1.6247161E-02
2429.868, 1.6003691E-02
2431.796, 1.5902940E-02
2433.725, 1.6110560E-02
2435.653, 1.6541321E-02
2437.582, 1.6754940E-02
2439.510, 1.7078079E-02
2441.439, 1.6286319E-02
2443.367, 1.6781790E-02
2445.296, 1.6742440E-02
2447.224, 1.5935671E-02
2449.153, 1.6199671E-02
2451.081, 1.6077699E-02
2453.010, 1.6150421E-02
2454.938, 1.6369261E-02
2456.866, 1.6145229E-02
2458.795, 1.6872359E-02
2460.723, 1.7044310E-02
2462.652, 1.6985711E-02
2464.580, 1.7056510E-02
2466.509, 1.7557809E-02
2468.437, 1.7766779E-02
2470.366, 1.6761759E-02
2472.294, 1.5662869E-02
2474.223, 1.6163830E-02
2476.151, 1.6136611E-02
2478.080, 1.6580770E-02
2480.008, 1.6712010E-02
2481.937, 1.6280919E-02
2483.865, 1.5846990E-02
2485.793, 1.5853610E-02
2487.722, 1.5666259E-02
2489.650, 1.6137250E-02
2491.579, 1.6985450E-02
2493.507, 1.6460421E-02
2495.436, 1.5253790E-02
2497.364, 1.6552420E-02
2499.293, 1.6892010E-02
2501.221, 1.6885599E-02
2503.150, 1.6917489E-02
2505.078, 1.6011391E-02
2507.007, 1.6812110E-02
2508.935, 1.7476240E-02
2510.864, 1.6926439E-02
2512.792, 1.6528809E-02
2514.720, 1.6924350E-02
2516.649, 1.7281899E-02
2518.577, 1.8442821E-02
2520.506, 1.8995900E-02
2522.434, 1.7794000E-02
2524.363, 1.6186349E-02
2526.291, 1.6045300E-02
2528.220, 1.6779300E-02
2530.148, 1.7918879E-02
2532.077, 1.8324710E-02
2534.005, 1.7634740E-02
2535.934, 1.6903700E-02
2537.862, 1.7343329E-02
2539.791, 1.7442441E-02
2541.719, 1.7104600E-02
2543.647, 1.6868940E-02
2545.576, 1.6909990E-02
2547.504, 1.7565221E-02
2549.433, 1.8150000E-02
2551.361, 1.8845310E-02
2553.290, 1.7341260E-02
2555.218, 1.5836651E-02
2557.147, 1.6735060E-02
2559.075, 1.8295789E-02
2561.004, 1.8016919E-02
2562.932, 1.6886041E-02
2564.861, 1.6307261E-02
2566.789, 1.6627049E-02
2568.718, 1.7229060E-02
2570.646, 1.7713960E-02
2572.574, 1.7945509E-02
2574.503, 1.8806539E-02
2576.431, 1.9595560E-02
2578.360, 1.8296620E-02
2580.288, 1.7705791E-02
2582.217, 1.8364079E-02
2584.145, 1.8294420E-02
2586.074, 1.8440640E-02
2588.002, 1.8287910E-02
2589.931, 1.7573111E-02
2591.859, 1.8274309E-02
2593.788, 1.8581010E-02
2595.716, 1.9197769E-02
2597.645, 2.0774640E-02
2599.573, 1.9480670E-02
2601.501, 1.7377520E-02
2603.430, 1.7693100E-02
2605.358, 1.8906141E-02
2607.287, 2.0633020E-02
2609.215, 2.1254361E-02
2611.144, 2.0173850E-02
2613.072, 1.9216590E-02
2615.001, 1.8706100E-02
2616.929, 1.8461740E-02
2618.858, 1.8785210E-02
2620.786, 1.9243550E-02
2622.715, 1.9487441E-02
2624.643, 1.9406050E-02
2626.572, 1.9002739E-02
2628.500, 1.8903790E-02
2630.428, 2.0125009E-02
2632.357, 2.0597380E-02
2634.285, 1.9739199E-02
2636.214, 1.9556729E-02
2638.142, 1.9393390E-02
2640.071, 1.9078700E-02
2641.999, 1.8817810E-02
2643.928, 1.9057579E-02
2645.856, 1.9686321E-02
2647.785, 1.9918719E-02
2649.713, 1.9292559E-02
2651.642, 1.9361010E-02
2653.570, 2.0069420E-02
2655.499, 1.9655669E-02
2657.427, 1.9573580E-02
2659.355, 1.9121749E-02
2661.284, 1.8966280E-02
2663.212, 1.9243689E-02
2665.141, 1.9382261E-02
2667.069, 1.9202640E-02
2668.998, 1.8962370E-02
2670.926, 1.8192710E-02
2672.855, 1.8111570E-02
2674.783, 1.8086649E-02
2676.712, 1.8126180E-02
2678.640, 1.8815549E-02
2680.569, 1.8824220E-02
2682.497, 1.8981040E-02
2684.426, 1.8936191E-02
2686.354, 1.8740021E-02
2688.282, 1.8684680E-02
2690.211, 1.8565221E-02
2692.139, 1.8872751E-02
2694.068, 1.9211451E-02
2695.996, 1.9536169E-02
2697.925, 1.9572230E-02
2699.853, 1.9521911E-02
2701.782, 1.9285841E-02
2703.710, 1.9075140E-02
2705.639, 2.0036289E-02
2707.567, 1.9986600E-02
2709.496, 1.9414920E-02
2711.424, 1.9422160E-02
2713.353, 1.9815620E-02
2715.281, 1.9373881E-02
2717.209, 1.8988390E-02
2719.138, 1.8971009E-02
2721.066, 1.9034030E-02
2722.995, 1.8699519E-02
2724.923, 1.8176740E-02
2726.852, 1.9026021E-02
2728.780, 2.0578170E-02
2730.709, 2.0628070E-02
2732.637, 2.0096419E-02
2734.566, 1.9977260E-02
2736.494, 2.0021969E-02
2738.423, 2.0150039E-02
2740.351, 2.0462560E-02
2742.280, 1.9994250E-02
2744.208, 1.9323889E-02
2746.136, 1.8618669E-02
2748.065, 1.8147031E-02
2749.993, 1.8369701E-02
2751.922, 1.8987101E-02
2753.850, 1.9743690E-02
2755.779, 1.9867901E-02
2757.707, 1.8820470E-02
2759.636, 1.8673791E-02
2761.564, 1.9353211E-02
2763.493, 2.0192871E-02
2765.421, 2.0602040E-02
2767.350, 2.0533200E-02
2769.278, 2.0525111E-02
2771.207, 2.0591430E-02
2773.135, 2.0132789E-02
2775.063, 1.9390250E-02
2776.992, 1.9588601E-02
2778.920, 2.0643130E-02
2780.849, 2.1391680E-02
2782.777, 2.0913141E-02
2784.706, 2.0420600E-02
2786.634, 2.0239910E-02
2788.563, 2.0811940E-02
2790.491, 2.1309819E-02
2792.420, 2.1571100E-02
2794.348, 2.0921810E-02
2796.277, 1.9353660E-02
2798.205, 1.9879591E-02
2800.134, 2.1337571E-02
2802.062, 2.1861181E-02
2803.990, 2.1554660E-02
2805.919, 2.0781459E-02
2807.847, 2.0601749E-02
2809.776, 2.1423079E-02
2811.704, 2.1474659E-02
2813.633, 2.0491840E-02
2815.561, 1.9768501E-02
2817.490, 2.0439520E-02
2819.418, 2.1955689E-02
2821.347, 2.2272930E-02
2823.275, 2.1941060E-02
2825.204, 2.1316370E-02
2827.132, 2.0303180E-02
2829.061, 1.9933119E-02
2830.989, 2.0656120E-02
2832.917, 2.1483550E-02
2834.846, 2.2453630E-02
2836.774, 2.3433030E-02
2838.703, 2.3401409E-02
2840.631, 2.2843231E-02
2842.560, 2.2485949E-02
2844.488, 2.2498131E-02
2846.417, 2.2192059E-02
2848.345, 2.2221990E-02
2850.274, 2.2324150E-02
2852.202, 2.2236301E-02
2854.131, 2.2413190E-02
2856.059, 2.2898080E-02
2857.988, 2.2945659E-02
2859.916, 2.1642299E-02
2861.844, 2.1444051E-02
2863.773, 2.1273451E-02
2865.701, 2.1507921E-02
2867.630, 2.2033419E-02
2869.558, 2.1947300E-02
2871.487, 2.2839390E-02
2873.415, 2.3295810E-02
2875.344, 2.2808351E-02
2877.272, 2.2414381E-02
2879.201, 2.3101879E-02
2881.129, 2.3738610E-02
2883.058, 2.3718180E-02
2884.986, 2.3731319E-02
2886.915, 2.3234230E-02
2888.843, 2.3523200E-02
2890.771, 2.3077359E-02
2892.700, 2.2769850E-02
2894.628, 2.2441881E-02
2896.557, 2.3118360E-02
2898.485, 2.3753690E-02
2900.414, 2.3534670E-02
2902.342, 2.2681439E-02
2904.271, 2.1870730E-02
2906.199, 2.2842569E-02
2908.128, 2.4128700E-02
2910.056, 2.4263039E-02
2911.985, 2.3713211E-02
2913.913, 2.5573250E-02
2915.842, 2.6368549E-02
2917.770, 2.5857011E-02
2919.698, 2.5302650E-02
2921.627, 2.4531920E-02
2923.555, 2.4284160E-02
2925.484, 2.3317540E-02
2927.412, 2.3504930E-02
2929.341, 2.4788089E-02
2931.269, 2.5567699E-02
2933.198, 2.4625810E-02
2935.126, 2.2621909E-02
2937.055, 2.2905851E-02
2938.983, 2.3869369E-02
2940.912, 2.3336209E-02
2942.840, 2.3459559E-02
2944.769, 2.4855960E-02
2946.697, 2.4784731E-02
2948.625, 2.5203040E-02
2950.554, 2.5877761E-02
2952.482, 2.5074789E-02
2954.411, 2.4453949E-02
2956.339, 2.4041360E-02
2958.268, 2.4418440E-02
2960.196, 2.4031950E-02
2962.125, 2.4080411E-02
2964.053, 2.5048681E-02
2965.982, 2.4798650E-02
2967.910, 2.4329159E-02
2969.839, 2.4991220E-02
2971.767, 2.3770390E-02
2973.696, 2.2754000E-02
2975.624, 2.2725610E-02
2977.552, 2.2908131E-02
2979.481, 2.2644451E-02
2981.409, 2.3349430E-02
2983.338, 2.3790151E-02
2985.266, 2.4123520E-02
2987.195, 2.4735790E-02
2989.123, 2.4767110E-02
2991.052, 2.4636719E-02
2992.980, 2.5518650E-02
2994.909, 2.4908001E-02
2996.837, 2.3405449E-02
2998.766, 2.2597799E-02
3000.694, 2.2703379E-02
3002.623, 2.3364739E-02
3004.551, 2.3551850E-02
3006.479, 2.3795821E-02
3008.408, 2.3402860E-02
3010.336, 2.2261029E-02
3012.265, 2.3350760E-02
3014.193, 2.4822960E-02
3016.122, 2.5674270E-02
3018.050, 2.6495760E-02
3019.979, 2.5164440E-02
3021.907, 2.3819430E-02
3023.836, 2.4551770E-02
3025.764, 2.4904970E-02
3027.693, 2.3493540E-02
3029.621, 2.3285231E-02
3031.550, 2.4597719E-02
3033.478, 2.5227129E-02
3035.406, 2.5030460E-02
3037.335, 2.5069229E-02
3039.263, 2.5925590E-02
3041.192, 2.5946770E-02
3043.120, 2.5543530E-02
3045.049, 2.6174679E-02
3046.977, 2.7438371E-02
3048.906, 2.7156670E-02
3050.834, 2.5476061E-02
3052.763, 2.4047291E-02
3054.691, 2.4016410E-02
3056.620, 2.4915891E-02
3058.548, 2.5884330E-02
3060.477, 2.5743181E-02
3062.405, 2.4344491E-02
3064.333, 2.4424450E-02
3066.262, 2.5103500E-02
3068.190, 2.4661260E-02
3070.119, 2.5893260E-02
3072.047, 2.6761049E-02
3073.976, 2.5032770E-02
3075.904, 2.4700111E-02
3077.833, 2.4932841E-02
3079.761, 2.4848649E-02
3081.690, 2.5443651E-02
3083.618, 2.4892161E-02
3085.547, 2.4970850E-02
3087.475, 2.7207971E-02
3089.404, 2.8148631E-02
3091.332, 2.7109209E-02
3093.260, 2.5365680E-02
3095.189, 2.5150660E-02
3097.117, 2.6954509E-02
3099.046, 2.8136030E-02
3100.974, 2.7797589E-02
3102.903, 2.7085841E-02
3104.831, 2.6686771E-02
3106.760, 2.7015850E-02
3108.688, 2.7899450E-02
3110.617, 2.7638789E-02
3112.545, 2.7303871E-02
3114.474, 2.7610920E-02
3116.402, 2.7361831E-02
3118.331, 2.7762700E-02
3120.259, 2.7139669E-02
3122.188, 2.5621129E-02
3124.116, 2.3693660E-02
3126.044, 2.3209721E-02
3127.973, 2.4477961E-02
3129.901, 2.5326209E-02
3131.830, 2.7187491E-02
3133.758, 2.9203650E-02
3135.687, 2.8622210E-02
3137.615, 2.6784159E-02
3139.544, 2.7333841E-02
3141.472, 2.7230840E-02
3143.401, 2.6997359E-02
3145.329, 2.7278630E-02
3147.258, 2.7873460E-02
3149.186, 2.8805960E-02
3151.115, 2.7782530E-02
3153.043, 2.7002700E-02
3154.971, 2.9016471E-02
3156.900, 2.9463770E-02
3158.828, 2.7780261E-02
3160.757, 2.6872991E-02
3162.685, 2.8564001E-02
3164.614, 3.0480480E-02
3166.542, 3.0418379E-02
3168.471, 2.9286360E-02
3170.399, 2.6713420E-02
3172.328, 2.5586840E-02
3174.256, 2.5806420E-02
3176.185, 2.7286969E-02
3178.113, 2.8504239E-02
3180.042, 2.8416660E-02
3181.970, 2.8207360E-02
3183.898, 2.9051080E-02
3185.827, 2.9491320E-02
3187.755, 3.0306339E-02
3189.684, 3.0297561E-02
3191.612, 2.9540449E-02
3193.541, 2.7936960E-02
3195.469, 2.6458601E-02
3197.398, 2.7946381E-02
3199.326, 2.9475620E-02
3201.255, 2.9480269E-02
3203.183, 3.0067511E-02
3205.112, 2.8983289E-02
3207.040, 2.7688520E-02
3208.969, 2.8831121E-02
3210.897, 2.9612429E-02
3212.825, 2.8370289E-02
3214.754, 2.8442429E-02
3216.682, 2.9942891E-02
3218.611, 3.0391280E-02
3220.539, 3.0592499E-02
3222.468, 3.0315090E-02
3224.396, 2.9325571E-02
3226.325, 2.9177411E-02
3228.253, 3.0125899E-02
3230.182, 3.1909090E-02
3232.110, 3.0596020E-02
3234.039, 2.9103629E-02
3235.967, 3.0242801E-02
3237.896, 3.0987671E-02
3239.824, 3.0783810E-02
3241.752, 2.8572559E-02
3243.681, 2.8345101E-02
3245.609, 3.0260390E-02
3247.538, 2.9132390E-02
3249.466, 2.8402360E-02
3251.395, 2.9403361E-02
3253.323, 3.2259449E-02
3255.252, 3.3403270E-02
3257.180, 3.2121371E-02
3259.109, 3.2058749E-02
3261.037, 3.2685969E-02
3262.966, 3.0739600E-02
3264.894, 3.0478880E-02
3266.823, 3.0909900E-02
3268.751, 3.1101611E-02
3270.679, 3.2227550E-02
3272.608, 3.2503139E-02
3274.536, 3.2057028E-02
3276.465, 3.2474469E-02
3278.393, 3.3587571E-02
3280.322, 3.2418739E-02
3282.250, 3.0021120E-02
3284.179, 2.9561620E-02
3286.107, 3.0605050E-02
3288.036, 3.2428332E-02
3289.964, 3.1966578E-02
3291.893, 2.9619370E-02
3293.821, 2.6831631E-02
3295.750, 2.7489390E-02
3297.678, 2.9460151E-02
3299.606, 3.1478900E-02
3301.535, 3.1537890E-02
3303.463, 3.2003500E-02
3305.392, 3.1482711E-02
3307.320, 3.1119270E-02
3309.249, 3.1451192E-02
3311.177, 3.1927351E-02
3313.106, 3.2222081E-02
3315.034, 3.0865701E-02
3316.963, 3.0620480E-02
3318.891, 3.1457972E-02
3320.820, 3.1604681E-02
3322.748, 3.0893210E-02
3324.677, 3.1991281E-02
3326.605, 3.3281241E-02
3328.533, 3.1334419E-02
3330.462, 3.1208459E-02
3332.390, 3.4129921E-02
3334.319, 3.3193711E-02
3336.247, 3.1751059E-02
3338.176, 3.1851839E-02
3340.104, 3.4082249E-02
3342.033, 3.4502398E-02
3343.961, 3.3955321E-02
3345.890, 3.5362128E-02
3347.818, 3.5892930E-02
3349.747, 3.5480231E-02
3351.675, 3.2716900E-02
3353.604, 3.1616081E-02
3355.532, 3.2810841E-02
3357.460, 3.4244321E-02
3359.389, 3.6219969E-02
3361.317, 3.6104791E-02
3363.246, 3.4538589E-02
3365.174, 3.4488071E-02
3367.103, 3.2624021E-02
3369.031, 3.0701090E-02
3370.960, 3.1104811E-02
3372.888, 3.3440351E-02
3374.817, 3.3362340E-02
3376.745, 3.2875460E-02
3378.674, 3.5421189E-02
3380.602, 3.7082899E-02
3382.531, 3.4738239E-02
3384.459, 3.4856219E-02
3386.387, 3.7031759E-02
3388.316, 3.4538571E-02
3390.244, 3.1021850E-02
3392.173, 3.1418689E-02
3394.101, 3.2051310E-02
3396.030, 3.0042240E-02
3397.958, 2.9846171E-02
3399.887, 3.1875361E-02
3401.815, 3.4476899E-02
3403.744, 3.5523091E-02
3405.672, 3.3882219E-02
3407.601, 3.3202991E-02
3409.529, 3.3398449E-02
3411.458, 3.1554010E-02
3413.386, 3.1643361E-02
3415.314, 3.1736389E-02
3417.243, 3.1078910E-02
3419.171, 3.0602431E-02
3421.100, 3.2471359E-02
3423.028, 3.3831630E-02
3424.957, 3.2803189E-02
3426.885, 3.1256471E-02
3428.814, 3.1121381E-02
3430.742, 3.3452660E-02
3432.671, 3.5379890E-02
3434.599, 3.4422349E-02
3436.528, 3.3722900E-02
3438.456, 3.3404380E-02
3440.385, 3.2034330E-02
3442.313, 3.0586131E-02
3444.241, 3.1864122E-02
3446.170, 3.1758212E-02
3448.098, 3.0121161E-02
3450.027, 3.0733200E-02
3451.955, 3.1769931E-02
3453.884, 3.2469671E-02
3455.812, 3.2799888E-02
3457.741, 3.1978119E-02
3459.669, 3.3070151E-02
3461.598, 3.2941211E-02
3463.526, 3.4279089E-02
3465.455, 3.5284910E-02
3467.383, 3.3731110E-02
3469.312, 3.2328110E-02
3471.240, 3.2845460E-02
3473.168, 3.3961691E-02
3475.097, 3.2476369E-02
3477.025, 3.0999810E-02
3478.954, 3.2168660E-02
3480.882, 3.2730900E-02
3482.811, 3.2898221E-02
3484.739, 3.3769120E-02
3486.668, 3.5045519E-02
3488.596, 3.3104911E-02
3490.525, 3.2361541E-02
3492.453, 3.4042209E-02
3494.382, 3.4702811E-02
3496.310, 3.3092629E-02
3498.239, 3.2621220E-02
3500.167, 3.4740452E-02
3502.095, 3.6574371E-02
3504.024, 3.5949580E-02
3505.952, 3.4936581E-02
3507.881, 3.3368342E-02
3509.809, 3.2721881E-02
3511.738, 3.1342790E-02
3513.666, 3.0335709E-02
3515.595, 3.2611940E-02
3517.523, 3.3680230E-02
3519.452, 3.4650549E-02
3521.380, 3.4886900E-02
3523.309, 3.3170279E-02
3525.237, 3.5690941E-02
3527.166, 3.7342191E-02
3529.094, 3.5777271E-02
3531.022, 3.4335960E-02
3532.951, 3.1545740E-02
3534.879, 3.0366169E-02
3536.808, 3.1616669E-02
3538.736, 3.3024140E-02
3540.665, 3.2429151E-02
3542.593, 3.2221701E-02
3544.522, 3.3787351E-02
3546.450, 3.4728020E-02
3548.379, 3.3590019E-02
3550.307, 3.2434698E-02
3552.236, 3.3884700E-02
3554.164, 3.2044489E-02
3556.093, 3.0545039E-02
3558.021, 3.1184129E-02
3559.949, 3.2301269E-02
3561.878, 3.3876430E-02
3563.806, 3.2769442E-02
3565.735, 3.2362930E-02
3567.663, 3.4358650E-02
3569.592, 3.3433910E-02
3571.520, 3.2437310E-02
3573.449, 3.2602102E-02
3575.377, 3.3116881E-02
3577.306, 3.3308391E-02
3579.234, 3.2464620E-02
3581.163, 3.2385070E-02
3583.091, 3.2970041E-02
3585.020, 3.3975359E-02
3586.948, 3.3408739E-02
3588.876, 3.3105630E-02
3590.805, 3.2032561E-02
3592.733, 3.0950829E-02
3594.662, 3.1081529E-02
3596.590, 3.2187089E-02
3598.519, 3.1629588E-02
3600.447, 3.2153651E-02
3602.376, 3.4178149E-02
3604.304, 3.2768961E-02
3606.233, 3.0869201E-02
3608.161, 3.1965669E-02
3610.090, 2.9969580E-02
3612.018, 2.7238689E-02
3613.947, 2.8487859E-02
3615.875, 3.0840550E-02
3617.803, 3.2194860E-02
3619.732, 3.0833449E-02
3621.660, 3.0586779E-02
3623.589, 3.1471532E-02
3625.517, 3.0558480E-02
3627.446, 3.0572159E-02
3629.374, 3.1824712E-02
3631.303, 3.2402679E-02
3633.231, 3.1437751E-02
3635.160, 3.2357302E-02
3637.088, 3.2353058E-02
3639.017, 2.9900029E-02
3640.945, 2.6108120E-02
3642.874, 2.7807441E-02
3644.802, 2.9438989E-02
3646.730, 3.2117099E-02
3648.659, 3.1951379E-02
3650.587, 2.9077390E-02
3652.516, 2.9192841E-02
3654.444, 3.1482220E-02
3656.373, 3.2024860E-02
3658.301, 3.4408100E-02
3660.230, 3.3349991E-02
3662.158, 3.1868041E-02
3664.087, 3.2540809E-02
3666.015, 3.0592460E-02
3667.944, 2.8420150E-02
3669.872, 3.0523250E-02
3671.801, 3.1833410E-02
3673.729, 3.1235680E-02
3675.657, 2.9956849E-02
3677.586, 3.0437250E-02
3679.514, 3.0523671E-02
3681.443, 3.1802770E-02
3683.371, 3.0800249E-02
3685.300, 3.0188860E-02
3687.228, 3.1491250E-02
3689.157, 2.9404270E-02
3691.085, 2.9364079E-02
3693.014, 2.7377430E-02
3694.942, 2.7208669E-02
3696.871, 3.1858951E-02
3698.799, 3.2891739E-02
3700.728, 3.0855641E-02
3702.656, 2.7966900E-02
3704.584, 2.9260460E-02
3706.513, 3.2709152E-02
3708.441, 3.3024520E-02
3710.370, 3.2043509E-02
3712.298, 3.0849289E-02
3714.227, 2.9333990E-02
3716.155, 2.9492671E-02
3718.084, 2.9429309E-02
3720.012, 3.0177690E-02
3721.941, 3.2083679E-02
3723.869, 3.0029090E-02
3725.798, 2.8964691E-02
3727.726, 3.1947982E-02
3729.655, 3.3584569E-02
3731.583, 3.3026800E-02
3733.511, 3.0978160E-02
3735.440, 2.9550809E-02
3737.368, 2.8627440E-02
3739.297, 2.6034361E-02
3741.225, 2.5373129E-02
3743.154, 2.9889850E-02
3745.082, 3.2761950E-02
3747.011, 3.1985879E-02
3748.939, 3.0376909E-02
3750.868, 2.8654819E-02
3752.796, 3.0329620E-02
3754.725, 3.2812029E-02
3756.653, 3.0817879E-02
3758.582, 3.0303299E-02
3760.510, 2.9100090E-02
3762.438, 2.9866969E-02
3764.367, 2.9368781E-02
3766.295, 3.1902470E-02
3768.224, 3.4282081E-02
3770.152, 3.0618800E-02
3772.081, 2.8700620E-02
3774.009, 2.9362790E-02
3775.938, 3.1198209E-02
3777.866, 3.0560929E-02
3779.795, 2.9447200E-02
3781.723, 2.8930459E-02
3783.652, 2.7789479E-02
3785.580, 2.9590979E-02
3787.509, 2.8908050E-02
3789.437, 2.8156741E-02
3791.365, 3.0112980E-02
3793.294, 3.0996921E-02
3795.222, 3.2070432E-02
3797.151, 3.2964312E-02
3799.079, 3.3738520E-02
3801.008, 3.1851970E-02
3802.936, 3.0208601E-02
3804.865, 2.9419061E-02
3806.793, 2.8858200E-02
3808.722, 3.0542230E-02
3810.650, 3.1323768E-02
3812.579, 3.2005861E-02
3814.507, 3.2613091E-02
3816.436, 3.1287570E-02
3818.364, 2.9253131E-02
3820.292, 2.9824430E-02
3822.221, 3.2816481E-02
3824.149, 3.1885471E-02
3826.078, 3.1230841E-02
3828.006, 3.3271130E-02
3829.935, 3.3188589E-02
3831.863, 3.0756380E-02
3833.792, 3.0451110E-02
3835.720, 3.1521171E-02
3837.649, 3.1202720E-02
3839.577, 3.4651808E-02
3841.506, 3.6680739E-02
3843.434, 3.1156730E-02
3845.363, 2.6275471E-02
3847.291, 2.6318310E-02
3849.219, 2.8929479E-02
3851.148, 3.0209530E-02
3853.076, 3.1342208E-02
3855.005, 3.2415800E-02
3856.933, 3.0567501E-02
3858.862, 2.8774180E-02
3860.790, 3.1398829E-02
3862.719, 3.4151379E-02
3864.647, 3.6290661E-02
3866.576, 3.3855360E-02
3868.504, 3.1013660E-02
3870.433, 3.0456791E-02
3872.361, 3.2619830E-02
3874.290, 3.2749951E-02
3876.218, 3.3268031E-02
3878.146, 3.2828800E-02
3880.075, 3.0017991E-02
3882.003, 3.0211261E-02
3883.932, 3.1294260E-02
3885.860, 3.0270509E-02
3887.789, 3.3673771E-02
3889.717, 3.5418320E-02
3891.646, 3.4579929E-02
3893.574, 3.1798359E-02
3895.503, 3.0019751E-02
3897.431, 3.1471971E-02
3899.360, 3.3208251E-02
3901.288, 3.3990879E-02
3903.217, 3.3625331E-02
3905.145, 3.4701198E-02
3907.073, 3.5459630E-02
3909.002, 3.2520480E-02
3910.930, 3.1795781E-02
3912.859, 3.2926079E-02
3914.787, 3.4163810E-02
3916.716, 3.4468930E-02
3918.644, 3.5488151E-02
3920.573, 3.2657389E-02
3922.501, 2.9507879E-02
3924.430, 2.9423829E-02
3926.358, 2.9853551E-02
3928.287, 3.2612588E-02
3930.215, 3.3197202E-02
3932.144, 3.4489430E-02
3934.072, 3.3587880E-02
3936.000, 3.3302989E-02
3937.929, 3.5112381E-02
3939.857, 3.6895391E-02
3941.786, 3.6057029E-02
3943.714, 3.3539880E-02
3945.643, 3.3384569E-02
3947.571, 3.3055220E-02
3949.500, 3.6562670E-02
3951.428, 4.2554449E-02
3953.357, 3.7848640E-02
3955.285, 3.1844489E-02
3957.214, 3.0046260E-02
3959.142, 3.0204020E-02
3961.071, 3.5202570E-02
3962.999, 3.4398329E-02
3964.927, 2.9517630E-02
3966.856, 3.2120820E-02
3968.784, 3.6077719E-02
3970.713, 3.7963841E-02
3972.641, 3.6499519E-02
3974.570, 3.0102059E-02
3976.498, 3.1498589E-02
3978.427, 3.1658459E-02
3980.355, 3.0306119E-02
3982.284, 3.3493999E-02
3984.212, 3.3691932E-02
3986.141, 3.3441871E-02
3988.069, 3.2184899E-02
3989.998, 2.9016349E-02
3991.926, 2.7508879E-02
3993.854, 2.8611280E-02
3995.783, 3.0739579E-02
3997.711, 3.2873981E-02
3999.640, 3.2889839E-02
##END=



