##NAMES=Epidote
##RRUFFID=R050303
##IDEAL CHEMISTRY=Ca_2_Fe^3+^Al_2_(Si_2_O_7_)(SiO_4_)O(OH)
##LOCALITY=San Martin mine, Zacatecas, Mexico
##OWNER=RRUFF
##SOURCE=Eugene Schlepp
##DESCRIPTION=Green elongated prismatic crystals
##STATUS=The identification of this mineral has been confirmed by X-ray diffraction and chemical analysis
##URL=rruff.info/R050303
##MEASURED CHEMISTRY=Ca_2.00_Al_2.00_(Fe^3+^_0.97_Al_0.03_)(SiO_4_)(Si_2_O_7_)O(OH)
399.1926, 0.2608351
401.1211, 0.2270643
403.0496, 0.2281559
404.9780, 0.2130622
406.9065, 0.2174038
408.8350, 0.2112313
410.7634, 0.2042080
412.6919, 0.1953387
414.6204, 0.1910928
416.5488, 0.1900425
418.4773, 0.1865578
420.4058, 0.1828663
422.3342, 0.1824993
424.2627, 0.1860721
426.1912, 0.1865321
428.1196, 0.1882862
430.0481, 0.1924737
431.9766, 0.1992488
433.9050, 0.2091273
435.8335, 0.2168491
437.7620, 0.2250423
439.6904, 0.2381476
441.6189, 0.2526644
443.5474, 0.2616860
445.4758, 0.2684501
447.4043, 0.2752052
449.3328, 0.2759072
451.2612, 0.2678406
453.1897, 0.2569624
455.1182, 0.2464882
457.0466, 0.2372920
458.9751, 0.2279429
460.9036, 0.2190672
462.8320, 0.2131190
464.7605, 0.2066372
466.6890, 0.1989729
468.6174, 0.1917074
470.5459, 0.1847348
472.4744, 0.1787646
474.4028, 0.1738269
476.3313, 0.1707479
478.2598, 0.1727225
480.1882, 0.1774431
482.1167, 0.1833171
484.0452, 0.1932204
485.9736, 0.2046975
487.9021, 0.2195996
489.8306, 0.2374949
491.7590, 0.2546339
493.6875, 0.2700298
495.6160, 0.2852090
497.5444, 0.2994825
499.4729, 0.3110505
501.4014, 0.3206515
503.3298, 0.3250484
505.2583, 0.3260019
507.1868, 0.3247156
509.1152, 0.3215730
511.0437, 0.3125159
512.9722, 0.3015501
514.9006, 0.2903075
516.8291, 0.2795707
518.7576, 0.2692688
520.6860, 0.2583779
522.6145, 0.2492594
524.5430, 0.2401815
526.4714, 0.2310894
528.3999, 0.2242178
530.3284, 0.2195114
532.2568, 0.2149497
534.1853, 0.2104395
536.1138, 0.2069679
538.0422, 0.2048571
539.9707, 0.2023726
541.8992, 0.1998435
543.8276, 0.1989894
545.7561, 0.1980666
547.6846, 0.1980945
549.6130, 0.1983052
551.5415, 0.1990891
553.4700, 0.1994277
555.3984, 0.1984494
557.3269, 0.1975446
559.2554, 0.1972110
561.1838, 0.1972113
563.1123, 0.1953282
565.0408, 0.1918560
566.9692, 0.1868287
568.8977, 0.1814081
570.8262, 0.1764904
572.7546, 0.1710281
574.6831, 0.1652493
576.6116, 0.1604079
578.5400, 0.1554481
580.4685, 0.1514660
582.3970, 0.1479480
584.3254, 0.1445676
586.2539, 0.1422038
588.1824, 0.1401559
590.1108, 0.1375433
592.0393, 0.1342169
593.9678, 0.1318084
595.8962, 0.1310447
597.8247, 0.1301917
599.7532, 0.1284989
601.6816, 0.1265218
603.6101, 0.1246449
605.5386, 0.1238024
607.4670, 0.1254638
609.3955, 0.1290515
611.3240, 0.1336876
613.2524, 0.1405881
615.1809, 0.1497642
617.1094, 0.1611727
619.0378, 0.1741014
620.9663, 0.1874058
622.8948, 0.2005424
624.8232, 0.2121973
626.7517, 0.2214393
628.6802, 0.2295760
630.6086, 0.2369791
632.5371, 0.2432303
634.4656, 0.2479383
636.3940, 0.2519864
638.3225, 0.2553192
640.2510, 0.2555291
642.1794, 0.2525517
644.1079, 0.2469351
646.0364, 0.2399734
647.9648, 0.2323069
649.8933, 0.2233064
651.8218, 0.2134525
653.7502, 0.2026843
655.6787, 0.1931741
657.6072, 0.1845347
659.5356, 0.1760953
661.4641, 0.1687518
663.3926, 0.1611526
665.3210, 0.1539457
667.2495, 0.1478949
669.1780, 0.1420255
671.1064, 0.1359973
673.0349, 0.1305286
674.9634, 0.1254608
676.8918, 0.1198295
678.8203, 0.1136687
680.7488, 0.1073207
682.6772, 0.1014935
684.6057, 9.5600888E-02
686.5342, 8.9913033E-02
688.4626, 8.4364407E-02
690.3911, 7.9735599E-02
692.3196, 7.6258153E-02
694.2480, 7.3193014E-02
696.1765, 7.0704088E-02
698.1050, 6.9068283E-02
700.0334, 6.7773849E-02
701.9619, 6.6875823E-02
703.8904, 6.6196777E-02
705.8188, 6.5790758E-02
707.7473, 6.6340208E-02
709.6758, 6.8072706E-02
711.6042, 7.0402950E-02
713.5327, 7.2504953E-02
715.4612, 7.3807903E-02
717.3896, 7.2970010E-02
719.3181, 7.0315287E-02
721.2466, 6.6395447E-02
723.1750, 6.1816040E-02
725.1035, 5.7393741E-02
727.0320, 5.3824112E-02
728.9604, 5.1112249E-02
730.8889, 4.9189691E-02
732.8174, 4.7733471E-02
734.7458, 4.6852950E-02
736.6743, 4.5998979E-02
738.6028, 4.5348618E-02
740.5313, 4.5825630E-02
742.4597, 4.6606340E-02
744.3882, 4.6858951E-02
746.3167, 4.7102571E-02
748.2451, 4.7498312E-02
750.1736, 4.8159700E-02
752.1021, 4.9156249E-02
754.0305, 5.0030328E-02
755.9590, 5.0541911E-02
757.8875, 5.1381301E-02
759.8159, 5.2369401E-02
761.7444, 5.3414300E-02
763.6729, 5.4795429E-02
765.6013, 5.6152549E-02
767.5298, 5.7501700E-02
769.4583, 5.8800921E-02
771.3867, 6.0437229E-02
773.3152, 6.2299062E-02
775.2437, 6.4365670E-02
777.1721, 6.6466689E-02
779.1006, 6.8901189E-02
781.0291, 7.1561277E-02
782.9575, 7.4393809E-02
784.8860, 7.7278219E-02
786.8145, 7.9939470E-02
788.7429, 8.3749481E-02
790.6714, 8.8481732E-02
792.5999, 9.3046978E-02
794.5283, 9.8252617E-02
796.4568, 0.1044430
798.3853, 0.1112531
800.3137, 0.1180780
802.2422, 0.1251991
804.1707, 0.1332975
806.0991, 0.1422518
808.0276, 0.1521083
809.9561, 0.1630623
811.8845, 0.1751294
813.8130, 0.1882697
815.7415, 0.2013031
817.6699, 0.2144568
819.5984, 0.2274085
821.5269, 0.2389050
823.4553, 0.2489627
825.3838, 0.2577074
827.3123, 0.2657473
829.2407, 0.2721331
831.1692, 0.2760497
833.0977, 0.2778980
835.0261, 0.2766191
836.9546, 0.2736309
838.8831, 0.2716558
840.8115, 0.2712902
842.7400, 0.2732407
844.6685, 0.2783990
846.5969, 0.2860068
848.5254, 0.2952665
850.4539, 0.3051071
852.3823, 0.3142174
854.3108, 0.3214466
856.2393, 0.3254300
858.1677, 0.3270701
860.0962, 0.3277997
862.0247, 0.3303722
863.9531, 0.3362011
865.8816, 0.3450775
867.8101, 0.3561099
869.7385, 0.3671550
871.6670, 0.3755016
873.5955, 0.3785129
875.5239, 0.3765782
877.4524, 0.3710850
879.3809, 0.3632819
881.3093, 0.3536385
883.2378, 0.3434646
885.1663, 0.3331026
887.0947, 0.3232252
889.0232, 0.3145670
890.9517, 0.3067276
892.8801, 0.2995460
894.8085, 0.2930797
896.7370, 0.2871220
898.6655, 0.2813016
900.5939, 0.2752635
902.5224, 0.2681195
904.4509, 0.2609870
906.3793, 0.2542559
908.3078, 0.2486881
910.2363, 0.2462270
912.1647, 0.2459359
914.0932, 0.2471049
916.0217, 0.2504535
917.9501, 0.2560858
919.8786, 0.2632104
921.8071, 0.2720355
923.7355, 0.2832798
925.6640, 0.2957474
927.5925, 0.3086707
929.5209, 0.3217227
931.4494, 0.3336920
933.3779, 0.3438679
935.3063, 0.3520163
937.2348, 0.3573176
939.1633, 0.3603663
941.0917, 0.3612137
943.0202, 0.3586240
944.9487, 0.3524952
946.8771, 0.3430802
948.8056, 0.3297250
950.7341, 0.3129178
952.6625, 0.2950087
954.5910, 0.2772343
956.5195, 0.2597184
958.4479, 0.2424718
960.3764, 0.2261424
962.3049, 0.2114232
964.2333, 0.1978194
966.1618, 0.1847637
968.0903, 0.1727078
970.0187, 0.1617233
971.9472, 0.1518815
973.8757, 0.1426134
975.8041, 0.1339927
977.7326, 0.1262462
979.6611, 0.1192445
981.5895, 0.1127909
983.5180, 0.1067814
985.4465, 0.1010308
987.3749, 9.5796511E-02
989.3034, 9.0973817E-02
991.2319, 8.6339980E-02
993.1603, 8.2348801E-02
995.0888, 7.8773320E-02
997.0173, 7.5474419E-02
998.9457, 7.2906002E-02
1000.874, 7.0819162E-02
1002.803, 7.0048511E-02
1004.731, 6.9845013E-02
1006.660, 6.9645584E-02
1008.588, 7.0305549E-02
1010.517, 7.1984388E-02
1012.445, 7.4505247E-02
1014.373, 7.8275487E-02
1016.302, 8.3854891E-02
1018.230, 9.1340587E-02
1020.159, 0.1004897
1022.087, 0.1113854
1024.016, 0.1242618
1025.944, 0.1382917
1027.873, 0.1513856
1029.801, 0.1605894
1031.730, 0.1641037
1033.658, 0.1623812
1035.587, 0.1568404
1037.515, 0.1492319
1039.444, 0.1409761
1041.372, 0.1328064
1043.301, 0.1253980
1045.229, 0.1190584
1047.157, 0.1140387
1049.086, 0.1104515
1051.014, 0.1083574
1052.943, 0.1080736
1054.871, 0.1098204
1056.800, 0.1136333
1058.728, 0.1192314
1060.657, 0.1267839
1062.585, 0.1355627
1064.514, 0.1443117
1066.442, 0.1521903
1068.371, 0.1584480
1070.299, 0.1624854
1072.228, 0.1638455
1074.156, 0.1628962
1076.084, 0.1605236
1078.013, 0.1571069
1079.941, 0.1525770
1081.870, 0.1472456
1083.798, 0.1417421
1085.727, 0.1369082
1087.655, 0.1330205
1089.584, 0.1303207
1091.512, 0.1282854
1093.441, 0.1282397
1095.369, 0.1299219
1097.298, 0.1320798
1099.226, 0.1341506
1101.155, 0.1359567
1103.083, 0.1359800
1105.011, 0.1345442
1106.940, 0.1320433
1108.868, 0.1283453
1110.797, 0.1240504
1112.725, 0.1187546
1114.654, 0.1127310
1116.582, 0.1061142
1118.511, 9.9111497E-02
1120.439, 9.2030257E-02
1122.368, 8.4896043E-02
1124.296, 7.7822648E-02
1126.225, 7.0870943E-02
1128.153, 6.4171433E-02
1130.082, 5.7904150E-02
1132.010, 5.1868919E-02
1133.938, 4.6353921E-02
1135.867, 4.1240182E-02
1137.795, 3.6541939E-02
1139.724, 3.2482568E-02
1141.652, 2.9401399E-02
1143.581, 2.7180420E-02
1145.509, 2.4990240E-02
1147.438, 2.3141710E-02
1149.366, 2.1552861E-02
1151.295, 2.0441441E-02
1153.223, 1.9493200E-02
1155.152, 1.8393081E-02
1157.080, 1.7282160E-02
1159.009, 1.6182991E-02
1160.937, 1.5539630E-02
1162.865, 1.5186310E-02
1164.794, 1.4549240E-02
1166.722, 1.3711130E-02
1168.651, 1.2988990E-02
1170.579, 1.2278580E-02
1172.508, 1.1804220E-02
1174.436, 1.1541980E-02
1176.365, 1.1156540E-02
1178.293, 1.0615490E-02
1180.222, 1.0269710E-02
1182.150, 9.9839466E-03
1184.079, 9.6113030E-03
1186.007, 9.5593370E-03
1187.936, 9.3704602E-03
1189.864, 8.8629723E-03
1191.792, 8.5185235E-03
1193.721, 8.3755972E-03
1195.649, 7.8667104E-03
1197.578, 7.5411838E-03
1199.506, 7.3572239E-03
1201.435, 7.1159648E-03
1203.363, 6.9638728E-03
1205.292, 6.7850938E-03
1207.220, 6.4624790E-03
1209.149, 6.0165292E-03
1211.077, 5.6452421E-03
1213.006, 5.5652680E-03
1214.934, 5.5725290E-03
1216.863, 5.3037941E-03
1218.791, 4.8669511E-03
1220.719, 4.5771091E-03
1222.648, 4.6398751E-03
1224.576, 4.7503500E-03
1226.505, 4.6650069E-03
1228.433, 4.3940609E-03
1230.362, 4.2737988E-03
1232.290, 4.3388228E-03
1234.219, 4.3141162E-03
1236.147, 4.3571522E-03
1238.076, 4.2373710E-03
1240.004, 4.1400380E-03
1241.933, 4.0729600E-03
1243.861, 3.8896650E-03
1245.790, 4.0026000E-03
1247.718, 4.0011741E-03
1249.646, 4.1219960E-03
1251.575, 4.1140248E-03
1253.503, 4.0311492E-03
1255.432, 3.9240471E-03
1257.360, 3.8700299E-03
1259.289, 3.8850000E-03
1261.217, 3.7172840E-03
1263.146, 3.7361570E-03
1265.074, 3.7109260E-03
1267.003, 3.5832101E-03
1268.931, 3.5569679E-03
1270.860, 3.4042711E-03
1272.788, 3.6299231E-03
1274.717, 3.8206910E-03
1276.645, 3.8450421E-03
1278.573, 3.9956970E-03
1280.502, 3.9940742E-03
1282.430, 3.9029031E-03
1284.359, 3.7556279E-03
1286.287, 3.5589079E-03
1288.216, 3.4414870E-03
1290.144, 3.4696930E-03
1292.073, 3.6422610E-03
1294.001, 3.6731591E-03
1295.930, 3.7405719E-03
1297.858, 3.9486419E-03
1299.787, 4.0835501E-03
1301.715, 3.8815930E-03
1303.644, 3.7443140E-03
1305.572, 3.9427499E-03
1307.500, 3.9497088E-03
1309.429, 4.1309311E-03
1311.357, 4.2114239E-03
1313.286, 4.0715262E-03
1315.214, 4.1094571E-03
1317.143, 4.0408052E-03
1319.071, 4.1728849E-03
1321.000, 4.0242942E-03
1322.928, 4.1785068E-03
1324.857, 4.5067738E-03
1326.785, 4.4044368E-03
1328.714, 4.1881329E-03
1330.642, 4.3692160E-03
1332.571, 4.6281200E-03
1334.499, 4.6584420E-03
1336.427, 4.6087080E-03
1338.356, 4.5507280E-03
1340.284, 4.6060290E-03
1342.213, 4.7332072E-03
1344.141, 4.5636669E-03
1346.070, 4.4677360E-03
1347.998, 4.5318841E-03
1349.927, 4.7000782E-03
1351.855, 4.8807920E-03
1353.784, 4.8909662E-03
1355.712, 5.0867088E-03
1357.641, 5.3633051E-03
1359.569, 5.4226578E-03
1361.498, 5.4028970E-03
1363.426, 5.3409832E-03
1365.354, 5.2736760E-03
1367.283, 5.3840228E-03
1369.211, 5.5472930E-03
1371.140, 5.6500370E-03
1373.068, 5.7951440E-03
1374.997, 5.6970231E-03
1376.925, 5.5576381E-03
1378.854, 5.7253661E-03
1380.782, 5.9685279E-03
1382.711, 6.1027398E-03
1384.639, 6.5248581E-03
1386.568, 7.0907851E-03
1388.496, 7.1778339E-03
1390.424, 7.5186300E-03
1392.353, 7.9235779E-03
1394.281, 8.2270317E-03
1396.210, 8.3658826E-03
1398.138, 8.5103763E-03
1400.067, 8.9465585E-03
1401.995, 9.3956226E-03
1403.924, 9.7210342E-03
1405.852, 9.8849153E-03
1407.781, 9.9711046E-03
1409.709, 1.0237970E-02
1411.638, 1.0809130E-02
1413.566, 1.0964010E-02
1415.495, 1.1073420E-02
1417.423, 1.1556400E-02
1419.351, 1.2061630E-02
1421.280, 1.2098860E-02
1423.208, 1.2159760E-02
1425.137, 1.2139350E-02
1427.065, 1.2189920E-02
1428.994, 1.2236710E-02
1430.922, 1.2105130E-02
1432.851, 1.1998590E-02
1434.779, 1.2193410E-02
1436.708, 1.2405810E-02
1438.636, 1.2150800E-02
1440.565, 1.1926320E-02
1442.493, 1.1951440E-02
1444.422, 1.2023130E-02
1446.350, 1.1862220E-02
1448.278, 1.1920200E-02
1450.207, 1.1662330E-02
1452.135, 1.1578350E-02
1454.064, 1.1481800E-02
1455.992, 1.1141790E-02
1457.921, 1.0793070E-02
1459.849, 1.0611990E-02
1461.778, 1.0521160E-02
1463.706, 1.0088610E-02
1465.635, 9.6737808E-03
1467.563, 9.5897000E-03
1469.492, 1.0173600E-02
1471.420, 1.1317310E-02
1473.349, 1.1944020E-02
1475.277, 1.2141060E-02
1477.205, 1.2125410E-02
1479.134, 1.1948730E-02
1481.062, 1.2221830E-02
1482.991, 1.2332110E-02
1484.919, 1.2531380E-02
1486.848, 1.2578800E-02
1488.776, 1.2334760E-02
1490.705, 1.2162880E-02
1492.633, 1.2091590E-02
1494.562, 1.1907140E-02
1496.490, 1.1795410E-02
1498.419, 1.1788820E-02
1500.347, 1.1773160E-02
1502.276, 1.1543130E-02
1504.204, 1.1639780E-02
1506.132, 1.2084570E-02
1508.061, 1.2121320E-02
1509.989, 1.1670750E-02
1511.918, 1.1243420E-02
1513.846, 1.0838910E-02
1515.775, 1.0755460E-02
1517.703, 1.1127210E-02
1519.632, 1.1559090E-02
1521.560, 1.1550720E-02
1523.489, 1.1129890E-02
1525.417, 1.0907420E-02
1527.346, 1.0926620E-02
1529.274, 1.0736500E-02
1531.203, 1.0637080E-02
1533.131, 1.0992530E-02
1535.059, 1.1036510E-02
1536.988, 1.1107440E-02
1538.916, 1.1381590E-02
1540.845, 1.1170040E-02
1542.773, 1.0833350E-02
1544.702, 1.0834000E-02
1546.630, 1.0967010E-02
1548.559, 1.1240620E-02
1550.487, 1.1435960E-02
1552.416, 1.1451180E-02
1554.344, 1.1432300E-02
1556.273, 1.1636000E-02
1558.201, 1.2064560E-02
1560.130, 1.1859930E-02
1562.058, 1.1314820E-02
1563.986, 1.1252180E-02
1565.915, 1.1465320E-02
1567.843, 1.1436910E-02
1569.772, 1.1355990E-02
1571.700, 1.1238000E-02
1573.629, 1.1331890E-02
1575.557, 1.1522280E-02
1577.486, 1.1790670E-02
1579.414, 1.1697180E-02
1581.343, 1.1544930E-02
1583.271, 1.1701190E-02
1585.200, 1.1993320E-02
1587.128, 1.1847010E-02
1589.057, 1.1944650E-02
1590.985, 1.1841160E-02
1592.913, 1.1856100E-02
1594.842, 1.2116120E-02
1596.770, 1.2020510E-02
1598.699, 1.1895020E-02
1600.627, 1.1562970E-02
1602.556, 1.1015200E-02
1604.484, 1.1248590E-02
1606.413, 1.1706790E-02
1608.341, 1.1761920E-02
1610.270, 1.1766040E-02
1612.198, 1.1699030E-02
1614.127, 1.1608180E-02
1616.055, 1.1564940E-02
1617.984, 1.1454060E-02
1619.912, 1.1534600E-02
1621.840, 1.1749270E-02
1623.769, 1.1708320E-02
1625.697, 1.1581270E-02
1627.626, 1.1582230E-02
1629.554, 1.1590470E-02
1631.483, 1.1785930E-02
1633.411, 1.2105890E-02
1635.340, 1.2500930E-02
1637.268, 1.2485360E-02
1639.197, 1.2238050E-02
1641.125, 1.2100890E-02
1643.054, 1.2130950E-02
1644.982, 1.2371690E-02
1646.911, 1.2366650E-02
1648.839, 1.2219560E-02
1650.767, 1.2596150E-02
1652.696, 1.3110110E-02
1654.624, 1.2781430E-02
1656.553, 1.2483510E-02
1658.481, 1.2308800E-02
1660.410, 1.2173370E-02
1662.338, 1.2286270E-02
1664.267, 1.1954300E-02
1666.195, 1.1875380E-02
1668.124, 1.2039670E-02
1670.052, 1.2020000E-02
1671.981, 1.1805230E-02
1673.909, 1.1978120E-02
1675.838, 1.2391860E-02
1677.766, 1.2030750E-02
1679.694, 1.1430480E-02
1681.623, 1.1247340E-02
1683.551, 1.1648730E-02
1685.480, 1.1788220E-02
1687.408, 1.1518860E-02
1689.337, 1.1266880E-02
1691.265, 1.1159450E-02
1693.194, 1.1093460E-02
1695.122, 1.0949650E-02
1697.051, 1.0692770E-02
1698.979, 1.0553520E-02
1700.908, 9.9767130E-03
1702.836, 9.6122716E-03
1704.765, 9.6870810E-03
1706.693, 9.3902601E-03
1708.621, 8.8237301E-03
1710.550, 8.2302680E-03
1712.478, 8.2237683E-03
1714.407, 8.4599396E-03
1716.335, 8.7096933E-03
1718.264, 8.4219100E-03
1720.192, 7.7534318E-03
1722.121, 7.6887882E-03
1724.049, 7.4753440E-03
1725.978, 6.8079019E-03
1727.906, 6.3040862E-03
1729.835, 5.6296811E-03
1731.763, 4.7615399E-03
1733.692, 4.4818982E-03
1735.620, 4.0399390E-03
1737.548, 3.0642650E-03
1739.477, 2.2128830E-03
1741.405, 1.8338440E-03
1743.334, 1.4971551E-03
1745.262, 1.4424350E-03
1747.191, 2.2387791E-03
1749.119, 3.5391641E-03
1751.048, 4.6774242E-03
1752.976, 5.7159378E-03
1754.905, 6.8037738E-03
1756.833, 7.6998100E-03
1758.762, 8.2754707E-03
1760.690, 9.0341801E-03
1762.619, 9.3922336E-03
1764.547, 9.5801540E-03
1766.475, 9.9939816E-03
1768.404, 1.0058910E-02
1770.332, 9.7961901E-03
1772.261, 1.0050450E-02
1774.189, 1.0257180E-02
1776.118, 1.0415950E-02
1778.046, 1.0573690E-02
1779.975, 1.0444070E-02
1781.903, 1.0104830E-02
1783.832, 1.0076370E-02
1785.760, 9.8165413E-03
1787.689, 1.0109980E-02
1789.617, 1.0381290E-02
1791.546, 1.0257370E-02
1793.474, 1.0777200E-02
1795.402, 1.0692830E-02
1797.331, 1.0404310E-02
1799.259, 1.0586230E-02
1801.188, 1.0660670E-02
1803.116, 1.0542550E-02
1805.045, 1.0690170E-02
1806.973, 1.0489550E-02
1808.902, 1.0389230E-02
1810.830, 1.0404810E-02
1812.759, 9.9546742E-03
1814.687, 9.6313376E-03
1816.616, 9.9381832E-03
1818.544, 1.0261520E-02
1820.473, 1.0174880E-02
1822.401, 9.7772386E-03
1824.329, 9.7465217E-03
1826.258, 1.0414730E-02
1828.186, 1.0726770E-02
1830.115, 1.0405200E-02
1832.043, 1.0067580E-02
1833.972, 9.7945305E-03
1835.900, 9.7674495E-03
1837.829, 1.0117260E-02
1839.757, 1.0046080E-02
1841.686, 9.4863279E-03
1843.614, 9.7995214E-03
1845.543, 1.0103180E-02
1847.471, 1.0406520E-02
1849.400, 1.0446430E-02
1851.328, 9.4942190E-03
1853.256, 8.9704813E-03
1855.185, 9.3354424E-03
1857.113, 9.2495969E-03
1859.042, 9.3364054E-03
1860.970, 9.6345190E-03
1862.899, 9.8497914E-03
1864.827, 9.6978210E-03
1866.756, 9.6988995E-03
1868.684, 9.8102493E-03
1870.613, 9.7692469E-03
1872.541, 1.0230250E-02
1874.470, 1.0083940E-02
1876.398, 9.2906831E-03
1878.327, 9.2538390E-03
1880.255, 9.6643791E-03
1882.183, 1.0030980E-02
1884.112, 1.0126840E-02
1886.040, 9.2723751E-03
1887.969, 9.3018496E-03
1889.897, 1.0153620E-02
1891.826, 1.0751050E-02
1893.754, 1.1372230E-02
1895.683, 1.0790340E-02
1897.611, 9.4965864E-03
1899.540, 9.1545414E-03
1901.468, 8.8866968E-03
1903.397, 8.8066561E-03
1905.325, 8.8749854E-03
1907.254, 8.2990667E-03
1909.182, 8.8683339E-03
1911.110, 9.6603632E-03
1913.039, 9.6917870E-03
1914.967, 1.0163760E-02
1916.896, 1.1641680E-02
1918.824, 1.0811460E-02
1920.753, 9.4610564E-03
1922.681, 1.0214050E-02
1924.610, 1.1129590E-02
1926.538, 1.1047850E-02
1928.467, 1.0329330E-02
1930.395, 9.4038863E-03
1932.324, 9.0195769E-03
1934.252, 1.0466090E-02
1936.181, 1.0270700E-02
1938.109, 9.5018623E-03
1940.037, 1.0102020E-02
1941.966, 1.0871590E-02
1943.894, 1.0892500E-02
1945.823, 1.0911400E-02
1947.751, 1.1211220E-02
1949.680, 1.0588030E-02
1951.608, 9.1224043E-03
1953.537, 8.5025523E-03
1955.465, 9.2421500E-03
1957.394, 9.3285702E-03
1959.322, 7.9227621E-03
1961.251, 8.2440833E-03
1963.179, 8.8008000E-03
1965.108, 9.2875250E-03
1967.036, 9.4201239E-03
1968.964, 9.4117476E-03
1970.893, 1.0322770E-02
1972.821, 1.0572010E-02
1974.750, 1.0094530E-02
1976.678, 1.0856290E-02
1978.607, 1.3947950E-02
1980.535, 1.4063200E-02
1982.464, 1.2726730E-02
1984.392, 1.0380560E-02
1986.321, 1.0005850E-02
1988.249, 1.1809970E-02
1990.178, 1.2940760E-02
1992.106, 1.3785870E-02
1994.035, 1.3108040E-02
1995.963, 1.2964550E-02
1997.891, 1.3615540E-02
1999.820, 1.3355850E-02
2001.748, 1.0637780E-02
2003.677, 1.1734240E-02
2005.605, 1.1186730E-02
2007.534, 1.0429650E-02
2009.462, 1.1990990E-02
2011.391, 1.3483480E-02
2013.319, 1.3890380E-02
2015.248, 1.4274660E-02
2017.176, 1.4808730E-02
2019.105, 1.5621100E-02
2021.033, 1.4459740E-02
2022.962, 1.3337600E-02
2024.890, 1.3676590E-02
2026.818, 1.3648350E-02
2028.747, 1.2831890E-02
2030.675, 1.2302450E-02
2032.604, 1.2750580E-02
2034.532, 1.3778350E-02
2036.461, 1.3317880E-02
2038.389, 1.2092050E-02
2040.318, 1.2717150E-02
2042.246, 1.5078250E-02
2044.175, 1.5578120E-02
2046.103, 1.3491620E-02
2048.032, 1.1313400E-02
2049.960, 9.7746700E-03
2051.889, 1.0061060E-02
2053.817, 1.1473350E-02
2055.746, 1.2426230E-02
2057.674, 1.2009420E-02
2059.603, 1.1491020E-02
2061.531, 1.0962600E-02
2063.459, 1.1356870E-02
2065.388, 1.3224970E-02
2067.316, 1.5652630E-02
2069.245, 1.5019390E-02
2071.173, 1.2043560E-02
2073.102, 1.0983250E-02
2075.030, 1.1910540E-02
2076.959, 1.3179010E-02
2078.887, 1.2953080E-02
2080.816, 1.2090400E-02
2082.744, 1.2731140E-02
2084.673, 1.4039760E-02
2086.601, 1.3453140E-02
2088.530, 1.3729280E-02
2090.458, 1.3458470E-02
2092.386, 1.3182920E-02
2094.315, 1.4202030E-02
2096.243, 1.5148260E-02
2098.172, 1.5327760E-02
2100.100, 1.4405820E-02
2102.029, 1.3262190E-02
2103.957, 1.2137050E-02
2105.886, 1.2603300E-02
2107.814, 1.4635350E-02
2109.743, 1.6385820E-02
2111.671, 1.4756200E-02
2113.600, 1.2507610E-02
2115.528, 1.2322070E-02
2117.457, 1.3348780E-02
2119.385, 1.4346080E-02
2121.313, 1.2775020E-02
2123.242, 1.1123990E-02
2125.170, 1.1463270E-02
2127.099, 1.2569490E-02
2129.027, 1.2114330E-02
2130.956, 9.6045826E-03
2132.884, 8.8076396E-03
2134.813, 9.5347743E-03
2136.741, 1.1606050E-02
2138.670, 1.0510870E-02
2140.598, 8.8740792E-03
2142.527, 9.0123098E-03
2144.455, 8.5047111E-03
2146.384, 7.4361321E-03
2148.312, 7.2153141E-03
2150.240, 7.4013071E-03
2152.169, 8.3462000E-03
2154.097, 7.9291081E-03
2156.026, 4.9972441E-03
2157.954, 6.0844142E-03
2159.883, 1.3146850E-02
2161.811, 1.5552090E-02
2163.740, 1.2471740E-02
2165.668, 1.3636700E-02
2167.597, 1.1081480E-02
2169.525, 8.1825294E-03
2171.454, 1.1350940E-02
2173.382, 1.4778510E-02
2175.311, 1.5693760E-02
2177.239, 1.7498130E-02
2179.167, 1.4366670E-02
2181.096, 1.0908850E-02
2183.024, 1.2515320E-02
2184.953, 1.2553810E-02
2186.881, 1.1369910E-02
2188.810, 1.2062050E-02
2190.738, 1.2716370E-02
2192.667, 1.2250640E-02
2194.595, 1.3295830E-02
2196.524, 1.3588880E-02
2198.452, 1.4295990E-02
2200.381, 1.5407210E-02
2202.309, 1.5983369E-02
2204.238, 1.5678590E-02
2206.166, 1.5878391E-02
2208.094, 1.4703870E-02
2210.023, 1.4718800E-02
2211.951, 1.5865929E-02
2213.880, 1.5620420E-02
2215.808, 1.4286490E-02
2217.737, 1.2956500E-02
2219.665, 1.4814010E-02
2221.594, 1.6662549E-02
2223.522, 1.5437560E-02
2225.451, 1.4165920E-02
2227.379, 1.3461290E-02
2229.308, 1.3458790E-02
2231.236, 1.2383600E-02
2233.165, 1.2318470E-02
2235.093, 1.3933870E-02
2237.021, 1.6142970E-02
2238.950, 1.6237371E-02
2240.878, 1.5230830E-02
2242.807, 1.3699150E-02
2244.735, 1.4196140E-02
2246.664, 1.4650310E-02
2248.592, 1.5731771E-02
2250.521, 1.6136440E-02
2252.449, 1.5179020E-02
2254.378, 1.4463220E-02
2256.306, 1.5863920E-02
2258.235, 1.7308259E-02
2260.163, 1.8172281E-02
2262.092, 1.8034101E-02
2264.020, 1.7192580E-02
2265.948, 1.7804271E-02
2267.877, 1.8584879E-02
2269.805, 1.9631879E-02
2271.734, 2.0057300E-02
2273.662, 2.0237260E-02
2275.591, 1.9171409E-02
2277.519, 1.9184429E-02
2279.448, 2.0784499E-02
2281.376, 2.0986820E-02
2283.305, 2.0513680E-02
2285.233, 2.1716829E-02
2287.162, 2.2101991E-02
2289.090, 2.0734170E-02
2291.019, 2.0242831E-02
2292.947, 2.0200331E-02
2294.875, 2.0365151E-02
2296.804, 1.9763861E-02
2298.732, 2.0137349E-02
2300.661, 2.0086961E-02
2302.589, 1.9761121E-02
2304.518, 2.1170929E-02
2306.446, 2.1522621E-02
2308.375, 2.0671770E-02
2310.303, 2.0227309E-02
2312.232, 2.0210110E-02
2314.160, 2.0603430E-02
2316.089, 1.9969730E-02
2318.017, 1.9898690E-02
2319.946, 2.1785419E-02
2321.874, 2.2725940E-02
2323.802, 2.1876549E-02
2325.731, 2.0653119E-02
2327.659, 2.0299550E-02
2329.588, 2.0294320E-02
2331.516, 1.9446621E-02
2333.445, 1.9374510E-02
2335.373, 1.9518860E-02
2337.302, 1.9718319E-02
2339.230, 2.0041419E-02
2341.159, 2.0270159E-02
2343.087, 2.0014610E-02
2345.016, 1.9468131E-02
2346.944, 1.9937949E-02
2348.873, 1.9939341E-02
2350.801, 1.9815279E-02
2352.729, 1.9588910E-02
2354.658, 1.9438051E-02
2356.586, 2.0025119E-02
2358.515, 2.0165520E-02
2360.443, 1.9903500E-02
2362.372, 1.9500690E-02
2364.300, 1.9250611E-02
2366.229, 1.9254809E-02
2368.157, 1.9574109E-02
2370.086, 1.8872431E-02
2372.014, 1.9298680E-02
2373.942, 1.9579921E-02
2375.871, 1.9382520E-02
2377.799, 1.9883661E-02
2379.728, 2.0163311E-02
2381.656, 1.9929340E-02
2383.585, 2.0124000E-02
2385.513, 2.0439889E-02
2387.442, 2.0996310E-02
2389.370, 2.1678699E-02
2391.299, 2.2081630E-02
2393.227, 2.0915380E-02
2395.156, 2.0868910E-02
2397.084, 2.1673020E-02
2399.012, 2.1612059E-02
2400.941, 2.0650620E-02
2402.869, 2.0509429E-02
2404.798, 2.1588361E-02
2406.726, 2.1954499E-02
2408.655, 2.1799890E-02
2410.583, 2.2541709E-02
2412.512, 2.2284370E-02
2414.440, 2.1258160E-02
2416.369, 2.1452039E-02
2418.297, 2.2624649E-02
2420.226, 2.2276411E-02
2422.154, 2.1811280E-02
2424.083, 2.2396909E-02
2426.011, 2.2282450E-02
2427.939, 2.1797920E-02
2429.868, 2.2151951E-02
2431.796, 2.2775570E-02
2433.725, 2.1527780E-02
2435.653, 2.0735919E-02
2437.582, 2.1779770E-02
2439.510, 2.2361450E-02
2441.439, 2.1501319E-02
2443.367, 2.0282330E-02
2445.296, 2.1136999E-02
2447.224, 2.1483840E-02
2449.153, 2.1874219E-02
2451.081, 2.2383820E-02
2453.010, 2.3124740E-02
2454.938, 2.3796501E-02
2456.866, 2.2890089E-02
2458.795, 2.2829400E-02
2460.723, 2.1701690E-02
2462.652, 2.2111321E-02
2464.580, 2.2958200E-02
2466.509, 2.3016499E-02
2468.437, 2.2683080E-02
2470.366, 2.2003680E-02
2472.294, 2.1572029E-02
2474.223, 2.2232279E-02
2476.151, 2.2693381E-02
2478.080, 2.2461260E-02
2480.008, 2.2048810E-02
2481.937, 2.1747289E-02
2483.865, 2.1656450E-02
2485.793, 2.2429930E-02
2487.722, 2.3498731E-02
2489.650, 2.3124911E-02
2491.579, 2.2835519E-02
2493.507, 2.2367099E-02
2495.436, 2.0946510E-02
2497.364, 2.0944729E-02
2499.293, 2.2271819E-02
2501.221, 2.3011420E-02
2503.150, 2.3136931E-02
2505.078, 2.2428270E-02
2507.007, 2.2178030E-02
2508.935, 2.3133850E-02
2510.864, 2.4275901E-02
2512.792, 2.3710260E-02
2514.720, 2.3088550E-02
2516.649, 2.2233799E-02
2518.577, 2.2072690E-02
2520.506, 2.2498190E-02
2522.434, 2.2928489E-02
2524.363, 2.2672480E-02
2526.291, 2.2565991E-02
2528.220, 2.2665650E-02
2530.148, 2.3327990E-02
2532.077, 2.4037570E-02
2534.005, 2.3131330E-02
2535.934, 2.2326060E-02
2537.862, 2.2210039E-02
2539.791, 2.2522589E-02
2541.719, 2.2577429E-02
2543.647, 2.2244761E-02
2545.576, 2.3193020E-02
2547.504, 2.3453010E-02
2549.433, 2.2848060E-02
2551.361, 2.3528149E-02
2553.290, 2.4394959E-02
2555.218, 2.4857290E-02
2557.147, 2.4859410E-02
2559.075, 2.4113709E-02
2561.004, 2.3598781E-02
2562.932, 2.3811830E-02
2564.861, 2.3446489E-02
2566.789, 2.2604560E-02
2568.718, 2.2568300E-02
2570.646, 2.3044350E-02
2572.574, 2.3565840E-02
2574.503, 2.3207810E-02
2576.431, 2.3091771E-02
2578.360, 2.3682190E-02
2580.288, 2.3531031E-02
2582.217, 2.2870880E-02
2584.145, 2.4110390E-02
2586.074, 2.5565350E-02
2588.002, 2.5516691E-02
2589.931, 2.5037980E-02
2591.859, 2.4535321E-02
2593.788, 2.4716521E-02
2595.716, 2.5017319E-02
2597.645, 2.5924809E-02
2599.573, 2.5878130E-02
2601.501, 2.4380920E-02
2603.430, 2.3776781E-02
2605.358, 2.4358490E-02
2607.287, 2.5242429E-02
2609.215, 2.5313530E-02
2611.144, 2.5416549E-02
2613.072, 2.5738630E-02
2615.001, 2.6231820E-02
2616.929, 2.5945250E-02
2618.858, 2.5218889E-02
2620.786, 2.4845179E-02
2622.715, 2.4276970E-02
2624.643, 2.3608571E-02
2626.572, 2.4253370E-02
2628.500, 2.6297631E-02
2630.428, 2.6691400E-02
2632.357, 2.5927961E-02
2634.285, 2.5627621E-02
2636.214, 2.5465770E-02
2638.142, 2.5298240E-02
2640.071, 2.5750009E-02
2641.999, 2.5976989E-02
2643.928, 2.5232280E-02
2645.856, 2.4650689E-02
2647.785, 2.4736149E-02
2649.713, 2.5839480E-02
2651.642, 2.5816949E-02
2653.570, 2.5436839E-02
2655.499, 2.5981480E-02
2657.427, 2.6292261E-02
2659.355, 2.5977939E-02
2661.284, 2.5681891E-02
2663.212, 2.5336860E-02
2665.141, 2.5306379E-02
2667.069, 2.5347270E-02
2668.998, 2.4990890E-02
2670.926, 2.4526261E-02
2672.855, 2.4730951E-02
2674.783, 2.4203090E-02
2676.712, 2.3741320E-02
2678.640, 2.4484331E-02
2680.569, 2.5310799E-02
2682.497, 2.5978580E-02
2684.426, 2.5897119E-02
2686.354, 2.5812890E-02
2688.282, 2.6110660E-02
2690.211, 2.5873190E-02
2692.139, 2.5855070E-02
2694.068, 2.5185140E-02
2695.996, 2.4976650E-02
2697.925, 2.5151869E-02
2699.853, 2.5046101E-02
2701.782, 2.5406260E-02
2703.710, 2.5724789E-02
2705.639, 2.7248939E-02
2707.567, 2.7048880E-02
2709.496, 2.5724269E-02
2711.424, 2.5164399E-02
2713.353, 2.6805090E-02
2715.281, 2.8891830E-02
2717.209, 2.8697830E-02
2719.138, 2.6916580E-02
2721.066, 2.5794350E-02
2722.995, 2.6483990E-02
2724.923, 2.7487401E-02
2726.852, 2.8351201E-02
2728.780, 2.7617689E-02
2730.709, 2.7140850E-02
2732.637, 2.7583679E-02
2734.566, 2.7271470E-02
2736.494, 2.7897449E-02
2738.423, 2.8435409E-02
2740.351, 2.6995890E-02
2742.280, 2.5890440E-02
2744.208, 2.6323970E-02
2746.136, 2.7351709E-02
2748.065, 2.7587401E-02
2749.993, 2.8254230E-02
2751.922, 2.8356260E-02
2753.850, 2.7997879E-02
2755.779, 2.7334649E-02
2757.707, 2.9078830E-02
2759.636, 2.8363880E-02
2761.564, 2.7259540E-02
2763.493, 2.8510019E-02
2765.421, 2.9022960E-02
2767.350, 2.8443310E-02
2769.278, 2.7446929E-02
2771.207, 2.7275570E-02
2773.135, 2.8015289E-02
2775.063, 2.9247871E-02
2776.992, 2.9197270E-02
2778.920, 2.8707290E-02
2780.849, 2.8732540E-02
2782.777, 2.8347891E-02
2784.706, 2.7708620E-02
2786.634, 2.7632549E-02
2788.563, 2.7306760E-02
2790.491, 2.7639501E-02
2792.420, 2.8216889E-02
2794.348, 2.8719051E-02
2796.277, 2.8418770E-02
2798.205, 2.8042400E-02
2800.134, 2.8928749E-02
2802.062, 2.9352291E-02
2803.990, 2.8323591E-02
2805.919, 2.8614741E-02
2807.847, 3.0017851E-02
2809.776, 3.1115150E-02
2811.704, 3.0718710E-02
2813.633, 2.9175650E-02
2815.561, 2.8766681E-02
2817.490, 2.9023400E-02
2819.418, 2.8627280E-02
2821.347, 2.9308770E-02
2823.275, 3.0738421E-02
2825.204, 3.0657411E-02
2827.132, 2.8548010E-02
2829.061, 2.7782271E-02
2830.989, 2.9205959E-02
2832.917, 3.0248011E-02
2834.846, 2.8801311E-02
2836.774, 2.8537970E-02
2838.703, 3.0323170E-02
2840.631, 3.0151211E-02
2842.560, 2.9252660E-02
2844.488, 2.8343100E-02
2846.417, 2.8330579E-02
2848.345, 2.9132260E-02
2850.274, 2.9330140E-02
2852.202, 2.9922839E-02
2854.131, 2.9501081E-02
2856.059, 2.9099699E-02
2857.988, 3.0704631E-02
2859.916, 3.2389451E-02
2861.844, 3.2625481E-02
2863.773, 3.2041460E-02
2865.701, 3.1568669E-02
2867.630, 3.1092189E-02
2869.558, 3.0461740E-02
2871.487, 3.0748280E-02
2873.415, 3.1382460E-02
2875.344, 3.0683560E-02
2877.272, 2.9995650E-02
2879.201, 3.0908659E-02
2881.129, 3.1419680E-02
2883.058, 3.0374000E-02
2884.986, 3.0540129E-02
2886.915, 3.0911980E-02
2888.843, 3.0163240E-02
2890.771, 3.0025279E-02
2892.700, 3.0524369E-02
2894.628, 3.0634210E-02
2896.557, 3.0639701E-02
2898.485, 3.1407870E-02
2900.414, 3.1754840E-02
2902.342, 2.9145511E-02
2904.271, 2.7607391E-02
2906.199, 2.9563950E-02
2908.128, 3.2157142E-02
2910.056, 3.2037459E-02
2911.985, 3.1120051E-02
2913.913, 3.1936251E-02
2915.842, 3.0745130E-02
2917.770, 3.0455669E-02
2919.698, 3.4055568E-02
2921.627, 3.4464668E-02
2923.555, 3.2028329E-02
2925.484, 3.1232551E-02
2927.412, 3.1021690E-02
2929.341, 3.1912640E-02
2931.269, 3.2881889E-02
2933.198, 3.4731381E-02
2935.126, 3.3576898E-02
2937.055, 3.1862829E-02
2938.983, 3.2428659E-02
2940.912, 3.2953199E-02
2942.840, 3.2953721E-02
2944.769, 3.3123448E-02
2946.697, 3.1806938E-02
2948.625, 3.3006541E-02
2950.554, 3.4191191E-02
2952.482, 3.3661220E-02
2954.411, 3.1863980E-02
2956.339, 3.3445630E-02
2958.268, 3.5540100E-02
2960.196, 3.5158139E-02
2962.125, 3.5553250E-02
2964.053, 3.5930220E-02
2965.982, 3.4361560E-02
2967.910, 3.3913169E-02
2969.839, 3.5936341E-02
2971.767, 3.6575880E-02
2973.696, 3.4019180E-02
2975.624, 3.3851359E-02
2977.552, 3.4815442E-02
2979.481, 3.5817139E-02
2981.409, 3.5092339E-02
2983.338, 3.5063360E-02
2985.266, 3.7078012E-02
2987.195, 3.8036112E-02
2989.123, 3.7426800E-02
2991.052, 3.6425520E-02
2992.980, 3.6396850E-02
2994.909, 3.4721311E-02
2996.837, 3.4041099E-02
2998.766, 3.5845920E-02
3000.694, 3.6280449E-02
3002.623, 3.6602002E-02
3004.551, 3.8851149E-02
3006.479, 3.8992468E-02
3008.408, 3.7857521E-02
3010.336, 3.7295390E-02
3012.265, 3.6351610E-02
3014.193, 3.5848930E-02
3016.122, 3.5109129E-02
3018.050, 3.5438679E-02
3019.979, 3.5838179E-02
3021.907, 3.8135119E-02
3023.836, 4.0162630E-02
3025.764, 4.0963128E-02
3027.693, 3.9601319E-02
3029.621, 3.7590329E-02
3031.550, 3.4393460E-02
3033.478, 3.4622319E-02
3035.406, 3.8136460E-02
3037.335, 3.8254831E-02
3039.263, 3.7102189E-02
3041.192, 3.7771530E-02
3043.120, 3.7808679E-02
3045.049, 3.6064751E-02
3046.977, 3.7881251E-02
3048.906, 3.8494010E-02
3050.834, 3.7101779E-02
3052.763, 3.7086349E-02
3054.691, 3.8610701E-02
3056.620, 3.9652340E-02
3058.548, 3.8157649E-02
3060.477, 3.7602909E-02
3062.405, 3.8155440E-02
3064.333, 3.7621479E-02
3066.262, 3.7457071E-02
3068.190, 3.8260318E-02
3070.119, 3.7066892E-02
3072.047, 3.6633160E-02
3073.976, 3.6012851E-02
3075.904, 3.6323171E-02
3077.833, 3.8331021E-02
3079.761, 3.9420269E-02
3081.690, 3.9610539E-02
3083.618, 3.8917162E-02
3085.547, 4.0716339E-02
3087.475, 4.2092819E-02
3089.404, 4.0209420E-02
3091.332, 3.8219381E-02
3093.260, 3.8940869E-02
3095.189, 3.8932271E-02
3097.117, 3.8450051E-02
3099.046, 3.9565619E-02
3100.974, 4.0776432E-02
3102.903, 4.2085990E-02
3104.831, 4.0166851E-02
3106.760, 4.0729251E-02
3108.688, 4.2288020E-02
3110.617, 4.1839819E-02
3112.545, 4.1522641E-02
3114.474, 3.9828729E-02
3116.402, 3.9448600E-02
3118.331, 4.0825471E-02
3120.259, 4.1872650E-02
3122.188, 4.0989541E-02
3124.116, 4.0211100E-02
3126.044, 4.3095712E-02
3127.973, 4.2417351E-02
3129.901, 4.2506039E-02
3131.830, 4.4734139E-02
3133.758, 4.3344021E-02
3135.687, 4.2713560E-02
3137.615, 4.1892059E-02
3139.544, 4.0292710E-02
3141.472, 4.0510919E-02
3143.401, 4.2213641E-02
3145.329, 4.3954778E-02
3147.258, 4.3872230E-02
3149.186, 4.2121880E-02
3151.115, 4.1377049E-02
3153.043, 4.0833939E-02
3154.971, 4.0035568E-02
3156.900, 4.0065210E-02
3158.828, 4.1759390E-02
3160.757, 4.3198548E-02
3162.685, 4.1687548E-02
3164.614, 4.1096251E-02
3166.542, 4.2460069E-02
3168.471, 4.2444240E-02
3170.399, 4.0389162E-02
3172.328, 4.1722119E-02
3174.256, 4.3875031E-02
3176.185, 4.2961810E-02
3178.113, 4.3513030E-02
3180.042, 4.4307690E-02
3181.970, 4.3923870E-02
3183.898, 4.5238640E-02
3185.827, 4.5897368E-02
3187.755, 4.6158388E-02
3189.684, 4.4792291E-02
3191.612, 4.3409761E-02
3193.541, 4.5237120E-02
3195.469, 4.6938449E-02
3197.398, 4.6827059E-02
3199.326, 4.6202421E-02
3201.255, 4.6611492E-02
3203.183, 4.7354911E-02
3205.112, 4.8100539E-02
3207.040, 4.7670089E-02
3208.969, 4.8211370E-02
3210.897, 4.6928480E-02
3212.825, 4.4336282E-02
3214.754, 4.4413909E-02
3216.682, 4.5337230E-02
3218.611, 4.6290640E-02
3220.539, 4.7247980E-02
3222.468, 4.8539300E-02
3224.396, 4.9479280E-02
3226.325, 5.0443769E-02
3228.253, 4.9333930E-02
3230.182, 4.8060700E-02
3232.110, 4.8638530E-02
3234.039, 4.9283601E-02
3235.967, 4.8249759E-02
3237.896, 4.8700940E-02
3239.824, 5.1222380E-02
3241.752, 5.1327400E-02
3243.681, 4.9610101E-02
3245.609, 4.9602721E-02
3247.538, 4.9639210E-02
3249.466, 5.0227322E-02
3251.395, 5.1047839E-02
3253.323, 5.1345371E-02
3255.252, 5.0670091E-02
3257.180, 4.9927801E-02
3259.109, 5.0008260E-02
3261.037, 5.1521569E-02
3262.966, 5.2603111E-02
3264.894, 5.2277341E-02
3266.823, 5.3528070E-02
3268.751, 5.4159392E-02
3270.679, 5.1529050E-02
3272.608, 4.9652599E-02
3274.536, 5.1289462E-02
3276.465, 5.4980312E-02
3278.393, 5.4585159E-02
3280.322, 5.3192031E-02
3282.250, 5.5504169E-02
3284.179, 5.4697771E-02
3286.107, 5.2669309E-02
3288.036, 5.5135291E-02
3289.964, 5.6281250E-02
3291.893, 5.5192031E-02
3293.821, 5.5291738E-02
3295.750, 5.6756470E-02
3297.678, 5.8814030E-02
3299.606, 5.9259020E-02
3301.535, 6.0694750E-02
3303.463, 5.9892289E-02
3305.392, 6.0477979E-02
3307.320, 6.2193658E-02
3309.249, 6.3001417E-02
3311.177, 6.3020237E-02
3313.106, 6.4119868E-02
3315.034, 6.4398266E-02
3316.963, 6.4190038E-02
3318.891, 6.3836247E-02
3320.820, 6.2959947E-02
3322.748, 6.4399153E-02
3324.677, 6.6032752E-02
3326.605, 6.5784127E-02
3328.533, 6.6565327E-02
3330.462, 6.8298079E-02
3332.390, 6.8916753E-02
3334.319, 6.8452813E-02
3336.247, 7.0140548E-02
3338.176, 7.3557884E-02
3340.104, 7.5720727E-02
3342.033, 7.6396942E-02
3343.961, 7.6809756E-02
3345.890, 7.7461749E-02
3347.818, 8.0575280E-02
3349.747, 8.2247660E-02
3351.675, 8.0796063E-02
3353.604, 8.0811538E-02
3355.532, 8.3220549E-02
3357.460, 8.5123353E-02
3359.389, 8.6459860E-02
3361.317, 8.9217350E-02
3363.246, 9.0846233E-02
3365.174, 9.1498263E-02
3367.103, 9.0725683E-02
3369.031, 8.9406788E-02
3370.960, 9.0849452E-02
3372.888, 9.2103168E-02
3374.817, 9.2665687E-02
3376.745, 9.1282777E-02
3378.674, 8.9859404E-02
3380.602, 9.0625621E-02
3382.531, 8.8364631E-02
3384.459, 8.4316291E-02
3386.387, 8.2940847E-02
3388.316, 8.0608070E-02
3390.244, 7.7275142E-02
3392.173, 7.5088307E-02
3394.101, 7.3453993E-02
3396.030, 6.9361947E-02
3397.958, 6.7534909E-02
3399.887, 6.6826478E-02
3401.815, 6.4830109E-02
3403.744, 6.2352791E-02
3405.672, 5.9685841E-02
3407.601, 5.8518451E-02
3409.529, 5.7693981E-02
3411.458, 5.7617672E-02
3413.386, 5.5671450E-02
3415.314, 5.4536410E-02
3417.243, 5.4273799E-02
3419.171, 5.2751862E-02
3421.100, 5.2939828E-02
3423.028, 5.2734859E-02
3424.957, 5.0384410E-02
3426.885, 4.8190251E-02
3428.814, 4.8399031E-02
3430.742, 5.0128661E-02
3432.671, 4.9902320E-02
3434.599, 4.9992841E-02
3436.528, 5.0873291E-02
3438.456, 4.9917031E-02
3440.385, 4.7680959E-02
3442.313, 4.7358811E-02
3444.241, 4.6394069E-02
3446.170, 4.6489429E-02
3448.098, 4.6475720E-02
3450.027, 4.7034439E-02
3451.955, 4.8136558E-02
3453.884, 4.7451969E-02
3455.812, 4.6675131E-02
3457.741, 4.7819771E-02
3459.669, 4.7093391E-02
3461.598, 4.6310470E-02
3463.526, 4.5950260E-02
3465.455, 4.4770561E-02
3467.383, 4.3900251E-02
3469.312, 4.4431899E-02
3471.240, 4.4602901E-02
3473.168, 4.4318210E-02
3475.097, 4.5833241E-02
3477.025, 4.7635309E-02
3478.954, 4.6838231E-02
3480.882, 4.5460440E-02
3482.811, 4.6968360E-02
3484.739, 4.7564749E-02
3486.668, 4.7337171E-02
3488.596, 4.4117179E-02
3490.525, 4.3218799E-02
3492.453, 4.3276370E-02
3494.382, 4.2214751E-02
3496.310, 4.2372290E-02
3498.239, 4.3695878E-02
3500.167, 4.3310981E-02
3502.095, 4.3720409E-02
3504.024, 4.3342222E-02
3505.952, 4.1984059E-02
3507.881, 4.3117050E-02
3509.809, 4.5042429E-02
3511.738, 4.4870041E-02
3513.666, 4.3568220E-02
3515.595, 4.3113612E-02
3517.523, 4.2248070E-02
3519.452, 4.2952210E-02
3521.380, 4.5742989E-02
3523.309, 4.5120321E-02
3525.237, 4.3855689E-02
3527.166, 4.4662692E-02
3529.094, 4.2524450E-02
3531.022, 4.2263959E-02
3532.951, 4.4076100E-02
3534.879, 4.5165598E-02
3536.808, 4.5635529E-02
3538.736, 4.3656141E-02
3540.665, 4.0915929E-02
3542.593, 4.1858129E-02
3544.522, 4.3502182E-02
3546.450, 4.3106832E-02
3548.379, 4.4215448E-02
3550.307, 4.5536220E-02
3552.236, 4.4600639E-02
3554.164, 4.0618230E-02
3556.093, 3.8871970E-02
3558.021, 4.0521059E-02
3559.949, 4.1774750E-02
3561.878, 4.0787078E-02
3563.806, 4.0524282E-02
3565.735, 4.2480402E-02
3567.663, 4.4232171E-02
3569.592, 4.4362940E-02
3571.520, 4.4933159E-02
3573.449, 4.3118201E-02
3575.377, 4.1341148E-02
3577.306, 4.1319750E-02
3579.234, 4.1245081E-02
3581.163, 4.2151809E-02
3583.091, 4.4914491E-02
3585.020, 4.5014709E-02
3586.948, 4.2236030E-02
3588.876, 3.8997442E-02
3590.805, 3.8539771E-02
3592.733, 3.6776699E-02
3594.662, 3.6890220E-02
3596.590, 4.1803189E-02
3598.519, 4.3790732E-02
3600.447, 4.2161979E-02
3602.376, 4.0569101E-02
3604.304, 3.7766218E-02
3606.233, 3.6474042E-02
3608.161, 3.7742820E-02
3610.090, 4.0456131E-02
3612.018, 4.0208321E-02
3613.947, 3.9495539E-02
3615.875, 3.7303351E-02
3617.803, 3.4514319E-02
3619.732, 3.8775619E-02
3621.660, 4.1628990E-02
3623.589, 4.0403649E-02
3625.517, 3.9664131E-02
3627.446, 3.9564680E-02
3629.374, 3.9935231E-02
3631.303, 4.0010009E-02
3633.231, 3.9674569E-02
3635.160, 3.8684860E-02
3637.088, 3.6821149E-02
3639.017, 3.3971440E-02
3640.945, 3.3818979E-02
3642.874, 3.5341281E-02
3644.802, 3.6651529E-02
3646.730, 3.8143430E-02
3648.659, 3.7231721E-02
3650.587, 3.7555680E-02
3652.516, 3.9151751E-02
3654.444, 3.9452322E-02
3656.373, 3.8324699E-02
3658.301, 3.9738901E-02
3660.230, 4.1194379E-02
3662.158, 4.1029420E-02
3664.087, 4.1170880E-02
3666.015, 4.0639929E-02
3667.944, 3.8067419E-02
3669.872, 3.8747121E-02
3671.801, 4.0319081E-02
3673.729, 3.9273459E-02
3675.657, 3.8537938E-02
3677.586, 3.7366100E-02
3679.514, 3.7341390E-02
3681.443, 3.6330409E-02
3683.371, 3.5514530E-02
3685.300, 3.5899982E-02
3687.228, 3.5249449E-02
3689.157, 3.7167370E-02
3691.085, 4.0571980E-02
3693.014, 3.9990891E-02
3694.942, 3.8894281E-02
3696.871, 4.0620372E-02
3698.799, 4.2087339E-02
3700.728, 4.1136190E-02
3702.656, 3.7464600E-02
3704.584, 3.8487289E-02
3706.513, 4.1052841E-02
3708.441, 3.7750799E-02
3710.370, 3.6507461E-02
3712.298, 3.7850879E-02
3714.227, 3.7411630E-02
3716.155, 3.7714239E-02
3718.084, 3.7070751E-02
3720.012, 3.6204342E-02
3721.941, 3.4211900E-02
3723.869, 3.5272960E-02
3725.798, 3.8788479E-02
3727.726, 3.9775640E-02
3729.655, 3.8236350E-02
3731.583, 3.9219171E-02
3733.511, 3.6741611E-02
3735.440, 3.4516521E-02
3737.368, 3.4816708E-02
3739.297, 3.2651670E-02
3741.225, 3.3021562E-02
3743.154, 3.7810888E-02
3745.082, 4.2518191E-02
3747.011, 4.2341419E-02
3748.939, 4.2260580E-02
3750.868, 4.2020481E-02
3752.796, 3.9090440E-02
3754.725, 3.9138298E-02
3756.653, 4.1917089E-02
3758.582, 4.1181572E-02
3760.510, 3.9043810E-02
3762.438, 3.9706569E-02
3764.367, 4.1071519E-02
3766.295, 4.0933501E-02
3768.224, 4.2393658E-02
3770.152, 4.2983890E-02
3772.081, 4.1274492E-02
3774.009, 3.7485439E-02
3775.938, 3.6226939E-02
3777.866, 3.6718369E-02
3779.795, 3.6098909E-02
3781.723, 3.8058009E-02
3783.652, 3.9774641E-02
3785.580, 3.8180020E-02
3787.509, 3.8490292E-02
3789.437, 4.2337518E-02
3791.365, 4.5304291E-02
3793.294, 4.2570449E-02
3795.222, 4.1075379E-02
3797.151, 4.2996850E-02
3799.079, 4.2036898E-02
3801.008, 3.8144208E-02
3802.936, 3.4555160E-02
3804.865, 3.5960529E-02
3806.793, 3.9974619E-02
3808.722, 3.9794490E-02
3810.650, 4.1041199E-02
3812.579, 4.0089469E-02
3814.507, 3.8248889E-02
3816.436, 3.5927601E-02
3818.364, 3.6783770E-02
3820.292, 3.8200811E-02
3822.221, 3.8495120E-02
3824.149, 4.1066710E-02
3826.078, 4.0796231E-02
3828.006, 3.7924830E-02
3829.935, 3.9164640E-02
3831.863, 4.1192759E-02
3833.792, 3.9646979E-02
3835.720, 3.7549470E-02
3837.649, 4.0063899E-02
3839.577, 4.1091941E-02
3841.506, 3.9669141E-02
3843.434, 3.9479889E-02
3845.363, 3.9013010E-02
3847.291, 4.0039610E-02
3849.219, 4.0397398E-02
3851.148, 4.0212020E-02
3853.076, 4.1820511E-02
3855.005, 4.0900469E-02
3856.933, 3.8753301E-02
3858.862, 3.8830779E-02
3860.790, 4.2442478E-02
3862.719, 4.6079691E-02
3864.647, 4.4720881E-02
3866.576, 4.5186661E-02
3868.504, 4.8186511E-02
3870.433, 4.7782201E-02
3872.361, 4.3873910E-02
3874.290, 4.1924141E-02
3876.218, 4.0510491E-02
3878.146, 4.0611599E-02
3880.075, 4.1820411E-02
3882.003, 4.4072270E-02
3883.932, 4.3508809E-02
3885.860, 4.2258851E-02
3887.789, 4.3571979E-02
3889.717, 4.2131260E-02
3891.646, 4.1640598E-02
3893.574, 4.1769270E-02
3895.503, 3.9389059E-02
3897.431, 4.0735759E-02
3899.360, 4.3110318E-02
3901.288, 4.2587940E-02
3903.217, 4.0335398E-02
3905.145, 4.0373620E-02
3907.073, 4.1661981E-02
3909.002, 4.4963479E-02
3910.930, 4.7172088E-02
3912.859, 4.5475449E-02
3914.787, 4.5509592E-02
3916.716, 4.2833149E-02
3918.644, 3.8301490E-02
3920.573, 3.9359890E-02
3922.501, 4.3450430E-02
3924.430, 4.3448851E-02
3926.358, 4.1861489E-02
3928.287, 4.0223021E-02
3930.215, 4.1638508E-02
3932.144, 4.5154750E-02
3934.072, 4.7263190E-02
3936.000, 4.4242252E-02
3937.929, 4.1750591E-02
3939.857, 4.4000551E-02
3941.786, 4.4203009E-02
3943.714, 4.1879412E-02
3945.643, 4.2056508E-02
3947.571, 4.1274428E-02
3949.500, 3.6736060E-02
3951.428, 3.7261698E-02
3953.357, 3.6319129E-02
3955.285, 3.8543411E-02
3957.214, 4.2792030E-02
3959.142, 4.2419150E-02
3961.071, 4.3077439E-02
3962.999, 4.4306010E-02
3964.927, 4.5673270E-02
3966.856, 4.5873929E-02
3968.784, 4.4098429E-02
3970.713, 4.2180680E-02
3972.641, 4.0943511E-02
3974.570, 3.9192419E-02
3976.498, 4.1183900E-02
3978.427, 4.2584289E-02
3980.355, 4.4426709E-02
3982.284, 4.5335911E-02
3984.212, 4.3122690E-02
3986.141, 4.4034392E-02
3988.069, 4.2994291E-02
3989.998, 4.1200101E-02
3991.926, 3.9907988E-02
3993.854, 4.1217159E-02
3995.783, 4.0995471E-02
3997.711, 4.0570591E-02
3999.640, 4.0590171E-02
##END=



