##NAMES=Epidote
##RRUFFID=R050202
##IDEAL CHEMISTRY=Ca_2_Fe^3+^Al_2_(Si_2_O_7_)(SiO_4_)O(OH)
##LOCALITY=Iron Cap mine, Landsman Camp, Graham County, Arizona, USA
##OWNER=RRUFF
##SOURCE=Bob Downs
##DESCRIPTION=Green colored prismatic single crystal associated with quartz, diopside and tremolite
##STATUS=The identification of this mineral has been confirmed by X-ray diffraction and chemical analysis
##URL=rruff.info/R050202
##MEASURED CHEMISTRY=Ca_2.00_Al_2.00_(Fe^3+^_0.68_Al_0.32_)(SiO_4_)(Si_2_O_7_)O(OH)
5.014013e+001, 1.537416e-002
5.206860e+001, 1.413416e-002
5.399707e+001, 7.808547e-003
5.592553e+001, 9.969409e-003
5.785400e+001, 1.340744e-002
5.978246e+001, 1.697801e-002
6.171093e+001, 1.699837e-002
6.363940e+001, 1.529499e-002
6.556786e+001, 1.366539e-002
6.749633e+001, 1.173182e-002
6.942480e+001, 1.381068e-002
7.135326e+001, 1.556809e-002
7.328172e+001, 1.754213e-002
7.521019e+001, 1.995700e-002
7.713866e+001, 2.303939e-002
7.906712e+001, 2.269927e-002
8.099559e+001, 2.090238e-002
8.292406e+001, 1.974737e-002
8.485252e+001, 1.907578e-002
8.678099e+001, 1.895876e-002
8.870946e+001, 2.019920e-002
9.063792e+001, 2.139896e-002
9.256638e+001, 2.232228e-002
9.449485e+001, 2.386442e-002
9.642332e+001, 2.495834e-002
9.835178e+001, 2.618433e-002
1.002803e+002, 2.729341e-002
1.022087e+002, 2.634259e-002
1.041372e+002, 2.588376e-002
1.060657e+002, 2.721813e-002
1.079941e+002, 2.816589e-002
1.099226e+002, 2.787488e-002
1.118510e+002, 2.710445e-002
1.137795e+002, 2.729041e-002
1.157080e+002, 2.850830e-002
1.176364e+002, 2.918846e-002
1.195649e+002, 2.932726e-002
1.214934e+002, 2.835602e-002
1.234218e+002, 2.816309e-002
1.253503e+002, 2.819410e-002
1.272788e+002, 2.782986e-002
1.292072e+002, 2.781911e-002
1.311357e+002, 2.828033e-002
1.330642e+002, 2.772171e-002
1.349926e+002, 2.787547e-002
1.369211e+002, 2.870467e-002
1.388496e+002, 2.975694e-002
1.407780e+002, 2.999167e-002
1.427065e+002, 2.878067e-002
1.446350e+002, 2.732223e-002
1.465634e+002, 2.697341e-002
1.484919e+002, 2.703411e-002
1.504204e+002, 2.646045e-002
1.523488e+002, 2.604366e-002
1.542773e+002, 2.546241e-002
1.562058e+002, 2.524613e-002
1.581342e+002, 2.577139e-002
1.600627e+002, 2.585271e-002
1.619912e+002, 2.574952e-002
1.639196e+002, 2.632491e-002
1.658481e+002, 2.719935e-002
1.677766e+002, 2.757134e-002
1.697050e+002, 2.758666e-002
1.716335e+002, 2.717830e-002
1.735620e+002, 2.744653e-002
1.754904e+002, 2.817039e-002
1.774189e+002, 2.972759e-002
1.793474e+002, 3.165314e-002
1.812758e+002, 3.307759e-002
1.832043e+002, 3.414201e-002
1.851328e+002, 3.447911e-002
1.870612e+002, 3.409766e-002
1.889897e+002, 3.431727e-002
1.909182e+002, 3.488922e-002
1.928466e+002, 3.542119e-002
1.947751e+002, 3.594984e-002
1.967036e+002, 3.687468e-002
1.986320e+002, 3.781193e-002
2.005605e+002, 3.897538e-002
2.024890e+002, 4.033714e-002
2.044174e+002, 4.079233e-002
2.063459e+002, 4.066636e-002
2.082744e+002, 4.051015e-002
2.102028e+002, 3.978890e-002
2.121313e+002, 3.934366e-002
2.140598e+002, 3.971605e-002
2.159882e+002, 4.047585e-002
2.179167e+002, 4.149224e-002
2.198452e+002, 4.267983e-002
2.217736e+002, 4.357792e-002
2.237021e+002, 4.404591e-002
2.256305e+002, 4.399951e-002
2.275590e+002, 4.407769e-002
2.294875e+002, 4.380779e-002
2.314159e+002, 4.315796e-002
2.333444e+002, 4.214036e-002
2.352729e+002, 4.133644e-002
2.372013e+002, 4.126518e-002
2.391298e+002, 4.206068e-002
2.410583e+002, 4.334576e-002
2.429867e+002, 4.467690e-002
2.449152e+002, 4.570251e-002
2.468437e+002, 4.685018e-002
2.487721e+002, 4.834759e-002
2.507006e+002, 4.941319e-002
2.526291e+002, 4.977197e-002
2.545575e+002, 4.971477e-002
2.564860e+002, 4.971709e-002
2.584145e+002, 4.975501e-002
2.603429e+002, 4.934901e-002
2.622714e+002, 4.952100e-002
2.641999e+002, 4.976857e-002
2.661283e+002, 5.032010e-002
2.680568e+002, 5.131009e-002
2.699853e+002, 5.177544e-002
2.719137e+002, 5.143686e-002
2.738422e+002, 5.066745e-002
2.757707e+002, 5.057876e-002
2.776991e+002, 5.138677e-002
2.796276e+002, 5.236770e-002
2.815561e+002, 5.319357e-002
2.834845e+002, 5.398658e-002
2.854130e+002, 5.471325e-002
2.873415e+002, 5.504368e-002
2.892699e+002, 5.505480e-002
2.911984e+002, 5.467456e-002
2.931269e+002, 5.456545e-002
2.950553e+002, 5.473148e-002
2.969838e+002, 5.435268e-002
2.989123e+002, 5.349432e-002
3.008407e+002, 5.274545e-002
3.027692e+002, 5.236769e-002
3.046977e+002, 5.251046e-002
3.066261e+002, 5.306483e-002
3.085546e+002, 5.408285e-002
3.104831e+002, 5.496719e-002
3.124115e+002, 5.511818e-002
3.143400e+002, 5.450381e-002
3.162685e+002, 5.394825e-002
3.181969e+002, 5.387972e-002
3.201254e+002, 5.454486e-002
3.220539e+002, 5.532078e-002
3.239823e+002, 5.639311e-002
3.259108e+002, 5.758313e-002
3.278392e+002, 5.860777e-002
3.297677e+002, 5.946923e-002
3.316962e+002, 6.045315e-002
3.336246e+002, 6.194950e-002
3.355531e+002, 6.352464e-002
3.374816e+002, 6.434758e-002
3.394100e+002, 6.456859e-002
3.413385e+002, 6.505300e-002
3.432670e+002, 6.533033e-002
3.451954e+002, 6.552684e-002
3.471239e+002, 6.620332e-002
3.490524e+002, 6.707971e-002
3.509808e+002, 6.761938e-002
3.529093e+002, 6.742860e-002
3.548378e+002, 6.702004e-002
3.567662e+002, 6.650473e-002
3.586947e+002, 6.598858e-002
3.606232e+002, 6.556234e-002
3.625516e+002, 6.527835e-002
3.644801e+002, 6.532299e-002
3.664086e+002, 6.606910e-002
3.683370e+002, 6.710334e-002
3.702655e+002, 6.839852e-002
3.721940e+002, 6.953400e-002
3.741224e+002, 7.054029e-002
3.760509e+002, 7.158928e-002
3.779794e+002, 7.218896e-002
3.799078e+002, 7.199506e-002
3.818363e+002, 7.180689e-002
3.837648e+002, 7.171924e-002
3.856932e+002, 7.169142e-002
3.876217e+002, 7.205788e-002
3.895502e+002, 7.293737e-002
3.914786e+002, 7.397258e-002
3.934071e+002, 7.499582e-002
3.953356e+002, 7.533362e-002
3.972640e+002, 7.449408e-002
3.991925e+002, 7.316393e-002
4.011210e+002, 7.166058e-002
4.030494e+002, 7.005039e-002
4.049779e+002, 6.912225e-002
4.069064e+002, 6.854680e-002
4.088348e+002, 6.780721e-002
4.107633e+002, 6.732527e-002
4.126917e+002, 6.651177e-002
4.146202e+002, 6.539479e-002
4.165487e+002, 6.492136e-002
4.184771e+002, 6.489024e-002
4.204056e+002, 6.503728e-002
4.223341e+002, 6.505700e-002
4.242625e+002, 6.492354e-002
4.261910e+002, 6.514893e-002
4.281195e+002, 6.559305e-002
4.300479e+002, 6.616058e-002
4.319764e+002, 6.691933e-002
4.339049e+002, 6.758326e-002
4.358333e+002, 6.816296e-002
4.377618e+002, 6.865574e-002
4.396903e+002, 6.973699e-002
4.416187e+002, 7.093023e-002
4.435472e+002, 7.215539e-002
4.454757e+002, 7.345279e-002
4.474041e+002, 7.522875e-002
4.493326e+002, 7.711206e-002
4.512611e+002, 7.846795e-002
4.531895e+002, 7.910176e-002
4.551180e+002, 7.922776e-002
4.570465e+002, 7.872280e-002
4.589749e+002, 7.773703e-002
4.609034e+002, 7.619132e-002
4.628319e+002, 7.478813e-002
4.647603e+002, 7.402429e-002
4.666888e+002, 7.311253e-002
4.686173e+002, 7.218831e-002
4.705457e+002, 7.158887e-002
4.724742e+002, 7.096310e-002
4.744027e+002, 7.033555e-002
4.763311e+002, 6.926562e-002
4.782596e+002, 6.841790e-002
4.801881e+002, 6.833967e-002
4.821165e+002, 6.851026e-002
4.840450e+002, 6.877616e-002
4.859735e+002, 6.873616e-002
4.879019e+002, 6.848027e-002
4.898304e+002, 6.911530e-002
4.917589e+002, 7.060162e-002
4.936873e+002, 7.207405e-002
4.956158e+002, 7.341626e-002
4.975443e+002, 7.515290e-002
4.994727e+002, 7.670739e-002
5.014012e+002, 7.797968e-002
5.033297e+002, 7.907061e-002
5.052581e+002, 8.039042e-002
5.071866e+002, 8.159431e-002
5.091151e+002, 8.259702e-002
5.110435e+002, 8.300357e-002
5.129720e+002, 8.280042e-002
5.149005e+002, 8.302673e-002
5.168289e+002, 8.347451e-002
5.187574e+002, 8.308969e-002
5.206859e+002, 8.238523e-002
5.226143e+002, 8.178406e-002
5.245428e+002, 8.101276e-002
5.264713e+002, 7.967508e-002
5.283997e+002, 7.831565e-002
5.303282e+002, 7.715050e-002
5.322567e+002, 7.600476e-002
5.341851e+002, 7.526320e-002
5.361136e+002, 7.497124e-002
5.380421e+002, 7.433150e-002
5.399705e+002, 7.374565e-002
5.418990e+002, 7.321843e-002
5.438275e+002, 7.265494e-002
5.457559e+002, 7.238067e-002
5.476844e+002, 7.241776e-002
5.496129e+002, 7.262445e-002
5.515413e+002, 7.278061e-002
5.534698e+002, 7.270041e-002
5.553983e+002, 7.312633e-002
5.573267e+002, 7.340412e-002
5.592552e+002, 7.310186e-002
5.611837e+002, 7.271256e-002
5.631121e+002, 7.248718e-002
5.650406e+002, 7.240656e-002
5.669691e+002, 7.198220e-002
5.688975e+002, 7.109128e-002
5.708260e+002, 7.030626e-002
5.727545e+002, 6.975063e-002
5.746829e+002, 6.897505e-002
5.766114e+002, 6.751777e-002
5.785399e+002, 6.649238e-002
5.804683e+002, 6.613851e-002
5.823968e+002, 6.574664e-002
5.843253e+002, 6.504969e-002
5.862537e+002, 6.444553e-002
5.881822e+002, 6.338587e-002
5.901107e+002, 6.217554e-002
5.920391e+002, 6.142061e-002
5.939676e+002, 6.065454e-002
5.958961e+002, 5.984402e-002
5.978245e+002, 5.937547e-002
5.997530e+002, 5.846144e-002
6.016815e+002, 5.736800e-002
6.036099e+002, 5.630929e-002
6.055384e+002, 5.541754e-002
6.074669e+002, 5.530062e-002
6.093953e+002, 5.589345e-002
6.113238e+002, 5.685579e-002
6.132523e+002, 5.784829e-002
6.151807e+002, 5.957266e-002
6.171091e+002, 6.264418e-002
6.190376e+002, 6.555969e-002
6.209661e+002, 6.836969e-002
6.228945e+002, 7.102005e-002
6.248230e+002, 7.379065e-002
6.267515e+002, 7.710496e-002
6.286799e+002, 8.054692e-002
6.306084e+002, 8.308762e-002
6.325369e+002, 8.471267e-002
6.344653e+002, 8.576375e-002
6.363938e+002, 8.688053e-002
6.383223e+002, 8.820708e-002
6.402507e+002, 8.926722e-002
6.421792e+002, 8.983868e-002
6.441077e+002, 9.040643e-002
6.460361e+002, 9.029224e-002
6.479646e+002, 8.937170e-002
6.498931e+002, 8.809483e-002
6.518215e+002, 8.656200e-002
6.537500e+002, 8.503144e-002
6.556785e+002, 8.343528e-002
6.576069e+002, 8.186404e-002
6.595354e+002, 8.013664e-002
6.614639e+002, 7.875385e-002
6.633923e+002, 7.780742e-002
6.653208e+002, 7.691660e-002
6.672493e+002, 7.550030e-002
6.691777e+002, 7.401604e-002
6.711062e+002, 7.318040e-002
6.730347e+002, 7.200085e-002
6.749631e+002, 7.025713e-002
6.768916e+002, 6.896999e-002
6.788201e+002, 6.811647e-002
6.807485e+002, 6.675918e-002
6.826770e+002, 6.536040e-002
6.846055e+002, 6.419462e-002
6.865339e+002, 6.249921e-002
6.884624e+002, 6.071365e-002
6.903909e+002, 6.007981e-002
6.923193e+002, 5.972510e-002
6.942478e+002, 5.864876e-002
6.961763e+002, 5.738556e-002
6.981047e+002, 5.653227e-002
7.000332e+002, 5.469454e-002
##END=



