##NAMES=Epidote
##RRUFFID=R040092
##IDEAL CHEMISTRY=Ca_2_Fe^3+^Al_2_(Si_2_O_7_)(SiO_4_)O(OH)
##LOCALITY=Nahant, Massachusetts, USA
##OWNER=RRUFF
##SOURCE=University of Arizona Mineral Museum
##DESCRIPTION=Green prismatic crystals imbedded in quartz
##STATUS=The identification of this mineral has been confirmed by X-ray diffraction and chemical analysis
##URL=rruff.info/R040092
##MEASURED CHEMISTRY=Ca_2.01_Al_2.00_Fe_1.00_(Si_1.00_O_4_)(Si_1.97_Fe_0.02_Al_0.01_Ti_0.01_O_7_)O(OH)
3.991926e+002, 0.000000e+000
4.011211e+002, 1.847088e-001
4.030496e+002, 1.856122e-001
4.049780e+002, 1.788341e-001
4.069065e+002, 1.689449e-001
4.088350e+002, 1.587974e-001
4.107634e+002, 1.483070e-001
4.126919e+002, 1.457819e-001
4.146204e+002, 1.435978e-001
4.165488e+002, 1.394241e-001
4.184773e+002, 1.375690e-001
4.204058e+002, 1.372487e-001
4.223342e+002, 1.365930e-001
4.242627e+002, 1.374855e-001
4.261912e+002, 1.385534e-001
4.281196e+002, 1.397898e-001
4.300481e+002, 1.411680e-001
4.319766e+002, 1.433890e-001
4.339050e+002, 1.457807e-001
4.358335e+002, 1.496515e-001
4.377620e+002, 1.565083e-001
4.396904e+002, 1.599888e-001
4.416189e+002, 1.649146e-001
4.435474e+002, 1.735468e-001
4.454758e+002, 1.813854e-001
4.474043e+002, 1.876025e-001
4.493328e+002, 1.905977e-001
4.512612e+002, 1.901041e-001
4.531897e+002, 1.857841e-001
4.551182e+002, 1.795618e-001
4.570466e+002, 1.734840e-001
4.589751e+002, 1.687445e-001
4.609036e+002, 1.640926e-001
4.628320e+002, 1.601205e-001
4.647605e+002, 1.562942e-001
4.666890e+002, 1.521367e-001
4.686174e+002, 1.457511e-001
4.705459e+002, 1.381617e-001
4.724744e+002, 1.324779e-001
4.744028e+002, 1.281156e-001
4.763313e+002, 1.259099e-001
4.782598e+002, 1.257793e-001
4.801882e+002, 1.262202e-001
4.821167e+002, 1.278756e-001
4.840452e+002, 1.322571e-001
4.859736e+002, 1.380151e-001
4.879021e+002, 1.445440e-001
4.898306e+002, 1.526377e-001
4.917590e+002, 1.613331e-001
4.936875e+002, 1.693168e-001
4.956160e+002, 1.777898e-001
4.975444e+002, 1.862825e-001
4.994729e+002, 1.939927e-001
5.014014e+002, 2.012652e-001
5.033298e+002, 2.069643e-001
5.052583e+002, 2.102936e-001
5.071868e+002, 2.125881e-001
5.091152e+002, 2.131106e-001
5.110437e+002, 2.111858e-001
5.129722e+002, 2.089416e-001
5.149006e+002, 2.043605e-001
5.168291e+002, 1.986116e-001
5.187576e+002, 1.922792e-001
5.206860e+002, 1.854321e-001
5.226145e+002, 1.794519e-001
5.245430e+002, 1.729722e-001
5.264714e+002, 1.658650e-001
5.283999e+002, 1.594291e-001
5.303284e+002, 1.544721e-001
5.322568e+002, 1.508352e-001
5.341853e+002, 1.477049e-001
5.361138e+002, 1.450439e-001
5.380422e+002, 1.425028e-001
5.399707e+002, 1.408389e-001
5.418992e+002, 1.393757e-001
5.438276e+002, 1.370922e-001
5.457561e+002, 1.355303e-001
5.476846e+002, 1.350613e-001
5.496130e+002, 1.349918e-001
5.515415e+002, 1.346085e-001
5.534700e+002, 1.343607e-001
5.553984e+002, 1.339579e-001
5.573269e+002, 1.330257e-001
5.592554e+002, 1.322106e-001
5.611838e+002, 1.313575e-001
5.631123e+002, 1.301240e-001
5.650408e+002, 1.286864e-001
5.669692e+002, 1.269600e-001
5.688977e+002, 1.246563e-001
5.708262e+002, 1.214043e-001
5.727546e+002, 1.175625e-001
5.746831e+002, 1.138156e-001
5.766116e+002, 1.104808e-001
5.785400e+002, 1.071221e-001
5.804685e+002, 1.033998e-001
5.823970e+002, 1.002647e-001
5.843254e+002, 9.772859e-002
5.862539e+002, 9.535065e-002
5.881824e+002, 9.260980e-002
5.901108e+002, 8.972546e-002
5.920393e+002, 8.747585e-002
5.939678e+002, 8.574125e-002
5.958962e+002, 8.413333e-002
5.978247e+002, 8.265767e-002
5.997532e+002, 8.069393e-002
6.016816e+002, 7.807668e-002
6.036101e+002, 7.587259e-002
6.055386e+002, 7.464287e-002
6.074670e+002, 7.430090e-002
6.093955e+002, 7.522483e-002
6.113240e+002, 7.752475e-002
6.132524e+002, 8.109999e-002
6.151809e+002, 8.615027e-002
6.171094e+002, 9.267300e-002
6.190378e+002, 1.009608e-001
6.209663e+002, 1.100655e-001
6.228948e+002, 1.191162e-001
6.248232e+002, 1.273608e-001
6.267517e+002, 1.339653e-001
6.286802e+002, 1.393173e-001
6.306086e+002, 1.438203e-001
6.325371e+002, 1.482289e-001
6.344656e+002, 1.528690e-001
6.363940e+002, 1.571732e-001
6.383225e+002, 1.609223e-001
6.402510e+002, 1.639333e-001
6.421794e+002, 1.647115e-001
6.441079e+002, 1.632341e-001
6.460364e+002, 1.604106e-001
6.479648e+002, 1.566104e-001
6.498933e+002, 1.514273e-001
6.518218e+002, 1.453250e-001
6.537502e+002, 1.388885e-001
6.556787e+002, 1.324394e-001
6.576072e+002, 1.262883e-001
6.595356e+002, 1.205158e-001
6.614641e+002, 1.151453e-001
6.633926e+002, 1.101911e-001
6.653210e+002, 1.052982e-001
6.672495e+002, 1.007248e-001
6.691780e+002, 9.638532e-002
6.711064e+002, 9.223461e-002
6.730349e+002, 8.837010e-002
6.749634e+002, 8.468390e-002
6.768918e+002, 8.077550e-002
6.788203e+002, 7.664566e-002
6.807488e+002, 7.228555e-002
6.826772e+002, 6.766753e-002
6.846057e+002, 6.322973e-002
6.865342e+002, 5.928192e-002
6.884626e+002, 5.562574e-002
6.903911e+002, 5.226810e-002
6.923196e+002, 4.966623e-002
6.942480e+002, 4.747257e-002
6.961765e+002, 4.517366e-002
6.981050e+002, 4.319611e-002
7.000334e+002, 4.142549e-002
7.019619e+002, 3.984078e-002
7.038904e+002, 3.876513e-002
7.058188e+002, 3.825197e-002
7.077473e+002, 3.849899e-002
7.096758e+002, 3.979249e-002
7.116042e+002, 4.162932e-002
7.135327e+002, 4.313963e-002
7.154612e+002, 4.418292e-002
7.173896e+002, 4.428485e-002
7.193181e+002, 4.275556e-002
7.212466e+002, 4.016945e-002
7.231750e+002, 3.732422e-002
7.251035e+002, 3.441656e-002
7.270320e+002, 3.178962e-002
7.289604e+002, 2.981494e-002
7.308889e+002, 2.831289e-002
7.328174e+002, 2.709235e-002
7.347458e+002, 2.628865e-002
7.366743e+002, 2.597461e-002
7.386028e+002, 2.608560e-002
7.405313e+002, 2.642048e-002
7.424597e+002, 2.686588e-002
7.443882e+002, 2.736448e-002
7.463167e+002, 2.789757e-002
7.482451e+002, 2.864435e-002
7.501736e+002, 2.937666e-002
7.521021e+002, 3.015541e-002
7.540305e+002, 3.134468e-002
7.559590e+002, 3.251088e-002
7.578875e+002, 3.359865e-002
7.598159e+002, 3.520953e-002
7.617444e+002, 3.663856e-002
7.636729e+002, 3.832528e-002
7.656013e+002, 4.044300e-002
7.675298e+002, 4.263446e-002
7.694583e+002, 4.490646e-002
7.713867e+002, 4.730304e-002
7.733152e+002, 5.014402e-002
7.752437e+002, 5.341866e-002
7.771721e+002, 5.628955e-002
7.791006e+002, 5.851981e-002
7.810291e+002, 6.011466e-002
7.829575e+002, 6.125779e-002
7.848860e+002, 6.275961e-002
7.868145e+002, 6.474360e-002
7.887429e+002, 6.744054e-002
7.906714e+002, 7.115591e-002
7.925999e+002, 7.529417e-002
7.945283e+002, 7.994583e-002
7.964568e+002, 8.451893e-002
7.983853e+002, 8.813962e-002
8.003137e+002, 9.099598e-002
8.022422e+002, 9.321719e-002
8.041707e+002, 9.523365e-002
8.060991e+002, 9.717213e-002
8.080276e+002, 9.969122e-002
8.099561e+002, 1.031568e-001
8.118845e+002, 1.076118e-001
8.138130e+002, 1.133151e-001
8.157415e+002, 1.196168e-001
8.176699e+002, 1.262262e-001
8.195984e+002, 1.328266e-001
8.215269e+002, 1.391064e-001
8.234553e+002, 1.452202e-001
8.253838e+002, 1.508961e-001
8.273123e+002, 1.557995e-001
8.292407e+002, 1.597608e-001
8.311692e+002, 1.631434e-001
8.330977e+002, 1.653085e-001
8.350261e+002, 1.656914e-001
8.369546e+002, 1.644713e-001
8.388831e+002, 1.629094e-001
8.408115e+002, 1.619035e-001
8.427400e+002, 1.622676e-001
8.446685e+002, 1.642125e-001
8.465969e+002, 1.677088e-001
8.485254e+002, 1.723609e-001
8.504539e+002, 1.776139e-001
8.523823e+002, 1.829741e-001
8.543108e+002, 1.875026e-001
8.562393e+002, 1.906325e-001
8.581677e+002, 1.925201e-001
8.600962e+002, 1.927175e-001
8.620247e+002, 1.923992e-001
8.639531e+002, 1.939429e-001
8.658816e+002, 1.983735e-001
8.678101e+002, 2.052420e-001
8.697385e+002, 2.128588e-001
8.716670e+002, 2.195713e-001
8.735955e+002, 2.245465e-001
8.755239e+002, 2.273363e-001
8.774524e+002, 2.279446e-001
8.793809e+002, 2.263399e-001
8.813093e+002, 2.231928e-001
8.832378e+002, 2.189631e-001
8.851663e+002, 2.139773e-001
8.870947e+002, 2.084488e-001
8.890232e+002, 2.031466e-001
8.909517e+002, 1.985216e-001
8.928801e+002, 1.944195e-001
8.948085e+002, 1.907818e-001
8.967370e+002, 1.875678e-001
8.986655e+002, 1.845296e-001
9.005939e+002, 1.813107e-001
9.025224e+002, 1.776063e-001
9.044509e+002, 1.731207e-001
9.063793e+002, 1.682353e-001
9.083078e+002, 1.639546e-001
9.102363e+002, 1.607992e-001
9.121647e+002, 1.588239e-001
9.140932e+002, 1.579666e-001
9.160217e+002, 1.582255e-001
9.179501e+002, 1.598412e-001
9.198786e+002, 1.627126e-001
9.218071e+002, 1.667524e-001
9.237355e+002, 1.725211e-001
9.256640e+002, 1.798198e-001
9.275925e+002, 1.880097e-001
9.295209e+002, 1.969284e-001
9.314494e+002, 2.057210e-001
9.333779e+002, 2.139710e-001
9.353063e+002, 2.213449e-001
9.372348e+002, 2.275081e-001
9.391633e+002, 2.325406e-001
9.410917e+002, 2.361511e-001
9.430202e+002, 2.382452e-001
9.449487e+002, 2.382968e-001
9.468771e+002, 2.362379e-001
9.488056e+002, 2.317576e-001
9.507341e+002, 2.249911e-001
9.526625e+002, 2.162624e-001
9.545910e+002, 2.065211e-001
9.565195e+002, 1.961413e-001
9.584479e+002, 1.856432e-001
9.603764e+002, 1.754163e-001
9.623049e+002, 1.652579e-001
9.642333e+002, 1.552049e-001
9.661618e+002, 1.455526e-001
9.680903e+002, 1.363095e-001
9.700187e+002, 1.274820e-001
9.719472e+002, 1.191616e-001
9.738757e+002, 1.116359e-001
9.758041e+002, 1.048282e-001
9.777326e+002, 9.874693e-002
9.796611e+002, 9.337214e-002
9.815895e+002, 8.841272e-002
9.835180e+002, 8.344837e-002
9.854465e+002, 7.879986e-002
9.873749e+002, 7.464841e-002
9.893034e+002, 7.076881e-002
9.912319e+002, 6.703182e-002
9.931603e+002, 6.358945e-002
9.950888e+002, 6.054286e-002
9.970173e+002, 5.780370e-002
9.989457e+002, 5.556212e-002
1.000874e+003, 5.366248e-002
1.002803e+003, 5.237064e-002
1.004731e+003, 5.181733e-002
1.006660e+003, 5.191980e-002
1.008588e+003, 5.215291e-002
1.010517e+003, 5.267075e-002
1.012445e+003, 5.399198e-002
1.014373e+003, 5.625317e-002
1.016302e+003, 5.957798e-002
1.018230e+003, 6.439775e-002
1.020159e+003, 7.061318e-002
1.022087e+003, 7.842192e-002
1.024016e+003, 8.801815e-002
1.025944e+003, 9.888863e-002
1.027873e+003, 1.093017e-001
1.029801e+003, 1.173020e-001
1.031730e+003, 1.215787e-001
1.033658e+003, 1.218041e-001
1.035587e+003, 1.188112e-001
1.037515e+003, 1.139394e-001
1.039444e+003, 1.083420e-001
1.041372e+003, 1.027145e-001
1.043301e+003, 9.752898e-002
1.045229e+003, 9.297730e-002
1.047157e+003, 8.928741e-002
1.049086e+003, 8.690447e-002
1.051014e+003, 8.578349e-002
1.052943e+003, 8.532973e-002
1.054871e+003, 8.630721e-002
1.056800e+003, 8.849737e-002
1.058728e+003, 9.174933e-002
1.060657e+003, 9.630077e-002
1.062585e+003, 1.017383e-001
1.064514e+003, 1.076069e-001
1.066442e+003, 1.134492e-001
1.068371e+003, 1.184653e-001
1.070299e+003, 1.219745e-001
1.072228e+003, 1.240315e-001
1.074156e+003, 1.247679e-001
1.076084e+003, 1.242735e-001
1.078013e+003, 1.228540e-001
1.079941e+003, 1.207947e-001
1.081870e+003, 1.186593e-001
1.083798e+003, 1.163880e-001
1.085727e+003, 1.138471e-001
1.087655e+003, 1.114984e-001
1.089584e+003, 1.097631e-001
1.091512e+003, 1.086788e-001
1.093441e+003, 1.083441e-001
1.095369e+003, 1.087001e-001
1.097298e+003, 1.091365e-001
1.099226e+003, 1.095134e-001
1.101155e+003, 1.095519e-001
1.103083e+003, 1.087361e-001
1.105011e+003, 1.070805e-001
1.106940e+003, 1.048067e-001
1.108868e+003, 1.019412e-001
1.110797e+003, 9.854937e-002
1.112725e+003, 9.468473e-002
1.114654e+003, 9.050856e-002
1.116582e+003, 8.633943e-002
1.118511e+003, 8.190402e-002
1.120439e+003, 7.704445e-002
1.122368e+003, 7.184646e-002
1.124296e+003, 6.683845e-002
1.126225e+003, 6.196338e-002
1.128153e+003, 5.712888e-002
1.130082e+003, 5.242219e-002
1.132010e+003, 4.810618e-002
1.133938e+003, 4.400766e-002
1.135867e+003, 4.018513e-002
1.137795e+003, 3.682427e-002
1.139724e+003, 3.403677e-002
1.141652e+003, 3.166487e-002
1.143581e+003, 2.958220e-002
1.145509e+003, 2.770362e-002
1.147438e+003, 2.605449e-002
1.149366e+003, 2.475711e-002
1.151295e+003, 2.365776e-002
1.153223e+003, 2.258981e-002
1.155152e+003, 2.165107e-002
1.157080e+003, 2.098055e-002
1.159009e+003, 2.080083e-002
1.160937e+003, 2.092930e-002
1.162865e+003, 2.083118e-002
1.164794e+003, 2.037858e-002
1.166722e+003, 1.971523e-002
1.168651e+003, 1.890551e-002
1.170579e+003, 1.812253e-002
1.172508e+003, 1.740556e-002
1.174436e+003, 1.674822e-002
1.176365e+003, 1.629059e-002
1.178293e+003, 1.574369e-002
1.180222e+003, 1.524297e-002
1.182150e+003, 1.475277e-002
1.184079e+003, 1.439021e-002
1.186007e+003, 1.409344e-002
1.187936e+003, 1.366598e-002
1.189864e+003, 1.336258e-002
1.191792e+003, 1.306675e-002
1.193721e+003, 1.267998e-002
1.195649e+003, 1.239887e-002
1.197578e+003, 1.207777e-002
1.199506e+003, 1.168962e-002
1.201435e+003, 1.119192e-002
1.203363e+003, 1.054682e-002
1.205292e+003, 1.016713e-002
1.207220e+003, 9.728156e-003
1.209149e+003, 9.008208e-003
1.211077e+003, 8.558836e-003
1.213006e+003, 8.201664e-003
1.214934e+003, 7.800678e-003
1.216863e+003, 7.467562e-003
1.218791e+003, 7.144914e-003
1.220719e+003, 6.660755e-003
1.222648e+003, 6.214924e-003
1.224576e+003, 6.196522e-003
1.226505e+003, 6.095772e-003
1.228433e+003, 5.825257e-003
1.230362e+003, 5.840417e-003
1.232290e+003, 5.728468e-003
1.234219e+003, 5.493653e-003
1.236147e+003, 5.468346e-003
1.238076e+003, 5.360268e-003
1.240004e+003, 5.286414e-003
1.241933e+003, 5.202967e-003
1.243861e+003, 5.067747e-003
1.245790e+003, 5.017728e-003
1.247718e+003, 5.076176e-003
1.249646e+003, 4.991429e-003
1.251575e+003, 4.829263e-003
1.253503e+003, 4.850766e-003
1.255432e+003, 4.940876e-003
1.257360e+003, 4.849816e-003
1.259289e+003, 4.766866e-003
1.261217e+003, 4.790211e-003
1.263146e+003, 4.789651e-003
1.265074e+003, 4.816997e-003
1.267003e+003, 4.723093e-003
1.268931e+003, 4.603213e-003
1.270860e+003, 4.590156e-003
1.272788e+003, 4.545230e-003
1.274717e+003, 4.584871e-003
1.276645e+003, 4.702045e-003
1.278573e+003, 4.679924e-003
1.280502e+003, 4.611064e-003
1.282430e+003, 4.489135e-003
1.284359e+003, 4.293121e-003
1.286287e+003, 4.376769e-003
1.288216e+003, 4.469152e-003
1.290144e+003, 4.324164e-003
1.292073e+003, 4.268675e-003
1.294001e+003, 4.327349e-003
1.295930e+003, 4.396011e-003
1.297858e+003, 4.378268e-003
1.299787e+003, 4.407589e-003
1.301715e+003, 4.411233e-003
1.303644e+003, 4.179436e-003
1.305572e+003, 4.051845e-003
1.307500e+003, 4.185223e-003
1.309429e+003, 4.244416e-003
1.311357e+003, 4.149955e-003
1.313286e+003, 4.138717e-003
1.315214e+003, 4.291229e-003
1.317143e+003, 4.280328e-003
1.319071e+003, 4.340429e-003
1.321000e+003, 4.361044e-003
1.322928e+003, 4.189680e-003
1.324857e+003, 4.010780e-003
1.326785e+003, 3.981811e-003
1.328714e+003, 4.049801e-003
1.330642e+003, 4.063439e-003
1.332571e+003, 4.145801e-003
1.334499e+003, 4.335866e-003
1.336427e+003, 4.496431e-003
1.338356e+003, 4.381397e-003
1.340284e+003, 4.186818e-003
1.342213e+003, 4.226980e-003
1.344141e+003, 4.387829e-003
1.346070e+003, 4.497224e-003
1.347998e+003, 4.517509e-003
1.349927e+003, 4.583057e-003
1.351855e+003, 4.581008e-003
1.353784e+003, 4.554717e-003
1.355712e+003, 4.608611e-003
1.357641e+003, 4.659259e-003
1.359569e+003, 4.705560e-003
1.361498e+003, 4.611789e-003
1.363426e+003, 4.589467e-003
1.365354e+003, 4.801213e-003
1.367283e+003, 5.019286e-003
1.369211e+003, 4.967443e-003
1.371140e+003, 4.882816e-003
1.373068e+003, 4.822691e-003
1.374997e+003, 4.772748e-003
1.376925e+003, 4.920650e-003
1.378854e+003, 5.032741e-003
1.380782e+003, 4.955802e-003
1.382711e+003, 5.037109e-003
1.384639e+003, 5.203182e-003
1.386568e+003, 5.022784e-003
1.388496e+003, 4.861159e-003
1.390424e+003, 5.137509e-003
1.392353e+003, 5.252846e-003
1.394281e+003, 5.133602e-003
1.396210e+003, 5.246644e-003
1.398138e+003, 5.523389e-003
1.400067e+003, 5.449966e-003
1.401995e+003, 5.562765e-003
1.403924e+003, 5.628925e-003
1.405852e+003, 5.561716e-003
1.407781e+003, 5.513989e-003
1.409709e+003, 5.545507e-003
1.411638e+003, 5.717316e-003
1.413566e+003, 5.757488e-003
1.415495e+003, 6.018286e-003
1.417423e+003, 6.146523e-003
1.419351e+003, 5.931043e-003
1.421280e+003, 5.841224e-003
1.423208e+003, 6.020888e-003
1.425137e+003, 6.204064e-003
1.427065e+003, 6.296610e-003
1.428994e+003, 6.111930e-003
1.430922e+003, 5.902855e-003
1.432851e+003, 5.959000e-003
1.434779e+003, 6.045284e-003
1.436708e+003, 6.141170e-003
1.438636e+003, 6.086574e-003
1.440565e+003, 6.201092e-003
1.442493e+003, 6.309451e-003
1.444422e+003, 6.186438e-003
1.446350e+003, 6.073286e-003
1.448278e+003, 6.143919e-003
1.450207e+003, 6.374438e-003
1.452135e+003, 6.369059e-003
1.454064e+003, 6.261474e-003
1.455992e+003, 6.218617e-003
1.457921e+003, 6.077934e-003
1.459849e+003, 6.286697e-003
1.461778e+003, 6.397142e-003
1.463706e+003, 6.187978e-003
1.465635e+003, 6.093732e-003
1.467563e+003, 6.297403e-003
1.469492e+003, 6.244057e-003
1.471420e+003, 6.165829e-003
1.473349e+003, 6.053577e-003
1.475277e+003, 6.255493e-003
1.477205e+003, 6.304655e-003
1.479134e+003, 6.236854e-003
1.481062e+003, 6.043037e-003
1.482991e+003, 6.047448e-003
1.484919e+003, 6.313358e-003
1.486848e+003, 6.414605e-003
1.488776e+003, 6.344449e-003
1.490705e+003, 6.454780e-003
1.492633e+003, 6.624766e-003
1.494562e+003, 6.402375e-003
1.496490e+003, 6.215286e-003
1.498419e+003, 6.358625e-003
1.500347e+003, 6.530357e-003
1.502276e+003, 6.746482e-003
1.504204e+003, 6.787225e-003
1.506132e+003, 6.635934e-003
1.508061e+003, 6.688398e-003
1.509989e+003, 6.963949e-003
1.511918e+003, 7.131392e-003
1.513846e+003, 7.291630e-003
1.515775e+003, 7.293093e-003
1.517703e+003, 7.046725e-003
1.519632e+003, 7.044658e-003
1.521560e+003, 6.871275e-003
1.523489e+003, 7.108054e-003
1.525417e+003, 7.172648e-003
1.527346e+003, 7.063847e-003
1.529274e+003, 7.189902e-003
1.531203e+003, 7.283773e-003
1.533131e+003, 7.250492e-003
1.535059e+003, 7.408070e-003
1.536988e+003, 7.739859e-003
1.538916e+003, 7.638535e-003
1.540845e+003, 7.605472e-003
1.542773e+003, 8.062987e-003
1.544702e+003, 8.383621e-003
1.546630e+003, 8.399292e-003
1.548559e+003, 8.286578e-003
1.550487e+003, 8.077661e-003
1.552416e+003, 8.094423e-003
1.554344e+003, 8.169681e-003
1.556273e+003, 8.326211e-003
1.558201e+003, 8.277880e-003
1.560130e+003, 8.172412e-003
1.562058e+003, 8.366667e-003
1.563986e+003, 8.384690e-003
1.565915e+003, 8.357152e-003
1.567843e+003, 8.560528e-003
1.569772e+003, 8.599618e-003
1.571700e+003, 8.736894e-003
1.573629e+003, 8.988853e-003
1.575557e+003, 8.943387e-003
1.577486e+003, 8.722741e-003
1.579414e+003, 8.793540e-003
1.581343e+003, 8.820330e-003
1.583271e+003, 8.719423e-003
1.585200e+003, 8.656316e-003
1.587128e+003, 8.979732e-003
1.589057e+003, 9.190239e-003
1.590985e+003, 9.233278e-003
1.592913e+003, 9.148438e-003
1.594842e+003, 8.983932e-003
1.596770e+003, 8.932750e-003
1.598699e+003, 9.070829e-003
1.600627e+003, 9.072500e-003
1.602556e+003, 9.066492e-003
1.604484e+003, 9.077805e-003
1.606413e+003, 9.005355e-003
1.608341e+003, 8.946426e-003
1.610270e+003, 9.050750e-003
1.612198e+003, 8.974236e-003
1.614127e+003, 8.705766e-003
1.616055e+003, 8.745537e-003
1.617984e+003, 8.653735e-003
1.619912e+003, 8.588878e-003
1.621840e+003, 8.747070e-003
1.623769e+003, 9.085392e-003
1.625697e+003, 9.311723e-003
1.627626e+003, 9.119403e-003
1.629554e+003, 9.140531e-003
1.631483e+003, 9.351659e-003
1.633411e+003, 9.066479e-003
1.635340e+003, 8.781875e-003
1.637268e+003, 8.861724e-003
1.639197e+003, 8.950994e-003
1.641125e+003, 8.909312e-003
1.643054e+003, 8.894565e-003
1.644982e+003, 8.819007e-003
1.646911e+003, 8.585420e-003
1.648839e+003, 8.909598e-003
1.650767e+003, 9.081343e-003
1.652696e+003, 8.980932e-003
1.654624e+003, 9.000630e-003
1.656553e+003, 9.189850e-003
1.658481e+003, 9.262837e-003
1.660410e+003, 9.026282e-003
1.662338e+003, 8.814294e-003
1.664267e+003, 8.925853e-003
1.666195e+003, 9.043846e-003
1.668124e+003, 8.939932e-003
1.670052e+003, 9.001317e-003
1.671981e+003, 9.357804e-003
1.673909e+003, 9.517081e-003
1.675838e+003, 9.245325e-003
1.677766e+003, 9.306509e-003
1.679694e+003, 9.368707e-003
1.681623e+003, 9.444141e-003
1.683551e+003, 9.600775e-003
1.685480e+003, 9.533860e-003
1.687408e+003, 9.557429e-003
1.689337e+003, 9.415735e-003
1.691265e+003, 9.543032e-003
1.693194e+003, 9.565460e-003
1.695122e+003, 9.435480e-003
1.697051e+003, 9.255570e-003
1.698979e+003, 9.713219e-003
1.700908e+003, 9.498427e-003
1.702836e+003, 9.665442e-003
1.704765e+003, 9.491257e-003
1.706693e+003, 9.124944e-003
1.708621e+003, 9.177991e-003
1.710550e+003, 9.216912e-003
1.712478e+003, 9.196162e-003
1.714407e+003, 9.442261e-003
1.716335e+003, 9.548925e-003
1.718264e+003, 9.200801e-003
1.720192e+003, 9.221002e-003
1.722121e+003, 9.259371e-003
1.724049e+003, 9.237887e-003
1.725978e+003, 9.462095e-003
1.727906e+003, 9.558771e-003
1.729835e+003, 9.538773e-003
1.731763e+003, 9.169642e-003
1.733692e+003, 8.818707e-003
1.735620e+003, 9.010250e-003
1.737548e+003, 9.184461e-003
1.739477e+003, 8.891995e-003
1.741405e+003, 8.998181e-003
1.743334e+003, 9.073247e-003
1.745262e+003, 9.071112e-003
1.747191e+003, 9.087970e-003
1.749119e+003, 9.053770e-003
1.751048e+003, 8.894015e-003
1.752976e+003, 8.858096e-003
1.754905e+003, 9.043059e-003
1.756833e+003, 8.749247e-003
1.758762e+003, 8.617486e-003
1.760690e+003, 8.977404e-003
1.762619e+003, 9.124693e-003
1.764547e+003, 9.135715e-003
1.766475e+003, 9.047882e-003
1.768404e+003, 8.908020e-003
1.770332e+003, 9.114601e-003
1.772261e+003, 9.155178e-003
1.774189e+003, 8.994908e-003
1.776118e+003, 8.886931e-003
1.778046e+003, 9.287911e-003
1.779975e+003, 9.635771e-003
1.781903e+003, 9.289118e-003
1.783832e+003, 8.910102e-003
1.785760e+003, 8.876571e-003
1.787689e+003, 9.385104e-003
1.789617e+003, 9.450506e-003
1.791546e+003, 9.137125e-003
1.793474e+003, 9.078445e-003
1.795402e+003, 9.125152e-003
1.797331e+003, 9.069318e-003
1.799259e+003, 8.955376e-003
1.801188e+003, 8.867512e-003
1.803116e+003, 9.065065e-003
1.805045e+003, 8.713701e-003
1.806973e+003, 8.444007e-003
1.808902e+003, 8.657143e-003
1.810830e+003, 9.157654e-003
1.812759e+003, 8.892688e-003
1.814687e+003, 8.445657e-003
1.816616e+003, 8.215820e-003
1.818544e+003, 8.632825e-003
1.820473e+003, 9.033494e-003
1.822401e+003, 9.367027e-003
1.824329e+003, 9.189871e-003
1.826258e+003, 8.906985e-003
1.828186e+003, 8.855688e-003
1.830115e+003, 8.682845e-003
1.832043e+003, 8.513322e-003
1.833972e+003, 8.462063e-003
1.835900e+003, 8.726970e-003
1.837829e+003, 8.949443e-003
1.839757e+003, 9.120834e-003
1.841686e+003, 9.110986e-003
1.843614e+003, 8.941007e-003
1.845543e+003, 8.643725e-003
1.847471e+003, 8.850469e-003
1.849400e+003, 9.148601e-003
1.851328e+003, 9.025843e-003
1.853256e+003, 8.985772e-003
1.855185e+003, 8.778238e-003
1.857113e+003, 8.502706e-003
1.859042e+003, 8.329503e-003
1.860970e+003, 8.123920e-003
1.862899e+003, 8.029995e-003
1.864827e+003, 8.717127e-003
1.866756e+003, 9.254735e-003
1.868684e+003, 8.768735e-003
1.870613e+003, 8.445085e-003
1.872541e+003, 8.256805e-003
1.874470e+003, 8.212756e-003
1.876398e+003, 8.247057e-003
1.878327e+003, 8.125334e-003
1.880255e+003, 8.151655e-003
1.882183e+003, 8.516080e-003
1.884112e+003, 8.011016e-003
1.886040e+003, 7.692945e-003
1.887969e+003, 8.306162e-003
1.889897e+003, 8.645129e-003
1.891826e+003, 8.584745e-003
1.893754e+003, 8.791596e-003
1.895683e+003, 8.708925e-003
1.897611e+003, 8.313050e-003
1.899540e+003, 8.416367e-003
1.901468e+003, 8.463751e-003
1.903397e+003, 8.724858e-003
1.905325e+003, 8.571114e-003
1.907254e+003, 7.924073e-003
1.909182e+003, 8.182995e-003
1.911110e+003, 8.477085e-003
1.913039e+003, 8.167268e-003
1.914967e+003, 7.617431e-003
1.916896e+003, 7.765563e-003
1.918824e+003, 7.831277e-003
1.920753e+003, 7.473280e-003
1.922681e+003, 7.605392e-003
1.924610e+003, 8.560242e-003
1.926538e+003, 8.608329e-003
1.928467e+003, 8.101752e-003
1.930395e+003, 7.921065e-003
1.932324e+003, 7.772730e-003
1.934252e+003, 7.418276e-003
1.936181e+003, 7.189885e-003
1.938109e+003, 6.889281e-003
1.940037e+003, 6.779259e-003
1.941966e+003, 6.890163e-003
1.943894e+003, 7.678184e-003
1.945823e+003, 7.833964e-003
1.947751e+003, 6.966225e-003
1.949680e+003, 7.294012e-003
1.951608e+003, 8.296009e-003
1.953537e+003, 8.186483e-003
1.955465e+003, 8.013560e-003
1.957394e+003, 7.212321e-003
1.959322e+003, 6.338349e-003
1.961251e+003, 6.492964e-003
1.963179e+003, 7.963267e-003
1.965108e+003, 8.671486e-003
1.967036e+003, 8.760033e-003
1.968964e+003, 9.343271e-003
1.970893e+003, 8.513451e-003
1.972821e+003, 8.553878e-003
1.974750e+003, 9.522118e-003
1.976678e+003, 9.562189e-003
1.978607e+003, 9.883285e-003
1.980535e+003, 1.096331e-002
1.982464e+003, 1.253664e-002
1.984392e+003, 1.180267e-002
1.986321e+003, 1.139526e-002
1.988249e+003, 1.244928e-002
1.990178e+003, 1.216656e-002
1.992106e+003, 1.071406e-002
1.994035e+003, 1.026257e-002
1.995963e+003, 1.065583e-002
1.997891e+003, 1.081931e-002
1.999820e+003, 1.088384e-002
2.001748e+003, 9.312876e-003
2.003677e+003, 8.062534e-003
2.005605e+003, 1.011196e-002
2.007534e+003, 1.071489e-002
2.009462e+003, 1.014259e-002
2.011391e+003, 9.945467e-003
2.013319e+003, 1.010619e-002
2.015248e+003, 1.074589e-002
2.017176e+003, 9.519691e-003
2.019105e+003, 9.315348e-003
2.021033e+003, 1.037965e-002
2.022962e+003, 1.071689e-002
2.024890e+003, 1.124789e-002
2.026818e+003, 1.055617e-002
2.028747e+003, 1.003822e-002
2.030675e+003, 1.129575e-002
2.032604e+003, 1.183348e-002
2.034532e+003, 1.177120e-002
2.036461e+003, 1.140222e-002
2.038389e+003, 1.116719e-002
2.040318e+003, 1.152318e-002
2.042246e+003, 1.207181e-002
2.044175e+003, 1.080388e-002
2.046103e+003, 9.535378e-003
2.048032e+003, 8.791159e-003
2.049960e+003, 8.511485e-003
2.051889e+003, 9.187735e-003
2.053817e+003, 1.044490e-002
2.055746e+003, 1.042359e-002
2.057674e+003, 1.058863e-002
2.059603e+003, 1.029459e-002
2.061531e+003, 9.856625e-003
2.063459e+003, 9.154964e-003
2.065388e+003, 8.061935e-003
2.067316e+003, 7.816609e-003
2.069245e+003, 9.757604e-003
2.071173e+003, 1.084877e-002
2.073102e+003, 1.005512e-002
2.075030e+003, 9.708508e-003
2.076959e+003, 1.087044e-002
2.078887e+003, 1.112074e-002
2.080816e+003, 1.110802e-002
2.082744e+003, 1.155352e-002
2.084673e+003, 1.038531e-002
2.086601e+003, 9.550291e-003
2.088530e+003, 1.070844e-002
2.090458e+003, 1.082263e-002
2.092386e+003, 1.027424e-002
2.094315e+003, 1.078600e-002
2.096243e+003, 1.157960e-002
2.098172e+003, 1.106648e-002
2.100100e+003, 1.039193e-002
2.102029e+003, 1.080473e-002
2.103957e+003, 1.093570e-002
2.105886e+003, 1.091755e-002
2.107814e+003, 1.070968e-002
2.109743e+003, 1.077775e-002
2.111671e+003, 1.159659e-002
2.113600e+003, 1.211442e-002
2.115528e+003, 1.257994e-002
2.117457e+003, 1.238673e-002
2.119385e+003, 1.147483e-002
2.121313e+003, 1.088402e-002
2.123242e+003, 9.529773e-003
2.125170e+003, 8.724517e-003
2.127099e+003, 9.071875e-003
2.129027e+003, 8.576722e-003
2.130956e+003, 7.776064e-003
2.132884e+003, 7.306378e-003
2.134813e+003, 7.257734e-003
2.136741e+003, 7.615279e-003
2.138670e+003, 7.865675e-003
2.140598e+003, 7.120441e-003
2.142527e+003, 6.699385e-003
2.144455e+003, 6.504119e-003
2.146384e+003, 5.794440e-003
2.148312e+003, 6.128539e-003
2.150240e+003, 6.503663e-003
2.152169e+003, 4.837439e-003
2.154097e+003, 3.920035e-003
2.156026e+003, 2.942980e-003
2.157954e+003, 4.495751e-003
2.159883e+003, 7.448724e-003
2.161811e+003, 7.323259e-003
2.163740e+003, 7.277987e-003
2.165668e+003, 7.362000e-003
2.167597e+003, 8.178821e-003
2.169525e+003, 9.887313e-003
2.171454e+003, 9.819107e-003
2.173382e+003, 7.804046e-003
2.175311e+003, 8.696201e-003
2.177239e+003, 9.907600e-003
2.179167e+003, 1.002525e-002
2.181096e+003, 1.030944e-002
2.183024e+003, 9.868512e-003
2.184953e+003, 9.652604e-003
2.186881e+003, 8.853628e-003
2.188810e+003, 9.143016e-003
2.190738e+003, 1.032677e-002
2.192667e+003, 1.041195e-002
2.194595e+003, 9.896580e-003
2.196524e+003, 1.011209e-002
2.198452e+003, 9.837430e-003
2.200381e+003, 1.045205e-002
2.202309e+003, 9.954136e-003
2.204238e+003, 9.075515e-003
2.206166e+003, 8.226460e-003
2.208094e+003, 8.396082e-003
2.210023e+003, 1.043035e-002
2.211951e+003, 1.251711e-002
2.213880e+003, 1.240417e-002
2.215808e+003, 1.143433e-002
2.217737e+003, 1.076863e-002
2.219665e+003, 1.207925e-002
2.221594e+003, 1.237272e-002
2.223522e+003, 1.096197e-002
2.225451e+003, 1.114406e-002
2.227379e+003, 1.087496e-002
2.229308e+003, 1.037929e-002
2.231236e+003, 1.136671e-002
2.233165e+003, 1.253899e-002
2.235093e+003, 1.167612e-002
2.237021e+003, 1.103986e-002
2.238950e+003, 1.148142e-002
2.240878e+003, 1.183352e-002
2.242807e+003, 1.263043e-002
2.244735e+003, 1.247372e-002
2.246664e+003, 1.299850e-002
2.248592e+003, 1.389393e-002
2.250521e+003, 1.353263e-002
2.252449e+003, 1.290639e-002
2.254378e+003, 1.349264e-002
2.256306e+003, 1.412836e-002
2.258235e+003, 1.406541e-002
2.260163e+003, 1.384667e-002
2.262092e+003, 1.411308e-002
2.264020e+003, 1.409883e-002
2.265948e+003, 1.449770e-002
2.267877e+003, 1.535762e-002
2.269805e+003, 1.473537e-002
2.271734e+003, 1.399922e-002
2.273662e+003, 1.407344e-002
2.275591e+003, 1.523694e-002
2.277519e+003, 1.633805e-002
2.279448e+003, 1.682835e-002
2.281376e+003, 1.674325e-002
2.283305e+003, 1.600971e-002
2.285233e+003, 1.635975e-002
2.287162e+003, 1.624048e-002
2.289090e+003, 1.599709e-002
2.291019e+003, 1.617589e-002
2.292947e+003, 1.562258e-002
2.294875e+003, 1.542110e-002
2.296804e+003, 1.548606e-002
2.298732e+003, 1.575773e-002
2.300661e+003, 1.652460e-002
2.302589e+003, 1.599965e-002
2.304518e+003, 1.523062e-002
2.306446e+003, 1.500120e-002
2.308375e+003, 1.492765e-002
2.310303e+003, 1.547519e-002
2.312232e+003, 1.602170e-002
2.314160e+003, 1.634904e-002
2.316089e+003, 1.681478e-002
2.318017e+003, 1.685741e-002
2.319946e+003, 1.705367e-002
2.321874e+003, 1.714614e-002
2.323802e+003, 1.731121e-002
2.325731e+003, 1.682085e-002
2.327659e+003, 1.562984e-002
2.329588e+003, 1.486220e-002
2.331516e+003, 1.527205e-002
2.333445e+003, 1.534309e-002
2.335373e+003, 1.487242e-002
2.337302e+003, 1.505436e-002
2.339230e+003, 1.517862e-002
2.341159e+003, 1.541153e-002
2.343087e+003, 1.572431e-002
2.345016e+003, 1.594145e-002
2.346944e+003, 1.585831e-002
2.348873e+003, 1.540704e-002
2.350801e+003, 1.511530e-002
2.352729e+003, 1.532147e-002
2.354658e+003, 1.522497e-002
2.356586e+003, 1.507122e-002
2.358515e+003, 1.545579e-002
2.360443e+003, 1.561423e-002
2.362372e+003, 1.515006e-002
2.364300e+003, 1.502622e-002
2.366229e+003, 1.521367e-002
2.368157e+003, 1.511707e-002
2.370086e+003, 1.555432e-002
2.372014e+003, 1.580690e-002
2.373942e+003, 1.539340e-002
2.375871e+003, 1.577972e-002
2.377799e+003, 1.602555e-002
2.379728e+003, 1.578343e-002
2.381656e+003, 1.562248e-002
2.383585e+003, 1.557874e-002
2.385513e+003, 1.499389e-002
2.387442e+003, 1.431111e-002
2.389370e+003, 1.443324e-002
2.391299e+003, 1.509392e-002
2.393227e+003, 1.506989e-002
2.395156e+003, 1.529936e-002
2.397084e+003, 1.519625e-002
2.399012e+003, 1.457346e-002
2.400941e+003, 1.496882e-002
2.402869e+003, 1.499862e-002
2.404798e+003, 1.443834e-002
2.406726e+003, 1.506046e-002
2.408655e+003, 1.552183e-002
2.410583e+003, 1.536548e-002
2.412512e+003, 1.580316e-002
2.414440e+003, 1.565151e-002
2.416369e+003, 1.531185e-002
2.418297e+003, 1.538131e-002
2.420226e+003, 1.572222e-002
2.422154e+003, 1.624394e-002
2.424083e+003, 1.573071e-002
2.426011e+003, 1.568244e-002
2.427939e+003, 1.605767e-002
2.429868e+003, 1.560163e-002
2.431796e+003, 1.511923e-002
2.433725e+003, 1.549914e-002
2.435653e+003, 1.638265e-002
2.437582e+003, 1.643540e-002
2.439510e+003, 1.689099e-002
2.441439e+003, 1.701416e-002
2.443367e+003, 1.656486e-002
2.445296e+003, 1.699015e-002
2.447224e+003, 1.647562e-002
2.449153e+003, 1.635394e-002
2.451081e+003, 1.690731e-002
2.453010e+003, 1.733846e-002
2.454938e+003, 1.716964e-002
2.456866e+003, 1.654417e-002
2.458795e+003, 1.567598e-002
2.460723e+003, 1.531758e-002
2.462652e+003, 1.592946e-002
2.464580e+003, 1.602846e-002
2.466509e+003, 1.562041e-002
2.468437e+003, 1.528860e-002
2.470366e+003, 1.511009e-002
2.472294e+003, 1.630258e-002
2.474223e+003, 1.713005e-002
2.476151e+003, 1.670425e-002
2.478080e+003, 1.674537e-002
2.480008e+003, 1.719490e-002
2.481937e+003, 1.712538e-002
2.483865e+003, 1.698359e-002
2.485793e+003, 1.630888e-002
2.487722e+003, 1.618589e-002
2.489650e+003, 1.692108e-002
2.491579e+003, 1.714292e-002
2.493507e+003, 1.625003e-002
2.495436e+003, 1.597978e-002
2.497364e+003, 1.603319e-002
2.499293e+003, 1.702336e-002
2.501221e+003, 1.736487e-002
2.503150e+003, 1.675446e-002
2.505078e+003, 1.682249e-002
2.507007e+003, 1.636995e-002
2.508935e+003, 1.607870e-002
2.510864e+003, 1.616730e-002
2.512792e+003, 1.649782e-002
2.514720e+003, 1.681286e-002
2.516649e+003, 1.734962e-002
2.518577e+003, 1.708604e-002
2.520506e+003, 1.670015e-002
2.522434e+003, 1.667203e-002
2.524363e+003, 1.630854e-002
2.526291e+003, 1.623842e-002
2.528220e+003, 1.645402e-002
2.530148e+003, 1.722788e-002
2.532077e+003, 1.731140e-002
2.534005e+003, 1.707897e-002
2.535934e+003, 1.679818e-002
2.537862e+003, 1.690932e-002
2.539791e+003, 1.720830e-002
2.541719e+003, 1.632885e-002
2.543647e+003, 1.620327e-002
2.545576e+003, 1.720860e-002
2.547504e+003, 1.764421e-002
2.549433e+003, 1.722807e-002
2.551361e+003, 1.737977e-002
2.553290e+003, 1.730826e-002
2.555218e+003, 1.651292e-002
2.557147e+003, 1.622847e-002
2.559075e+003, 1.671153e-002
2.561004e+003, 1.739520e-002
2.562932e+003, 1.776520e-002
2.564861e+003, 1.827917e-002
2.566789e+003, 1.849013e-002
2.568718e+003, 1.890120e-002
2.570646e+003, 1.865059e-002
2.572574e+003, 1.792237e-002
2.574503e+003, 1.743887e-002
2.576431e+003, 1.780923e-002
2.578360e+003, 1.804080e-002
2.580288e+003, 1.796959e-002
2.582217e+003, 1.805753e-002
2.584145e+003, 1.818387e-002
2.586074e+003, 1.868993e-002
2.588002e+003, 1.790785e-002
2.589931e+003, 1.676596e-002
2.591859e+003, 1.692158e-002
2.593788e+003, 1.731680e-002
2.595716e+003, 1.729299e-002
2.597645e+003, 1.730689e-002
2.599573e+003, 1.711115e-002
2.601501e+003, 1.742300e-002
2.603430e+003, 1.818543e-002
2.605358e+003, 1.853529e-002
2.607287e+003, 1.855647e-002
2.609215e+003, 1.870650e-002
2.611144e+003, 1.856633e-002
2.613072e+003, 1.803846e-002
2.615001e+003, 1.838802e-002
2.616929e+003, 1.908625e-002
2.618858e+003, 1.873566e-002
2.620786e+003, 1.828644e-002
2.622715e+003, 1.826828e-002
2.624643e+003, 1.854164e-002
2.626572e+003, 1.875687e-002
2.628500e+003, 1.900591e-002
2.630428e+003, 1.879921e-002
2.632357e+003, 1.850340e-002
2.634285e+003, 1.846391e-002
2.636214e+003, 1.819118e-002
2.638142e+003, 1.840646e-002
2.640071e+003, 1.856118e-002
2.641999e+003, 1.863114e-002
2.643928e+003, 1.865150e-002
2.645856e+003, 1.884377e-002
2.647785e+003, 1.807574e-002
2.649713e+003, 1.778963e-002
2.651642e+003, 1.827138e-002
2.653570e+003, 1.858924e-002
2.655499e+003, 1.848105e-002
2.657427e+003, 1.833129e-002
2.659355e+003, 1.810764e-002
2.661284e+003, 1.778957e-002
2.663212e+003, 1.758222e-002
2.665141e+003, 1.752018e-002
2.667069e+003, 1.739882e-002
2.668998e+003, 1.721993e-002
2.670926e+003, 1.743251e-002
2.672855e+003, 1.732958e-002
2.674783e+003, 1.719843e-002
2.676712e+003, 1.743201e-002
2.678640e+003, 1.730745e-002
2.680569e+003, 1.771474e-002
2.682497e+003, 1.824586e-002
2.684426e+003, 1.795482e-002
2.686354e+003, 1.753500e-002
2.688282e+003, 1.728015e-002
2.690211e+003, 1.743974e-002
2.692139e+003, 1.753745e-002
2.694068e+003, 1.786285e-002
2.695996e+003, 1.760918e-002
2.697925e+003, 1.753729e-002
2.699853e+003, 1.774943e-002
2.701782e+003, 1.782709e-002
2.703710e+003, 1.778325e-002
2.705639e+003, 1.774578e-002
2.707567e+003, 1.785970e-002
2.709496e+003, 1.765396e-002
2.711424e+003, 1.773675e-002
2.713353e+003, 1.769031e-002
2.715281e+003, 1.773247e-002
2.717209e+003, 1.768118e-002
2.719138e+003, 1.806254e-002
2.721066e+003, 1.828007e-002
2.722995e+003, 1.796778e-002
2.724923e+003, 1.790607e-002
2.726852e+003, 1.808084e-002
2.728780e+003, 1.772746e-002
2.730709e+003, 1.822677e-002
2.732637e+003, 1.874406e-002
2.734566e+003, 1.846856e-002
2.736494e+003, 1.794417e-002
2.738423e+003, 1.778319e-002
2.740351e+003, 1.802468e-002
2.742280e+003, 1.815572e-002
2.744208e+003, 1.845121e-002
2.746136e+003, 1.843941e-002
2.748065e+003, 1.807060e-002
2.749993e+003, 1.824287e-002
2.751922e+003, 1.817141e-002
2.753850e+003, 1.829624e-002
2.755779e+003, 1.861544e-002
2.757707e+003, 1.809457e-002
2.759636e+003, 1.818047e-002
2.761564e+003, 1.873536e-002
2.763493e+003, 1.883764e-002
2.765421e+003, 1.842893e-002
2.767350e+003, 1.832289e-002
2.769278e+003, 1.869599e-002
2.771207e+003, 1.902314e-002
2.773135e+003, 1.906952e-002
2.775063e+003, 1.921515e-002
2.776992e+003, 1.908959e-002
2.778920e+003, 1.880288e-002
2.780849e+003, 1.863878e-002
2.782777e+003, 1.848157e-002
2.784706e+003, 1.787469e-002
2.786634e+003, 1.819212e-002
2.788563e+003, 1.875747e-002
2.790491e+003, 1.864115e-002
2.792420e+003, 1.787396e-002
2.794348e+003, 1.735346e-002
2.796277e+003, 1.800302e-002
2.798205e+003, 1.859758e-002
2.800134e+003, 1.864469e-002
2.802062e+003, 1.865875e-002
2.803990e+003, 1.936276e-002
2.805919e+003, 1.952722e-002
2.807847e+003, 1.908514e-002
2.809776e+003, 1.856567e-002
2.811704e+003, 1.908846e-002
2.813633e+003, 1.957616e-002
2.815561e+003, 1.873575e-002
2.817490e+003, 1.841968e-002
2.819418e+003, 1.880562e-002
2.821347e+003, 1.868540e-002
2.823275e+003, 1.855513e-002
2.825204e+003, 1.882006e-002
2.827132e+003, 1.910432e-002
2.829061e+003, 1.932711e-002
2.830989e+003, 1.944472e-002
2.832917e+003, 1.861459e-002
2.834846e+003, 1.823043e-002
2.836774e+003, 1.903668e-002
2.838703e+003, 1.909366e-002
2.840631e+003, 1.873388e-002
2.842560e+003, 1.904107e-002
2.844488e+003, 1.890564e-002
2.846417e+003, 1.881445e-002
2.848345e+003, 1.889591e-002
2.850274e+003, 1.908640e-002
2.852202e+003, 1.926315e-002
2.854131e+003, 1.926369e-002
2.856059e+003, 1.931688e-002
2.857988e+003, 1.926461e-002
2.859916e+003, 1.832826e-002
2.861844e+003, 1.847689e-002
2.863773e+003, 1.893195e-002
2.865701e+003, 1.891674e-002
2.867630e+003, 1.901495e-002
2.869558e+003, 1.943810e-002
2.871487e+003, 2.001393e-002
2.873415e+003, 1.962071e-002
2.875344e+003, 1.905052e-002
2.877272e+003, 1.882344e-002
2.879201e+003, 1.919289e-002
2.881129e+003, 1.987869e-002
2.883058e+003, 1.995964e-002
2.884986e+003, 2.020961e-002
2.886915e+003, 2.014409e-002
2.888843e+003, 1.882402e-002
2.890771e+003, 1.868579e-002
2.892700e+003, 1.944795e-002
2.894628e+003, 1.956436e-002
2.896557e+003, 1.940682e-002
2.898485e+003, 1.940384e-002
2.900414e+003, 1.938239e-002
2.902342e+003, 2.022886e-002
2.904271e+003, 2.042567e-002
2.906199e+003, 1.942917e-002
2.908128e+003, 1.933786e-002
2.910056e+003, 2.050104e-002
2.911985e+003, 2.056092e-002
2.913913e+003, 2.018864e-002
2.915842e+003, 1.932194e-002
2.917770e+003, 1.920407e-002
2.919698e+003, 1.997071e-002
2.921627e+003, 1.994958e-002
2.923555e+003, 1.961101e-002
2.925484e+003, 1.897036e-002
2.927412e+003, 1.832623e-002
2.929341e+003, 1.825786e-002
2.931269e+003, 1.886404e-002
2.933198e+003, 1.945283e-002
2.935126e+003, 1.961316e-002
2.937055e+003, 1.935608e-002
2.938983e+003, 1.945916e-002
2.940912e+003, 1.976651e-002
2.942840e+003, 2.033692e-002
2.944769e+003, 2.015268e-002
2.946697e+003, 1.984307e-002
2.948625e+003, 1.917356e-002
2.950554e+003, 1.879694e-002
2.952482e+003, 1.875245e-002
2.954411e+003, 1.934314e-002
2.956339e+003, 2.036600e-002
2.958268e+003, 2.014050e-002
2.960196e+003, 1.945330e-002
2.962125e+003, 1.904685e-002
2.964053e+003, 1.908357e-002
2.965982e+003, 1.988049e-002
2.967910e+003, 2.042023e-002
2.969839e+003, 2.078495e-002
2.971767e+003, 2.056421e-002
2.973696e+003, 2.027885e-002
2.975624e+003, 2.009752e-002
2.977552e+003, 1.948071e-002
2.979481e+003, 1.949603e-002
2.981409e+003, 2.003024e-002
2.983338e+003, 2.015674e-002
2.985266e+003, 1.974096e-002
2.987195e+003, 1.915168e-002
2.989123e+003, 2.026162e-002
2.991052e+003, 2.085867e-002
2.992980e+003, 1.978149e-002
2.994909e+003, 1.952243e-002
2.996837e+003, 2.000047e-002
2.998766e+003, 2.024189e-002
3.000694e+003, 1.981854e-002
3.002623e+003, 2.043709e-002
3.004551e+003, 2.056500e-002
3.006479e+003, 1.982640e-002
3.008408e+003, 1.996756e-002
3.010336e+003, 2.042292e-002
3.012265e+003, 2.070702e-002
3.014193e+003, 2.149803e-002
3.016122e+003, 2.126697e-002
3.018050e+003, 2.088537e-002
3.019979e+003, 2.078251e-002
3.021907e+003, 2.051514e-002
3.023836e+003, 2.040733e-002
3.025764e+003, 2.073177e-002
3.027693e+003, 2.083844e-002
3.029621e+003, 2.062124e-002
3.031550e+003, 2.099663e-002
3.033478e+003, 2.137289e-002
3.035406e+003, 2.138648e-002
3.037335e+003, 2.165447e-002
3.039263e+003, 2.228227e-002
3.041192e+003, 2.260564e-002
3.043120e+003, 2.268931e-002
3.045049e+003, 2.210747e-002
3.046977e+003, 2.123222e-002
3.048906e+003, 2.065829e-002
3.050834e+003, 2.045319e-002
3.052763e+003, 2.068843e-002
3.054691e+003, 2.061751e-002
3.056620e+003, 2.128253e-002
3.058548e+003, 2.209665e-002
3.060477e+003, 2.211192e-002
3.062405e+003, 2.124341e-002
3.064333e+003, 2.124317e-002
3.066262e+003, 2.127615e-002
3.068190e+003, 2.102987e-002
3.070119e+003, 2.157013e-002
3.072047e+003, 2.177477e-002
3.073976e+003, 2.113336e-002
3.075904e+003, 2.127564e-002
3.077833e+003, 2.189134e-002
3.079761e+003, 2.292468e-002
3.081690e+003, 2.316041e-002
3.083618e+003, 2.225261e-002
3.085547e+003, 2.220042e-002
3.087475e+003, 2.283724e-002
3.089404e+003, 2.241270e-002
3.091332e+003, 2.248273e-002
3.093260e+003, 2.309502e-002
3.095189e+003, 2.306257e-002
3.097117e+003, 2.281702e-002
3.099046e+003, 2.286768e-002
3.100974e+003, 2.354088e-002
3.102903e+003, 2.379660e-002
3.104831e+003, 2.324158e-002
3.106760e+003, 2.218967e-002
3.108688e+003, 2.242650e-002
3.110617e+003, 2.301668e-002
3.112545e+003, 2.290780e-002
3.114474e+003, 2.201409e-002
3.116402e+003, 2.248424e-002
3.118331e+003, 2.345164e-002
3.120259e+003, 2.322800e-002
3.122188e+003, 2.313049e-002
3.124116e+003, 2.385276e-002
3.126044e+003, 2.345347e-002
3.127973e+003, 2.289031e-002
3.129901e+003, 2.202669e-002
3.131830e+003, 2.190337e-002
3.133758e+003, 2.251592e-002
3.135687e+003, 2.303467e-002
3.137615e+003, 2.427602e-002
3.139544e+003, 2.500920e-002
3.141472e+003, 2.479102e-002
3.143401e+003, 2.382551e-002
3.145329e+003, 2.352201e-002
3.147258e+003, 2.352031e-002
3.149186e+003, 2.334079e-002
3.151115e+003, 2.417502e-002
3.153043e+003, 2.439771e-002
3.154971e+003, 2.439039e-002
3.156900e+003, 2.377892e-002
3.158828e+003, 2.381347e-002
3.160757e+003, 2.473322e-002
3.162685e+003, 2.580267e-002
3.164614e+003, 2.614977e-002
3.166542e+003, 2.702412e-002
3.168471e+003, 2.649465e-002
3.170399e+003, 2.404082e-002
3.172328e+003, 2.346621e-002
3.174256e+003, 2.430662e-002
3.176185e+003, 2.427051e-002
3.178113e+003, 2.383658e-002
3.180042e+003, 2.482329e-002
3.181970e+003, 2.602553e-002
3.183898e+003, 2.582922e-002
3.185827e+003, 2.565516e-002
3.187755e+003, 2.515011e-002
3.189684e+003, 2.465205e-002
3.191612e+003, 2.452896e-002
3.193541e+003, 2.520028e-002
3.195469e+003, 2.524051e-002
3.197398e+003, 2.489868e-002
3.199326e+003, 2.526233e-002
3.201255e+003, 2.548626e-002
3.203183e+003, 2.544530e-002
3.205112e+003, 2.503713e-002
3.207040e+003, 2.495461e-002
3.208969e+003, 2.586826e-002
3.210897e+003, 2.737334e-002
3.212825e+003, 2.741159e-002
3.214754e+003, 2.660400e-002
3.216682e+003, 2.573859e-002
3.218611e+003, 2.566255e-002
3.220539e+003, 2.615754e-002
3.222468e+003, 2.632268e-002
3.224396e+003, 2.603331e-002
3.226325e+003, 2.701620e-002
3.228253e+003, 2.722243e-002
3.230182e+003, 2.755475e-002
3.232110e+003, 2.822950e-002
3.234039e+003, 2.710449e-002
3.235967e+003, 2.680981e-002
3.237896e+003, 2.669206e-002
3.239824e+003, 2.717716e-002
3.241752e+003, 2.857062e-002
3.243681e+003, 2.913546e-002
3.245609e+003, 2.873960e-002
3.247538e+003, 2.766285e-002
3.249466e+003, 2.744005e-002
3.251395e+003, 2.774437e-002
3.253323e+003, 2.766464e-002
3.255252e+003, 2.766047e-002
3.257180e+003, 2.798824e-002
3.259109e+003, 2.812828e-002
3.261037e+003, 2.891932e-002
3.262966e+003, 2.926727e-002
3.264894e+003, 2.799648e-002
3.266823e+003, 2.784333e-002
3.268751e+003, 2.974789e-002
3.270679e+003, 3.085735e-002
3.272608e+003, 3.133074e-002
3.274536e+003, 3.107515e-002
3.276465e+003, 3.059200e-002
3.278393e+003, 3.086352e-002
3.280322e+003, 3.055494e-002
3.282250e+003, 3.098629e-002
3.284179e+003, 3.182768e-002
3.286107e+003, 3.177077e-002
3.288036e+003, 3.173739e-002
3.289964e+003, 3.123280e-002
3.291893e+003, 2.996015e-002
3.293821e+003, 2.909530e-002
3.295750e+003, 2.930961e-002
3.297678e+003, 3.029512e-002
3.299606e+003, 3.113885e-002
3.301535e+003, 3.148375e-002
3.303463e+003, 3.277855e-002
3.305392e+003, 3.385965e-002
3.307320e+003, 3.282825e-002
3.309249e+003, 3.204753e-002
3.311177e+003, 3.315751e-002
3.313106e+003, 3.426465e-002
3.315034e+003, 3.481056e-002
3.316963e+003, 3.400045e-002
3.318891e+003, 3.358443e-002
3.320820e+003, 3.566714e-002
3.322748e+003, 3.664866e-002
3.324677e+003, 3.631958e-002
3.326605e+003, 3.655734e-002
3.328533e+003, 3.688544e-002
3.330462e+003, 3.796452e-002
3.332390e+003, 3.890595e-002
3.334319e+003, 3.921255e-002
3.336247e+003, 3.950410e-002
3.338176e+003, 4.044528e-002
3.340104e+003, 4.136568e-002
3.342033e+003, 4.282156e-002
3.343961e+003, 4.416924e-002
3.345890e+003, 4.462003e-002
3.347818e+003, 4.519490e-002
3.349747e+003, 4.536520e-002
3.351675e+003, 4.682157e-002
3.353604e+003, 4.911748e-002
3.355532e+003, 4.986240e-002
3.357460e+003, 4.931467e-002
3.359389e+003, 4.953557e-002
3.361317e+003, 5.048734e-002
3.363246e+003, 5.287589e-002
3.365174e+003, 5.478724e-002
3.367103e+003, 5.351838e-002
3.369031e+003, 5.248514e-002
3.370960e+003, 5.336760e-002
3.372888e+003, 5.403982e-002
3.374817e+003, 5.369660e-002
3.376745e+003, 5.296944e-002
3.378674e+003, 5.129541e-002
3.380602e+003, 5.098688e-002
3.382531e+003, 4.988155e-002
3.384459e+003, 4.650876e-002
3.386387e+003, 4.369491e-002
3.388316e+003, 4.223871e-002
3.390244e+003, 4.092702e-002
3.392173e+003, 3.959535e-002
3.394101e+003, 3.879882e-002
3.396030e+003, 3.821144e-002
3.397958e+003, 3.701072e-002
3.399887e+003, 3.528062e-002
3.401815e+003, 3.186199e-002
3.403744e+003, 3.059255e-002
3.405672e+003, 3.004366e-002
3.407601e+003, 2.913367e-002
3.409529e+003, 2.915333e-002
3.411458e+003, 2.962304e-002
3.413386e+003, 2.921030e-002
3.415314e+003, 2.763579e-002
3.417243e+003, 2.760814e-002
3.419171e+003, 2.752018e-002
3.421100e+003, 2.645752e-002
3.423028e+003, 2.586398e-002
3.424957e+003, 2.611117e-002
3.426885e+003, 2.662928e-002
3.428814e+003, 2.608313e-002
3.430742e+003, 2.413837e-002
3.432671e+003, 2.336109e-002
3.434599e+003, 2.311154e-002
3.436528e+003, 2.344499e-002
3.438456e+003, 2.441384e-002
3.440385e+003, 2.569767e-002
3.442313e+003, 2.552158e-002
3.444241e+003, 2.467168e-002
3.446170e+003, 2.374887e-002
3.448098e+003, 2.348188e-002
3.450027e+003, 2.335023e-002
3.451955e+003, 2.441768e-002
3.453884e+003, 2.512052e-002
3.455812e+003, 2.432830e-002
3.457741e+003, 2.311194e-002
3.459669e+003, 2.273155e-002
3.461598e+003, 2.254445e-002
3.463526e+003, 2.307471e-002
3.465455e+003, 2.367402e-002
3.467383e+003, 2.347326e-002
3.469312e+003, 2.292407e-002
3.471240e+003, 2.172368e-002
3.473168e+003, 2.240392e-002
3.475097e+003, 2.335343e-002
3.477025e+003, 2.487971e-002
3.478954e+003, 2.440180e-002
3.480882e+003, 2.353133e-002
3.482811e+003, 2.386139e-002
3.484739e+003, 2.312191e-002
3.486668e+003, 2.220521e-002
3.488596e+003, 2.178520e-002
3.490525e+003, 2.208432e-002
3.492453e+003, 2.278176e-002
3.494382e+003, 2.262442e-002
3.496310e+003, 2.298366e-002
3.498239e+003, 2.297387e-002
3.500167e+003, 2.200339e-002
3.502095e+003, 2.284485e-002
3.504024e+003, 2.262080e-002
3.505952e+003, 2.140230e-002
3.507881e+003, 2.137856e-002
3.509809e+003, 2.151049e-002
3.511738e+003, 2.173569e-002
3.513666e+003, 2.111883e-002
3.515595e+003, 2.220684e-002
3.517523e+003, 2.301575e-002
3.519452e+003, 2.155296e-002
3.521380e+003, 2.059235e-002
3.523309e+003, 2.078335e-002
3.525237e+003, 2.200404e-002
3.527166e+003, 2.117368e-002
3.529094e+003, 2.014290e-002
3.531022e+003, 2.093287e-002
3.532951e+003, 2.178498e-002
3.534879e+003, 2.042888e-002
3.536808e+003, 2.002510e-002
3.538736e+003, 2.034792e-002
3.540665e+003, 2.104995e-002
3.542593e+003, 2.136071e-002
3.544522e+003, 2.098406e-002
3.546450e+003, 2.186754e-002
3.548379e+003, 2.330891e-002
3.550307e+003, 2.361193e-002
3.552236e+003, 2.284779e-002
3.554164e+003, 2.248483e-002
3.556093e+003, 2.153341e-002
3.558021e+003, 2.185875e-002
3.559949e+003, 2.223503e-002
3.561878e+003, 2.180569e-002
3.563806e+003, 2.239819e-002
3.565735e+003, 2.211936e-002
3.567663e+003, 2.129318e-002
3.569592e+003, 2.159214e-002
3.571520e+003, 2.210033e-002
3.573449e+003, 2.083049e-002
3.575377e+003, 2.038997e-002
3.577306e+003, 2.046288e-002
3.579234e+003, 2.058846e-002
3.581163e+003, 2.266264e-002
3.583091e+003, 2.335239e-002
3.585020e+003, 2.269281e-002
3.586948e+003, 2.207610e-002
3.588876e+003, 2.030867e-002
3.590805e+003, 2.024617e-002
3.592733e+003, 2.066397e-002
3.594662e+003, 2.078522e-002
3.596590e+003, 2.140144e-002
3.598519e+003, 2.274562e-002
3.600447e+003, 2.189112e-002
3.602376e+003, 2.127560e-002
3.604304e+003, 2.237261e-002
3.606233e+003, 2.241640e-002
3.608161e+003, 2.239115e-002
3.610090e+003, 2.179161e-002
3.612018e+003, 2.174407e-002
3.613947e+003, 2.306028e-002
3.615875e+003, 2.219619e-002
3.617803e+003, 2.169602e-002
3.619732e+003, 2.378470e-002
3.621660e+003, 2.403321e-002
3.623589e+003, 2.236407e-002
3.625517e+003, 2.171411e-002
3.627446e+003, 2.190278e-002
3.629374e+003, 2.089565e-002
3.631303e+003, 2.215203e-002
3.633231e+003, 2.231395e-002
3.635160e+003, 2.224908e-002
3.637088e+003, 2.228026e-002
3.639017e+003, 2.210763e-002
3.640945e+003, 2.154361e-002
3.642874e+003, 1.903155e-002
3.644802e+003, 1.990603e-002
3.646730e+003, 2.155426e-002
3.648659e+003, 2.056060e-002
3.650587e+003, 2.088885e-002
3.652516e+003, 2.342045e-002
3.654444e+003, 2.380222e-002
3.656373e+003, 2.165921e-002
3.658301e+003, 2.179387e-002
3.660230e+003, 2.224294e-002
3.662158e+003, 2.095181e-002
3.664087e+003, 2.036782e-002
3.666015e+003, 2.043915e-002
3.667944e+003, 2.114131e-002
3.669872e+003, 2.071195e-002
3.671801e+003, 2.141559e-002
3.673729e+003, 2.228615e-002
3.675657e+003, 1.989729e-002
3.677586e+003, 1.925337e-002
3.679514e+003, 2.064456e-002
3.681443e+003, 2.122038e-002
3.683371e+003, 2.218994e-002
3.685300e+003, 2.260672e-002
3.687228e+003, 2.286058e-002
3.689157e+003, 2.044433e-002
3.691085e+003, 1.884423e-002
3.693014e+003, 1.757302e-002
3.694942e+003, 1.972323e-002
3.696871e+003, 2.178888e-002
3.698799e+003, 2.226715e-002
3.700728e+003, 2.093397e-002
3.702656e+003, 1.932638e-002
3.704584e+003, 1.950467e-002
3.706513e+003, 2.022432e-002
3.708441e+003, 2.041024e-002
3.710370e+003, 2.017593e-002
3.712298e+003, 1.872357e-002
3.714227e+003, 1.919738e-002
3.716155e+003, 2.118250e-002
3.718084e+003, 2.126165e-002
3.720012e+003, 2.031364e-002
3.721941e+003, 2.020011e-002
3.723869e+003, 1.990186e-002
3.725798e+003, 2.026065e-002
3.727726e+003, 2.082669e-002
3.729655e+003, 2.183822e-002
3.731583e+003, 2.221594e-002
3.733511e+003, 2.112478e-002
3.735440e+003, 2.052620e-002
3.737368e+003, 2.109035e-002
3.739297e+003, 2.175842e-002
3.741225e+003, 2.268657e-002
3.743154e+003, 2.235315e-002
3.745082e+003, 2.012743e-002
3.747011e+003, 2.123536e-002
3.748939e+003, 2.072391e-002
3.750868e+003, 2.161570e-002
3.752796e+003, 2.231933e-002
3.754725e+003, 2.349847e-002
3.756653e+003, 2.360791e-002
3.758582e+003, 2.345566e-002
3.760510e+003, 2.254470e-002
3.762438e+003, 2.169398e-002
3.764367e+003, 2.321189e-002
3.766295e+003, 2.328995e-002
3.768224e+003, 2.157081e-002
3.770152e+003, 2.052180e-002
3.772081e+003, 2.131818e-002
3.774009e+003, 2.123084e-002
3.775938e+003, 2.085723e-002
3.777866e+003, 2.235446e-002
3.779795e+003, 2.261385e-002
3.781723e+003, 2.240894e-002
3.783652e+003, 2.074061e-002
3.785580e+003, 2.098688e-002
3.787509e+003, 2.250260e-002
3.789437e+003, 2.288064e-002
3.791365e+003, 2.291148e-002
3.793294e+003, 2.235498e-002
3.795222e+003, 2.296183e-002
3.797151e+003, 2.294247e-002
3.799079e+003, 2.219781e-002
3.801008e+003, 2.204519e-002
3.802936e+003, 2.278530e-002
3.804865e+003, 2.279793e-002
3.806793e+003, 2.206118e-002
3.808722e+003, 2.185471e-002
3.810650e+003, 2.216965e-002
3.812579e+003, 2.159516e-002
3.814507e+003, 2.413024e-002
3.816436e+003, 2.476600e-002
3.818364e+003, 2.407485e-002
3.820292e+003, 2.367104e-002
3.822221e+003, 2.315106e-002
3.824149e+003, 2.352345e-002
3.826078e+003, 2.220239e-002
3.828006e+003, 2.328935e-002
3.829935e+003, 2.429027e-002
3.831863e+003, 2.270944e-002
3.833792e+003, 2.397121e-002
3.835720e+003, 2.305694e-002
3.837649e+003, 2.224405e-002
3.839577e+003, 2.295163e-002
3.841506e+003, 2.273178e-002
3.843434e+003, 2.224840e-002
3.845363e+003, 2.115791e-002
3.847291e+003, 2.211274e-002
3.849219e+003, 2.250663e-002
3.851148e+003, 2.134434e-002
3.853076e+003, 2.052885e-002
3.855005e+003, 1.931727e-002
3.856933e+003, 2.134201e-002
3.858862e+003, 2.272042e-002
3.860790e+003, 2.234944e-002
3.862719e+003, 2.169839e-002
3.864647e+003, 2.127380e-002
3.866576e+003, 2.057947e-002
3.868504e+003, 2.068045e-002
3.870433e+003, 2.113946e-002
3.872361e+003, 2.216581e-002
3.874290e+003, 2.202652e-002
3.876218e+003, 2.057281e-002
3.878146e+003, 1.960063e-002
3.880075e+003, 2.149892e-002
3.882003e+003, 2.320234e-002
3.883932e+003, 2.321404e-002
3.885860e+003, 2.209781e-002
3.887789e+003, 2.283673e-002
3.889717e+003, 2.217625e-002
3.891646e+003, 2.273025e-002
3.893574e+003, 2.648081e-002
3.895503e+003, 2.671872e-002
3.897431e+003, 2.406468e-002
3.899360e+003, 2.272360e-002
3.901288e+003, 2.413010e-002
3.903217e+003, 2.378340e-002
3.905145e+003, 2.351618e-002
3.907073e+003, 2.458625e-002
3.909002e+003, 2.396696e-002
3.910930e+003, 2.328133e-002
3.912859e+003, 2.282744e-002
3.914787e+003, 2.287320e-002
3.916716e+003, 2.457738e-002
3.918644e+003, 2.336222e-002
3.920573e+003, 2.240602e-002
3.922501e+003, 2.348390e-002
3.924430e+003, 2.417672e-002
3.926358e+003, 2.545304e-002
3.928287e+003, 2.396503e-002
3.930215e+003, 2.254540e-002
3.932144e+003, 2.140827e-002
3.934072e+003, 2.204593e-002
3.936000e+003, 2.171621e-002
3.937929e+003, 2.045655e-002
3.939857e+003, 2.102643e-002
3.941786e+003, 2.198121e-002
3.943714e+003, 2.162717e-002
3.945643e+003, 2.200385e-002
3.947571e+003, 2.296580e-002
3.949500e+003, 2.237825e-002
3.951428e+003, 2.390182e-002
3.953357e+003, 2.383224e-002
3.955285e+003, 2.316178e-002
3.957214e+003, 2.390017e-002
3.959142e+003, 2.368925e-002
3.961071e+003, 2.206158e-002
3.962999e+003, 2.149341e-002
3.964927e+003, 2.030625e-002
3.966856e+003, 2.044993e-002
3.968784e+003, 2.333863e-002
3.970713e+003, 2.524938e-002
3.972641e+003, 2.368629e-002
3.974570e+003, 2.203181e-002
3.976498e+003, 2.310962e-002
3.978427e+003, 2.330133e-002
3.980355e+003, 2.360714e-002
3.982284e+003, 2.530636e-002
3.984212e+003, 2.696100e-002
3.986141e+003, 2.536134e-002
3.988069e+003, 2.362661e-002
3.989998e+003, 2.254852e-002
3.991926e+003, 2.322905e-002
3.993854e+003, 2.378681e-002
3.995783e+003, 2.444047e-002
3.997711e+003, 2.596918e-002
3.999640e+003, 2.598384e-002
##END=



