##NAMES=Epidote
##RRUFFID=R050064
##IDEAL CHEMISTRY=Ca_2_Fe^3+^Al_2_(Si_2_O_7_)(SiO_4_)O(OH)
##LOCALITY=East Xichang City, Meigu County, Sichuan Province, China
##OWNER=RRUFF
##SOURCE=Rock Currier
##DESCRIPTION=Green prismatic crystals
##STATUS=The identification of this mineral has been confirmed by X-ray diffraction and chemical analysis
##URL=rruff.info/R050064
##MEASURED CHEMISTRY=(Ca_1.99_Mn_0.01_)_Î£=2_Fe^3+^_1.00_Al_2.00_(Si_2.00_O_7_)(Si_1.00_O_4_)O(OH); 
3.991926e+002, 0.000000e+000
4.011211e+002, 1.768416e-001
4.030496e+002, 1.777007e-001
4.049780e+002, 1.686748e-001
4.069065e+002, 1.646475e-001
4.088350e+002, 1.569028e-001
4.107634e+002, 1.467151e-001
4.126919e+002, 1.394168e-001
4.146204e+002, 1.352890e-001
4.165488e+002, 1.348194e-001
4.184773e+002, 1.339650e-001
4.204058e+002, 1.295929e-001
4.223342e+002, 1.255140e-001
4.242627e+002, 1.259082e-001
4.261912e+002, 1.278624e-001
4.281196e+002, 1.294612e-001
4.300481e+002, 1.310074e-001
4.319766e+002, 1.339160e-001
4.339050e+002, 1.368042e-001
4.358335e+002, 1.392345e-001
4.377620e+002, 1.439516e-001
4.396904e+002, 1.512343e-001
4.416189e+002, 1.590797e-001
4.435474e+002, 1.657115e-001
4.454758e+002, 1.709362e-001
4.474043e+002, 1.754496e-001
4.493328e+002, 1.777738e-001
4.512612e+002, 1.767205e-001
4.531897e+002, 1.732994e-001
4.551182e+002, 1.679179e-001
4.570466e+002, 1.616676e-001
4.589751e+002, 1.567723e-001
4.609036e+002, 1.528635e-001
4.628320e+002, 1.492822e-001
4.647605e+002, 1.463258e-001
4.666890e+002, 1.427788e-001
4.686174e+002, 1.369204e-001
4.705459e+002, 1.292115e-001
4.724744e+002, 1.219862e-001
4.744028e+002, 1.173621e-001
4.763313e+002, 1.151651e-001
4.782598e+002, 1.149032e-001
4.801882e+002, 1.167493e-001
4.821167e+002, 1.211573e-001
4.840452e+002, 1.268782e-001
4.859736e+002, 1.340757e-001
4.879021e+002, 1.426522e-001
4.898306e+002, 1.510622e-001
4.917590e+002, 1.601666e-001
4.936875e+002, 1.692239e-001
4.956160e+002, 1.778405e-001
4.975444e+002, 1.852014e-001
4.994729e+002, 1.919098e-001
5.014014e+002, 1.983908e-001
5.033298e+002, 2.036279e-001
5.052583e+002, 2.074660e-001
5.071868e+002, 2.098854e-001
5.091152e+002, 2.098200e-001
5.110437e+002, 2.086013e-001
5.129722e+002, 2.060959e-001
5.149006e+002, 2.017614e-001
5.168291e+002, 1.963112e-001
5.187576e+002, 1.900265e-001
5.206860e+002, 1.828977e-001
5.226145e+002, 1.764554e-001
5.245430e+002, 1.705913e-001
5.264714e+002, 1.647531e-001
5.283999e+002, 1.591421e-001
5.303284e+002, 1.538237e-001
5.322568e+002, 1.501487e-001
5.341853e+002, 1.475203e-001
5.361138e+002, 1.450674e-001
5.380422e+002, 1.427961e-001
5.399707e+002, 1.407665e-001
5.418992e+002, 1.391425e-001
5.438276e+002, 1.377902e-001
5.457561e+002, 1.371876e-001
5.476846e+002, 1.373226e-001
5.496130e+002, 1.369403e-001
5.515415e+002, 1.366414e-001
5.534700e+002, 1.360279e-001
5.553984e+002, 1.353789e-001
5.573269e+002, 1.351357e-001
5.592554e+002, 1.354738e-001
5.611838e+002, 1.355041e-001
5.631123e+002, 1.338791e-001
5.650408e+002, 1.317226e-001
5.669692e+002, 1.294923e-001
5.688977e+002, 1.267046e-001
5.708262e+002, 1.234435e-001
5.727546e+002, 1.197671e-001
5.746831e+002, 1.156356e-001
5.766116e+002, 1.112688e-001
5.785400e+002, 1.072115e-001
5.804685e+002, 1.043421e-001
5.823970e+002, 1.020146e-001
5.843254e+002, 9.943186e-002
5.862539e+002, 9.656588e-002
5.881824e+002, 9.365267e-002
5.901108e+002, 9.103072e-002
5.920393e+002, 8.878221e-002
5.939678e+002, 8.705087e-002
5.958962e+002, 8.537650e-002
5.978247e+002, 8.309008e-002
5.997532e+002, 8.040278e-002
6.016816e+002, 7.772779e-002
6.036101e+002, 7.551567e-002
6.055386e+002, 7.430200e-002
6.074670e+002, 7.461979e-002
6.093955e+002, 7.602188e-002
6.113240e+002, 7.855742e-002
6.132524e+002, 8.262607e-002
6.151809e+002, 8.778464e-002
6.171094e+002, 9.419980e-002
6.190378e+002, 1.024505e-001
6.209663e+002, 1.117061e-001
6.228948e+002, 1.213068e-001
6.248232e+002, 1.296778e-001
6.267517e+002, 1.355415e-001
6.286802e+002, 1.396449e-001
6.306086e+002, 1.434362e-001
6.325371e+002, 1.476001e-001
6.344656e+002, 1.518520e-001
6.363940e+002, 1.556824e-001
6.383225e+002, 1.594218e-001
6.402510e+002, 1.623362e-001
6.421794e+002, 1.637497e-001
6.441079e+002, 1.631360e-001
6.460364e+002, 1.603568e-001
6.479648e+002, 1.564044e-001
6.498933e+002, 1.512150e-001
6.518218e+002, 1.454068e-001
6.537502e+002, 1.390997e-001
6.556787e+002, 1.324502e-001
6.576072e+002, 1.260412e-001
6.595356e+002, 1.201433e-001
6.614641e+002, 1.141023e-001
6.633926e+002, 1.084912e-001
6.653210e+002, 1.035403e-001
6.672495e+002, 9.872703e-002
6.691780e+002, 9.397110e-002
6.711064e+002, 8.960059e-002
6.730349e+002, 8.556242e-002
6.749634e+002, 8.161264e-002
6.768918e+002, 7.790950e-002
6.788203e+002, 7.384364e-002
6.807488e+002, 6.928571e-002
6.826772e+002, 6.467041e-002
6.846057e+002, 6.038383e-002
6.865342e+002, 5.632474e-002
6.884626e+002, 5.242489e-002
6.903911e+002, 4.902359e-002
6.923196e+002, 4.589961e-002
6.942480e+002, 4.354961e-002
6.961765e+002, 4.169396e-002
6.981050e+002, 4.037190e-002
7.000334e+002, 3.949895e-002
7.019619e+002, 3.873580e-002
7.038904e+002, 3.841005e-002
7.058188e+002, 3.889782e-002
7.077473e+002, 4.002536e-002
7.096758e+002, 4.161257e-002
7.116042e+002, 4.376666e-002
7.135327e+002, 4.576986e-002
7.154612e+002, 4.687148e-002
7.173896e+002, 4.644043e-002
7.193181e+002, 4.462661e-002
7.212466e+002, 4.179491e-002
7.231750e+002, 3.845101e-002
7.251035e+002, 3.518621e-002
7.270320e+002, 3.241320e-002
7.289604e+002, 3.004600e-002
7.308889e+002, 2.858563e-002
7.328174e+002, 2.778649e-002
7.347458e+002, 2.721746e-002
7.366743e+002, 2.689919e-002
7.386028e+002, 2.681324e-002
7.405313e+002, 2.705508e-002
7.424597e+002, 2.736041e-002
7.443882e+002, 2.766304e-002
7.463167e+002, 2.785724e-002
7.482451e+002, 2.825425e-002
7.501736e+002, 2.874086e-002
7.521021e+002, 2.952909e-002
7.540305e+002, 3.037848e-002
7.559590e+002, 3.102743e-002
7.578875e+002, 3.178141e-002
7.598159e+002, 3.246591e-002
7.617444e+002, 3.337128e-002
7.636729e+002, 3.453537e-002
7.656013e+002, 3.573319e-002
7.675298e+002, 3.689256e-002
7.694583e+002, 3.816135e-002
7.713867e+002, 3.967193e-002
7.733152e+002, 4.113476e-002
7.752437e+002, 4.274440e-002
7.771721e+002, 4.442124e-002
7.791006e+002, 4.577862e-002
7.810291e+002, 4.750054e-002
7.829575e+002, 4.956022e-002
7.848860e+002, 5.166680e-002
7.868145e+002, 5.395452e-002
7.887429e+002, 5.650656e-002
7.906714e+002, 5.937864e-002
7.925999e+002, 6.236121e-002
7.945283e+002, 6.535119e-002
7.964568e+002, 6.881080e-002
7.983853e+002, 7.294121e-002
8.003137e+002, 7.712680e-002
8.022422e+002, 8.123685e-002
8.041707e+002, 8.548736e-002
8.060991e+002, 9.022353e-002
8.080276e+002, 9.567108e-002
8.099561e+002, 1.015114e-001
8.118845e+002, 1.076946e-001
8.138130e+002, 1.140033e-001
8.157415e+002, 1.206589e-001
8.176699e+002, 1.274998e-001
8.195984e+002, 1.345984e-001
8.215269e+002, 1.415074e-001
8.234553e+002, 1.477842e-001
8.253838e+002, 1.535395e-001
8.273123e+002, 1.587395e-001
8.292407e+002, 1.629307e-001
8.311692e+002, 1.659219e-001
8.330977e+002, 1.671807e-001
8.350261e+002, 1.667321e-001
8.369546e+002, 1.652323e-001
8.388831e+002, 1.639313e-001
8.408115e+002, 1.637408e-001
8.427400e+002, 1.650153e-001
8.446685e+002, 1.677735e-001
8.465969e+002, 1.717409e-001
8.485254e+002, 1.767085e-001
8.504539e+002, 1.820293e-001
8.523823e+002, 1.871846e-001
8.543108e+002, 1.915942e-001
8.562393e+002, 1.942101e-001
8.581677e+002, 1.949213e-001
8.600962e+002, 1.944573e-001
8.620247e+002, 1.940581e-001
8.639531e+002, 1.953745e-001
8.658816e+002, 1.991996e-001
8.678101e+002, 2.054707e-001
8.697385e+002, 2.124917e-001
8.716670e+002, 2.188177e-001
8.735955e+002, 2.231867e-001
8.755239e+002, 2.252173e-001
8.774524e+002, 2.250191e-001
8.793809e+002, 2.229042e-001
8.813093e+002, 2.190574e-001
8.832378e+002, 2.143054e-001
8.851663e+002, 2.090648e-001
8.870947e+002, 2.036431e-001
8.890232e+002, 1.986297e-001
8.909517e+002, 1.937041e-001
8.928801e+002, 1.891698e-001
8.948085e+002, 1.855127e-001
8.967370e+002, 1.823189e-001
8.986655e+002, 1.791597e-001
9.005939e+002, 1.758755e-001
9.025224e+002, 1.720974e-001
9.044509e+002, 1.676860e-001
9.063793e+002, 1.627110e-001
9.083078e+002, 1.584425e-001
9.102363e+002, 1.549289e-001
9.121647e+002, 1.524685e-001
9.140932e+002, 1.513365e-001
9.160217e+002, 1.513010e-001
9.179501e+002, 1.523406e-001
9.198786e+002, 1.547169e-001
9.218071e+002, 1.581875e-001
9.237355e+002, 1.627212e-001
9.256640e+002, 1.688208e-001
9.275925e+002, 1.763041e-001
9.295209e+002, 1.846807e-001
9.314494e+002, 1.930719e-001
9.333779e+002, 2.007608e-001
9.353063e+002, 2.080657e-001
9.372348e+002, 2.144527e-001
9.391633e+002, 2.198781e-001
9.410917e+002, 2.242094e-001
9.430202e+002, 2.265741e-001
9.449487e+002, 2.270275e-001
9.468771e+002, 2.257646e-001
9.488056e+002, 2.221223e-001
9.507341e+002, 2.164301e-001
9.526625e+002, 2.088333e-001
9.545910e+002, 1.997399e-001
9.565195e+002, 1.900427e-001
9.584479e+002, 1.799326e-001
9.603764e+002, 1.695860e-001
9.623049e+002, 1.594281e-001
9.642333e+002, 1.495141e-001
9.661618e+002, 1.399736e-001
9.680903e+002, 1.305313e-001
9.700187e+002, 1.215929e-001
9.719472e+002, 1.133538e-001
9.738757e+002, 1.057741e-001
9.758041e+002, 9.897889e-002
9.777326e+002, 9.270475e-002
9.796611e+002, 8.679578e-002
9.815895e+002, 8.145141e-002
9.835180e+002, 7.649842e-002
9.854465e+002, 7.185255e-002
9.873749e+002, 6.755222e-002
9.893034e+002, 6.368219e-002
9.912319e+002, 6.006402e-002
9.931603e+002, 5.692611e-002
9.950888e+002, 5.398349e-002
9.970173e+002, 5.116773e-002
9.989457e+002, 4.864730e-002
1.000874e+003, 4.657989e-002
1.002803e+003, 4.498857e-002
1.004731e+003, 4.381679e-002
1.006660e+003, 4.313304e-002
1.008588e+003, 4.312634e-002
1.010517e+003, 4.360714e-002
1.012445e+003, 4.461697e-002
1.014373e+003, 4.652910e-002
1.016302e+003, 4.959540e-002
1.018230e+003, 5.378255e-002
1.020159e+003, 5.913069e-002
1.022087e+003, 6.596816e-002
1.024016e+003, 7.442369e-002
1.025944e+003, 8.373871e-002
1.027873e+003, 9.266493e-002
1.029801e+003, 9.961308e-002
1.031730e+003, 1.031153e-001
1.033658e+003, 1.031477e-001
1.035587e+003, 1.003694e-001
1.037515e+003, 9.591647e-002
1.039444e+003, 9.073873e-002
1.041372e+003, 8.530176e-002
1.043301e+003, 8.034378e-002
1.045229e+003, 7.620612e-002
1.047157e+003, 7.279111e-002
1.049086e+003, 7.013597e-002
1.051014e+003, 6.848292e-002
1.052943e+003, 6.788865e-002
1.054871e+003, 6.827916e-002
1.056800e+003, 6.973223e-002
1.058728e+003, 7.272140e-002
1.060657e+003, 7.677294e-002
1.062585e+003, 8.181719e-002
1.064514e+003, 8.764589e-002
1.066442e+003, 9.331036e-002
1.068371e+003, 9.789371e-002
1.070299e+003, 1.012701e-001
1.072228e+003, 1.034445e-001
1.074156e+003, 1.039598e-001
1.076084e+003, 1.030782e-001
1.078013e+003, 1.012370e-001
1.079941e+003, 9.883276e-002
1.081870e+003, 9.592551e-002
1.083798e+003, 9.289234e-002
1.085727e+003, 8.988662e-002
1.087655e+003, 8.695955e-002
1.089584e+003, 8.473370e-002
1.091512e+003, 8.339135e-002
1.093441e+003, 8.300574e-002
1.095369e+003, 8.368868e-002
1.097298e+003, 8.485537e-002
1.099226e+003, 8.600891e-002
1.101155e+003, 8.679612e-002
1.103083e+003, 8.673304e-002
1.105011e+003, 8.568833e-002
1.106940e+003, 8.411691e-002
1.108868e+003, 8.189782e-002
1.110797e+003, 7.909284e-002
1.112725e+003, 7.582445e-002
1.114654e+003, 7.195655e-002
1.116582e+003, 6.794687e-002
1.118511e+003, 6.374282e-002
1.120439e+003, 5.945304e-002
1.122368e+003, 5.481409e-002
1.124296e+003, 4.983468e-002
1.126225e+003, 4.509750e-002
1.128153e+003, 4.073280e-002
1.130082e+003, 3.652900e-002
1.132010e+003, 3.247141e-002
1.133938e+003, 2.892265e-002
1.135867e+003, 2.594166e-002
1.137795e+003, 2.339055e-002
1.139724e+003, 2.116933e-002
1.141652e+003, 1.917231e-002
1.143581e+003, 1.755582e-002
1.145509e+003, 1.632770e-002
1.147438e+003, 1.527301e-002
1.149366e+003, 1.434356e-002
1.151295e+003, 1.352764e-002
1.153223e+003, 1.269786e-002
1.155152e+003, 1.210382e-002
1.157080e+003, 1.148102e-002
1.159009e+003, 1.088965e-002
1.160937e+003, 1.041585e-002
1.162865e+003, 1.006071e-002
1.164794e+003, 9.607440e-003
1.166722e+003, 9.112418e-003
1.168651e+003, 8.785752e-003
1.170579e+003, 8.436135e-003
1.172508e+003, 8.029054e-003
1.174436e+003, 7.737644e-003
1.176365e+003, 7.415414e-003
1.178293e+003, 7.068509e-003
1.180222e+003, 6.769734e-003
1.182150e+003, 6.798968e-003
1.184079e+003, 6.684259e-003
1.186007e+003, 6.419559e-003
1.187936e+003, 6.302712e-003
1.189864e+003, 6.144653e-003
1.191792e+003, 5.890915e-003
1.193721e+003, 5.504801e-003
1.195649e+003, 5.282345e-003
1.197578e+003, 5.295269e-003
1.199506e+003, 5.095753e-003
1.201435e+003, 4.932418e-003
1.203363e+003, 4.836279e-003
1.205292e+003, 4.654658e-003
1.207220e+003, 4.518404e-003
1.209149e+003, 4.374920e-003
1.211077e+003, 4.179795e-003
1.213006e+003, 4.135290e-003
1.214934e+003, 4.191530e-003
1.216863e+003, 4.055734e-003
1.218791e+003, 3.861439e-003
1.220719e+003, 3.815762e-003
1.222648e+003, 3.789158e-003
1.224576e+003, 3.768452e-003
1.226505e+003, 3.676210e-003
1.228433e+003, 3.634012e-003
1.230362e+003, 3.648140e-003
1.232290e+003, 3.643202e-003
1.234219e+003, 3.690492e-003
1.236147e+003, 3.740987e-003
1.238076e+003, 3.815973e-003
1.240004e+003, 3.801008e-003
1.241933e+003, 3.829581e-003
1.243861e+003, 3.870225e-003
1.245790e+003, 3.864525e-003
1.247718e+003, 3.883863e-003
1.249646e+003, 3.839566e-003
1.251575e+003, 3.751965e-003
1.253503e+003, 3.808116e-003
1.255432e+003, 4.037204e-003
1.257360e+003, 4.125616e-003
1.259289e+003, 3.988491e-003
1.261217e+003, 3.746707e-003
1.263146e+003, 3.596545e-003
1.265074e+003, 3.586091e-003
1.267003e+003, 3.768964e-003
1.268931e+003, 3.951551e-003
1.270860e+003, 3.907183e-003
1.272788e+003, 3.800311e-003
1.274717e+003, 3.839183e-003
1.276645e+003, 3.823486e-003
1.278573e+003, 3.742335e-003
1.280502e+003, 3.770128e-003
1.282430e+003, 3.750594e-003
1.284359e+003, 3.679516e-003
1.286287e+003, 3.727391e-003
1.288216e+003, 3.772041e-003
1.290144e+003, 3.841713e-003
1.292073e+003, 3.878677e-003
1.294001e+003, 3.823838e-003
1.295930e+003, 3.907919e-003
1.297858e+003, 3.882316e-003
1.299787e+003, 3.827061e-003
1.301715e+003, 3.765596e-003
1.303644e+003, 3.658431e-003
1.305572e+003, 3.611838e-003
1.307500e+003, 3.836627e-003
1.309429e+003, 3.860236e-003
1.311357e+003, 3.822508e-003
1.313286e+003, 3.863666e-003
1.315214e+003, 3.862195e-003
1.317143e+003, 3.875293e-003
1.319071e+003, 4.051404e-003
1.321000e+003, 4.079100e-003
1.322928e+003, 4.083303e-003
1.324857e+003, 4.121369e-003
1.326785e+003, 4.124557e-003
1.328714e+003, 4.333514e-003
1.330642e+003, 4.501609e-003
1.332571e+003, 4.392368e-003
1.334499e+003, 4.392975e-003
1.336427e+003, 4.532410e-003
1.338356e+003, 4.568316e-003
1.340284e+003, 4.468210e-003
1.342213e+003, 4.539065e-003
1.344141e+003, 4.674212e-003
1.346070e+003, 4.616328e-003
1.347998e+003, 4.622778e-003
1.349927e+003, 4.712536e-003
1.351855e+003, 4.952320e-003
1.353784e+003, 5.121461e-003
1.355712e+003, 5.135681e-003
1.357641e+003, 5.186593e-003
1.359569e+003, 5.199368e-003
1.361498e+003, 5.181089e-003
1.363426e+003, 5.014122e-003
1.365354e+003, 5.217039e-003
1.367283e+003, 5.359113e-003
1.369211e+003, 5.245524e-003
1.371140e+003, 5.210580e-003
1.373068e+003, 5.233333e-003
1.374997e+003, 5.143652e-003
1.376925e+003, 5.255715e-003
1.378854e+003, 5.300734e-003
1.380782e+003, 5.188208e-003
1.382711e+003, 5.213709e-003
1.384639e+003, 5.270113e-003
1.386568e+003, 5.342619e-003
1.388496e+003, 5.306101e-003
1.390424e+003, 5.409663e-003
1.392353e+003, 5.414063e-003
1.394281e+003, 5.394136e-003
1.396210e+003, 5.710952e-003
1.398138e+003, 5.925713e-003
1.400067e+003, 5.639672e-003
1.401995e+003, 5.633532e-003
1.403924e+003, 5.701391e-003
1.405852e+003, 5.681266e-003
1.407781e+003, 5.739283e-003
1.409709e+003, 5.790268e-003
1.411638e+003, 5.904254e-003
1.413566e+003, 5.959680e-003
1.415495e+003, 5.982182e-003
1.417423e+003, 5.997390e-003
1.419351e+003, 5.845848e-003
1.421280e+003, 5.802942e-003
1.423208e+003, 5.974431e-003
1.425137e+003, 5.965986e-003
1.427065e+003, 5.983602e-003
1.428994e+003, 6.105246e-003
1.430922e+003, 6.055148e-003
1.432851e+003, 5.913502e-003
1.434779e+003, 5.953803e-003
1.436708e+003, 5.951859e-003
1.438636e+003, 6.030618e-003
1.440565e+003, 6.019371e-003
1.442493e+003, 6.042575e-003
1.444422e+003, 6.127699e-003
1.446350e+003, 6.333769e-003
1.448278e+003, 6.409810e-003
1.450207e+003, 6.496495e-003
1.452135e+003, 6.461140e-003
1.454064e+003, 6.238530e-003
1.455992e+003, 5.926507e-003
1.457921e+003, 5.868378e-003
1.459849e+003, 6.256334e-003
1.461778e+003, 6.334888e-003
1.463706e+003, 6.283671e-003
1.465635e+003, 6.073143e-003
1.467563e+003, 6.211396e-003
1.469492e+003, 6.297423e-003
1.471420e+003, 6.525718e-003
1.473349e+003, 6.472201e-003
1.475277e+003, 6.344818e-003
1.477205e+003, 6.081535e-003
1.479134e+003, 6.048721e-003
1.481062e+003, 6.064742e-003
1.482991e+003, 6.220198e-003
1.484919e+003, 6.224889e-003
1.486848e+003, 6.111313e-003
1.488776e+003, 6.076732e-003
1.490705e+003, 6.335685e-003
1.492633e+003, 6.542669e-003
1.494562e+003, 6.493907e-003
1.496490e+003, 6.402039e-003
1.498419e+003, 6.427772e-003
1.500347e+003, 6.414292e-003
1.502276e+003, 6.567314e-003
1.504204e+003, 6.508592e-003
1.506132e+003, 6.120607e-003
1.508061e+003, 5.972189e-003
1.509989e+003, 6.332039e-003
1.511918e+003, 6.621708e-003
1.513846e+003, 6.627155e-003
1.515775e+003, 6.563395e-003
1.517703e+003, 6.586126e-003
1.519632e+003, 6.914221e-003
1.521560e+003, 6.719049e-003
1.523489e+003, 6.806750e-003
1.525417e+003, 7.110250e-003
1.527346e+003, 7.054007e-003
1.529274e+003, 6.886913e-003
1.531203e+003, 7.037374e-003
1.533131e+003, 7.183910e-003
1.535059e+003, 7.363815e-003
1.536988e+003, 7.604734e-003
1.538916e+003, 7.565910e-003
1.540845e+003, 7.435422e-003
1.542773e+003, 7.673580e-003
1.544702e+003, 8.067917e-003
1.546630e+003, 8.146235e-003
1.548559e+003, 7.923487e-003
1.550487e+003, 7.903785e-003
1.552416e+003, 8.123037e-003
1.554344e+003, 8.109201e-003
1.556273e+003, 8.225251e-003
1.558201e+003, 8.309042e-003
1.560130e+003, 8.413969e-003
1.562058e+003, 8.862177e-003
1.563986e+003, 9.039885e-003
1.565915e+003, 8.966079e-003
1.567843e+003, 9.050617e-003
1.569772e+003, 9.141567e-003
1.571700e+003, 9.446584e-003
1.573629e+003, 9.692573e-003
1.575557e+003, 9.840578e-003
1.577486e+003, 9.784226e-003
1.579414e+003, 9.815772e-003
1.581343e+003, 9.857210e-003
1.583271e+003, 9.956273e-003
1.585200e+003, 9.905117e-003
1.587128e+003, 1.008172e-002
1.589057e+003, 1.023074e-002
1.590985e+003, 1.020411e-002
1.592913e+003, 1.018820e-002
1.594842e+003, 1.005861e-002
1.596770e+003, 1.012186e-002
1.598699e+003, 1.031901e-002
1.600627e+003, 1.040785e-002
1.602556e+003, 1.047580e-002
1.604484e+003, 1.037792e-002
1.606413e+003, 1.026047e-002
1.608341e+003, 1.028243e-002
1.610270e+003, 1.030184e-002
1.612198e+003, 1.023613e-002
1.614127e+003, 1.018987e-002
1.616055e+003, 9.923588e-003
1.617984e+003, 9.749355e-003
1.619912e+003, 9.857366e-003
1.621840e+003, 9.564709e-003
1.623769e+003, 9.509466e-003
1.625697e+003, 9.810180e-003
1.627626e+003, 9.821502e-003
1.629554e+003, 9.665994e-003
1.631483e+003, 9.676971e-003
1.633411e+003, 9.693591e-003
1.635340e+003, 9.450427e-003
1.637268e+003, 9.369514e-003
1.639197e+003, 9.514517e-003
1.641125e+003, 9.496392e-003
1.643054e+003, 9.539639e-003
1.644982e+003, 9.455236e-003
1.646911e+003, 9.181990e-003
1.648839e+003, 9.357265e-003
1.650767e+003, 9.618403e-003
1.652696e+003, 9.345455e-003
1.654624e+003, 8.976758e-003
1.656553e+003, 9.362952e-003
1.658481e+003, 9.523797e-003
1.660410e+003, 9.489325e-003
1.662338e+003, 9.506831e-003
1.664267e+003, 9.457844e-003
1.666195e+003, 9.315967e-003
1.668124e+003, 9.197929e-003
1.670052e+003, 9.056009e-003
1.671981e+003, 9.365043e-003
1.673909e+003, 9.621197e-003
1.675838e+003, 9.331667e-003
1.677766e+003, 9.370577e-003
1.679694e+003, 9.511511e-003
1.681623e+003, 9.498752e-003
1.683551e+003, 9.166726e-003
1.685480e+003, 8.752939e-003
1.687408e+003, 9.241915e-003
1.689337e+003, 9.536366e-003
1.691265e+003, 9.412082e-003
1.693194e+003, 9.224650e-003
1.695122e+003, 9.059941e-003
1.697051e+003, 8.781906e-003
1.698979e+003, 8.988197e-003
1.700908e+003, 8.621635e-003
1.702836e+003, 8.987477e-003
1.704765e+003, 8.920520e-003
1.706693e+003, 8.968877e-003
1.708621e+003, 9.148928e-003
1.710550e+003, 9.012347e-003
1.712478e+003, 8.740689e-003
1.714407e+003, 8.655035e-003
1.716335e+003, 8.656912e-003
1.718264e+003, 8.426910e-003
1.720192e+003, 8.719169e-003
1.722121e+003, 8.942949e-003
1.724049e+003, 8.908055e-003
1.725978e+003, 8.916446e-003
1.727906e+003, 9.053950e-003
1.729835e+003, 8.826886e-003
1.731763e+003, 8.634785e-003
1.733692e+003, 8.577863e-003
1.735620e+003, 8.260448e-003
1.737548e+003, 8.409567e-003
1.739477e+003, 8.294676e-003
1.741405e+003, 8.043675e-003
1.743334e+003, 7.999071e-003
1.745262e+003, 8.149229e-003
1.747191e+003, 8.127841e-003
1.749119e+003, 8.134685e-003
1.751048e+003, 8.146644e-003
1.752976e+003, 8.397496e-003
1.754905e+003, 8.629848e-003
1.756833e+003, 8.645201e-003
1.758762e+003, 8.773239e-003
1.760690e+003, 8.676879e-003
1.762619e+003, 8.575182e-003
1.764547e+003, 8.748459e-003
1.766475e+003, 8.707967e-003
1.768404e+003, 8.410714e-003
1.770332e+003, 8.252258e-003
1.772261e+003, 8.174873e-003
1.774189e+003, 8.334681e-003
1.776118e+003, 8.456777e-003
1.778046e+003, 8.554527e-003
1.779975e+003, 8.812728e-003
1.781903e+003, 9.027503e-003
1.783832e+003, 8.959861e-003
1.785760e+003, 8.658029e-003
1.787689e+003, 8.328129e-003
1.789617e+003, 8.427555e-003
1.791546e+003, 8.562109e-003
1.793474e+003, 8.236511e-003
1.795402e+003, 8.382968e-003
1.797331e+003, 8.724128e-003
1.799259e+003, 8.842588e-003
1.801188e+003, 8.584829e-003
1.803116e+003, 8.436559e-003
1.805045e+003, 8.607515e-003
1.806973e+003, 8.546439e-003
1.808902e+003, 8.610629e-003
1.810830e+003, 8.825333e-003
1.812759e+003, 8.573471e-003
1.814687e+003, 8.134942e-003
1.816616e+003, 8.135792e-003
1.818544e+003, 8.411583e-003
1.820473e+003, 8.710765e-003
1.822401e+003, 8.930759e-003
1.824329e+003, 8.768721e-003
1.826258e+003, 8.484599e-003
1.828186e+003, 8.806757e-003
1.830115e+003, 8.918480e-003
1.832043e+003, 8.613595e-003
1.833972e+003, 8.232358e-003
1.835900e+003, 8.075741e-003
1.837829e+003, 8.145847e-003
1.839757e+003, 8.539811e-003
1.841686e+003, 8.706542e-003
1.843614e+003, 8.735371e-003
1.845543e+003, 8.195341e-003
1.847471e+003, 8.207218e-003
1.849400e+003, 8.474192e-003
1.851328e+003, 8.672089e-003
1.853256e+003, 8.715048e-003
1.855185e+003, 8.343818e-003
1.857113e+003, 8.186643e-003
1.859042e+003, 8.519245e-003
1.860970e+003, 8.736526e-003
1.862899e+003, 7.834174e-003
1.864827e+003, 7.491840e-003
1.866756e+003, 8.046911e-003
1.868684e+003, 8.164945e-003
1.870613e+003, 7.984199e-003
1.872541e+003, 8.185063e-003
1.874470e+003, 8.164870e-003
1.876398e+003, 7.809062e-003
1.878327e+003, 7.845168e-003
1.880255e+003, 8.010504e-003
1.882183e+003, 8.049555e-003
1.884112e+003, 8.274563e-003
1.886040e+003, 8.438624e-003
1.887969e+003, 8.010914e-003
1.889897e+003, 7.927705e-003
1.891826e+003, 8.235087e-003
1.893754e+003, 7.923668e-003
1.895683e+003, 7.455856e-003
1.897611e+003, 7.881137e-003
1.899540e+003, 7.988420e-003
1.901468e+003, 7.811188e-003
1.903397e+003, 8.047719e-003
1.905325e+003, 7.794708e-003
1.907254e+003, 7.271020e-003
1.909182e+003, 7.022670e-003
1.911110e+003, 7.177459e-003
1.913039e+003, 7.818678e-003
1.914967e+003, 8.499294e-003
1.916896e+003, 8.758051e-003
1.918824e+003, 7.957670e-003
1.920753e+003, 7.245646e-003
1.922681e+003, 7.389303e-003
1.924610e+003, 7.925812e-003
1.926538e+003, 7.814439e-003
1.928467e+003, 7.935657e-003
1.930395e+003, 8.309756e-003
1.932324e+003, 7.370894e-003
1.934252e+003, 6.893031e-003
1.936181e+003, 7.224591e-003
1.938109e+003, 7.419959e-003
1.940037e+003, 7.711838e-003
1.941966e+003, 8.010940e-003
1.943894e+003, 8.858467e-003
1.945823e+003, 9.201731e-003
1.947751e+003, 8.852845e-003
1.949680e+003, 8.316172e-003
1.951608e+003, 7.161035e-003
1.953537e+003, 7.259498e-003
1.955465e+003, 9.061940e-003
1.957394e+003, 9.031847e-003
1.959322e+003, 7.904420e-003
1.961251e+003, 6.771619e-003
1.963179e+003, 6.756285e-003
1.965108e+003, 8.855577e-003
1.967036e+003, 8.871362e-003
1.968964e+003, 7.142317e-003
1.970893e+003, 6.697883e-003
1.972821e+003, 6.968044e-003
1.974750e+003, 6.054668e-003
1.976678e+003, 7.139931e-003
1.978607e+003, 9.612074e-003
1.980535e+003, 1.071987e-002
1.982464e+003, 9.927655e-003
1.984392e+003, 9.227886e-003
1.986321e+003, 8.196161e-003
1.988249e+003, 7.808685e-003
1.990178e+003, 8.956462e-003
1.992106e+003, 9.157913e-003
1.994035e+003, 9.422344e-003
1.995963e+003, 9.927268e-003
1.997891e+003, 9.322652e-003
1.999820e+003, 9.440188e-003
2.001748e+003, 8.915453e-003
2.003677e+003, 8.490817e-003
2.005605e+003, 8.141867e-003
2.007534e+003, 8.898717e-003
2.009462e+003, 9.652967e-003
2.011391e+003, 1.007466e-002
2.013319e+003, 9.441506e-003
2.015248e+003, 9.845831e-003
2.017176e+003, 1.008430e-002
2.019105e+003, 1.064126e-002
2.021033e+003, 9.825628e-003
2.022962e+003, 8.892987e-003
2.024890e+003, 9.004105e-003
2.026818e+003, 9.584253e-003
2.028747e+003, 1.102578e-002
2.030675e+003, 1.373455e-002
2.032604e+003, 1.388650e-002
2.034532e+003, 1.173193e-002
2.036461e+003, 1.093468e-002
2.038389e+003, 1.093619e-002
2.040318e+003, 1.059822e-002
2.042246e+003, 1.105038e-002
2.044175e+003, 1.208953e-002
2.046103e+003, 1.263751e-002
2.048032e+003, 1.143562e-002
2.049960e+003, 1.016834e-002
2.051889e+003, 9.466635e-003
2.053817e+003, 1.062638e-002
2.055746e+003, 1.118165e-002
2.057674e+003, 1.033176e-002
2.059603e+003, 1.008486e-002
2.061531e+003, 1.040845e-002
2.063459e+003, 9.867288e-003
2.065388e+003, 1.049675e-002
2.067316e+003, 9.987254e-003
2.069245e+003, 9.184760e-003
2.071173e+003, 9.404042e-003
2.073102e+003, 9.363720e-003
2.075030e+003, 9.741483e-003
2.076959e+003, 9.812869e-003
2.078887e+003, 9.272018e-003
2.080816e+003, 9.970477e-003
2.082744e+003, 1.118754e-002
2.084673e+003, 1.092246e-002
2.086601e+003, 1.059193e-002
2.088530e+003, 1.098867e-002
2.090458e+003, 1.087410e-002
2.092386e+003, 1.096025e-002
2.094315e+003, 1.122415e-002
2.096243e+003, 1.097577e-002
2.098172e+003, 1.120338e-002
2.100100e+003, 1.116647e-002
2.102029e+003, 1.097280e-002
2.103957e+003, 1.169286e-002
2.105886e+003, 1.142117e-002
2.107814e+003, 1.114357e-002
2.109743e+003, 1.196278e-002
2.111671e+003, 1.214770e-002
2.113600e+003, 1.205051e-002
2.115528e+003, 1.110548e-002
2.117457e+003, 1.015705e-002
2.119385e+003, 1.019103e-002
2.121313e+003, 1.019152e-002
2.123242e+003, 1.071207e-002
2.125170e+003, 1.075736e-002
2.127099e+003, 1.065996e-002
2.129027e+003, 9.655597e-003
2.130956e+003, 7.614689e-003
2.132884e+003, 6.414264e-003
2.134813e+003, 7.187227e-003
2.136741e+003, 8.347333e-003
2.138670e+003, 7.866510e-003
2.140598e+003, 7.089751e-003
2.142527e+003, 7.318693e-003
2.144455e+003, 7.795307e-003
2.146384e+003, 6.639118e-003
2.148312e+003, 6.237746e-003
2.150240e+003, 6.685409e-003
2.152169e+003, 7.091464e-003
2.154097e+003, 6.109853e-003
2.156026e+003, 2.945177e-003
2.157954e+003, 2.919238e-003
2.159883e+003, 7.226445e-003
2.161811e+003, 8.674641e-003
2.163740e+003, 9.482359e-003
2.165668e+003, 1.013206e-002
2.167597e+003, 9.296251e-003
2.169525e+003, 9.295275e-003
2.171454e+003, 8.729686e-003
2.173382e+003, 7.357123e-003
2.175311e+003, 6.243994e-003
2.177239e+003, 6.667613e-003
2.179167e+003, 8.136121e-003
2.181096e+003, 8.786032e-003
2.183024e+003, 8.607343e-003
2.184953e+003, 9.134142e-003
2.186881e+003, 1.066657e-002
2.188810e+003, 1.135244e-002
2.190738e+003, 1.139774e-002
2.192667e+003, 1.051589e-002
2.194595e+003, 9.941799e-003
2.196524e+003, 9.845288e-003
2.198452e+003, 1.030515e-002
2.200381e+003, 9.634049e-003
2.202309e+003, 8.181484e-003
2.204238e+003, 7.003410e-003
2.206166e+003, 6.738295e-003
2.208094e+003, 8.933656e-003
2.210023e+003, 1.028038e-002
2.211951e+003, 9.686595e-003
2.213880e+003, 1.034549e-002
2.215808e+003, 1.112094e-002
2.217737e+003, 1.100336e-002
2.219665e+003, 1.150803e-002
2.221594e+003, 1.139060e-002
2.223522e+003, 1.142574e-002
2.225451e+003, 1.026822e-002
2.227379e+003, 1.125845e-002
2.229308e+003, 1.281592e-002
2.231236e+003, 1.280939e-002
2.233165e+003, 1.277679e-002
2.235093e+003, 1.253231e-002
2.237021e+003, 1.232991e-002
2.238950e+003, 1.252123e-002
2.240878e+003, 1.156395e-002
2.242807e+003, 1.095775e-002
2.244735e+003, 1.164925e-002
2.246664e+003, 1.197273e-002
2.248592e+003, 1.158488e-002
2.250521e+003, 1.234044e-002
2.252449e+003, 1.253216e-002
2.254378e+003, 1.327721e-002
2.256306e+003, 1.270961e-002
2.258235e+003, 1.307363e-002
2.260163e+003, 1.367017e-002
2.262092e+003, 1.345115e-002
2.264020e+003, 1.326250e-002
2.265948e+003, 1.312031e-002
2.267877e+003, 1.401094e-002
2.269805e+003, 1.464565e-002
2.271734e+003, 1.391034e-002
2.273662e+003, 1.373207e-002
2.275591e+003, 1.389998e-002
2.277519e+003, 1.446697e-002
2.279448e+003, 1.508636e-002
2.281376e+003, 1.512919e-002
2.283305e+003, 1.528438e-002
2.285233e+003, 1.577160e-002
2.287162e+003, 1.535580e-002
2.289090e+003, 1.508140e-002
2.291019e+003, 1.523494e-002
2.292947e+003, 1.481812e-002
2.294875e+003, 1.465025e-002
2.296804e+003, 1.474096e-002
2.298732e+003, 1.464895e-002
2.300661e+003, 1.476374e-002
2.302589e+003, 1.445291e-002
2.304518e+003, 1.441705e-002
2.306446e+003, 1.510611e-002
2.308375e+003, 1.511098e-002
2.310303e+003, 1.463144e-002
2.312232e+003, 1.479824e-002
2.314160e+003, 1.525248e-002
2.316089e+003, 1.539114e-002
2.318017e+003, 1.522298e-002
2.319946e+003, 1.515013e-002
2.321874e+003, 1.558917e-002
2.323802e+003, 1.646945e-002
2.325731e+003, 1.554519e-002
2.327659e+003, 1.446717e-002
2.329588e+003, 1.429898e-002
2.331516e+003, 1.442943e-002
2.333445e+003, 1.451650e-002
2.335373e+003, 1.438839e-002
2.337302e+003, 1.442874e-002
2.339230e+003, 1.457845e-002
2.341159e+003, 1.459533e-002
2.343087e+003, 1.423236e-002
2.345016e+003, 1.435864e-002
2.346944e+003, 1.392797e-002
2.348873e+003, 1.375331e-002
2.350801e+003, 1.412694e-002
2.352729e+003, 1.466219e-002
2.354658e+003, 1.482655e-002
2.356586e+003, 1.466051e-002
2.358515e+003, 1.436703e-002
2.360443e+003, 1.427833e-002
2.362372e+003, 1.413909e-002
2.364300e+003, 1.402023e-002
2.366229e+003, 1.407475e-002
2.368157e+003, 1.398003e-002
2.370086e+003, 1.415312e-002
2.372014e+003, 1.494836e-002
2.373942e+003, 1.510587e-002
2.375871e+003, 1.458291e-002
2.377799e+003, 1.497786e-002
2.379728e+003, 1.483529e-002
2.381656e+003, 1.421514e-002
2.383585e+003, 1.377677e-002
2.385513e+003, 1.404208e-002
2.387442e+003, 1.449307e-002
2.389370e+003, 1.496856e-002
2.391299e+003, 1.505273e-002
2.393227e+003, 1.463669e-002
2.395156e+003, 1.461225e-002
2.397084e+003, 1.484757e-002
2.399012e+003, 1.460375e-002
2.400941e+003, 1.499806e-002
2.402869e+003, 1.505656e-002
2.404798e+003, 1.490589e-002
2.406726e+003, 1.580602e-002
2.408655e+003, 1.622204e-002
2.410583e+003, 1.580654e-002
2.412512e+003, 1.509508e-002
2.414440e+003, 1.491320e-002
2.416369e+003, 1.508037e-002
2.418297e+003, 1.551675e-002
2.420226e+003, 1.553671e-002
2.422154e+003, 1.508825e-002
2.424083e+003, 1.500944e-002
2.426011e+003, 1.510045e-002
2.427939e+003, 1.598335e-002
2.429868e+003, 1.671870e-002
2.431796e+003, 1.593542e-002
2.433725e+003, 1.475501e-002
2.435653e+003, 1.531113e-002
2.437582e+003, 1.623064e-002
2.439510e+003, 1.592944e-002
2.441439e+003, 1.568909e-002
2.443367e+003, 1.617381e-002
2.445296e+003, 1.603978e-002
2.447224e+003, 1.518379e-002
2.449153e+003, 1.482616e-002
2.451081e+003, 1.526795e-002
2.453010e+003, 1.584175e-002
2.454938e+003, 1.535806e-002
2.456866e+003, 1.525208e-002
2.458795e+003, 1.575811e-002
2.460723e+003, 1.573327e-002
2.462652e+003, 1.596005e-002
2.464580e+003, 1.635501e-002
2.466509e+003, 1.632472e-002
2.468437e+003, 1.598887e-002
2.470366e+003, 1.533566e-002
2.472294e+003, 1.473265e-002
2.474223e+003, 1.447400e-002
2.476151e+003, 1.472880e-002
2.478080e+003, 1.568938e-002
2.480008e+003, 1.601688e-002
2.481937e+003, 1.606823e-002
2.483865e+003, 1.619278e-002
2.485793e+003, 1.651938e-002
2.487722e+003, 1.670351e-002
2.489650e+003, 1.607008e-002
2.491579e+003, 1.551443e-002
2.493507e+003, 1.577646e-002
2.495436e+003, 1.629520e-002
2.497364e+003, 1.566453e-002
2.499293e+003, 1.492792e-002
2.501221e+003, 1.514862e-002
2.503150e+003, 1.584006e-002
2.505078e+003, 1.609266e-002
2.507007e+003, 1.609098e-002
2.508935e+003, 1.583440e-002
2.510864e+003, 1.625516e-002
2.512792e+003, 1.677910e-002
2.514720e+003, 1.642872e-002
2.516649e+003, 1.596626e-002
2.518577e+003, 1.627439e-002
2.520506e+003, 1.641471e-002
2.522434e+003, 1.655965e-002
2.524363e+003, 1.691332e-002
2.526291e+003, 1.672114e-002
2.528220e+003, 1.601770e-002
2.530148e+003, 1.600186e-002
2.532077e+003, 1.596818e-002
2.534005e+003, 1.613766e-002
2.535934e+003, 1.659284e-002
2.537862e+003, 1.612457e-002
2.539791e+003, 1.565852e-002
2.541719e+003, 1.623770e-002
2.543647e+003, 1.616124e-002
2.545576e+003, 1.609400e-002
2.547504e+003, 1.650609e-002
2.549433e+003, 1.681022e-002
2.551361e+003, 1.721603e-002
2.553290e+003, 1.668285e-002
2.555218e+003, 1.638459e-002
2.557147e+003, 1.708590e-002
2.559075e+003, 1.707039e-002
2.561004e+003, 1.675238e-002
2.562932e+003, 1.679004e-002
2.564861e+003, 1.658415e-002
2.566789e+003, 1.705419e-002
2.568718e+003, 1.746164e-002
2.570646e+003, 1.716833e-002
2.572574e+003, 1.674046e-002
2.574503e+003, 1.609594e-002
2.576431e+003, 1.573586e-002
2.578360e+003, 1.608693e-002
2.580288e+003, 1.625824e-002
2.582217e+003, 1.649916e-002
2.584145e+003, 1.651546e-002
2.586074e+003, 1.682451e-002
2.588002e+003, 1.715683e-002
2.589931e+003, 1.716902e-002
2.591859e+003, 1.681047e-002
2.593788e+003, 1.666143e-002
2.595716e+003, 1.694080e-002
2.597645e+003, 1.695978e-002
2.599573e+003, 1.619878e-002
2.601501e+003, 1.633078e-002
2.603430e+003, 1.692796e-002
2.605358e+003, 1.658745e-002
2.607287e+003, 1.722812e-002
2.609215e+003, 1.745708e-002
2.611144e+003, 1.706628e-002
2.613072e+003, 1.714115e-002
2.615001e+003, 1.762970e-002
2.616929e+003, 1.795421e-002
2.618858e+003, 1.756547e-002
2.620786e+003, 1.729948e-002
2.622715e+003, 1.659712e-002
2.624643e+003, 1.670675e-002
2.626572e+003, 1.725510e-002
2.628500e+003, 1.712913e-002
2.630428e+003, 1.679675e-002
2.632357e+003, 1.732184e-002
2.634285e+003, 1.785430e-002
2.636214e+003, 1.765240e-002
2.638142e+003, 1.742362e-002
2.640071e+003, 1.749190e-002
2.641999e+003, 1.730775e-002
2.643928e+003, 1.726262e-002
2.645856e+003, 1.724696e-002
2.647785e+003, 1.724833e-002
2.649713e+003, 1.740127e-002
2.651642e+003, 1.767020e-002
2.653570e+003, 1.755106e-002
2.655499e+003, 1.750835e-002
2.657427e+003, 1.752139e-002
2.659355e+003, 1.707396e-002
2.661284e+003, 1.668204e-002
2.663212e+003, 1.695331e-002
2.665141e+003, 1.695660e-002
2.667069e+003, 1.663442e-002
2.668998e+003, 1.663885e-002
2.670926e+003, 1.647794e-002
2.672855e+003, 1.633372e-002
2.674783e+003, 1.691235e-002
2.676712e+003, 1.698657e-002
2.678640e+003, 1.650215e-002
2.680569e+003, 1.661594e-002
2.682497e+003, 1.716917e-002
2.684426e+003, 1.748867e-002
2.686354e+003, 1.675146e-002
2.688282e+003, 1.636434e-002
2.690211e+003, 1.664214e-002
2.692139e+003, 1.661717e-002
2.694068e+003, 1.679067e-002
2.695996e+003, 1.703876e-002
2.697925e+003, 1.679429e-002
2.699853e+003, 1.618575e-002
2.701782e+003, 1.628254e-002
2.703710e+003, 1.664577e-002
2.705639e+003, 1.688278e-002
2.707567e+003, 1.701442e-002
2.709496e+003, 1.715750e-002
2.711424e+003, 1.717281e-002
2.713353e+003, 1.702102e-002
2.715281e+003, 1.708072e-002
2.717209e+003, 1.724476e-002
2.719138e+003, 1.732482e-002
2.721066e+003, 1.741330e-002
2.722995e+003, 1.705725e-002
2.724923e+003, 1.711338e-002
2.726852e+003, 1.756214e-002
2.728780e+003, 1.734544e-002
2.730709e+003, 1.712753e-002
2.732637e+003, 1.748773e-002
2.734566e+003, 1.734309e-002
2.736494e+003, 1.728113e-002
2.738423e+003, 1.739531e-002
2.740351e+003, 1.776554e-002
2.742280e+003, 1.782038e-002
2.744208e+003, 1.790109e-002
2.746136e+003, 1.817884e-002
2.748065e+003, 1.813966e-002
2.749993e+003, 1.791190e-002
2.751922e+003, 1.803113e-002
2.753850e+003, 1.798315e-002
2.755779e+003, 1.767181e-002
2.757707e+003, 1.728048e-002
2.759636e+003, 1.722801e-002
2.761564e+003, 1.755689e-002
2.763493e+003, 1.738654e-002
2.765421e+003, 1.711130e-002
2.767350e+003, 1.760409e-002
2.769278e+003, 1.796495e-002
2.771207e+003, 1.798327e-002
2.773135e+003, 1.772264e-002
2.775063e+003, 1.776901e-002
2.776992e+003, 1.797356e-002
2.778920e+003, 1.824594e-002
2.780849e+003, 1.830120e-002
2.782777e+003, 1.838505e-002
2.784706e+003, 1.839968e-002
2.786634e+003, 1.793070e-002
2.788563e+003, 1.777207e-002
2.790491e+003, 1.796068e-002
2.792420e+003, 1.852397e-002
2.794348e+003, 1.860684e-002
2.796277e+003, 1.845976e-002
2.798205e+003, 1.842806e-002
2.800134e+003, 1.843849e-002
2.802062e+003, 1.803358e-002
2.803990e+003, 1.762214e-002
2.805919e+003, 1.723399e-002
2.807847e+003, 1.719725e-002
2.809776e+003, 1.766185e-002
2.811704e+003, 1.815492e-002
2.813633e+003, 1.834078e-002
2.815561e+003, 1.823064e-002
2.817490e+003, 1.807857e-002
2.819418e+003, 1.791574e-002
2.821347e+003, 1.758562e-002
2.823275e+003, 1.813664e-002
2.825204e+003, 1.896305e-002
2.827132e+003, 1.854878e-002
2.829061e+003, 1.834353e-002
2.830989e+003, 1.841382e-002
2.832917e+003, 1.838261e-002
2.834846e+003, 1.856845e-002
2.836774e+003, 1.874557e-002
2.838703e+003, 1.882133e-002
2.840631e+003, 1.912767e-002
2.842560e+003, 1.915590e-002
2.844488e+003, 1.950504e-002
2.846417e+003, 1.981155e-002
2.848345e+003, 1.929854e-002
2.850274e+003, 1.895449e-002
2.852202e+003, 1.861134e-002
2.854131e+003, 1.861040e-002
2.856059e+003, 1.889193e-002
2.857988e+003, 1.846930e-002
2.859916e+003, 1.862585e-002
2.861844e+003, 1.867936e-002
2.863773e+003, 1.841947e-002
2.865701e+003, 1.805275e-002
2.867630e+003, 1.834973e-002
2.869558e+003, 1.933292e-002
2.871487e+003, 1.906793e-002
2.873415e+003, 1.844717e-002
2.875344e+003, 1.898848e-002
2.877272e+003, 1.918543e-002
2.879201e+003, 1.878797e-002
2.881129e+003, 1.827443e-002
2.883058e+003, 1.850905e-002
2.884986e+003, 1.914719e-002
2.886915e+003, 1.938523e-002
2.888843e+003, 1.955553e-002
2.890771e+003, 1.914867e-002
2.892700e+003, 1.930397e-002
2.894628e+003, 1.994096e-002
2.896557e+003, 2.006225e-002
2.898485e+003, 1.939000e-002
2.900414e+003, 1.879045e-002
2.902342e+003, 1.897374e-002
2.904271e+003, 1.931955e-002
2.906199e+003, 1.966870e-002
2.908128e+003, 1.987957e-002
2.910056e+003, 1.995693e-002
2.911985e+003, 1.949156e-002
2.913913e+003, 1.906059e-002
2.915842e+003, 1.919501e-002
2.917770e+003, 1.972825e-002
2.919698e+003, 1.935670e-002
2.921627e+003, 1.853837e-002
2.923555e+003, 1.900804e-002
2.925484e+003, 1.928570e-002
2.927412e+003, 1.900772e-002
2.929341e+003, 1.872533e-002
2.931269e+003, 1.826676e-002
2.933198e+003, 1.841675e-002
2.935126e+003, 1.922178e-002
2.937055e+003, 1.924141e-002
2.938983e+003, 1.894372e-002
2.940912e+003, 1.927549e-002
2.942840e+003, 1.983080e-002
2.944769e+003, 1.946378e-002
2.946697e+003, 1.909084e-002
2.948625e+003, 1.894687e-002
2.950554e+003, 1.904476e-002
2.952482e+003, 1.910314e-002
2.954411e+003, 1.935336e-002
2.956339e+003, 1.916688e-002
2.958268e+003, 1.910945e-002
2.960196e+003, 1.887477e-002
2.962125e+003, 1.855784e-002
2.964053e+003, 1.865019e-002
2.965982e+003, 1.936720e-002
2.967910e+003, 1.970189e-002
2.969839e+003, 1.931924e-002
2.971767e+003, 1.897368e-002
2.973696e+003, 1.934694e-002
2.975624e+003, 1.985071e-002
2.977552e+003, 1.986196e-002
2.979481e+003, 1.945426e-002
2.981409e+003, 1.933602e-002
2.983338e+003, 1.987391e-002
2.985266e+003, 1.998554e-002
2.987195e+003, 1.938012e-002
2.989123e+003, 1.935289e-002
2.991052e+003, 1.942624e-002
2.992980e+003, 1.948134e-002
2.994909e+003, 1.994276e-002
2.996837e+003, 2.008378e-002
2.998766e+003, 1.949597e-002
3.000694e+003, 1.888728e-002
3.002623e+003, 1.897930e-002
3.004551e+003, 1.893394e-002
3.006479e+003, 1.917616e-002
3.008408e+003, 1.969663e-002
3.010336e+003, 2.007723e-002
3.012265e+003, 2.008757e-002
3.014193e+003, 1.938903e-002
3.016122e+003, 1.878741e-002
3.018050e+003, 1.940270e-002
3.019979e+003, 2.006386e-002
3.021907e+003, 1.995400e-002
3.023836e+003, 2.010763e-002
3.025764e+003, 2.052713e-002
3.027693e+003, 2.014176e-002
3.029621e+003, 2.058483e-002
3.031550e+003, 2.134327e-002
3.033478e+003, 2.055670e-002
3.035406e+003, 1.904627e-002
3.037335e+003, 1.936805e-002
3.039263e+003, 2.004754e-002
3.041192e+003, 2.134239e-002
3.043120e+003, 2.139087e-002
3.045049e+003, 2.058565e-002
3.046977e+003, 2.043672e-002
3.048906e+003, 2.087743e-002
3.050834e+003, 2.090975e-002
3.052763e+003, 2.137341e-002
3.054691e+003, 2.168171e-002
3.056620e+003, 2.118717e-002
3.058548e+003, 2.091489e-002
3.060477e+003, 2.054383e-002
3.062405e+003, 2.054487e-002
3.064333e+003, 2.086243e-002
3.066262e+003, 2.094943e-002
3.068190e+003, 2.089165e-002
3.070119e+003, 2.121070e-002
3.072047e+003, 2.101114e-002
3.073976e+003, 2.082437e-002
3.075904e+003, 2.083280e-002
3.077833e+003, 2.048847e-002
3.079761e+003, 2.066306e-002
3.081690e+003, 2.095265e-002
3.083618e+003, 2.155229e-002
3.085547e+003, 2.148357e-002
3.087475e+003, 2.098316e-002
3.089404e+003, 2.118220e-002
3.091332e+003, 2.116027e-002
3.093260e+003, 2.127076e-002
3.095189e+003, 2.169544e-002
3.097117e+003, 2.248952e-002
3.099046e+003, 2.188053e-002
3.100974e+003, 2.053848e-002
3.102903e+003, 2.081666e-002
3.104831e+003, 2.222371e-002
3.106760e+003, 2.199487e-002
3.108688e+003, 2.146054e-002
3.110617e+003, 2.154228e-002
3.112545e+003, 2.190319e-002
3.114474e+003, 2.238854e-002
3.116402e+003, 2.217188e-002
3.118331e+003, 2.164186e-002
3.120259e+003, 2.204645e-002
3.122188e+003, 2.231213e-002
3.124116e+003, 2.158657e-002
3.126044e+003, 2.108976e-002
3.127973e+003, 2.150092e-002
3.129901e+003, 2.237561e-002
3.131830e+003, 2.266746e-002
3.133758e+003, 2.327435e-002
3.135687e+003, 2.350392e-002
3.137615e+003, 2.330297e-002
3.139544e+003, 2.313464e-002
3.141472e+003, 2.264698e-002
3.143401e+003, 2.283608e-002
3.145329e+003, 2.383696e-002
3.147258e+003, 2.431642e-002
3.149186e+003, 2.399544e-002
3.151115e+003, 2.381705e-002
3.153043e+003, 2.393325e-002
3.154971e+003, 2.332995e-002
3.156900e+003, 2.285109e-002
3.158828e+003, 2.315677e-002
3.160757e+003, 2.346570e-002
3.162685e+003, 2.340187e-002
3.164614e+003, 2.292993e-002
3.166542e+003, 2.300212e-002
3.168471e+003, 2.376517e-002
3.170399e+003, 2.415929e-002
3.172328e+003, 2.379054e-002
3.174256e+003, 2.320262e-002
3.176185e+003, 2.304389e-002
3.178113e+003, 2.315250e-002
3.180042e+003, 2.367912e-002
3.181970e+003, 2.347220e-002
3.183898e+003, 2.299430e-002
3.185827e+003, 2.304029e-002
3.187755e+003, 2.406386e-002
3.189684e+003, 2.560210e-002
3.191612e+003, 2.514294e-002
3.193541e+003, 2.399201e-002
3.195469e+003, 2.410508e-002
3.197398e+003, 2.473551e-002
3.199326e+003, 2.446691e-002
3.201255e+003, 2.477863e-002
3.203183e+003, 2.528778e-002
3.205112e+003, 2.522106e-002
3.207040e+003, 2.496473e-002
3.208969e+003, 2.468493e-002
3.210897e+003, 2.434307e-002
3.212825e+003, 2.437043e-002
3.214754e+003, 2.430311e-002
3.216682e+003, 2.433346e-002
3.218611e+003, 2.552904e-002
3.220539e+003, 2.543923e-002
3.222468e+003, 2.421942e-002
3.224396e+003, 2.456169e-002
3.226325e+003, 2.592439e-002
3.228253e+003, 2.601670e-002
3.230182e+003, 2.607632e-002
3.232110e+003, 2.585092e-002
3.234039e+003, 2.484836e-002
3.235967e+003, 2.498780e-002
3.237896e+003, 2.585576e-002
3.239824e+003, 2.681892e-002
3.241752e+003, 2.689024e-002
3.243681e+003, 2.684730e-002
3.245609e+003, 2.676600e-002
3.247538e+003, 2.638114e-002
3.249466e+003, 2.632829e-002
3.251395e+003, 2.603383e-002
3.253323e+003, 2.549001e-002
3.255252e+003, 2.582921e-002
3.257180e+003, 2.664046e-002
3.259109e+003, 2.685091e-002
3.261037e+003, 2.769160e-002
3.262966e+003, 2.800595e-002
3.264894e+003, 2.722651e-002
3.266823e+003, 2.647635e-002
3.268751e+003, 2.743348e-002
3.270679e+003, 2.841469e-002
3.272608e+003, 2.774442e-002
3.274536e+003, 2.733435e-002
3.276465e+003, 2.873466e-002
3.278393e+003, 2.906144e-002
3.280322e+003, 2.763583e-002
3.282250e+003, 2.801411e-002
3.284179e+003, 2.903550e-002
3.286107e+003, 2.965412e-002
3.288036e+003, 2.939777e-002
3.289964e+003, 2.908419e-002
3.291893e+003, 2.919954e-002
3.293821e+003, 2.945083e-002
3.295750e+003, 3.048965e-002
3.297678e+003, 3.102081e-002
3.299606e+003, 3.050514e-002
3.301535e+003, 3.078440e-002
3.303463e+003, 3.103760e-002
3.305392e+003, 3.093028e-002
3.307320e+003, 3.118904e-002
3.309249e+003, 3.133788e-002
3.311177e+003, 3.080067e-002
3.313106e+003, 3.116321e-002
3.315034e+003, 3.196691e-002
3.316963e+003, 3.246534e-002
3.318891e+003, 3.344934e-002
3.320820e+003, 3.453239e-002
3.322748e+003, 3.482233e-002
3.324677e+003, 3.470534e-002
3.326605e+003, 3.495182e-002
3.328533e+003, 3.571798e-002
3.330462e+003, 3.563141e-002
3.332390e+003, 3.580201e-002
3.334319e+003, 3.679225e-002
3.336247e+003, 3.707841e-002
3.338176e+003, 3.710042e-002
3.340104e+003, 3.835460e-002
3.342033e+003, 4.018899e-002
3.343961e+003, 4.032050e-002
3.345890e+003, 3.987389e-002
3.347818e+003, 4.026144e-002
3.349747e+003, 4.222865e-002
3.351675e+003, 4.318900e-002
3.353604e+003, 4.310265e-002
3.355532e+003, 4.384841e-002
3.357460e+003, 4.492338e-002
3.359389e+003, 4.629064e-002
3.361317e+003, 4.666022e-002
3.363246e+003, 4.731011e-002
3.365174e+003, 4.909255e-002
3.367103e+003, 4.963129e-002
3.369031e+003, 4.942645e-002
3.370960e+003, 4.946186e-002
3.372888e+003, 4.956262e-002
3.374817e+003, 4.877578e-002
3.376745e+003, 4.836424e-002
3.378674e+003, 4.843431e-002
3.380602e+003, 4.738769e-002
3.382531e+003, 4.634849e-002
3.384459e+003, 4.449930e-002
3.386387e+003, 4.192549e-002
3.388316e+003, 3.981565e-002
3.390244e+003, 3.924020e-002
3.392173e+003, 3.854814e-002
3.394101e+003, 3.645634e-002
3.396030e+003, 3.493354e-002
3.397958e+003, 3.377926e-002
3.399887e+003, 3.198730e-002
3.401815e+003, 3.092036e-002
3.403744e+003, 3.077384e-002
3.405672e+003, 2.965134e-002
3.407601e+003, 2.838604e-002
3.409529e+003, 2.708329e-002
3.411458e+003, 2.631257e-002
3.413386e+003, 2.731622e-002
3.415314e+003, 2.680595e-002
3.417243e+003, 2.446815e-002
3.419171e+003, 2.343027e-002
3.421100e+003, 2.387528e-002
3.423028e+003, 2.400825e-002
3.424957e+003, 2.321852e-002
3.426885e+003, 2.225458e-002
3.428814e+003, 2.190083e-002
3.430742e+003, 2.242942e-002
3.432671e+003, 2.279561e-002
3.434599e+003, 2.072388e-002
3.436528e+003, 2.030703e-002
3.438456e+003, 2.181914e-002
3.440385e+003, 2.329585e-002
3.442313e+003, 2.300554e-002
3.444241e+003, 2.150865e-002
3.446170e+003, 2.138399e-002
3.448098e+003, 2.167120e-002
3.450027e+003, 2.189059e-002
3.451955e+003, 2.235268e-002
3.453884e+003, 2.211598e-002
3.455812e+003, 2.161667e-002
3.457741e+003, 2.164829e-002
3.459669e+003, 2.229894e-002
3.461598e+003, 2.219127e-002
3.463526e+003, 2.276029e-002
3.465455e+003, 2.347890e-002
3.467383e+003, 2.304543e-002
3.469312e+003, 2.291160e-002
3.471240e+003, 2.241402e-002
3.473168e+003, 2.263564e-002
3.475097e+003, 2.196464e-002
3.477025e+003, 2.079882e-002
3.478954e+003, 2.037101e-002
3.480882e+003, 2.017219e-002
3.482811e+003, 2.062451e-002
3.484739e+003, 2.051382e-002
3.486668e+003, 2.036064e-002
3.488596e+003, 1.970833e-002
3.490525e+003, 1.979750e-002
3.492453e+003, 2.143772e-002
3.494382e+003, 2.191433e-002
3.496310e+003, 2.113041e-002
3.498239e+003, 2.090552e-002
3.500167e+003, 2.093988e-002
3.502095e+003, 2.137689e-002
3.504024e+003, 2.006881e-002
3.505952e+003, 1.887259e-002
3.507881e+003, 1.902117e-002
3.509809e+003, 1.939737e-002
3.511738e+003, 2.109510e-002
3.513666e+003, 2.049415e-002
3.515595e+003, 1.950197e-002
3.517523e+003, 2.009448e-002
3.519452e+003, 2.032945e-002
3.521380e+003, 1.988009e-002
3.523309e+003, 2.020785e-002
3.525237e+003, 1.990602e-002
3.527166e+003, 1.852693e-002
3.529094e+003, 1.977381e-002
3.531022e+003, 2.084798e-002
3.532951e+003, 2.080469e-002
3.534879e+003, 2.018851e-002
3.536808e+003, 1.931948e-002
3.538736e+003, 1.909617e-002
3.540665e+003, 2.002105e-002
3.542593e+003, 2.062767e-002
3.544522e+003, 2.093696e-002
3.546450e+003, 2.111420e-002
3.548379e+003, 1.998780e-002
3.550307e+003, 2.006264e-002
3.552236e+003, 1.991285e-002
3.554164e+003, 1.901433e-002
3.556093e+003, 1.948705e-002
3.558021e+003, 1.954755e-002
3.559949e+003, 1.961711e-002
3.561878e+003, 1.997464e-002
3.563806e+003, 2.107967e-002
3.565735e+003, 2.125931e-002
3.567663e+003, 2.128656e-002
3.569592e+003, 2.117648e-002
3.571520e+003, 2.007470e-002
3.573449e+003, 1.985787e-002
3.575377e+003, 2.075151e-002
3.577306e+003, 1.925150e-002
3.579234e+003, 1.864712e-002
3.581163e+003, 1.907924e-002
3.583091e+003, 2.045450e-002
3.585020e+003, 2.055569e-002
3.586948e+003, 1.904578e-002
3.588876e+003, 1.901491e-002
3.590805e+003, 2.054002e-002
3.592733e+003, 2.128199e-002
3.594662e+003, 2.066920e-002
3.596590e+003, 1.940591e-002
3.598519e+003, 1.830947e-002
3.600447e+003, 1.776897e-002
3.602376e+003, 1.885294e-002
3.604304e+003, 1.871878e-002
3.606233e+003, 1.769680e-002
3.608161e+003, 1.872781e-002
3.610090e+003, 1.984144e-002
3.612018e+003, 1.891327e-002
3.613947e+003, 1.797706e-002
3.615875e+003, 1.787298e-002
3.617803e+003, 1.850914e-002
3.619732e+003, 1.976454e-002
3.621660e+003, 1.949727e-002
3.623589e+003, 1.912160e-002
3.625517e+003, 1.947746e-002
3.627446e+003, 1.851954e-002
3.629374e+003, 1.697004e-002
3.631303e+003, 1.852529e-002
3.633231e+003, 1.929536e-002
3.635160e+003, 1.839493e-002
3.637088e+003, 1.831275e-002
3.639017e+003, 1.767438e-002
3.640945e+003, 1.851500e-002
3.642874e+003, 2.036226e-002
3.644802e+003, 1.951213e-002
3.646730e+003, 1.924597e-002
3.648659e+003, 2.061558e-002
3.650587e+003, 1.847200e-002
3.652516e+003, 1.738054e-002
3.654444e+003, 1.818673e-002
3.656373e+003, 1.964351e-002
3.658301e+003, 2.023098e-002
3.660230e+003, 1.811391e-002
3.662158e+003, 1.724934e-002
3.664087e+003, 1.928704e-002
3.666015e+003, 2.028229e-002
3.667944e+003, 1.983505e-002
3.669872e+003, 1.976444e-002
3.671801e+003, 1.963946e-002
3.673729e+003, 1.893222e-002
3.675657e+003, 1.810001e-002
3.677586e+003, 1.722361e-002
3.679514e+003, 1.768440e-002
3.681443e+003, 1.866235e-002
3.683371e+003, 1.991753e-002
3.685300e+003, 1.850297e-002
3.687228e+003, 1.734294e-002
3.689157e+003, 1.779133e-002
3.691085e+003, 1.888967e-002
3.693014e+003, 1.873503e-002
3.694942e+003, 1.724100e-002
3.696871e+003, 1.606015e-002
3.698799e+003, 1.591744e-002
3.700728e+003, 1.657292e-002
3.702656e+003, 1.748274e-002
3.704584e+003, 1.829419e-002
3.706513e+003, 1.747493e-002
3.708441e+003, 1.717605e-002
3.710370e+003, 1.827114e-002
3.712298e+003, 1.900852e-002
3.714227e+003, 1.810248e-002
3.716155e+003, 1.678413e-002
3.718084e+003, 1.669848e-002
3.720012e+003, 1.758753e-002
3.721941e+003, 1.840879e-002
3.723869e+003, 1.964989e-002
3.725798e+003, 2.149905e-002
3.727726e+003, 2.152447e-002
3.729655e+003, 2.000069e-002
3.731583e+003, 1.915838e-002
3.733511e+003, 1.967165e-002
3.735440e+003, 1.919447e-002
3.737368e+003, 1.807501e-002
3.739297e+003, 1.797142e-002
3.741225e+003, 1.889405e-002
3.743154e+003, 1.847286e-002
3.745082e+003, 1.715646e-002
3.747011e+003, 1.721603e-002
3.748939e+003, 1.886342e-002
3.750868e+003, 2.004915e-002
3.752796e+003, 1.973365e-002
3.754725e+003, 1.846320e-002
3.756653e+003, 1.889848e-002
3.758582e+003, 1.865270e-002
3.760510e+003, 1.902068e-002
3.762438e+003, 1.977287e-002
3.764367e+003, 1.941451e-002
3.766295e+003, 1.884098e-002
3.768224e+003, 1.844652e-002
3.770152e+003, 1.892486e-002
3.772081e+003, 1.958220e-002
3.774009e+003, 1.821987e-002
3.775938e+003, 1.704801e-002
3.777866e+003, 1.822453e-002
3.779795e+003, 1.992330e-002
3.781723e+003, 2.009110e-002
3.783652e+003, 1.924534e-002
3.785580e+003, 1.925834e-002
3.787509e+003, 1.984149e-002
3.789437e+003, 1.896138e-002
3.791365e+003, 1.914007e-002
3.793294e+003, 1.971811e-002
3.795222e+003, 2.077971e-002
3.797151e+003, 2.143286e-002
3.799079e+003, 2.062480e-002
3.801008e+003, 1.828256e-002
3.802936e+003, 1.718864e-002
3.804865e+003, 1.767750e-002
3.806793e+003, 1.738458e-002
3.808722e+003, 1.704879e-002
3.810650e+003, 1.712628e-002
3.812579e+003, 1.806532e-002
3.814507e+003, 1.863409e-002
3.816436e+003, 1.893064e-002
3.818364e+003, 2.002705e-002
3.820292e+003, 1.865966e-002
3.822221e+003, 1.765477e-002
3.824149e+003, 1.854253e-002
3.826078e+003, 1.993589e-002
3.828006e+003, 2.002655e-002
3.829935e+003, 1.921802e-002
3.831863e+003, 1.882669e-002
3.833792e+003, 1.770226e-002
3.835720e+003, 1.723781e-002
3.837649e+003, 1.797867e-002
3.839577e+003, 1.923671e-002
3.841506e+003, 1.874504e-002
3.843434e+003, 1.789501e-002
3.845363e+003, 1.787570e-002
3.847291e+003, 1.854677e-002
3.849219e+003, 1.809532e-002
3.851148e+003, 1.879370e-002
3.853076e+003, 1.897303e-002
3.855005e+003, 1.770457e-002
3.856933e+003, 1.880977e-002
3.858862e+003, 1.883922e-002
3.860790e+003, 1.734186e-002
3.862719e+003, 1.791766e-002
3.864647e+003, 1.880130e-002
3.866576e+003, 1.900701e-002
3.868504e+003, 1.812279e-002
3.870433e+003, 1.756306e-002
3.872361e+003, 1.758082e-002
3.874290e+003, 1.784239e-002
3.876218e+003, 1.847705e-002
3.878146e+003, 1.984815e-002
3.880075e+003, 1.845088e-002
3.882003e+003, 1.696603e-002
3.883932e+003, 1.730192e-002
3.885860e+003, 1.910730e-002
3.887789e+003, 1.933464e-002
3.889717e+003, 1.796844e-002
3.891646e+003, 1.915622e-002
3.893574e+003, 1.877785e-002
3.895503e+003, 1.884952e-002
3.897431e+003, 1.917806e-002
3.899360e+003, 1.858869e-002
3.901288e+003, 1.804345e-002
3.903217e+003, 1.858616e-002
3.905145e+003, 1.919376e-002
3.907073e+003, 1.961111e-002
3.909002e+003, 1.928703e-002
3.910930e+003, 1.826978e-002
3.912859e+003, 1.754899e-002
3.914787e+003, 1.709544e-002
3.916716e+003, 1.706553e-002
3.918644e+003, 1.745711e-002
3.920573e+003, 1.806211e-002
3.922501e+003, 1.902959e-002
3.924430e+003, 1.885711e-002
3.926358e+003, 1.852830e-002
3.928287e+003, 1.882133e-002
3.930215e+003, 2.031416e-002
3.932144e+003, 1.955519e-002
3.934072e+003, 1.824504e-002
3.936000e+003, 1.845799e-002
3.937929e+003, 1.924313e-002
3.939857e+003, 1.885325e-002
3.941786e+003, 1.884976e-002
3.943714e+003, 1.871106e-002
3.945643e+003, 1.736351e-002
3.947571e+003, 1.770941e-002
3.949500e+003, 1.967292e-002
3.951428e+003, 2.020090e-002
3.953357e+003, 1.997973e-002
3.955285e+003, 1.940254e-002
3.957214e+003, 1.815488e-002
3.959142e+003, 1.799713e-002
3.961071e+003, 1.895051e-002
3.962999e+003, 1.825125e-002
3.964927e+003, 1.702321e-002
3.966856e+003, 1.829965e-002
3.968784e+003, 1.874241e-002
3.970713e+003, 1.827646e-002
3.972641e+003, 1.841486e-002
3.974570e+003, 1.744644e-002
3.976498e+003, 1.773277e-002
3.978427e+003, 2.000498e-002
3.980355e+003, 2.099519e-002
3.982284e+003, 1.928204e-002
3.984212e+003, 1.864008e-002
3.986141e+003, 1.923173e-002
3.988069e+003, 2.073477e-002
3.989998e+003, 2.060805e-002
3.991926e+003, 1.860888e-002
3.993854e+003, 1.846041e-002
3.995783e+003, 1.911702e-002
3.997711e+003, 2.061205e-002
3.999640e+003, 2.062166e-002
4.001568e+003, 0.000000e+000
##END=



