##NAMES=Euclase
##RRUFFID=R050032
##IDEAL CHEMISTRY=BeAlSiO_4_(OH)
##LOCALITY=Minas Gerais, Brazil
##OWNER=RRUFF
##SOURCE=University of Arizona Mineral Museum
##DESCRIPTION=Colorless crystal fragments
##STATUS=The identification of this mineral has been confirmed by X-ray diffraction and chemical analysis
##URL=rruff.info/R050032
##MEASURED CHEMISTRY=Be_1.00_Al_1.00_Si_1.00_O_4_(OH)
3.991926e+002, 0.000000e+000
4.011211e+002, 2.740204e-001
4.030496e+002, 2.753492e-001
4.049780e+002, 2.874690e-001
4.069065e+002, 2.902618e-001
4.088350e+002, 2.875426e-001
4.107634e+002, 2.910753e-001
4.126919e+002, 2.933651e-001
4.146204e+002, 2.861789e-001
4.165488e+002, 2.821926e-001
4.184773e+002, 2.805075e-001
4.204058e+002, 2.779397e-001
4.223342e+002, 2.671438e-001
4.242627e+002, 2.509342e-001
4.261912e+002, 2.500074e-001
4.281196e+002, 2.532436e-001
4.300481e+002, 2.503998e-001
4.319766e+002, 2.444330e-001
4.339050e+002, 2.354395e-001
4.358335e+002, 2.282000e-001
4.377620e+002, 2.213285e-001
4.396904e+002, 2.147457e-001
4.416189e+002, 2.076030e-001
4.435474e+002, 2.024476e-001
4.454758e+002, 2.012217e-001
4.474043e+002, 2.090194e-001
4.493328e+002, 2.242968e-001
4.512612e+002, 2.273134e-001
4.531897e+002, 2.082485e-001
4.551182e+002, 1.833008e-001
4.570466e+002, 1.624215e-001
4.589751e+002, 1.424440e-001
4.609036e+002, 1.245316e-001
4.628320e+002, 1.181474e-001
4.647605e+002, 1.264757e-001
4.666890e+002, 1.443988e-001
4.686174e+002, 1.667631e-001
4.705459e+002, 1.881297e-001
4.724744e+002, 2.033869e-001
4.744028e+002, 2.133712e-001
4.763313e+002, 2.181743e-001
4.782598e+002, 2.175351e-001
4.801882e+002, 2.124356e-001
4.821167e+002, 2.043516e-001
4.840452e+002, 1.958589e-001
4.859736e+002, 1.881766e-001
4.879021e+002, 1.825820e-001
4.898306e+002, 1.793073e-001
4.917590e+002, 1.784714e-001
4.936875e+002, 1.813746e-001
4.956160e+002, 1.866711e-001
4.975444e+002, 1.949553e-001
4.994729e+002, 2.062145e-001
5.014014e+002, 2.165434e-001
5.033298e+002, 2.259332e-001
5.052583e+002, 2.353825e-001
5.071868e+002, 2.434399e-001
5.091152e+002, 2.507811e-001
5.110437e+002, 2.566650e-001
5.129722e+002, 2.608510e-001
5.149006e+002, 2.633670e-001
5.168291e+002, 2.647478e-001
5.187576e+002, 2.637026e-001
5.206860e+002, 2.617139e-001
5.226145e+002, 2.575147e-001
5.245430e+002, 2.511364e-001
5.264714e+002, 2.436761e-001
5.283999e+002, 2.364986e-001
5.303284e+002, 2.324751e-001
5.322568e+002, 2.315327e-001
5.341853e+002, 2.329072e-001
5.361138e+002, 2.326646e-001
5.380422e+002, 2.273801e-001
5.399707e+002, 2.159472e-001
5.418992e+002, 2.006862e-001
5.438276e+002, 1.820799e-001
5.457561e+002, 1.617068e-001
5.476846e+002, 1.419834e-001
5.496130e+002, 1.264210e-001
5.515415e+002, 1.188394e-001
5.534700e+002, 1.203981e-001
5.553984e+002, 1.305712e-001
5.573269e+002, 1.468018e-001
5.592554e+002, 1.658531e-001
5.611838e+002, 1.839691e-001
5.631123e+002, 1.976302e-001
5.650408e+002, 2.058122e-001
5.669692e+002, 2.066069e-001
5.688977e+002, 2.008270e-001
5.708262e+002, 1.942715e-001
5.727546e+002, 1.957420e-001
5.746831e+002, 2.086787e-001
5.766116e+002, 2.274642e-001
5.785400e+002, 2.437337e-001
5.804685e+002, 2.529088e-001
5.823970e+002, 2.559298e-001
5.843254e+002, 2.553392e-001
5.862539e+002, 2.540976e-001
5.881824e+002, 2.527087e-001
5.901108e+002, 2.495301e-001
5.920393e+002, 2.438419e-001
5.939678e+002, 2.335470e-001
5.958962e+002, 2.168033e-001
5.978247e+002, 1.975493e-001
5.997532e+002, 1.808131e-001
6.016816e+002, 1.663270e-001
6.036101e+002, 1.542270e-001
6.055386e+002, 1.448794e-001
6.074670e+002, 1.402279e-001
6.093955e+002, 1.406586e-001
6.113240e+002, 1.426216e-001
6.132524e+002, 1.402921e-001
6.151809e+002, 1.326300e-001
6.171094e+002, 1.237763e-001
6.190378e+002, 1.188773e-001
6.209663e+002, 1.205519e-001
6.228948e+002, 1.279166e-001
6.248232e+002, 1.406405e-001
6.267517e+002, 1.573649e-001
6.286802e+002, 1.758415e-001
6.306086e+002, 1.952713e-001
6.325371e+002, 2.147748e-001
6.344656e+002, 2.326195e-001
6.363940e+002, 2.472748e-001
6.383225e+002, 2.560291e-001
6.402510e+002, 2.571788e-001
6.421794e+002, 2.524556e-001
6.441079e+002, 2.486887e-001
6.460364e+002, 2.519537e-001
6.479648e+002, 2.606516e-001
6.498933e+002, 2.705225e-001
6.518218e+002, 2.780487e-001
6.537502e+002, 2.824820e-001
6.556787e+002, 2.837447e-001
6.576072e+002, 2.823936e-001
6.595356e+002, 2.784581e-001
6.614641e+002, 2.719104e-001
6.633926e+002, 2.632452e-001
6.653210e+002, 2.536480e-001
6.672495e+002, 2.439027e-001
6.691780e+002, 2.364277e-001
6.711064e+002, 2.329071e-001
6.730349e+002, 2.328576e-001
6.749634e+002, 2.343760e-001
6.768918e+002, 2.334583e-001
6.788203e+002, 2.280731e-001
6.807488e+002, 2.191140e-001
6.826772e+002, 2.078513e-001
6.846057e+002, 1.962166e-001
6.865342e+002, 1.850554e-001
6.884626e+002, 1.750746e-001
6.903911e+002, 1.662450e-001
6.923196e+002, 1.584215e-001
6.942480e+002, 1.515454e-001
6.961765e+002, 1.455998e-001
6.981050e+002, 1.402522e-001
7.000334e+002, 1.357365e-001
7.019619e+002, 1.317168e-001
7.038904e+002, 1.283523e-001
7.058188e+002, 1.257404e-001
7.077473e+002, 1.237703e-001
7.096758e+002, 1.227363e-001
7.116042e+002, 1.224053e-001
7.135327e+002, 1.230885e-001
7.154612e+002, 1.255912e-001
7.173896e+002, 1.306014e-001
7.193181e+002, 1.384555e-001
7.212466e+002, 1.486577e-001
7.231750e+002, 1.605108e-001
7.251035e+002, 1.730453e-001
7.270320e+002, 1.851126e-001
7.289604e+002, 1.956234e-001
7.308889e+002, 2.039580e-001
7.328174e+002, 2.099396e-001
7.347458e+002, 2.133574e-001
7.366743e+002, 2.141137e-001
7.386028e+002, 2.125833e-001
7.405313e+002, 2.090990e-001
7.424597e+002, 2.041689e-001
7.443882e+002, 1.983341e-001
7.463167e+002, 1.919669e-001
7.482451e+002, 1.855775e-001
7.501736e+002, 1.809639e-001
7.521021e+002, 1.794401e-001
7.540305e+002, 1.807260e-001
7.559590e+002, 1.855701e-001
7.578875e+002, 1.942319e-001
7.598159e+002, 2.049650e-001
7.617444e+002, 2.154137e-001
7.636729e+002, 2.230494e-001
7.656013e+002, 2.264289e-001
7.675298e+002, 2.253135e-001
7.694583e+002, 2.208389e-001
7.713867e+002, 2.143520e-001
7.733152e+002, 2.069746e-001
7.752437e+002, 1.994525e-001
7.771721e+002, 1.926804e-001
7.791006e+002, 1.877065e-001
7.810291e+002, 1.850859e-001
7.829575e+002, 1.850028e-001
7.848860e+002, 1.880561e-001
7.868145e+002, 1.931091e-001
7.887429e+002, 1.979972e-001
7.906714e+002, 2.014091e-001
7.925999e+002, 2.018498e-001
7.945283e+002, 1.982964e-001
7.964568e+002, 1.914199e-001
7.983853e+002, 1.832154e-001
8.003137e+002, 1.753132e-001
8.022422e+002, 1.677414e-001
8.041707e+002, 1.599334e-001
8.060991e+002, 1.511146e-001
8.080276e+002, 1.408424e-001
8.099561e+002, 1.289809e-001
8.118845e+002, 1.163453e-001
8.138130e+002, 1.034515e-001
8.157415e+002, 9.116279e-002
8.176699e+002, 8.108222e-002
8.195984e+002, 7.363338e-002
8.215269e+002, 6.879243e-002
8.234553e+002, 6.611717e-002
8.253838e+002, 6.535672e-002
8.273123e+002, 6.610075e-002
8.292407e+002, 6.774988e-002
8.311692e+002, 7.044884e-002
8.330977e+002, 7.435364e-002
8.350261e+002, 7.978532e-002
8.369546e+002, 8.675516e-002
8.388831e+002, 9.505125e-002
8.408115e+002, 1.050097e-001
8.427400e+002, 1.166719e-001
8.446685e+002, 1.301993e-001
8.465969e+002, 1.455583e-001
8.485254e+002, 1.622876e-001
8.504539e+002, 1.801503e-001
8.523823e+002, 1.988623e-001
8.543108e+002, 2.185268e-001
8.562393e+002, 2.385096e-001
8.581677e+002, 2.583914e-001
8.600962e+002, 2.782360e-001
8.620247e+002, 2.973091e-001
8.639531e+002, 3.151203e-001
8.658816e+002, 3.304234e-001
8.678101e+002, 3.420931e-001
8.697385e+002, 3.490487e-001
8.716670e+002, 3.504542e-001
8.735955e+002, 3.491166e-001
8.755239e+002, 3.497358e-001
8.774524e+002, 3.561397e-001
8.793809e+002, 3.677690e-001
8.813093e+002, 3.806487e-001
8.832378e+002, 3.914922e-001
8.851663e+002, 3.986848e-001
8.870947e+002, 4.017436e-001
8.890232e+002, 4.015054e-001
8.909517e+002, 3.992391e-001
8.928801e+002, 3.953639e-001
8.948085e+002, 3.913746e-001
8.967370e+002, 3.901565e-001
8.986655e+002, 3.917367e-001
9.005939e+002, 3.931167e-001
9.025224e+002, 3.914739e-001
9.044509e+002, 3.863600e-001
9.063793e+002, 3.785575e-001
9.083078e+002, 3.693980e-001
9.102363e+002, 3.593870e-001
9.121647e+002, 3.487218e-001
9.140932e+002, 3.377914e-001
9.160217e+002, 3.269807e-001
9.179501e+002, 3.160352e-001
9.198786e+002, 3.052568e-001
9.218071e+002, 2.944460e-001
9.237355e+002, 2.844222e-001
9.256640e+002, 2.752639e-001
9.275925e+002, 2.664968e-001
9.295209e+002, 2.585824e-001
9.314494e+002, 2.510049e-001
9.333779e+002, 2.434009e-001
9.353063e+002, 2.361168e-001
9.372348e+002, 2.291683e-001
9.391633e+002, 2.224487e-001
9.410917e+002, 2.161832e-001
9.430202e+002, 2.098335e-001
9.449487e+002, 2.035075e-001
9.468771e+002, 1.978320e-001
9.488056e+002, 1.920792e-001
9.507341e+002, 1.864514e-001
9.526625e+002, 1.809398e-001
9.545910e+002, 1.757921e-001
9.565195e+002, 1.708376e-001
9.584479e+002, 1.656817e-001
9.603764e+002, 1.603575e-001
9.623049e+002, 1.552746e-001
9.642333e+002, 1.508032e-001
9.661618e+002, 1.462845e-001
9.680903e+002, 1.416979e-001
9.700187e+002, 1.372342e-001
9.719472e+002, 1.328671e-001
9.738757e+002, 1.286148e-001
9.758041e+002, 1.245932e-001
9.777326e+002, 1.208547e-001
9.796611e+002, 1.171087e-001
9.815895e+002, 1.133824e-001
9.835180e+002, 1.097415e-001
9.854465e+002, 1.062881e-001
9.873749e+002, 1.029293e-001
9.893034e+002, 9.951010e-002
9.912319e+002, 9.606229e-002
9.931603e+002, 9.250757e-002
9.950888e+002, 8.881023e-002
9.970173e+002, 8.514173e-002
9.989457e+002, 8.150563e-002
1.000874e+003, 7.766084e-002
1.002803e+003, 7.387851e-002
1.004731e+003, 7.020619e-002
1.006660e+003, 6.663850e-002
1.008588e+003, 6.341819e-002
1.010517e+003, 6.053548e-002
1.012445e+003, 5.828791e-002
1.014373e+003, 5.673809e-002
1.016302e+003, 5.570854e-002
1.018230e+003, 5.540261e-002
1.020159e+003, 5.625860e-002
1.022087e+003, 5.860011e-002
1.024016e+003, 6.200020e-002
1.025944e+003, 6.534803e-002
1.027873e+003, 6.745911e-002
1.029801e+003, 6.747330e-002
1.031730e+003, 6.596701e-002
1.033658e+003, 6.391881e-002
1.035587e+003, 6.163144e-002
1.037515e+003, 5.929846e-002
1.039444e+003, 5.742734e-002
1.041372e+003, 5.612977e-002
1.043301e+003, 5.553877e-002
1.045229e+003, 5.551141e-002
1.047157e+003, 5.620741e-002
1.049086e+003, 5.793874e-002
1.051014e+003, 6.095047e-002
1.052943e+003, 6.597487e-002
1.054871e+003, 7.304490e-002
1.056800e+003, 8.257287e-002
1.058728e+003, 9.497342e-002
1.060657e+003, 1.095404e-001
1.062585e+003, 1.240369e-001
1.064514e+003, 1.352991e-001
1.066442e+003, 1.410413e-001
1.068371e+003, 1.409091e-001
1.070299e+003, 1.364930e-001
1.072228e+003, 1.295520e-001
1.074156e+003, 1.215710e-001
1.076084e+003, 1.139700e-001
1.078013e+003, 1.065566e-001
1.079941e+003, 9.954449e-002
1.081870e+003, 9.328245e-002
1.083798e+003, 8.754488e-002
1.085727e+003, 8.259939e-002
1.087655e+003, 7.808449e-002
1.089584e+003, 7.385077e-002
1.091512e+003, 6.993047e-002
1.093441e+003, 6.624975e-002
1.095369e+003, 6.262824e-002
1.097298e+003, 5.902924e-002
1.099226e+003, 5.546481e-002
1.101155e+003, 5.218546e-002
1.103083e+003, 4.904122e-002
1.105011e+003, 4.592042e-002
1.106940e+003, 4.317116e-002
1.108868e+003, 4.067224e-002
1.110797e+003, 3.814930e-002
1.112725e+003, 3.560776e-002
1.114654e+003, 3.352910e-002
1.116582e+003, 3.177798e-002
1.118511e+003, 2.980987e-002
1.120439e+003, 2.795812e-002
1.122368e+003, 2.614074e-002
1.124296e+003, 2.450528e-002
1.126225e+003, 2.300654e-002
1.128153e+003, 2.136564e-002
1.130082e+003, 1.990758e-002
1.132010e+003, 1.878840e-002
1.133938e+003, 1.796873e-002
1.135867e+003, 1.704752e-002
1.137795e+003, 1.618157e-002
1.139724e+003, 1.548916e-002
1.141652e+003, 1.484881e-002
1.143581e+003, 1.428682e-002
1.145509e+003, 1.380540e-002
1.147438e+003, 1.326790e-002
1.149366e+003, 1.304779e-002
1.151295e+003, 1.289883e-002
1.153223e+003, 1.233547e-002
1.155152e+003, 1.199577e-002
1.157080e+003, 1.180831e-002
1.159009e+003, 1.154225e-002
1.160937e+003, 1.133150e-002
1.162865e+003, 1.106114e-002
1.164794e+003, 1.068042e-002
1.166722e+003, 1.053679e-002
1.168651e+003, 1.032692e-002
1.170579e+003, 1.003327e-002
1.172508e+003, 9.785145e-003
1.174436e+003, 9.681681e-003
1.176365e+003, 9.499487e-003
1.178293e+003, 9.282902e-003
1.180222e+003, 9.241969e-003
1.182150e+003, 9.211928e-003
1.184079e+003, 8.846701e-003
1.186007e+003, 8.452457e-003
1.187936e+003, 8.300208e-003
1.189864e+003, 8.215982e-003
1.191792e+003, 8.055232e-003
1.193721e+003, 7.873649e-003
1.195649e+003, 7.761374e-003
1.197578e+003, 7.940266e-003
1.199506e+003, 7.911445e-003
1.201435e+003, 7.677105e-003
1.203363e+003, 7.440701e-003
1.205292e+003, 7.276238e-003
1.207220e+003, 7.090359e-003
1.209149e+003, 7.021667e-003
1.211077e+003, 7.022629e-003
1.213006e+003, 6.796757e-003
1.214934e+003, 6.653212e-003
1.216863e+003, 6.654503e-003
1.218791e+003, 6.546812e-003
1.220719e+003, 6.493750e-003
1.222648e+003, 6.480736e-003
1.224576e+003, 6.269049e-003
1.226505e+003, 6.018281e-003
1.228433e+003, 5.928678e-003
1.230362e+003, 6.022817e-003
1.232290e+003, 5.874774e-003
1.234219e+003, 5.646858e-003
1.236147e+003, 5.681482e-003
1.238076e+003, 5.699749e-003
1.240004e+003, 5.563197e-003
1.241933e+003, 5.484661e-003
1.243861e+003, 5.306010e-003
1.245790e+003, 5.179738e-003
1.247718e+003, 5.244354e-003
1.249646e+003, 5.292357e-003
1.251575e+003, 5.257186e-003
1.253503e+003, 5.174270e-003
1.255432e+003, 5.075138e-003
1.257360e+003, 5.039423e-003
1.259289e+003, 5.039703e-003
1.261217e+003, 4.942860e-003
1.263146e+003, 4.818022e-003
1.265074e+003, 4.646696e-003
1.267003e+003, 4.689888e-003
1.268931e+003, 4.765527e-003
1.270860e+003, 4.852832e-003
1.272788e+003, 4.788027e-003
1.274717e+003, 4.680566e-003
1.276645e+003, 4.709108e-003
1.278573e+003, 4.911624e-003
1.280502e+003, 4.965795e-003
1.282430e+003, 4.851681e-003
1.284359e+003, 4.557915e-003
1.286287e+003, 4.332745e-003
1.288216e+003, 4.410518e-003
1.290144e+003, 4.557448e-003
1.292073e+003, 4.588365e-003
1.294001e+003, 4.448385e-003
1.295930e+003, 4.503717e-003
1.297858e+003, 4.576003e-003
1.299787e+003, 4.521611e-003
1.301715e+003, 4.408771e-003
1.303644e+003, 4.357179e-003
1.305572e+003, 4.333506e-003
1.307500e+003, 4.346679e-003
1.309429e+003, 4.419889e-003
1.311357e+003, 4.491532e-003
1.313286e+003, 4.452149e-003
1.315214e+003, 4.416335e-003
1.317143e+003, 4.204736e-003
1.319071e+003, 3.858902e-003
1.321000e+003, 3.811373e-003
1.322928e+003, 4.072831e-003
1.324857e+003, 4.137750e-003
1.326785e+003, 4.154715e-003
1.328714e+003, 4.011746e-003
1.330642e+003, 3.988816e-003
1.332571e+003, 4.115602e-003
1.334499e+003, 4.139420e-003
1.336427e+003, 4.119708e-003
1.338356e+003, 4.113365e-003
1.340284e+003, 3.990944e-003
1.342213e+003, 3.993040e-003
1.344141e+003, 4.166982e-003
1.346070e+003, 4.022930e-003
1.347998e+003, 3.998917e-003
1.349927e+003, 4.221552e-003
1.351855e+003, 4.385708e-003
1.353784e+003, 4.285563e-003
1.355712e+003, 4.239500e-003
1.357641e+003, 4.318883e-003
1.359569e+003, 4.307518e-003
1.361498e+003, 4.317988e-003
1.363426e+003, 4.467197e-003
1.365354e+003, 4.630038e-003
1.367283e+003, 4.543520e-003
1.369211e+003, 4.468823e-003
1.371140e+003, 4.526928e-003
1.373068e+003, 4.437934e-003
1.374997e+003, 4.409225e-003
1.376925e+003, 4.549296e-003
1.378854e+003, 4.548850e-003
1.380782e+003, 4.548144e-003
1.382711e+003, 4.538398e-003
1.384639e+003, 4.594591e-003
1.386568e+003, 4.655762e-003
1.388496e+003, 4.587404e-003
1.390424e+003, 4.639811e-003
1.392353e+003, 4.700990e-003
1.394281e+003, 4.523979e-003
1.396210e+003, 4.524142e-003
1.398138e+003, 4.602323e-003
1.400067e+003, 4.508736e-003
1.401995e+003, 4.498652e-003
1.403924e+003, 4.688805e-003
1.405852e+003, 4.738132e-003
1.407781e+003, 4.656210e-003
1.409709e+003, 4.358720e-003
1.411638e+003, 4.360543e-003
1.413566e+003, 4.511094e-003
1.415495e+003, 4.373804e-003
1.417423e+003, 4.437049e-003
1.419351e+003, 4.619488e-003
1.421280e+003, 4.516923e-003
1.423208e+003, 4.538154e-003
1.425137e+003, 4.659753e-003
1.427065e+003, 4.667862e-003
1.428994e+003, 4.753557e-003
1.430922e+003, 4.698510e-003
1.432851e+003, 4.662302e-003
1.434779e+003, 4.732712e-003
1.436708e+003, 5.009730e-003
1.438636e+003, 4.951729e-003
1.440565e+003, 4.719545e-003
1.442493e+003, 4.783256e-003
1.444422e+003, 4.895307e-003
1.446350e+003, 4.945518e-003
1.448278e+003, 4.955995e-003
1.450207e+003, 4.910183e-003
1.452135e+003, 4.877406e-003
1.454064e+003, 4.877447e-003
1.455992e+003, 4.975184e-003
1.457921e+003, 5.102691e-003
1.459849e+003, 5.243612e-003
1.461778e+003, 5.304133e-003
1.463706e+003, 5.173686e-003
1.465635e+003, 5.225344e-003
1.467563e+003, 5.373684e-003
1.469492e+003, 5.400728e-003
1.471420e+003, 5.381352e-003
1.473349e+003, 5.208470e-003
1.475277e+003, 4.971173e-003
1.477205e+003, 4.823835e-003
1.479134e+003, 4.913573e-003
1.481062e+003, 5.108339e-003
1.482991e+003, 5.121307e-003
1.484919e+003, 4.848786e-003
1.486848e+003, 4.814343e-003
1.488776e+003, 4.859913e-003
1.490705e+003, 4.697421e-003
1.492633e+003, 4.661723e-003
1.494562e+003, 4.505541e-003
1.496490e+003, 4.375897e-003
1.498419e+003, 4.275856e-003
1.500347e+003, 4.334048e-003
1.502276e+003, 4.365962e-003
1.504204e+003, 4.385015e-003
1.506132e+003, 4.490803e-003
1.508061e+003, 4.494482e-003
1.509989e+003, 4.403690e-003
1.511918e+003, 4.449843e-003
1.513846e+003, 4.511445e-003
1.515775e+003, 4.442701e-003
1.517703e+003, 4.286193e-003
1.519632e+003, 4.368364e-003
1.521560e+003, 4.564633e-003
1.523489e+003, 4.602458e-003
1.525417e+003, 4.519352e-003
1.527346e+003, 4.565326e-003
1.529274e+003, 4.448638e-003
1.531203e+003, 4.305359e-003
1.533131e+003, 4.310602e-003
1.535059e+003, 4.342389e-003
1.536988e+003, 4.353626e-003
1.538916e+003, 4.367740e-003
1.540845e+003, 4.557287e-003
1.542773e+003, 4.700379e-003
1.544702e+003, 4.796834e-003
1.546630e+003, 4.722711e-003
1.548559e+003, 4.680212e-003
1.550487e+003, 4.823224e-003
1.552416e+003, 4.827062e-003
1.554344e+003, 4.896580e-003
1.556273e+003, 4.947201e-003
1.558201e+003, 5.047289e-003
1.560130e+003, 5.317546e-003
1.562058e+003, 5.445243e-003
1.563986e+003, 5.522433e-003
1.565915e+003, 5.713576e-003
1.567843e+003, 5.930746e-003
1.569772e+003, 5.853380e-003
1.571700e+003, 5.605606e-003
1.573629e+003, 5.462898e-003
1.575557e+003, 5.498279e-003
1.577486e+003, 5.700695e-003
1.579414e+003, 6.007289e-003
1.581343e+003, 6.170166e-003
1.583271e+003, 6.124839e-003
1.585200e+003, 6.017035e-003
1.587128e+003, 5.865803e-003
1.589057e+003, 5.880354e-003
1.590985e+003, 5.932299e-003
1.592913e+003, 6.017075e-003
1.594842e+003, 6.083323e-003
1.596770e+003, 5.873755e-003
1.598699e+003, 5.762374e-003
1.600627e+003, 5.877888e-003
1.602556e+003, 5.891530e-003
1.604484e+003, 5.879485e-003
1.606413e+003, 5.878869e-003
1.608341e+003, 5.902623e-003
1.610270e+003, 5.991172e-003
1.612198e+003, 6.074785e-003
1.614127e+003, 6.103361e-003
1.616055e+003, 6.155195e-003
1.617984e+003, 6.231611e-003
1.619912e+003, 6.069271e-003
1.621840e+003, 5.988452e-003
1.623769e+003, 6.061740e-003
1.625697e+003, 5.985630e-003
1.627626e+003, 5.930279e-003
1.629554e+003, 6.069726e-003
1.631483e+003, 6.146548e-003
1.633411e+003, 5.983420e-003
1.635340e+003, 5.826407e-003
1.637268e+003, 5.885140e-003
1.639197e+003, 5.834956e-003
1.641125e+003, 5.674335e-003
1.643054e+003, 5.727143e-003
1.644982e+003, 5.760497e-003
1.646911e+003, 5.672240e-003
1.648839e+003, 5.674973e-003
1.650767e+003, 5.862516e-003
1.652696e+003, 5.916265e-003
1.654624e+003, 5.653349e-003
1.656553e+003, 5.459474e-003
1.658481e+003, 5.382957e-003
1.660410e+003, 5.391606e-003
1.662338e+003, 5.656498e-003
1.664267e+003, 5.727696e-003
1.666195e+003, 5.369695e-003
1.668124e+003, 5.155318e-003
1.670052e+003, 5.192107e-003
1.671981e+003, 5.352079e-003
1.673909e+003, 5.405570e-003
1.675838e+003, 5.184735e-003
1.677766e+003, 5.030819e-003
1.679694e+003, 5.153766e-003
1.681623e+003, 5.045370e-003
1.683551e+003, 4.902696e-003
1.685480e+003, 4.948359e-003
1.687408e+003, 4.968907e-003
1.689337e+003, 4.969649e-003
1.691265e+003, 4.828379e-003
1.693194e+003, 4.740192e-003
1.695122e+003, 4.705012e-003
1.697051e+003, 4.559642e-003
1.698979e+003, 4.468367e-003
1.700908e+003, 4.293671e-003
1.702836e+003, 4.038853e-003
1.704765e+003, 3.852578e-003
1.706693e+003, 3.899874e-003
1.708621e+003, 4.036357e-003
1.710550e+003, 3.863851e-003
1.712478e+003, 3.569023e-003
1.714407e+003, 3.740563e-003
1.716335e+003, 3.800008e-003
1.718264e+003, 3.738612e-003
1.720192e+003, 3.884700e-003
1.722121e+003, 3.754727e-003
1.724049e+003, 3.664569e-003
1.725978e+003, 3.998235e-003
1.727906e+003, 4.055454e-003
1.729835e+003, 3.695409e-003
1.731763e+003, 3.640631e-003
1.733692e+003, 3.888176e-003
1.735620e+003, 3.747280e-003
1.737548e+003, 3.604851e-003
1.739477e+003, 3.430036e-003
1.741405e+003, 3.363340e-003
1.743334e+003, 3.258410e-003
1.745262e+003, 3.195308e-003
1.747191e+003, 3.282425e-003
1.749119e+003, 3.416939e-003
1.751048e+003, 3.470226e-003
1.752976e+003, 3.253974e-003
1.754905e+003, 3.148663e-003
1.756833e+003, 3.087725e-003
1.758762e+003, 3.060319e-003
1.760690e+003, 2.982169e-003
1.762619e+003, 2.884292e-003
1.764547e+003, 3.042889e-003
1.766475e+003, 3.123666e-003
1.768404e+003, 3.228982e-003
1.770332e+003, 3.369721e-003
1.772261e+003, 3.407091e-003
1.774189e+003, 3.463072e-003
1.776118e+003, 3.384455e-003
1.778046e+003, 3.284267e-003
1.779975e+003, 3.407439e-003
1.781903e+003, 3.501414e-003
1.783832e+003, 3.844224e-003
1.785760e+003, 3.903003e-003
1.787689e+003, 3.815531e-003
1.789617e+003, 3.714567e-003
1.791546e+003, 3.541264e-003
1.793474e+003, 3.565881e-003
1.795402e+003, 3.395539e-003
1.797331e+003, 3.026901e-003
1.799259e+003, 3.211781e-003
1.801188e+003, 3.422119e-003
1.803116e+003, 3.453092e-003
1.805045e+003, 3.385773e-003
1.806973e+003, 3.304794e-003
1.808902e+003, 3.335368e-003
1.810830e+003, 3.238694e-003
1.812759e+003, 3.071129e-003
1.814687e+003, 2.998203e-003
1.816616e+003, 3.412088e-003
1.818544e+003, 3.656042e-003
1.820473e+003, 3.581730e-003
1.822401e+003, 3.554745e-003
1.824329e+003, 3.439093e-003
1.826258e+003, 3.383126e-003
1.828186e+003, 3.300221e-003
1.830115e+003, 3.458731e-003
1.832043e+003, 3.635682e-003
1.833972e+003, 3.494465e-003
1.835900e+003, 3.269041e-003
1.837829e+003, 3.076586e-003
1.839757e+003, 3.198401e-003
1.841686e+003, 3.147602e-003
1.843614e+003, 3.139331e-003
1.845543e+003, 3.174890e-003
1.847471e+003, 3.463049e-003
1.849400e+003, 3.291195e-003
1.851328e+003, 2.971516e-003
1.853256e+003, 2.936604e-003
1.855185e+003, 3.412035e-003
1.857113e+003, 3.664782e-003
1.859042e+003, 3.448945e-003
1.860970e+003, 3.227226e-003
1.862899e+003, 3.111047e-003
1.864827e+003, 2.854546e-003
1.866756e+003, 3.459437e-003
1.868684e+003, 3.892005e-003
1.870613e+003, 3.571159e-003
1.872541e+003, 3.552630e-003
1.874470e+003, 3.615426e-003
1.876398e+003, 3.509596e-003
1.878327e+003, 3.382029e-003
1.880255e+003, 3.172039e-003
1.882183e+003, 2.995089e-003
1.884112e+003, 2.985580e-003
1.886040e+003, 2.995971e-003
1.887969e+003, 3.600192e-003
1.889897e+003, 4.064610e-003
1.891826e+003, 3.883079e-003
1.893754e+003, 3.262462e-003
1.895683e+003, 2.710631e-003
1.897611e+003, 3.064967e-003
1.899540e+003, 3.475848e-003
1.901468e+003, 3.919949e-003
1.903397e+003, 3.943495e-003
1.905325e+003, 3.948182e-003
1.907254e+003, 3.902325e-003
1.909182e+003, 3.302219e-003
1.911110e+003, 2.927593e-003
1.913039e+003, 3.208044e-003
1.914967e+003, 3.403689e-003
1.916896e+003, 3.475107e-003
1.918824e+003, 2.828697e-003
1.920753e+003, 2.673445e-003
1.922681e+003, 2.587886e-003
1.924610e+003, 2.451686e-003
1.926538e+003, 2.820502e-003
1.928467e+003, 2.637545e-003
1.930395e+003, 2.573273e-003
1.932324e+003, 2.552883e-003
1.934252e+003, 2.872928e-003
1.936181e+003, 3.134457e-003
1.938109e+003, 2.956615e-003
1.940037e+003, 2.675874e-003
1.941966e+003, 2.414792e-003
1.943894e+003, 2.264737e-003
1.945823e+003, 1.789677e-003
1.947751e+003, 1.849040e-003
1.949680e+003, 1.915409e-003
1.951608e+003, 2.461151e-003
1.953537e+003, 3.234169e-003
1.955465e+003, 3.421711e-003
1.957394e+003, 3.519845e-003
1.959322e+003, 3.439433e-003
1.961251e+003, 3.394235e-003
1.963179e+003, 2.943980e-003
1.965108e+003, 2.315397e-003
1.967036e+003, 1.995248e-003
1.968964e+003, 2.385387e-003
1.970893e+003, 2.469791e-003
1.972821e+003, 3.050539e-003
1.974750e+003, 3.497952e-003
1.976678e+003, 2.832400e-003
1.978607e+003, 3.688954e-003
1.980535e+003, 5.105280e-003
1.982464e+003, 5.540301e-003
1.984392e+003, 5.851618e-003
1.986321e+003, 5.034343e-003
1.988249e+003, 3.879294e-003
1.990178e+003, 3.542808e-003
1.992106e+003, 2.956096e-003
1.994035e+003, 3.933314e-003
1.995963e+003, 4.251995e-003
1.997891e+003, 4.018416e-003
1.999820e+003, 3.527414e-003
2.001748e+003, 3.389606e-003
2.003677e+003, 3.780364e-003
2.005605e+003, 4.109972e-003
2.007534e+003, 4.978830e-003
2.009462e+003, 4.859953e-003
2.011391e+003, 7.357975e-003
2.013319e+003, 7.904408e-003
2.015248e+003, 5.556864e-003
2.017176e+003, 4.464057e-003
2.019105e+003, 4.781070e-003
2.021033e+003, 3.429779e-003
2.022962e+003, 2.516755e-003
2.024890e+003, 3.104039e-003
2.026818e+003, 4.905297e-003
2.028747e+003, 5.499498e-003
2.030675e+003, 5.197140e-003
2.032604e+003, 5.921886e-003
2.034532e+003, 6.629284e-003
2.036461e+003, 6.540872e-003
2.038389e+003, 5.644063e-003
2.040318e+003, 4.788864e-003
2.042246e+003, 4.947073e-003
2.044175e+003, 5.409529e-003
2.046103e+003, 5.437431e-003
2.048032e+003, 6.364627e-003
2.049960e+003, 7.064006e-003
2.051889e+003, 6.621614e-003
2.053817e+003, 6.419080e-003
2.055746e+003, 5.547216e-003
2.057674e+003, 4.982830e-003
2.059603e+003, 5.787880e-003
2.061531e+003, 5.167836e-003
2.063459e+003, 4.340785e-003
2.065388e+003, 4.518167e-003
2.067316e+003, 4.895774e-003
2.069245e+003, 4.870016e-003
2.071173e+003, 5.447923e-003
2.073102e+003, 5.788519e-003
2.075030e+003, 6.421271e-003
2.076959e+003, 5.667951e-003
2.078887e+003, 5.496779e-003
2.080816e+003, 6.191381e-003
2.082744e+003, 6.717087e-003
2.084673e+003, 6.629508e-003
2.086601e+003, 6.425298e-003
2.088530e+003, 6.127878e-003
2.090458e+003, 5.766030e-003
2.092386e+003, 5.355813e-003
2.094315e+003, 6.116935e-003
2.096243e+003, 6.932372e-003
2.098172e+003, 6.749633e-003
2.100100e+003, 5.689864e-003
2.102029e+003, 4.589899e-003
2.103957e+003, 4.519969e-003
2.105886e+003, 5.797275e-003
2.107814e+003, 6.067709e-003
2.109743e+003, 6.054727e-003
2.111671e+003, 6.092667e-003
2.113600e+003, 5.471975e-003
2.115528e+003, 4.808100e-003
2.117457e+003, 4.420613e-003
2.119385e+003, 3.862191e-003
2.121313e+003, 3.533469e-003
2.123242e+003, 3.707290e-003
2.125170e+003, 3.441504e-003
2.127099e+003, 3.713564e-003
2.129027e+003, 3.966115e-003
2.130956e+003, 3.113355e-003
2.132884e+003, 3.069241e-003
2.134813e+003, 2.546627e-003
2.136741e+003, 2.249438e-003
2.138670e+003, 2.678450e-003
2.140598e+003, 2.435588e-003
2.142527e+003, 2.247378e-003
2.144455e+003, 2.502201e-003
2.146384e+003, 1.063925e-003
2.148312e+003, -3.889275e-004
2.150240e+003, -6.599018e-004
2.152169e+003, -3.368742e-004
2.154097e+003, -1.831827e-004
2.156026e+003, -1.014390e-003
2.157954e+003, 1.439710e-003
2.159883e+003, 6.369155e-003
2.161811e+003, 6.859445e-003
2.163740e+003, 6.137201e-003
2.165668e+003, 5.843316e-003
2.167597e+003, 5.737612e-003
2.169525e+003, 4.018796e-003
2.171454e+003, 4.033910e-003
2.173382e+003, 5.488429e-003
2.175311e+003, 6.763489e-003
2.177239e+003, 5.921924e-003
2.179167e+003, 4.419935e-003
2.181096e+003, 4.230174e-003
2.183024e+003, 3.831333e-003
2.184953e+003, 3.676324e-003
2.186881e+003, 4.645867e-003
2.188810e+003, 4.457003e-003
2.190738e+003, 3.939442e-003
2.192667e+003, 5.898333e-003
2.194595e+003, 7.132870e-003
2.196524e+003, 6.721100e-003
2.198452e+003, 7.076812e-003
2.200381e+003, 7.658226e-003
2.202309e+003, 7.078354e-003
2.204238e+003, 6.577539e-003
2.206166e+003, 6.742119e-003
2.208094e+003, 6.627360e-003
2.210023e+003, 5.214927e-003
2.211951e+003, 5.684147e-003
2.213880e+003, 6.846079e-003
2.215808e+003, 7.131166e-003
2.217737e+003, 7.884050e-003
2.219665e+003, 9.062950e-003
2.221594e+003, 8.390682e-003
2.223522e+003, 7.447246e-003
2.225451e+003, 7.808691e-003
2.227379e+003, 7.431644e-003
2.229308e+003, 6.102487e-003
2.231236e+003, 7.021657e-003
2.233165e+003, 9.782759e-003
2.235093e+003, 1.001643e-002
2.237021e+003, 8.528654e-003
2.238950e+003, 8.264318e-003
2.240878e+003, 7.950635e-003
2.242807e+003, 8.002801e-003
2.244735e+003, 8.584522e-003
2.246664e+003, 8.691105e-003
2.248592e+003, 7.916349e-003
2.250521e+003, 7.506855e-003
2.252449e+003, 8.148607e-003
2.254378e+003, 8.283695e-003
2.256306e+003, 8.219128e-003
2.258235e+003, 8.777473e-003
2.260163e+003, 8.501180e-003
2.262092e+003, 8.431445e-003
2.264020e+003, 8.209896e-003
2.265948e+003, 7.951702e-003
2.267877e+003, 7.840680e-003
2.269805e+003, 8.062826e-003
2.271734e+003, 8.723425e-003
2.273662e+003, 8.921115e-003
2.275591e+003, 9.250472e-003
2.277519e+003, 9.756529e-003
2.279448e+003, 9.851010e-003
2.281376e+003, 9.835697e-003
2.283305e+003, 9.606071e-003
2.285233e+003, 9.210244e-003
2.287162e+003, 9.032200e-003
2.289090e+003, 9.388108e-003
2.291019e+003, 9.181792e-003
2.292947e+003, 8.552907e-003
2.294875e+003, 8.491188e-003
2.296804e+003, 9.014111e-003
2.298732e+003, 8.858316e-003
2.300661e+003, 8.579060e-003
2.302589e+003, 8.704864e-003
2.304518e+003, 8.798829e-003
2.306446e+003, 9.019779e-003
2.308375e+003, 9.236823e-003
2.310303e+003, 9.317233e-003
2.312232e+003, 9.431900e-003
2.314160e+003, 9.416228e-003
2.316089e+003, 9.375350e-003
2.318017e+003, 9.298991e-003
2.319946e+003, 9.636967e-003
2.321874e+003, 1.008333e-002
2.323802e+003, 9.637497e-003
2.325731e+003, 8.163926e-003
2.327659e+003, 7.628198e-003
2.329588e+003, 8.050548e-003
2.331516e+003, 8.058530e-003
2.333445e+003, 7.905116e-003
2.335373e+003, 7.983522e-003
2.337302e+003, 8.218825e-003
2.339230e+003, 7.956570e-003
2.341159e+003, 7.783293e-003
2.343087e+003, 8.193134e-003
2.345016e+003, 8.325156e-003
2.346944e+003, 8.204565e-003
2.348873e+003, 8.461740e-003
2.350801e+003, 8.370232e-003
2.352729e+003, 8.005469e-003
2.354658e+003, 8.038981e-003
2.356586e+003, 8.475971e-003
2.358515e+003, 8.268051e-003
2.360443e+003, 7.818974e-003
2.362372e+003, 7.928635e-003
2.364300e+003, 7.656191e-003
2.366229e+003, 7.540576e-003
2.368157e+003, 7.340726e-003
2.370086e+003, 6.990469e-003
2.372014e+003, 7.306305e-003
2.373942e+003, 7.929576e-003
2.375871e+003, 8.257138e-003
2.377799e+003, 8.521679e-003
2.379728e+003, 8.084241e-003
2.381656e+003, 8.234856e-003
2.383585e+003, 8.547081e-003
2.385513e+003, 8.180766e-003
2.387442e+003, 8.244075e-003
2.389370e+003, 8.787472e-003
2.391299e+003, 8.936160e-003
2.393227e+003, 8.336953e-003
2.395156e+003, 7.900061e-003
2.397084e+003, 8.016643e-003
2.399012e+003, 8.405698e-003
2.400941e+003, 8.744624e-003
2.402869e+003, 8.728331e-003
2.404798e+003, 8.825021e-003
2.406726e+003, 9.008220e-003
2.408655e+003, 9.215777e-003
2.410583e+003, 9.017998e-003
2.412512e+003, 8.851392e-003
2.414440e+003, 8.922262e-003
2.416369e+003, 8.672993e-003
2.418297e+003, 8.346946e-003
2.420226e+003, 8.275871e-003
2.422154e+003, 8.720734e-003
2.424083e+003, 9.331840e-003
2.426011e+003, 9.149264e-003
2.427939e+003, 9.205166e-003
2.429868e+003, 9.957662e-003
2.431796e+003, 1.023717e-002
2.433725e+003, 9.698918e-003
2.435653e+003, 9.678680e-003
2.437582e+003, 9.834559e-003
2.439510e+003, 9.271224e-003
2.441439e+003, 9.618282e-003
2.443367e+003, 9.661594e-003
2.445296e+003, 9.767419e-003
2.447224e+003, 1.002218e-002
2.449153e+003, 1.004514e-002
2.451081e+003, 9.823726e-003
2.453010e+003, 9.418891e-003
2.454938e+003, 9.609053e-003
2.456866e+003, 1.007116e-002
2.458795e+003, 1.032496e-002
2.460723e+003, 1.006817e-002
2.462652e+003, 1.024667e-002
2.464580e+003, 1.029239e-002
2.466509e+003, 9.845813e-003
2.468437e+003, 9.336301e-003
2.470366e+003, 8.948068e-003
2.472294e+003, 9.003973e-003
2.474223e+003, 9.488558e-003
2.476151e+003, 9.032149e-003
2.478080e+003, 8.439288e-003
2.480008e+003, 9.446835e-003
2.481937e+003, 1.020957e-002
2.483865e+003, 1.012386e-002
2.485793e+003, 9.981600e-003
2.487722e+003, 9.849869e-003
2.489650e+003, 9.275196e-003
2.491579e+003, 9.483972e-003
2.493507e+003, 9.707404e-003
2.495436e+003, 9.611879e-003
2.497364e+003, 9.762574e-003
2.499293e+003, 1.006576e-002
2.501221e+003, 1.016439e-002
2.503150e+003, 9.746439e-003
2.505078e+003, 9.282888e-003
2.507007e+003, 1.013739e-002
2.508935e+003, 1.082354e-002
2.510864e+003, 9.930328e-003
2.512792e+003, 9.069089e-003
2.514720e+003, 9.247957e-003
2.516649e+003, 9.859207e-003
2.518577e+003, 1.027963e-002
2.520506e+003, 1.025874e-002
2.522434e+003, 1.020225e-002
2.524363e+003, 1.005696e-002
2.526291e+003, 9.341544e-003
2.528220e+003, 8.856455e-003
2.530148e+003, 8.889521e-003
2.532077e+003, 9.251704e-003
2.534005e+003, 9.733138e-003
2.535934e+003, 9.557816e-003
2.537862e+003, 9.726708e-003
2.539791e+003, 1.014262e-002
2.541719e+003, 9.921813e-003
2.543647e+003, 9.848126e-003
2.545576e+003, 1.010037e-002
2.547504e+003, 1.022514e-002
2.549433e+003, 1.067338e-002
2.551361e+003, 1.129928e-002
2.553290e+003, 1.042270e-002
2.555218e+003, 1.000377e-002
2.557147e+003, 1.033257e-002
2.559075e+003, 1.074159e-002
2.561004e+003, 1.056737e-002
2.562932e+003, 1.032490e-002
2.564861e+003, 1.042757e-002
2.566789e+003, 1.087543e-002
2.568718e+003, 1.064168e-002
2.570646e+003, 9.762827e-003
2.572574e+003, 9.371144e-003
2.574503e+003, 9.837487e-003
2.576431e+003, 9.887435e-003
2.578360e+003, 9.475284e-003
2.580288e+003, 9.390916e-003
2.582217e+003, 9.278610e-003
2.584145e+003, 8.657354e-003
2.586074e+003, 9.639731e-003
2.588002e+003, 1.010548e-002
2.589931e+003, 1.001409e-002
2.591859e+003, 1.080737e-002
2.593788e+003, 1.119674e-002
2.595716e+003, 1.011999e-002
2.597645e+003, 9.926871e-003
2.599573e+003, 1.053622e-002
2.601501e+003, 1.072637e-002
2.603430e+003, 1.040022e-002
2.605358e+003, 1.065309e-002
2.607287e+003, 1.123057e-002
2.609215e+003, 1.115883e-002
2.611144e+003, 1.084335e-002
2.613072e+003, 1.072844e-002
2.615001e+003, 1.088481e-002
2.616929e+003, 1.104921e-002
2.618858e+003, 1.067302e-002
2.620786e+003, 1.098527e-002
2.622715e+003, 1.060428e-002
2.624643e+003, 1.056938e-002
2.626572e+003, 1.103485e-002
2.628500e+003, 1.075610e-002
2.630428e+003, 1.043823e-002
2.632357e+003, 1.024644e-002
2.634285e+003, 1.058899e-002
2.636214e+003, 1.061648e-002
2.638142e+003, 1.027326e-002
2.640071e+003, 1.065140e-002
2.641999e+003, 1.073735e-002
2.643928e+003, 1.075528e-002
2.645856e+003, 1.103198e-002
2.647785e+003, 1.115735e-002
2.649713e+003, 1.120770e-002
2.651642e+003, 1.129958e-002
2.653570e+003, 1.110209e-002
2.655499e+003, 1.094535e-002
2.657427e+003, 1.074240e-002
2.659355e+003, 1.083866e-002
2.661284e+003, 1.104818e-002
2.663212e+003, 1.110030e-002
2.665141e+003, 1.072615e-002
2.667069e+003, 1.076801e-002
2.668998e+003, 1.044024e-002
2.670926e+003, 9.512029e-003
2.672855e+003, 9.762563e-003
2.674783e+003, 1.014107e-002
2.676712e+003, 1.042227e-002
2.678640e+003, 1.044859e-002
2.680569e+003, 1.025783e-002
2.682497e+003, 1.011923e-002
2.684426e+003, 1.029457e-002
2.686354e+003, 1.001544e-002
2.688282e+003, 9.907577e-003
2.690211e+003, 1.055244e-002
2.692139e+003, 1.051124e-002
2.694068e+003, 1.007676e-002
2.695996e+003, 1.035759e-002
2.697925e+003, 1.093489e-002
2.699853e+003, 1.098634e-002
2.701782e+003, 1.069296e-002
2.703710e+003, 1.077022e-002
2.705639e+003, 1.067828e-002
2.707567e+003, 1.070725e-002
2.709496e+003, 1.037159e-002
2.711424e+003, 9.871694e-003
2.713353e+003, 9.701625e-003
2.715281e+003, 1.034121e-002
2.717209e+003, 1.104037e-002
2.719138e+003, 1.066875e-002
2.721066e+003, 9.995523e-003
2.722995e+003, 1.002277e-002
2.724923e+003, 1.077008e-002
2.726852e+003, 1.081194e-002
2.728780e+003, 1.018794e-002
2.730709e+003, 1.020113e-002
2.732637e+003, 1.053368e-002
2.734566e+003, 1.088912e-002
2.736494e+003, 1.082884e-002
2.738423e+003, 1.077334e-002
2.740351e+003, 1.080335e-002
2.742280e+003, 1.073530e-002
2.744208e+003, 1.070528e-002
2.746136e+003, 1.058439e-002
2.748065e+003, 1.062316e-002
2.749993e+003, 1.081433e-002
2.751922e+003, 1.038973e-002
2.753850e+003, 1.038217e-002
2.755779e+003, 1.090899e-002
2.757707e+003, 1.108840e-002
2.759636e+003, 1.124763e-002
2.761564e+003, 1.127253e-002
2.763493e+003, 1.151391e-002
2.765421e+003, 1.173476e-002
2.767350e+003, 1.143183e-002
2.769278e+003, 1.085685e-002
2.771207e+003, 1.089557e-002
2.773135e+003, 1.105231e-002
2.775063e+003, 1.090493e-002
2.776992e+003, 1.073771e-002
2.778920e+003, 1.073999e-002
2.780849e+003, 1.125580e-002
2.782777e+003, 1.135044e-002
2.784706e+003, 1.127546e-002
2.786634e+003, 1.158554e-002
2.788563e+003, 1.141782e-002
2.790491e+003, 1.115064e-002
2.792420e+003, 1.113895e-002
2.794348e+003, 1.130920e-002
2.796277e+003, 1.164976e-002
2.798205e+003, 1.184716e-002
2.800134e+003, 1.163281e-002
2.802062e+003, 1.154763e-002
2.803990e+003, 1.171150e-002
2.805919e+003, 1.180604e-002
2.807847e+003, 1.148524e-002
2.809776e+003, 1.144769e-002
2.811704e+003, 1.187080e-002
2.813633e+003, 1.229532e-002
2.815561e+003, 1.245484e-002
2.817490e+003, 1.231765e-002
2.819418e+003, 1.210050e-002
2.821347e+003, 1.224082e-002
2.823275e+003, 1.210808e-002
2.825204e+003, 1.192321e-002
2.827132e+003, 1.201970e-002
2.829061e+003, 1.188172e-002
2.830989e+003, 1.244782e-002
2.832917e+003, 1.286497e-002
2.834846e+003, 1.250628e-002
2.836774e+003, 1.278263e-002
2.838703e+003, 1.292572e-002
2.840631e+003, 1.305427e-002
2.842560e+003, 1.275695e-002
2.844488e+003, 1.248652e-002
2.846417e+003, 1.235143e-002
2.848345e+003, 1.247179e-002
2.850274e+003, 1.273775e-002
2.852202e+003, 1.258457e-002
2.854131e+003, 1.252952e-002
2.856059e+003, 1.293010e-002
2.857988e+003, 1.317445e-002
2.859916e+003, 1.319019e-002
2.861844e+003, 1.326476e-002
2.863773e+003, 1.285256e-002
2.865701e+003, 1.232058e-002
2.867630e+003, 1.233796e-002
2.869558e+003, 1.295626e-002
2.871487e+003, 1.306893e-002
2.873415e+003, 1.238388e-002
2.875344e+003, 1.235393e-002
2.877272e+003, 1.295521e-002
2.879201e+003, 1.341939e-002
2.881129e+003, 1.290491e-002
2.883058e+003, 1.251785e-002
2.884986e+003, 1.293925e-002
2.886915e+003, 1.288858e-002
2.888843e+003, 1.282108e-002
2.890771e+003, 1.333428e-002
2.892700e+003, 1.332049e-002
2.894628e+003, 1.337231e-002
2.896557e+003, 1.386848e-002
2.898485e+003, 1.370992e-002
2.900414e+003, 1.286391e-002
2.902342e+003, 1.296790e-002
2.904271e+003, 1.314422e-002
2.906199e+003, 1.351560e-002
2.908128e+003, 1.408929e-002
2.910056e+003, 1.387402e-002
2.911985e+003, 1.380205e-002
2.913913e+003, 1.387538e-002
2.915842e+003, 1.304874e-002
2.917770e+003, 1.311505e-002
2.919698e+003, 1.396010e-002
2.921627e+003, 1.427485e-002
2.923555e+003, 1.383956e-002
2.925484e+003, 1.326057e-002
2.927412e+003, 1.311179e-002
2.929341e+003, 1.331729e-002
2.931269e+003, 1.330006e-002
2.933198e+003, 1.318856e-002
2.935126e+003, 1.336836e-002
2.937055e+003, 1.352636e-002
2.938983e+003, 1.289695e-002
2.940912e+003, 1.262447e-002
2.942840e+003, 1.345392e-002
2.944769e+003, 1.315809e-002
2.946697e+003, 1.279899e-002
2.948625e+003, 1.263833e-002
2.950554e+003, 1.283506e-002
2.952482e+003, 1.319753e-002
2.954411e+003, 1.308294e-002
2.956339e+003, 1.306591e-002
2.958268e+003, 1.309530e-002
2.960196e+003, 1.289537e-002
2.962125e+003, 1.299262e-002
2.964053e+003, 1.331623e-002
2.965982e+003, 1.310699e-002
2.967910e+003, 1.303798e-002
2.969839e+003, 1.358353e-002
2.971767e+003, 1.416400e-002
2.973696e+003, 1.375139e-002
2.975624e+003, 1.300101e-002
2.977552e+003, 1.326311e-002
2.979481e+003, 1.409617e-002
2.981409e+003, 1.443721e-002
2.983338e+003, 1.430314e-002
2.985266e+003, 1.418304e-002
2.987195e+003, 1.408137e-002
2.989123e+003, 1.383008e-002
2.991052e+003, 1.351945e-002
2.992980e+003, 1.379409e-002
2.994909e+003, 1.463587e-002
2.996837e+003, 1.441560e-002
2.998766e+003, 1.433141e-002
3.000694e+003, 1.479248e-002
3.002623e+003, 1.462671e-002
3.004551e+003, 1.431410e-002
3.006479e+003, 1.434963e-002
3.008408e+003, 1.470224e-002
3.010336e+003, 1.475160e-002
3.012265e+003, 1.454353e-002
3.014193e+003, 1.419277e-002
3.016122e+003, 1.403492e-002
3.018050e+003, 1.478187e-002
3.019979e+003, 1.527840e-002
3.021907e+003, 1.462252e-002
3.023836e+003, 1.431459e-002
3.025764e+003, 1.432382e-002
3.027693e+003, 1.453848e-002
3.029621e+003, 1.494547e-002
3.031550e+003, 1.504117e-002
3.033478e+003, 1.463894e-002
3.035406e+003, 1.378287e-002
3.037335e+003, 1.419568e-002
3.039263e+003, 1.438914e-002
3.041192e+003, 1.430033e-002
3.043120e+003, 1.436870e-002
3.045049e+003, 1.412593e-002
3.046977e+003, 1.419335e-002
3.048906e+003, 1.487689e-002
3.050834e+003, 1.455320e-002
3.052763e+003, 1.406678e-002
3.054691e+003, 1.421318e-002
3.056620e+003, 1.451184e-002
3.058548e+003, 1.481595e-002
3.060477e+003, 1.519850e-002
3.062405e+003, 1.519637e-002
3.064333e+003, 1.500739e-002
3.066262e+003, 1.544778e-002
3.068190e+003, 1.545687e-002
3.070119e+003, 1.472085e-002
3.072047e+003, 1.429810e-002
3.073976e+003, 1.502216e-002
3.075904e+003, 1.508581e-002
3.077833e+003, 1.519183e-002
3.079761e+003, 1.538848e-002
3.081690e+003, 1.521640e-002
3.083618e+003, 1.518216e-002
3.085547e+003, 1.452254e-002
3.087475e+003, 1.487323e-002
3.089404e+003, 1.537689e-002
3.091332e+003, 1.540200e-002
3.093260e+003, 1.539500e-002
3.095189e+003, 1.541799e-002
3.097117e+003, 1.559234e-002
3.099046e+003, 1.554082e-002
3.100974e+003, 1.525206e-002
3.102903e+003, 1.465901e-002
3.104831e+003, 1.460266e-002
3.106760e+003, 1.523706e-002
3.108688e+003, 1.508133e-002
3.110617e+003, 1.492586e-002
3.112545e+003, 1.537220e-002
3.114474e+003, 1.552978e-002
3.116402e+003, 1.508906e-002
3.118331e+003, 1.456307e-002
3.120259e+003, 1.460405e-002
3.122188e+003, 1.573098e-002
3.124116e+003, 1.614046e-002
3.126044e+003, 1.543714e-002
3.127973e+003, 1.516740e-002
3.129901e+003, 1.522473e-002
3.131830e+003, 1.565100e-002
3.133758e+003, 1.550667e-002
3.135687e+003, 1.496089e-002
3.137615e+003, 1.476845e-002
3.139544e+003, 1.510449e-002
3.141472e+003, 1.549619e-002
3.143401e+003, 1.614773e-002
3.145329e+003, 1.627817e-002
3.147258e+003, 1.584474e-002
3.149186e+003, 1.567621e-002
3.151115e+003, 1.570159e-002
3.153043e+003, 1.598113e-002
3.154971e+003, 1.669395e-002
3.156900e+003, 1.653606e-002
3.158828e+003, 1.541353e-002
3.160757e+003, 1.517622e-002
3.162685e+003, 1.643278e-002
3.164614e+003, 1.676293e-002
3.166542e+003, 1.635767e-002
3.168471e+003, 1.645033e-002
3.170399e+003, 1.617142e-002
3.172328e+003, 1.612068e-002
3.174256e+003, 1.695861e-002
3.176185e+003, 1.636894e-002
3.178113e+003, 1.488652e-002
3.180042e+003, 1.467021e-002
3.181970e+003, 1.553478e-002
3.183898e+003, 1.641820e-002
3.185827e+003, 1.712014e-002
3.187755e+003, 1.594694e-002
3.189684e+003, 1.530146e-002
3.191612e+003, 1.581567e-002
3.193541e+003, 1.691638e-002
3.195469e+003, 1.713516e-002
3.197398e+003, 1.670824e-002
3.199326e+003, 1.637314e-002
3.201255e+003, 1.618415e-002
3.203183e+003, 1.579368e-002
3.205112e+003, 1.516201e-002
3.207040e+003, 1.489644e-002
3.208969e+003, 1.527362e-002
3.210897e+003, 1.589539e-002
3.212825e+003, 1.692657e-002
3.214754e+003, 1.671420e-002
3.216682e+003, 1.592291e-002
3.218611e+003, 1.520128e-002
3.220539e+003, 1.572257e-002
3.222468e+003, 1.699376e-002
3.224396e+003, 1.657470e-002
3.226325e+003, 1.626896e-002
3.228253e+003, 1.644500e-002
3.230182e+003, 1.663729e-002
3.232110e+003, 1.682015e-002
3.234039e+003, 1.670966e-002
3.235967e+003, 1.645783e-002
3.237896e+003, 1.657156e-002
3.239824e+003, 1.613960e-002
3.241752e+003, 1.565202e-002
3.243681e+003, 1.526142e-002
3.245609e+003, 1.466632e-002
3.247538e+003, 1.501377e-002
3.249466e+003, 1.659545e-002
3.251395e+003, 1.697335e-002
3.253323e+003, 1.618487e-002
3.255252e+003, 1.587455e-002
3.257180e+003, 1.646725e-002
3.259109e+003, 1.656799e-002
3.261037e+003, 1.571009e-002
3.262966e+003, 1.549214e-002
3.264894e+003, 1.583016e-002
3.266823e+003, 1.650997e-002
3.268751e+003, 1.651197e-002
3.270679e+003, 1.661941e-002
3.272608e+003, 1.728722e-002
3.274536e+003, 1.774934e-002
3.276465e+003, 1.770047e-002
3.278393e+003, 1.767148e-002
3.280322e+003, 1.679991e-002
3.282250e+003, 1.674739e-002
3.284179e+003, 1.675174e-002
3.286107e+003, 1.634462e-002
3.288036e+003, 1.646119e-002
3.289964e+003, 1.679802e-002
3.291893e+003, 1.652375e-002
3.293821e+003, 1.675480e-002
3.295750e+003, 1.698763e-002
3.297678e+003, 1.688269e-002
3.299606e+003, 1.668748e-002
3.301535e+003, 1.684075e-002
3.303463e+003, 1.740335e-002
3.305392e+003, 1.705998e-002
3.307320e+003, 1.631116e-002
3.309249e+003, 1.626991e-002
3.311177e+003, 1.607571e-002
3.313106e+003, 1.635822e-002
3.315034e+003, 1.632895e-002
3.316963e+003, 1.625415e-002
3.318891e+003, 1.668260e-002
3.320820e+003, 1.775574e-002
3.322748e+003, 1.819131e-002
3.324677e+003, 1.733299e-002
3.326605e+003, 1.595480e-002
3.328533e+003, 1.653166e-002
3.330462e+003, 1.646761e-002
3.332390e+003, 1.570030e-002
3.334319e+003, 1.604857e-002
3.336247e+003, 1.614617e-002
3.338176e+003, 1.646199e-002
3.340104e+003, 1.654580e-002
3.342033e+003, 1.649351e-002
3.343961e+003, 1.679926e-002
3.345890e+003, 1.709575e-002
3.347818e+003, 1.728757e-002
3.349747e+003, 1.721156e-002
3.351675e+003, 1.750024e-002
3.353604e+003, 1.811807e-002
3.355532e+003, 1.762732e-002
3.357460e+003, 1.779113e-002
3.359389e+003, 1.810316e-002
3.361317e+003, 1.839305e-002
3.363246e+003, 1.769668e-002
3.365174e+003, 1.706959e-002
3.367103e+003, 1.740385e-002
3.369031e+003, 1.772895e-002
3.370960e+003, 1.764260e-002
3.372888e+003, 1.685933e-002
3.374817e+003, 1.744840e-002
3.376745e+003, 1.826862e-002
3.378674e+003, 1.843383e-002
3.380602e+003, 1.759164e-002
3.382531e+003, 1.752532e-002
3.384459e+003, 1.818067e-002
3.386387e+003, 1.832007e-002
3.388316e+003, 1.815301e-002
3.390244e+003, 1.809848e-002
3.392173e+003, 1.822041e-002
3.394101e+003, 1.770103e-002
3.396030e+003, 1.784214e-002
3.397958e+003, 1.879566e-002
3.399887e+003, 1.934838e-002
3.401815e+003, 1.917478e-002
3.403744e+003, 1.822055e-002
3.405672e+003, 1.815537e-002
3.407601e+003, 1.770216e-002
3.409529e+003, 1.785550e-002
3.411458e+003, 1.856137e-002
3.413386e+003, 1.851403e-002
3.415314e+003, 1.850137e-002
3.417243e+003, 1.774646e-002
3.419171e+003, 1.816828e-002
3.421100e+003, 1.855581e-002
3.423028e+003, 1.907709e-002
3.424957e+003, 1.984951e-002
3.426885e+003, 1.872494e-002
3.428814e+003, 1.793052e-002
3.430742e+003, 1.847309e-002
3.432671e+003, 2.042587e-002
3.434599e+003, 2.117332e-002
3.436528e+003, 2.001798e-002
3.438456e+003, 1.958545e-002
3.440385e+003, 1.960107e-002
3.442313e+003, 1.950773e-002
3.444241e+003, 1.914788e-002
3.446170e+003, 1.841016e-002
3.448098e+003, 1.844014e-002
3.450027e+003, 1.983092e-002
3.451955e+003, 1.973861e-002
3.453884e+003, 1.867113e-002
3.455812e+003, 1.848084e-002
3.457741e+003, 1.839211e-002
3.459669e+003, 1.978012e-002
3.461598e+003, 2.086454e-002
3.463526e+003, 2.000340e-002
3.465455e+003, 1.970771e-002
3.467383e+003, 2.009027e-002
3.469312e+003, 2.042955e-002
3.471240e+003, 2.111869e-002
3.473168e+003, 2.052351e-002
3.475097e+003, 2.089393e-002
3.477025e+003, 2.108009e-002
3.478954e+003, 2.057825e-002
3.480882e+003, 2.065439e-002
3.482811e+003, 2.035625e-002
3.484739e+003, 2.049632e-002
3.486668e+003, 2.133593e-002
3.488596e+003, 2.109563e-002
3.490525e+003, 2.117841e-002
3.492453e+003, 2.166939e-002
3.494382e+003, 2.144671e-002
3.496310e+003, 2.099786e-002
3.498239e+003, 2.229379e-002
3.500167e+003, 2.264201e-002
3.502095e+003, 2.129145e-002
3.504024e+003, 2.111624e-002
3.505952e+003, 2.242816e-002
3.507881e+003, 2.321181e-002
3.509809e+003, 2.329718e-002
3.511738e+003, 2.267123e-002
3.513666e+003, 2.285896e-002
3.515595e+003, 2.401045e-002
3.517523e+003, 2.415958e-002
3.519452e+003, 2.448181e-002
3.521380e+003, 2.469761e-002
3.523309e+003, 2.405299e-002
3.525237e+003, 2.464126e-002
3.527166e+003, 2.417572e-002
3.529094e+003, 2.418528e-002
3.531022e+003, 2.530363e-002
3.532951e+003, 2.611351e-002
3.534879e+003, 2.539792e-002
3.536808e+003, 2.625770e-002
3.538736e+003, 2.665711e-002
3.540665e+003, 2.726881e-002
3.542593e+003, 2.780397e-002
3.544522e+003, 2.867370e-002
3.546450e+003, 3.059081e-002
3.548379e+003, 3.140985e-002
3.550307e+003, 3.236651e-002
3.552236e+003, 3.341643e-002
3.554164e+003, 3.589238e-002
3.556093e+003, 3.898157e-002
3.558021e+003, 4.294130e-002
3.559949e+003, 4.818203e-002
3.561878e+003, 5.354272e-002
3.563806e+003, 6.050929e-002
3.565735e+003, 7.069896e-002
3.567663e+003, 8.448248e-002
3.569592e+003, 1.086429e-001
3.571520e+003, 1.477471e-001
3.573449e+003, 2.054909e-001
3.575377e+003, 2.617309e-001
3.577306e+003, 2.670480e-001
3.579234e+003, 2.164322e-001
3.581163e+003, 1.586766e-001
3.583091e+003, 1.353724e-001
3.585020e+003, 1.303621e-001
3.586948e+003, 9.968467e-002
3.588876e+003, 6.015794e-002
3.590805e+003, 4.022827e-002
3.592733e+003, 3.226729e-002
3.594662e+003, 2.795296e-002
3.596590e+003, 2.370695e-002
3.598519e+003, 1.902992e-002
3.600447e+003, 1.786360e-002
3.602376e+003, 1.897273e-002
3.604304e+003, 2.110256e-002
3.606233e+003, 2.135761e-002
3.608161e+003, 1.865014e-002
3.610090e+003, 1.597687e-002
3.612018e+003, 1.466828e-002
3.613947e+003, 1.325389e-002
3.615875e+003, 1.226663e-002
3.617803e+003, 1.282039e-002
3.619732e+003, 1.210541e-002
3.621660e+003, 1.198179e-002
3.623589e+003, 1.306732e-002
3.625517e+003, 1.326556e-002
3.627446e+003, 1.358782e-002
3.629374e+003, 1.532812e-002
3.631303e+003, 1.495990e-002
3.633231e+003, 1.408425e-002
3.635160e+003, 1.404904e-002
3.637088e+003, 1.449484e-002
3.639017e+003, 1.355893e-002
3.640945e+003, 1.221724e-002
3.642874e+003, 1.299907e-002
3.644802e+003, 1.434252e-002
3.646730e+003, 1.506557e-002
3.648659e+003, 1.492366e-002
3.650587e+003, 1.337309e-002
3.652516e+003, 1.286840e-002
3.654444e+003, 1.274533e-002
3.656373e+003, 1.361483e-002
3.658301e+003, 1.387158e-002
3.660230e+003, 1.397478e-002
3.662158e+003, 1.498160e-002
3.664087e+003, 1.581375e-002
3.666015e+003, 1.430415e-002
3.667944e+003, 1.269055e-002
3.669872e+003, 1.337236e-002
3.671801e+003, 1.367135e-002
3.673729e+003, 1.316192e-002
3.675657e+003, 1.288472e-002
3.677586e+003, 1.273532e-002
3.679514e+003, 1.225614e-002
3.681443e+003, 1.335899e-002
3.683371e+003, 1.490146e-002
3.685300e+003, 1.551863e-002
3.687228e+003, 1.497332e-002
3.689157e+003, 1.451328e-002
3.691085e+003, 1.360131e-002
3.693014e+003, 1.504313e-002
3.694942e+003, 1.588865e-002
3.696871e+003, 1.463022e-002
3.698799e+003, 1.374369e-002
3.700728e+003, 1.313065e-002
3.702656e+003, 1.238031e-002
3.704584e+003, 1.279917e-002
3.706513e+003, 1.321637e-002
3.708441e+003, 1.397924e-002
3.710370e+003, 1.558226e-002
3.712298e+003, 1.416778e-002
3.714227e+003, 1.301995e-002
3.716155e+003, 1.494952e-002
3.718084e+003, 1.504848e-002
3.720012e+003, 1.443263e-002
3.721941e+003, 1.502303e-002
3.723869e+003, 1.538870e-002
3.725798e+003, 1.499705e-002
3.727726e+003, 1.383021e-002
3.729655e+003, 1.479105e-002
3.731583e+003, 1.619220e-002
3.733511e+003, 1.556460e-002
3.735440e+003, 1.467825e-002
3.737368e+003, 1.443771e-002
3.739297e+003, 1.475347e-002
3.741225e+003, 1.442199e-002
3.743154e+003, 1.334498e-002
3.745082e+003, 1.335318e-002
3.747011e+003, 1.393617e-002
3.748939e+003, 1.449993e-002
3.750868e+003, 1.385651e-002
3.752796e+003, 1.315213e-002
3.754725e+003, 1.358924e-002
3.756653e+003, 1.525751e-002
3.758582e+003, 1.680133e-002
3.760510e+003, 1.664162e-002
3.762438e+003, 1.530743e-002
3.764367e+003, 1.414960e-002
3.766295e+003, 1.522054e-002
3.768224e+003, 1.575041e-002
3.770152e+003, 1.582844e-002
3.772081e+003, 1.473224e-002
3.774009e+003, 1.396736e-002
3.775938e+003, 1.568851e-002
3.777866e+003, 1.662523e-002
3.779795e+003, 1.526217e-002
3.781723e+003, 1.509851e-002
3.783652e+003, 1.520526e-002
3.785580e+003, 1.507236e-002
3.787509e+003, 1.487905e-002
3.789437e+003, 1.418279e-002
3.791365e+003, 1.503023e-002
3.793294e+003, 1.546642e-002
3.795222e+003, 1.470849e-002
3.797151e+003, 1.569275e-002
3.799079e+003, 1.662838e-002
3.801008e+003, 1.709614e-002
3.802936e+003, 1.648401e-002
3.804865e+003, 1.568127e-002
3.806793e+003, 1.522248e-002
3.808722e+003, 1.575710e-002
3.810650e+003, 1.747759e-002
3.812579e+003, 1.763835e-002
3.814507e+003, 1.675284e-002
3.816436e+003, 1.586790e-002
3.818364e+003, 1.644014e-002
3.820292e+003, 1.621411e-002
3.822221e+003, 1.612843e-002
3.824149e+003, 1.655472e-002
3.826078e+003, 1.589841e-002
3.828006e+003, 1.582678e-002
3.829935e+003, 1.622621e-002
3.831863e+003, 1.619684e-002
3.833792e+003, 1.574108e-002
3.835720e+003, 1.539436e-002
3.837649e+003, 1.553482e-002
3.839577e+003, 1.545190e-002
3.841506e+003, 1.610123e-002
3.843434e+003, 1.593439e-002
3.845363e+003, 1.567002e-002
3.847291e+003, 1.592495e-002
3.849219e+003, 1.556948e-002
3.851148e+003, 1.588424e-002
3.853076e+003, 1.560747e-002
3.855005e+003, 1.499365e-002
3.856933e+003, 1.565079e-002
3.858862e+003, 1.528589e-002
3.860790e+003, 1.496689e-002
3.862719e+003, 1.555202e-002
3.864647e+003, 1.593494e-002
3.866576e+003, 1.534185e-002
3.868504e+003, 1.503293e-002
3.870433e+003, 1.514621e-002
3.872361e+003, 1.649257e-002
3.874290e+003, 1.674994e-002
3.876218e+003, 1.525647e-002
3.878146e+003, 1.551789e-002
3.880075e+003, 1.569616e-002
3.882003e+003, 1.575090e-002
3.883932e+003, 1.601497e-002
3.885860e+003, 1.720757e-002
3.887789e+003, 1.786247e-002
3.889717e+003, 1.733794e-002
3.891646e+003, 1.570855e-002
3.893574e+003, 1.423870e-002
3.895503e+003, 1.462213e-002
3.897431e+003, 1.496594e-002
3.899360e+003, 1.460243e-002
3.901288e+003, 1.607751e-002
3.903217e+003, 1.718999e-002
3.905145e+003, 1.600968e-002
3.907073e+003, 1.521074e-002
3.909002e+003, 1.394035e-002
3.910930e+003, 1.364412e-002
3.912859e+003, 1.565378e-002
3.914787e+003, 1.540226e-002
3.916716e+003, 1.580952e-002
3.918644e+003, 1.601932e-002
3.920573e+003, 1.574249e-002
3.922501e+003, 1.608528e-002
3.924430e+003, 1.642533e-002
3.926358e+003, 1.728643e-002
3.928287e+003, 1.695868e-002
3.930215e+003, 1.539843e-002
3.932144e+003, 1.549386e-002
3.934072e+003, 1.572823e-002
3.936000e+003, 1.507022e-002
3.937929e+003, 1.447673e-002
3.939857e+003, 1.592669e-002
3.941786e+003, 1.670008e-002
3.943714e+003, 1.616167e-002
3.945643e+003, 1.653826e-002
3.947571e+003, 1.574931e-002
3.949500e+003, 1.408617e-002
3.951428e+003, 1.419158e-002
3.953357e+003, 1.635469e-002
3.955285e+003, 1.763975e-002
3.957214e+003, 1.813273e-002
3.959142e+003, 1.799449e-002
3.961071e+003, 1.621778e-002
3.962999e+003, 1.562468e-002
3.964927e+003, 1.592688e-002
3.966856e+003, 1.670515e-002
3.968784e+003, 1.875814e-002
3.970713e+003, 1.887895e-002
3.972641e+003, 1.839807e-002
3.974570e+003, 1.819842e-002
3.976498e+003, 1.628816e-002
3.978427e+003, 1.479550e-002
3.980355e+003, 1.493147e-002
3.982284e+003, 1.579376e-002
3.984212e+003, 1.752488e-002
3.986141e+003, 1.731869e-002
3.988069e+003, 1.524120e-002
3.989998e+003, 1.486005e-002
3.991926e+003, 1.643328e-002
3.993854e+003, 1.704936e-002
3.995783e+003, 1.728184e-002
3.997711e+003, 1.729978e-002
3.999640e+003, 1.730865e-002
4.001568e+003, 0.000000e+000
##END=



