##NAMES=Euclase
##RRUFFID=R050623
##IDEAL CHEMISTRY=BeAlSiO_4_(OH)
##LOCALITY=Minas Gerais, Brazil
##OWNER=RRUFF
##SOURCE=Gemmological Center
##DESCRIPTION=Colorless flattened prismatic crystal
##STATUS=The identification of this mineral has been confirmed by X-ray diffraction and chemical analysis
##URL=rruff.info/R050623
##MEASURED CHEMISTRY=Be_1.00_Al_1.00_Si_1.00_O_4_(OH) ; Be not measured but estimated by stoichiometry
399.1926, 0.2117778
401.1211, 0.2189776
403.0496, 0.2200304
404.9780, 0.2253489
406.9065, 0.2230810
408.8350, 0.2302835
410.7634, 0.2417963
412.6919, 0.2470904
414.6204, 0.2474462
416.5488, 0.2439900
418.4773, 0.2421448
420.4058, 0.2397591
422.3342, 0.2302650
424.2627, 0.2134234
426.1912, 0.2097697
428.1196, 0.2149830
430.0481, 0.2159854
431.9766, 0.2119896
433.9050, 0.2077808
435.8335, 0.2030929
437.7620, 0.1956239
439.6904, 0.1865990
441.6189, 0.1784757
443.5474, 0.1702432
445.4758, 0.1644232
447.4043, 0.1680793
449.3328, 0.1832954
451.2612, 0.1941956
453.1897, 0.1798247
455.1182, 0.1590909
457.0466, 0.1414509
458.9751, 0.1227918
460.9036, 0.1033421
462.8320, 8.9785583E-02
464.7605, 8.9431778E-02
466.6890, 0.1005721
468.6174, 0.1186032
470.5459, 0.1392478
472.4744, 0.1576932
474.4028, 0.1707833
476.3313, 0.1763945
478.2598, 0.1777531
480.1882, 0.1757489
482.1167, 0.1706467
484.0452, 0.1637335
485.9736, 0.1565977
487.9021, 0.1499390
489.8306, 0.1441500
491.7590, 0.1400850
493.6875, 0.1392689
495.6160, 0.1412748
497.5444, 0.1471978
499.4729, 0.1541143
501.4014, 0.1610239
503.3298, 0.1677431
505.2583, 0.1754961
507.1868, 0.1823113
509.1152, 0.1887795
511.0437, 0.1955178
512.9722, 0.2001438
514.9006, 0.2044464
516.8291, 0.2085401
518.7576, 0.2113385
520.6860, 0.2125318
522.6145, 0.2105897
524.5430, 0.2077245
526.4714, 0.2043357
528.3999, 0.1983871
530.3284, 0.1923986
532.2568, 0.1873880
534.1853, 0.1846239
536.1138, 0.1833081
538.0422, 0.1812551
539.9707, 0.1736995
541.8992, 0.1608211
543.8276, 0.1463626
545.7561, 0.1299811
547.6846, 0.1132716
549.6130, 9.9200770E-02
551.5415, 9.1317423E-02
553.4700, 9.1045544E-02
555.3984, 9.7419292E-02
557.3269, 0.1087530
559.2554, 0.1223736
561.1838, 0.1359618
563.1123, 0.1473162
565.0408, 0.1548494
566.9692, 0.1569263
568.8977, 0.1522015
570.8262, 0.1452832
572.7546, 0.1441813
574.6831, 0.1538956
576.6116, 0.1711083
578.5400, 0.1869070
580.4685, 0.1973751
582.3970, 0.2028690
584.3254, 0.2055754
586.2539, 0.2055345
588.1824, 0.2031155
590.1108, 0.2010481
592.0393, 0.1971349
593.9678, 0.1880826
595.8962, 0.1730628
597.8247, 0.1560378
599.7532, 0.1406009
601.6816, 0.1275736
603.6101, 0.1167135
605.5386, 0.1077463
607.4670, 0.1029053
609.3955, 0.1027731
611.3240, 0.1048856
613.2524, 0.1034480
615.1809, 9.6375473E-02
617.1094, 8.7963156E-02
619.0378, 8.2468808E-02
620.9663, 8.2320549E-02
622.8948, 8.7863013E-02
624.8232, 9.7539730E-02
626.7517, 0.1100120
628.6802, 0.1241314
630.6086, 0.1395657
632.5371, 0.1553707
634.4656, 0.1701478
636.3940, 0.1832988
638.3225, 0.1932507
640.2510, 0.1966313
642.1794, 0.1943323
644.1079, 0.1912361
646.0364, 0.1924331
647.9648, 0.1981709
649.8933, 0.2053394
651.8218, 0.2117705
653.7502, 0.2162994
655.6787, 0.2184612
657.6072, 0.2185375
659.5356, 0.2169529
661.4641, 0.2137923
663.3926, 0.2080913
665.3210, 0.2007164
667.2495, 0.1928919
669.1780, 0.1873407
671.1064, 0.1849070
673.0349, 0.1860417
674.9634, 0.1885641
676.8918, 0.1890075
678.8203, 0.1853875
680.7488, 0.1782863
682.6772, 0.1691799
684.6057, 0.1591243
686.5342, 0.1487706
688.4626, 0.1391534
690.3911, 0.1300852
692.3196, 0.1220476
694.2480, 0.1155306
696.1765, 0.1096844
698.1050, 0.1046352
700.0334, 0.1003665
701.9619, 9.7170271E-02
703.8904, 9.4454959E-02
705.8188, 9.2210136E-02
707.7473, 9.1203071E-02
709.6758, 9.0736032E-02
711.6042, 9.0755410E-02
713.5327, 9.1843307E-02
715.4612, 9.4185553E-02
717.3896, 9.8378077E-02
719.3181, 0.1045704
721.2466, 0.1122499
723.1750, 0.1213454
725.1035, 0.1313092
727.0320, 0.1401860
728.9604, 0.1477425
730.8889, 0.1535701
732.8174, 0.1579213
734.7458, 0.1609325
736.6743, 0.1624715
738.6028, 0.1626372
740.5313, 0.1614509
742.4597, 0.1597029
744.3882, 0.1576685
746.3167, 0.1549116
748.2451, 0.1520675
750.1736, 0.1495190
752.1021, 0.1481446
754.0305, 0.1477465
755.9590, 0.1487344
757.8875, 0.1521588
759.8159, 0.1587078
761.7444, 0.1659001
763.6729, 0.1706932
765.6013, 0.1718759
767.5298, 0.1695020
769.4583, 0.1649309
771.3867, 0.1599278
773.3152, 0.1548072
775.2437, 0.1502420
777.1721, 0.1467481
779.1006, 0.1444260
781.0291, 0.1439380
782.9575, 0.1455382
784.8860, 0.1491688
786.8145, 0.1539260
788.7429, 0.1592238
790.6714, 0.1631043
792.5999, 0.1639312
794.5283, 0.1611620
796.4568, 0.1546891
798.3853, 0.1463328
800.3137, 0.1385479
802.2422, 0.1316035
804.1707, 0.1247396
806.0991, 0.1174447
808.0276, 0.1091026
809.9561, 0.1000525
811.8845, 9.0087883E-02
813.8130, 7.9631642E-02
815.7415, 6.9247574E-02
817.6699, 6.0359608E-02
819.5984, 5.3562209E-02
821.5269, 4.8943091E-02
823.4553, 4.6731278E-02
825.3838, 4.6003118E-02
827.3123, 4.6139520E-02
829.2407, 4.7622520E-02
831.1692, 5.0476950E-02
833.0977, 5.4049712E-02
835.0261, 5.8740102E-02
836.9546, 6.4522393E-02
838.8831, 7.1542911E-02
840.8115, 7.9472490E-02
842.7400, 8.8560559E-02
844.6685, 9.8788418E-02
846.5969, 0.1098970
848.5254, 0.1215003
850.4539, 0.1332372
852.3823, 0.1459767
854.3108, 0.1591644
856.2393, 0.1729994
858.1677, 0.1872356
860.0962, 0.2006764
862.0247, 0.2140286
863.9531, 0.2271380
865.8816, 0.2390257
867.8101, 0.2488985
869.7385, 0.2556736
871.6670, 0.2584554
873.5955, 0.2579749
875.5239, 0.2575176
877.4524, 0.2617942
879.3809, 0.2715603
881.3093, 0.2839516
883.2378, 0.2949028
885.1663, 0.3029119
887.0947, 0.3083327
889.0232, 0.3108737
890.9517, 0.3110593
892.8801, 0.3091913
894.8085, 0.3060617
896.7370, 0.3042471
898.6655, 0.3060260
900.5939, 0.3099550
902.5224, 0.3120250
904.4509, 0.3112079
906.3793, 0.3080690
908.3078, 0.3033951
910.2363, 0.2976320
912.1647, 0.2912741
914.0932, 0.2842616
916.0217, 0.2761374
917.9501, 0.2676569
919.8786, 0.2592817
921.8071, 0.2505224
923.7355, 0.2423759
925.6640, 0.2352968
927.5925, 0.2281020
929.5209, 0.2212988
931.4494, 0.2148556
933.3779, 0.2082903
935.3063, 0.2019022
937.2348, 0.1963072
939.1633, 0.1911797
941.0917, 0.1858323
943.0202, 0.1802863
944.9487, 0.1750296
946.8771, 0.1699997
948.8056, 0.1652935
950.7341, 0.1605946
952.6625, 0.1560309
954.5910, 0.1513287
956.5195, 0.1465011
958.4479, 0.1420395
960.3764, 0.1378851
962.3049, 0.1339129
964.2333, 0.1297974
966.1618, 0.1255882
968.0903, 0.1215842
970.0187, 0.1176662
971.9472, 0.1139872
973.8757, 0.1104077
975.8041, 0.1070415
977.7326, 0.1038307
979.6611, 0.1003382
981.5895, 9.6826382E-02
983.5180, 9.3483113E-02
985.4465, 9.0278193E-02
987.3749, 8.7356023E-02
989.3034, 8.4190942E-02
991.2319, 8.0921508E-02
993.1603, 7.7764049E-02
995.0888, 7.4689351E-02
997.0173, 7.1796916E-02
998.9457, 6.8595342E-02
1000.874, 6.4683691E-02
1002.803, 6.0918819E-02
1004.731, 5.7266220E-02
1006.660, 5.3756692E-02
1008.588, 5.0553691E-02
1010.517, 4.7687460E-02
1012.445, 4.5492951E-02
1014.373, 4.4334881E-02
1016.302, 4.3616761E-02
1018.230, 4.3318879E-02
1020.159, 4.3996591E-02
1022.087, 4.5494478E-02
1024.016, 4.8010912E-02
1025.944, 5.0791379E-02
1027.873, 5.2592091E-02
1029.801, 5.2579459E-02
1031.730, 5.1388241E-02
1033.658, 4.9470458E-02
1035.587, 4.7284830E-02
1037.515, 4.5183189E-02
1039.444, 4.3757871E-02
1041.372, 4.2835340E-02
1043.301, 4.2433880E-02
1045.229, 4.2430520E-02
1047.157, 4.3224510E-02
1049.086, 4.4984199E-02
1051.014, 4.7891121E-02
1052.943, 5.2560411E-02
1054.871, 5.9181321E-02
1056.800, 6.7955792E-02
1058.728, 7.9345107E-02
1060.657, 9.2538819E-02
1062.585, 0.1045004
1064.514, 0.1125497
1066.442, 0.1155805
1068.371, 0.1140676
1070.299, 0.1095640
1072.228, 0.1040396
1074.156, 9.7744077E-02
1076.084, 9.1274083E-02
1078.013, 8.5334390E-02
1079.941, 7.9698570E-02
1081.870, 7.4497089E-02
1083.798, 6.9698296E-02
1085.727, 6.5515742E-02
1087.655, 6.2111720E-02
1089.584, 5.8807630E-02
1091.512, 5.5548530E-02
1093.441, 5.2478440E-02
1095.369, 4.9514171E-02
1097.298, 4.6536919E-02
1099.226, 4.3783639E-02
1101.155, 4.1195542E-02
1103.083, 3.8462579E-02
1105.011, 3.5712551E-02
1106.940, 3.3392228E-02
1108.868, 3.1107010E-02
1110.797, 2.8831771E-02
1112.725, 2.6978340E-02
1114.654, 2.5443129E-02
1116.582, 2.3559211E-02
1118.511, 2.1656750E-02
1120.439, 1.9901831E-02
1122.368, 1.8311661E-02
1124.296, 1.6845480E-02
1126.225, 1.5543420E-02
1128.153, 1.4538800E-02
1130.082, 1.3567190E-02
1132.010, 1.2541490E-02
1133.938, 1.1660170E-02
1135.867, 1.0850710E-02
1137.795, 1.0354610E-02
1139.724, 9.7129308E-03
1141.652, 8.9487154E-03
1143.581, 8.4166992E-03
1145.509, 8.0049643E-03
1147.438, 7.5329840E-03
1149.366, 7.3127910E-03
1151.295, 7.1292659E-03
1153.223, 6.6569452E-03
1155.152, 6.4266869E-03
1157.080, 6.3021402E-03
1159.009, 5.9904102E-03
1160.937, 5.8850879E-03
1162.865, 5.7893088E-03
1164.794, 5.6384462E-03
1166.722, 5.4210229E-03
1168.651, 5.3879502E-03
1170.579, 5.3352611E-03
1172.508, 5.0188089E-03
1174.436, 4.8353579E-03
1176.365, 4.6769190E-03
1178.293, 4.5478051E-03
1180.222, 4.5509869E-03
1182.150, 4.7255750E-03
1184.079, 4.5114751E-03
1186.007, 4.3169581E-03
1187.936, 4.3121888E-03
1189.864, 4.1648801E-03
1191.792, 3.9133769E-03
1193.721, 3.8292119E-03
1195.649, 4.0204162E-03
1197.578, 3.9205402E-03
1199.506, 3.7067709E-03
1201.435, 3.7437230E-03
1203.363, 3.4295591E-03
1205.292, 3.2781421E-03
1207.220, 3.4101540E-03
1209.149, 3.3574961E-03
1211.077, 3.2692461E-03
1213.006, 3.1399161E-03
1214.934, 3.1864999E-03
1216.863, 3.0828579E-03
1218.791, 2.9561520E-03
1220.719, 2.9088510E-03
1222.648, 2.8787421E-03
1224.576, 3.1101960E-03
1226.505, 3.2843540E-03
1228.433, 3.0630450E-03
1230.362, 3.0971291E-03
1232.290, 3.1768971E-03
1234.219, 2.8992009E-03
1236.147, 2.7238431E-03
1238.076, 2.5097770E-03
1240.004, 2.3992739E-03
1241.933, 2.5093269E-03
1243.861, 2.4537670E-03
1245.790, 2.3721580E-03
1247.718, 2.3970080E-03
1249.646, 2.3901490E-03
1251.575, 2.2667700E-03
1253.503, 2.2342280E-03
1255.432, 2.1722179E-03
1257.360, 2.0735890E-03
1259.289, 2.1193670E-03
1261.217, 2.1239549E-03
1263.146, 2.0178461E-03
1265.074, 2.3620641E-03
1267.003, 2.6128311E-03
1268.931, 2.4252180E-03
1270.860, 2.3435601E-03
1272.788, 2.4505069E-03
1274.717, 2.5317350E-03
1276.645, 2.5278309E-03
1278.573, 2.7139969E-03
1280.502, 2.5819710E-03
1282.430, 2.2719640E-03
1284.359, 2.2721749E-03
1286.287, 2.2319390E-03
1288.216, 2.2295429E-03
1290.144, 2.1455060E-03
1292.073, 2.1556320E-03
1294.001, 2.2397710E-03
1295.930, 2.1180580E-03
1297.858, 2.1226781E-03
1299.787, 2.1465819E-03
1301.715, 2.0366050E-03
1303.644, 2.0086700E-03
1305.572, 2.1679481E-03
1307.500, 1.9940049E-03
1309.429, 2.0323009E-03
1311.357, 2.0843099E-03
1313.286, 1.8779089E-03
1315.214, 2.1213200E-03
1317.143, 2.2033721E-03
1319.071, 2.0594171E-03
1321.000, 2.0953300E-03
1322.928, 2.0651740E-03
1324.857, 1.8519550E-03
1326.785, 1.9504949E-03
1328.714, 2.0156649E-03
1330.642, 2.1017301E-03
1332.571, 2.0910390E-03
1334.499, 1.8082560E-03
1336.427, 1.7792881E-03
1338.356, 1.9923351E-03
1340.284, 2.1554260E-03
1342.213, 2.1061690E-03
1344.141, 2.3367079E-03
1346.070, 2.2671639E-03
1347.998, 1.8399890E-03
1349.927, 1.9033781E-03
1351.855, 2.1439120E-03
1353.784, 2.2893429E-03
1355.712, 2.4201469E-03
1357.641, 2.3213360E-03
1359.569, 2.1046959E-03
1361.498, 2.1139740E-03
1363.426, 2.1075390E-03
1365.354, 2.1372610E-03
1367.283, 2.2121230E-03
1369.211, 2.3354271E-03
1371.140, 2.3285451E-03
1373.068, 2.2294740E-03
1374.997, 2.1875170E-03
1376.925, 2.2433840E-03
1378.854, 2.2385020E-03
1380.782, 2.0828999E-03
1382.711, 2.0938539E-03
1384.639, 2.2732220E-03
1386.568, 2.6329281E-03
1388.496, 2.7456980E-03
1390.424, 2.4271130E-03
1392.353, 2.6316349E-03
1394.281, 2.8968919E-03
1396.210, 2.6829280E-03
1398.138, 2.6304731E-03
1400.067, 2.7412700E-03
1401.995, 2.7421990E-03
1403.924, 2.6366389E-03
1405.852, 2.4431469E-03
1407.781, 2.2650959E-03
1409.709, 2.2267089E-03
1411.638, 2.3756740E-03
1413.566, 2.5454359E-03
1415.495, 2.8761241E-03
1417.423, 2.6732171E-03
1419.351, 2.3209581E-03
1421.280, 2.4564830E-03
1423.208, 2.6934580E-03
1425.137, 2.7094390E-03
1427.065, 2.5326631E-03
1428.994, 2.6468211E-03
1430.922, 2.6946771E-03
1432.851, 2.7755110E-03
1434.779, 2.5395751E-03
1436.708, 2.2753750E-03
1438.636, 2.3414399E-03
1440.565, 2.4523400E-03
1442.493, 2.0509181E-03
1444.422, 2.0524110E-03
1446.350, 2.1816641E-03
1448.278, 2.1224089E-03
1450.207, 2.2833960E-03
1452.135, 2.1436550E-03
1454.064, 1.8908191E-03
1455.992, 1.8010580E-03
1457.921, 1.6750790E-03
1459.849, 1.7331670E-03
1461.778, 2.1272721E-03
1463.706, 2.0675519E-03
1465.635, 1.7586860E-03
1467.563, 1.6913250E-03
1469.492, 1.7752770E-03
1471.420, 2.2390981E-03
1473.349, 2.4808999E-03
1475.277, 2.7223369E-03
1477.205, 2.9235759E-03
1479.134, 2.9278840E-03
1481.062, 2.7588380E-03
1482.991, 2.4535810E-03
1484.919, 2.5962130E-03
1486.848, 2.7616490E-03
1488.776, 2.4548839E-03
1490.705, 2.4271260E-03
1492.633, 2.6192830E-03
1494.562, 2.6251031E-03
1496.490, 2.5441600E-03
1498.419, 2.6051090E-03
1500.347, 2.7194759E-03
1502.276, 2.8864411E-03
1504.204, 3.1538231E-03
1506.132, 3.2446750E-03
1508.061, 3.1614080E-03
1509.989, 2.7885530E-03
1511.918, 2.5311611E-03
1513.846, 2.5541789E-03
1515.775, 2.6931751E-03
1517.703, 2.9258330E-03
1519.632, 2.8111639E-03
1521.560, 2.8165029E-03
1523.489, 2.9007329E-03
1525.417, 2.8810541E-03
1527.346, 2.9216490E-03
1529.274, 2.8988221E-03
1531.203, 3.0127570E-03
1533.131, 3.1687389E-03
1535.059, 2.8311219E-03
1536.988, 2.7508601E-03
1538.916, 3.1985780E-03
1540.845, 3.3211489E-03
1542.773, 3.2315571E-03
1544.702, 3.2467570E-03
1546.630, 3.1106570E-03
1548.559, 3.1794889E-03
1550.487, 3.1999140E-03
1552.416, 3.2894860E-03
1554.344, 3.4482810E-03
1556.273, 3.3120650E-03
1558.201, 3.1027040E-03
1560.130, 3.3272339E-03
1562.058, 3.5793851E-03
1563.986, 3.5630709E-03
1565.915, 3.7493119E-03
1567.843, 3.9074682E-03
1569.772, 3.5874411E-03
1571.700, 3.4321940E-03
1573.629, 3.3840041E-03
1575.557, 3.2318800E-03
1577.486, 3.0942140E-03
1579.414, 3.3847699E-03
1581.343, 3.7387819E-03
1583.271, 3.8338599E-03
1585.200, 3.8462940E-03
1587.128, 3.6902300E-03
1589.057, 3.4308319E-03
1590.985, 3.3544730E-03
1592.913, 3.2539060E-03
1594.842, 3.0372271E-03
1596.770, 3.0576929E-03
1598.699, 3.2116009E-03
1600.627, 3.3739510E-03
1602.556, 3.4862331E-03
1604.484, 3.1421520E-03
1606.413, 2.8268010E-03
1608.341, 2.9668650E-03
1610.270, 3.1584131E-03
1612.198, 3.2464999E-03
1614.127, 3.2986361E-03
1616.055, 3.3387309E-03
1617.984, 2.9567101E-03
1619.912, 2.9497240E-03
1621.840, 3.1570320E-03
1623.769, 3.1833230E-03
1625.697, 3.2508480E-03
1627.626, 3.1122819E-03
1629.554, 3.3170360E-03
1631.483, 3.4538750E-03
1633.411, 3.3212439E-03
1635.340, 3.2088370E-03
1637.268, 3.1445599E-03
1639.197, 2.9992929E-03
1641.125, 3.1886720E-03
1643.054, 3.4094979E-03
1644.982, 3.5150419E-03
1646.911, 3.1612711E-03
1648.839, 2.9268560E-03
1650.767, 3.2299890E-03
1652.696, 3.4983431E-03
1654.624, 3.3599699E-03
1656.553, 3.2254851E-03
1658.481, 3.3708401E-03
1660.410, 3.2555980E-03
1662.338, 3.4370080E-03
1664.267, 3.5680539E-03
1666.195, 3.3808041E-03
1668.124, 3.5187250E-03
1670.052, 3.5881321E-03
1671.981, 3.0305730E-03
1673.909, 2.8812559E-03
1675.838, 2.8791679E-03
1677.766, 2.5717330E-03
1679.694, 2.8331620E-03
1681.623, 3.4261600E-03
1683.551, 3.1807299E-03
1685.480, 2.7365740E-03
1687.408, 2.7261239E-03
1689.337, 3.0921600E-03
1691.265, 3.4043121E-03
1693.194, 3.4844000E-03
1695.122, 3.4116800E-03
1697.051, 2.9063551E-03
1698.979, 2.6252649E-03
1700.908, 2.2485501E-03
1702.836, 1.7403470E-03
1704.765, 1.5468380E-03
1706.693, 1.9481480E-03
1708.621, 2.1717560E-03
1710.550, 1.9648820E-03
1712.478, 1.8028690E-03
1714.407, 1.9934049E-03
1716.335, 2.0739990E-03
1718.264, 2.1222900E-03
1720.192, 1.8841840E-03
1722.121, 1.8276640E-03
1724.049, 1.6482041E-03
1725.978, 1.4752010E-03
1727.906, 1.0701250E-03
1729.835, 8.5972197E-04
1731.763, 8.6458679E-04
1733.692, 9.5613382E-04
1735.620, 6.0269568E-04
1737.548, 1.2459610E-04
1739.477, 2.9970851E-04
1741.405, 2.1207650E-04
1743.334, -3.6867370E-04
1745.262, -5.9960829E-04
1747.191, -1.1467440E-04
1749.119, 1.4890201E-04
1751.048, 9.0805610E-05
1752.976, 3.3498131E-04
1754.905, 1.1319750E-03
1756.833, 1.4819760E-03
1758.762, 1.6860040E-03
1760.690, 2.1938819E-03
1762.619, 2.1870311E-03
1764.547, 2.0111969E-03
1766.475, 1.9047200E-03
1768.404, 1.8630390E-03
1770.332, 2.1648370E-03
1772.261, 2.2250251E-03
1774.189, 2.2298631E-03
1776.118, 2.3861690E-03
1778.046, 2.2705169E-03
1779.975, 2.2400329E-03
1781.903, 2.0027431E-03
1783.832, 2.0392220E-03
1785.760, 2.3033330E-03
1787.689, 2.0491551E-03
1789.617, 2.1796781E-03
1791.546, 2.2583450E-03
1793.474, 2.5284749E-03
1795.402, 2.8687711E-03
1797.331, 2.4360539E-03
1799.259, 2.4324490E-03
1801.188, 2.9165919E-03
1803.116, 3.1668809E-03
1805.045, 2.9670820E-03
1806.973, 3.1069899E-03
1808.902, 3.0138530E-03
1810.830, 2.5243519E-03
1812.759, 2.6729971E-03
1814.687, 2.8042381E-03
1816.616, 2.5839880E-03
1818.544, 2.3956010E-03
1820.473, 2.6436390E-03
1822.401, 2.9831859E-03
1824.329, 3.3887250E-03
1826.258, 3.5612681E-03
1828.186, 3.2107900E-03
1830.115, 3.0381179E-03
1832.043, 2.9683830E-03
1833.972, 2.7389100E-03
1835.900, 2.9911180E-03
1837.829, 3.1564981E-03
1839.757, 2.4933130E-03
1841.686, 2.3912590E-03
1843.614, 2.8979841E-03
1845.543, 2.4437399E-03
1847.471, 1.3261370E-03
1849.400, 2.0913840E-03
1851.328, 2.8824680E-03
1853.256, 3.2480999E-03
1855.185, 3.0831301E-03
1857.113, 2.9412510E-03
1859.042, 2.8122009E-03
1860.970, 2.8154280E-03
1862.899, 2.3026050E-03
1864.827, 1.5889860E-03
1866.756, 1.4043540E-03
1868.684, 1.7118290E-03
1870.613, 2.0885901E-03
1872.541, 2.8454480E-03
1874.470, 2.8750540E-03
1876.398, 1.6384650E-03
1878.327, 9.9726534E-04
1880.255, 1.1246121E-03
1882.183, 1.4184600E-03
1884.112, 2.9858281E-03
1886.040, 3.6028980E-03
1887.969, 2.6537250E-03
1889.897, 1.7081690E-03
1891.826, 2.0236049E-03
1893.754, 2.4091480E-03
1895.683, 1.5807260E-03
1897.611, 1.6164160E-03
1899.540, 1.6358430E-03
1901.468, 1.3668539E-03
1903.397, 1.9211140E-03
1905.325, 1.6556910E-03
1907.254, 1.5402930E-03
1909.182, 1.7299741E-03
1911.110, 1.5975880E-03
1913.039, 1.6847510E-03
1914.967, 1.4203480E-03
1916.896, 8.1211142E-04
1918.824, 1.7754090E-03
1920.753, 2.9722929E-03
1922.681, 2.6949120E-03
1924.610, 1.8307390E-03
1926.538, 1.3572540E-03
1928.467, 4.5066519E-04
1930.395, 6.9254439E-04
1932.324, 1.5626560E-03
1934.252, 1.8474250E-03
1936.181, 1.7627950E-03
1938.109, 1.9329780E-03
1940.037, 1.4910370E-03
1941.966, 1.1422570E-03
1943.894, 1.7320610E-03
1945.823, 2.3636580E-03
1947.751, 3.8233830E-04
1949.680, -6.7351799E-04
1951.608, 1.1957340E-04
1953.537, 1.1156180E-03
1955.465, 1.6771230E-03
1957.394, -2.2340080E-04
1959.322, -1.0570240E-03
1961.251, 2.8565331E-04
1963.179, 2.1247731E-03
1965.108, 9.3565049E-04
1967.036, -1.6439121E-03
1968.964, -9.1163081E-04
1970.893, -1.9007780E-04
1972.821, -6.2566582E-04
1974.750, -1.4851650E-04
1976.678, -3.1045731E-04
1978.607, 2.0247079E-04
1980.535, 1.6147280E-03
1982.464, 1.0522261E-03
1984.392, -2.9858900E-04
1986.321, 6.2105479E-04
1988.249, 3.0658810E-04
1990.178, 8.9728518E-04
1992.106, 2.2287399E-03
1994.035, 1.0027370E-03
1995.963, 1.3965589E-03
1997.891, 2.7609479E-03
1999.820, 2.9808751E-03
2001.748, 1.2983721E-03
2003.677, -1.8389151E-03
2005.605, -9.0403348E-04
2007.534, 2.7158200E-03
2009.462, 3.1542710E-03
2011.391, 2.6775600E-04
2013.319, -7.7388668E-04
2015.248, 4.3680641E-04
2017.176, 1.9288380E-03
2019.105, 2.7403990E-03
2021.033, 3.7607630E-03
2022.962, 9.7641599E-04
2024.890, -5.8653078E-04
2026.818, -6.5896328E-04
2028.747, 9.8819793E-05
2030.675, 1.2742790E-03
2032.604, 2.3249621E-03
2034.532, 1.0538100E-03
2036.461, 1.7983130E-03
2038.389, 6.2749111E-03
2040.318, 4.4172150E-03
2042.246, 1.9055420E-03
2044.175, 2.2527699E-03
2046.103, -1.0284010E-04
2048.032, 8.5795502E-04
2049.960, 3.7248931E-03
2051.889, 3.0875499E-03
2053.817, 2.1433979E-03
2055.746, 2.1460929E-03
2057.674, 3.3102850E-03
2059.603, 3.5374670E-03
2061.531, 2.6063491E-03
2063.459, 2.4922939E-03
2065.388, 3.1191250E-03
2067.316, 3.2700400E-03
2069.245, 4.1758842E-03
2071.173, 5.1944740E-03
2073.102, 3.7781170E-03
2075.030, 2.0015230E-03
2076.959, 3.1117380E-03
2078.887, 5.0357860E-03
2080.816, 4.2924038E-03
2082.744, 3.3556730E-03
2084.673, 3.4344229E-03
2086.601, 3.0904571E-03
2088.530, 1.9778560E-03
2090.458, 1.9939120E-03
2092.386, 3.0277229E-03
2094.315, 2.3580480E-03
2096.243, 1.9927479E-03
2098.172, 2.6185100E-03
2100.100, 3.6268651E-03
2102.029, 3.2233151E-03
2103.957, 4.1642762E-03
2105.886, 5.3402050E-03
2107.814, 4.3782019E-03
2109.743, 2.6482330E-03
2111.671, 3.1854410E-03
2113.600, 4.6005719E-03
2115.528, 4.0196730E-03
2117.457, 3.0302820E-03
2119.385, 2.6209690E-03
2121.313, 1.1902470E-03
2123.242, 3.4050790E-05
2125.170, 1.2994460E-03
2127.099, 1.3385270E-03
2129.027, 9.4484538E-04
2130.956, 2.4501011E-05
2132.884, 6.1376957E-04
2134.813, 2.1991390E-03
2136.741, 1.0757040E-03
2138.670, -9.9353131E-04
2140.598, -3.7648850E-03
2142.527, -4.1233529E-03
2144.455, -1.9301120E-03
2146.384, -7.6342729E-04
2148.312, -6.8018318E-04
2150.240, -1.2497470E-03
2152.169, -1.5706380E-03
2154.097, -2.8164550E-03
2156.026, -7.4993982E-04
2157.954, 2.8823011E-03
2159.883, 2.4160161E-03
2161.811, 2.0433059E-03
2163.740, 1.4361130E-03
2165.668, -3.5749891E-04
2167.597, 2.8819970E-03
2169.525, 5.7849959E-03
2171.454, 3.6109029E-03
2173.382, 1.5179560E-03
2175.311, 8.9172268E-04
2177.239, 8.2774408E-04
2179.167, 4.1201699E-04
2181.096, 1.8561550E-03
2183.024, 4.0096068E-03
2184.953, 2.8597610E-03
2186.881, 2.0914739E-03
2188.810, 4.1640131E-03
2190.738, 2.9697050E-03
2192.667, 2.3465671E-03
2194.595, 3.0530591E-03
2196.524, 3.3712110E-03
2198.452, 5.4155160E-03
2200.381, 5.9404830E-03
2202.309, 5.3961780E-03
2204.238, 4.0151249E-03
2206.166, 3.2797200E-03
2208.094, 3.7334550E-03
2210.023, 4.3373541E-03
2211.951, 3.2192669E-03
2213.880, 4.0371078E-03
2215.808, 5.4840399E-03
2217.737, 4.4809412E-03
2219.665, 3.8013060E-03
2221.594, 4.1655372E-03
2223.522, 3.7567290E-03
2225.451, 2.5068070E-03
2227.379, 3.6442650E-03
2229.308, 6.0699400E-03
2231.236, 7.1157892E-03
2233.165, 5.7254112E-03
2235.093, 3.6333951E-03
2237.021, 4.2242408E-03
2238.950, 5.4297061E-03
2240.878, 5.4753739E-03
2242.807, 5.6631980E-03
2244.735, 5.7928609E-03
2246.664, 4.0195980E-03
2248.592, 3.7951970E-03
2250.521, 4.9418458E-03
2252.449, 5.9018880E-03
2254.378, 7.0326389E-03
2256.306, 7.6862932E-03
2258.235, 7.3055401E-03
2260.163, 7.0285108E-03
2262.092, 7.7498928E-03
2264.020, 7.3346850E-03
2265.948, 5.2454560E-03
2267.877, 4.8993761E-03
2269.805, 5.9050699E-03
2271.734, 5.4244380E-03
2273.662, 6.0329619E-03
2275.591, 7.4904538E-03
2277.519, 6.8626250E-03
2279.448, 6.2791230E-03
2281.376, 7.4717961E-03
2283.305, 8.1581445E-03
2285.233, 7.1610021E-03
2287.162, 6.4531420E-03
2289.090, 7.4003921E-03
2291.019, 7.5643361E-03
2292.947, 6.4843772E-03
2294.875, 6.1560399E-03
2296.804, 6.6543180E-03
2298.732, 6.3973241E-03
2300.661, 7.4198279E-03
2302.589, 8.0916705E-03
2304.518, 7.2554280E-03
2306.446, 7.1352632E-03
2308.375, 6.5759700E-03
2310.303, 6.3195149E-03
2312.232, 6.6616870E-03
2314.160, 7.7717132E-03
2316.089, 8.2283150E-03
2318.017, 7.6098312E-03
2319.946, 7.1644830E-03
2321.874, 8.3466824E-03
2323.802, 8.8298740E-03
2325.731, 7.5662080E-03
2327.659, 6.4127049E-03
2329.588, 6.7151100E-03
2331.516, 7.2427760E-03
2333.445, 7.2881700E-03
2335.373, 6.9646440E-03
2337.302, 6.0286252E-03
2339.230, 5.9939129E-03
2341.159, 6.8165590E-03
2343.087, 7.2253929E-03
2345.016, 6.8891170E-03
2346.944, 6.4581661E-03
2348.873, 6.3565681E-03
2350.801, 6.3410159E-03
2352.729, 6.2178192E-03
2354.658, 5.7425569E-03
2356.586, 5.7319482E-03
2358.515, 6.2171482E-03
2360.443, 6.2747169E-03
2362.372, 6.1418731E-03
2364.300, 6.6665290E-03
2366.229, 6.4438530E-03
2368.157, 6.2457230E-03
2370.086, 6.5955818E-03
2372.014, 6.7749829E-03
2373.942, 6.7142998E-03
2375.871, 5.8228699E-03
2377.799, 5.6739771E-03
2379.728, 6.1589950E-03
2381.656, 6.1579528E-03
2383.585, 6.8243281E-03
2385.513, 7.8451131E-03
2387.442, 7.9488615E-03
2389.370, 7.5134812E-03
2391.299, 7.1960501E-03
2393.227, 7.0130280E-03
2395.156, 7.2520878E-03
2397.084, 7.3290332E-03
2399.012, 6.0625821E-03
2400.941, 5.2687912E-03
2402.869, 5.5537708E-03
2404.798, 6.2609920E-03
2406.726, 7.1357642E-03
2408.655, 7.0937509E-03
2410.583, 7.1483250E-03
2412.512, 6.6517829E-03
2414.440, 7.0098718E-03
2416.369, 7.9461820E-03
2418.297, 8.1239417E-03
2420.226, 7.3689381E-03
2422.154, 6.0478500E-03
2424.083, 6.8977489E-03
2426.011, 8.4451707E-03
2427.939, 8.0985324E-03
2429.868, 7.8848759E-03
2431.796, 9.0761269E-03
2433.725, 8.4877936E-03
2435.653, 6.5563340E-03
2437.582, 7.1569891E-03
2439.510, 7.8576952E-03
2441.439, 8.2228798E-03
2443.367, 8.7860376E-03
2445.296, 9.6183429E-03
2447.224, 8.5552260E-03
2449.153, 7.2370432E-03
2451.081, 8.1549352E-03
2453.010, 8.2319537E-03
2454.938, 7.8947674E-03
2456.866, 8.8191489E-03
2458.795, 8.7208478E-03
2460.723, 7.4461820E-03
2462.652, 7.1964231E-03
2464.580, 7.7730138E-03
2466.509, 7.3239580E-03
2468.437, 7.5848368E-03
2470.366, 7.2889300E-03
2472.294, 6.2903729E-03
2474.223, 7.2791800E-03
2476.151, 6.9377311E-03
2478.080, 7.2192699E-03
2480.008, 7.7363378E-03
2481.937, 8.2759066E-03
2483.865, 8.6710397E-03
2485.793, 9.2317183E-03
2487.722, 8.3395550E-03
2489.650, 7.0354170E-03
2491.579, 6.4115222E-03
2493.507, 6.1043650E-03
2495.436, 6.9138720E-03
2497.364, 7.4539878E-03
2499.293, 6.8177199E-03
2501.221, 6.3385470E-03
2503.150, 6.3989130E-03
2505.078, 7.4710781E-03
2507.007, 8.5034883E-03
2508.935, 7.9523455E-03
2510.864, 6.5065068E-03
2512.792, 7.4057281E-03
2514.720, 8.5407374E-03
2516.649, 7.3606791E-03
2518.577, 7.5513348E-03
2520.506, 8.2946094E-03
2522.434, 7.2691450E-03
2524.363, 6.3201310E-03
2526.291, 7.0993612E-03
2528.220, 7.7327611E-03
2530.148, 7.2442009E-03
2532.077, 7.0143770E-03
2534.005, 6.8506491E-03
2535.934, 7.6916232E-03
2537.862, 8.2207425E-03
2539.791, 9.9340715E-03
2541.719, 9.3509089E-03
2543.647, 6.9879908E-03
2545.576, 6.3330312E-03
2547.504, 7.0887171E-03
2549.433, 8.0919396E-03
2551.361, 9.4047133E-03
2553.290, 1.0462210E-02
2555.218, 9.7440444E-03
2557.147, 9.1188010E-03
2559.075, 9.1691092E-03
2561.004, 9.1147590E-03
2562.932, 8.7645631E-03
2564.861, 8.5091665E-03
2566.789, 8.5011674E-03
2568.718, 8.3341543E-03
2570.646, 8.4182471E-03
2572.574, 8.7658353E-03
2574.503, 8.4668053E-03
2576.431, 7.9842508E-03
2578.360, 7.1814540E-03
2580.288, 6.8419222E-03
2582.217, 8.0664642E-03
2584.145, 8.7745404E-03
2586.074, 8.1291767E-03
2588.002, 7.3479572E-03
2589.931, 7.9572024E-03
2591.859, 8.8185631E-03
2593.788, 9.2912288E-03
2595.716, 1.0155590E-02
2597.645, 9.5598698E-03
2599.573, 8.2871811E-03
2601.501, 8.0377199E-03
2603.430, 8.0083199E-03
2605.358, 7.9388777E-03
2607.287, 8.9816386E-03
2609.215, 8.6090146E-03
2611.144, 7.0195822E-03
2613.072, 6.9425292E-03
2615.001, 7.7037308E-03
2616.929, 8.3807698E-03
2618.858, 9.1374815E-03
2620.786, 9.4788279E-03
2622.715, 9.8553011E-03
2624.643, 9.5014591E-03
2626.572, 9.3689151E-03
2628.500, 8.9733386E-03
2630.428, 9.0084719E-03
2632.357, 8.9742858E-03
2634.285, 8.8400254E-03
2636.214, 8.5348403E-03
2638.142, 8.5415225E-03
2640.071, 8.7135537E-03
2641.999, 8.4122019E-03
2643.928, 8.3440393E-03
2645.856, 9.3718534E-03
2647.785, 9.8342048E-03
2649.713, 9.5484816E-03
2651.642, 8.4845908E-03
2653.570, 8.1519289E-03
2655.499, 9.0071568E-03
2657.427, 9.5038330E-03
2659.355, 9.3456712E-03
2661.284, 9.0489974E-03
2663.212, 8.8262111E-03
2665.141, 8.2565779E-03
2667.069, 8.0849156E-03
2668.998, 8.5395910E-03
2670.926, 8.7755322E-03
2672.855, 8.1418715E-03
2674.783, 7.7191568E-03
2676.712, 8.2524074E-03
2678.640, 7.9786954E-03
2680.569, 8.4118126E-03
2682.497, 8.8941520E-03
2684.426, 8.3548427E-03
2686.354, 8.8041583E-03
2688.282, 9.0127895E-03
2690.211, 8.8359294E-03
2692.139, 9.0676108E-03
2694.068, 8.3173346E-03
2695.996, 8.0370503E-03
2697.925, 7.8873644E-03
2699.853, 7.9295672E-03
2701.782, 8.8584181E-03
2703.710, 9.0014311E-03
2705.639, 8.6835288E-03
2707.567, 7.9396404E-03
2709.496, 7.1089398E-03
2711.424, 7.6865749E-03
2713.353, 8.5856393E-03
2715.281, 9.4950655E-03
2717.209, 9.1692628E-03
2719.138, 8.3641438E-03
2721.066, 8.6676301E-03
2722.995, 9.3514929E-03
2724.923, 9.7944196E-03
2726.852, 9.0186894E-03
2728.780, 8.7065352E-03
2730.709, 9.4245914E-03
2732.637, 9.0437140E-03
2734.566, 8.1108268E-03
2736.494, 8.4332926E-03
2738.423, 9.7934408E-03
2740.351, 9.9249277E-03
2742.280, 9.2447130E-03
2744.208, 8.7266564E-03
2746.136, 8.5945986E-03
2748.065, 8.4509067E-03
2749.993, 8.7377569E-03
2751.922, 9.0028811E-03
2753.850, 9.4839931E-03
2755.779, 9.1521144E-03
2757.707, 8.3793942E-03
2759.636, 8.4251165E-03
2761.564, 9.0884008E-03
2763.493, 9.5231701E-03
2765.421, 8.7842047E-03
2767.350, 8.8020600E-03
2769.278, 9.0711256E-03
2771.207, 9.0898462E-03
2773.135, 9.4793877E-03
2775.063, 1.0793800E-02
2776.992, 1.0585840E-02
2778.920, 9.5832823E-03
2780.849, 9.0990728E-03
2782.777, 8.1814444E-03
2784.706, 8.4722433E-03
2786.634, 1.0488790E-02
2788.563, 1.0728250E-02
2790.491, 9.3007823E-03
2792.420, 8.5213026E-03
2794.348, 8.8961869E-03
2796.277, 9.1986107E-03
2798.205, 9.2218760E-03
2800.134, 9.4329519E-03
2802.062, 9.0037659E-03
2803.990, 9.1769984E-03
2805.919, 1.0506710E-02
2807.847, 1.0586660E-02
2809.776, 1.0496360E-02
2811.704, 1.0521120E-02
2813.633, 1.0576110E-02
2815.561, 1.1227960E-02
2817.490, 1.1128960E-02
2819.418, 1.0113770E-02
2821.347, 1.0235810E-02
2823.275, 1.0633500E-02
2825.204, 1.0584050E-02
2827.132, 1.0086720E-02
2829.061, 1.0114210E-02
2830.989, 1.0209840E-02
2832.917, 1.0256860E-02
2834.846, 9.5251584E-03
2836.774, 9.4256261E-03
2838.703, 9.2127398E-03
2840.631, 8.9388769E-03
2842.560, 8.8488786E-03
2844.488, 9.0771271E-03
2846.417, 1.0236130E-02
2848.345, 1.1451060E-02
2850.274, 1.1162080E-02
2852.202, 1.0539830E-02
2854.131, 1.0342530E-02
2856.059, 9.8701064E-03
2857.988, 9.5037976E-03
2859.916, 9.6869171E-03
2861.844, 1.0638670E-02
2863.773, 1.0847310E-02
2865.701, 1.0187930E-02
2867.630, 1.1011510E-02
2869.558, 1.0326240E-02
2871.487, 9.2077963E-03
2873.415, 9.9443682E-03
2875.344, 9.5451344E-03
2877.272, 1.0108160E-02
2879.201, 1.0508160E-02
2881.129, 1.0451930E-02
2883.058, 1.0080320E-02
2884.986, 1.0461570E-02
2886.915, 1.0254760E-02
2888.843, 9.7953286E-03
2890.771, 9.4059389E-03
2892.700, 9.4935726E-03
2894.628, 1.0114370E-02
2896.557, 9.2198681E-03
2898.485, 9.0624904E-03
2900.414, 1.0205630E-02
2902.342, 1.0341930E-02
2904.271, 9.7138919E-03
2906.199, 9.8570678E-03
2908.128, 1.1084280E-02
2910.056, 1.1147280E-02
2911.985, 1.0920760E-02
2913.913, 1.1901820E-02
2915.842, 1.1692710E-02
2917.770, 1.0223180E-02
2919.698, 1.1764400E-02
2921.627, 1.2416790E-02
2923.555, 1.0484480E-02
2925.484, 1.0256740E-02
2927.412, 1.2166120E-02
2929.341, 1.2010430E-02
2931.269, 1.1331230E-02
2933.198, 1.1163200E-02
2935.126, 1.1194050E-02
2937.055, 1.1179800E-02
2938.983, 1.1457020E-02
2940.912, 1.1524780E-02
2942.840, 1.1218690E-02
2944.769, 1.1193980E-02
2946.697, 1.2182150E-02
2948.625, 1.2527990E-02
2950.554, 1.0634670E-02
2952.482, 1.0043470E-02
2954.411, 9.2731807E-03
2956.339, 9.5267855E-03
2958.268, 1.1192260E-02
2960.196, 1.2014680E-02
2962.125, 1.1872330E-02
2964.053, 1.1710680E-02
2965.982, 1.1272690E-02
2967.910, 1.0923400E-02
2969.839, 1.0478790E-02
2971.767, 1.0882050E-02
2973.696, 1.1772450E-02
2975.624, 1.1747170E-02
2977.552, 1.1147990E-02
2979.481, 1.2343980E-02
2981.409, 1.2740280E-02
2983.338, 1.1982820E-02
2985.266, 1.1947340E-02
2987.195, 1.2511990E-02
2989.123, 1.2249870E-02
2991.052, 1.1258790E-02
2992.980, 1.0781570E-02
2994.909, 1.1390620E-02
2996.837, 1.2037720E-02
2998.766, 1.2015240E-02
3000.694, 1.1488340E-02
3002.623, 1.1042240E-02
3004.551, 1.1368530E-02
3006.479, 1.1791710E-02
3008.408, 1.1275190E-02
3010.336, 1.0721720E-02
3012.265, 1.1403510E-02
3014.193, 1.1970120E-02
3016.122, 1.0082280E-02
3018.050, 9.0364655E-03
3019.979, 9.4040036E-03
3021.907, 1.0160020E-02
3023.836, 1.0850760E-02
3025.764, 1.2496920E-02
3027.693, 1.1958140E-02
3029.621, 1.1639400E-02
3031.550, 1.1150760E-02
3033.478, 1.0406060E-02
3035.406, 1.1533580E-02
3037.335, 1.0707290E-02
3039.263, 1.1374470E-02
3041.192, 1.1379640E-02
3043.120, 9.9031376E-03
3045.049, 1.0460640E-02
3046.977, 1.2469970E-02
3048.906, 1.2528600E-02
3050.834, 1.2483640E-02
3052.763, 1.1890420E-02
3054.691, 1.1537120E-02
3056.620, 1.1169900E-02
3058.548, 1.1014660E-02
3060.477, 1.1881920E-02
3062.405, 1.2461770E-02
3064.333, 1.0909690E-02
3066.262, 1.0606670E-02
3068.190, 1.1169970E-02
3070.119, 1.0696310E-02
3072.047, 9.6113263E-03
3073.976, 9.3376599E-03
3075.904, 8.6449310E-03
3077.833, 1.0890940E-02
3079.761, 1.2878850E-02
3081.690, 1.2044860E-02
3083.618, 1.1663440E-02
3085.547, 1.1547910E-02
3087.475, 1.2719700E-02
3089.404, 1.3457570E-02
3091.332, 1.2890840E-02
3093.260, 1.2087380E-02
3095.189, 1.1290620E-02
3097.117, 1.0679580E-02
3099.046, 1.0592050E-02
3100.974, 1.1309500E-02
3102.903, 1.2528630E-02
3104.831, 1.1619180E-02
3106.760, 9.0286946E-03
3108.688, 7.6623550E-03
3110.617, 9.5749022E-03
3112.545, 1.2529390E-02
3114.474, 1.2421310E-02
3116.402, 1.0375870E-02
3118.331, 9.5056230E-03
3120.259, 1.1910100E-02
3122.188, 1.3618230E-02
3124.116, 1.3623370E-02
3126.044, 1.3820930E-02
3127.973, 1.2525620E-02
3129.901, 1.1306260E-02
3131.830, 1.1538510E-02
3133.758, 1.1956620E-02
3135.687, 1.1547960E-02
3137.615, 1.1588120E-02
3139.544, 1.1861880E-02
3141.472, 1.3204300E-02
3143.401, 1.3113760E-02
3145.329, 1.3289000E-02
3147.258, 1.4140570E-02
3149.186, 1.3196880E-02
3151.115, 1.0903020E-02
3153.043, 1.1767280E-02
3154.971, 1.3688160E-02
3156.900, 1.2650140E-02
3158.828, 1.2215750E-02
3160.757, 1.2774780E-02
3162.685, 1.3023970E-02
3164.614, 1.3800960E-02
3166.542, 1.4284550E-02
3168.471, 1.4095740E-02
3170.399, 1.2782690E-02
3172.328, 1.0992520E-02
3174.256, 1.1373180E-02
3176.185, 1.2397330E-02
3178.113, 1.2900310E-02
3180.042, 1.1922660E-02
3181.970, 1.1405070E-02
3183.898, 1.0252720E-02
3185.827, 1.1156990E-02
3187.755, 1.2537890E-02
3189.684, 1.2777660E-02
3191.612, 1.3726220E-02
3193.541, 1.4279440E-02
3195.469, 1.5101630E-02
3197.398, 1.5646569E-02
3199.326, 1.3537800E-02
3201.255, 1.2909770E-02
3203.183, 1.3146060E-02
3205.112, 1.2460840E-02
3207.040, 1.1937390E-02
3208.969, 1.3715710E-02
3210.897, 1.5572970E-02
3212.825, 1.5106380E-02
3214.754, 1.3062910E-02
3216.682, 1.0569510E-02
3218.611, 1.0094320E-02
3220.539, 1.1136990E-02
3222.468, 1.2593290E-02
3224.396, 1.2922870E-02
3226.325, 1.3330610E-02
3228.253, 1.2053470E-02
3230.182, 1.0825150E-02
3232.110, 1.2000250E-02
3234.039, 1.2368970E-02
3235.967, 1.1967850E-02
3237.896, 1.3213360E-02
3239.824, 1.3596220E-02
3241.752, 1.1719860E-02
3243.681, 1.0336200E-02
3245.609, 1.1363100E-02
3247.538, 1.3433360E-02
3249.466, 1.3103320E-02
3251.395, 1.4100520E-02
3253.323, 1.4288650E-02
3255.252, 1.2731310E-02
3257.180, 1.2566260E-02
3259.109, 1.2070870E-02
3261.037, 1.2093050E-02
3262.966, 1.4566920E-02
3264.894, 1.5889451E-02
3266.823, 1.4341050E-02
3268.751, 1.2061250E-02
3270.679, 1.1711670E-02
3272.608, 1.1445380E-02
3274.536, 1.1416570E-02
3276.465, 1.3232030E-02
3278.393, 1.3203850E-02
3280.322, 1.2798100E-02
3282.250, 1.3393270E-02
3284.179, 1.3041990E-02
3286.107, 1.3308660E-02
3288.036, 1.5399990E-02
3289.964, 1.6036820E-02
3291.893, 1.3446380E-02
3293.821, 1.0494330E-02
3295.750, 1.1045650E-02
3297.678, 1.2266950E-02
3299.606, 1.1982260E-02
3301.535, 1.3401620E-02
3303.463, 1.4234020E-02
3305.392, 1.4434690E-02
3307.320, 1.4583700E-02
3309.249, 1.5221170E-02
3311.177, 1.6512280E-02
3313.106, 1.4165140E-02
3315.034, 1.1735160E-02
3316.963, 1.1420470E-02
3318.891, 1.2103750E-02
3320.820, 1.2912360E-02
3322.748, 1.2738020E-02
3324.677, 1.4215280E-02
3326.605, 1.4959390E-02
3328.533, 1.3433290E-02
3330.462, 1.4019150E-02
3332.390, 1.6211690E-02
3334.319, 1.4603870E-02
3336.247, 1.1828870E-02
3338.176, 1.2518560E-02
3340.104, 1.4408660E-02
3342.033, 1.7019160E-02
3343.961, 1.7107449E-02
3345.890, 1.4863310E-02
3347.818, 1.6193859E-02
3349.747, 1.6798491E-02
3351.675, 1.5296000E-02
3353.604, 1.3562840E-02
3355.532, 1.2979240E-02
3357.460, 1.3594280E-02
3359.389, 1.3134210E-02
3361.317, 1.2702740E-02
3363.246, 1.4145110E-02
3365.174, 1.4658820E-02
3367.103, 1.2532620E-02
3369.031, 1.1663550E-02
3370.960, 1.3221600E-02
3372.888, 1.4017990E-02
3374.817, 1.2566520E-02
3376.745, 1.4211150E-02
3378.674, 1.7467080E-02
3380.602, 1.7516270E-02
3382.531, 1.6445519E-02
3384.459, 1.5090840E-02
3386.387, 1.4777980E-02
3388.316, 1.5473660E-02
3390.244, 1.4163390E-02
3392.173, 1.3461440E-02
3394.101, 1.5254960E-02
3396.030, 1.5123110E-02
3397.958, 1.2552770E-02
3399.887, 1.1548840E-02
3401.815, 1.2618510E-02
3403.744, 1.3459100E-02
3405.672, 1.2979870E-02
3407.601, 1.3058070E-02
3409.529, 1.4595990E-02
3411.458, 1.7264159E-02
3413.386, 1.7771989E-02
3415.314, 1.5161650E-02
3417.243, 1.2596490E-02
3419.171, 1.3293520E-02
3421.100, 1.4193410E-02
3423.028, 1.4710940E-02
3424.957, 1.6432730E-02
3426.885, 1.5947480E-02
3428.814, 1.6592421E-02
3430.742, 1.7475851E-02
3432.671, 1.6389711E-02
3434.599, 1.4698380E-02
3436.528, 1.4798630E-02
3438.456, 1.4572790E-02
3440.385, 1.4830660E-02
3442.313, 1.3858180E-02
3444.241, 1.1210420E-02
3446.170, 1.1476490E-02
3448.098, 1.3154940E-02
3450.027, 1.5667450E-02
3451.955, 1.5019750E-02
3453.884, 1.1742410E-02
3455.812, 1.2454260E-02
3457.741, 1.4224560E-02
3459.669, 1.5463250E-02
3461.598, 1.5647100E-02
3463.526, 1.5673790E-02
3465.455, 1.3835330E-02
3467.383, 1.4070080E-02
3469.312, 1.5619360E-02
3471.240, 1.6593160E-02
3473.168, 1.6960099E-02
3475.097, 1.8090021E-02
3477.025, 1.7929720E-02
3478.954, 1.6921440E-02
3480.882, 1.6677510E-02
3482.811, 1.5339700E-02
3484.739, 1.5443600E-02
3486.668, 1.6990380E-02
3488.596, 1.6950220E-02
3490.525, 1.5965549E-02
3492.453, 1.4830270E-02
3494.382, 1.5569970E-02
3496.310, 1.8011350E-02
3498.239, 1.7692780E-02
3500.167, 1.6795229E-02
3502.095, 1.7253920E-02
3504.024, 1.7546911E-02
3505.952, 1.7191971E-02
3507.881, 1.6123749E-02
3509.809, 1.6264969E-02
3511.738, 1.6921580E-02
3513.666, 1.9326020E-02
3515.595, 2.0245381E-02
3517.523, 1.9886160E-02
3519.452, 1.9645561E-02
3521.380, 1.7072810E-02
3523.309, 1.8383769E-02
3525.237, 1.9008091E-02
3527.166, 1.8996119E-02
3529.094, 2.0245871E-02
3531.022, 2.2156971E-02
3532.951, 2.2074889E-02
3534.879, 1.9522170E-02
3536.808, 2.0302121E-02
3538.736, 2.2394771E-02
3540.665, 2.3483099E-02
3542.593, 2.6249900E-02
3544.522, 2.7732641E-02
3546.450, 2.4842151E-02
3548.379, 2.4695201E-02
3550.307, 2.7704731E-02
3552.236, 3.1208601E-02
3554.164, 3.4297392E-02
3556.093, 3.7644580E-02
3558.021, 3.9771739E-02
3559.949, 4.2836219E-02
3561.878, 4.8631169E-02
3563.806, 5.5597302E-02
3565.735, 6.4106010E-02
3567.663, 8.0137797E-02
3569.592, 0.1025424
3571.520, 0.1278297
3573.449, 0.1663662
3575.377, 0.2050648
3577.306, 0.2012702
3579.234, 0.1602133
3581.163, 0.1178140
3583.091, 0.1023417
3585.020, 9.7573042E-02
3586.948, 6.3849702E-02
3588.876, 2.9630341E-02
3590.805, 1.5407470E-02
3592.733, 1.0246760E-02
3594.662, 8.7446477E-03
3596.590, 8.9666229E-03
3598.519, 8.9551220E-03
3600.447, 9.0872282E-03
3602.376, 1.0566250E-02
3604.304, 1.0171580E-02
3606.233, 8.9610992E-03
3608.161, 7.5716190E-03
3610.090, 8.3567752E-03
3612.018, 9.3786372E-03
3613.947, 9.9038891E-03
3615.875, 1.0217130E-02
3617.803, 8.8079367E-03
3619.732, 9.9654878E-03
3621.660, 1.0253170E-02
3623.589, 1.1138540E-02
3625.517, 1.1884560E-02
3627.446, 8.3588902E-03
3629.374, 5.8958521E-03
3631.303, 6.5401662E-03
3633.231, 6.1170980E-03
3635.160, 6.4221779E-03
3637.088, 8.8645816E-03
3639.017, 1.1679530E-02
3640.945, 1.0758330E-02
3642.874, 8.7705338E-03
3644.802, 8.0638304E-03
3646.730, 6.0761450E-03
3648.659, 7.3494082E-03
3650.587, 1.0118610E-02
3652.516, 9.8390914E-03
3654.444, 8.4122177E-03
3656.373, 7.3089590E-03
3658.301, 8.8743521E-03
3660.230, 1.1877380E-02
3662.158, 1.4833620E-02
3664.087, 9.9497903E-03
3666.015, 7.8456039E-03
3667.944, 1.0462000E-02
3669.872, 1.0664330E-02
3671.801, 9.7560184E-03
3673.729, 1.0530700E-02
3675.657, 1.4780130E-02
3677.586, 1.4368430E-02
3679.514, 1.1887260E-02
3681.443, 9.6819848E-03
3683.371, 1.0291400E-02
3685.300, 1.0798780E-02
3687.228, 1.2694330E-02
3689.157, 9.0809790E-03
3691.085, 6.6744871E-03
3693.014, 7.7378750E-03
3694.942, 1.0753450E-02
3696.871, 1.0682610E-02
3698.799, 8.6870641E-03
3700.728, 9.5170746E-03
3702.656, 1.1158580E-02
3704.584, 9.8674558E-03
3706.513, 8.3939238E-03
3708.441, 8.0034528E-03
3710.370, 1.0564080E-02
3712.298, 1.0887180E-02
3714.227, 8.6427489E-03
3716.155, 1.0364660E-02
3718.084, 1.2347130E-02
3720.012, 1.0529000E-02
3721.941, 1.0911360E-02
3723.869, 1.1686880E-02
3725.798, 1.1259770E-02
3727.726, 1.2652620E-02
3729.655, 1.1703790E-02
3731.583, 1.2457250E-02
3733.511, 1.4677680E-02
3735.440, 1.5620500E-02
3737.368, 1.6022209E-02
3739.297, 1.4207280E-02
3741.225, 1.1622610E-02
3743.154, 1.3462530E-02
3745.082, 1.3010590E-02
3747.011, 1.2346370E-02
3748.939, 1.2434330E-02
3750.868, 9.8074274E-03
3752.796, 8.8840201E-03
3754.725, 1.1737850E-02
3756.653, 1.1780490E-02
3758.582, 1.1309440E-02
3760.510, 1.3671450E-02
3762.438, 1.4295710E-02
3764.367, 1.4792690E-02
3766.295, 1.5390850E-02
3768.224, 1.2111960E-02
3770.152, 1.0186770E-02
3772.081, 8.2842465E-03
3774.009, 8.3083399E-03
3775.938, 9.9175358E-03
3777.866, 1.2868480E-02
3779.795, 1.3477130E-02
3781.723, 1.2638270E-02
3783.652, 1.4830770E-02
3785.580, 1.2977430E-02
3787.509, 1.3537150E-02
3789.437, 1.6055239E-02
3791.365, 1.3417060E-02
3793.294, 1.1943370E-02
3795.222, 1.2050530E-02
3797.151, 1.2252850E-02
3799.079, 1.5754700E-02
3801.008, 1.6647531E-02
3802.936, 1.5188020E-02
3804.865, 1.3428870E-02
3806.793, 1.0819950E-02
3808.722, 1.4146070E-02
3810.650, 1.6658889E-02
3812.579, 1.2994610E-02
3814.507, 1.2221390E-02
3816.436, 1.3938150E-02
3818.364, 1.4707570E-02
3820.292, 1.4352850E-02
3822.221, 1.4518000E-02
3824.149, 1.1810680E-02
3826.078, 1.3940640E-02
3828.006, 1.4467170E-02
3829.935, 1.2408890E-02
3831.863, 1.3638460E-02
3833.792, 1.4634990E-02
3835.720, 1.3451280E-02
3837.649, 1.2993940E-02
3839.577, 1.3069840E-02
3841.506, 1.2511910E-02
3843.434, 1.5165080E-02
3845.363, 1.6411720E-02
3847.291, 1.5673449E-02
3849.219, 1.4403640E-02
3851.148, 1.2437510E-02
3853.076, 1.3550240E-02
3855.005, 1.4327760E-02
3856.933, 1.4799140E-02
3858.862, 1.2547440E-02
3860.790, 1.2946600E-02
3862.719, 1.5778029E-02
3864.647, 1.6872440E-02
3866.576, 1.3757100E-02
3868.504, 1.2680300E-02
3870.433, 1.3084780E-02
3872.361, 1.4009780E-02
3874.290, 1.5232160E-02
3876.218, 1.3477420E-02
3878.146, 1.1272150E-02
3880.075, 1.1259890E-02
3882.003, 1.2421180E-02
3883.932, 1.4297960E-02
3885.860, 1.6135510E-02
3887.789, 1.4950680E-02
3889.717, 1.3549690E-02
3891.646, 8.9001618E-03
3893.574, 7.7168890E-03
3895.503, 1.3331110E-02
3897.431, 1.9359419E-02
3899.360, 2.1158010E-02
3901.288, 1.8531639E-02
3903.217, 1.4828260E-02
3905.145, 1.4386750E-02
3907.073, 1.4919960E-02
3909.002, 1.3330050E-02
3910.930, 1.5476390E-02
3912.859, 1.6959829E-02
3914.787, 1.5305520E-02
3916.716, 1.6436979E-02
3918.644, 1.6529121E-02
3920.573, 1.3084500E-02
3922.501, 1.3122500E-02
3924.430, 1.5932839E-02
3926.358, 1.5931999E-02
3928.287, 1.7014610E-02
3930.215, 1.7385099E-02
3932.144, 1.3267540E-02
3934.072, 1.0486980E-02
3936.000, 1.0555230E-02
3937.929, 1.4291990E-02
3939.857, 2.0150200E-02
3941.786, 1.9185040E-02
3943.714, 1.4210870E-02
3945.643, 1.1551510E-02
3947.571, 1.2179870E-02
3949.500, 1.2337790E-02
3951.428, 1.3550860E-02
3953.357, 1.3646340E-02
3955.285, 1.3470570E-02
3957.214, 1.3401150E-02
3959.142, 1.4164220E-02
3961.071, 1.5952170E-02
3962.999, 1.5045960E-02
3964.927, 1.5096360E-02
3966.856, 1.5211240E-02
3968.784, 1.4629820E-02
3970.713, 1.4182140E-02
3972.641, 1.3928260E-02
3974.570, 1.5245340E-02
3976.498, 1.5391780E-02
3978.427, 1.3177420E-02
3980.355, 1.3986410E-02
3982.284, 1.4361430E-02
3984.212, 1.2612440E-02
3986.141, 1.2834090E-02
3988.069, 1.5082890E-02
3989.998, 1.6012620E-02
3991.926, 1.6344260E-02
3993.854, 1.7061640E-02
3995.783, 1.6678970E-02
3997.711, 1.6443230E-02
3999.640, 1.6451159E-02
##END=



