##NAMES=Fairfieldite
##RRUFFID=R050539
##IDEAL CHEMISTRY=Ca_2_Mn^2+^(PO_4_)_2_&#183;2H_2_O
##LOCALITY=Foote mine, Kings Mountain, Cleveland County, North Carolina, USA
##OWNER=RRUFF
##SOURCE=University of Arizona Mineral Museum
##DESCRIPTION=Transparent tabular crystals associated with fluorapatite
##STATUS=The identification of this mineral has been confirmed by X-ray diffraction and chemical analysis
##URL=rruff.info/R050539
##MEASURED CHEMISTRY=Ca_2.00_(Mn^2+^_0.82_Fe^2+^_0.15_Mg_0.03_)_Σ=1_(P_1.00_O_4_)_2_·2H_2_O
3.991926e+002, 7.775687e-002
4.011211e+002, 8.170394e-002
4.030496e+002, 8.170394e-002
4.049780e+002, 8.268722e-002
4.069065e+002, 8.208571e-002
4.088350e+002, 8.006928e-002
4.107634e+002, 7.441381e-002
4.126919e+002, 8.062632e-002
4.146204e+002, 8.986318e-002
4.165488e+002, 8.692688e-002
4.184773e+002, 8.940445e-002
4.204058e+002, 8.800071e-002
4.223342e+002, 8.821894e-002
4.242627e+002, 9.332028e-002
4.261912e+002, 9.484740e-002
4.281196e+002, 9.616340e-002
4.300481e+002, 9.129893e-002
4.319766e+002, 9.111126e-002
4.339050e+002, 9.374794e-002
4.358335e+002, 8.667928e-002
4.377620e+002, 8.363048e-002
4.396904e+002, 8.510667e-002
4.416189e+002, 8.660404e-002
4.435474e+002, 8.536399e-002
4.454758e+002, 8.569551e-002
4.474043e+002, 8.769637e-002
4.493328e+002, 8.616602e-002
4.512612e+002, 8.439729e-002
4.531897e+002, 8.886044e-002
4.551182e+002, 9.357490e-002
4.570466e+002, 9.724554e-002
4.589751e+002, 9.827670e-002
4.609036e+002, 1.023100e-001
4.628320e+002, 1.082946e-001
4.647605e+002, 1.104460e-001
4.666890e+002, 1.156322e-001
4.686174e+002, 1.161826e-001
4.705459e+002, 1.173991e-001
4.724744e+002, 1.215014e-001
4.744028e+002, 1.237014e-001
4.763313e+002, 1.276927e-001
4.782598e+002, 1.277267e-001
4.801882e+002, 1.288628e-001
4.821167e+002, 1.306303e-001
4.840452e+002, 1.302106e-001
4.859736e+002, 1.324460e-001
4.879021e+002, 1.319993e-001
4.898306e+002, 1.332790e-001
4.917590e+002, 1.364851e-001
4.936875e+002, 1.377898e-001
4.956160e+002, 1.419474e-001
4.975444e+002, 1.444084e-001
4.994729e+002, 1.484434e-001
5.014014e+002, 1.552469e-001
5.033298e+002, 1.645690e-001
5.052583e+002, 1.743893e-001
5.071868e+002, 1.816183e-001
5.091152e+002, 1.926228e-001
5.110437e+002, 2.060548e-001
5.129722e+002, 2.185072e-001
5.149006e+002, 2.337705e-001
5.168291e+002, 2.493066e-001
5.187576e+002, 2.685496e-001
5.206860e+002, 2.890937e-001
5.226145e+002, 3.082241e-001
5.245430e+002, 3.316061e-001
5.264714e+002, 3.555872e-001
5.283999e+002, 3.816742e-001
5.303284e+002, 4.086547e-001
5.322568e+002, 4.374465e-001
5.341853e+002, 4.675684e-001
5.361138e+002, 4.917859e-001
5.380422e+002, 5.182047e-001
5.399707e+002, 5.362173e-001
5.418992e+002, 5.415039e-001
5.438276e+002, 5.430421e-001
5.457561e+002, 5.387064e-001
5.476846e+002, 5.320113e-001
5.496130e+002, 5.213540e-001
5.515415e+002, 5.113352e-001
5.534700e+002, 5.007977e-001
5.553984e+002, 4.817496e-001
5.573269e+002, 4.616346e-001
5.592554e+002, 4.399747e-001
5.611838e+002, 4.200411e-001
5.631123e+002, 4.044424e-001
5.650408e+002, 3.837498e-001
5.669692e+002, 3.611156e-001
5.688977e+002, 3.348699e-001
5.708262e+002, 3.049622e-001
5.727546e+002, 2.765829e-001
5.746831e+002, 2.504714e-001
5.766116e+002, 2.329194e-001
5.785400e+002, 2.241498e-001
5.804685e+002, 2.211653e-001
5.823970e+002, 2.251520e-001
5.843254e+002, 2.287502e-001
5.862539e+002, 2.286635e-001
5.881824e+002, 2.283850e-001
5.901108e+002, 2.294004e-001
5.920393e+002, 2.288605e-001
5.939678e+002, 2.247401e-001
5.958962e+002, 2.201048e-001
5.978247e+002, 2.130120e-001
5.997532e+002, 2.021977e-001
6.016816e+002, 1.855091e-001
6.036101e+002, 1.620505e-001
6.055386e+002, 1.391178e-001
6.074670e+002, 1.171977e-001
6.093955e+002, 9.813521e-002
6.113240e+002, 8.291548e-002
6.132524e+002, 7.068606e-002
6.151809e+002, 6.314711e-002
6.171094e+002, 5.795189e-002
6.190378e+002, 5.390526e-002
6.209663e+002, 5.151848e-002
6.228948e+002, 4.944450e-002
6.248232e+002, 4.832808e-002
6.267517e+002, 4.814150e-002
6.286802e+002, 4.714862e-002
6.306086e+002, 4.594422e-002
6.325371e+002, 4.508344e-002
6.344656e+002, 4.549644e-002
6.363940e+002, 4.603502e-002
6.383225e+002, 4.678785e-002
6.402510e+002, 4.777835e-002
6.421794e+002, 4.912704e-002
6.441079e+002, 5.081343e-002
6.460364e+002, 5.129783e-002
6.479648e+002, 5.167315e-002
6.498933e+002, 5.224516e-002
6.518218e+002, 5.260051e-002
6.537502e+002, 5.281834e-002
6.556787e+002, 5.242125e-002
6.576072e+002, 5.209526e-002
6.595356e+002, 5.227704e-002
6.614641e+002, 5.307605e-002
6.633926e+002, 5.384832e-002
6.653210e+002, 5.421170e-002
6.672495e+002, 5.473468e-002
6.691780e+002, 5.558164e-002
6.711064e+002, 5.610175e-002
6.730349e+002, 5.693231e-002
6.749634e+002, 5.802152e-002
6.768918e+002, 5.956462e-002
6.788203e+002, 6.032984e-002
6.807488e+002, 6.135625e-002
6.826772e+002, 6.327112e-002
6.846057e+002, 6.438114e-002
6.865342e+002, 6.579442e-002
6.884626e+002, 6.773497e-002
6.903911e+002, 6.946387e-002
6.923196e+002, 7.188958e-002
6.942480e+002, 7.399510e-002
6.961765e+002, 7.530898e-002
6.981050e+002, 7.770508e-002
7.000334e+002, 8.056054e-002
7.019619e+002, 8.313687e-002
7.038904e+002, 8.611120e-002
7.058188e+002, 8.919241e-002
7.077473e+002, 9.255368e-002
7.096758e+002, 9.657404e-002
7.116042e+002, 9.999133e-002
7.135327e+002, 1.037540e-001
7.154612e+002, 1.084639e-001
7.173896e+002, 1.138995e-001
7.193181e+002, 1.191518e-001
7.212466e+002, 1.244620e-001
7.231750e+002, 1.303936e-001
7.251035e+002, 1.358358e-001
7.270320e+002, 1.404332e-001
7.289604e+002, 1.462224e-001
7.308889e+002, 1.534279e-001
7.328174e+002, 1.605690e-001
7.347458e+002, 1.671000e-001
7.366743e+002, 1.733607e-001
7.386028e+002, 1.799876e-001
7.405313e+002, 1.862759e-001
7.424597e+002, 1.916003e-001
7.443882e+002, 1.956377e-001
7.463167e+002, 1.980419e-001
7.482451e+002, 1.996528e-001
7.501736e+002, 2.008810e-001
7.521021e+002, 2.015024e-001
7.540305e+002, 2.006817e-001
7.559590e+002, 1.987996e-001
7.578875e+002, 1.965445e-001
7.598159e+002, 1.937521e-001
7.617444e+002, 1.897300e-001
7.636729e+002, 1.848348e-001
7.656013e+002, 1.791259e-001
7.675298e+002, 1.730032e-001
7.694583e+002, 1.666261e-001
7.713867e+002, 1.607023e-001
7.733152e+002, 1.545946e-001
7.752437e+002, 1.488785e-001
7.771721e+002, 1.439153e-001
7.791006e+002, 1.391050e-001
7.810291e+002, 1.355669e-001
7.829575e+002, 1.328046e-001
7.848860e+002, 1.296049e-001
7.868145e+002, 1.268285e-001
7.887429e+002, 1.245076e-001
7.906714e+002, 1.208921e-001
7.925999e+002, 1.166777e-001
7.945283e+002, 1.135155e-001
7.964568e+002, 1.106122e-001
7.983853e+002, 1.077031e-001
8.003137e+002, 1.058443e-001
8.022422e+002, 1.042598e-001
8.041707e+002, 1.021810e-001
8.060991e+002, 1.003025e-001
8.080276e+002, 9.875797e-002
8.099561e+002, 9.755412e-002
8.118845e+002, 9.660284e-002
8.138130e+002, 9.531093e-002
8.157415e+002, 9.435607e-002
8.176699e+002, 9.380645e-002
8.195984e+002, 9.378794e-002
8.215269e+002, 9.402075e-002
8.234553e+002, 9.448735e-002
8.253838e+002, 9.522750e-002
8.273123e+002, 9.603793e-002
8.292407e+002, 9.739416e-002
8.311692e+002, 9.864984e-002
8.330977e+002, 1.006452e-001
8.350261e+002, 1.029731e-001
8.369546e+002, 1.049382e-001
8.388831e+002, 1.071933e-001
8.408115e+002, 1.096815e-001
8.427400e+002, 1.124819e-001
8.446685e+002, 1.154158e-001
8.465969e+002, 1.185746e-001
8.485254e+002, 1.224343e-001
8.504539e+002, 1.257915e-001
8.523823e+002, 1.293176e-001
8.543108e+002, 1.331838e-001
8.562393e+002, 1.371599e-001
8.581677e+002, 1.411248e-001
8.600962e+002, 1.450209e-001
8.620247e+002, 1.486974e-001
8.639531e+002, 1.528698e-001
8.658816e+002, 1.571155e-001
8.678101e+002, 1.610724e-001
8.697385e+002, 1.662231e-001
8.716670e+002, 1.714489e-001
8.735955e+002, 1.765895e-001
8.755239e+002, 1.813695e-001
8.774524e+002, 1.864279e-001
8.793809e+002, 1.915798e-001
8.813093e+002, 1.956037e-001
8.832378e+002, 1.984569e-001
8.851663e+002, 2.001885e-001
8.870947e+002, 2.001635e-001
8.890232e+002, 1.982932e-001
8.909517e+002, 1.954694e-001
8.928801e+002, 1.918328e-001
8.948085e+002, 1.875617e-001
8.967370e+002, 1.834000e-001
8.986655e+002, 1.798483e-001
9.005939e+002, 1.774073e-001
9.025224e+002, 1.757858e-001
9.044509e+002, 1.745928e-001
9.063793e+002, 1.748024e-001
9.083078e+002, 1.756899e-001
9.102363e+002, 1.772747e-001
9.121647e+002, 1.799657e-001
9.140932e+002, 1.844276e-001
9.160217e+002, 1.900320e-001
9.179501e+002, 1.962478e-001
9.198786e+002, 2.036911e-001
9.218071e+002, 2.129111e-001
9.237355e+002, 2.237343e-001
9.256640e+002, 2.357845e-001
9.275925e+002, 2.500361e-001
9.295209e+002, 2.667811e-001
9.314494e+002, 2.861244e-001
9.333779e+002, 3.085140e-001
9.353063e+002, 3.275406e-001
9.372348e+002, 3.330300e-001
9.391633e+002, 3.208122e-001
9.410917e+002, 3.023753e-001
9.430202e+002, 2.879105e-001
9.449487e+002, 2.838413e-001
9.468771e+002, 2.932571e-001
9.488056e+002, 3.114517e-001
9.507341e+002, 3.329509e-001
9.526625e+002, 3.555521e-001
9.545910e+002, 3.779513e-001
9.565195e+002, 3.995183e-001
9.584479e+002, 4.198745e-001
9.603764e+002, 4.389446e-001
9.623049e+002, 4.558414e-001
9.642333e+002, 4.691967e-001
9.661618e+002, 4.789138e-001
9.680903e+002, 4.842080e-001
9.700187e+002, 4.862270e-001
9.719472e+002, 4.853941e-001
9.738757e+002, 4.810332e-001
9.758041e+002, 4.741803e-001
9.777326e+002, 4.653209e-001
9.796611e+002, 4.556034e-001
9.815895e+002, 4.457870e-001
9.835180e+002, 4.354966e-001
9.854465e+002, 4.237641e-001
9.873749e+002, 4.107963e-001
9.893034e+002, 3.973797e-001
9.912319e+002, 3.833867e-001
9.931603e+002, 3.687764e-001
9.950888e+002, 3.543720e-001
9.970173e+002, 3.399307e-001
9.989457e+002, 3.261842e-001
1.000874e+003, 3.139094e-001
1.002803e+003, 3.019574e-001
1.004731e+003, 2.903723e-001
1.006660e+003, 2.790951e-001
1.008588e+003, 2.681562e-001
1.010517e+003, 2.583036e-001
1.012445e+003, 2.488963e-001
1.014373e+003, 2.397541e-001
1.016302e+003, 2.310279e-001
1.018230e+003, 2.228224e-001
1.020159e+003, 2.153748e-001
1.022087e+003, 2.078879e-001
1.024016e+003, 2.009490e-001
1.025944e+003, 1.948846e-001
1.027873e+003, 1.890280e-001
1.029801e+003, 1.831826e-001
1.031730e+003, 1.774814e-001
1.033658e+003, 1.724961e-001
1.035587e+003, 1.675477e-001
1.037515e+003, 1.626754e-001
1.039444e+003, 1.578855e-001
1.041372e+003, 1.526307e-001
1.043301e+003, 1.470484e-001
1.045229e+003, 1.411674e-001
1.047157e+003, 1.350592e-001
1.049086e+003, 1.294971e-001
1.051014e+003, 1.240642e-001
1.052943e+003, 1.187280e-001
1.054871e+003, 1.137489e-001
1.056800e+003, 1.093128e-001
1.058728e+003, 1.056812e-001
1.060657e+003, 1.027840e-001
1.062585e+003, 1.008755e-001
1.064514e+003, 9.994757e-002
1.066442e+003, 1.000965e-001
1.068371e+003, 1.016516e-001
1.070299e+003, 1.041019e-001
1.072228e+003, 1.079551e-001
1.074156e+003, 1.134769e-001
1.076084e+003, 1.201289e-001
1.078013e+003, 1.279769e-001
1.079941e+003, 1.364228e-001
1.081870e+003, 1.447775e-001
1.083798e+003, 1.524472e-001
1.085727e+003, 1.584738e-001
1.087655e+003, 1.629163e-001
1.089584e+003, 1.652328e-001
1.091512e+003, 1.652240e-001
1.093441e+003, 1.645153e-001
1.095369e+003, 1.637546e-001
1.097298e+003, 1.628057e-001
1.099226e+003, 1.615394e-001
1.101155e+003, 1.588805e-001
1.103083e+003, 1.549738e-001
1.105011e+003, 1.501329e-001
1.106940e+003, 1.447949e-001
1.108868e+003, 1.388988e-001
1.110797e+003, 1.329492e-001
1.112725e+003, 1.267437e-001
1.114654e+003, 1.201990e-001
1.116582e+003, 1.135150e-001
1.118511e+003, 1.064311e-001
1.120439e+003, 9.904486e-002
1.122368e+003, 9.199217e-002
1.124296e+003, 8.508753e-002
1.126225e+003, 7.836555e-002
1.128153e+003, 7.207233e-002
1.130082e+003, 6.608911e-002
1.132010e+003, 6.019718e-002
1.133938e+003, 5.456629e-002
1.135867e+003, 4.946306e-002
1.137795e+003, 4.462288e-002
1.139724e+003, 4.020704e-002
1.141652e+003, 3.602688e-002
1.143581e+003, 3.217831e-002
1.145509e+003, 2.910069e-002
1.147438e+003, 2.667138e-002
1.149366e+003, 2.446582e-002
1.151295e+003, 2.246366e-002
1.153223e+003, 2.082375e-002
1.155152e+003, 1.934789e-002
1.157080e+003, 1.819306e-002
1.159009e+003, 1.710474e-002
1.160937e+003, 1.605173e-002
1.162865e+003, 1.518265e-002
1.164794e+003, 1.419494e-002
1.166722e+003, 1.337299e-002
1.168651e+003, 1.278794e-002
1.170579e+003, 1.223756e-002
1.172508e+003, 1.177795e-002
1.174436e+003, 1.149744e-002
1.176365e+003, 1.110343e-002
1.178293e+003, 1.053481e-002
1.180222e+003, 1.016562e-002
1.182150e+003, 9.902522e-003
1.184079e+003, 9.431964e-003
1.186007e+003, 8.965773e-003
1.187936e+003, 8.663480e-003
1.189864e+003, 8.277265e-003
1.191792e+003, 7.999549e-003
1.193721e+003, 7.699446e-003
1.195649e+003, 7.314458e-003
1.197578e+003, 7.022102e-003
1.199506e+003, 6.751615e-003
1.201435e+003, 6.422544e-003
1.203363e+003, 6.158714e-003
1.205292e+003, 5.819649e-003
1.207220e+003, 5.715962e-003
1.209149e+003, 5.572428e-003
1.211077e+003, 5.264305e-003
1.213006e+003, 5.011601e-003
1.214934e+003, 4.892794e-003
1.216863e+003, 4.829131e-003
1.218791e+003, 4.749666e-003
1.220719e+003, 4.455046e-003
1.222648e+003, 4.204352e-003
1.224576e+003, 4.179127e-003
1.226505e+003, 4.240052e-003
1.228433e+003, 4.125637e-003
1.230362e+003, 3.958919e-003
1.232290e+003, 3.812889e-003
1.234219e+003, 3.517101e-003
1.236147e+003, 3.429559e-003
1.238076e+003, 3.513226e-003
1.240004e+003, 3.561496e-003
1.241933e+003, 3.424583e-003
1.243861e+003, 3.258201e-003
1.245790e+003, 3.203489e-003
1.247718e+003, 3.088112e-003
1.249646e+003, 3.164136e-003
1.251575e+003, 3.291786e-003
1.253503e+003, 3.213836e-003
1.255432e+003, 3.156760e-003
1.257360e+003, 3.277063e-003
1.259289e+003, 3.227088e-003
1.261217e+003, 3.107300e-003
1.263146e+003, 2.974900e-003
1.265074e+003, 3.000523e-003
1.267003e+003, 3.122084e-003
1.268931e+003, 3.092116e-003
1.270860e+003, 3.127958e-003
1.272788e+003, 3.201586e-003
1.274717e+003, 3.307812e-003
1.276645e+003, 3.283439e-003
1.278573e+003, 3.156893e-003
1.280502e+003, 3.235935e-003
1.282430e+003, 3.227422e-003
1.284359e+003, 3.121283e-003
1.286287e+003, 3.104797e-003
1.288216e+003, 3.043531e-003
1.290144e+003, 2.890870e-003
1.292073e+003, 2.940072e-003
1.294001e+003, 3.112005e-003
1.295930e+003, 3.128692e-003
1.297858e+003, 2.977202e-003
1.299787e+003, 2.966927e-003
1.301715e+003, 3.137703e-003
1.303644e+003, 3.284641e-003
1.305572e+003, 3.179423e-003
1.307500e+003, 3.215973e-003
1.309429e+003, 3.546463e-003
1.311357e+003, 3.781937e-003
1.313286e+003, 3.754096e-003
1.315214e+003, 3.672855e-003
1.317143e+003, 3.647761e-003
1.319071e+003, 3.551608e-003
1.321000e+003, 3.557020e-003
1.322928e+003, 3.707141e-003
1.324857e+003, 3.938222e-003
1.326785e+003, 4.006269e-003
1.328714e+003, 4.004363e-003
1.330642e+003, 4.135839e-003
1.332571e+003, 3.962229e-003
1.334499e+003, 3.896730e-003
1.336427e+003, 3.947684e-003
1.338356e+003, 3.898335e-003
1.340284e+003, 3.948654e-003
1.342213e+003, 4.190837e-003
1.344141e+003, 4.193011e-003
1.346070e+003, 4.146243e-003
1.347998e+003, 4.156546e-003
1.349927e+003, 4.146979e-003
1.351855e+003, 4.071752e-003
1.353784e+003, 4.243699e-003
1.355712e+003, 4.248551e-003
1.357641e+003, 4.219308e-003
1.359569e+003, 4.216497e-003
1.361498e+003, 4.540552e-003
1.363426e+003, 4.746986e-003
1.365354e+003, 4.674971e-003
1.367283e+003, 4.662813e-003
1.369211e+003, 4.583344e-003
1.371140e+003, 4.533520e-003
1.373068e+003, 4.629456e-003
1.374997e+003, 4.686258e-003
1.376925e+003, 4.749498e-003
1.378854e+003, 4.918396e-003
1.380782e+003, 4.939207e-003
1.382711e+003, 5.061446e-003
1.384639e+003, 5.164339e-003
1.386568e+003, 5.438436e-003
1.388496e+003, 5.587799e-003
1.390424e+003, 5.408341e-003
1.392353e+003, 5.620525e-003
1.394281e+003, 5.903542e-003
1.396210e+003, 5.923695e-003
1.398138e+003, 5.954430e-003
1.400067e+003, 6.137945e-003
1.401995e+003, 6.335827e-003
1.403924e+003, 6.467540e-003
1.405852e+003, 6.708238e-003
1.407781e+003, 6.935804e-003
1.409709e+003, 6.889177e-003
1.411638e+003, 6.875947e-003
1.413566e+003, 6.941426e-003
1.415495e+003, 7.194278e-003
1.417423e+003, 7.298823e-003
1.419351e+003, 7.146007e-003
1.421280e+003, 7.109731e-003
1.423208e+003, 7.288782e-003
1.425137e+003, 7.491133e-003
1.427065e+003, 7.579632e-003
1.428994e+003, 7.709733e-003
1.430922e+003, 7.776215e-003
1.432851e+003, 7.862647e-003
1.434779e+003, 7.858429e-003
1.436708e+003, 7.888998e-003
1.438636e+003, 8.047476e-003
1.440565e+003, 8.199429e-003
1.442493e+003, 8.309046e-003
1.444422e+003, 8.422473e-003
1.446350e+003, 8.696404e-003
1.448278e+003, 8.791202e-003
1.450207e+003, 8.789037e-003
1.452135e+003, 8.992968e-003
1.454064e+003, 9.218046e-003
1.455992e+003, 9.347623e-003
1.457921e+003, 9.537930e-003
1.459849e+003, 9.568549e-003
1.461778e+003, 9.679427e-003
1.463706e+003, 9.965950e-003
1.465635e+003, 1.034108e-002
1.467563e+003, 1.056486e-002
1.469492e+003, 1.092328e-002
1.471420e+003, 1.158584e-002
1.473349e+003, 1.215670e-002
1.475277e+003, 1.247493e-002
1.477205e+003, 1.268029e-002
1.479134e+003, 1.304429e-002
1.481062e+003, 1.337927e-002
1.482991e+003, 1.381719e-002
1.484919e+003, 1.416499e-002
1.486848e+003, 1.424031e-002
1.488776e+003, 1.452660e-002
1.490705e+003, 1.461254e-002
1.492633e+003, 1.470706e-002
1.494562e+003, 1.490298e-002
1.496490e+003, 1.505461e-002
1.498419e+003, 1.501259e-002
1.500347e+003, 1.487613e-002
1.502276e+003, 1.509783e-002
1.504204e+003, 1.510507e-002
1.506132e+003, 1.470853e-002
1.508061e+003, 1.439482e-002
1.509989e+003, 1.437759e-002
1.511918e+003, 1.418067e-002
1.513846e+003, 1.397008e-002
1.515775e+003, 1.385331e-002
1.517703e+003, 1.380111e-002
1.519632e+003, 1.356182e-002
1.521560e+003, 1.325778e-002
1.523489e+003, 1.313642e-002
1.525417e+003, 1.318858e-002
1.527346e+003, 1.322048e-002
1.529274e+003, 1.336116e-002
1.531203e+003, 1.349954e-002
1.533131e+003, 1.348375e-002
1.535059e+003, 1.352951e-002
1.536988e+003, 1.364719e-002
1.538916e+003, 1.378295e-002
1.540845e+003, 1.390527e-002
1.542773e+003, 1.422808e-002
1.544702e+003, 1.464999e-002
1.546630e+003, 1.498059e-002
1.548559e+003, 1.521452e-002
1.550487e+003, 1.557656e-002
1.552416e+003, 1.584367e-002
1.554344e+003, 1.618925e-002
1.556273e+003, 1.641210e-002
1.558201e+003, 1.681740e-002
1.560130e+003, 1.749030e-002
1.562058e+003, 1.788421e-002
1.563986e+003, 1.810538e-002
1.565915e+003, 1.842649e-002
1.567843e+003, 1.891597e-002
1.569772e+003, 1.942623e-002
1.571700e+003, 1.990230e-002
1.573629e+003, 2.030042e-002
1.575557e+003, 2.060884e-002
1.577486e+003, 2.108924e-002
1.579414e+003, 2.135005e-002
1.581343e+003, 2.138503e-002
1.583271e+003, 2.140407e-002
1.585200e+003, 2.157748e-002
1.587128e+003, 2.156345e-002
1.589057e+003, 2.157731e-002
1.590985e+003, 2.158629e-002
1.592913e+003, 2.134650e-002
1.594842e+003, 2.088880e-002
1.596770e+003, 2.072713e-002
1.598699e+003, 2.059762e-002
1.600627e+003, 2.035775e-002
1.602556e+003, 2.003323e-002
1.604484e+003, 1.981795e-002
1.606413e+003, 1.950680e-002
1.608341e+003, 1.916914e-002
1.610270e+003, 1.902032e-002
1.612198e+003, 1.889693e-002
1.614127e+003, 1.870117e-002
1.616055e+003, 1.854705e-002
1.617984e+003, 1.839379e-002
1.619912e+003, 1.813077e-002
1.621840e+003, 1.787641e-002
1.623769e+003, 1.768866e-002
1.625697e+003, 1.736562e-002
1.627626e+003, 1.704995e-002
1.629554e+003, 1.671395e-002
1.631483e+003, 1.649920e-002
1.633411e+003, 1.645604e-002
1.635340e+003, 1.642025e-002
1.637268e+003, 1.641695e-002
1.639197e+003, 1.643846e-002
1.641125e+003, 1.628384e-002
1.643054e+003, 1.604575e-002
1.644982e+003, 1.572128e-002
1.646911e+003, 1.539115e-002
1.648839e+003, 1.516700e-002
1.650767e+003, 1.505787e-002
1.652696e+003, 1.482800e-002
1.654624e+003, 1.462199e-002
1.656553e+003, 1.438646e-002
1.658481e+003, 1.418536e-002
1.660410e+003, 1.403999e-002
1.662338e+003, 1.395499e-002
1.664267e+003, 1.372105e-002
1.666195e+003, 1.362226e-002
1.668124e+003, 1.336427e-002
1.670052e+003, 1.321074e-002
1.671981e+003, 1.303005e-002
1.673909e+003, 1.281753e-002
1.675838e+003, 1.253516e-002
1.677766e+003, 1.237343e-002
1.679694e+003, 1.218266e-002
1.681623e+003, 1.192045e-002
1.683551e+003, 1.174806e-002
1.685480e+003, 1.187543e-002
1.687408e+003, 1.164169e-002
1.689337e+003, 1.135226e-002
1.691265e+003, 1.133903e-002
1.693194e+003, 1.126880e-002
1.695122e+003, 1.094631e-002
1.697051e+003, 1.082149e-002
1.698979e+003, 1.061100e-002
1.700908e+003, 1.024228e-002
1.702836e+003, 1.011573e-002
1.704765e+003, 9.832595e-003
1.706693e+003, 9.531867e-003
1.708621e+003, 9.370374e-003
1.710550e+003, 9.199940e-003
1.712478e+003, 9.019862e-003
1.714407e+003, 9.005113e-003
1.716335e+003, 9.123798e-003
1.718264e+003, 9.062286e-003
1.720192e+003, 9.149211e-003
1.722121e+003, 9.146707e-003
1.724049e+003, 9.105594e-003
1.725978e+003, 9.129212e-003
1.727906e+003, 9.000748e-003
1.729835e+003, 8.650365e-003
1.731763e+003, 8.565805e-003
1.733692e+003, 8.344510e-003
1.735620e+003, 7.812682e-003
1.737548e+003, 7.328375e-003
1.739477e+003, 7.263680e-003
1.741405e+003, 7.218265e-003
1.743334e+003, 7.027288e-003
1.745262e+003, 7.082551e-003
1.747191e+003, 7.214054e-003
1.749119e+003, 7.351998e-003
1.751048e+003, 7.566213e-003
1.752976e+003, 7.541634e-003
1.754905e+003, 7.495448e-003
1.756833e+003, 7.701605e-003
1.758762e+003, 8.114652e-003
1.760690e+003, 8.101149e-003
1.762619e+003, 8.027765e-003
1.764547e+003, 8.185687e-003
1.766475e+003, 8.056523e-003
1.768404e+003, 7.982607e-003
1.770332e+003, 7.933573e-003
1.772261e+003, 7.806710e-003
1.774189e+003, 7.885388e-003
1.776118e+003, 7.887075e-003
1.778046e+003, 7.701875e-003
1.779975e+003, 7.662888e-003
1.781903e+003, 7.772504e-003
1.783832e+003, 7.442458e-003
1.785760e+003, 7.291073e-003
1.787689e+003, 7.484087e-003
1.789617e+003, 7.424829e-003
1.791546e+003, 7.435784e-003
1.793474e+003, 7.509877e-003
1.795402e+003, 7.337946e-003
1.797331e+003, 7.176256e-003
1.799259e+003, 7.214761e-003
1.801188e+003, 7.171675e-003
1.803116e+003, 6.976914e-003
1.805045e+003, 6.985534e-003
1.806973e+003, 6.810040e-003
1.808902e+003, 6.428732e-003
1.810830e+003, 6.475881e-003
1.812759e+003, 6.692254e-003
1.814687e+003, 6.415852e-003
1.816616e+003, 6.166444e-003
1.818544e+003, 6.136668e-003
1.820473e+003, 6.364473e-003
1.822401e+003, 6.451969e-003
1.824329e+003, 6.502484e-003
1.826258e+003, 6.207851e-003
1.828186e+003, 6.010968e-003
1.830115e+003, 5.968337e-003
1.832043e+003, 6.389893e-003
1.833972e+003, 6.628327e-003
1.835900e+003, 6.467876e-003
1.837829e+003, 6.397458e-003
1.839757e+003, 6.331523e-003
1.841686e+003, 6.449211e-003
1.843614e+003, 6.348334e-003
1.845543e+003, 6.217632e-003
1.847471e+003, 6.286978e-003
1.849400e+003, 6.064926e-003
1.851328e+003, 5.786740e-003
1.853256e+003, 5.834088e-003
1.855185e+003, 6.009893e-003
1.857113e+003, 6.020644e-003
1.859042e+003, 6.030185e-003
1.860970e+003, 5.876203e-003
1.862899e+003, 5.637174e-003
1.864827e+003, 5.462124e-003
1.866756e+003, 5.215576e-003
1.868684e+003, 5.479438e-003
1.870613e+003, 5.599849e-003
1.872541e+003, 5.391366e-003
1.874470e+003, 5.470882e-003
1.876398e+003, 5.309483e-003
1.878327e+003, 4.967292e-003
1.880255e+003, 5.326556e-003
1.882183e+003, 5.759072e-003
1.884112e+003, 5.514638e-003
1.886040e+003, 5.459574e-003
1.887969e+003, 5.686285e-003
1.889897e+003, 5.649392e-003
1.891826e+003, 5.239822e-003
1.893754e+003, 5.479941e-003
1.895683e+003, 6.041071e-003
1.897611e+003, 5.479270e-003
1.899540e+003, 4.999903e-003
1.901468e+003, 5.231405e-003
1.903397e+003, 5.308443e-003
1.905325e+003, 5.312334e-003
1.907254e+003, 5.433839e-003
1.909182e+003, 5.676281e-003
1.911110e+003, 5.466922e-003
1.913039e+003, 4.967459e-003
1.914967e+003, 4.927679e-003
1.916896e+003, 4.817036e-003
1.918824e+003, 4.250424e-003
1.920753e+003, 4.080581e-003
1.922681e+003, 4.041584e-003
1.924610e+003, 3.982660e-003
1.926538e+003, 3.865003e-003
1.928467e+003, 4.258890e-003
1.930395e+003, 5.012004e-003
1.932324e+003, 4.916855e-003
1.934252e+003, 4.084328e-003
1.936181e+003, 2.958954e-003
1.938109e+003, 2.888602e-003
1.940037e+003, 3.151286e-003
1.941966e+003, 3.403878e-003
1.943894e+003, 3.817803e-003
1.945823e+003, 3.238204e-003
1.947751e+003, 2.092411e-003
1.949680e+003, 2.217581e-003
1.951608e+003, 2.376102e-003
1.953537e+003, 2.327031e-003
1.955465e+003, 2.450569e-003
1.957394e+003, 1.826539e-003
1.959322e+003, 1.424314e-003
1.961251e+003, 8.523143e-004
1.963179e+003, 6.719145e-004
1.965108e+003, 1.464672e-003
1.967036e+003, 2.206691e-003
1.968964e+003, 1.533763e-003
1.970893e+003, 1.134658e-004
1.972821e+003, -7.053807e-004
1.974750e+003, -1.555365e-004
1.976678e+003, 1.218024e-003
1.978607e+003, 2.765472e-003
1.980535e+003, 2.914953e-003
1.982464e+003, 2.057620e-003
1.984392e+003, 1.949736e-003
1.986321e+003, 2.065210e-003
1.988249e+003, 2.203993e-003
1.990178e+003, 2.257248e-003
1.992106e+003, 1.760862e-003
1.994035e+003, 9.989465e-004
1.995963e+003, 8.293744e-004
1.997891e+003, 1.399515e-003
1.999820e+003, 2.154142e-003
2.001748e+003, 6.158350e-004
2.003677e+003, -5.517288e-004
2.005605e+003, -1.687520e-004
2.007534e+003, 1.520230e-003
2.009462e+003, 2.930965e-003
2.011391e+003, 3.194309e-003
2.013319e+003, 1.725166e-003
2.015248e+003, 4.282366e-004
2.017176e+003, 1.708500e-003
2.019105e+003, 2.692885e-003
2.021033e+003, 2.087883e-003
2.022962e+003, 1.836621e-003
2.024890e+003, 2.185944e-003
2.026818e+003, 2.787848e-003
2.028747e+003, 2.088748e-003
2.030675e+003, 1.713623e-003
2.032604e+003, 1.444027e-003
2.034532e+003, 1.433223e-003
2.036461e+003, 2.213385e-003
2.038389e+003, 3.102394e-003
2.040318e+003, 3.400171e-003
2.042246e+003, 2.382066e-003
2.044175e+003, 1.866103e-003
2.046103e+003, 3.268516e-003
2.048032e+003, 4.230550e-003
2.049960e+003, 4.232156e-003
2.051889e+003, 3.522846e-003
2.053817e+003, 3.938389e-003
2.055746e+003, 4.817807e-003
2.057674e+003, 4.362061e-003
2.059603e+003, 3.558456e-003
2.061531e+003, 3.676331e-003
2.063459e+003, 4.474095e-003
2.065388e+003, 4.859487e-003
2.067316e+003, 4.777034e-003
2.069245e+003, 5.051524e-003
2.071173e+003, 5.624318e-003
2.073102e+003, 5.502356e-003
2.075030e+003, 5.251292e-003
2.076959e+003, 4.981737e-003
2.078887e+003, 5.045859e-003
2.080816e+003, 5.944084e-003
2.082744e+003, 5.827070e-003
2.084673e+003, 5.461520e-003
2.086601e+003, 5.488867e-003
2.088530e+003, 5.034428e-003
2.090458e+003, 5.357853e-003
2.092386e+003, 5.854641e-003
2.094315e+003, 5.903844e-003
2.096243e+003, 5.450112e-003
2.098172e+003, 5.403678e-003
2.100100e+003, 5.183787e-003
2.102029e+003, 5.684707e-003
2.103957e+003, 6.440098e-003
2.105886e+003, 7.000080e-003
2.107814e+003, 6.683573e-003
2.109743e+003, 5.620324e-003
2.111671e+003, 5.788822e-003
2.113600e+003, 6.395105e-003
2.115528e+003, 6.487215e-003
2.117457e+003, 6.224892e-003
2.119385e+003, 6.139323e-003
2.121313e+003, 6.079576e-003
2.123242e+003, 5.860955e-003
2.125170e+003, 5.905692e-003
2.127099e+003, 5.823073e-003
2.129027e+003, 5.244149e-003
2.130956e+003, 4.595433e-003
2.132884e+003, 4.811307e-003
2.134813e+003, 5.009021e-003
2.136741e+003, 4.850809e-003
2.138670e+003, 5.038551e-003
2.140598e+003, 5.088030e-003
2.142527e+003, 4.542996e-003
2.144455e+003, 4.602900e-003
2.146384e+003, 4.611339e-003
2.148312e+003, 4.402593e-003
2.150240e+003, 4.553041e-003
2.152169e+003, 4.015465e-003
2.154097e+003, 3.292187e-003
2.156026e+003, 2.079227e-003
2.157954e+003, 2.925928e-003
2.159883e+003, 5.537626e-003
2.161811e+003, 5.903407e-003
2.163740e+003, 5.158337e-003
2.165668e+003, 3.985770e-003
2.167597e+003, 3.648229e-003
2.169525e+003, 4.085833e-003
2.171454e+003, 5.564239e-003
2.173382e+003, 6.781937e-003
2.175311e+003, 5.925677e-003
2.177239e+003, 5.034260e-003
2.179167e+003, 4.449724e-003
2.181096e+003, 4.861497e-003
2.183024e+003, 5.390997e-003
2.184953e+003, 5.139427e-003
2.186881e+003, 6.157538e-003
2.188810e+003, 7.506067e-003
2.190738e+003, 7.451862e-003
2.192667e+003, 6.590816e-003
2.194595e+003, 5.463768e-003
2.196524e+003, 6.027834e-003
2.198452e+003, 7.195053e-003
2.200381e+003, 7.285480e-003
2.202309e+003, 7.442761e-003
2.204238e+003, 6.620387e-003
2.206166e+003, 6.502484e-003
2.208094e+003, 8.013589e-003
2.210023e+003, 8.590846e-003
2.211951e+003, 8.158305e-003
2.213880e+003, 7.641879e-003
2.215808e+003, 7.271733e-003
2.217737e+003, 7.755504e-003
2.219665e+003, 8.251972e-003
2.221594e+003, 8.162288e-003
2.223522e+003, 8.272031e-003
2.225451e+003, 8.658444e-003
2.227379e+003, 8.339713e-003
2.229308e+003, 8.227692e-003
2.231236e+003, 8.668685e-003
2.233165e+003, 9.255988e-003
2.235093e+003, 9.737028e-003
2.237021e+003, 9.697384e-003
2.238950e+003, 9.554018e-003
2.240878e+003, 9.888963e-003
2.242807e+003, 1.083824e-002
2.244735e+003, 1.080960e-002
2.246664e+003, 9.783182e-003
2.248592e+003, 9.097406e-003
2.250521e+003, 9.617870e-003
2.252449e+003, 1.010223e-002
2.254378e+003, 1.008978e-002
2.256306e+003, 1.070271e-002
2.258235e+003, 1.139716e-002
2.260163e+003, 1.129312e-002
2.262092e+003, 1.103093e-002
2.264020e+003, 1.109966e-002
2.265948e+003, 1.201902e-002
2.267877e+003, 1.251268e-002
2.269805e+003, 1.254406e-002
2.271734e+003, 1.271486e-002
2.273662e+003, 1.310545e-002
2.275591e+003, 1.306116e-002
2.277519e+003, 1.342862e-002
2.279448e+003, 1.408362e-002
2.281376e+003, 1.446822e-002
2.283305e+003, 1.453445e-002
2.285233e+003, 1.465136e-002
2.287162e+003, 1.472491e-002
2.289090e+003, 1.468358e-002
2.291019e+003, 1.456891e-002
2.292947e+003, 1.459156e-002
2.294875e+003, 1.517853e-002
2.296804e+003, 1.569359e-002
2.298732e+003, 1.545930e-002
2.300661e+003, 1.531391e-002
2.302589e+003, 1.579673e-002
2.304518e+003, 1.559264e-002
2.306446e+003, 1.536979e-002
2.308375e+003, 1.569617e-002
2.310303e+003, 1.586838e-002
2.312232e+003, 1.624225e-002
2.314160e+003, 1.663369e-002
2.316089e+003, 1.657651e-002
2.318017e+003, 1.625969e-002
2.319946e+003, 1.595132e-002
2.321874e+003, 1.609554e-002
2.323802e+003, 1.645332e-002
2.325731e+003, 1.638454e-002
2.327659e+003, 1.612700e-002
2.329588e+003, 1.589605e-002
2.331516e+003, 1.601890e-002
2.333445e+003, 1.631972e-002
2.335373e+003, 1.663100e-002
2.337302e+003, 1.645391e-002
2.339230e+003, 1.617463e-002
2.341159e+003, 1.614953e-002
2.343087e+003, 1.625305e-002
2.345016e+003, 1.654880e-002
2.346944e+003, 1.626210e-002
2.348873e+003, 1.591756e-002
2.350801e+003, 1.623919e-002
2.352729e+003, 1.609554e-002
2.354658e+003, 1.576653e-002
2.356586e+003, 1.573114e-002
2.358515e+003, 1.580161e-002
2.360443e+003, 1.590849e-002
2.362372e+003, 1.582893e-002
2.364300e+003, 1.565409e-002
2.366229e+003, 1.532345e-002
2.368157e+003, 1.517369e-002
2.370086e+003, 1.520759e-002
2.372014e+003, 1.519816e-002
2.373942e+003, 1.541147e-002
2.375871e+003, 1.594482e-002
2.377799e+003, 1.608993e-002
2.379728e+003, 1.576594e-002
2.381656e+003, 1.548223e-002
2.383585e+003, 1.548556e-002
2.385513e+003, 1.558752e-002
2.387442e+003, 1.550812e-002
2.389370e+003, 1.536568e-002
2.391299e+003, 1.521319e-002
2.393227e+003, 1.518790e-002
2.395156e+003, 1.449700e-002
2.397084e+003, 1.432913e-002
2.399012e+003, 1.454281e-002
2.400941e+003, 1.443962e-002
2.402869e+003, 1.464759e-002
2.404798e+003, 1.478298e-002
2.406726e+003, 1.480599e-002
2.408655e+003, 1.490895e-002
2.410583e+003, 1.517074e-002
2.412512e+003, 1.499815e-002
2.414440e+003, 1.472543e-002
2.416369e+003, 1.452335e-002
2.418297e+003, 1.447507e-002
2.420226e+003, 1.493765e-002
2.422154e+003, 1.525265e-002
2.424083e+003, 1.523038e-002
2.426011e+003, 1.516789e-002
2.427939e+003, 1.511526e-002
2.429868e+003, 1.480191e-002
2.431796e+003, 1.469297e-002
2.433725e+003, 1.458951e-002
2.435653e+003, 1.451221e-002
2.437582e+003, 1.476012e-002
2.439510e+003, 1.512089e-002
2.441439e+003, 1.535586e-002
2.443367e+003, 1.535902e-002
2.445296e+003, 1.477290e-002
2.447224e+003, 1.502384e-002
2.449153e+003, 1.504377e-002
2.451081e+003, 1.474061e-002
2.453010e+003, 1.480780e-002
2.454938e+003, 1.503636e-002
2.456866e+003, 1.483557e-002
2.458795e+003, 1.476372e-002
2.460723e+003, 1.507739e-002
2.462652e+003, 1.486485e-002
2.464580e+003, 1.448871e-002
2.466509e+003, 1.479285e-002
2.468437e+003, 1.518093e-002
2.470366e+003, 1.468461e-002
2.472294e+003, 1.455654e-002
2.474223e+003, 1.536801e-002
2.476151e+003, 1.546472e-002
2.478080e+003, 1.558220e-002
2.480008e+003, 1.553824e-002
2.481937e+003, 1.546997e-002
2.483865e+003, 1.561486e-002
2.485793e+003, 1.529195e-002
2.487722e+003, 1.496920e-002
2.489650e+003, 1.511879e-002
2.491579e+003, 1.563317e-002
2.493507e+003, 1.599061e-002
2.495436e+003, 1.575859e-002
2.497364e+003, 1.532445e-002
2.499293e+003, 1.532654e-002
2.501221e+003, 1.594369e-002
2.503150e+003, 1.644723e-002
2.505078e+003, 1.616841e-002
2.507007e+003, 1.566755e-002
2.508935e+003, 1.551375e-002
2.510864e+003, 1.572520e-002
2.512792e+003, 1.574942e-002
2.514720e+003, 1.598043e-002
2.516649e+003, 1.629172e-002
2.518577e+003, 1.648667e-002
2.520506e+003, 1.663155e-002
2.522434e+003, 1.653276e-002
2.524363e+003, 1.634497e-002
2.526291e+003, 1.661968e-002
2.528220e+003, 1.658412e-002
2.530148e+003, 1.700656e-002
2.532077e+003, 1.708799e-002
2.534005e+003, 1.662456e-002
2.535934e+003, 1.654295e-002
2.537862e+003, 1.651699e-002
2.539791e+003, 1.647614e-002
2.541719e+003, 1.658167e-002
2.543647e+003, 1.672200e-002
2.545576e+003, 1.683806e-002
2.547504e+003, 1.719509e-002
2.549433e+003, 1.745501e-002
2.551361e+003, 1.718043e-002
2.553290e+003, 1.690699e-002
2.555218e+003, 1.721198e-002
2.557147e+003, 1.726710e-002
2.559075e+003, 1.685570e-002
2.561004e+003, 1.705691e-002
2.562932e+003, 1.764163e-002
2.564861e+003, 1.783502e-002
2.566789e+003, 1.764442e-002
2.568718e+003, 1.778455e-002
2.570646e+003, 1.798245e-002
2.572574e+003, 1.781109e-002
2.574503e+003, 1.752204e-002
2.576431e+003, 1.752228e-002
2.578360e+003, 1.788200e-002
2.580288e+003, 1.839486e-002
2.582217e+003, 1.866014e-002
2.584145e+003, 1.829960e-002
2.586074e+003, 1.782255e-002
2.588002e+003, 1.783750e-002
2.589931e+003, 1.820775e-002
2.591859e+003, 1.846282e-002
2.593788e+003, 1.828343e-002
2.595716e+003, 1.842538e-002
2.597645e+003, 1.864171e-002
2.599573e+003, 1.869521e-002
2.601501e+003, 1.842369e-002
2.603430e+003, 1.848630e-002
2.605358e+003, 1.873531e-002
2.607287e+003, 1.861878e-002
2.609215e+003, 1.884312e-002
2.611144e+003, 1.927768e-002
2.613072e+003, 1.932753e-002
2.615001e+003, 1.917575e-002
2.616929e+003, 1.897010e-002
2.618858e+003, 1.913828e-002
2.620786e+003, 1.928783e-002
2.622715e+003, 1.930785e-002
2.624643e+003, 1.910608e-002
2.626572e+003, 1.946844e-002
2.628500e+003, 1.993630e-002
2.630428e+003, 1.971454e-002
2.632357e+003, 1.970785e-002
2.634285e+003, 1.989096e-002
2.636214e+003, 2.011475e-002
2.638142e+003, 1.999909e-002
2.640071e+003, 1.996360e-002
2.641999e+003, 2.000863e-002
2.643928e+003, 2.005905e-002
2.645856e+003, 2.020773e-002
2.647785e+003, 2.037719e-002
2.649713e+003, 2.064529e-002
2.651642e+003, 2.070610e-002
2.653570e+003, 2.069147e-002
2.655499e+003, 2.074614e-002
2.657427e+003, 2.072810e-002
2.659355e+003, 2.067177e-002
2.661284e+003, 2.034105e-002
2.663212e+003, 2.026675e-002
2.665141e+003, 2.054995e-002
2.667069e+003, 2.104083e-002
2.668998e+003, 2.135802e-002
2.670926e+003, 2.132311e-002
2.672855e+003, 2.126385e-002
2.674783e+003, 2.122898e-002
2.676712e+003, 2.100539e-002
2.678640e+003, 2.099287e-002
2.680569e+003, 2.148751e-002
2.682497e+003, 2.172665e-002
2.684426e+003, 2.191726e-002
2.686354e+003, 2.205292e-002
2.688282e+003, 2.194358e-002
2.690211e+003, 2.189399e-002
2.692139e+003, 2.192406e-002
2.694068e+003, 2.206484e-002
2.695996e+003, 2.240728e-002
2.697925e+003, 2.263676e-002
2.699853e+003, 2.249367e-002
2.701782e+003, 2.243086e-002
2.703710e+003, 2.254082e-002
2.705639e+003, 2.280423e-002
2.707567e+003, 2.291118e-002
2.709496e+003, 2.289522e-002
2.711424e+003, 2.302447e-002
2.713353e+003, 2.354801e-002
2.715281e+003, 2.364827e-002
2.717209e+003, 2.352212e-002
2.719138e+003, 2.333602e-002
2.721066e+003, 2.362112e-002
2.722995e+003, 2.384083e-002
2.724923e+003, 2.404022e-002
2.726852e+003, 2.421516e-002
2.728780e+003, 2.406070e-002
2.730709e+003, 2.418422e-002
2.732637e+003, 2.446158e-002
2.734566e+003, 2.443345e-002
2.736494e+003, 2.451820e-002
2.738423e+003, 2.498916e-002
2.740351e+003, 2.498345e-002
2.742280e+003, 2.459144e-002
2.744208e+003, 2.458738e-002
2.746136e+003, 2.490913e-002
2.748065e+003, 2.526719e-002
2.749993e+003, 2.553290e-002
2.751922e+003, 2.567037e-002
2.753850e+003, 2.576831e-002
2.755779e+003, 2.583412e-002
2.757707e+003, 2.597111e-002
2.759636e+003, 2.585518e-002
2.761564e+003, 2.629896e-002
2.763493e+003, 2.652187e-002
2.765421e+003, 2.645992e-002
2.767350e+003, 2.635081e-002
2.769278e+003, 2.643162e-002
2.771207e+003, 2.673513e-002
2.773135e+003, 2.680395e-002
2.775063e+003, 2.678646e-002
2.776992e+003, 2.704348e-002
2.778920e+003, 2.720109e-002
2.780849e+003, 2.738961e-002
2.782777e+003, 2.747458e-002
2.784706e+003, 2.739451e-002
2.786634e+003, 2.732326e-002
2.788563e+003, 2.716806e-002
2.790491e+003, 2.753714e-002
2.792420e+003, 2.801443e-002
2.794348e+003, 2.812945e-002
2.796277e+003, 2.803441e-002
2.798205e+003, 2.808857e-002
2.800134e+003, 2.833173e-002
2.802062e+003, 2.858028e-002
2.803990e+003, 2.874395e-002
2.805919e+003, 2.905452e-002
2.807847e+003, 2.922730e-002
2.809776e+003, 2.903133e-002
2.811704e+003, 2.866847e-002
2.813633e+003, 2.868647e-002
2.815561e+003, 2.868160e-002
2.817490e+003, 2.919333e-002
2.819418e+003, 2.930676e-002
2.821347e+003, 2.916515e-002
2.823275e+003, 2.925707e-002
2.825204e+003, 2.951256e-002
2.827132e+003, 2.930736e-002
2.829061e+003, 2.933959e-002
2.830989e+003, 2.947259e-002
2.832917e+003, 2.944546e-002
2.834846e+003, 2.965691e-002
2.836774e+003, 2.984048e-002
2.838703e+003, 3.002724e-002
2.840631e+003, 2.988461e-002
2.842560e+003, 2.992694e-002
2.844488e+003, 3.016584e-002
2.846417e+003, 3.047594e-002
2.848345e+003, 3.090330e-002
2.850274e+003, 3.095817e-002
2.852202e+003, 3.052702e-002
2.854131e+003, 3.041092e-002
2.856059e+003, 3.048087e-002
2.857988e+003, 3.096082e-002
2.859916e+003, 3.102891e-002
2.861844e+003, 3.091006e-002
2.863773e+003, 3.104088e-002
2.865701e+003, 3.122739e-002
2.867630e+003, 3.114492e-002
2.869558e+003, 3.085889e-002
2.871487e+003, 3.097265e-002
2.873415e+003, 3.122319e-002
2.875344e+003, 3.122226e-002
2.877272e+003, 3.156994e-002
2.879201e+003, 3.192172e-002
2.881129e+003, 3.182050e-002
2.883058e+003, 3.150567e-002
2.884986e+003, 3.170672e-002
2.886915e+003, 3.216381e-002
2.888843e+003, 3.241515e-002
2.890771e+003, 3.252107e-002
2.892700e+003, 3.288205e-002
2.894628e+003, 3.300501e-002
2.896557e+003, 3.241261e-002
2.898485e+003, 3.211905e-002
2.900414e+003, 3.243639e-002
2.902342e+003, 3.264857e-002
2.904271e+003, 3.269043e-002
2.906199e+003, 3.296194e-002
2.908128e+003, 3.311350e-002
2.910056e+003, 3.285195e-002
2.911985e+003, 3.308675e-002
2.913913e+003, 3.338521e-002
2.915842e+003, 3.313852e-002
2.917770e+003, 3.303586e-002
2.919698e+003, 3.336201e-002
2.921627e+003, 3.365368e-002
2.923555e+003, 3.369826e-002
2.925484e+003, 3.372279e-002
2.927412e+003, 3.358913e-002
2.929341e+003, 3.373193e-002
2.931269e+003, 3.358213e-002
2.933198e+003, 3.363622e-002
2.935126e+003, 3.397474e-002
2.937055e+003, 3.381563e-002
2.938983e+003, 3.374724e-002
2.940912e+003, 3.412200e-002
2.942840e+003, 3.430406e-002
2.944769e+003, 3.405200e-002
2.946697e+003, 3.351652e-002
2.948625e+003, 3.342647e-002
2.950554e+003, 3.368676e-002
2.952482e+003, 3.374353e-002
2.954411e+003, 3.415529e-002
2.956339e+003, 3.442346e-002
2.958268e+003, 3.493927e-002
2.960196e+003, 3.535486e-002
2.962125e+003, 3.532504e-002
2.964053e+003, 3.520638e-002
2.965982e+003, 3.488506e-002
2.967910e+003, 3.490574e-002
2.969839e+003, 3.500146e-002
2.971767e+003, 3.492326e-002
2.973696e+003, 3.491509e-002
2.975624e+003, 3.523701e-002
2.977552e+003, 3.592068e-002
2.979481e+003, 3.606226e-002
2.981409e+003, 3.549543e-002
2.983338e+003, 3.565429e-002
2.985266e+003, 3.626694e-002
2.987195e+003, 3.631774e-002
2.989123e+003, 3.615681e-002
2.991052e+003, 3.618002e-002
2.992980e+003, 3.619322e-002
2.994909e+003, 3.602620e-002
2.996837e+003, 3.592803e-002
2.998766e+003, 3.599909e-002
3.000694e+003, 3.631877e-002
3.002623e+003, 3.640553e-002
3.004551e+003, 3.657045e-002
3.006479e+003, 3.653282e-002
3.008408e+003, 3.687363e-002
3.010336e+003, 3.686311e-002
3.012265e+003, 3.628400e-002
3.014193e+003, 3.596956e-002
3.016122e+003, 3.621945e-002
3.018050e+003, 3.616498e-002
3.019979e+003, 3.621379e-002
3.021907e+003, 3.656991e-002
3.023836e+003, 3.635088e-002
3.025764e+003, 3.626506e-002
3.027693e+003, 3.610995e-002
3.029621e+003, 3.615674e-002
3.031550e+003, 3.566362e-002
3.033478e+003, 3.500060e-002
3.035406e+003, 3.491933e-002
3.037335e+003, 3.503028e-002
3.039263e+003, 3.477081e-002
3.041192e+003, 3.458038e-002
3.043120e+003, 3.505166e-002
3.045049e+003, 3.513829e-002
3.046977e+003, 3.515410e-002
3.048906e+003, 3.494140e-002
3.050834e+003, 3.448439e-002
3.052763e+003, 3.469465e-002
3.054691e+003, 3.432207e-002
3.056620e+003, 3.377901e-002
3.058548e+003, 3.330989e-002
3.060477e+003, 3.309499e-002
3.062405e+003, 3.303477e-002
3.064333e+003, 3.246867e-002
3.066262e+003, 3.216248e-002
3.068190e+003, 3.233531e-002
3.070119e+003, 3.197577e-002
3.072047e+003, 3.158916e-002
3.073976e+003, 3.162579e-002
3.075904e+003, 3.149128e-002
3.077833e+003, 3.118568e-002
3.079761e+003, 3.081835e-002
3.081690e+003, 3.063804e-002
3.083618e+003, 3.053276e-002
3.085547e+003, 3.054101e-002
3.087475e+003, 3.024793e-002
3.089404e+003, 3.003500e-002
3.091332e+003, 2.964808e-002
3.093260e+003, 2.905652e-002
3.095189e+003, 2.926719e-002
3.097117e+003, 2.914669e-002
3.099046e+003, 2.863529e-002
3.100974e+003, 2.896807e-002
3.102903e+003, 2.909282e-002
3.104831e+003, 2.826236e-002
3.106760e+003, 2.798652e-002
3.108688e+003, 2.742994e-002
3.110617e+003, 2.682001e-002
3.112545e+003, 2.728331e-002
3.114474e+003, 2.713863e-002
3.116402e+003, 2.634978e-002
3.118331e+003, 2.631062e-002
3.120259e+003, 2.611843e-002
3.122188e+003, 2.570571e-002
3.124116e+003, 2.598366e-002
3.126044e+003, 2.622606e-002
3.127973e+003, 2.578179e-002
3.129901e+003, 2.559979e-002
3.131830e+003, 2.588566e-002
3.133758e+003, 2.530046e-002
3.135687e+003, 2.471350e-002
3.137615e+003, 2.433196e-002
3.139544e+003, 2.357043e-002
3.141472e+003, 2.303758e-002
3.143401e+003, 2.304942e-002
3.145329e+003, 2.298712e-002
3.147258e+003, 2.282971e-002
3.149186e+003, 2.271971e-002
3.151115e+003, 2.240093e-002
3.153043e+003, 2.206861e-002
3.154971e+003, 2.232941e-002
3.156900e+003, 2.255607e-002
3.158828e+003, 2.219420e-002
3.160757e+003, 2.221219e-002
3.162685e+003, 2.170871e-002
3.164614e+003, 2.125352e-002
3.166542e+003, 2.139669e-002
3.168471e+003, 2.125059e-002
3.170399e+003, 2.106388e-002
3.172328e+003, 2.014505e-002
3.174256e+003, 2.002480e-002
3.176185e+003, 2.059401e-002
3.178113e+003, 2.049142e-002
3.180042e+003, 2.011534e-002
3.181970e+003, 1.955223e-002
3.183898e+003, 1.946386e-002
3.185827e+003, 1.964735e-002
3.187755e+003, 1.968798e-002
3.189684e+003, 1.998421e-002
3.191612e+003, 1.956690e-002
3.193541e+003, 1.899350e-002
3.195469e+003, 1.903289e-002
3.197398e+003, 1.935572e-002
3.199326e+003, 1.904923e-002
3.201255e+003, 1.872908e-002
3.203183e+003, 1.841328e-002
3.205112e+003, 1.856299e-002
3.207040e+003, 1.867588e-002
3.208969e+003, 1.814383e-002
3.210897e+003, 1.769246e-002
3.212825e+003, 1.707211e-002
3.214754e+003, 1.704788e-002
3.216682e+003, 1.728448e-002
3.218611e+003, 1.775728e-002
3.220539e+003, 1.798829e-002
3.222468e+003, 1.745129e-002
3.224396e+003, 1.718822e-002
3.226325e+003, 1.718378e-002
3.228253e+003, 1.702351e-002
3.230182e+003, 1.691461e-002
3.232110e+003, 1.682501e-002
3.234039e+003, 1.637415e-002
3.235967e+003, 1.630964e-002
3.237896e+003, 1.630861e-002
3.239824e+003, 1.633403e-002
3.241752e+003, 1.580577e-002
3.243681e+003, 1.518282e-002
3.245609e+003, 1.517726e-002
3.247538e+003, 1.518875e-002
3.249466e+003, 1.510102e-002
3.251395e+003, 1.526442e-002
3.253323e+003, 1.541054e-002
3.255252e+003, 1.500446e-002
3.257180e+003, 1.479752e-002
3.259109e+003, 1.440574e-002
3.261037e+003, 1.381927e-002
3.262966e+003, 1.410478e-002
3.264894e+003, 1.479652e-002
3.266823e+003, 1.476982e-002
3.268751e+003, 1.438204e-002
3.270679e+003, 1.402640e-002
3.272608e+003, 1.371233e-002
3.274536e+003, 1.360541e-002
3.276465e+003, 1.390024e-002
3.278393e+003, 1.433814e-002
3.280322e+003, 1.374047e-002
3.282250e+003, 1.317870e-002
3.284179e+003, 1.342858e-002
3.286107e+003, 1.296816e-002
3.288036e+003, 1.243425e-002
3.289964e+003, 1.258659e-002
3.291893e+003, 1.267177e-002
3.293821e+003, 1.227631e-002
3.295750e+003, 1.208712e-002
3.297678e+003, 1.197157e-002
3.299606e+003, 1.190639e-002
3.301535e+003, 1.177577e-002
3.303463e+003, 1.198516e-002
3.305392e+003, 1.180114e-002
3.307320e+003, 1.182381e-002
3.309249e+003, 1.171218e-002
3.311177e+003, 1.180205e-002
3.313106e+003, 1.206607e-002
3.315034e+003, 1.175749e-002
3.316963e+003, 1.156573e-002
3.318891e+003, 1.162583e-002
3.320820e+003, 1.117713e-002
3.322748e+003, 1.096473e-002
3.324677e+003, 1.067595e-002
3.326605e+003, 1.060611e-002
3.328533e+003, 1.122844e-002
3.330462e+003, 1.113729e-002
3.332390e+003, 1.014113e-002
3.334319e+003, 9.677631e-003
3.336247e+003, 9.111786e-003
3.338176e+003, 9.363231e-003
3.340104e+003, 1.002586e-002
3.342033e+003, 1.029884e-002
3.343961e+003, 9.688676e-003
3.345890e+003, 8.980250e-003
3.347818e+003, 8.721894e-003
3.349747e+003, 8.548435e-003
3.351675e+003, 8.700765e-003
3.353604e+003, 8.709115e-003
3.355532e+003, 8.675514e-003
3.357460e+003, 8.768278e-003
3.359389e+003, 8.448454e-003
3.361317e+003, 8.154962e-003
3.363246e+003, 8.161174e-003
3.365174e+003, 8.498458e-003
3.367103e+003, 8.512718e-003
3.369031e+003, 8.413285e-003
3.370960e+003, 8.541981e-003
3.372888e+003, 8.724767e-003
3.374817e+003, 8.399671e-003
3.376745e+003, 7.831136e-003
3.378674e+003, 7.637596e-003
3.380602e+003, 7.636618e-003
3.382531e+003, 8.456292e-003
3.384459e+003, 8.918216e-003
3.386387e+003, 8.634378e-003
3.388316e+003, 8.526369e-003
3.390244e+003, 8.240760e-003
3.392173e+003, 7.832417e-003
3.394101e+003, 7.515169e-003
3.396030e+003, 7.176795e-003
3.397958e+003, 6.976341e-003
3.399887e+003, 6.904427e-003
3.401815e+003, 7.097134e-003
3.403744e+003, 7.242151e-003
3.405672e+003, 6.900320e-003
3.407601e+003, 6.363027e-003
3.409529e+003, 6.312158e-003
3.411458e+003, 6.758614e-003
3.413386e+003, 7.297509e-003
3.415314e+003, 6.990786e-003
3.417243e+003, 7.354256e-003
3.419171e+003, 7.930367e-003
3.421100e+003, 7.397697e-003
3.423028e+003, 6.551895e-003
3.424957e+003, 6.947116e-003
3.426885e+003, 7.530070e-003
3.428814e+003, 6.864939e-003
3.430742e+003, 6.654166e-003
3.432671e+003, 6.535379e-003
3.434599e+003, 6.126587e-003
3.436528e+003, 5.618444e-003
3.438456e+003, 5.417400e-003
3.440385e+003, 6.201969e-003
3.442313e+003, 6.294610e-003
3.444241e+003, 5.613476e-003
3.446170e+003, 5.573804e-003
3.448098e+003, 5.736442e-003
3.450027e+003, 5.779689e-003
3.451955e+003, 5.494672e-003
3.453884e+003, 5.737484e-003
3.455812e+003, 6.273532e-003
3.457741e+003, 5.552157e-003
3.459669e+003, 5.039859e-003
3.461598e+003, 4.918028e-003
3.463526e+003, 5.170509e-003
3.465455e+003, 5.635697e-003
3.467383e+003, 5.179629e-003
3.469312e+003, 4.843505e-003
3.471240e+003, 5.408073e-003
3.473168e+003, 5.299588e-003
3.475097e+003, 4.962198e-003
3.477025e+003, 5.935283e-003
3.478954e+003, 5.856354e-003
3.480882e+003, 4.845012e-003
3.482811e+003, 5.450783e-003
3.484739e+003, 5.252264e-003
3.486668e+003, 4.188294e-003
3.488596e+003, 3.852367e-003
3.490525e+003, 3.780199e-003
3.492453e+003, 4.305202e-003
3.494382e+003, 5.166787e-003
3.496310e+003, 5.165010e-003
3.498239e+003, 4.309150e-003
3.500167e+003, 4.172637e-003
3.502095e+003, 4.873024e-003
3.504024e+003, 5.261320e-003
3.505952e+003, 4.984452e-003
3.507881e+003, 4.516244e-003
3.509809e+003, 4.888538e-003
3.511738e+003, 5.555245e-003
3.513666e+003, 5.201358e-003
3.515595e+003, 4.313166e-003
3.517523e+003, 4.366412e-003
3.519452e+003, 4.670549e-003
3.521380e+003, 4.553175e-003
3.523309e+003, 4.305336e-003
3.525237e+003, 4.295531e-003
3.527166e+003, 4.311091e-003
3.529094e+003, 4.117943e-003
3.531022e+003, 3.802794e-003
3.532951e+003, 3.433466e-003
3.534879e+003, 3.857381e-003
3.536808e+003, 4.409254e-003
3.538736e+003, 4.259191e-003
3.540665e+003, 4.266988e-003
3.542593e+003, 4.221282e-003
3.544522e+003, 4.212449e-003
3.546450e+003, 4.294092e-003
3.548379e+003, 4.208167e-003
3.550307e+003, 4.279971e-003
3.552236e+003, 4.164307e-003
3.554164e+003, 3.735681e-003
3.556093e+003, 3.205224e-003
3.558021e+003, 3.209096e-003
3.559949e+003, 3.871088e-003
3.561878e+003, 3.436839e-003
3.563806e+003, 2.930064e-003
3.565735e+003, 4.016803e-003
3.567663e+003, 3.840901e-003
3.569592e+003, 2.833903e-003
3.571520e+003, 3.048236e-003
3.573449e+003, 4.257049e-003
3.575377e+003, 4.002624e-003
3.577306e+003, 3.641947e-003
3.579234e+003, 3.170945e-003
3.581163e+003, 2.906514e-003
3.583091e+003, 3.304339e-003
3.585020e+003, 3.490880e-003
3.586948e+003, 3.426453e-003
3.588876e+003, 3.076532e-003
3.590805e+003, 2.999789e-003
3.592733e+003, 3.597778e-003
3.594662e+003, 3.411191e-003
3.596590e+003, 4.003259e-003
3.598519e+003, 3.648162e-003
3.600447e+003, 2.812525e-003
3.602376e+003, 2.906747e-003
3.604304e+003, 3.223016e-003
3.606233e+003, 3.467165e-003
3.608161e+003, 3.696147e-003
3.610090e+003, 3.420342e-003
3.612018e+003, 3.552410e-003
3.613947e+003, 3.038092e-003
3.615875e+003, 3.266847e-003
3.617803e+003, 3.879479e-003
3.619732e+003, 3.457312e-003
3.621660e+003, 3.639542e-003
3.623589e+003, 3.387014e-003
3.625517e+003, 2.836704e-003
3.627446e+003, 3.390854e-003
3.629374e+003, 3.414130e-003
3.631303e+003, 2.967894e-003
3.633231e+003, 2.462332e-003
3.635160e+003, 3.013201e-003
3.637088e+003, 3.727025e-003
3.639017e+003, 3.649933e-003
3.640945e+003, 2.863319e-003
3.642874e+003, 2.616409e-003
3.644802e+003, 3.323437e-003
3.646730e+003, 3.173081e-003
3.648659e+003, 2.340522e-003
3.650587e+003, 1.910297e-003
3.652516e+003, 2.622342e-003
3.654444e+003, 2.976969e-003
3.656373e+003, 2.914153e-003
3.658301e+003, 2.963991e-003
3.660230e+003, 2.785513e-003
3.662158e+003, 2.919757e-003
3.664087e+003, 2.576043e-003
3.666015e+003, 1.933361e-003
3.667944e+003, 1.706704e-003
3.669872e+003, 2.132332e-003
3.671801e+003, 2.566711e-003
3.673729e+003, 2.338490e-003
3.675657e+003, 2.248222e-003
3.677586e+003, 1.994238e-003
3.679514e+003, 2.203527e-003
3.681443e+003, 2.678315e-003
3.683371e+003, 2.383565e-003
3.685300e+003, 1.732418e-003
3.687228e+003, 2.317104e-003
3.689157e+003, 2.431810e-003
3.691085e+003, 2.019902e-003
3.693014e+003, 2.265241e-003
3.694942e+003, 2.900977e-003
3.696871e+003, 3.265078e-003
3.698799e+003, 3.445222e-003
3.700728e+003, 2.933901e-003
3.702656e+003, 3.018473e-003
3.704584e+003, 3.397600e-003
3.706513e+003, 3.052106e-003
3.708441e+003, 3.325874e-003
3.710370e+003, 2.708855e-003
3.712298e+003, 1.568911e-003
3.714227e+003, 1.243410e-003
3.716155e+003, 1.453336e-003
3.718084e+003, 1.861445e-003
3.720012e+003, 2.265441e-003
3.721941e+003, 2.509553e-003
3.723869e+003, 2.646444e-003
3.725798e+003, 2.389229e-003
3.727726e+003, 2.082889e-003
3.729655e+003, 2.256848e-003
3.731583e+003, 1.981955e-003
3.733511e+003, 1.782886e-003
3.735440e+003, 2.352449e-003
3.737368e+003, 2.789815e-003
3.739297e+003, 2.491857e-003
3.741225e+003, 2.824898e-003
3.743154e+003, 3.011967e-003
3.745082e+003, 2.712522e-003
3.747011e+003, 2.791682e-003
3.748939e+003, 3.182427e-003
3.750868e+003, 3.345140e-003
3.752796e+003, 2.976568e-003
3.754725e+003, 2.637710e-003
3.756653e+003, 2.839572e-003
3.758582e+003, 2.605742e-003
3.760510e+003, 2.409653e-003
3.762438e+003, 2.446304e-003
3.764367e+003, 3.107767e-003
3.766295e+003, 3.459550e-003
3.768224e+003, 3.932672e-003
3.770152e+003, 4.155542e-003
3.772081e+003, 3.809613e-003
3.774009e+003, 3.579102e-003
3.775938e+003, 4.047805e-003
3.777866e+003, 3.566941e-003
3.779795e+003, 2.472862e-003
3.781723e+003, 2.136294e-003
3.783652e+003, 2.755735e-003
3.785580e+003, 3.041729e-003
3.787509e+003, 2.956018e-003
3.789437e+003, 2.901610e-003
3.791365e+003, 3.422646e-003
3.793294e+003, 3.676130e-003
3.795222e+003, 3.042096e-003
3.797151e+003, 3.222582e-003
3.799079e+003, 3.836522e-003
3.801008e+003, 3.129459e-003
3.802936e+003, 2.949012e-003
3.804865e+003, 3.457513e-003
3.806793e+003, 3.783207e-003
3.808722e+003, 4.072956e-003
3.810650e+003, 3.436405e-003
3.812579e+003, 3.330749e-003
3.814507e+003, 4.410760e-003
3.816436e+003, 4.442426e-003
3.818364e+003, 3.337995e-003
3.820292e+003, 3.224952e-003
3.822221e+003, 3.444621e-003
3.824149e+003, 3.520742e-003
3.826078e+003, 3.733642e-003
3.828006e+003, 3.947250e-003
3.829935e+003, 3.052573e-003
3.831863e+003, 2.324332e-003
3.833792e+003, 2.628776e-003
3.835720e+003, 3.286110e-003
3.837649e+003, 3.402408e-003
3.839577e+003, 3.045433e-003
3.841506e+003, 2.914786e-003
3.843434e+003, 3.838628e-003
3.845363e+003, 3.489911e-003
3.847291e+003, 2.797585e-003
3.849219e+003, 3.418438e-003
3.851148e+003, 3.762953e-003
3.853076e+003, 3.097856e-003
3.855005e+003, 3.220546e-003
3.856933e+003, 3.624038e-003
3.858862e+003, 3.244247e-003
3.860790e+003, 2.929097e-003
3.862719e+003, 2.531048e-003
3.864647e+003, 3.202521e-003
3.866576e+003, 3.950125e-003
3.868504e+003, 3.812521e-003
3.870433e+003, 3.346175e-003
3.872361e+003, 2.922392e-003
3.874290e+003, 2.355580e-003
3.876218e+003, 2.421447e-003
3.878146e+003, 3.365342e-003
3.880075e+003, 3.518270e-003
3.882003e+003, 3.190204e-003
3.883932e+003, 2.771007e-003
3.885860e+003, 2.319402e-003
3.887789e+003, 2.770441e-003
3.889717e+003, 3.183328e-003
3.891646e+003, 3.332185e-003
3.893574e+003, 3.120282e-003
3.895503e+003, 2.932600e-003
3.897431e+003, 3.637270e-003
3.899360e+003, 3.708645e-003
3.901288e+003, 4.210843e-003
3.903217e+003, 3.831842e-003
3.905145e+003, 3.205124e-003
3.907073e+003, 3.728061e-003
3.909002e+003, 3.509852e-003
3.910930e+003, 2.561111e-003
3.912859e+003, 2.191339e-003
3.914787e+003, 2.336758e-003
3.916716e+003, 2.637043e-003
3.918644e+003, 2.621209e-003
3.920573e+003, 3.125655e-003
3.922501e+003, 2.479560e-003
3.924430e+003, 2.103631e-003
3.926358e+003, 2.228105e-003
3.928287e+003, 3.132096e-003
3.930215e+003, 3.729933e-003
3.932144e+003, 3.346142e-003
3.934072e+003, 3.865772e-003
3.936000e+003, 3.888305e-003
3.937929e+003, 2.928530e-003
3.939857e+003, 3.110070e-003
3.941786e+003, 3.621766e-003
3.943714e+003, 3.272289e-003
3.945643e+003, 3.177320e-003
3.947571e+003, 3.841436e-003
3.949500e+003, 3.768501e-003
3.951428e+003, 3.049370e-003
3.953357e+003, 2.830868e-003
3.955285e+003, 2.970897e-003
3.957214e+003, 3.327945e-003
3.959142e+003, 4.005266e-003
3.961071e+003, 3.926419e-003
3.962999e+003, 3.711719e-003
3.964927e+003, 3.428123e-003
3.966856e+003, 3.086910e-003
3.968784e+003, 3.131862e-003
3.970713e+003, 3.439110e-003
3.972641e+003, 3.138103e-003
3.974570e+003, 3.169143e-003
3.976498e+003, 3.507581e-003
3.978427e+003, 3.602655e-003
3.980355e+003, 3.388049e-003
3.982284e+003, 4.058741e-003
3.984212e+003, 4.635752e-003
3.986141e+003, 3.769404e-003
3.988069e+003, 3.110871e-003
3.989998e+003, 2.821930e-003
3.991926e+003, 2.819762e-003
3.993854e+003, 3.076933e-003
3.995783e+003, 3.524984e-003
3.997711e+003, 3.785614e-003
3.999640e+003, 3.785614e-003
4.001568e+003, 0.000000e+000
##END=



