##NAMES=Fayalite
##RRUFFID=R070374
##IDEAL CHEMISTRY=Fe^2+^_2_SiO_4_
##LOCALITY=Little Lake, Lake County, California, USA
##OWNER=RRUFF
##SOURCE=Michael Scott
##DESCRIPTION=Large dark brown crystal fragment
##STATUS=The identification of this mineral has been confirmed by X-ray diffraction and chemical analysis
##URL=rruff.info/R070374
##MEASURED CHEMISTRY=(Fe^2+^_1.89_Mn^2+^_0.11_)_Î£=2_Si_1.00_O_4_ ; trace amounts of Mg
3.991926e+002, 0.000000e+000
4.011211e+002, 3.099866e-002
4.030496e+002, 3.114005e-002
4.049780e+002, 3.091194e-002
4.069065e+002, 3.139297e-002
4.088350e+002, 3.607050e-002
4.107634e+002, 3.624734e-002
4.126919e+002, 3.700267e-002
4.146204e+002, 3.918467e-002
4.165488e+002, 4.291753e-002
4.184773e+002, 4.424069e-002
4.204058e+002, 4.581556e-002
4.223342e+002, 4.876769e-002
4.242627e+002, 5.268351e-002
4.261912e+002, 5.551521e-002
4.281196e+002, 5.893391e-002
4.300481e+002, 6.301503e-002
4.319766e+002, 6.781477e-002
4.339050e+002, 7.334071e-002
4.358335e+002, 7.841685e-002
4.377620e+002, 8.281700e-002
4.396904e+002, 8.740158e-002
4.416189e+002, 9.197988e-002
4.435474e+002, 9.601016e-002
4.454758e+002, 9.943920e-002
4.474043e+002, 1.031973e-001
4.493328e+002, 1.061784e-001
4.512612e+002, 1.096743e-001
4.531897e+002, 1.136995e-001
4.551182e+002, 1.177592e-001
4.570466e+002, 1.222355e-001
4.589751e+002, 1.264876e-001
4.609036e+002, 1.299396e-001
4.628320e+002, 1.323420e-001
4.647605e+002, 1.339319e-001
4.666890e+002, 1.347844e-001
4.686174e+002, 1.346970e-001
4.705459e+002, 1.344114e-001
4.724744e+002, 1.316094e-001
4.744028e+002, 1.287995e-001
4.763313e+002, 1.258561e-001
4.782598e+002, 1.227581e-001
4.801882e+002, 1.193330e-001
4.821167e+002, 1.165400e-001
4.840452e+002, 1.144972e-001
4.859736e+002, 1.124431e-001
4.879021e+002, 1.110188e-001
4.898306e+002, 1.103534e-001
4.917590e+002, 1.100971e-001
4.936875e+002, 1.103019e-001
4.956160e+002, 1.096168e-001
4.975444e+002, 1.079634e-001
4.994729e+002, 1.067904e-001
5.014014e+002, 1.056255e-001
5.033298e+002, 1.042300e-001
5.052583e+002, 1.013313e-001
5.071868e+002, 9.830262e-002
5.091152e+002, 9.579003e-002
5.110437e+002, 9.268425e-002
5.129722e+002, 8.951727e-002
5.149006e+002, 8.611461e-002
5.168291e+002, 8.242892e-002
5.187576e+002, 7.840833e-002
5.206860e+002, 7.486052e-002
5.226145e+002, 7.152011e-002
5.245430e+002, 6.820584e-002
5.264714e+002, 6.534639e-002
5.283999e+002, 6.273052e-002
5.303284e+002, 6.083043e-002
5.322568e+002, 5.988470e-002
5.341853e+002, 5.893686e-002
5.361138e+002, 5.927453e-002
5.380422e+002, 6.052432e-002
5.399707e+002, 6.176784e-002
5.418992e+002, 6.325665e-002
5.438276e+002, 6.539016e-002
5.457561e+002, 6.796214e-002
5.476846e+002, 7.065549e-002
5.496130e+002, 7.299777e-002
5.515415e+002, 7.486285e-002
5.534700e+002, 7.624140e-002
5.553984e+002, 7.688459e-002
5.573269e+002, 7.694175e-002
5.592554e+002, 7.685758e-002
5.611838e+002, 7.686717e-002
5.631123e+002, 7.660765e-002
5.650408e+002, 7.552535e-002
5.669692e+002, 7.354148e-002
5.688977e+002, 7.134365e-002
5.708262e+002, 6.862541e-002
5.727546e+002, 6.560225e-002
5.746831e+002, 6.319642e-002
5.766116e+002, 6.024033e-002
5.785400e+002, 5.630168e-002
5.804685e+002, 5.298174e-002
5.823970e+002, 5.007013e-002
5.843254e+002, 4.678559e-002
5.862539e+002, 4.351169e-002
5.881824e+002, 4.081430e-002
5.901108e+002, 3.836884e-002
5.920393e+002, 3.547976e-002
5.939678e+002, 3.278901e-002
5.958962e+002, 3.072022e-002
5.978247e+002, 2.917689e-002
5.997532e+002, 2.771218e-002
6.016816e+002, 2.633536e-002
6.036101e+002, 2.525743e-002
6.055386e+002, 2.441816e-002
6.074670e+002, 2.416683e-002
6.093955e+002, 2.392613e-002
6.113240e+002, 2.329747e-002
6.132524e+002, 2.285714e-002
6.151809e+002, 2.257391e-002
6.171094e+002, 2.218541e-002
6.190378e+002, 2.209524e-002
6.209663e+002, 2.204840e-002
6.228948e+002, 2.199393e-002
6.248232e+002, 2.205825e-002
6.267517e+002, 2.183586e-002
6.286802e+002, 2.166494e-002
6.306086e+002, 2.156892e-002
6.325371e+002, 2.144797e-002
6.344656e+002, 2.167545e-002
6.363940e+002, 2.192532e-002
6.383225e+002, 2.197060e-002
6.402510e+002, 2.190380e-002
6.421794e+002, 2.185564e-002
6.441079e+002, 2.210296e-002
6.460364e+002, 2.240076e-002
6.479648e+002, 2.250721e-002
6.498933e+002, 2.255376e-002
6.518218e+002, 2.264377e-002
6.537502e+002, 2.279833e-002
6.556787e+002, 2.321495e-002
6.576072e+002, 2.370087e-002
6.595356e+002, 2.407020e-002
6.614641e+002, 2.436202e-002
6.633926e+002, 2.452883e-002
6.653210e+002, 2.454349e-002
6.672495e+002, 2.462266e-002
6.691780e+002, 2.487835e-002
6.711064e+002, 2.534944e-002
6.730349e+002, 2.572512e-002
6.749634e+002, 2.606775e-002
6.768918e+002, 2.624897e-002
6.788203e+002, 2.642039e-002
6.807488e+002, 2.683807e-002
6.826772e+002, 2.741451e-002
6.846057e+002, 2.781462e-002
6.865342e+002, 2.811408e-002
6.884626e+002, 2.858063e-002
6.903911e+002, 2.907307e-002
6.923196e+002, 2.940549e-002
6.942480e+002, 2.985863e-002
6.961765e+002, 3.021956e-002
6.981050e+002, 3.072818e-002
7.000334e+002, 3.143641e-002
7.019619e+002, 3.190088e-002
7.038904e+002, 3.242433e-002
7.058188e+002, 3.309836e-002
7.077473e+002, 3.392108e-002
7.096758e+002, 3.464460e-002
7.116042e+002, 3.526171e-002
7.135327e+002, 3.585067e-002
7.154612e+002, 3.657184e-002
7.173896e+002, 3.741353e-002
7.193181e+002, 3.821788e-002
7.212466e+002, 3.891334e-002
7.231750e+002, 3.963912e-002
7.251035e+002, 4.073137e-002
7.270320e+002, 4.160664e-002
7.289604e+002, 4.235286e-002
7.308889e+002, 4.329219e-002
7.328174e+002, 4.423600e-002
7.347458e+002, 4.521504e-002
7.366743e+002, 4.617026e-002
7.386028e+002, 4.731230e-002
7.405313e+002, 4.827403e-002
7.424597e+002, 4.927477e-002
7.443882e+002, 5.048020e-002
7.463167e+002, 5.162032e-002
7.482451e+002, 5.291858e-002
7.501736e+002, 5.462126e-002
7.521021e+002, 5.615976e-002
7.540305e+002, 5.739637e-002
7.559590e+002, 5.881369e-002
7.578875e+002, 6.033100e-002
7.598159e+002, 6.177056e-002
7.617444e+002, 6.338724e-002
7.636729e+002, 6.520640e-002
7.656013e+002, 6.704032e-002
7.675298e+002, 6.879035e-002
7.694583e+002, 7.053231e-002
7.713867e+002, 7.275269e-002
7.733152e+002, 7.492109e-002
7.752437e+002, 7.672407e-002
7.771721e+002, 7.879326e-002
7.791006e+002, 8.111515e-002
7.810291e+002, 8.332016e-002
7.829575e+002, 8.549906e-002
7.848860e+002, 8.790933e-002
7.868145e+002, 9.051507e-002
7.887429e+002, 9.320409e-002
7.906714e+002, 9.596552e-002
7.925999e+002, 9.852920e-002
7.945283e+002, 1.013164e-001
7.964568e+002, 1.045297e-001
7.983853e+002, 1.077018e-001
8.003137e+002, 1.110332e-001
8.022422e+002, 1.144116e-001
8.041707e+002, 1.177834e-001
8.060991e+002, 1.212865e-001
8.080276e+002, 1.250174e-001
8.099561e+002, 1.287358e-001
8.118845e+002, 1.327382e-001
8.138130e+002, 1.369193e-001
8.157415e+002, 1.410588e-001
8.176699e+002, 1.457505e-001
8.195984e+002, 1.508504e-001
8.215269e+002, 1.555365e-001
8.234553e+002, 1.592220e-001
8.253838e+002, 1.609362e-001
8.273123e+002, 1.588226e-001
8.292407e+002, 1.507115e-001
8.311692e+002, 1.383016e-001
8.330977e+002, 1.282344e-001
8.350261e+002, 1.254582e-001
8.369546e+002, 1.294179e-001
8.388831e+002, 1.366770e-001
8.408115e+002, 1.442506e-001
8.427400e+002, 1.515871e-001
8.446685e+002, 1.587805e-001
8.465969e+002, 1.650808e-001
8.485254e+002, 1.705727e-001
8.504539e+002, 1.754892e-001
8.523823e+002, 1.795275e-001
8.543108e+002, 1.828202e-001
8.562393e+002, 1.854692e-001
8.581677e+002, 1.871555e-001
8.600962e+002, 1.881863e-001
8.620247e+002, 1.888608e-001
8.639531e+002, 1.888844e-001
8.658816e+002, 1.882274e-001
8.678101e+002, 1.861447e-001
8.697385e+002, 1.833962e-001
8.716670e+002, 1.806344e-001
8.735955e+002, 1.772268e-001
8.755239e+002, 1.730593e-001
8.774524e+002, 1.687968e-001
8.793809e+002, 1.645547e-001
8.813093e+002, 1.603910e-001
8.832378e+002, 1.560461e-001
8.851663e+002, 1.516672e-001
8.870947e+002, 1.476064e-001
8.890232e+002, 1.437980e-001
8.909517e+002, 1.400049e-001
8.928801e+002, 1.365175e-001
8.948085e+002, 1.334285e-001
8.967370e+002, 1.303000e-001
8.986655e+002, 1.273320e-001
9.005939e+002, 1.248133e-001
9.025224e+002, 1.226506e-001
9.044509e+002, 1.207000e-001
9.063793e+002, 1.187878e-001
9.083078e+002, 1.170279e-001
9.102363e+002, 1.152879e-001
9.121647e+002, 1.132223e-001
9.140932e+002, 1.104746e-001
9.160217e+002, 1.070373e-001
9.179501e+002, 1.023539e-001
9.198786e+002, 9.608893e-002
9.218071e+002, 8.871762e-002
9.237355e+002, 8.121320e-002
9.256640e+002, 7.545554e-002
9.275925e+002, 7.351860e-002
9.295209e+002, 7.513504e-002
9.314494e+002, 7.931801e-002
9.333779e+002, 8.569582e-002
9.353063e+002, 9.353921e-002
9.372348e+002, 1.025008e-001
9.391633e+002, 1.111885e-001
9.410917e+002, 1.170987e-001
9.430202e+002, 1.180460e-001
9.449487e+002, 1.141023e-001
9.468771e+002, 1.072963e-001
9.488056e+002, 9.989197e-002
9.507341e+002, 9.306307e-002
9.526625e+002, 8.716536e-002
9.545910e+002, 8.248830e-002
9.565195e+002, 7.915090e-002
9.584479e+002, 7.697880e-002
9.603764e+002, 7.549995e-002
9.623049e+002, 7.436752e-002
9.642333e+002, 7.302165e-002
9.661618e+002, 7.171544e-002
9.680903e+002, 7.015821e-002
9.700187e+002, 6.835217e-002
9.719472e+002, 6.650710e-002
9.738757e+002, 6.455797e-002
9.758041e+002, 6.253455e-002
9.777326e+002, 6.039193e-002
9.796611e+002, 5.810830e-002
9.815895e+002, 5.583298e-002
9.835180e+002, 5.365331e-002
9.854465e+002, 5.142725e-002
9.873749e+002, 4.913895e-002
9.893034e+002, 4.688441e-002
9.912319e+002, 4.469890e-002
9.931603e+002, 4.267801e-002
9.950888e+002, 4.089053e-002
9.970173e+002, 3.897026e-002
9.989457e+002, 3.661943e-002
1.000874e+003, 3.451565e-002
1.002803e+003, 3.289907e-002
1.004731e+003, 3.125862e-002
1.006660e+003, 2.944043e-002
1.008588e+003, 2.778447e-002
1.010517e+003, 2.628150e-002
1.012445e+003, 2.489947e-002
1.014373e+003, 2.370386e-002
1.016302e+003, 2.229475e-002
1.018230e+003, 2.107855e-002
1.020159e+003, 2.051801e-002
1.022087e+003, 1.999621e-002
1.024016e+003, 1.937694e-002
1.025944e+003, 1.879614e-002
1.027873e+003, 1.837549e-002
1.029801e+003, 1.811086e-002
1.031730e+003, 1.798497e-002
1.033658e+003, 1.777350e-002
1.035587e+003, 1.744587e-002
1.037515e+003, 1.723406e-002
1.039444e+003, 1.707374e-002
1.041372e+003, 1.685408e-002
1.043301e+003, 1.661806e-002
1.045229e+003, 1.641751e-002
1.047157e+003, 1.621837e-002
1.049086e+003, 1.607488e-002
1.051014e+003, 1.599324e-002
1.052943e+003, 1.574993e-002
1.054871e+003, 1.566576e-002
1.056800e+003, 1.555182e-002
1.058728e+003, 1.525702e-002
1.060657e+003, 1.503650e-002
1.062585e+003, 1.471875e-002
1.064514e+003, 1.431389e-002
1.066442e+003, 1.388092e-002
1.068371e+003, 1.370674e-002
1.070299e+003, 1.352884e-002
1.072228e+003, 1.318055e-002
1.074156e+003, 1.274957e-002
1.076084e+003, 1.252445e-002
1.078013e+003, 1.241055e-002
1.079941e+003, 1.233878e-002
1.081870e+003, 1.225982e-002
1.083798e+003, 1.199625e-002
1.085727e+003, 1.196537e-002
1.087655e+003, 1.189267e-002
1.089584e+003, 1.165179e-002
1.091512e+003, 1.158681e-002
1.093441e+003, 1.173457e-002
1.095369e+003, 1.178968e-002
1.097298e+003, 1.165756e-002
1.099226e+003, 1.152941e-002
1.101155e+003, 1.153354e-002
1.103083e+003, 1.162834e-002
1.105011e+003, 1.176695e-002
1.106940e+003, 1.165636e-002
1.108868e+003, 1.152599e-002
1.110797e+003, 1.153843e-002
1.112725e+003, 1.155180e-002
1.114654e+003, 1.157545e-002
1.116582e+003, 1.150130e-002
1.118511e+003, 1.138748e-002
1.120439e+003, 1.154067e-002
1.122368e+003, 1.162298e-002
1.124296e+003, 1.136488e-002
1.126225e+003, 1.119309e-002
1.128153e+003, 1.113429e-002
1.130082e+003, 1.103777e-002
1.132010e+003, 1.107360e-002
1.133938e+003, 1.122235e-002
1.135867e+003, 1.133104e-002
1.137795e+003, 1.126873e-002
1.139724e+003, 1.113766e-002
1.141652e+003, 1.102242e-002
1.143581e+003, 1.112519e-002
1.145509e+003, 1.134067e-002
1.147438e+003, 1.119522e-002
1.149366e+003, 1.096179e-002
1.151295e+003, 1.078003e-002
1.153223e+003, 1.075737e-002
1.155152e+003, 1.088088e-002
1.157080e+003, 1.095089e-002
1.159009e+003, 1.090277e-002
1.160937e+003, 1.064305e-002
1.162865e+003, 1.053346e-002
1.164794e+003, 1.047336e-002
1.166722e+003, 1.015865e-002
1.168651e+003, 9.862108e-003
1.170579e+003, 9.849861e-003
1.172508e+003, 9.839491e-003
1.174436e+003, 9.755490e-003
1.176365e+003, 9.604422e-003
1.178293e+003, 9.452590e-003
1.180222e+003, 9.238169e-003
1.182150e+003, 8.992933e-003
1.184079e+003, 9.005906e-003
1.186007e+003, 9.098051e-003
1.187936e+003, 8.966601e-003
1.189864e+003, 8.649590e-003
1.191792e+003, 8.523070e-003
1.193721e+003, 8.422992e-003
1.195649e+003, 8.256802e-003
1.197578e+003, 8.166580e-003
1.199506e+003, 8.132407e-003
1.201435e+003, 7.992146e-003
1.203363e+003, 7.887713e-003
1.205292e+003, 7.943200e-003
1.207220e+003, 7.844576e-003
1.209149e+003, 7.782924e-003
1.211077e+003, 7.649646e-003
1.213006e+003, 7.693404e-003
1.214934e+003, 7.850643e-003
1.216863e+003, 7.816039e-003
1.218791e+003, 7.639116e-003
1.220719e+003, 7.656123e-003
1.222648e+003, 7.795730e-003
1.224576e+003, 7.848808e-003
1.226505e+003, 7.875072e-003
1.228433e+003, 8.105188e-003
1.230362e+003, 8.146746e-003
1.232290e+003, 7.895380e-003
1.234219e+003, 7.868957e-003
1.236147e+003, 7.867673e-003
1.238076e+003, 7.840339e-003
1.240004e+003, 8.082309e-003
1.241933e+003, 8.310288e-003
1.243861e+003, 8.327948e-003
1.245790e+003, 8.323269e-003
1.247718e+003, 8.429842e-003
1.249646e+003, 8.558460e-003
1.251575e+003, 8.545616e-003
1.253503e+003, 8.508580e-003
1.255432e+003, 8.658605e-003
1.257360e+003, 8.685342e-003
1.259289e+003, 8.704638e-003
1.261217e+003, 8.673553e-003
1.263146e+003, 8.745950e-003
1.265074e+003, 8.821844e-003
1.267003e+003, 8.696314e-003
1.268931e+003, 8.710870e-003
1.270860e+003, 8.897600e-003
1.272788e+003, 8.963402e-003
1.274717e+003, 9.008943e-003
1.276645e+003, 9.100737e-003
1.278573e+003, 9.224457e-003
1.280502e+003, 9.257792e-003
1.282430e+003, 9.261078e-003
1.284359e+003, 9.499317e-003
1.286287e+003, 9.480422e-003
1.288216e+003, 9.428076e-003
1.290144e+003, 9.533802e-003
1.292073e+003, 9.554213e-003
1.294001e+003, 9.645575e-003
1.295930e+003, 9.754783e-003
1.297858e+003, 9.852179e-003
1.299787e+003, 9.739665e-003
1.301715e+003, 9.780898e-003
1.303644e+003, 9.983789e-003
1.305572e+003, 1.002973e-002
1.307500e+003, 9.891239e-003
1.309429e+003, 9.827976e-003
1.311357e+003, 9.976845e-003
1.313286e+003, 1.009365e-002
1.315214e+003, 1.016317e-002
1.317143e+003, 1.022367e-002
1.319071e+003, 1.038545e-002
1.321000e+003, 1.053738e-002
1.322928e+003, 1.048354e-002
1.324857e+003, 1.042585e-002
1.326785e+003, 1.054042e-002
1.328714e+003, 1.070138e-002
1.330642e+003, 1.071613e-002
1.332571e+003, 1.062956e-002
1.334499e+003, 1.063676e-002
1.336427e+003, 1.071319e-002
1.338356e+003, 1.074804e-002
1.340284e+003, 1.086018e-002
1.342213e+003, 1.103368e-002
1.344141e+003, 1.102133e-002
1.346070e+003, 1.102623e-002
1.347998e+003, 1.114117e-002
1.349927e+003, 1.114702e-002
1.351855e+003, 1.141001e-002
1.353784e+003, 1.171110e-002
1.355712e+003, 1.162039e-002
1.357641e+003, 1.144869e-002
1.359569e+003, 1.145967e-002
1.361498e+003, 1.158442e-002
1.363426e+003, 1.178805e-002
1.365354e+003, 1.192485e-002
1.367283e+003, 1.183024e-002
1.369211e+003, 1.165985e-002
1.371140e+003, 1.169877e-002
1.373068e+003, 1.181365e-002
1.374997e+003, 1.197552e-002
1.376925e+003, 1.213233e-002
1.378854e+003, 1.219286e-002
1.380782e+003, 1.231084e-002
1.382711e+003, 1.239144e-002
1.384639e+003, 1.255353e-002
1.386568e+003, 1.255930e-002
1.388496e+003, 1.249826e-002
1.390424e+003, 1.249050e-002
1.392353e+003, 1.267956e-002
1.394281e+003, 1.287788e-002
1.396210e+003, 1.293400e-002
1.398138e+003, 1.290616e-002
1.400067e+003, 1.300917e-002
1.401995e+003, 1.312258e-002
1.403924e+003, 1.303148e-002
1.405852e+003, 1.315093e-002
1.407781e+003, 1.340398e-002
1.409709e+003, 1.351388e-002
1.411638e+003, 1.349401e-002
1.413566e+003, 1.365507e-002
1.415495e+003, 1.401233e-002
1.417423e+003, 1.398034e-002
1.419351e+003, 1.384412e-002
1.421280e+003, 1.385055e-002
1.423208e+003, 1.388335e-002
1.425137e+003, 1.392870e-002
1.427065e+003, 1.402653e-002
1.428994e+003, 1.401677e-002
1.430922e+003, 1.403477e-002
1.432851e+003, 1.422317e-002
1.434779e+003, 1.423204e-002
1.436708e+003, 1.409940e-002
1.438636e+003, 1.428924e-002
1.440565e+003, 1.440165e-002
1.442493e+003, 1.435037e-002
1.444422e+003, 1.430539e-002
1.446350e+003, 1.417054e-002
1.448278e+003, 1.436205e-002
1.450207e+003, 1.462838e-002
1.452135e+003, 1.457973e-002
1.454064e+003, 1.443945e-002
1.455992e+003, 1.441821e-002
1.457921e+003, 1.440914e-002
1.459849e+003, 1.428616e-002
1.461778e+003, 1.433654e-002
1.463706e+003, 1.437590e-002
1.465635e+003, 1.449445e-002
1.467563e+003, 1.458714e-002
1.469492e+003, 1.449127e-002
1.471420e+003, 1.435360e-002
1.473349e+003, 1.439576e-002
1.475277e+003, 1.447968e-002
1.477205e+003, 1.468635e-002
1.479134e+003, 1.480889e-002
1.481062e+003, 1.465919e-002
1.482991e+003, 1.446833e-002
1.484919e+003, 1.451899e-002
1.486848e+003, 1.461959e-002
1.488776e+003, 1.447261e-002
1.490705e+003, 1.438749e-002
1.492633e+003, 1.449309e-002
1.494562e+003, 1.465432e-002
1.496490e+003, 1.455932e-002
1.498419e+003, 1.451424e-002
1.500347e+003, 1.456045e-002
1.502276e+003, 1.465740e-002
1.504204e+003, 1.490518e-002
1.506132e+003, 1.496710e-002
1.508061e+003, 1.483322e-002
1.509989e+003, 1.484073e-002
1.511918e+003, 1.486128e-002
1.513846e+003, 1.482831e-002
1.515775e+003, 1.490145e-002
1.517703e+003, 1.505047e-002
1.519632e+003, 1.508985e-002
1.521560e+003, 1.511241e-002
1.523489e+003, 1.528607e-002
1.525417e+003, 1.532088e-002
1.527346e+003, 1.540853e-002
1.529274e+003, 1.552946e-002
1.531203e+003, 1.542150e-002
1.533131e+003, 1.543669e-002
1.535059e+003, 1.554974e-002
1.536988e+003, 1.554796e-002
1.538916e+003, 1.561778e-002
1.540845e+003, 1.582188e-002
1.542773e+003, 1.601903e-002
1.544702e+003, 1.602727e-002
1.546630e+003, 1.618233e-002
1.548559e+003, 1.626202e-002
1.550487e+003, 1.620775e-002
1.552416e+003, 1.636627e-002
1.554344e+003, 1.655079e-002
1.556273e+003, 1.653682e-002
1.558201e+003, 1.650153e-002
1.560130e+003, 1.645066e-002
1.562058e+003, 1.659168e-002
1.563986e+003, 1.683889e-002
1.565915e+003, 1.696807e-002
1.567843e+003, 1.716077e-002
1.569772e+003, 1.726394e-002
1.571700e+003, 1.723957e-002
1.573629e+003, 1.727208e-002
1.575557e+003, 1.751641e-002
1.577486e+003, 1.768276e-002
1.579414e+003, 1.763933e-002
1.581343e+003, 1.761241e-002
1.583271e+003, 1.785044e-002
1.585200e+003, 1.806955e-002
1.587128e+003, 1.822919e-002
1.589057e+003, 1.823897e-002
1.590985e+003, 1.831540e-002
1.592913e+003, 1.849649e-002
1.594842e+003, 1.861889e-002
1.596770e+003, 1.886917e-002
1.598699e+003, 1.895623e-002
1.600627e+003, 1.888694e-002
1.602556e+003, 1.881168e-002
1.604484e+003, 1.867115e-002
1.606413e+003, 1.878733e-002
1.608341e+003, 1.905032e-002
1.610270e+003, 1.919503e-002
1.612198e+003, 1.904910e-002
1.614127e+003, 1.921818e-002
1.616055e+003, 1.934532e-002
1.617984e+003, 1.938651e-002
1.619912e+003, 1.949252e-002
1.621840e+003, 1.948015e-002
1.623769e+003, 1.956392e-002
1.625697e+003, 1.973139e-002
1.627626e+003, 1.981116e-002
1.629554e+003, 1.978257e-002
1.631483e+003, 1.982314e-002
1.633411e+003, 1.999658e-002
1.635340e+003, 2.021686e-002
1.637268e+003, 2.025515e-002
1.639197e+003, 2.028131e-002
1.641125e+003, 2.041882e-002
1.643054e+003, 2.030737e-002
1.644982e+003, 1.995734e-002
1.646911e+003, 1.978858e-002
1.648839e+003, 1.993510e-002
1.650767e+003, 2.000394e-002
1.652696e+003, 1.966333e-002
1.654624e+003, 1.977629e-002
1.656553e+003, 2.016374e-002
1.658481e+003, 2.022238e-002
1.660410e+003, 2.027643e-002
1.662338e+003, 2.016564e-002
1.664267e+003, 1.980111e-002
1.666195e+003, 1.967784e-002
1.668124e+003, 1.986570e-002
1.670052e+003, 1.964720e-002
1.671981e+003, 1.962347e-002
1.673909e+003, 1.959316e-002
1.675838e+003, 1.958705e-002
1.677766e+003, 1.936459e-002
1.679694e+003, 1.879541e-002
1.681623e+003, 1.879459e-002
1.683551e+003, 1.879588e-002
1.685480e+003, 1.874389e-002
1.687408e+003, 1.881978e-002
1.689337e+003, 1.861043e-002
1.691265e+003, 1.849587e-002
1.693194e+003, 1.853143e-002
1.695122e+003, 1.860849e-002
1.697051e+003, 1.872744e-002
1.698979e+003, 1.829547e-002
1.700908e+003, 1.795978e-002
1.702836e+003, 1.819483e-002
1.704765e+003, 1.844600e-002
1.706693e+003, 1.846302e-002
1.708621e+003, 1.833812e-002
1.710550e+003, 1.838317e-002
1.712478e+003, 1.855730e-002
1.714407e+003, 1.872402e-002
1.716335e+003, 1.868212e-002
1.718264e+003, 1.842706e-002
1.720192e+003, 1.867480e-002
1.722121e+003, 1.910391e-002
1.724049e+003, 1.915817e-002
1.725978e+003, 1.894046e-002
1.727906e+003, 1.896258e-002
1.729835e+003, 1.905116e-002
1.731763e+003, 1.897199e-002
1.733692e+003, 1.867590e-002
1.735620e+003, 1.878310e-002
1.737548e+003, 1.881840e-002
1.739477e+003, 1.850799e-002
1.741405e+003, 1.859828e-002
1.743334e+003, 1.836487e-002
1.745262e+003, 1.820163e-002
1.747191e+003, 1.829522e-002
1.749119e+003, 1.809565e-002
1.751048e+003, 1.808447e-002
1.752976e+003, 1.823234e-002
1.754905e+003, 1.844474e-002
1.756833e+003, 1.872830e-002
1.758762e+003, 1.885106e-002
1.760690e+003, 1.864474e-002
1.762619e+003, 1.865970e-002
1.764547e+003, 1.891179e-002
1.766475e+003, 1.880939e-002
1.768404e+003, 1.867850e-002
1.770332e+003, 1.869974e-002
1.772261e+003, 1.886990e-002
1.774189e+003, 1.877067e-002
1.776118e+003, 1.869502e-002
1.778046e+003, 1.887717e-002
1.779975e+003, 1.901355e-002
1.781903e+003, 1.901508e-002
1.783832e+003, 1.881952e-002
1.785760e+003, 1.882008e-002
1.787689e+003, 1.909988e-002
1.789617e+003, 1.934156e-002
1.791546e+003, 1.935231e-002
1.793474e+003, 1.926566e-002
1.795402e+003, 1.931671e-002
1.797331e+003, 1.935946e-002
1.799259e+003, 1.944065e-002
1.801188e+003, 1.943269e-002
1.803116e+003, 1.921975e-002
1.805045e+003, 1.912421e-002
1.806973e+003, 1.940680e-002
1.808902e+003, 1.955251e-002
1.810830e+003, 1.943284e-002
1.812759e+003, 1.909553e-002
1.814687e+003, 1.923310e-002
1.816616e+003, 1.920069e-002
1.818544e+003, 1.911220e-002
1.820473e+003, 1.935964e-002
1.822401e+003, 1.959557e-002
1.824329e+003, 1.950258e-002
1.826258e+003, 1.895190e-002
1.828186e+003, 1.914039e-002
1.830115e+003, 1.951124e-002
1.832043e+003, 1.953585e-002
1.833972e+003, 1.938831e-002
1.835900e+003, 1.930728e-002
1.837829e+003, 1.958192e-002
1.839757e+003, 1.976375e-002
1.841686e+003, 1.990422e-002
1.843614e+003, 2.010721e-002
1.845543e+003, 2.012288e-002
1.847471e+003, 1.998325e-002
1.849400e+003, 1.998384e-002
1.851328e+003, 1.985599e-002
1.853256e+003, 1.982944e-002
1.855185e+003, 1.983388e-002
1.857113e+003, 1.964582e-002
1.859042e+003, 1.976658e-002
1.860970e+003, 2.021837e-002
1.862899e+003, 2.007473e-002
1.864827e+003, 1.992891e-002
1.866756e+003, 1.980741e-002
1.868684e+003, 1.916437e-002
1.870613e+003, 1.926890e-002
1.872541e+003, 1.919250e-002
1.874470e+003, 1.925846e-002
1.876398e+003, 1.966527e-002
1.878327e+003, 1.950193e-002
1.880255e+003, 1.901941e-002
1.882183e+003, 1.915879e-002
1.884112e+003, 1.972335e-002
1.886040e+003, 1.954436e-002
1.887969e+003, 1.919888e-002
1.889897e+003, 1.913232e-002
1.891826e+003, 1.975847e-002
1.893754e+003, 1.944134e-002
1.895683e+003, 1.922115e-002
1.897611e+003, 1.986732e-002
1.899540e+003, 2.062810e-002
1.901468e+003, 2.020284e-002
1.903397e+003, 1.979290e-002
1.905325e+003, 1.968244e-002
1.907254e+003, 1.887105e-002
1.909182e+003, 1.867244e-002
1.911110e+003, 1.971620e-002
1.913039e+003, 2.014814e-002
1.914967e+003, 1.925022e-002
1.916896e+003, 1.885061e-002
1.918824e+003, 1.953382e-002
1.920753e+003, 1.925268e-002
1.922681e+003, 1.971754e-002
1.924610e+003, 2.019627e-002
1.926538e+003, 2.063912e-002
1.928467e+003, 2.057493e-002
1.930395e+003, 1.975046e-002
1.932324e+003, 1.954044e-002
1.934252e+003, 1.928831e-002
1.936181e+003, 1.930100e-002
1.938109e+003, 1.951504e-002
1.940037e+003, 1.974562e-002
1.941966e+003, 1.965931e-002
1.943894e+003, 1.976438e-002
1.945823e+003, 2.010900e-002
1.947751e+003, 2.025571e-002
1.949680e+003, 1.978326e-002
1.951608e+003, 1.901543e-002
1.953537e+003, 1.949811e-002
1.955465e+003, 1.912104e-002
1.957394e+003, 1.822298e-002
1.959322e+003, 1.868720e-002
1.961251e+003, 1.913653e-002
1.963179e+003, 1.912375e-002
1.965108e+003, 1.934905e-002
1.967036e+003, 1.876090e-002
1.968964e+003, 1.802794e-002
1.970893e+003, 1.736096e-002
1.972821e+003, 1.817142e-002
1.974750e+003, 1.941529e-002
1.976678e+003, 1.990558e-002
1.978607e+003, 2.074531e-002
1.980535e+003, 2.110799e-002
1.982464e+003, 2.127142e-002
1.984392e+003, 2.241543e-002
1.986321e+003, 2.356805e-002
1.988249e+003, 2.248670e-002
1.990178e+003, 2.258990e-002
1.992106e+003, 2.268417e-002
1.994035e+003, 2.154899e-002
1.995963e+003, 2.054109e-002
1.997891e+003, 1.928591e-002
1.999820e+003, 1.951288e-002
2.001748e+003, 2.060582e-002
2.003677e+003, 2.091731e-002
2.005605e+003, 2.040676e-002
2.007534e+003, 2.032688e-002
2.009462e+003, 2.044921e-002
2.011391e+003, 2.077445e-002
2.013319e+003, 2.009450e-002
2.015248e+003, 1.923562e-002
2.017176e+003, 2.066324e-002
2.019105e+003, 2.254321e-002
2.021033e+003, 2.307459e-002
2.022962e+003, 2.164402e-002
2.024890e+003, 1.926036e-002
2.026818e+003, 2.004416e-002
2.028747e+003, 2.260670e-002
2.030675e+003, 2.186427e-002
2.032604e+003, 2.059308e-002
2.034532e+003, 2.163778e-002
2.036461e+003, 2.269440e-002
2.038389e+003, 2.297141e-002
2.040318e+003, 2.391591e-002
2.042246e+003, 2.371031e-002
2.044175e+003, 2.241801e-002
2.046103e+003, 2.347477e-002
2.048032e+003, 2.469023e-002
2.049960e+003, 2.583839e-002
2.051889e+003, 2.424690e-002
2.053817e+003, 2.377959e-002
2.055746e+003, 2.411551e-002
2.057674e+003, 2.375357e-002
2.059603e+003, 2.205757e-002
2.061531e+003, 2.206930e-002
2.063459e+003, 2.307042e-002
2.065388e+003, 2.351510e-002
2.067316e+003, 2.408071e-002
2.069245e+003, 2.480808e-002
2.071173e+003, 2.542323e-002
2.073102e+003, 2.532139e-002
2.075030e+003, 2.416364e-002
2.076959e+003, 2.397103e-002
2.078887e+003, 2.468985e-002
2.080816e+003, 2.515199e-002
2.082744e+003, 2.530492e-002
2.084673e+003, 2.515577e-002
2.086601e+003, 2.517281e-002
2.088530e+003, 2.499327e-002
2.090458e+003, 2.487276e-002
2.092386e+003, 2.479739e-002
2.094315e+003, 2.505608e-002
2.096243e+003, 2.575815e-002
2.098172e+003, 2.596675e-002
2.100100e+003, 2.620433e-002
2.102029e+003, 2.620414e-002
2.103957e+003, 2.564669e-002
2.105886e+003, 2.604438e-002
2.107814e+003, 2.671975e-002
2.109743e+003, 2.595877e-002
2.111671e+003, 2.531314e-002
2.113600e+003, 2.523010e-002
2.115528e+003, 2.502938e-002
2.117457e+003, 2.529511e-002
2.119385e+003, 2.391722e-002
2.121313e+003, 2.380765e-002
2.123242e+003, 2.541104e-002
2.125170e+003, 2.512156e-002
2.127099e+003, 2.424196e-002
2.129027e+003, 2.400986e-002
2.130956e+003, 2.280822e-002
2.132884e+003, 2.271337e-002
2.134813e+003, 2.448485e-002
2.136741e+003, 2.465161e-002
2.138670e+003, 2.386453e-002
2.140598e+003, 2.365147e-002
2.142527e+003, 2.257364e-002
2.144455e+003, 2.232965e-002
2.146384e+003, 2.217386e-002
2.148312e+003, 2.256436e-002
2.150240e+003, 2.529881e-002
2.152169e+003, 2.538861e-002
2.154097e+003, 2.056225e-002
2.156026e+003, 1.843421e-002
2.157954e+003, 2.044708e-002
2.159883e+003, 2.419049e-002
2.161811e+003, 2.572351e-002
2.163740e+003, 2.480274e-002
2.165668e+003, 2.440630e-002
2.167597e+003, 2.577803e-002
2.169525e+003, 2.608778e-002
2.171454e+003, 2.686934e-002
2.173382e+003, 2.623914e-002
2.175311e+003, 2.544694e-002
2.177239e+003, 2.669699e-002
2.179167e+003, 2.801888e-002
2.181096e+003, 2.872290e-002
2.183024e+003, 2.816870e-002
2.184953e+003, 2.705942e-002
2.186881e+003, 2.582493e-002
2.188810e+003, 2.483226e-002
2.190738e+003, 2.464841e-002
2.192667e+003, 2.542567e-002
2.194595e+003, 2.645750e-002
2.196524e+003, 2.711219e-002
2.198452e+003, 2.547600e-002
2.200381e+003, 2.449640e-002
2.202309e+003, 2.469789e-002
2.204238e+003, 2.535523e-002
2.206166e+003, 2.615540e-002
2.208094e+003, 2.580080e-002
2.210023e+003, 2.596853e-002
2.211951e+003, 2.584669e-002
2.213880e+003, 2.538722e-002
2.215808e+003, 2.643580e-002
2.217737e+003, 2.616467e-002
2.219665e+003, 2.550070e-002
2.221594e+003, 2.647241e-002
2.223522e+003, 2.744306e-002
2.225451e+003, 2.668740e-002
2.227379e+003, 2.620717e-002
2.229308e+003, 2.750765e-002
2.231236e+003, 2.712176e-002
2.233165e+003, 2.538918e-002
2.235093e+003, 2.600388e-002
2.237021e+003, 2.811187e-002
2.238950e+003, 2.837031e-002
2.240878e+003, 2.837825e-002
2.242807e+003, 2.810336e-002
2.244735e+003, 2.744134e-002
2.246664e+003, 2.778563e-002
2.248592e+003, 2.788617e-002
2.250521e+003, 2.798305e-002
2.252449e+003, 2.914470e-002
2.254378e+003, 2.912501e-002
2.256306e+003, 2.910384e-002
2.258235e+003, 2.922140e-002
2.260163e+003, 2.864023e-002
2.262092e+003, 2.890110e-002
2.264020e+003, 2.934369e-002
2.265948e+003, 2.890627e-002
2.267877e+003, 2.898462e-002
2.269805e+003, 2.886345e-002
2.271734e+003, 2.912114e-002
2.273662e+003, 2.903862e-002
2.275591e+003, 2.900789e-002
2.277519e+003, 2.924153e-002
2.279448e+003, 2.948376e-002
2.281376e+003, 2.966317e-002
2.283305e+003, 3.015845e-002
2.285233e+003, 3.013744e-002
2.287162e+003, 2.998910e-002
2.289090e+003, 2.916684e-002
2.291019e+003, 2.931257e-002
2.292947e+003, 2.977310e-002
2.294875e+003, 2.959839e-002
2.296804e+003, 2.954025e-002
2.298732e+003, 2.978747e-002
2.300661e+003, 2.972797e-002
2.302589e+003, 3.023814e-002
2.304518e+003, 3.046415e-002
2.306446e+003, 3.017083e-002
2.308375e+003, 2.992373e-002
2.310303e+003, 3.002539e-002
2.312232e+003, 3.024522e-002
2.314160e+003, 3.025030e-002
2.316089e+003, 3.001450e-002
2.318017e+003, 3.016787e-002
2.319946e+003, 3.093329e-002
2.321874e+003, 3.162829e-002
2.323802e+003, 3.144329e-002
2.325731e+003, 3.057980e-002
2.327659e+003, 3.024077e-002
2.329588e+003, 3.005865e-002
2.331516e+003, 3.028585e-002
2.333445e+003, 3.008675e-002
2.335373e+003, 2.970268e-002
2.337302e+003, 2.993043e-002
2.339230e+003, 3.029981e-002
2.341159e+003, 3.040767e-002
2.343087e+003, 3.026583e-002
2.345016e+003, 3.041979e-002
2.346944e+003, 2.998911e-002
2.348873e+003, 2.988747e-002
2.350801e+003, 3.001595e-002
2.352729e+003, 3.011892e-002
2.354658e+003, 3.011508e-002
2.356586e+003, 2.994672e-002
2.358515e+003, 3.012435e-002
2.360443e+003, 3.017794e-002
2.362372e+003, 2.972954e-002
2.364300e+003, 2.980415e-002
2.366229e+003, 2.986483e-002
2.368157e+003, 2.942646e-002
2.370086e+003, 2.958516e-002
2.372014e+003, 3.010770e-002
2.373942e+003, 3.017909e-002
2.375871e+003, 3.013896e-002
2.377799e+003, 2.991919e-002
2.379728e+003, 2.924877e-002
2.381656e+003, 2.883928e-002
2.383585e+003, 2.918364e-002
2.385513e+003, 2.965872e-002
2.387442e+003, 3.012294e-002
2.389370e+003, 3.055690e-002
2.391299e+003, 3.016856e-002
2.393227e+003, 2.972610e-002
2.395156e+003, 2.969449e-002
2.397084e+003, 2.996976e-002
2.399012e+003, 2.983717e-002
2.400941e+003, 2.945111e-002
2.402869e+003, 3.001029e-002
2.404798e+003, 2.988039e-002
2.406726e+003, 2.958324e-002
2.408655e+003, 3.002007e-002
2.410583e+003, 3.027716e-002
2.412512e+003, 3.005994e-002
2.414440e+003, 2.971906e-002
2.416369e+003, 2.947444e-002
2.418297e+003, 2.949273e-002
2.420226e+003, 2.977669e-002
2.422154e+003, 3.017080e-002
2.424083e+003, 3.099735e-002
2.426011e+003, 3.128195e-002
2.427939e+003, 3.068944e-002
2.429868e+003, 3.014328e-002
2.431796e+003, 3.001022e-002
2.433725e+003, 3.010955e-002
2.435653e+003, 2.970352e-002
2.437582e+003, 2.971915e-002
2.439510e+003, 3.028431e-002
2.441439e+003, 3.126890e-002
2.443367e+003, 3.123143e-002
2.445296e+003, 3.064771e-002
2.447224e+003, 3.099594e-002
2.449153e+003, 3.105471e-002
2.451081e+003, 3.070747e-002
2.453010e+003, 3.041641e-002
2.454938e+003, 3.014598e-002
2.456866e+003, 3.120342e-002
2.458795e+003, 3.164613e-002
2.460723e+003, 3.067432e-002
2.462652e+003, 2.985030e-002
2.464580e+003, 2.971115e-002
2.466509e+003, 3.079142e-002
2.468437e+003, 3.148683e-002
2.470366e+003, 3.052814e-002
2.472294e+003, 2.989684e-002
2.474223e+003, 2.995987e-002
2.476151e+003, 3.058320e-002
2.478080e+003, 3.119773e-002
2.480008e+003, 3.100167e-002
2.481937e+003, 3.108035e-002
2.483865e+003, 3.130786e-002
2.485793e+003, 3.048138e-002
2.487722e+003, 3.007625e-002
2.489650e+003, 3.152502e-002
2.491579e+003, 3.177289e-002
2.493507e+003, 3.120571e-002
2.495436e+003, 3.054513e-002
2.497364e+003, 3.048052e-002
2.499293e+003, 3.123937e-002
2.501221e+003, 3.168270e-002
2.503150e+003, 3.177444e-002
2.505078e+003, 3.148364e-002
2.507007e+003, 3.118370e-002
2.508935e+003, 3.122906e-002
2.510864e+003, 3.120108e-002
2.512792e+003, 3.140890e-002
2.514720e+003, 3.180898e-002
2.516649e+003, 3.161054e-002
2.518577e+003, 3.092748e-002
2.520506e+003, 3.037236e-002
2.522434e+003, 3.074871e-002
2.524363e+003, 3.167539e-002
2.526291e+003, 3.183733e-002
2.528220e+003, 3.188043e-002
2.530148e+003, 3.197195e-002
2.532077e+003, 3.207093e-002
2.534005e+003, 3.172689e-002
2.535934e+003, 3.128700e-002
2.537862e+003, 3.166211e-002
2.539791e+003, 3.179302e-002
2.541719e+003, 3.101915e-002
2.543647e+003, 3.090834e-002
2.545576e+003, 3.136493e-002
2.547504e+003, 3.169733e-002
2.549433e+003, 3.169633e-002
2.551361e+003, 3.158904e-002
2.553290e+003, 3.184053e-002
2.555218e+003, 3.168610e-002
2.557147e+003, 3.093387e-002
2.559075e+003, 3.084589e-002
2.561004e+003, 3.182346e-002
2.562932e+003, 3.285909e-002
2.564861e+003, 3.318665e-002
2.566789e+003, 3.211147e-002
2.568718e+003, 3.218406e-002
2.570646e+003, 3.289283e-002
2.572574e+003, 3.283419e-002
2.574503e+003, 3.271491e-002
2.576431e+003, 3.258780e-002
2.578360e+003, 3.269264e-002
2.580288e+003, 3.247888e-002
2.582217e+003, 3.281938e-002
2.584145e+003, 3.323099e-002
2.586074e+003, 3.314029e-002
2.588002e+003, 3.315341e-002
2.589931e+003, 3.299136e-002
2.591859e+003, 3.248321e-002
2.593788e+003, 3.306131e-002
2.595716e+003, 3.368065e-002
2.597645e+003, 3.341190e-002
2.599573e+003, 3.278960e-002
2.601501e+003, 3.195320e-002
2.603430e+003, 3.162467e-002
2.605358e+003, 3.245266e-002
2.607287e+003, 3.372579e-002
2.609215e+003, 3.403999e-002
2.611144e+003, 3.415712e-002
2.613072e+003, 3.454464e-002
2.615001e+003, 3.423924e-002
2.616929e+003, 3.323465e-002
2.618858e+003, 3.340460e-002
2.620786e+003, 3.409276e-002
2.622715e+003, 3.499545e-002
2.624643e+003, 3.509366e-002
2.626572e+003, 3.516217e-002
2.628500e+003, 3.506041e-002
2.630428e+003, 3.486311e-002
2.632357e+003, 3.519660e-002
2.634285e+003, 3.555612e-002
2.636214e+003, 3.584794e-002
2.638142e+003, 3.533109e-002
2.640071e+003, 3.497551e-002
2.641999e+003, 3.549912e-002
2.643928e+003, 3.559718e-002
2.645856e+003, 3.505117e-002
2.647785e+003, 3.513028e-002
2.649713e+003, 3.557933e-002
2.651642e+003, 3.562574e-002
2.653570e+003, 3.562300e-002
2.655499e+003, 3.567282e-002
2.657427e+003, 3.590930e-002
2.659355e+003, 3.561113e-002
2.661284e+003, 3.550654e-002
2.663212e+003, 3.569009e-002
2.665141e+003, 3.603676e-002
2.667069e+003, 3.601012e-002
2.668998e+003, 3.526262e-002
2.670926e+003, 3.493624e-002
2.672855e+003, 3.521503e-002
2.674783e+003, 3.543410e-002
2.676712e+003, 3.570212e-002
2.678640e+003, 3.557807e-002
2.680569e+003, 3.490997e-002
2.682497e+003, 3.502280e-002
2.684426e+003, 3.519045e-002
2.686354e+003, 3.526049e-002
2.688282e+003, 3.533566e-002
2.690211e+003, 3.519982e-002
2.692139e+003, 3.509731e-002
2.694068e+003, 3.537739e-002
2.695996e+003, 3.569705e-002
2.697925e+003, 3.557712e-002
2.699853e+003, 3.522327e-002
2.701782e+003, 3.577587e-002
2.703710e+003, 3.673223e-002
2.705639e+003, 3.654641e-002
2.707567e+003, 3.618189e-002
2.709496e+003, 3.630935e-002
2.711424e+003, 3.608205e-002
2.713353e+003, 3.628865e-002
2.715281e+003, 3.619895e-002
2.717209e+003, 3.593237e-002
2.719138e+003, 3.642173e-002
2.721066e+003, 3.653747e-002
2.722995e+003, 3.595577e-002
2.724923e+003, 3.548151e-002
2.726852e+003, 3.595499e-002
2.728780e+003, 3.674021e-002
2.730709e+003, 3.650439e-002
2.732637e+003, 3.658618e-002
2.734566e+003, 3.680499e-002
2.736494e+003, 3.667298e-002
2.738423e+003, 3.614671e-002
2.740351e+003, 3.595394e-002
2.742280e+003, 3.666168e-002
2.744208e+003, 3.675738e-002
2.746136e+003, 3.679622e-002
2.748065e+003, 3.685444e-002
2.749993e+003, 3.707533e-002
2.751922e+003, 3.730749e-002
2.753850e+003, 3.720336e-002
2.755779e+003, 3.696755e-002
2.757707e+003, 3.718796e-002
2.759636e+003, 3.745226e-002
2.761564e+003, 3.664527e-002
2.763493e+003, 3.671731e-002
2.765421e+003, 3.725703e-002
2.767350e+003, 3.691233e-002
2.769278e+003, 3.711035e-002
2.771207e+003, 3.712187e-002
2.773135e+003, 3.727921e-002
2.775063e+003, 3.735808e-002
2.776992e+003, 3.762405e-002
2.778920e+003, 3.768243e-002
2.780849e+003, 3.770875e-002
2.782777e+003, 3.748148e-002
2.784706e+003, 3.749095e-002
2.786634e+003, 3.745934e-002
2.788563e+003, 3.735946e-002
2.790491e+003, 3.768634e-002
2.792420e+003, 3.808796e-002
2.794348e+003, 3.817827e-002
2.796277e+003, 3.776797e-002
2.798205e+003, 3.741634e-002
2.800134e+003, 3.739776e-002
2.802062e+003, 3.816225e-002
2.803990e+003, 3.866275e-002
2.805919e+003, 3.886340e-002
2.807847e+003, 3.877429e-002
2.809776e+003, 3.828517e-002
2.811704e+003, 3.864455e-002
2.813633e+003, 3.874459e-002
2.815561e+003, 3.859896e-002
2.817490e+003, 3.889440e-002
2.819418e+003, 3.924905e-002
2.821347e+003, 3.904360e-002
2.823275e+003, 3.879033e-002
2.825204e+003, 3.881732e-002
2.827132e+003, 3.834333e-002
2.829061e+003, 3.832871e-002
2.830989e+003, 3.794827e-002
2.832917e+003, 3.802838e-002
2.834846e+003, 3.881953e-002
2.836774e+003, 3.946718e-002
2.838703e+003, 3.953705e-002
2.840631e+003, 3.962289e-002
2.842560e+003, 3.989634e-002
2.844488e+003, 4.055968e-002
2.846417e+003, 3.999050e-002
2.848345e+003, 3.957918e-002
2.850274e+003, 3.979944e-002
2.852202e+003, 4.000938e-002
2.854131e+003, 3.925591e-002
2.856059e+003, 3.854155e-002
2.857988e+003, 3.863402e-002
2.859916e+003, 3.863302e-002
2.861844e+003, 3.875792e-002
2.863773e+003, 3.810814e-002
2.865701e+003, 3.773589e-002
2.867630e+003, 3.782387e-002
2.869558e+003, 3.842935e-002
2.871487e+003, 3.955726e-002
2.873415e+003, 3.972390e-002
2.875344e+003, 3.916953e-002
2.877272e+003, 3.900942e-002
2.879201e+003, 3.959848e-002
2.881129e+003, 4.070826e-002
2.883058e+003, 4.091880e-002
2.884986e+003, 4.022456e-002
2.886915e+003, 4.028757e-002
2.888843e+003, 4.060894e-002
2.890771e+003, 4.070639e-002
2.892700e+003, 4.087777e-002
2.894628e+003, 4.078960e-002
2.896557e+003, 3.999194e-002
2.898485e+003, 3.984226e-002
2.900414e+003, 4.081488e-002
2.902342e+003, 4.051951e-002
2.904271e+003, 4.016922e-002
2.906199e+003, 4.045391e-002
2.908128e+003, 4.074357e-002
2.910056e+003, 4.037275e-002
2.911985e+003, 4.043817e-002
2.913913e+003, 4.113997e-002
2.915842e+003, 4.167062e-002
2.917770e+003, 4.172631e-002
2.919698e+003, 4.068125e-002
2.921627e+003, 3.964348e-002
2.923555e+003, 3.946024e-002
2.925484e+003, 3.898422e-002
2.927412e+003, 3.829473e-002
2.929341e+003, 3.826164e-002
2.931269e+003, 3.870393e-002
2.933198e+003, 3.874784e-002
2.935126e+003, 3.864459e-002
2.937055e+003, 3.875701e-002
2.938983e+003, 3.865397e-002
2.940912e+003, 3.849982e-002
2.942840e+003, 3.887007e-002
2.944769e+003, 3.912193e-002
2.946697e+003, 3.924130e-002
2.948625e+003, 3.962360e-002
2.950554e+003, 3.957754e-002
2.952482e+003, 3.965688e-002
2.954411e+003, 4.021046e-002
2.956339e+003, 4.025262e-002
2.958268e+003, 3.957907e-002
2.960196e+003, 3.981732e-002
2.962125e+003, 3.982827e-002
2.964053e+003, 4.013666e-002
2.965982e+003, 4.056189e-002
2.967910e+003, 4.005129e-002
2.969839e+003, 4.014629e-002
2.971767e+003, 4.006881e-002
2.973696e+003, 4.018484e-002
2.975624e+003, 4.093522e-002
2.977552e+003, 4.030485e-002
2.979481e+003, 4.013404e-002
2.981409e+003, 4.082375e-002
2.983338e+003, 4.043034e-002
2.985266e+003, 4.126029e-002
2.987195e+003, 4.175315e-002
2.989123e+003, 4.127992e-002
2.991052e+003, 4.097312e-002
2.992980e+003, 4.064339e-002
2.994909e+003, 4.000240e-002
2.996837e+003, 3.963685e-002
2.998766e+003, 4.091861e-002
3.000694e+003, 4.172174e-002
3.002623e+003, 4.157069e-002
3.004551e+003, 4.179529e-002
3.006479e+003, 4.176093e-002
3.008408e+003, 4.131931e-002
3.010336e+003, 4.117586e-002
3.012265e+003, 4.169250e-002
3.014193e+003, 4.234404e-002
3.016122e+003, 4.210070e-002
3.018050e+003, 4.144288e-002
3.019979e+003, 4.128069e-002
3.021907e+003, 4.153156e-002
3.023836e+003, 4.290110e-002
3.025764e+003, 4.343322e-002
3.027693e+003, 4.307251e-002
3.029621e+003, 4.275069e-002
3.031550e+003, 4.265962e-002
3.033478e+003, 4.415875e-002
3.035406e+003, 4.456369e-002
3.037335e+003, 4.255686e-002
3.039263e+003, 4.239709e-002
3.041192e+003, 4.289039e-002
3.043120e+003, 4.258892e-002
3.045049e+003, 4.246345e-002
3.046977e+003, 4.232002e-002
3.048906e+003, 4.287229e-002
3.050834e+003, 4.318298e-002
3.052763e+003, 4.330179e-002
3.054691e+003, 4.372831e-002
3.056620e+003, 4.373215e-002
3.058548e+003, 4.391141e-002
3.060477e+003, 4.449645e-002
3.062405e+003, 4.410742e-002
3.064333e+003, 4.361469e-002
3.066262e+003, 4.422494e-002
3.068190e+003, 4.455736e-002
3.070119e+003, 4.490390e-002
3.072047e+003, 4.537543e-002
3.073976e+003, 4.531470e-002
3.075904e+003, 4.458348e-002
3.077833e+003, 4.411355e-002
3.079761e+003, 4.508767e-002
3.081690e+003, 4.625630e-002
3.083618e+003, 4.691505e-002
3.085547e+003, 4.714020e-002
3.087475e+003, 4.621203e-002
3.089404e+003, 4.565562e-002
3.091332e+003, 4.607567e-002
3.093260e+003, 4.636066e-002
3.095189e+003, 4.505331e-002
3.097117e+003, 4.452349e-002
3.099046e+003, 4.577490e-002
3.100974e+003, 4.687549e-002
3.102903e+003, 4.645516e-002
3.104831e+003, 4.576132e-002
3.106760e+003, 4.632461e-002
3.108688e+003, 4.795914e-002
3.110617e+003, 4.803376e-002
3.112545e+003, 4.735456e-002
3.114474e+003, 4.774693e-002
3.116402e+003, 4.760680e-002
3.118331e+003, 4.697190e-002
3.120259e+003, 4.688840e-002
3.122188e+003, 4.692225e-002
3.124116e+003, 4.741254e-002
3.126044e+003, 4.804683e-002
3.127973e+003, 4.811589e-002
3.129901e+003, 4.747147e-002
3.131830e+003, 4.779126e-002
3.133758e+003, 4.840163e-002
3.135687e+003, 4.890744e-002
3.137615e+003, 4.896294e-002
3.139544e+003, 4.826054e-002
3.141472e+003, 4.799543e-002
3.143401e+003, 4.797179e-002
3.145329e+003, 4.798542e-002
3.147258e+003, 4.825077e-002
3.149186e+003, 4.846381e-002
3.151115e+003, 4.847061e-002
3.153043e+003, 4.899295e-002
3.154971e+003, 4.905410e-002
3.156900e+003, 4.919494e-002
3.158828e+003, 4.844781e-002
3.160757e+003, 4.863155e-002
3.162685e+003, 4.886771e-002
3.164614e+003, 4.913652e-002
3.166542e+003, 5.041803e-002
3.168471e+003, 5.076130e-002
3.170399e+003, 5.048607e-002
3.172328e+003, 5.052310e-002
3.174256e+003, 5.111871e-002
3.176185e+003, 5.192298e-002
3.178113e+003, 5.170287e-002
3.180042e+003, 5.059178e-002
3.181970e+003, 5.014190e-002
3.183898e+003, 5.035006e-002
3.185827e+003, 5.064548e-002
3.187755e+003, 5.091317e-002
3.189684e+003, 5.096658e-002
3.191612e+003, 5.136358e-002
3.193541e+003, 5.141127e-002
3.195469e+003, 5.100475e-002
3.197398e+003, 5.113551e-002
3.199326e+003, 5.200113e-002
3.201255e+003, 5.239362e-002
3.203183e+003, 5.210391e-002
3.205112e+003, 5.140638e-002
3.207040e+003, 5.147812e-002
3.208969e+003, 5.137996e-002
3.210897e+003, 5.168610e-002
3.212825e+003, 5.248548e-002
3.214754e+003, 5.290219e-002
3.216682e+003, 5.255055e-002
3.218611e+003, 5.224099e-002
3.220539e+003, 5.210866e-002
3.222468e+003, 5.197956e-002
3.224396e+003, 5.295727e-002
3.226325e+003, 5.262347e-002
3.228253e+003, 5.262436e-002
3.230182e+003, 5.311327e-002
3.232110e+003, 5.370300e-002
3.234039e+003, 5.417806e-002
3.235967e+003, 5.284461e-002
3.237896e+003, 5.230822e-002
3.239824e+003, 5.315409e-002
3.241752e+003, 5.361232e-002
3.243681e+003, 5.301645e-002
3.245609e+003, 5.379069e-002
3.247538e+003, 5.467494e-002
3.249466e+003, 5.330650e-002
3.251395e+003, 5.310917e-002
3.253323e+003, 5.395912e-002
3.255252e+003, 5.389328e-002
3.257180e+003, 5.356689e-002
3.259109e+003, 5.342309e-002
3.261037e+003, 5.377383e-002
3.262966e+003, 5.434170e-002
3.264894e+003, 5.437319e-002
3.266823e+003, 5.408635e-002
3.268751e+003, 5.431952e-002
3.270679e+003, 5.464809e-002
3.272608e+003, 5.478505e-002
3.274536e+003, 5.428794e-002
3.276465e+003, 5.365434e-002
3.278393e+003, 5.367135e-002
3.280322e+003, 5.469513e-002
3.282250e+003, 5.453549e-002
3.284179e+003, 5.524091e-002
3.286107e+003, 5.571841e-002
3.288036e+003, 5.548728e-002
3.289964e+003, 5.503231e-002
3.291893e+003, 5.475026e-002
3.293821e+003, 5.341879e-002
3.295750e+003, 5.376305e-002
3.297678e+003, 5.470669e-002
3.299606e+003, 5.469292e-002
3.301535e+003, 5.416078e-002
3.303463e+003, 5.459515e-002
3.305392e+003, 5.711942e-002
3.307320e+003, 5.791345e-002
3.309249e+003, 5.621119e-002
3.311177e+003, 5.615704e-002
3.313106e+003, 5.603904e-002
3.315034e+003, 5.569340e-002
3.316963e+003, 5.641366e-002
3.318891e+003, 5.681720e-002
3.320820e+003, 5.588974e-002
3.322748e+003, 5.560678e-002
3.324677e+003, 5.529790e-002
3.326605e+003, 5.495875e-002
3.328533e+003, 5.564744e-002
3.330462e+003, 5.566950e-002
3.332390e+003, 5.604006e-002
3.334319e+003, 5.646346e-002
3.336247e+003, 5.625780e-002
3.338176e+003, 5.604416e-002
3.340104e+003, 5.665104e-002
3.342033e+003, 5.669775e-002
3.343961e+003, 5.565087e-002
3.345890e+003, 5.502800e-002
3.347818e+003, 5.479984e-002
3.349747e+003, 5.503630e-002
3.351675e+003, 5.540162e-002
3.353604e+003, 5.528264e-002
3.355532e+003, 5.588361e-002
3.357460e+003, 5.649176e-002
3.359389e+003, 5.690037e-002
3.361317e+003, 5.637167e-002
3.363246e+003, 5.635231e-002
3.365174e+003, 5.693303e-002
3.367103e+003, 5.698410e-002
3.369031e+003, 5.642135e-002
3.370960e+003, 5.569366e-002
3.372888e+003, 5.637024e-002
3.374817e+003, 5.670550e-002
3.376745e+003, 5.641804e-002
3.378674e+003, 5.586242e-002
3.380602e+003, 5.589184e-002
3.382531e+003, 5.642532e-002
3.384459e+003, 5.676752e-002
3.386387e+003, 5.649766e-002
3.388316e+003, 5.693682e-002
3.390244e+003, 5.755534e-002
3.392173e+003, 5.613367e-002
3.394101e+003, 5.635921e-002
3.396030e+003, 5.743511e-002
3.397958e+003, 5.723425e-002
3.399887e+003, 5.587626e-002
3.401815e+003, 5.515122e-002
3.403744e+003, 5.528341e-002
3.405672e+003, 5.548739e-002
3.407601e+003, 5.513370e-002
3.409529e+003, 5.467097e-002
3.411458e+003, 5.599059e-002
3.413386e+003, 5.630483e-002
3.415314e+003, 5.536645e-002
3.417243e+003, 5.603917e-002
3.419171e+003, 5.672539e-002
3.421100e+003, 5.753100e-002
3.423028e+003, 5.682168e-002
3.424957e+003, 5.511670e-002
3.426885e+003, 5.489975e-002
3.428814e+003, 5.643472e-002
3.430742e+003, 5.742329e-002
3.432671e+003, 5.705642e-002
3.434599e+003, 5.623459e-002
3.436528e+003, 5.622146e-002
3.438456e+003, 5.685936e-002
3.440385e+003, 5.585277e-002
3.442313e+003, 5.551441e-002
3.444241e+003, 5.487504e-002
3.446170e+003, 5.448944e-002
3.448098e+003, 5.545714e-002
3.450027e+003, 5.744910e-002
3.451955e+003, 5.705706e-002
3.453884e+003, 5.558892e-002
3.455812e+003, 5.471042e-002
3.457741e+003, 5.489955e-002
3.459669e+003, 5.674826e-002
3.461598e+003, 5.721345e-002
3.463526e+003, 5.490860e-002
3.465455e+003, 5.437198e-002
3.467383e+003, 5.624064e-002
3.469312e+003, 5.757760e-002
3.471240e+003, 5.621305e-002
3.473168e+003, 5.638514e-002
3.475097e+003, 5.487119e-002
3.477025e+003, 5.292638e-002
3.478954e+003, 5.297323e-002
3.480882e+003, 5.401442e-002
3.482811e+003, 5.432194e-002
3.484739e+003, 5.437918e-002
3.486668e+003, 5.283904e-002
3.488596e+003, 5.305900e-002
3.490525e+003, 5.291248e-002
3.492453e+003, 5.260987e-002
3.494382e+003, 5.398432e-002
3.496310e+003, 5.399113e-002
3.498239e+003, 5.366450e-002
3.500167e+003, 5.436518e-002
3.502095e+003, 5.366254e-002
3.504024e+003, 5.357224e-002
3.505952e+003, 5.261846e-002
3.507881e+003, 5.198132e-002
3.509809e+003, 5.238979e-002
3.511738e+003, 5.208321e-002
3.513666e+003, 5.245139e-002
3.515595e+003, 5.361843e-002
3.517523e+003, 5.282377e-002
3.519452e+003, 5.206385e-002
3.521380e+003, 5.136072e-002
3.523309e+003, 5.092921e-002
3.525237e+003, 5.154078e-002
3.527166e+003, 5.396000e-002
3.529094e+003, 5.541335e-002
3.531022e+003, 5.412880e-002
3.532951e+003, 5.357087e-002
3.534879e+003, 5.359509e-002
3.536808e+003, 5.188534e-002
3.538736e+003, 5.071532e-002
3.540665e+003, 5.187364e-002
3.542593e+003, 5.369565e-002
3.544522e+003, 5.359631e-002
3.546450e+003, 5.289816e-002
3.548379e+003, 5.149466e-002
3.550307e+003, 5.194466e-002
3.552236e+003, 5.240601e-002
3.554164e+003, 5.194395e-002
3.556093e+003, 5.222459e-002
3.558021e+003, 5.179001e-002
3.559949e+003, 5.133630e-002
3.561878e+003, 5.100058e-002
3.563806e+003, 5.090428e-002
3.565735e+003, 5.264693e-002
3.567663e+003, 5.286000e-002
3.569592e+003, 4.966283e-002
3.571520e+003, 4.765950e-002
3.573449e+003, 4.772641e-002
3.575377e+003, 4.793851e-002
3.577306e+003, 4.903662e-002
3.579234e+003, 5.148909e-002
3.581163e+003, 5.207844e-002
3.583091e+003, 5.121858e-002
3.585020e+003, 5.047229e-002
3.586948e+003, 5.048189e-002
3.588876e+003, 5.025118e-002
3.590805e+003, 4.990999e-002
3.592733e+003, 5.009004e-002
3.594662e+003, 5.150639e-002
3.596590e+003, 5.188324e-002
3.598519e+003, 5.141688e-002
3.600447e+003, 5.148726e-002
3.602376e+003, 5.093352e-002
3.604304e+003, 5.151181e-002
3.606233e+003, 5.280256e-002
3.608161e+003, 5.359588e-002
3.610090e+003, 5.131718e-002
3.612018e+003, 4.715884e-002
3.613947e+003, 4.710252e-002
3.615875e+003, 4.804850e-002
3.617803e+003, 4.808264e-002
3.619732e+003, 4.836442e-002
3.621660e+003, 4.830435e-002
3.623589e+003, 4.801563e-002
3.625517e+003, 4.812147e-002
3.627446e+003, 4.838316e-002
3.629374e+003, 4.896848e-002
3.631303e+003, 4.844801e-002
3.633231e+003, 4.826811e-002
3.635160e+003, 4.808448e-002
3.637088e+003, 4.968590e-002
3.639017e+003, 4.970251e-002
3.640945e+003, 4.877673e-002
3.642874e+003, 4.940936e-002
3.644802e+003, 4.972609e-002
3.646730e+003, 4.812966e-002
3.648659e+003, 4.696578e-002
3.650587e+003, 4.750978e-002
3.652516e+003, 4.819299e-002
3.654444e+003, 4.833353e-002
3.656373e+003, 4.821374e-002
3.658301e+003, 4.954867e-002
3.660230e+003, 4.879957e-002
3.662158e+003, 4.824073e-002
3.664087e+003, 4.893777e-002
3.666015e+003, 4.950012e-002
3.667944e+003, 4.888938e-002
3.669872e+003, 4.913625e-002
3.671801e+003, 4.918259e-002
3.673729e+003, 4.970410e-002
3.675657e+003, 4.859511e-002
3.677586e+003, 4.885563e-002
3.679514e+003, 5.038083e-002
3.681443e+003, 5.054841e-002
3.683371e+003, 4.852516e-002
3.685300e+003, 4.867933e-002
3.687228e+003, 5.004099e-002
3.689157e+003, 4.887091e-002
3.691085e+003, 4.780253e-002
3.693014e+003, 4.777057e-002
3.694942e+003, 4.881506e-002
3.696871e+003, 5.083862e-002
3.698799e+003, 5.035360e-002
3.700728e+003, 4.986366e-002
3.702656e+003, 4.987604e-002
3.704584e+003, 4.968606e-002
3.706513e+003, 5.022521e-002
3.708441e+003, 4.930406e-002
3.710370e+003, 4.907499e-002
3.712298e+003, 4.900372e-002
3.714227e+003, 4.843826e-002
3.716155e+003, 4.889963e-002
3.718084e+003, 4.899855e-002
3.720012e+003, 4.811418e-002
3.721941e+003, 4.995328e-002
3.723869e+003, 5.242065e-002
3.725798e+003, 5.068560e-002
3.727726e+003, 4.921515e-002
3.729655e+003, 5.011981e-002
3.731583e+003, 5.122789e-002
3.733511e+003, 5.205524e-002
3.735440e+003, 5.057751e-002
3.737368e+003, 5.075811e-002
3.739297e+003, 5.229516e-002
3.741225e+003, 5.161021e-002
3.743154e+003, 5.027107e-002
3.745082e+003, 4.905947e-002
3.747011e+003, 5.092557e-002
3.748939e+003, 5.030338e-002
3.750868e+003, 5.061075e-002
3.752796e+003, 5.122526e-002
3.754725e+003, 4.981640e-002
3.756653e+003, 4.707215e-002
3.758582e+003, 4.822470e-002
3.760510e+003, 5.085607e-002
3.762438e+003, 5.213166e-002
3.764367e+003, 5.241383e-002
3.766295e+003, 5.235983e-002
3.768224e+003, 5.354469e-002
3.770152e+003, 5.328770e-002
3.772081e+003, 5.288496e-002
3.774009e+003, 5.131225e-002
3.775938e+003, 5.150189e-002
3.777866e+003, 5.263212e-002
3.779795e+003, 5.156964e-002
3.781723e+003, 5.019899e-002
3.783652e+003, 5.116764e-002
3.785580e+003, 5.302815e-002
3.787509e+003, 5.386453e-002
3.789437e+003, 5.419894e-002
3.791365e+003, 5.303640e-002
3.793294e+003, 5.331856e-002
3.795222e+003, 5.446214e-002
3.797151e+003, 5.413371e-002
3.799079e+003, 5.285462e-002
3.801008e+003, 5.110074e-002
3.802936e+003, 5.205314e-002
3.804865e+003, 5.269658e-002
3.806793e+003, 5.290278e-002
3.808722e+003, 5.423462e-002
3.810650e+003, 5.264935e-002
3.812579e+003, 5.204117e-002
3.814507e+003, 5.303394e-002
3.816436e+003, 5.270265e-002
3.818364e+003, 5.190551e-002
3.820292e+003, 5.137217e-002
3.822221e+003, 5.077560e-002
3.824149e+003, 5.172190e-002
3.826078e+003, 5.328229e-002
3.828006e+003, 5.393489e-002
3.829935e+003, 5.363429e-002
3.831863e+003, 5.234024e-002
3.833792e+003, 5.303675e-002
3.835720e+003, 5.283659e-002
3.837649e+003, 5.301028e-002
3.839577e+003, 5.392903e-002
3.841506e+003, 5.314142e-002
3.843434e+003, 5.481033e-002
3.845363e+003, 5.429760e-002
3.847291e+003, 5.259932e-002
3.849219e+003, 5.288325e-002
3.851148e+003, 5.341420e-002
3.853076e+003, 5.282623e-002
3.855005e+003, 5.191938e-002
3.856933e+003, 5.391141e-002
3.858862e+003, 5.448748e-002
3.860790e+003, 5.558839e-002
3.862719e+003, 5.592873e-002
3.864647e+003, 5.438534e-002
3.866576e+003, 5.423197e-002
3.868504e+003, 5.476820e-002
3.870433e+003, 5.457175e-002
3.872361e+003, 5.455968e-002
3.874290e+003, 5.539755e-002
3.876218e+003, 5.512585e-002
3.878146e+003, 5.408604e-002
3.880075e+003, 5.279999e-002
3.882003e+003, 5.442645e-002
3.883932e+003, 5.646524e-002
3.885860e+003, 5.507065e-002
3.887789e+003, 5.617499e-002
3.889717e+003, 5.541509e-002
3.891646e+003, 5.424071e-002
3.893574e+003, 5.532713e-002
3.895503e+003, 5.529312e-002
3.897431e+003, 5.527589e-002
3.899360e+003, 5.541616e-002
3.901288e+003, 5.498396e-002
3.903217e+003, 5.486209e-002
3.905145e+003, 5.447285e-002
3.907073e+003, 5.383992e-002
3.909002e+003, 5.445964e-002
3.910930e+003, 5.559895e-002
3.912859e+003, 5.507493e-002
3.914787e+003, 5.459936e-002
3.916716e+003, 5.528254e-002
3.918644e+003, 5.671559e-002
3.920573e+003, 5.482172e-002
3.922501e+003, 5.331369e-002
3.924430e+003, 5.378488e-002
3.926358e+003, 5.395224e-002
3.928287e+003, 5.612377e-002
3.930215e+003, 5.718525e-002
3.932144e+003, 5.634483e-002
3.934072e+003, 5.524926e-002
3.936000e+003, 5.692840e-002
3.937929e+003, 5.783028e-002
3.939857e+003, 5.594351e-002
3.941786e+003, 5.552986e-002
3.943714e+003, 5.573915e-002
3.945643e+003, 5.581309e-002
3.947571e+003, 5.670229e-002
3.949500e+003, 5.649520e-002
3.951428e+003, 5.671154e-002
3.953357e+003, 5.836490e-002
3.955285e+003, 5.851534e-002
3.957214e+003, 5.623639e-002
3.959142e+003, 5.342394e-002
3.961071e+003, 5.183966e-002
3.962999e+003, 5.603380e-002
3.964927e+003, 5.775448e-002
3.966856e+003, 5.549308e-002
3.968784e+003, 5.387241e-002
3.970713e+003, 5.531262e-002
3.972641e+003, 5.467940e-002
3.974570e+003, 5.262386e-002
3.976498e+003, 5.350031e-002
3.978427e+003, 5.557548e-002
3.980355e+003, 5.615905e-002
3.982284e+003, 5.562053e-002
3.984212e+003, 5.542755e-002
3.986141e+003, 5.466960e-002
3.988069e+003, 5.527483e-002
3.989998e+003, 5.677922e-002
3.991926e+003, 5.628292e-002
3.993854e+003, 5.555931e-002
3.995783e+003, 5.583440e-002
3.997711e+003, 5.590205e-002
3.999640e+003, 5.592988e-002
##END=



