##NAMES=Ferberite
##RRUFFID=R040044
##IDEAL CHEMISTRY=Fe^2+^W^6+^O_4_
##LOCALITY=Chocote, Bolivia
##OWNER=RRUFF
##SOURCE=University of Arizona Mineral Museum
##DESCRIPTION=Black tabular single crystal
##STATUS=The identification of this mineral has been confirmed by X-ray diffraction and chemical analysis
##URL=rruff.info/R040044
##MEASURED CHEMISTRY=(Fe_0.82_Mn_0.08_Mg_0.07_Pb_0.03_)_Î£=1_W_1.00_O_4_
3.991926e+002, 0.000000e+000
4.011211e+002, 2.292736e-001
4.030496e+002, 2.303335e-001
4.049780e+002, 2.362374e-001
4.069065e+002, 2.373799e-001
4.088350e+002, 2.393721e-001
4.107634e+002, 2.368832e-001
4.126919e+002, 2.383079e-001
4.146204e+002, 2.432841e-001
4.165488e+002, 2.383672e-001
4.184773e+002, 2.350355e-001
4.204058e+002, 2.382871e-001
4.223342e+002, 2.399435e-001
4.242627e+002, 2.365799e-001
4.261912e+002, 2.372065e-001
4.281196e+002, 2.376870e-001
4.300481e+002, 2.363813e-001
4.319766e+002, 2.393213e-001
4.339050e+002, 2.476810e-001
4.358335e+002, 2.538196e-001
4.377620e+002, 2.581166e-001
4.396904e+002, 2.612995e-001
4.416189e+002, 2.650167e-001
4.435474e+002, 2.703704e-001
4.454758e+002, 2.758008e-001
4.474043e+002, 2.816504e-001
4.493328e+002, 2.832959e-001
4.512612e+002, 2.843335e-001
4.531897e+002, 2.880051e-001
4.551182e+002, 2.916183e-001
4.570466e+002, 2.941883e-001
4.589751e+002, 2.932705e-001
4.609036e+002, 2.931709e-001
4.628320e+002, 2.949311e-001
4.647605e+002, 2.958325e-001
4.666890e+002, 2.943952e-001
4.686174e+002, 2.923032e-001
4.705459e+002, 2.917052e-001
4.724744e+002, 2.921809e-001
4.744028e+002, 2.925071e-001
4.763313e+002, 2.917643e-001
4.782598e+002, 2.930732e-001
4.801882e+002, 2.965401e-001
4.821167e+002, 2.995718e-001
4.840452e+002, 3.018714e-001
4.859736e+002, 3.027828e-001
4.879021e+002, 3.048565e-001
4.898306e+002, 3.081945e-001
4.917590e+002, 3.089155e-001
4.936875e+002, 3.097398e-001
4.956160e+002, 3.105639e-001
4.975444e+002, 3.111304e-001
4.994729e+002, 3.123324e-001
5.014014e+002, 3.119372e-001
5.033298e+002, 3.106501e-001
5.052583e+002, 3.101804e-001
5.071868e+002, 3.102213e-001
5.091152e+002, 3.095294e-001
5.110437e+002, 3.090319e-001
5.129722e+002, 3.071448e-001
5.149006e+002, 3.049843e-001
5.168291e+002, 3.029329e-001
5.187576e+002, 2.999645e-001
5.206860e+002, 2.961459e-001
5.226145e+002, 2.933577e-001
5.245430e+002, 2.914948e-001
5.264714e+002, 2.883863e-001
5.283999e+002, 2.854507e-001
5.303284e+002, 2.830882e-001
5.322568e+002, 2.810695e-001
5.341853e+002, 2.794395e-001
5.361138e+002, 2.778397e-001
5.380422e+002, 2.764740e-001
5.399707e+002, 2.748018e-001
5.418992e+002, 2.734146e-001
5.438276e+002, 2.723639e-001
5.457561e+002, 2.714393e-001
5.476846e+002, 2.716214e-001
5.496130e+002, 2.727576e-001
5.515415e+002, 2.739660e-001
5.534700e+002, 2.743857e-001
5.553984e+002, 2.753009e-001
5.573269e+002, 2.780157e-001
5.592554e+002, 2.811259e-001
5.611838e+002, 2.826644e-001
5.631123e+002, 2.853087e-001
5.650408e+002, 2.885904e-001
5.669692e+002, 2.903270e-001
5.688977e+002, 2.924954e-001
5.708262e+002, 2.949354e-001
5.727546e+002, 2.971418e-001
5.746831e+002, 2.993167e-001
5.766116e+002, 3.018108e-001
5.785400e+002, 3.030910e-001
5.804685e+002, 3.032622e-001
5.823970e+002, 3.040532e-001
5.843254e+002, 3.060122e-001
5.862539e+002, 3.083728e-001
5.881824e+002, 3.094597e-001
5.901108e+002, 3.095976e-001
5.920393e+002, 3.101822e-001
5.939678e+002, 3.110693e-001
5.958962e+002, 3.114509e-001
5.978247e+002, 3.118194e-001
5.997532e+002, 3.120654e-001
6.016816e+002, 3.121449e-001
6.036101e+002, 3.120932e-001
6.055386e+002, 3.118931e-001
6.074670e+002, 3.124961e-001
6.093955e+002, 3.120288e-001
6.113240e+002, 3.101356e-001
6.132524e+002, 3.089098e-001
6.151809e+002, 3.085564e-001
6.171094e+002, 3.078483e-001
6.190378e+002, 3.070316e-001
6.209663e+002, 3.057578e-001
6.228948e+002, 3.039545e-001
6.248232e+002, 3.031153e-001
6.267517e+002, 3.024234e-001
6.286802e+002, 3.003950e-001
6.306086e+002, 2.982708e-001
6.325371e+002, 2.963611e-001
6.344656e+002, 2.944831e-001
6.363940e+002, 2.928004e-001
6.383225e+002, 2.910603e-001
6.402510e+002, 2.893558e-001
6.421794e+002, 2.871579e-001
6.441079e+002, 2.852027e-001
6.460364e+002, 2.832039e-001
6.479648e+002, 2.807837e-001
6.498933e+002, 2.781998e-001
6.518218e+002, 2.761202e-001
6.537502e+002, 2.742234e-001
6.556787e+002, 2.719334e-001
6.576072e+002, 2.689420e-001
6.595356e+002, 2.665163e-001
6.614641e+002, 2.642524e-001
6.633926e+002, 2.615915e-001
6.653210e+002, 2.593968e-001
6.672495e+002, 2.571752e-001
6.691780e+002, 2.542195e-001
6.711064e+002, 2.511679e-001
6.730349e+002, 2.483025e-001
6.749634e+002, 2.451598e-001
6.768918e+002, 2.422269e-001
6.788203e+002, 2.395138e-001
6.807488e+002, 2.365010e-001
6.826772e+002, 2.337757e-001
6.846057e+002, 2.312522e-001
6.865342e+002, 2.284479e-001
6.884626e+002, 2.257498e-001
6.903911e+002, 2.232469e-001
6.923196e+002, 2.205514e-001
6.942480e+002, 2.172850e-001
6.961765e+002, 2.147182e-001
6.981050e+002, 2.123298e-001
7.000334e+002, 2.094455e-001
7.019619e+002, 2.064840e-001
7.038904e+002, 2.035730e-001
7.058188e+002, 2.006716e-001
7.077473e+002, 1.976729e-001
7.096758e+002, 1.943376e-001
7.116042e+002, 1.907838e-001
7.135327e+002, 1.874186e-001
7.154612e+002, 1.841895e-001
7.173896e+002, 1.808439e-001
7.193181e+002, 1.773527e-001
7.212466e+002, 1.736556e-001
7.231750e+002, 1.698967e-001
7.251035e+002, 1.661569e-001
7.270320e+002, 1.625250e-001
7.289604e+002, 1.587964e-001
7.308889e+002, 1.552038e-001
7.328174e+002, 1.516563e-001
7.347458e+002, 1.483826e-001
7.366743e+002, 1.452086e-001
7.386028e+002, 1.421724e-001
7.405313e+002, 1.396199e-001
7.424597e+002, 1.377798e-001
7.443882e+002, 1.365900e-001
7.463167e+002, 1.356265e-001
7.482451e+002, 1.351398e-001
7.501736e+002, 1.359413e-001
7.521021e+002, 1.372823e-001
7.540305e+002, 1.391344e-001
7.559590e+002, 1.415262e-001
7.578875e+002, 1.440872e-001
7.598159e+002, 1.468600e-001
7.617444e+002, 1.499492e-001
7.636729e+002, 1.533182e-001
7.656013e+002, 1.567927e-001
7.675298e+002, 1.601373e-001
7.694583e+002, 1.637329e-001
7.713867e+002, 1.668183e-001
7.733152e+002, 1.698377e-001
7.752437e+002, 1.731537e-001
7.771721e+002, 1.765798e-001
7.791006e+002, 1.795051e-001
7.810291e+002, 1.821768e-001
7.829575e+002, 1.850254e-001
7.848860e+002, 1.875333e-001
7.868145e+002, 1.898739e-001
7.887429e+002, 1.924229e-001
7.906714e+002, 1.944993e-001
7.925999e+002, 1.961851e-001
7.945283e+002, 1.978586e-001
7.964568e+002, 1.992751e-001
7.983853e+002, 2.002389e-001
8.003137e+002, 2.015007e-001
8.022422e+002, 2.029497e-001
8.041707e+002, 2.035396e-001
8.060991e+002, 2.033766e-001
8.080276e+002, 2.030977e-001
8.099561e+002, 2.031641e-001
8.118845e+002, 2.031296e-001
8.138130e+002, 2.025929e-001
8.157415e+002, 2.018937e-001
8.176699e+002, 2.007444e-001
8.195984e+002, 1.995494e-001
8.215269e+002, 1.982871e-001
8.234553e+002, 1.968125e-001
8.253838e+002, 1.949112e-001
8.273123e+002, 1.926056e-001
8.292407e+002, 1.903021e-001
8.311692e+002, 1.881879e-001
8.330977e+002, 1.857321e-001
8.350261e+002, 1.833143e-001
8.369546e+002, 1.807170e-001
8.388831e+002, 1.779311e-001
8.408115e+002, 1.748390e-001
8.427400e+002, 1.719907e-001
8.446685e+002, 1.693263e-001
8.465969e+002, 1.664278e-001
8.485254e+002, 1.637009e-001
8.504539e+002, 1.611259e-001
8.523823e+002, 1.583371e-001
8.543108e+002, 1.557407e-001
8.562393e+002, 1.527410e-001
8.581677e+002, 1.492004e-001
8.600962e+002, 1.454076e-001
8.620247e+002, 1.414023e-001
8.639531e+002, 1.372500e-001
8.658816e+002, 1.325123e-001
8.678101e+002, 1.275277e-001
8.697385e+002, 1.221086e-001
8.716670e+002, 1.164221e-001
8.735955e+002, 1.105213e-001
8.755239e+002, 1.042909e-001
8.774524e+002, 9.776895e-002
8.793809e+002, 9.099594e-002
8.813093e+002, 8.431365e-002
8.832378e+002, 7.727923e-002
8.851663e+002, 7.006665e-002
8.870947e+002, 6.291039e-002
8.890232e+002, 5.626103e-002
8.909517e+002, 5.016756e-002
8.928801e+002, 4.475021e-002
8.948085e+002, 3.993036e-002
8.967370e+002, 3.569932e-002
8.986655e+002, 3.258887e-002
9.005939e+002, 3.018493e-002
9.025224e+002, 2.826825e-002
9.044509e+002, 2.682073e-002
9.063793e+002, 2.574212e-002
9.083078e+002, 2.472402e-002
9.102363e+002, 2.380497e-002
9.121647e+002, 2.307980e-002
9.140932e+002, 2.241930e-002
9.160217e+002, 2.204240e-002
9.179501e+002, 2.176771e-002
9.198786e+002, 2.161412e-002
9.218071e+002, 2.147793e-002
9.237355e+002, 2.136986e-002
9.256640e+002, 2.123831e-002
9.275925e+002, 2.128860e-002
9.295209e+002, 2.129657e-002
9.314494e+002, 2.088026e-002
9.333779e+002, 2.052747e-002
9.353063e+002, 2.053088e-002
9.372348e+002, 2.048755e-002
9.391633e+002, 2.028448e-002
9.410917e+002, 2.007790e-002
9.430202e+002, 2.002192e-002
9.449487e+002, 1.999689e-002
9.468771e+002, 1.979896e-002
9.488056e+002, 1.978803e-002
9.507341e+002, 1.992211e-002
9.526625e+002, 1.993298e-002
9.545910e+002, 1.969556e-002
9.565195e+002, 1.969830e-002
9.584479e+002, 1.980034e-002
9.603764e+002, 1.993738e-002
9.623049e+002, 1.989920e-002
9.642333e+002, 1.991077e-002
9.661618e+002, 1.991482e-002
9.680903e+002, 1.997722e-002
9.700187e+002, 2.018926e-002
9.719472e+002, 2.033351e-002
9.738757e+002, 2.053139e-002
9.758041e+002, 2.072065e-002
9.777326e+002, 2.094382e-002
9.796611e+002, 2.105789e-002
9.815895e+002, 2.126916e-002
9.835180e+002, 2.148056e-002
9.854465e+002, 2.179033e-002
9.873749e+002, 2.219808e-002
9.893034e+002, 2.240780e-002
9.912319e+002, 2.259961e-002
9.931603e+002, 2.284229e-002
9.950888e+002, 2.304483e-002
9.970173e+002, 2.350911e-002
9.989457e+002, 2.404324e-002
1.000874e+003, 2.443830e-002
1.002803e+003, 2.468745e-002
1.004731e+003, 2.492608e-002
1.006660e+003, 2.535184e-002
1.008588e+003, 2.577395e-002
1.010517e+003, 2.604553e-002
1.012445e+003, 2.601135e-002
1.014373e+003, 2.587755e-002
1.016302e+003, 2.615988e-002
1.018230e+003, 2.664695e-002
1.020159e+003, 2.697964e-002
1.022087e+003, 2.733180e-002
1.024016e+003, 2.789446e-002
1.025944e+003, 2.842199e-002
1.027873e+003, 2.884091e-002
1.029801e+003, 2.910623e-002
1.031730e+003, 2.946667e-002
1.033658e+003, 2.969821e-002
1.035587e+003, 2.977383e-002
1.037515e+003, 2.987009e-002
1.039444e+003, 2.992499e-002
1.041372e+003, 3.010372e-002
1.043301e+003, 3.028997e-002
1.045229e+003, 3.038403e-002
1.047157e+003, 3.041142e-002
1.049086e+003, 3.055872e-002
1.051014e+003, 3.078613e-002
1.052943e+003, 3.106917e-002
1.054871e+003, 3.135270e-002
1.056800e+003, 3.152039e-002
1.058728e+003, 3.172083e-002
1.060657e+003, 3.182369e-002
1.062585e+003, 3.210035e-002
1.064514e+003, 3.255467e-002
1.066442e+003, 3.281529e-002
1.068371e+003, 3.296473e-002
1.070299e+003, 3.310414e-002
1.072228e+003, 3.332748e-002
1.074156e+003, 3.360676e-002
1.076084e+003, 3.388814e-002
1.078013e+003, 3.423013e-002
1.079941e+003, 3.460543e-002
1.081870e+003, 3.490888e-002
1.083798e+003, 3.520543e-002
1.085727e+003, 3.553826e-002
1.087655e+003, 3.582206e-002
1.089584e+003, 3.613238e-002
1.091512e+003, 3.650717e-002
1.093441e+003, 3.699554e-002
1.095369e+003, 3.745901e-002
1.097298e+003, 3.792582e-002
1.099226e+003, 3.839569e-002
1.101155e+003, 3.867347e-002
1.103083e+003, 3.882840e-002
1.105011e+003, 3.923288e-002
1.106940e+003, 3.964481e-002
1.108868e+003, 3.990649e-002
1.110797e+003, 4.016443e-002
1.112725e+003, 4.053374e-002
1.114654e+003, 4.073147e-002
1.116582e+003, 4.075490e-002
1.118511e+003, 4.093914e-002
1.120439e+003, 4.137593e-002
1.122368e+003, 4.178751e-002
1.124296e+003, 4.212979e-002
1.126225e+003, 4.231268e-002
1.128153e+003, 4.254816e-002
1.130082e+003, 4.290198e-002
1.132010e+003, 4.309863e-002
1.133938e+003, 4.339117e-002
1.135867e+003, 4.379984e-002
1.137795e+003, 4.420594e-002
1.139724e+003, 4.434015e-002
1.141652e+003, 4.453903e-002
1.143581e+003, 4.501429e-002
1.145509e+003, 4.537728e-002
1.147438e+003, 4.567374e-002
1.149366e+003, 4.606858e-002
1.151295e+003, 4.649710e-002
1.153223e+003, 4.685393e-002
1.155152e+003, 4.703948e-002
1.157080e+003, 4.731538e-002
1.159009e+003, 4.771951e-002
1.160937e+003, 4.814612e-002
1.162865e+003, 4.857859e-002
1.164794e+003, 4.881140e-002
1.166722e+003, 4.894570e-002
1.168651e+003, 4.915611e-002
1.170579e+003, 4.944272e-002
1.172508e+003, 4.975182e-002
1.174436e+003, 5.014458e-002
1.176365e+003, 5.057475e-002
1.178293e+003, 5.080644e-002
1.180222e+003, 5.082862e-002
1.182150e+003, 5.099145e-002
1.184079e+003, 5.129225e-002
1.186007e+003, 5.148944e-002
1.187936e+003, 5.183690e-002
1.189864e+003, 5.218281e-002
1.191792e+003, 5.245890e-002
1.193721e+003, 5.273511e-002
1.195649e+003, 5.287918e-002
1.197578e+003, 5.298249e-002
1.199506e+003, 5.326897e-002
1.201435e+003, 5.368888e-002
1.203363e+003, 5.399170e-002
1.205292e+003, 5.431730e-002
1.207220e+003, 5.453860e-002
1.209149e+003, 5.476720e-002
1.211077e+003, 5.501596e-002
1.213006e+003, 5.523745e-002
1.214934e+003, 5.554707e-002
1.216863e+003, 5.586659e-002
1.218791e+003, 5.602521e-002
1.220719e+003, 5.651059e-002
1.222648e+003, 5.698259e-002
1.224576e+003, 5.731453e-002
1.226505e+003, 5.783041e-002
1.228433e+003, 5.826319e-002
1.230362e+003, 5.869272e-002
1.232290e+003, 5.924501e-002
1.234219e+003, 5.956665e-002
1.236147e+003, 5.968739e-002
1.238076e+003, 6.009603e-002
1.240004e+003, 6.053563e-002
1.241933e+003, 6.068813e-002
1.243861e+003, 6.106744e-002
1.245790e+003, 6.161953e-002
1.247718e+003, 6.198514e-002
1.249646e+003, 6.221156e-002
1.251575e+003, 6.260064e-002
1.253503e+003, 6.305421e-002
1.255432e+003, 6.326739e-002
1.257360e+003, 6.364737e-002
1.259289e+003, 6.402092e-002
1.261217e+003, 6.424978e-002
1.263146e+003, 6.474401e-002
1.265074e+003, 6.521241e-002
1.267003e+003, 6.548550e-002
1.268931e+003, 6.584084e-002
1.270860e+003, 6.626847e-002
1.272788e+003, 6.662522e-002
1.274717e+003, 6.692156e-002
1.276645e+003, 6.735808e-002
1.278573e+003, 6.773280e-002
1.280502e+003, 6.805639e-002
1.282430e+003, 6.847003e-002
1.284359e+003, 6.876691e-002
1.286287e+003, 6.923726e-002
1.288216e+003, 6.982812e-002
1.290144e+003, 7.015577e-002
1.292073e+003, 7.058182e-002
1.294001e+003, 7.092158e-002
1.295930e+003, 7.131721e-002
1.297858e+003, 7.177170e-002
1.299787e+003, 7.213747e-002
1.301715e+003, 7.255444e-002
1.303644e+003, 7.294675e-002
1.305572e+003, 7.318833e-002
1.307500e+003, 7.358227e-002
1.309429e+003, 7.397428e-002
1.311357e+003, 7.422746e-002
1.313286e+003, 7.490554e-002
1.315214e+003, 7.542314e-002
1.317143e+003, 7.559512e-002
1.319071e+003, 7.603707e-002
1.321000e+003, 7.639351e-002
1.322928e+003, 7.665313e-002
1.324857e+003, 7.692608e-002
1.326785e+003, 7.715098e-002
1.328714e+003, 7.762899e-002
1.330642e+003, 7.806007e-002
1.332571e+003, 7.850337e-002
1.334499e+003, 7.882851e-002
1.336427e+003, 7.906628e-002
1.338356e+003, 7.943656e-002
1.340284e+003, 7.992124e-002
1.342213e+003, 8.037903e-002
1.344141e+003, 8.058651e-002
1.346070e+003, 8.078606e-002
1.347998e+003, 8.119231e-002
1.349927e+003, 8.160431e-002
1.351855e+003, 8.192491e-002
1.353784e+003, 8.215963e-002
1.355712e+003, 8.258081e-002
1.357641e+003, 8.296445e-002
1.359569e+003, 8.335818e-002
1.361498e+003, 8.391891e-002
1.363426e+003, 8.435699e-002
1.365354e+003, 8.463283e-002
1.367283e+003, 8.490831e-002
1.369211e+003, 8.520609e-002
1.371140e+003, 8.545101e-002
1.373068e+003, 8.583598e-002
1.374997e+003, 8.641151e-002
1.376925e+003, 8.700591e-002
1.378854e+003, 8.718222e-002
1.380782e+003, 8.742715e-002
1.382711e+003, 8.803474e-002
1.384639e+003, 8.850649e-002
1.386568e+003, 8.893441e-002
1.388496e+003, 8.924890e-002
1.390424e+003, 8.969469e-002
1.392353e+003, 9.019034e-002
1.394281e+003, 9.072338e-002
1.396210e+003, 9.119015e-002
1.398138e+003, 9.168452e-002
1.400067e+003, 9.221846e-002
1.401995e+003, 9.279746e-002
1.403924e+003, 9.344120e-002
1.405852e+003, 9.419648e-002
1.407781e+003, 9.477543e-002
1.409709e+003, 9.533318e-002
1.411638e+003, 9.603442e-002
1.413566e+003, 9.683393e-002
1.415495e+003, 9.732090e-002
1.417423e+003, 9.775508e-002
1.419351e+003, 9.818920e-002
1.421280e+003, 9.868582e-002
1.423208e+003, 9.920276e-002
1.425137e+003, 9.963548e-002
1.427065e+003, 1.000751e-001
1.428994e+003, 1.004445e-001
1.430922e+003, 1.008182e-001
1.432851e+003, 1.010757e-001
1.434779e+003, 1.013897e-001
1.436708e+003, 1.017630e-001
1.438636e+003, 1.020397e-001
1.440565e+003, 1.023613e-001
1.442493e+003, 1.026154e-001
1.444422e+003, 1.027929e-001
1.446350e+003, 1.029986e-001
1.448278e+003, 1.033002e-001
1.450207e+003, 1.036287e-001
1.452135e+003, 1.037516e-001
1.454064e+003, 1.038236e-001
1.455992e+003, 1.039720e-001
1.457921e+003, 1.040060e-001
1.459849e+003, 1.040410e-001
1.461778e+003, 1.040656e-001
1.463706e+003, 1.039541e-001
1.465635e+003, 1.039671e-001
1.467563e+003, 1.039554e-001
1.469492e+003, 1.039088e-001
1.471420e+003, 1.038816e-001
1.473349e+003, 1.038390e-001
1.475277e+003, 1.041852e-001
1.477205e+003, 1.043942e-001
1.479134e+003, 1.041598e-001
1.481062e+003, 1.040863e-001
1.482991e+003, 1.044389e-001
1.484919e+003, 1.046392e-001
1.486848e+003, 1.046259e-001
1.488776e+003, 1.048372e-001
1.490705e+003, 1.051355e-001
1.492633e+003, 1.053847e-001
1.494562e+003, 1.056343e-001
1.496490e+003, 1.057703e-001
1.498419e+003, 1.058089e-001
1.500347e+003, 1.057436e-001
1.502276e+003, 1.061115e-001
1.504204e+003, 1.066233e-001
1.506132e+003, 1.069562e-001
1.508061e+003, 1.070944e-001
1.509989e+003, 1.072314e-001
1.511918e+003, 1.075112e-001
1.513846e+003, 1.078359e-001
1.515775e+003, 1.082999e-001
1.517703e+003, 1.087342e-001
1.519632e+003, 1.089632e-001
1.521560e+003, 1.093457e-001
1.523489e+003, 1.097262e-001
1.525417e+003, 1.099924e-001
1.527346e+003, 1.102227e-001
1.529274e+003, 1.105459e-001
1.531203e+003, 1.107406e-001
1.533131e+003, 1.111020e-001
1.535059e+003, 1.114816e-001
1.536988e+003, 1.118726e-001
1.538916e+003, 1.121397e-001
1.540845e+003, 1.126003e-001
1.542773e+003, 1.129569e-001
1.544702e+003, 1.133432e-001
1.546630e+003, 1.137061e-001
1.548559e+003, 1.139839e-001
1.550487e+003, 1.140728e-001
1.552416e+003, 1.142719e-001
1.554344e+003, 1.146818e-001
1.556273e+003, 1.148815e-001
1.558201e+003, 1.152321e-001
1.560130e+003, 1.155565e-001
1.562058e+003, 1.156199e-001
1.563986e+003, 1.159768e-001
1.565915e+003, 1.163805e-001
1.567843e+003, 1.165980e-001
1.569772e+003, 1.167120e-001
1.571700e+003, 1.168565e-001
1.573629e+003, 1.174205e-001
1.575557e+003, 1.180519e-001
1.577486e+003, 1.182919e-001
1.579414e+003, 1.185124e-001
1.581343e+003, 1.188464e-001
1.583271e+003, 1.191056e-001
1.585200e+003, 1.194950e-001
1.587128e+003, 1.199379e-001
1.589057e+003, 1.201752e-001
1.590985e+003, 1.206978e-001
1.592913e+003, 1.209829e-001
1.594842e+003, 1.209028e-001
1.596770e+003, 1.211180e-001
1.598699e+003, 1.217450e-001
1.600627e+003, 1.218942e-001
1.602556e+003, 1.218433e-001
1.604484e+003, 1.222526e-001
1.606413e+003, 1.227529e-001
1.608341e+003, 1.228684e-001
1.610270e+003, 1.231244e-001
1.612198e+003, 1.235379e-001
1.614127e+003, 1.237963e-001
1.616055e+003, 1.238171e-001
1.617984e+003, 1.243625e-001
1.619912e+003, 1.249521e-001
1.621840e+003, 1.250570e-001
1.623769e+003, 1.252117e-001
1.625697e+003, 1.255231e-001
1.627626e+003, 1.259351e-001
1.629554e+003, 1.263948e-001
1.631483e+003, 1.265588e-001
1.633411e+003, 1.266208e-001
1.635340e+003, 1.266862e-001
1.637268e+003, 1.268636e-001
1.639197e+003, 1.272446e-001
1.641125e+003, 1.274103e-001
1.643054e+003, 1.275679e-001
1.644982e+003, 1.277264e-001
1.646911e+003, 1.279557e-001
1.648839e+003, 1.282834e-001
1.650767e+003, 1.283176e-001
1.652696e+003, 1.283184e-001
1.654624e+003, 1.284806e-001
1.656553e+003, 1.287630e-001
1.658481e+003, 1.289160e-001
1.660410e+003, 1.290342e-001
1.662338e+003, 1.291442e-001
1.664267e+003, 1.291384e-001
1.666195e+003, 1.290275e-001
1.668124e+003, 1.290869e-001
1.670052e+003, 1.293278e-001
1.671981e+003, 1.294452e-001
1.673909e+003, 1.293748e-001
1.675838e+003, 1.294362e-001
1.677766e+003, 1.294810e-001
1.679694e+003, 1.296753e-001
1.681623e+003, 1.299937e-001
1.683551e+003, 1.301982e-001
1.685480e+003, 1.301956e-001
1.687408e+003, 1.304742e-001
1.689337e+003, 1.305521e-001
1.691265e+003, 1.307080e-001
1.693194e+003, 1.309664e-001
1.695122e+003, 1.313388e-001
1.697051e+003, 1.312566e-001
1.698979e+003, 1.311529e-001
1.700908e+003, 1.313714e-001
1.702836e+003, 1.315855e-001
1.704765e+003, 1.316658e-001
1.706693e+003, 1.316918e-001
1.708621e+003, 1.319665e-001
1.710550e+003, 1.325393e-001
1.712478e+003, 1.331162e-001
1.714407e+003, 1.332686e-001
1.716335e+003, 1.333830e-001
1.718264e+003, 1.335425e-001
1.720192e+003, 1.338111e-001
1.722121e+003, 1.345214e-001
1.724049e+003, 1.348955e-001
1.725978e+003, 1.347935e-001
1.727906e+003, 1.348756e-001
1.729835e+003, 1.350273e-001
1.731763e+003, 1.354311e-001
1.733692e+003, 1.359949e-001
1.735620e+003, 1.361331e-001
1.737548e+003, 1.359624e-001
1.739477e+003, 1.361261e-001
1.741405e+003, 1.361418e-001
1.743334e+003, 1.359447e-001
1.745262e+003, 1.358607e-001
1.747191e+003, 1.359028e-001
1.749119e+003, 1.357508e-001
1.751048e+003, 1.356261e-001
1.752976e+003, 1.357863e-001
1.754905e+003, 1.358416e-001
1.756833e+003, 1.358155e-001
1.758762e+003, 1.360223e-001
1.760690e+003, 1.358168e-001
1.762619e+003, 1.358112e-001
1.764547e+003, 1.362057e-001
1.766475e+003, 1.365600e-001
1.768404e+003, 1.365838e-001
1.770332e+003, 1.367404e-001
1.772261e+003, 1.368717e-001
1.774189e+003, 1.368570e-001
1.776118e+003, 1.369347e-001
1.778046e+003, 1.372114e-001
1.779975e+003, 1.374969e-001
1.781903e+003, 1.380456e-001
1.783832e+003, 1.383362e-001
1.785760e+003, 1.383521e-001
1.787689e+003, 1.386178e-001
1.789617e+003, 1.391495e-001
1.791546e+003, 1.392095e-001
1.793474e+003, 1.389473e-001
1.795402e+003, 1.394545e-001
1.797331e+003, 1.401175e-001
1.799259e+003, 1.404523e-001
1.801188e+003, 1.406958e-001
1.803116e+003, 1.406594e-001
1.805045e+003, 1.407564e-001
1.806973e+003, 1.410957e-001
1.808902e+003, 1.412476e-001
1.810830e+003, 1.415461e-001
1.812759e+003, 1.417362e-001
1.814687e+003, 1.417542e-001
1.816616e+003, 1.421341e-001
1.818544e+003, 1.428957e-001
1.820473e+003, 1.431613e-001
1.822401e+003, 1.428542e-001
1.824329e+003, 1.426719e-001
1.826258e+003, 1.428148e-001
1.828186e+003, 1.434068e-001
1.830115e+003, 1.440003e-001
1.832043e+003, 1.441298e-001
1.833972e+003, 1.444164e-001
1.835900e+003, 1.446224e-001
1.837829e+003, 1.451142e-001
1.839757e+003, 1.453570e-001
1.841686e+003, 1.452720e-001
1.843614e+003, 1.454934e-001
1.845543e+003, 1.456883e-001
1.847471e+003, 1.455670e-001
1.849400e+003, 1.457700e-001
1.851328e+003, 1.463642e-001
1.853256e+003, 1.467258e-001
1.855185e+003, 1.471345e-001
1.857113e+003, 1.476071e-001
1.859042e+003, 1.472974e-001
1.860970e+003, 1.473186e-001
1.862899e+003, 1.481666e-001
1.864827e+003, 1.488130e-001
1.866756e+003, 1.491212e-001
1.868684e+003, 1.489315e-001
1.870613e+003, 1.487615e-001
1.872541e+003, 1.488736e-001
1.874470e+003, 1.491002e-001
1.876398e+003, 1.496999e-001
1.878327e+003, 1.497679e-001
1.880255e+003, 1.500193e-001
1.882183e+003, 1.498419e-001
1.884112e+003, 1.500124e-001
1.886040e+003, 1.511111e-001
1.887969e+003, 1.516887e-001
1.889897e+003, 1.514243e-001
1.891826e+003, 1.516890e-001
1.893754e+003, 1.517382e-001
1.895683e+003, 1.521350e-001
1.897611e+003, 1.526407e-001
1.899540e+003, 1.529890e-001
1.901468e+003, 1.534280e-001
1.903397e+003, 1.535255e-001
1.905325e+003, 1.526014e-001
1.907254e+003, 1.521539e-001
1.909182e+003, 1.522185e-001
1.911110e+003, 1.521128e-001
1.913039e+003, 1.529576e-001
1.914967e+003, 1.541499e-001
1.916896e+003, 1.548937e-001
1.918824e+003, 1.556467e-001
1.920753e+003, 1.553515e-001
1.922681e+003, 1.550596e-001
1.924610e+003, 1.554253e-001
1.926538e+003, 1.560370e-001
1.928467e+003, 1.563576e-001
1.930395e+003, 1.559608e-001
1.932324e+003, 1.555053e-001
1.934252e+003, 1.557917e-001
1.936181e+003, 1.564403e-001
1.938109e+003, 1.564656e-001
1.940037e+003, 1.571184e-001
1.941966e+003, 1.574508e-001
1.943894e+003, 1.571661e-001
1.945823e+003, 1.578339e-001
1.947751e+003, 1.580050e-001
1.949680e+003, 1.574140e-001
1.951608e+003, 1.574575e-001
1.953537e+003, 1.589151e-001
1.955465e+003, 1.583667e-001
1.957394e+003, 1.579175e-001
1.959322e+003, 1.591820e-001
1.961251e+003, 1.599800e-001
1.963179e+003, 1.597732e-001
1.965108e+003, 1.600042e-001
1.967036e+003, 1.610236e-001
1.968964e+003, 1.619851e-001
1.970893e+003, 1.612842e-001
1.972821e+003, 1.595710e-001
1.974750e+003, 1.612246e-001
1.976678e+003, 1.630699e-001
1.978607e+003, 1.635918e-001
1.980535e+003, 1.640274e-001
1.982464e+003, 1.643351e-001
1.984392e+003, 1.643091e-001
1.986321e+003, 1.637025e-001
1.988249e+003, 1.622838e-001
1.990178e+003, 1.618668e-001
1.992106e+003, 1.632807e-001
1.994035e+003, 1.631426e-001
1.995963e+003, 1.632600e-001
1.997891e+003, 1.629629e-001
1.999820e+003, 1.631002e-001
2.001748e+003, 1.626744e-001
2.003677e+003, 1.607935e-001
2.005605e+003, 1.603612e-001
2.007534e+003, 1.630699e-001
2.009462e+003, 1.650893e-001
2.011391e+003, 1.659389e-001
2.013319e+003, 1.653153e-001
2.015248e+003, 1.645724e-001
2.017176e+003, 1.653961e-001
2.019105e+003, 1.655261e-001
2.021033e+003, 1.648648e-001
2.022962e+003, 1.636538e-001
2.024890e+003, 1.637167e-001
2.026818e+003, 1.665508e-001
2.028747e+003, 1.679965e-001
2.030675e+003, 1.664981e-001
2.032604e+003, 1.655420e-001
2.034532e+003, 1.672449e-001
2.036461e+003, 1.679267e-001
2.038389e+003, 1.679181e-001
2.040318e+003, 1.691243e-001
2.042246e+003, 1.687017e-001
2.044175e+003, 1.679816e-001
2.046103e+003, 1.687751e-001
2.048032e+003, 1.698193e-001
2.049960e+003, 1.698526e-001
2.051889e+003, 1.683879e-001
2.053817e+003, 1.682607e-001
2.055746e+003, 1.690592e-001
2.057674e+003, 1.700239e-001
2.059603e+003, 1.703393e-001
2.061531e+003, 1.699227e-001
2.063459e+003, 1.703783e-001
2.065388e+003, 1.717442e-001
2.067316e+003, 1.707697e-001
2.069245e+003, 1.697434e-001
2.071173e+003, 1.707414e-001
2.073102e+003, 1.723783e-001
2.075030e+003, 1.725059e-001
2.076959e+003, 1.725531e-001
2.078887e+003, 1.733327e-001
2.080816e+003, 1.735917e-001
2.082744e+003, 1.731108e-001
2.084673e+003, 1.729958e-001
2.086601e+003, 1.731990e-001
2.088530e+003, 1.727747e-001
2.090458e+003, 1.721896e-001
2.092386e+003, 1.721161e-001
2.094315e+003, 1.722814e-001
2.096243e+003, 1.731554e-001
2.098172e+003, 1.738794e-001
2.100100e+003, 1.749960e-001
2.102029e+003, 1.756137e-001
2.103957e+003, 1.755401e-001
2.105886e+003, 1.752737e-001
2.107814e+003, 1.753156e-001
2.109743e+003, 1.753589e-001
2.111671e+003, 1.760291e-001
2.113600e+003, 1.751485e-001
2.115528e+003, 1.750342e-001
2.117457e+003, 1.759882e-001
2.119385e+003, 1.754463e-001
2.121313e+003, 1.750806e-001
2.123242e+003, 1.750563e-001
2.125170e+003, 1.753982e-001
2.127099e+003, 1.755514e-001
2.129027e+003, 1.753536e-001
2.130956e+003, 1.752378e-001
2.132884e+003, 1.745551e-001
2.134813e+003, 1.754710e-001
2.136741e+003, 1.764087e-001
2.138670e+003, 1.774554e-001
2.140598e+003, 1.777027e-001
2.142527e+003, 1.765544e-001
2.144455e+003, 1.763207e-001
2.146384e+003, 1.776575e-001
2.148312e+003, 1.787644e-001
2.150240e+003, 1.773859e-001
2.152169e+003, 1.759111e-001
2.154097e+003, 1.751908e-001
2.156026e+003, 1.724657e-001
2.157954e+003, 1.734437e-001
2.159883e+003, 1.774793e-001
2.161811e+003, 1.801258e-001
2.163740e+003, 1.795926e-001
2.165668e+003, 1.808964e-001
2.167597e+003, 1.828378e-001
2.169525e+003, 1.834782e-001
2.171454e+003, 1.817187e-001
2.173382e+003, 1.817821e-001
2.175311e+003, 1.829819e-001
2.177239e+003, 1.823108e-001
2.179167e+003, 1.809378e-001
2.181096e+003, 1.810737e-001
2.183024e+003, 1.802069e-001
2.184953e+003, 1.804192e-001
2.186881e+003, 1.816080e-001
2.188810e+003, 1.824104e-001
2.190738e+003, 1.834975e-001
2.192667e+003, 1.841679e-001
2.194595e+003, 1.838032e-001
2.196524e+003, 1.835802e-001
2.198452e+003, 1.842364e-001
2.200381e+003, 1.860652e-001
2.202309e+003, 1.862233e-001
2.204238e+003, 1.846757e-001
2.206166e+003, 1.837049e-001
2.208094e+003, 1.846874e-001
2.210023e+003, 1.853033e-001
2.211951e+003, 1.853520e-001
2.213880e+003, 1.847940e-001
2.215808e+003, 1.843369e-001
2.217737e+003, 1.850527e-001
2.219665e+003, 1.862630e-001
2.221594e+003, 1.863884e-001
2.223522e+003, 1.870026e-001
2.225451e+003, 1.865060e-001
2.227379e+003, 1.857340e-001
2.229308e+003, 1.870536e-001
2.231236e+003, 1.881257e-001
2.233165e+003, 1.869134e-001
2.235093e+003, 1.856342e-001
2.237021e+003, 1.864592e-001
2.238950e+003, 1.865717e-001
2.240878e+003, 1.869918e-001
2.242807e+003, 1.883049e-001
2.244735e+003, 1.882709e-001
2.246664e+003, 1.881776e-001
2.248592e+003, 1.880203e-001
2.250521e+003, 1.883387e-001
2.252449e+003, 1.887051e-001
2.254378e+003, 1.883170e-001
2.256306e+003, 1.886429e-001
2.258235e+003, 1.890433e-001
2.260163e+003, 1.901288e-001
2.262092e+003, 1.891517e-001
2.264020e+003, 1.878211e-001
2.265948e+003, 1.883112e-001
2.267877e+003, 1.891881e-001
2.269805e+003, 1.898723e-001
2.271734e+003, 1.898927e-001
2.273662e+003, 1.893644e-001
2.275591e+003, 1.900150e-001
2.277519e+003, 1.908294e-001
2.279448e+003, 1.906624e-001
2.281376e+003, 1.908891e-001
2.283305e+003, 1.915694e-001
2.285233e+003, 1.930984e-001
2.287162e+003, 1.928446e-001
2.289090e+003, 1.926001e-001
2.291019e+003, 1.922928e-001
2.292947e+003, 1.919305e-001
2.294875e+003, 1.923231e-001
2.296804e+003, 1.924103e-001
2.298732e+003, 1.926258e-001
2.300661e+003, 1.932105e-001
2.302589e+003, 1.931088e-001
2.304518e+003, 1.932242e-001
2.306446e+003, 1.933720e-001
2.308375e+003, 1.939766e-001
2.310303e+003, 1.945780e-001
2.312232e+003, 1.946792e-001
2.314160e+003, 1.948344e-001
2.316089e+003, 1.951900e-001
2.318017e+003, 1.954312e-001
2.319946e+003, 1.952023e-001
2.321874e+003, 1.961081e-001
2.323802e+003, 1.965187e-001
2.325731e+003, 1.954601e-001
2.327659e+003, 1.948015e-001
2.329588e+003, 1.946598e-001
2.331516e+003, 1.950482e-001
2.333445e+003, 1.952599e-001
2.335373e+003, 1.952367e-001
2.337302e+003, 1.956137e-001
2.339230e+003, 1.959103e-001
2.341159e+003, 1.960190e-001
2.343087e+003, 1.962138e-001
2.345016e+003, 1.960698e-001
2.346944e+003, 1.965949e-001
2.348873e+003, 1.969403e-001
2.350801e+003, 1.966714e-001
2.352729e+003, 1.966704e-001
2.354658e+003, 1.971397e-001
2.356586e+003, 1.974825e-001
2.358515e+003, 1.975297e-001
2.360443e+003, 1.974868e-001
2.362372e+003, 1.973878e-001
2.364300e+003, 1.969477e-001
2.366229e+003, 1.973396e-001
2.368157e+003, 1.975030e-001
2.370086e+003, 1.978264e-001
2.372014e+003, 1.983256e-001
2.373942e+003, 1.981963e-001
2.375871e+003, 1.978462e-001
2.377799e+003, 1.977335e-001
2.379728e+003, 1.976155e-001
2.381656e+003, 1.979052e-001
2.383585e+003, 1.983497e-001
2.385513e+003, 1.984316e-001
2.387442e+003, 1.986355e-001
2.389370e+003, 1.990749e-001
2.391299e+003, 1.994032e-001
2.393227e+003, 1.994144e-001
2.395156e+003, 1.994073e-001
2.397084e+003, 1.996158e-001
2.399012e+003, 1.997951e-001
2.400941e+003, 1.997849e-001
2.402869e+003, 1.997359e-001
2.404798e+003, 2.006352e-001
2.406726e+003, 2.010706e-001
2.408655e+003, 2.014236e-001
2.410583e+003, 2.009271e-001
2.412512e+003, 2.011573e-001
2.414440e+003, 2.019914e-001
2.416369e+003, 2.030203e-001
2.418297e+003, 2.038827e-001
2.420226e+003, 2.028989e-001
2.422154e+003, 2.022202e-001
2.424083e+003, 2.028363e-001
2.426011e+003, 2.026331e-001
2.427939e+003, 2.023843e-001
2.429868e+003, 2.021233e-001
2.431796e+003, 2.027496e-001
2.433725e+003, 2.035991e-001
2.435653e+003, 2.034760e-001
2.437582e+003, 2.032084e-001
2.439510e+003, 2.034821e-001
2.441439e+003, 2.034672e-001
2.443367e+003, 2.034674e-001
2.445296e+003, 2.038466e-001
2.447224e+003, 2.044058e-001
2.449153e+003, 2.048286e-001
2.451081e+003, 2.054251e-001
2.453010e+003, 2.059549e-001
2.454938e+003, 2.058818e-001
2.456866e+003, 2.056078e-001
2.458795e+003, 2.057448e-001
2.460723e+003, 2.058297e-001
2.462652e+003, 2.058638e-001
2.464580e+003, 2.056305e-001
2.466509e+003, 2.055573e-001
2.468437e+003, 2.061499e-001
2.470366e+003, 2.057585e-001
2.472294e+003, 2.054449e-001
2.474223e+003, 2.056912e-001
2.476151e+003, 2.062653e-001
2.478080e+003, 2.068264e-001
2.480008e+003, 2.064473e-001
2.481937e+003, 2.060778e-001
2.483865e+003, 2.071391e-001
2.485793e+003, 2.078958e-001
2.487722e+003, 2.074291e-001
2.489650e+003, 2.074139e-001
2.491579e+003, 2.074987e-001
2.493507e+003, 2.078657e-001
2.495436e+003, 2.079877e-001
2.497364e+003, 2.083080e-001
2.499293e+003, 2.084435e-001
2.501221e+003, 2.090742e-001
2.503150e+003, 2.097083e-001
2.505078e+003, 2.093329e-001
2.507007e+003, 2.089043e-001
2.508935e+003, 2.084026e-001
2.510864e+003, 2.081270e-001
2.512792e+003, 2.084254e-001
2.514720e+003, 2.093994e-001
2.516649e+003, 2.100649e-001
2.518577e+003, 2.097415e-001
2.520506e+003, 2.096567e-001
2.522434e+003, 2.101049e-001
2.524363e+003, 2.112354e-001
2.526291e+003, 2.115525e-001
2.528220e+003, 2.105501e-001
2.530148e+003, 2.102165e-001
2.532077e+003, 2.114749e-001
2.534005e+003, 2.119291e-001
2.535934e+003, 2.116736e-001
2.537862e+003, 2.109261e-001
2.539791e+003, 2.114445e-001
2.541719e+003, 2.120308e-001
2.543647e+003, 2.118916e-001
2.545576e+003, 2.117681e-001
2.547504e+003, 2.117193e-001
2.549433e+003, 2.119726e-001
2.551361e+003, 2.122128e-001
2.553290e+003, 2.122984e-001
2.555218e+003, 2.123321e-001
2.557147e+003, 2.128505e-001
2.559075e+003, 2.132290e-001
2.561004e+003, 2.136603e-001
2.562932e+003, 2.133377e-001
2.564861e+003, 2.133438e-001
2.566789e+003, 2.138669e-001
2.568718e+003, 2.144711e-001
2.570646e+003, 2.148928e-001
2.572574e+003, 2.158111e-001
2.574503e+003, 2.161233e-001
2.576431e+003, 2.153404e-001
2.578360e+003, 2.148370e-001
2.580288e+003, 2.152951e-001
2.582217e+003, 2.161140e-001
2.584145e+003, 2.166012e-001
2.586074e+003, 2.166219e-001
2.588002e+003, 2.160893e-001
2.589931e+003, 2.154445e-001
2.591859e+003, 2.161433e-001
2.593788e+003, 2.168386e-001
2.595716e+003, 2.162760e-001
2.597645e+003, 2.158704e-001
2.599573e+003, 2.162617e-001
2.601501e+003, 2.173174e-001
2.603430e+003, 2.179960e-001
2.605358e+003, 2.181468e-001
2.607287e+003, 2.179886e-001
2.609215e+003, 2.172567e-001
2.611144e+003, 2.171380e-001
2.613072e+003, 2.175353e-001
2.615001e+003, 2.175264e-001
2.616929e+003, 2.179291e-001
2.618858e+003, 2.182402e-001
2.620786e+003, 2.182372e-001
2.622715e+003, 2.185447e-001
2.624643e+003, 2.189780e-001
2.626572e+003, 2.189846e-001
2.628500e+003, 2.195313e-001
2.630428e+003, 2.200140e-001
2.632357e+003, 2.197677e-001
2.634285e+003, 2.194018e-001
2.636214e+003, 2.195265e-001
2.638142e+003, 2.199727e-001
2.640071e+003, 2.203235e-001
2.641999e+003, 2.205518e-001
2.643928e+003, 2.208004e-001
2.645856e+003, 2.212276e-001
2.647785e+003, 2.212818e-001
2.649713e+003, 2.209713e-001
2.651642e+003, 2.210531e-001
2.653570e+003, 2.212679e-001
2.655499e+003, 2.219142e-001
2.657427e+003, 2.225036e-001
2.659355e+003, 2.224536e-001
2.661284e+003, 2.221449e-001
2.663212e+003, 2.218987e-001
2.665141e+003, 2.221950e-001
2.667069e+003, 2.226276e-001
2.668998e+003, 2.224510e-001
2.670926e+003, 2.222979e-001
2.672855e+003, 2.219751e-001
2.674783e+003, 2.215659e-001
2.676712e+003, 2.222698e-001
2.678640e+003, 2.228493e-001
2.680569e+003, 2.224862e-001
2.682497e+003, 2.224662e-001
2.684426e+003, 2.229705e-001
2.686354e+003, 2.233323e-001
2.688282e+003, 2.234402e-001
2.690211e+003, 2.234889e-001
2.692139e+003, 2.238995e-001
2.694068e+003, 2.242126e-001
2.695996e+003, 2.242580e-001
2.697925e+003, 2.246430e-001
2.699853e+003, 2.250549e-001
2.701782e+003, 2.252602e-001
2.703710e+003, 2.253028e-001
2.705639e+003, 2.251201e-001
2.707567e+003, 2.252105e-001
2.709496e+003, 2.253863e-001
2.711424e+003, 2.256877e-001
2.713353e+003, 2.261995e-001
2.715281e+003, 2.263558e-001
2.717209e+003, 2.260673e-001
2.719138e+003, 2.260564e-001
2.721066e+003, 2.264777e-001
2.722995e+003, 2.264265e-001
2.724923e+003, 2.265393e-001
2.726852e+003, 2.269775e-001
2.728780e+003, 2.272036e-001
2.730709e+003, 2.270743e-001
2.732637e+003, 2.267729e-001
2.734566e+003, 2.273169e-001
2.736494e+003, 2.278878e-001
2.738423e+003, 2.285175e-001
2.740351e+003, 2.291202e-001
2.742280e+003, 2.289217e-001
2.744208e+003, 2.285920e-001
2.746136e+003, 2.285220e-001
2.748065e+003, 2.289108e-001
2.749993e+003, 2.295640e-001
2.751922e+003, 2.297038e-001
2.753850e+003, 2.292085e-001
2.755779e+003, 2.292679e-001
2.757707e+003, 2.297502e-001
2.759636e+003, 2.300798e-001
2.761564e+003, 2.298528e-001
2.763493e+003, 2.294948e-001
2.765421e+003, 2.298296e-001
2.767350e+003, 2.305995e-001
2.769278e+003, 2.313397e-001
2.771207e+003, 2.308409e-001
2.773135e+003, 2.306682e-001
2.775063e+003, 2.314156e-001
2.776992e+003, 2.316662e-001
2.778920e+003, 2.314899e-001
2.780849e+003, 2.320129e-001
2.782777e+003, 2.316062e-001
2.784706e+003, 2.312346e-001
2.786634e+003, 2.315556e-001
2.788563e+003, 2.317729e-001
2.790491e+003, 2.318223e-001
2.792420e+003, 2.322072e-001
2.794348e+003, 2.326760e-001
2.796277e+003, 2.329675e-001
2.798205e+003, 2.331974e-001
2.800134e+003, 2.329962e-001
2.802062e+003, 2.336717e-001
2.803990e+003, 2.337733e-001
2.805919e+003, 2.332440e-001
2.807847e+003, 2.334867e-001
2.809776e+003, 2.333791e-001
2.811704e+003, 2.341045e-001
2.813633e+003, 2.346656e-001
2.815561e+003, 2.342479e-001
2.817490e+003, 2.344148e-001
2.819418e+003, 2.345415e-001
2.821347e+003, 2.343443e-001
2.823275e+003, 2.347757e-001
2.825204e+003, 2.354946e-001
2.827132e+003, 2.358325e-001
2.829061e+003, 2.360128e-001
2.830989e+003, 2.360086e-001
2.832917e+003, 2.359576e-001
2.834846e+003, 2.364119e-001
2.836774e+003, 2.362451e-001
2.838703e+003, 2.358747e-001
2.840631e+003, 2.361023e-001
2.842560e+003, 2.361045e-001
2.844488e+003, 2.363774e-001
2.846417e+003, 2.358677e-001
2.848345e+003, 2.349486e-001
2.850274e+003, 2.351982e-001
2.852202e+003, 2.364314e-001
2.854131e+003, 2.368031e-001
2.856059e+003, 2.358942e-001
2.857988e+003, 2.359254e-001
2.859916e+003, 2.366020e-001
2.861844e+003, 2.370746e-001
2.863773e+003, 2.374846e-001
2.865701e+003, 2.377224e-001
2.867630e+003, 2.376153e-001
2.869558e+003, 2.381916e-001
2.871487e+003, 2.385826e-001
2.873415e+003, 2.384241e-001
2.875344e+003, 2.383198e-001
2.877272e+003, 2.393502e-001
2.879201e+003, 2.403472e-001
2.881129e+003, 2.396776e-001
2.883058e+003, 2.391190e-001
2.884986e+003, 2.394810e-001
2.886915e+003, 2.397224e-001
2.888843e+003, 2.399433e-001
2.890771e+003, 2.406677e-001
2.892700e+003, 2.400679e-001
2.894628e+003, 2.392521e-001
2.896557e+003, 2.391612e-001
2.898485e+003, 2.398281e-001
2.900414e+003, 2.408054e-001
2.902342e+003, 2.412033e-001
2.904271e+003, 2.411859e-001
2.906199e+003, 2.407661e-001
2.908128e+003, 2.406683e-001
2.910056e+003, 2.411713e-001
2.911985e+003, 2.410815e-001
2.913913e+003, 2.409621e-001
2.915842e+003, 2.402864e-001
2.917770e+003, 2.384225e-001
2.919698e+003, 2.381772e-001
2.921627e+003, 2.387954e-001
2.923555e+003, 2.391136e-001
2.925484e+003, 2.392741e-001
2.927412e+003, 2.395384e-001
2.929341e+003, 2.397704e-001
2.931269e+003, 2.395449e-001
2.933198e+003, 2.392217e-001
2.935126e+003, 2.397919e-001
2.937055e+003, 2.405026e-001
2.938983e+003, 2.407414e-001
2.940912e+003, 2.409787e-001
2.942840e+003, 2.406642e-001
2.944769e+003, 2.410747e-001
2.946697e+003, 2.420193e-001
2.948625e+003, 2.422437e-001
2.950554e+003, 2.418760e-001
2.952482e+003, 2.424009e-001
2.954411e+003, 2.436711e-001
2.956339e+003, 2.438794e-001
2.958268e+003, 2.435292e-001
2.960196e+003, 2.433068e-001
2.962125e+003, 2.437025e-001
2.964053e+003, 2.437387e-001
2.965982e+003, 2.435015e-001
2.967910e+003, 2.432380e-001
2.969839e+003, 2.431351e-001
2.971767e+003, 2.434883e-001
2.973696e+003, 2.437952e-001
2.975624e+003, 2.448189e-001
2.977552e+003, 2.451979e-001
2.979481e+003, 2.452536e-001
2.981409e+003, 2.453559e-001
2.983338e+003, 2.454945e-001
2.985266e+003, 2.461330e-001
2.987195e+003, 2.455713e-001
2.989123e+003, 2.457876e-001
2.991052e+003, 2.458437e-001
2.992980e+003, 2.454388e-001
2.994909e+003, 2.459331e-001
2.996837e+003, 2.463364e-001
2.998766e+003, 2.464726e-001
3.000694e+003, 2.464775e-001
3.002623e+003, 2.464588e-001
3.004551e+003, 2.469942e-001
3.006479e+003, 2.475174e-001
3.008408e+003, 2.474910e-001
3.010336e+003, 2.469446e-001
3.012265e+003, 2.474964e-001
3.014193e+003, 2.480953e-001
3.016122e+003, 2.481034e-001
3.018050e+003, 2.489713e-001
3.019979e+003, 2.494548e-001
3.021907e+003, 2.493307e-001
3.023836e+003, 2.491884e-001
3.025764e+003, 2.500072e-001
3.027693e+003, 2.506759e-001
3.029621e+003, 2.501661e-001
3.031550e+003, 2.495956e-001
3.033478e+003, 2.499734e-001
3.035406e+003, 2.506692e-001
3.037335e+003, 2.508101e-001
3.039263e+003, 2.506633e-001
3.041192e+003, 2.508610e-001
3.043120e+003, 2.510409e-001
3.045049e+003, 2.514198e-001
3.046977e+003, 2.520132e-001
3.048906e+003, 2.517544e-001
3.050834e+003, 2.520038e-001
3.052763e+003, 2.529301e-001
3.054691e+003, 2.528825e-001
3.056620e+003, 2.537821e-001
3.058548e+003, 2.543364e-001
3.060477e+003, 2.539364e-001
3.062405e+003, 2.534029e-001
3.064333e+003, 2.541530e-001
3.066262e+003, 2.544192e-001
3.068190e+003, 2.546841e-001
3.070119e+003, 2.551877e-001
3.072047e+003, 2.552673e-001
3.073976e+003, 2.550598e-001
3.075904e+003, 2.548050e-001
3.077833e+003, 2.548733e-001
3.079761e+003, 2.548141e-001
3.081690e+003, 2.544014e-001
3.083618e+003, 2.544245e-001
3.085547e+003, 2.548841e-001
3.087475e+003, 2.553438e-001
3.089404e+003, 2.562813e-001
3.091332e+003, 2.562325e-001
3.093260e+003, 2.554015e-001
3.095189e+003, 2.563706e-001
3.097117e+003, 2.569651e-001
3.099046e+003, 2.568695e-001
3.100974e+003, 2.566186e-001
3.102903e+003, 2.568578e-001
3.104831e+003, 2.563908e-001
3.106760e+003, 2.569941e-001
3.108688e+003, 2.584132e-001
3.110617e+003, 2.583126e-001
3.112545e+003, 2.571302e-001
3.114474e+003, 2.567744e-001
3.116402e+003, 2.576481e-001
3.118331e+003, 2.584759e-001
3.120259e+003, 2.584203e-001
3.122188e+003, 2.586544e-001
3.124116e+003, 2.586375e-001
3.126044e+003, 2.582238e-001
3.127973e+003, 2.588752e-001
3.129901e+003, 2.596474e-001
3.131830e+003, 2.590513e-001
3.133758e+003, 2.591627e-001
3.135687e+003, 2.598296e-001
3.137615e+003, 2.602556e-001
3.139544e+003, 2.603719e-001
3.141472e+003, 2.610643e-001
3.143401e+003, 2.612279e-001
3.145329e+003, 2.605009e-001
3.147258e+003, 2.602057e-001
3.149186e+003, 2.607087e-001
3.151115e+003, 2.610814e-001
3.153043e+003, 2.607393e-001
3.154971e+003, 2.610439e-001
3.156900e+003, 2.613464e-001
3.158828e+003, 2.625816e-001
3.160757e+003, 2.634974e-001
3.162685e+003, 2.622429e-001
3.164614e+003, 2.614851e-001
3.166542e+003, 2.614658e-001
3.168471e+003, 2.619053e-001
3.170399e+003, 2.625218e-001
3.172328e+003, 2.630508e-001
3.174256e+003, 2.641957e-001
3.176185e+003, 2.642664e-001
3.178113e+003, 2.631331e-001
3.180042e+003, 2.629820e-001
3.181970e+003, 2.635256e-001
3.183898e+003, 2.643938e-001
3.185827e+003, 2.641656e-001
3.187755e+003, 2.627681e-001
3.189684e+003, 2.622896e-001
3.191612e+003, 2.632485e-001
3.193541e+003, 2.645031e-001
3.195469e+003, 2.657258e-001
3.197398e+003, 2.655702e-001
3.199326e+003, 2.655162e-001
3.201255e+003, 2.658583e-001
3.203183e+003, 2.651645e-001
3.205112e+003, 2.648762e-001
3.207040e+003, 2.650639e-001
3.208969e+003, 2.650959e-001
3.210897e+003, 2.644901e-001
3.212825e+003, 2.652011e-001
3.214754e+003, 2.663992e-001
3.216682e+003, 2.661253e-001
3.218611e+003, 2.653944e-001
3.220539e+003, 2.651828e-001
3.222468e+003, 2.660201e-001
3.224396e+003, 2.663735e-001
3.226325e+003, 2.665811e-001
3.228253e+003, 2.668428e-001
3.230182e+003, 2.668620e-001
3.232110e+003, 2.663458e-001
3.234039e+003, 2.663613e-001
3.235967e+003, 2.671988e-001
3.237896e+003, 2.679364e-001
3.239824e+003, 2.685977e-001
3.241752e+003, 2.685668e-001
3.243681e+003, 2.678950e-001
3.245609e+003, 2.677023e-001
3.247538e+003, 2.679130e-001
3.249466e+003, 2.684818e-001
3.251395e+003, 2.695604e-001
3.253323e+003, 2.693781e-001
3.255252e+003, 2.694501e-001
3.257180e+003, 2.696412e-001
3.259109e+003, 2.696412e-001
3.261037e+003, 2.696145e-001
3.262966e+003, 2.694506e-001
3.264894e+003, 2.688158e-001
3.266823e+003, 2.686899e-001
3.268751e+003, 2.688151e-001
3.270679e+003, 2.695964e-001
3.272608e+003, 2.707447e-001
3.274536e+003, 2.711149e-001
3.276465e+003, 2.715260e-001
3.278393e+003, 2.713006e-001
3.280322e+003, 2.698749e-001
3.282250e+003, 2.691859e-001
3.284179e+003, 2.702554e-001
3.286107e+003, 2.716095e-001
3.288036e+003, 2.721892e-001
3.289964e+003, 2.719537e-001
3.291893e+003, 2.705519e-001
3.293821e+003, 2.699692e-001
3.295750e+003, 2.700830e-001
3.297678e+003, 2.704052e-001
3.299606e+003, 2.711891e-001
3.301535e+003, 2.724565e-001
3.303463e+003, 2.729637e-001
3.305392e+003, 2.733690e-001
3.307320e+003, 2.730986e-001
3.309249e+003, 2.717527e-001
3.311177e+003, 2.702789e-001
3.313106e+003, 2.714642e-001
3.315034e+003, 2.730044e-001
3.316963e+003, 2.725282e-001
3.318891e+003, 2.715196e-001
3.320820e+003, 2.729040e-001
3.322748e+003, 2.743705e-001
3.324677e+003, 2.735319e-001
3.326605e+003, 2.731794e-001
3.328533e+003, 2.730090e-001
3.330462e+003, 2.719999e-001
3.332390e+003, 2.715625e-001
3.334319e+003, 2.728123e-001
3.336247e+003, 2.742814e-001
3.338176e+003, 2.746546e-001
3.340104e+003, 2.740692e-001
3.342033e+003, 2.729417e-001
3.343961e+003, 2.730314e-001
3.345890e+003, 2.733695e-001
3.347818e+003, 2.726736e-001
3.349747e+003, 2.721857e-001
3.351675e+003, 2.730285e-001
3.353604e+003, 2.743751e-001
3.355532e+003, 2.747644e-001
3.357460e+003, 2.739589e-001
3.359389e+003, 2.733182e-001
3.361317e+003, 2.743973e-001
3.363246e+003, 2.755905e-001
3.365174e+003, 2.750448e-001
3.367103e+003, 2.734301e-001
3.369031e+003, 2.743647e-001
3.370960e+003, 2.755460e-001
3.372888e+003, 2.754941e-001
3.374817e+003, 2.747112e-001
3.376745e+003, 2.741846e-001
3.378674e+003, 2.744998e-001
3.380602e+003, 2.752401e-001
3.382531e+003, 2.755275e-001
3.384459e+003, 2.760911e-001
3.386387e+003, 2.765143e-001
3.388316e+003, 2.754571e-001
3.390244e+003, 2.758623e-001
3.392173e+003, 2.775394e-001
3.394101e+003, 2.772777e-001
3.396030e+003, 2.767441e-001
3.397958e+003, 2.762702e-001
3.399887e+003, 2.753487e-001
3.401815e+003, 2.741602e-001
3.403744e+003, 2.744038e-001
3.405672e+003, 2.759287e-001
3.407601e+003, 2.759190e-001
3.409529e+003, 2.756565e-001
3.411458e+003, 2.757598e-001
3.413386e+003, 2.758433e-001
3.415314e+003, 2.763518e-001
3.417243e+003, 2.763867e-001
3.419171e+003, 2.751104e-001
3.421100e+003, 2.746028e-001
3.423028e+003, 2.760867e-001
3.424957e+003, 2.777708e-001
3.426885e+003, 2.771330e-001
3.428814e+003, 2.760746e-001
3.430742e+003, 2.750714e-001
3.432671e+003, 2.752297e-001
3.434599e+003, 2.765937e-001
3.436528e+003, 2.770287e-001
3.438456e+003, 2.768391e-001
3.440385e+003, 2.760679e-001
3.442313e+003, 2.754838e-001
3.444241e+003, 2.768274e-001
3.446170e+003, 2.780649e-001
3.448098e+003, 2.782790e-001
3.450027e+003, 2.774841e-001
3.451955e+003, 2.775342e-001
3.453884e+003, 2.794928e-001
3.455812e+003, 2.790205e-001
3.457741e+003, 2.777443e-001
3.459669e+003, 2.761182e-001
3.461598e+003, 2.754720e-001
3.463526e+003, 2.775140e-001
3.465455e+003, 2.787017e-001
3.467383e+003, 2.782704e-001
3.469312e+003, 2.765764e-001
3.471240e+003, 2.743735e-001
3.473168e+003, 2.748886e-001
3.475097e+003, 2.764054e-001
3.477025e+003, 2.773658e-001
3.478954e+003, 2.779696e-001
3.480882e+003, 2.782492e-001
3.482811e+003, 2.782845e-001
3.484739e+003, 2.792658e-001
3.486668e+003, 2.794777e-001
3.488596e+003, 2.788682e-001
3.490525e+003, 2.779421e-001
3.492453e+003, 2.779007e-001
3.494382e+003, 2.776420e-001
3.496310e+003, 2.773744e-001
3.498239e+003, 2.774799e-001
3.500167e+003, 2.782973e-001
3.502095e+003, 2.784413e-001
3.504024e+003, 2.780087e-001
3.505952e+003, 2.792097e-001
3.507881e+003, 2.800193e-001
3.509809e+003, 2.804231e-001
3.511738e+003, 2.805342e-001
3.513666e+003, 2.797680e-001
3.515595e+003, 2.792721e-001
3.517523e+003, 2.795611e-001
3.519452e+003, 2.782536e-001
3.521380e+003, 2.765687e-001
3.523309e+003, 2.777776e-001
3.525237e+003, 2.778943e-001
3.527166e+003, 2.774997e-001
3.529094e+003, 2.777353e-001
3.531022e+003, 2.781793e-001
3.532951e+003, 2.790486e-001
3.534879e+003, 2.792942e-001
3.536808e+003, 2.799586e-001
3.538736e+003, 2.804534e-001
3.540665e+003, 2.788120e-001
3.542593e+003, 2.774442e-001
3.544522e+003, 2.790554e-001
3.546450e+003, 2.796871e-001
3.548379e+003, 2.795478e-001
3.550307e+003, 2.779977e-001
3.552236e+003, 2.776920e-001
3.554164e+003, 2.776799e-001
3.556093e+003, 2.791391e-001
3.558021e+003, 2.797344e-001
3.559949e+003, 2.787713e-001
3.561878e+003, 2.785431e-001
3.563806e+003, 2.792164e-001
3.565735e+003, 2.788141e-001
3.567663e+003, 2.783240e-001
3.569592e+003, 2.780342e-001
3.571520e+003, 2.780185e-001
3.573449e+003, 2.796019e-001
3.575377e+003, 2.813475e-001
3.577306e+003, 2.808605e-001
3.579234e+003, 2.789469e-001
3.581163e+003, 2.786983e-001
3.583091e+003, 2.782837e-001
3.585020e+003, 2.782405e-001
3.586948e+003, 2.792263e-001
3.588876e+003, 2.804451e-001
3.590805e+003, 2.816847e-001
3.592733e+003, 2.814064e-001
3.594662e+003, 2.805001e-001
3.596590e+003, 2.809629e-001
3.598519e+003, 2.818308e-001
3.600447e+003, 2.819482e-001
3.602376e+003, 2.811248e-001
3.604304e+003, 2.796516e-001
3.606233e+003, 2.801896e-001
3.608161e+003, 2.816219e-001
3.610090e+003, 2.824583e-001
3.612018e+003, 2.807804e-001
3.613947e+003, 2.806417e-001
3.615875e+003, 2.816575e-001
3.617803e+003, 2.840540e-001
3.619732e+003, 2.849371e-001
3.621660e+003, 2.825317e-001
3.623589e+003, 2.801002e-001
3.625517e+003, 2.797377e-001
3.627446e+003, 2.799691e-001
3.629374e+003, 2.816860e-001
3.631303e+003, 2.816276e-001
3.633231e+003, 2.815102e-001
3.635160e+003, 2.817357e-001
3.637088e+003, 2.830983e-001
3.639017e+003, 2.842257e-001
3.640945e+003, 2.834642e-001
3.642874e+003, 2.840798e-001
3.644802e+003, 2.835244e-001
3.646730e+003, 2.832043e-001
3.648659e+003, 2.865784e-001
3.650587e+003, 2.877594e-001
3.652516e+003, 2.856642e-001
3.654444e+003, 2.837503e-001
3.656373e+003, 2.842496e-001
3.658301e+003, 2.838350e-001
3.660230e+003, 2.839894e-001
3.662158e+003, 2.850872e-001
3.664087e+003, 2.858902e-001
3.666015e+003, 2.839496e-001
3.667944e+003, 2.844444e-001
3.669872e+003, 2.855439e-001
3.671801e+003, 2.847936e-001
3.673729e+003, 2.852155e-001
3.675657e+003, 2.878008e-001
3.677586e+003, 2.850370e-001
3.679514e+003, 2.841459e-001
3.681443e+003, 2.861362e-001
3.683371e+003, 2.870642e-001
3.685300e+003, 2.869866e-001
3.687228e+003, 2.870449e-001
3.689157e+003, 2.860369e-001
3.691085e+003, 2.854818e-001
3.693014e+003, 2.887366e-001
3.694942e+003, 2.903830e-001
3.696871e+003, 2.888149e-001
3.698799e+003, 2.890459e-001
3.700728e+003, 2.883714e-001
3.702656e+003, 2.880487e-001
3.704584e+003, 2.885614e-001
3.706513e+003, 2.883700e-001
3.708441e+003, 2.858574e-001
3.710370e+003, 2.867098e-001
3.712298e+003, 2.880471e-001
3.714227e+003, 2.894603e-001
3.716155e+003, 2.892734e-001
3.718084e+003, 2.872973e-001
3.720012e+003, 2.861841e-001
3.721941e+003, 2.868254e-001
3.723869e+003, 2.869428e-001
3.725798e+003, 2.886321e-001
3.727726e+003, 2.896794e-001
3.729655e+003, 2.890919e-001
3.731583e+003, 2.884795e-001
3.733511e+003, 2.869894e-001
3.735440e+003, 2.868390e-001
3.737368e+003, 2.876308e-001
3.739297e+003, 2.891585e-001
3.741225e+003, 2.916976e-001
3.743154e+003, 2.897879e-001
3.745082e+003, 2.902717e-001
3.747011e+003, 2.890381e-001
3.748939e+003, 2.905831e-001
3.750868e+003, 2.918121e-001
3.752796e+003, 2.925299e-001
3.754725e+003, 2.917509e-001
3.756653e+003, 2.932178e-001
3.758582e+003, 2.934878e-001
3.760510e+003, 2.938228e-001
3.762438e+003, 2.932481e-001
3.764367e+003, 2.920025e-001
3.766295e+003, 2.911329e-001
3.768224e+003, 2.908935e-001
3.770152e+003, 2.926834e-001
3.772081e+003, 2.920524e-001
3.774009e+003, 2.924123e-001
3.775938e+003, 2.922590e-001
3.777866e+003, 2.918503e-001
3.779795e+003, 2.919226e-001
3.781723e+003, 2.919196e-001
3.783652e+003, 2.939590e-001
3.785580e+003, 2.944570e-001
3.787509e+003, 2.951925e-001
3.789437e+003, 2.943354e-001
3.791365e+003, 2.934943e-001
3.793294e+003, 2.926987e-001
3.795222e+003, 2.938292e-001
3.797151e+003, 2.940634e-001
3.799079e+003, 2.944773e-001
3.801008e+003, 2.959195e-001
3.802936e+003, 2.969056e-001
3.804865e+003, 2.950666e-001
3.806793e+003, 2.941121e-001
3.808722e+003, 2.913346e-001
3.810650e+003, 2.910226e-001
3.812579e+003, 2.945202e-001
3.814507e+003, 2.953287e-001
3.816436e+003, 2.954245e-001
3.818364e+003, 2.946406e-001
3.820292e+003, 2.943662e-001
3.822221e+003, 2.957098e-001
3.824149e+003, 2.969892e-001
3.826078e+003, 2.966168e-001
3.828006e+003, 2.961790e-001
3.829935e+003, 2.962344e-001
3.831863e+003, 2.977969e-001
3.833792e+003, 2.974510e-001
3.835720e+003, 2.965021e-001
3.837649e+003, 2.958921e-001
3.839577e+003, 2.938634e-001
3.841506e+003, 2.943619e-001
3.843434e+003, 2.967258e-001
3.845363e+003, 2.970211e-001
3.847291e+003, 2.966742e-001
3.849219e+003, 2.989166e-001
3.851148e+003, 2.979861e-001
3.853076e+003, 2.966741e-001
3.855005e+003, 2.966192e-001
3.856933e+003, 2.965661e-001
3.858862e+003, 2.993516e-001
3.860790e+003, 2.984597e-001
3.862719e+003, 2.962748e-001
3.864647e+003, 2.980776e-001
3.866576e+003, 2.989044e-001
3.868504e+003, 2.977230e-001
3.870433e+003, 2.987300e-001
3.872361e+003, 2.992417e-001
3.874290e+003, 2.984488e-001
3.876218e+003, 2.986532e-001
3.878146e+003, 2.991194e-001
3.880075e+003, 3.007413e-001
3.882003e+003, 3.020034e-001
3.883932e+003, 3.010832e-001
3.885860e+003, 2.998751e-001
3.887789e+003, 2.990104e-001
3.889717e+003, 2.976926e-001
3.891646e+003, 2.983430e-001
3.893574e+003, 2.976526e-001
3.895503e+003, 2.985657e-001
3.897431e+003, 3.003767e-001
3.899360e+003, 3.007364e-001
3.901288e+003, 3.013473e-001
3.903217e+003, 3.025205e-001
3.905145e+003, 3.000027e-001
3.907073e+003, 2.987490e-001
3.909002e+003, 2.994308e-001
3.910930e+003, 3.017526e-001
3.912859e+003, 3.017287e-001
3.914787e+003, 3.013416e-001
3.916716e+003, 3.026261e-001
3.918644e+003, 3.020009e-001
3.920573e+003, 2.999444e-001
3.922501e+003, 3.017913e-001
3.924430e+003, 3.025386e-001
3.926358e+003, 3.012793e-001
3.928287e+003, 3.002539e-001
3.930215e+003, 3.008077e-001
3.932144e+003, 3.018655e-001
3.934072e+003, 3.021862e-001
3.936000e+003, 3.028390e-001
3.937929e+003, 3.031842e-001
3.939857e+003, 3.030104e-001
3.941786e+003, 3.027760e-001
3.943714e+003, 3.025765e-001
3.945643e+003, 3.017739e-001
3.947571e+003, 3.017441e-001
3.949500e+003, 3.014027e-001
3.951428e+003, 3.026776e-001
3.953357e+003, 3.054441e-001
3.955285e+003, 3.045279e-001
3.957214e+003, 3.033769e-001
3.959142e+003, 3.050712e-001
3.961071e+003, 3.071505e-001
3.962999e+003, 3.060362e-001
3.964927e+003, 3.049922e-001
3.966856e+003, 3.035688e-001
3.968784e+003, 3.017454e-001
3.970713e+003, 3.019019e-001
3.972641e+003, 3.024896e-001
3.974570e+003, 3.004923e-001
3.976498e+003, 3.022510e-001
3.978427e+003, 3.059332e-001
3.980355e+003, 3.074205e-001
3.982284e+003, 3.058154e-001
3.984212e+003, 3.045211e-001
3.986141e+003, 3.066021e-001
3.988069e+003, 3.088640e-001
3.989998e+003, 3.096094e-001
3.991926e+003, 3.084361e-001
3.993854e+003, 3.047546e-001
3.995783e+003, 3.050553e-001
3.997711e+003, 3.085813e-001
3.999640e+003, 3.087272e-001
##END=



