##NAMES=Ferberite
##RRUFFID=R050632
##IDEAL CHEMISTRY=Fe^2+^W^6+^O_4_
##LOCALITY=Chance mine, Boulder, Colorado, USA
##OWNER=RRUFF
##SOURCE=University of Arizona Mineral Museum
##DESCRIPTION=Dark brown rectangular prismatic crystals
##STATUS=The identification of this mineral has been confirmed by X-ray diffraction and chemical analysis
##URL=rruff.info/R050632
##MEASURED CHEMISTRY=Fe^2+^_1.00_WO_4_
399.1926, 0.2489443
401.1211, 0.2593187
403.0496, 0.2605654
404.9780, 0.2611245
406.9065, 0.2579373
408.8350, 0.2609871
410.7634, 0.2677662
412.6919, 0.2762813
414.6204, 0.2727309
416.5488, 0.2689442
418.4773, 0.2659854
420.4058, 0.2627525
422.3342, 0.2632313
424.2627, 0.2660595
426.1912, 0.2691272
428.1196, 0.2686503
430.0481, 0.2694455
431.9766, 0.2770517
433.9050, 0.2884379
435.8335, 0.2869492
437.7620, 0.2853045
439.6904, 0.2886714
441.6189, 0.2963627
443.5474, 0.3024032
445.4758, 0.3041944
447.4043, 0.3050633
449.3328, 0.3061471
451.2612, 0.3064550
453.1897, 0.3131628
455.1182, 0.3185518
457.0466, 0.3165376
458.9751, 0.3164094
460.9036, 0.3197392
462.8320, 0.3212056
464.7605, 0.3201832
466.6890, 0.3180811
468.6174, 0.3168015
470.5459, 0.3205221
472.4744, 0.3271203
474.4028, 0.3303484
476.3313, 0.3289321
478.2598, 0.3298166
480.1882, 0.3324462
482.1167, 0.3341472
484.0452, 0.3377075
485.9736, 0.3396782
487.9021, 0.3403306
489.8306, 0.3420353
491.7590, 0.3426809
493.6875, 0.3415955
495.6160, 0.3431117
497.5444, 0.3457428
499.4729, 0.3445220
501.4014, 0.3448906
503.3298, 0.3450189
505.2583, 0.3417221
507.1868, 0.3391292
509.1152, 0.3389633
511.0437, 0.3389899
512.9722, 0.3364171
514.9006, 0.3340916
516.8291, 0.3319286
518.7576, 0.3282471
520.6860, 0.3263856
522.6145, 0.3240850
524.5430, 0.3221778
526.4714, 0.3213540
528.3999, 0.3178086
530.3284, 0.3147132
532.2568, 0.3128159
534.1853, 0.3098907
536.1138, 0.3075883
538.0422, 0.3077669
539.9707, 0.3092639
541.8992, 0.3100339
543.8276, 0.3105486
545.7561, 0.3114969
547.6846, 0.3124554
549.6130, 0.3149323
551.5415, 0.3179178
553.4700, 0.3189603
555.3984, 0.3195973
557.3269, 0.3215738
559.2554, 0.3230631
561.1838, 0.3253132
563.1123, 0.3292014
565.0408, 0.3306498
566.9692, 0.3320848
568.8977, 0.3348807
570.8262, 0.3360850
572.7546, 0.3380238
574.6831, 0.3395706
576.6116, 0.3406864
578.5400, 0.3410905
580.4685, 0.3415565
582.3970, 0.3427925
584.3254, 0.3440382
586.2539, 0.3461148
588.1824, 0.3464108
590.1108, 0.3456593
592.0393, 0.3460651
593.9678, 0.3455811
595.8962, 0.3455755
597.8247, 0.3456014
599.7532, 0.3453614
601.6816, 0.3450953
603.6101, 0.3436483
605.5386, 0.3416946
607.4670, 0.3406386
609.3955, 0.3407378
611.3240, 0.3398328
613.2524, 0.3387716
615.1809, 0.3372944
617.1094, 0.3349390
619.0378, 0.3334496
620.9663, 0.3318627
622.8948, 0.3292930
624.8232, 0.3276289
626.7517, 0.3273595
628.6802, 0.3263345
630.6086, 0.3237575
632.5371, 0.3209726
634.4656, 0.3184916
636.3940, 0.3164900
638.3225, 0.3154394
640.2510, 0.3128852
642.1794, 0.3096448
644.1079, 0.3076805
646.0364, 0.3049365
647.9648, 0.3028998
649.8933, 0.3008675
651.8218, 0.2984967
653.7502, 0.2964154
655.6787, 0.2941572
657.6072, 0.2917711
659.5356, 0.2885971
661.4641, 0.2858036
663.3926, 0.2830726
665.3210, 0.2804754
667.2495, 0.2782165
669.1780, 0.2753299
671.1064, 0.2722113
673.0349, 0.2688529
674.9634, 0.2658097
676.8918, 0.2625577
678.8203, 0.2595012
680.7488, 0.2568470
682.6772, 0.2538598
684.6057, 0.2505978
686.5342, 0.2475960
688.4626, 0.2447593
690.3911, 0.2418120
692.3196, 0.2389498
694.2480, 0.2361219
696.1765, 0.2327537
698.1050, 0.2295297
700.0334, 0.2259455
701.9619, 0.2227022
703.8904, 0.2196742
705.8188, 0.2160510
707.7473, 0.2124326
709.6758, 0.2092069
711.6042, 0.2056751
713.5327, 0.2018496
715.4612, 0.1982265
717.3896, 0.1948949
719.3181, 0.1913592
721.2466, 0.1877392
723.1750, 0.1843818
725.1035, 0.1807075
727.0320, 0.1769234
728.9604, 0.1735580
730.8889, 0.1703096
732.8174, 0.1671676
734.7458, 0.1645665
736.6743, 0.1623044
738.6028, 0.1601453
740.5313, 0.1586231
742.4597, 0.1580979
744.3882, 0.1581685
746.3167, 0.1593230
748.2451, 0.1612269
750.1736, 0.1629626
752.1021, 0.1655118
754.0305, 0.1688770
755.9590, 0.1726263
757.8875, 0.1766495
759.8159, 0.1804674
761.7444, 0.1845306
763.6729, 0.1903343
765.6013, 0.1961077
767.5298, 0.2006575
769.4583, 0.2050936
771.3867, 0.2097369
773.3152, 0.2142389
775.2437, 0.2183194
777.1721, 0.2229477
779.1006, 0.2275929
781.0291, 0.2312369
782.9575, 0.2350427
784.8860, 0.2390779
786.8145, 0.2422277
788.7429, 0.2444009
790.6714, 0.2462869
792.5999, 0.2480000
794.5283, 0.2496821
796.4568, 0.2514069
798.3853, 0.2526652
800.3137, 0.2534711
802.2422, 0.2540751
804.1707, 0.2540984
806.0991, 0.2535394
808.0276, 0.2520349
809.9561, 0.2503807
811.8845, 0.2493793
813.8130, 0.2477753
815.7415, 0.2451936
817.6699, 0.2426245
819.5984, 0.2403423
821.5269, 0.2377789
823.4553, 0.2344845
825.3838, 0.2304962
827.3123, 0.2265157
829.2407, 0.2225977
831.1692, 0.2187232
833.0977, 0.2151990
835.0261, 0.2117794
836.9546, 0.2076505
838.8831, 0.2033007
840.8115, 0.1989981
842.7400, 0.1951783
844.6685, 0.1918576
846.5969, 0.1885405
848.5254, 0.1853296
850.4539, 0.1820002
852.3823, 0.1784479
854.3108, 0.1750959
856.2393, 0.1715971
858.1677, 0.1676553
860.0962, 0.1631193
862.0247, 0.1583910
863.9531, 0.1529355
865.8816, 0.1467828
867.8101, 0.1404362
869.7385, 0.1340863
871.6670, 0.1273626
873.5955, 0.1199211
875.5239, 0.1121070
877.4524, 0.1041008
879.3809, 9.5645271E-02
881.3093, 8.7390423E-02
883.2378, 7.8872353E-02
885.1663, 7.0618391E-02
887.0947, 6.3203007E-02
889.0232, 5.6204651E-02
890.9517, 5.0268371E-02
892.8801, 4.5619842E-02
894.8085, 4.1417319E-02
896.7370, 3.7997410E-02
898.6655, 3.5469759E-02
900.5939, 3.3549309E-02
902.5224, 3.2077622E-02
904.4509, 3.0921379E-02
906.3793, 2.9949529E-02
908.3078, 2.9124759E-02
910.2363, 2.8327379E-02
912.1647, 2.7850941E-02
914.0932, 2.7553240E-02
916.0217, 2.7127931E-02
917.9501, 2.7020451E-02
919.8786, 2.7126830E-02
921.8071, 2.7385799E-02
923.7355, 2.7797701E-02
925.6640, 2.8091950E-02
927.5925, 2.7866930E-02
929.5209, 2.7526399E-02
931.4494, 2.7410140E-02
933.3779, 2.7012490E-02
935.3063, 2.6363470E-02
937.2348, 2.5736470E-02
939.1633, 2.5240909E-02
941.0917, 2.4983050E-02
943.0202, 2.4676140E-02
944.9487, 2.4737749E-02
946.8771, 2.4883781E-02
948.8056, 2.4663121E-02
950.7341, 2.4702480E-02
952.6625, 2.4864050E-02
954.5910, 2.4575381E-02
956.5195, 2.4104280E-02
958.4479, 2.3865189E-02
960.3764, 2.3847301E-02
962.3049, 2.3907000E-02
964.2333, 2.3974840E-02
966.1618, 2.3724349E-02
968.0903, 2.3730740E-02
970.0187, 2.3755360E-02
971.9472, 2.3668559E-02
973.8757, 2.3833901E-02
975.8041, 2.3820940E-02
977.7326, 2.3608470E-02
979.6611, 2.3585210E-02
981.5895, 2.3796920E-02
983.5180, 2.3888331E-02
985.4465, 2.3781201E-02
987.3749, 2.3763860E-02
989.3034, 2.3938870E-02
991.2319, 2.3993170E-02
993.1603, 2.4061151E-02
995.0888, 2.4235060E-02
997.0173, 2.4412110E-02
998.9457, 2.4743799E-02
1000.874, 2.4869200E-02
1002.803, 2.5181750E-02
1004.731, 2.5301570E-02
1006.660, 2.5472280E-02
1008.588, 2.5870631E-02
1010.517, 2.6125580E-02
1012.445, 2.6358090E-02
1014.373, 2.6812891E-02
1016.302, 2.7309000E-02
1018.230, 2.7855819E-02
1020.159, 2.8302480E-02
1022.087, 2.8318150E-02
1024.016, 2.8473079E-02
1025.944, 2.8723020E-02
1027.873, 2.9159689E-02
1029.801, 2.9715110E-02
1031.730, 3.0152040E-02
1033.658, 3.0498119E-02
1035.587, 3.0785831E-02
1037.515, 3.0984391E-02
1039.444, 3.1307720E-02
1041.372, 3.1539101E-02
1043.301, 3.1719480E-02
1045.229, 3.1880300E-02
1047.157, 3.2007352E-02
1049.086, 3.1971689E-02
1051.014, 3.1944279E-02
1052.943, 3.2034211E-02
1054.871, 3.2467440E-02
1056.800, 3.2960732E-02
1058.728, 3.3331521E-02
1060.657, 3.3633560E-02
1062.585, 3.3936981E-02
1064.514, 3.4116391E-02
1066.442, 3.4362592E-02
1068.371, 3.4802590E-02
1070.299, 3.5294000E-02
1072.228, 3.6000829E-02
1074.156, 3.6657728E-02
1076.084, 3.6929429E-02
1078.013, 3.7347671E-02
1079.941, 3.7636090E-02
1081.870, 3.7939671E-02
1083.798, 3.7998930E-02
1085.727, 3.8041431E-02
1087.655, 3.8429022E-02
1089.584, 3.8835250E-02
1091.512, 3.9169770E-02
1093.441, 3.9573021E-02
1095.369, 3.9681599E-02
1097.298, 3.9732289E-02
1099.226, 3.9959390E-02
1101.155, 4.0559482E-02
1103.083, 4.1184150E-02
1105.011, 4.1427359E-02
1106.940, 4.1581109E-02
1108.868, 4.1627280E-02
1110.797, 4.1549649E-02
1112.725, 4.1711491E-02
1114.654, 4.2172760E-02
1116.582, 4.2387620E-02
1118.511, 4.2366639E-02
1120.439, 4.2326551E-02
1122.368, 4.2237770E-02
1124.296, 4.2310920E-02
1126.225, 4.2682920E-02
1128.153, 4.3227550E-02
1130.082, 4.3619569E-02
1132.010, 4.3846939E-02
1133.938, 4.4109270E-02
1135.867, 4.4466741E-02
1137.795, 4.5089021E-02
1139.724, 4.5435458E-02
1141.652, 4.5873251E-02
1143.581, 4.6503522E-02
1145.509, 4.6575360E-02
1147.438, 4.6536840E-02
1149.366, 4.7088832E-02
1151.295, 4.7433849E-02
1153.223, 4.7516119E-02
1155.152, 4.7583170E-02
1157.080, 4.7547251E-02
1159.009, 4.7809690E-02
1160.937, 4.8310801E-02
1162.865, 4.8236672E-02
1164.794, 4.8245009E-02
1166.722, 4.8466090E-02
1168.651, 4.8511852E-02
1170.579, 4.8563570E-02
1172.508, 4.8621390E-02
1174.436, 4.8597541E-02
1176.365, 4.8447300E-02
1178.293, 4.8490401E-02
1180.222, 4.8830669E-02
1182.150, 4.9189799E-02
1184.079, 4.9508750E-02
1186.007, 5.0021689E-02
1187.936, 5.0084509E-02
1189.864, 5.0107822E-02
1191.792, 5.0409149E-02
1193.721, 5.0826579E-02
1195.649, 5.1186729E-02
1197.578, 5.1241480E-02
1199.506, 5.1290002E-02
1201.435, 5.1434930E-02
1203.363, 5.1525980E-02
1205.292, 5.1592119E-02
1207.220, 5.2058991E-02
1209.149, 5.2437838E-02
1211.077, 5.2526221E-02
1213.006, 5.2783489E-02
1214.934, 5.3302471E-02
1216.863, 5.3472292E-02
1218.791, 5.3658519E-02
1220.719, 5.4024011E-02
1222.648, 5.4380272E-02
1224.576, 5.4802019E-02
1226.505, 5.5310398E-02
1228.433, 5.5615641E-02
1230.362, 5.5799879E-02
1232.290, 5.6014989E-02
1234.219, 5.6328051E-02
1236.147, 5.6790732E-02
1238.076, 5.7025090E-02
1240.004, 5.7436250E-02
1241.933, 5.7976350E-02
1243.861, 5.8297992E-02
1245.790, 5.8632869E-02
1247.718, 5.8962449E-02
1249.646, 5.9318349E-02
1251.575, 5.9714641E-02
1253.503, 6.0195629E-02
1255.432, 6.0601842E-02
1257.360, 6.0881771E-02
1259.289, 6.1347000E-02
1261.217, 6.1693870E-02
1263.146, 6.1934739E-02
1265.074, 6.2536202E-02
1267.003, 6.3056491E-02
1268.931, 6.3461341E-02
1270.860, 6.4074919E-02
1272.788, 6.4480290E-02
1274.717, 6.5022983E-02
1276.645, 6.5584622E-02
1278.573, 6.5992527E-02
1280.502, 6.6039167E-02
1282.430, 6.6288181E-02
1284.359, 6.6678278E-02
1286.287, 6.6774897E-02
1288.216, 6.6956252E-02
1290.144, 6.7096479E-02
1292.073, 6.7445211E-02
1294.001, 6.8117581E-02
1295.930, 6.8291657E-02
1297.858, 6.8738937E-02
1299.787, 6.9344863E-02
1301.715, 6.9573432E-02
1303.644, 6.9806710E-02
1305.572, 7.0351981E-02
1307.500, 7.0474498E-02
1309.429, 7.0756920E-02
1311.357, 7.1282893E-02
1313.286, 7.1407542E-02
1315.214, 7.2042547E-02
1317.143, 7.2438248E-02
1319.071, 7.2468057E-02
1321.000, 7.2786286E-02
1322.928, 7.3080391E-02
1324.857, 7.3427796E-02
1326.785, 7.3838532E-02
1328.714, 7.4221477E-02
1330.642, 7.4546099E-02
1332.571, 7.5274289E-02
1334.499, 7.5635433E-02
1336.427, 7.5765923E-02
1338.356, 7.5984709E-02
1340.284, 7.6350152E-02
1342.213, 7.6758027E-02
1344.141, 7.7289023E-02
1346.070, 7.7666968E-02
1347.998, 7.7683017E-02
1349.927, 7.7921398E-02
1351.855, 7.8541823E-02
1353.784, 7.9141498E-02
1355.712, 7.9374857E-02
1357.641, 7.9418339E-02
1359.569, 7.9561971E-02
1361.498, 8.0054350E-02
1363.426, 8.0578737E-02
1365.354, 8.0726027E-02
1367.283, 8.1280209E-02
1369.211, 8.2221933E-02
1371.140, 8.2393758E-02
1373.068, 8.2305022E-02
1374.997, 8.2984962E-02
1376.925, 8.3889186E-02
1378.854, 8.4124081E-02
1380.782, 8.4174551E-02
1382.711, 8.4254421E-02
1384.639, 8.4611319E-02
1386.568, 8.5346147E-02
1388.496, 8.5940354E-02
1390.424, 8.6228088E-02
1392.353, 8.6647034E-02
1394.281, 8.7177470E-02
1396.210, 8.7414093E-02
1398.138, 8.7729461E-02
1400.067, 8.8113599E-02
1401.995, 8.8767663E-02
1403.924, 8.9386843E-02
1405.852, 8.9760423E-02
1407.781, 9.0161443E-02
1409.709, 9.0646207E-02
1411.638, 9.1341391E-02
1413.566, 9.1782577E-02
1415.495, 9.2121847E-02
1417.423, 9.2328317E-02
1419.351, 9.2505403E-02
1421.280, 9.2941031E-02
1423.208, 9.3396313E-02
1425.137, 9.3589976E-02
1427.065, 9.3648054E-02
1428.994, 9.3976632E-02
1430.922, 9.4615862E-02
1432.851, 9.5290087E-02
1434.779, 9.5443837E-02
1436.708, 9.5498718E-02
1438.636, 9.5704287E-02
1440.565, 9.6188128E-02
1442.493, 9.6572660E-02
1444.422, 9.7157352E-02
1446.350, 9.7330697E-02
1448.278, 9.7322837E-02
1450.207, 9.7534657E-02
1452.135, 9.7902291E-02
1454.064, 9.8231927E-02
1455.992, 9.8512448E-02
1457.921, 9.8714218E-02
1459.849, 9.9077128E-02
1461.778, 9.9685997E-02
1463.706, 9.9659160E-02
1465.635, 9.9348620E-02
1467.563, 9.9143900E-02
1469.492, 9.9233337E-02
1471.420, 9.9599533E-02
1473.349, 9.9580370E-02
1475.277, 9.9493220E-02
1477.205, 9.9749170E-02
1479.134, 0.1001539
1481.062, 0.1003697
1482.991, 0.1008057
1484.919, 0.1014331
1486.848, 0.1015766
1488.776, 0.1014773
1490.705, 0.1019730
1492.633, 0.1025117
1494.562, 0.1029491
1496.490, 0.1033956
1498.419, 0.1038809
1500.347, 0.1041472
1502.276, 0.1042927
1504.204, 0.1049703
1506.132, 0.1057699
1508.061, 0.1059995
1509.989, 0.1059766
1511.918, 0.1063078
1513.846, 0.1067035
1515.775, 0.1070593
1517.703, 0.1078729
1519.632, 0.1085235
1521.560, 0.1088684
1523.489, 0.1092834
1525.417, 0.1095848
1527.346, 0.1097642
1529.274, 0.1101051
1531.203, 0.1107686
1533.131, 0.1113145
1535.059, 0.1113036
1536.988, 0.1118935
1538.916, 0.1129212
1540.845, 0.1133210
1542.773, 0.1133417
1544.702, 0.1135656
1546.630, 0.1140319
1548.559, 0.1145294
1550.487, 0.1148020
1552.416, 0.1151999
1554.344, 0.1157926
1556.273, 0.1161862
1558.201, 0.1166782
1560.130, 0.1170073
1562.058, 0.1172060
1563.986, 0.1175366
1565.915, 0.1181678
1567.843, 0.1186281
1569.772, 0.1184254
1571.700, 0.1183041
1573.629, 0.1190273
1575.557, 0.1198473
1577.486, 0.1198857
1579.414, 0.1200961
1581.343, 0.1207626
1583.271, 0.1213947
1585.200, 0.1217648
1587.128, 0.1217377
1589.057, 0.1220411
1590.985, 0.1224116
1592.913, 0.1228206
1594.842, 0.1232616
1596.770, 0.1237157
1598.699, 0.1241743
1600.627, 0.1244876
1602.556, 0.1253067
1604.484, 0.1259594
1606.413, 0.1262425
1608.341, 0.1268142
1610.270, 0.1273963
1612.198, 0.1276132
1614.127, 0.1279860
1616.055, 0.1286759
1617.984, 0.1287893
1619.912, 0.1289396
1621.840, 0.1294464
1623.769, 0.1298571
1625.697, 0.1302732
1627.626, 0.1307164
1629.554, 0.1313862
1631.483, 0.1316926
1633.411, 0.1317964
1635.340, 0.1320954
1637.268, 0.1321282
1639.197, 0.1319861
1641.125, 0.1327152
1643.054, 0.1334061
1644.982, 0.1337250
1646.911, 0.1334367
1648.839, 0.1329102
1650.767, 0.1330599
1652.696, 0.1339031
1654.624, 0.1336818
1656.553, 0.1332902
1658.481, 0.1337028
1660.410, 0.1341292
1662.338, 0.1343019
1664.267, 0.1342089
1666.195, 0.1341313
1668.124, 0.1343786
1670.052, 0.1347350
1671.981, 0.1347984
1673.909, 0.1347817
1675.838, 0.1349322
1677.766, 0.1346532
1679.694, 0.1352204
1681.623, 0.1361780
1683.551, 0.1364085
1685.480, 0.1361734
1687.408, 0.1359826
1689.337, 0.1363615
1691.265, 0.1371001
1693.194, 0.1377226
1695.122, 0.1381105
1697.051, 0.1376187
1698.979, 0.1376567
1700.908, 0.1380592
1702.836, 0.1381321
1704.765, 0.1382338
1706.693, 0.1385559
1708.621, 0.1390682
1710.550, 0.1391622
1712.478, 0.1391405
1714.407, 0.1395859
1716.335, 0.1399826
1718.264, 0.1403897
1720.192, 0.1402460
1722.121, 0.1402903
1724.049, 0.1406600
1725.978, 0.1412168
1727.906, 0.1416726
1729.835, 0.1419432
1731.763, 0.1425125
1733.692, 0.1425231
1735.620, 0.1421399
1737.548, 0.1418866
1739.477, 0.1417982
1741.405, 0.1413929
1743.334, 0.1412602
1745.262, 0.1415866
1747.191, 0.1418528
1749.119, 0.1414034
1751.048, 0.1412131
1752.976, 0.1417596
1754.905, 0.1426399
1756.833, 0.1430551
1758.762, 0.1429015
1760.690, 0.1428559
1762.619, 0.1430693
1764.547, 0.1436282
1766.475, 0.1436344
1768.404, 0.1434990
1770.332, 0.1438806
1772.261, 0.1440886
1774.189, 0.1437772
1776.118, 0.1438863
1778.046, 0.1444397
1779.975, 0.1449875
1781.903, 0.1453059
1783.832, 0.1453840
1785.760, 0.1459161
1787.689, 0.1458578
1789.617, 0.1459509
1791.546, 0.1468266
1793.474, 0.1470883
1795.402, 0.1471789
1797.331, 0.1477477
1799.259, 0.1485432
1801.188, 0.1488075
1803.116, 0.1490034
1805.045, 0.1493526
1806.973, 0.1493811
1808.902, 0.1493398
1810.830, 0.1490670
1812.759, 0.1494375
1814.687, 0.1499825
1816.616, 0.1507197
1818.544, 0.1514652
1820.473, 0.1515398
1822.401, 0.1515606
1824.329, 0.1521749
1826.258, 0.1527755
1828.186, 0.1537964
1830.115, 0.1546477
1832.043, 0.1545733
1833.972, 0.1548529
1835.900, 0.1550985
1837.829, 0.1551667
1839.757, 0.1548877
1841.686, 0.1552600
1843.614, 0.1553627
1845.543, 0.1553030
1847.471, 0.1556706
1849.400, 0.1567407
1851.328, 0.1574706
1853.256, 0.1575296
1855.185, 0.1576073
1857.113, 0.1580603
1859.042, 0.1585128
1860.970, 0.1584676
1862.899, 0.1580055
1864.827, 0.1582616
1866.756, 0.1592719
1868.684, 0.1602069
1870.613, 0.1608177
1872.541, 0.1610655
1874.470, 0.1606331
1876.398, 0.1603747
1878.327, 0.1607595
1880.255, 0.1610247
1882.183, 0.1617498
1884.112, 0.1634747
1886.040, 0.1635379
1887.969, 0.1633355
1889.897, 0.1631248
1891.826, 0.1629708
1893.754, 0.1630497
1895.683, 0.1631243
1897.611, 0.1633992
1899.540, 0.1630183
1901.468, 0.1625517
1903.397, 0.1642997
1905.325, 0.1648335
1907.254, 0.1652100
1909.182, 0.1660062
1911.110, 0.1663382
1913.039, 0.1663140
1914.967, 0.1666646
1916.896, 0.1666030
1918.824, 0.1676041
1920.753, 0.1684809
1922.681, 0.1679865
1924.610, 0.1679970
1926.538, 0.1692454
1928.467, 0.1689725
1930.395, 0.1684601
1932.324, 0.1686169
1934.252, 0.1696325
1936.181, 0.1700268
1938.109, 0.1698744
1940.037, 0.1703043
1941.966, 0.1715750
1943.894, 0.1724125
1945.823, 0.1726175
1947.751, 0.1717742
1949.680, 0.1712801
1951.608, 0.1716033
1953.537, 0.1707728
1955.465, 0.1704135
1957.394, 0.1713246
1959.322, 0.1730254
1961.251, 0.1745334
1963.179, 0.1761701
1965.108, 0.1751874
1967.036, 0.1722685
1968.964, 0.1738100
1970.893, 0.1752001
1972.821, 0.1750919
1974.750, 0.1742752
1976.678, 0.1754840
1978.607, 0.1798510
1980.535, 0.1814400
1982.464, 0.1803474
1984.392, 0.1795060
1986.321, 0.1807862
1988.249, 0.1795032
1990.178, 0.1774619
1992.106, 0.1775187
1994.035, 0.1777177
1995.963, 0.1784136
1997.891, 0.1797423
1999.820, 0.1802356
2001.748, 0.1788437
2003.677, 0.1765226
2005.605, 0.1767440
2007.534, 0.1813145
2009.462, 0.1820741
2011.391, 0.1782889
2013.319, 0.1779868
2015.248, 0.1787368
2017.176, 0.1811271
2019.105, 0.1814372
2021.033, 0.1816351
2022.962, 0.1823132
2024.890, 0.1825552
2026.818, 0.1843958
2028.747, 0.1831245
2030.675, 0.1822602
2032.604, 0.1840600
2034.532, 0.1855364
2036.461, 0.1852410
2038.389, 0.1856424
2040.318, 0.1859600
2042.246, 0.1849481
2044.175, 0.1843355
2046.103, 0.1828018
2048.032, 0.1830586
2049.960, 0.1856537
2051.889, 0.1856023
2053.817, 0.1849077
2055.746, 0.1862481
2057.674, 0.1861202
2059.603, 0.1848853
2061.531, 0.1868522
2063.459, 0.1898894
2065.388, 0.1893307
2067.316, 0.1886988
2069.245, 0.1895918
2071.173, 0.1910800
2073.102, 0.1898859
2075.030, 0.1888739
2076.959, 0.1907253
2078.887, 0.1927273
2080.816, 0.1926684
2082.744, 0.1916887
2084.673, 0.1904087
2086.601, 0.1895279
2088.530, 0.1901792
2090.458, 0.1896810
2092.386, 0.1888783
2094.315, 0.1888728
2096.243, 0.1906939
2098.172, 0.1913773
2100.100, 0.1911403
2102.029, 0.1917984
2103.957, 0.1937182
2105.886, 0.1965212
2107.814, 0.1971605
2109.743, 0.1934892
2111.671, 0.1934787
2113.600, 0.1968993
2115.528, 0.1954407
2117.457, 0.1926020
2119.385, 0.1933007
2121.313, 0.1946426
2123.242, 0.1937135
2125.170, 0.1937378
2127.099, 0.1941080
2129.027, 0.1941293
2130.956, 0.1950113
2132.884, 0.1948847
2134.813, 0.1950677
2136.741, 0.1970563
2138.670, 0.1954081
2140.598, 0.1924100
2142.527, 0.1941565
2144.455, 0.1976459
2146.384, 0.1996103
2148.312, 0.1988738
2150.240, 0.1958748
2152.169, 0.1956368
2154.097, 0.1952480
2156.026, 0.1951250
2157.954, 0.1990974
2159.883, 0.2008579
2161.811, 0.2002407
2163.740, 0.2018933
2165.668, 0.2032188
2167.597, 0.2058820
2169.525, 0.2046149
2171.454, 0.2027418
2173.382, 0.2030327
2175.311, 0.2036855
2177.239, 0.2032112
2179.167, 0.2004510
2181.096, 0.2009562
2183.024, 0.2016642
2184.953, 0.2007196
2186.881, 0.2007831
2188.810, 0.2027977
2190.738, 0.2052733
2192.667, 0.2052253
2194.595, 0.2049339
2196.524, 0.2051729
2198.452, 0.2057577
2200.381, 0.2057888
2202.309, 0.2059230
2204.238, 0.2032205
2206.166, 0.2039786
2208.094, 0.2065547
2210.023, 0.2057764
2211.951, 0.2029372
2213.880, 0.2039037
2215.808, 0.2070460
2217.737, 0.2064772
2219.665, 0.2059938
2221.594, 0.2085271
2223.522, 0.2088009
2225.451, 0.2065230
2227.379, 0.2076373
2229.308, 0.2099979
2231.236, 0.2101708
2233.165, 0.2097276
2235.093, 0.2084338
2237.021, 0.2085922
2238.950, 0.2108898
2240.878, 0.2124810
2242.807, 0.2117372
2244.735, 0.2122240
2246.664, 0.2109892
2248.592, 0.2111590
2250.521, 0.2124300
2252.449, 0.2120572
2254.378, 0.2132000
2256.306, 0.2156728
2258.235, 0.2159491
2260.163, 0.2148583
2262.092, 0.2140160
2264.020, 0.2136155
2265.948, 0.2131063
2267.877, 0.2124584
2269.805, 0.2132840
2271.734, 0.2137407
2273.662, 0.2136811
2275.591, 0.2146221
2277.519, 0.2140392
2279.448, 0.2144329
2281.376, 0.2160470
2283.305, 0.2172538
2285.233, 0.2173670
2287.162, 0.2159703
2289.090, 0.2161450
2291.019, 0.2179544
2292.947, 0.2182293
2294.875, 0.2164052
2296.804, 0.2167174
2298.732, 0.2169520
2300.661, 0.2164129
2302.589, 0.2173124
2304.518, 0.2174745
2306.446, 0.2173325
2308.375, 0.2171395
2310.303, 0.2171774
2312.232, 0.2173776
2314.160, 0.2190048
2316.089, 0.2202520
2318.017, 0.2203025
2319.946, 0.2195134
2321.874, 0.2202810
2323.802, 0.2214429
2325.731, 0.2211555
2327.659, 0.2196182
2329.588, 0.2187384
2331.516, 0.2191585
2333.445, 0.2202804
2335.373, 0.2207094
2337.302, 0.2202574
2339.230, 0.2204687
2341.159, 0.2209266
2343.087, 0.2214286
2345.016, 0.2211295
2346.944, 0.2209108
2348.873, 0.2212429
2350.801, 0.2209848
2352.729, 0.2217348
2354.658, 0.2228986
2356.586, 0.2231291
2358.515, 0.2235196
2360.443, 0.2237447
2362.372, 0.2233983
2364.300, 0.2238523
2366.229, 0.2238090
2368.157, 0.2230153
2370.086, 0.2231225
2372.014, 0.2241390
2373.942, 0.2247060
2375.871, 0.2241182
2377.799, 0.2253104
2379.728, 0.2266292
2381.656, 0.2259302
2383.585, 0.2250359
2385.513, 0.2255379
2387.442, 0.2254689
2389.370, 0.2258825
2391.299, 0.2265618
2393.227, 0.2270090
2395.156, 0.2274636
2397.084, 0.2269152
2399.012, 0.2258557
2400.941, 0.2260953
2402.869, 0.2269354
2404.798, 0.2279821
2406.726, 0.2288851
2408.655, 0.2282312
2410.583, 0.2279002
2412.512, 0.2277224
2414.440, 0.2293236
2416.369, 0.2309909
2418.297, 0.2308004
2420.226, 0.2304591
2422.154, 0.2295858
2424.083, 0.2303635
2426.011, 0.2323991
2427.939, 0.2335691
2429.868, 0.2333694
2431.796, 0.2327232
2433.725, 0.2317610
2435.653, 0.2315603
2437.582, 0.2331841
2439.510, 0.2342797
2441.439, 0.2346633
2443.367, 0.2342793
2445.296, 0.2349588
2447.224, 0.2346418
2449.153, 0.2345840
2451.081, 0.2345340
2453.010, 0.2345944
2454.938, 0.2352962
2456.866, 0.2359328
2458.795, 0.2362350
2460.723, 0.2369025
2462.652, 0.2360096
2464.580, 0.2352661
2466.509, 0.2353943
2468.437, 0.2359917
2470.366, 0.2366304
2472.294, 0.2366640
2474.223, 0.2368746
2476.151, 0.2363483
2478.080, 0.2367553
2480.008, 0.2364478
2481.937, 0.2381336
2483.865, 0.2394644
2485.793, 0.2390563
2487.722, 0.2382654
2489.650, 0.2380184
2491.579, 0.2382317
2493.507, 0.2386643
2495.436, 0.2392430
2497.364, 0.2396511
2499.293, 0.2393734
2501.221, 0.2389287
2503.150, 0.2391206
2505.078, 0.2398528
2507.007, 0.2407723
2508.935, 0.2408477
2510.864, 0.2405559
2512.792, 0.2406712
2514.720, 0.2407512
2516.649, 0.2402228
2518.577, 0.2418687
2520.506, 0.2440327
2522.434, 0.2431430
2524.363, 0.2415106
2526.291, 0.2420156
2528.220, 0.2442450
2530.148, 0.2442500
2532.077, 0.2432516
2534.005, 0.2437107
2535.934, 0.2443441
2537.862, 0.2439732
2539.791, 0.2448813
2541.719, 0.2455146
2543.647, 0.2446585
2545.576, 0.2441556
2547.504, 0.2449242
2549.433, 0.2453545
2551.361, 0.2459222
2553.290, 0.2472883
2555.218, 0.2468803
2557.147, 0.2467492
2559.075, 0.2482312
2561.004, 0.2486151
2562.932, 0.2485043
2564.861, 0.2479062
2566.789, 0.2484780
2568.718, 0.2480729
2570.646, 0.2474633
2572.574, 0.2480527
2574.503, 0.2482875
2576.431, 0.2483939
2578.360, 0.2489029
2580.288, 0.2480800
2582.217, 0.2490337
2584.145, 0.2511760
2586.074, 0.2510604
2588.002, 0.2508121
2589.931, 0.2503045
2591.859, 0.2505117
2593.788, 0.2512996
2595.716, 0.2520449
2597.645, 0.2514820
2599.573, 0.2508025
2601.501, 0.2517943
2603.430, 0.2527744
2605.358, 0.2523448
2607.287, 0.2515426
2609.215, 0.2516757
2611.144, 0.2521439
2613.072, 0.2521501
2615.001, 0.2516317
2616.929, 0.2521082
2618.858, 0.2541331
2620.786, 0.2551675
2622.715, 0.2549475
2624.643, 0.2556587
2626.572, 0.2565549
2628.500, 0.2558562
2630.428, 0.2557648
2632.357, 0.2565514
2634.285, 0.2562452
2636.214, 0.2563339
2638.142, 0.2570847
2640.071, 0.2565576
2641.999, 0.2560668
2643.928, 0.2563386
2645.856, 0.2572745
2647.785, 0.2573555
2649.713, 0.2571421
2651.642, 0.2573012
2653.570, 0.2575700
2655.499, 0.2579888
2657.427, 0.2580397
2659.355, 0.2580849
2661.284, 0.2585841
2663.212, 0.2592110
2665.141, 0.2580752
2667.069, 0.2569648
2668.998, 0.2581482
2670.926, 0.2589708
2672.855, 0.2585485
2674.783, 0.2589459
2676.712, 0.2598580
2678.640, 0.2600281
2680.569, 0.2608449
2682.497, 0.2612405
2684.426, 0.2614647
2686.354, 0.2616141
2688.282, 0.2613489
2690.211, 0.2620751
2692.139, 0.2625624
2694.068, 0.2618737
2695.996, 0.2609668
2697.925, 0.2611879
2699.853, 0.2625769
2701.782, 0.2631128
2703.710, 0.2627659
2705.639, 0.2627861
2707.567, 0.2628571
2709.496, 0.2624829
2711.424, 0.2633699
2713.353, 0.2637886
2715.281, 0.2642519
2717.209, 0.2644057
2719.138, 0.2651622
2721.066, 0.2664110
2722.995, 0.2667761
2724.923, 0.2666531
2726.852, 0.2657293
2728.780, 0.2657191
2730.709, 0.2667068
2732.637, 0.2666658
2734.566, 0.2659181
2736.494, 0.2663693
2738.423, 0.2677382
2740.351, 0.2684019
2742.280, 0.2685688
2744.208, 0.2692184
2746.136, 0.2688040
2748.065, 0.2682644
2749.993, 0.2687668
2751.922, 0.2690059
2753.850, 0.2695680
2755.779, 0.2693271
2757.707, 0.2686938
2759.636, 0.2694984
2761.564, 0.2706688
2763.493, 0.2711168
2765.421, 0.2701228
2767.350, 0.2691497
2769.278, 0.2704854
2771.207, 0.2724381
2773.135, 0.2729780
2775.063, 0.2728896
2776.992, 0.2720633
2778.920, 0.2711041
2780.849, 0.2709287
2782.777, 0.2717945
2784.706, 0.2735296
2786.634, 0.2748154
2788.563, 0.2749517
2790.491, 0.2745264
2792.420, 0.2733983
2794.348, 0.2737534
2796.277, 0.2752347
2798.205, 0.2761711
2800.134, 0.2760012
2802.062, 0.2754076
2803.990, 0.2755583
2805.919, 0.2759278
2807.847, 0.2762954
2809.776, 0.2773218
2811.704, 0.2779180
2813.633, 0.2779063
2815.561, 0.2794175
2817.490, 0.2794284
2819.418, 0.2783714
2821.347, 0.2791445
2823.275, 0.2795036
2825.204, 0.2799293
2827.132, 0.2803129
2829.061, 0.2799572
2830.989, 0.2807607
2832.917, 0.2816020
2834.846, 0.2812572
2836.774, 0.2815935
2838.703, 0.2827573
2840.631, 0.2836846
2842.560, 0.2838902
2844.488, 0.2833371
2846.417, 0.2831259
2848.345, 0.2834176
2850.274, 0.2822053
2852.202, 0.2821160
2854.131, 0.2829703
2856.059, 0.2832226
2857.988, 0.2817328
2859.916, 0.2808928
2861.844, 0.2828729
2863.773, 0.2837755
2865.701, 0.2835567
2867.630, 0.2846813
2869.558, 0.2843837
2871.487, 0.2846103
2873.415, 0.2855735
2875.344, 0.2852256
2877.272, 0.2858568
2879.201, 0.2871547
2881.129, 0.2875701
2883.058, 0.2868048
2884.986, 0.2866450
2886.915, 0.2865653
2888.843, 0.2866430
2890.771, 0.2868160
2892.700, 0.2883461
2894.628, 0.2898436
2896.557, 0.2892059
2898.485, 0.2896125
2900.414, 0.2902986
2902.342, 0.2900197
2904.271, 0.2910678
2906.199, 0.2926768
2908.128, 0.2923227
2910.056, 0.2906793
2911.985, 0.2912296
2913.913, 0.2921263
2915.842, 0.2904266
2917.770, 0.2876171
2919.698, 0.2879052
2921.627, 0.2896127
2923.555, 0.2898402
2925.484, 0.2900920
2927.412, 0.2904637
2929.341, 0.2898236
2931.269, 0.2903561
2933.198, 0.2909228
2935.126, 0.2899029
2937.055, 0.2886513
2938.983, 0.2880382
2940.912, 0.2877445
2942.840, 0.2892688
2944.769, 0.2910824
2946.697, 0.2917942
2948.625, 0.2910145
2950.554, 0.2905453
2952.482, 0.2921048
2954.411, 0.2918544
2956.339, 0.2923583
2958.268, 0.2932207
2960.196, 0.2934402
2962.125, 0.2939835
2964.053, 0.2938390
2965.982, 0.2931402
2967.910, 0.2921722
2969.839, 0.2928911
2971.767, 0.2941775
2973.696, 0.2943700
2975.624, 0.2934711
2977.552, 0.2938789
2979.481, 0.2952659
2981.409, 0.2962567
2983.338, 0.2955000
2985.266, 0.2948377
2987.195, 0.2959487
2989.123, 0.2964141
2991.052, 0.2962051
2992.980, 0.2957447
2994.909, 0.2966217
2996.837, 0.2972507
2998.766, 0.2960460
3000.694, 0.2971384
3002.623, 0.2986329
3004.551, 0.2980941
3006.479, 0.2978820
3008.408, 0.2977318
3010.336, 0.2964787
3012.265, 0.2971954
3014.193, 0.2985677
3016.122, 0.2982692
3018.050, 0.2981911
3019.979, 0.2990682
3021.907, 0.3003228
3023.836, 0.3004612
3025.764, 0.3010734
3027.693, 0.3020305
3029.621, 0.3014745
3031.550, 0.3023415
3033.478, 0.3032214
3035.406, 0.3028371
3037.335, 0.3023971
3039.263, 0.3037439
3041.192, 0.3041202
3043.120, 0.3022447
3045.049, 0.3026801
3046.977, 0.3039613
3048.906, 0.3034025
3050.834, 0.3039719
3052.763, 0.3049594
3054.691, 0.3057950
3056.620, 0.3051853
3058.548, 0.3057953
3060.477, 0.3057946
3062.405, 0.3055936
3064.333, 0.3053272
3066.262, 0.3054357
3068.190, 0.3067986
3070.119, 0.3083071
3072.047, 0.3071601
3073.976, 0.3065272
3075.904, 0.3058086
3077.833, 0.3075982
3079.761, 0.3082082
3081.690, 0.3070052
3083.618, 0.3066914
3085.547, 0.3070802
3087.475, 0.3078627
3089.404, 0.3089715
3091.332, 0.3106315
3093.260, 0.3102599
3095.189, 0.3091745
3097.117, 0.3089516
3099.046, 0.3099415
3100.974, 0.3092591
3102.903, 0.3092415
3104.831, 0.3102686
3106.760, 0.3092087
3108.688, 0.3092034
3110.617, 0.3107306
3112.545, 0.3110785
3114.474, 0.3111842
3116.402, 0.3099273
3118.331, 0.3096975
3120.259, 0.3119593
3122.188, 0.3126339
3124.116, 0.3123391
3126.044, 0.3140280
3127.973, 0.3159481
3129.901, 0.3156344
3131.830, 0.3148614
3133.758, 0.3137003
3135.687, 0.3127923
3137.615, 0.3143256
3139.544, 0.3159381
3141.472, 0.3171799
3143.401, 0.3175021
3145.329, 0.3178488
3147.258, 0.3170726
3149.186, 0.3158933
3151.115, 0.3149642
3153.043, 0.3173858
3154.971, 0.3187619
3156.900, 0.3181352
3158.828, 0.3190903
3160.757, 0.3188592
3162.685, 0.3185989
3164.614, 0.3193414
3166.542, 0.3215356
3168.471, 0.3221856
3170.399, 0.3208217
3172.328, 0.3184143
3174.256, 0.3192526
3176.185, 0.3206635
3178.113, 0.3217787
3180.042, 0.3221323
3181.970, 0.3220477
3183.898, 0.3212516
3185.827, 0.3213728
3187.755, 0.3235060
3189.684, 0.3258202
3191.612, 0.3266187
3193.541, 0.3269196
3195.469, 0.3263845
3197.398, 0.3247226
3199.326, 0.3239529
3201.255, 0.3249444
3203.183, 0.3248940
3205.112, 0.3238766
3207.040, 0.3226503
3208.969, 0.3239965
3210.897, 0.3267556
3212.825, 0.3272210
3214.754, 0.3254330
3216.682, 0.3235848
3218.611, 0.3233315
3220.539, 0.3239405
3222.468, 0.3246924
3224.396, 0.3256258
3226.325, 0.3276450
3228.253, 0.3271864
3230.182, 0.3237905
3232.110, 0.3235274
3234.039, 0.3252265
3235.967, 0.3270220
3237.896, 0.3293211
3239.824, 0.3298773
3241.752, 0.3293289
3243.681, 0.3284785
3245.609, 0.3287741
3247.538, 0.3302575
3249.466, 0.3316500
3251.395, 0.3314777
3253.323, 0.3304446
3255.252, 0.3303871
3257.180, 0.3297668
3259.109, 0.3284358
3261.037, 0.3290269
3262.966, 0.3301906
3264.894, 0.3311162
3266.823, 0.3342310
3268.751, 0.3338577
3270.679, 0.3312946
3272.608, 0.3302657
3274.536, 0.3310713
3276.465, 0.3322598
3278.393, 0.3326029
3280.322, 0.3324334
3282.250, 0.3315459
3284.179, 0.3296057
3286.107, 0.3319343
3288.036, 0.3346987
3289.964, 0.3340182
3291.893, 0.3320270
3293.821, 0.3336929
3295.750, 0.3336143
3297.678, 0.3319502
3299.606, 0.3343303
3301.535, 0.3369282
3303.463, 0.3354209
3305.392, 0.3337637
3307.320, 0.3351822
3309.249, 0.3364014
3311.177, 0.3373276
3313.106, 0.3377682
3315.034, 0.3374563
3316.963, 0.3359859
3318.891, 0.3366915
3320.820, 0.3370045
3322.748, 0.3341817
3324.677, 0.3339376
3326.605, 0.3362444
3328.533, 0.3368608
3330.462, 0.3384673
3332.390, 0.3407308
3334.319, 0.3394839
3336.247, 0.3361302
3338.176, 0.3362001
3340.104, 0.3389128
3342.033, 0.3402101
3343.961, 0.3384459
3345.890, 0.3382341
3347.818, 0.3404765
3349.747, 0.3404052
3351.675, 0.3407875
3353.604, 0.3398707
3355.532, 0.3397083
3357.460, 0.3405662
3359.389, 0.3397754
3361.317, 0.3384360
3363.246, 0.3399184
3365.174, 0.3409080
3367.103, 0.3412648
3369.031, 0.3412535
3370.960, 0.3428563
3372.888, 0.3431205
3374.817, 0.3397498
3376.745, 0.3403429
3378.674, 0.3457622
3380.602, 0.3459757
3382.531, 0.3417079
3384.459, 0.3406584
3386.387, 0.3433924
3388.316, 0.3448625
3390.244, 0.3451396
3392.173, 0.3441389
3394.101, 0.3454778
3396.030, 0.3474300
3397.958, 0.3486168
3399.887, 0.3469220
3401.815, 0.3460178
3403.744, 0.3453876
3405.672, 0.3451064
3407.601, 0.3445356
3409.529, 0.3444133
3411.458, 0.3451490
3413.386, 0.3446246
3415.314, 0.3440309
3417.243, 0.3442084
3419.171, 0.3451829
3421.100, 0.3440149
3423.028, 0.3440483
3424.957, 0.3462674
3426.885, 0.3481551
3428.814, 0.3485710
3430.742, 0.3478997
3432.671, 0.3474839
3434.599, 0.3474136
3436.528, 0.3498555
3438.456, 0.3490313
3440.385, 0.3469985
3442.313, 0.3457574
3444.241, 0.3453197
3446.170, 0.3447051
3448.098, 0.3437032
3450.027, 0.3471925
3451.955, 0.3471557
3453.884, 0.3456607
3455.812, 0.3482702
3457.741, 0.3482950
3459.669, 0.3489355
3461.598, 0.3487538
3463.526, 0.3494419
3465.455, 0.3486971
3467.383, 0.3508213
3469.312, 0.3527428
3471.240, 0.3504380
3473.168, 0.3481461
3475.097, 0.3499769
3477.025, 0.3500415
3478.954, 0.3502771
3480.882, 0.3509249
3482.811, 0.3508511
3484.739, 0.3508920
3486.668, 0.3501475
3488.596, 0.3500461
3490.525, 0.3503831
3492.453, 0.3504626
3494.382, 0.3499433
3496.310, 0.3489134
3498.239, 0.3469078
3500.167, 0.3467094
3502.095, 0.3479401
3504.024, 0.3493792
3505.952, 0.3497632
3507.881, 0.3500011
3509.809, 0.3494098
3511.738, 0.3495419
3513.666, 0.3490285
3515.595, 0.3487881
3517.523, 0.3507622
3519.452, 0.3484288
3521.380, 0.3455348
3523.309, 0.3479167
3525.237, 0.3483349
3527.166, 0.3479213
3529.094, 0.3482809
3531.022, 0.3506090
3532.951, 0.3507133
3534.879, 0.3482726
3536.808, 0.3470196
3538.736, 0.3476169
3540.665, 0.3507112
3542.593, 0.3524739
3544.522, 0.3516445
3546.450, 0.3496655
3548.379, 0.3491734
3550.307, 0.3505782
3552.236, 0.3493156
3554.164, 0.3506993
3556.093, 0.3524041
3558.021, 0.3503834
3559.949, 0.3483989
3561.878, 0.3495992
3563.806, 0.3504103
3565.735, 0.3476003
3567.663, 0.3488094
3569.592, 0.3510007
3571.520, 0.3472983
3573.449, 0.3453498
3575.377, 0.3480476
3577.306, 0.3498960
3579.234, 0.3503749
3581.163, 0.3516535
3583.091, 0.3508103
3585.020, 0.3489464
3586.948, 0.3478352
3588.876, 0.3495517
3590.805, 0.3534670
3592.733, 0.3538626
3594.662, 0.3520354
3596.590, 0.3510568
3598.519, 0.3501391
3600.447, 0.3515375
3602.376, 0.3525577
3604.304, 0.3487177
3606.233, 0.3479769
3608.161, 0.3482210
3610.090, 0.3488573
3612.018, 0.3478212
3613.947, 0.3486621
3615.875, 0.3511088
3617.803, 0.3509146
3619.732, 0.3520843
3621.660, 0.3523717
3623.589, 0.3514645
3625.517, 0.3530062
3627.446, 0.3517668
3629.374, 0.3498848
3631.303, 0.3503638
3633.231, 0.3496313
3635.160, 0.3514743
3637.088, 0.3529104
3639.017, 0.3546319
3640.945, 0.3542892
3642.874, 0.3524090
3644.802, 0.3553946
3646.730, 0.3544944
3648.659, 0.3546968
3650.587, 0.3560145
3652.516, 0.3558938
3654.444, 0.3558803
3656.373, 0.3539236
3658.301, 0.3535955
3660.230, 0.3558109
3662.158, 0.3579236
3664.087, 0.3543765
3666.015, 0.3533680
3667.944, 0.3580372
3669.872, 0.3601725
3671.801, 0.3584800
3673.729, 0.3585767
3675.657, 0.3613195
3677.586, 0.3613121
3679.514, 0.3633829
3681.443, 0.3630741
3683.371, 0.3601811
3685.300, 0.3563232
3687.228, 0.3588071
3689.157, 0.3614301
3691.085, 0.3597577
3693.014, 0.3598559
3694.942, 0.3607635
3696.871, 0.3587005
3698.799, 0.3574815
3700.728, 0.3582676
3702.656, 0.3591589
3704.584, 0.3579749
3706.513, 0.3581386
3708.441, 0.3589258
3710.370, 0.3601381
3712.298, 0.3629597
3714.227, 0.3628648
3716.155, 0.3639671
3718.084, 0.3653757
3720.012, 0.3610885
3721.941, 0.3618376
3723.869, 0.3649797
3725.798, 0.3600471
3727.726, 0.3576933
3729.655, 0.3613442
3731.583, 0.3647300
3733.511, 0.3651273
3735.440, 0.3629248
3737.368, 0.3634606
3739.297, 0.3653452
3741.225, 0.3660280
3743.154, 0.3673209
3745.082, 0.3682736
3747.011, 0.3670143
3748.939, 0.3667153
3750.868, 0.3639329
3752.796, 0.3627680
3754.725, 0.3658667
3756.653, 0.3667735
3758.582, 0.3661543
3760.510, 0.3675970
3762.438, 0.3693008
3764.367, 0.3703386
3766.295, 0.3688678
3768.224, 0.3679950
3770.152, 0.3678855
3772.081, 0.3651611
3774.009, 0.3635791
3775.938, 0.3668216
3777.866, 0.3719190
3779.795, 0.3721890
3781.723, 0.3683327
3783.652, 0.3681326
3785.580, 0.3680286
3787.509, 0.3669255
3789.437, 0.3660192
3791.365, 0.3647917
3793.294, 0.3675680
3795.222, 0.3710726
3797.151, 0.3706923
3799.079, 0.3716707
3801.008, 0.3735998
3802.936, 0.3751844
3804.865, 0.3756454
3806.793, 0.3750630
3808.722, 0.3769103
3810.650, 0.3764068
3812.579, 0.3744095
3814.507, 0.3743156
3816.436, 0.3730575
3818.364, 0.3748151
3820.292, 0.3746786
3822.221, 0.3761296
3824.149, 0.3763151
3826.078, 0.3768840
3828.006, 0.3787678
3829.935, 0.3781789
3831.863, 0.3792627
3833.792, 0.3784722
3835.720, 0.3751158
3837.649, 0.3740097
3839.577, 0.3763383
3841.506, 0.3768325
3843.434, 0.3755950
3845.363, 0.3779359
3847.291, 0.3819552
3849.219, 0.3795044
3851.148, 0.3805337
3853.076, 0.3818569
3855.005, 0.3825213
3856.933, 0.3826085
3858.862, 0.3771878
3860.790, 0.3751387
3862.719, 0.3769449
3864.647, 0.3818070
3866.576, 0.3820733
3868.504, 0.3785072
3870.433, 0.3789277
3872.361, 0.3813778
3874.290, 0.3825944
3876.218, 0.3829113
3878.146, 0.3808013
3880.075, 0.3822497
3882.003, 0.3817492
3883.932, 0.3819043
3885.860, 0.3828816
3887.789, 0.3842054
3889.717, 0.3834840
3891.646, 0.3772462
3893.574, 0.3739299
3895.503, 0.3811772
3897.431, 0.3874813
3899.360, 0.3855214
3901.288, 0.3840406
3903.217, 0.3837905
3905.145, 0.3843476
3907.073, 0.3830507
3909.002, 0.3817098
3910.930, 0.3874809
3912.859, 0.3890355
3914.787, 0.3852531
3916.716, 0.3867416
3918.644, 0.3861534
3920.573, 0.3805060
3922.501, 0.3819022
3924.430, 0.3853696
3926.358, 0.3879833
3928.287, 0.3900811
3930.215, 0.3910429
3932.144, 0.3874935
3934.072, 0.3845697
3936.000, 0.3868338
3937.929, 0.3885932
3939.857, 0.3904597
3941.786, 0.3900706
3943.714, 0.3855568
3945.643, 0.3861022
3947.571, 0.3893623
3949.500, 0.3865193
3951.428, 0.3886892
3953.357, 0.3926962
3955.285, 0.3912396
3957.214, 0.3866501
3959.142, 0.3841839
3961.071, 0.3844269
3962.999, 0.3876629
3964.927, 0.3935332
3966.856, 0.3954344
3968.784, 0.3942687
3970.713, 0.3928129
3972.641, 0.3933297
3974.570, 0.3923057
3976.498, 0.3926638
3978.427, 0.3922947
3980.355, 0.3929680
3982.284, 0.3917010
3984.212, 0.3899073
3986.141, 0.3892891
3988.069, 0.3933004
3989.998, 0.3952278
3991.926, 0.3928409
3993.854, 0.3931685
3995.783, 0.3963872
3997.711, 0.3985464
3999.640, 0.3987387
##END=



