##NAMES=Ferrimolybdite
##RRUFFID=R050542
##IDEAL CHEMISTRY=Fe^3+^_2_(Mo^6+^O_4_)_3_&#183;7H_2_O
##LOCALITY=Alicante mine, Colorado, USA
##OWNER=RRUFF
##SOURCE=University of Arizona Mineral Museum
##DESCRIPTION=Mat of parallel fibrous yellow-green crystals
##STATUS=The identification of this mineral has been confirmed only by chemical analysis
##URL=rruff.info/R050542
##MEASURED CHEMISTRY=Fe^3+^_2.00_(Mo_1.00_O_4_)_3_Â·11H_2_O ; H2O estimated by difference
399.1926, 0.4726996
401.1211, 0.4481952
403.0496, 0.4481952
404.9780, 0.4364922
406.9065, 0.4448122
408.8350, 0.4576530
410.7634, 0.4622888
412.6919, 0.4594819
414.6204, 0.4468266
416.5488, 0.4409817
418.4773, 0.4456109
420.4058, 0.4368986
422.3342, 0.4200499
424.2627, 0.4155276
426.1912, 0.4082134
428.1196, 0.4056873
430.0481, 0.3986273
431.9766, 0.3898410
433.9050, 0.3854346
435.8335, 0.3790105
437.7620, 0.3756303
439.6904, 0.3778455
441.6189, 0.3821304
443.5474, 0.3792918
445.4758, 0.3765397
447.4043, 0.3690470
449.3328, 0.3627155
451.2612, 0.3621181
453.1897, 0.3656358
455.1182, 0.3656399
457.0466, 0.3639598
458.9751, 0.3660223
460.9036, 0.3676171
462.8320, 0.3664958
464.7605, 0.3680708
466.6890, 0.3718760
468.6174, 0.3764851
470.5459, 0.3779196
472.4744, 0.3762251
474.4028, 0.3752857
476.3313, 0.3704261
478.2598, 0.3589881
480.1882, 0.3490596
482.1167, 0.3417246
484.0452, 0.3342522
485.9736, 0.3333768
487.9021, 0.3363344
489.8306, 0.3413027
491.7590, 0.3498297
493.6875, 0.3617064
495.6160, 0.3731485
497.5444, 0.3838861
499.4729, 0.3942144
501.4014, 0.4024570
503.3298, 0.4090488
505.2583, 0.4123109
507.1868, 0.4111989
509.1152, 0.4113517
511.0437, 0.4122296
512.9722, 0.4131401
514.9006, 0.4136793
516.8291, 0.4142662
518.7576, 0.4140777
520.6860, 0.4121521
522.6145, 0.4107217
524.5430, 0.4135886
526.4714, 0.4172149
528.3999, 0.4161572
530.3284, 0.4142926
532.2568, 0.4118614
534.1853, 0.4079607
536.1138, 0.4058317
538.0422, 0.4041011
539.9707, 0.4004089
541.8992, 0.3967745
543.8276, 0.3959108
545.7561, 0.3973742
547.6846, 0.3965198
549.6130, 0.3925772
551.5415, 0.3915212
553.4700, 0.3882831
555.3984, 0.3839531
557.3269, 0.3820640
559.2554, 0.3774355
561.1838, 0.3719257
563.1123, 0.3644677
565.0408, 0.3565171
566.9692, 0.3489709
568.8977, 0.3415165
570.8262, 0.3357116
572.7546, 0.3332454
574.6831, 0.3318830
576.6116, 0.3297916
578.5400, 0.3266519
580.4685, 0.3232746
582.3970, 0.3184488
584.3254, 0.3129084
586.2539, 0.3068597
588.1824, 0.3012232
590.1108, 0.2955252
592.0393, 0.2882353
593.9678, 0.2814503
595.8962, 0.2750956
597.8247, 0.2691191
599.7532, 0.2652653
601.6816, 0.2622777
603.6101, 0.2594060
605.5386, 0.2565010
607.4670, 0.2549857
609.3955, 0.2535242
611.3240, 0.2538129
613.2524, 0.2556013
615.1809, 0.2572214
617.1094, 0.2598303
619.0378, 0.2634361
620.9663, 0.2671932
622.8948, 0.2739115
624.8232, 0.2814406
626.7517, 0.2887213
628.6802, 0.2948121
630.6086, 0.2990986
632.5371, 0.3008550
634.4656, 0.2998121
636.3940, 0.2973827
638.3225, 0.2924510
640.2510, 0.2864746
642.1794, 0.2833464
644.1079, 0.2822544
646.0364, 0.2815989
647.9648, 0.2824902
649.8933, 0.2840395
651.8218, 0.2863474
653.7502, 0.2891380
655.6787, 0.2923222
657.6072, 0.2956526
659.5356, 0.2987371
661.4641, 0.3016814
663.3926, 0.3049143
665.3210, 0.3077852
667.2495, 0.3110748
669.1780, 0.3142866
671.1064, 0.3178075
673.0349, 0.3209063
674.9634, 0.3241907
676.8918, 0.3269594
678.8203, 0.3292444
680.7488, 0.3321456
682.6772, 0.3343705
684.6057, 0.3373174
686.5342, 0.3406242
688.4626, 0.3441053
690.3911, 0.3476036
692.3196, 0.3505132
694.2480, 0.3538109
696.1765, 0.3578456
698.1050, 0.3622476
700.0334, 0.3669565
701.9619, 0.3706775
703.8904, 0.3736468
705.8188, 0.3764599
707.7473, 0.3789315
709.6758, 0.3815961
711.6042, 0.3836939
713.5327, 0.3842945
715.4612, 0.3857837
717.3896, 0.3881130
719.3181, 0.3895245
721.2466, 0.3900223
723.1750, 0.3901021
725.1035, 0.3914552
727.0320, 0.3917008
728.9604, 0.3909141
730.8889, 0.3904020
732.8174, 0.3890053
734.7458, 0.3856712
736.6743, 0.3814536
738.6028, 0.3778008
740.5313, 0.3744493
742.4597, 0.3709318
744.3882, 0.3681380
746.3167, 0.3646532
748.2451, 0.3604572
750.1736, 0.3566118
752.1021, 0.3525267
754.0305, 0.3487603
755.9590, 0.3455788
757.8875, 0.3416156
759.8159, 0.3364156
761.7444, 0.3312886
763.6729, 0.3273053
765.6013, 0.3238258
767.5298, 0.3189174
769.4583, 0.3134327
771.3867, 0.3088107
773.3152, 0.3033858
775.2437, 0.2978047
777.1721, 0.2929759
779.1006, 0.2878863
781.0291, 0.2838494
782.9575, 0.2808711
784.8860, 0.2781695
786.8145, 0.2760238
788.7429, 0.2744410
790.6714, 0.2734506
792.5999, 0.2724191
794.5283, 0.2718259
796.4568, 0.2722587
798.3853, 0.2729491
800.3137, 0.2734762
802.2422, 0.2746227
804.1707, 0.2766931
806.0991, 0.2789711
808.0276, 0.2813404
809.9561, 0.2831546
811.8845, 0.2845640
813.8130, 0.2848550
815.7415, 0.2842534
817.6699, 0.2823806
819.5984, 0.2802102
821.5269, 0.2789364
823.4553, 0.2779661
825.3838, 0.2766667
827.3123, 0.2751117
829.2407, 0.2722803
831.1692, 0.2683902
833.0977, 0.2641492
835.0261, 0.2595382
836.9546, 0.2553523
838.8831, 0.2513940
840.8115, 0.2477983
842.7400, 0.2437334
844.6685, 0.2396353
846.5969, 0.2352497
848.5254, 0.2296720
850.4539, 0.2232361
852.3823, 0.2159853
854.3108, 0.2088549
856.2393, 0.2025065
858.1677, 0.1962136
860.0962, 0.1899019
862.0247, 0.1845810
863.9531, 0.1806091
865.8816, 0.1774712
867.8101, 0.1752041
869.7385, 0.1739345
871.6670, 0.1734686
873.5955, 0.1737238
875.5239, 0.1742898
877.4524, 0.1749404
879.3809, 0.1758686
881.3093, 0.1774044
883.2378, 0.1799232
885.1663, 0.1827823
887.0947, 0.1846497
889.0232, 0.1858227
890.9517, 0.1861413
892.8801, 0.1855316
894.8085, 0.1847992
896.7370, 0.1845120
898.6655, 0.1845319
900.5939, 0.1846285
902.5224, 0.1844065
904.4509, 0.1839872
906.3793, 0.1828777
908.3078, 0.1816879
910.2363, 0.1804184
912.1647, 0.1786402
914.0932, 0.1766516
916.0217, 0.1747346
917.9501, 0.1719638
919.8786, 0.1683328
921.8071, 0.1644979
923.7355, 0.1599140
925.6640, 0.1548368
927.5925, 0.1494043
929.5209, 0.1439008
931.4494, 0.1384858
933.3779, 0.1334450
935.3063, 0.1290359
937.2348, 0.1254880
939.1633, 0.1225490
941.0917, 0.1199311
943.0202, 0.1175435
944.9487, 0.1148135
946.8771, 0.1115692
948.8056, 0.1084495
950.7341, 0.1050120
952.6625, 0.1013945
954.5910, 9.8188087E-02
956.5195, 9.4685428E-02
958.4479, 9.0454057E-02
960.3764, 8.5493073E-02
962.3049, 7.9817951E-02
964.2333, 7.3865823E-02
966.1618, 6.7748912E-02
968.0903, 6.1682321E-02
970.0187, 5.6936581E-02
971.9472, 5.2958239E-02
973.8757, 4.9347859E-02
975.8041, 4.6820890E-02
977.7326, 4.5341048E-02
979.6611, 4.4906929E-02
981.5895, 4.5040511E-02
983.5180, 4.5647651E-02
985.4465, 4.7079150E-02
987.3749, 4.9360439E-02
989.3034, 5.2220419E-02
991.2319, 5.5232432E-02
993.1603, 5.8671590E-02
995.0888, 6.2508941E-02
997.0173, 6.7163780E-02
998.9457, 7.2409391E-02
1000.874, 7.8552671E-02
1002.803, 8.5617393E-02
1004.731, 9.1867082E-02
1006.660, 9.5882088E-02
1008.588, 9.8379463E-02
1010.517, 0.1003166
1012.445, 0.1019663
1014.373, 0.1017492
1016.302, 9.7965367E-02
1018.230, 9.2314653E-02
1020.159, 8.6698249E-02
1022.087, 8.1432991E-02
1024.016, 7.6484933E-02
1025.944, 7.1743757E-02
1027.873, 6.7298777E-02
1029.801, 6.3067444E-02
1031.730, 5.8891620E-02
1033.658, 5.4967910E-02
1035.587, 5.1024590E-02
1037.515, 4.7415990E-02
1039.444, 4.4464130E-02
1041.372, 4.1696299E-02
1043.301, 3.9296389E-02
1045.229, 3.7548881E-02
1047.157, 3.6283240E-02
1049.086, 3.5341911E-02
1051.014, 3.4617569E-02
1052.943, 3.4124240E-02
1054.871, 3.4046371E-02
1056.800, 3.4005661E-02
1058.728, 3.4214079E-02
1060.657, 3.4852169E-02
1062.585, 3.5666771E-02
1064.514, 3.6731351E-02
1066.442, 3.8462680E-02
1068.371, 4.0711232E-02
1070.299, 4.3401510E-02
1072.228, 4.6981599E-02
1074.156, 5.1763810E-02
1076.084, 5.8678310E-02
1078.013, 6.7231618E-02
1079.941, 7.4855164E-02
1081.870, 7.9942413E-02
1083.798, 8.2741342E-02
1085.727, 8.4287196E-02
1087.655, 8.5242331E-02
1089.584, 8.5972443E-02
1091.512, 8.5397869E-02
1093.441, 8.3254732E-02
1095.369, 7.9611577E-02
1097.298, 7.5135149E-02
1099.226, 7.0741281E-02
1101.155, 6.6368833E-02
1103.083, 6.1887950E-02
1105.011, 5.7562400E-02
1106.940, 5.3735361E-02
1108.868, 5.0388649E-02
1110.797, 4.7056299E-02
1112.725, 4.3958031E-02
1114.654, 4.1552000E-02
1116.582, 3.9473578E-02
1118.511, 3.7333839E-02
1120.439, 3.5738610E-02
1122.368, 3.5055611E-02
1124.296, 3.4465920E-02
1126.225, 3.3933859E-02
1128.153, 3.3469182E-02
1130.082, 3.3360679E-02
1132.010, 3.3654999E-02
1133.938, 3.3854220E-02
1135.867, 3.4337129E-02
1137.795, 3.4958459E-02
1139.724, 3.5877571E-02
1141.652, 3.7214261E-02
1143.581, 3.8666509E-02
1145.509, 4.0352501E-02
1147.438, 4.2282850E-02
1149.366, 4.4260211E-02
1151.295, 4.6326522E-02
1153.223, 4.8146680E-02
1155.152, 4.9855560E-02
1157.080, 5.1550079E-02
1159.009, 5.2610531E-02
1160.937, 5.2407410E-02
1162.865, 5.1392179E-02
1164.794, 4.9683642E-02
1166.722, 4.7220461E-02
1168.651, 4.4930290E-02
1170.579, 4.3353911E-02
1172.508, 4.3538440E-02
1174.436, 4.5437679E-02
1176.365, 4.8165150E-02
1178.293, 5.1123239E-02
1180.222, 5.4288030E-02
1182.150, 5.7564441E-02
1184.079, 6.0647968E-02
1186.007, 6.3053191E-02
1187.936, 6.4496942E-02
1189.864, 6.4981773E-02
1191.792, 6.4858653E-02
1193.721, 6.3968338E-02
1195.649, 6.2621258E-02
1197.578, 6.1231181E-02
1199.506, 5.9700899E-02
1201.435, 5.7990011E-02
1203.363, 5.6108192E-02
1205.292, 5.4688111E-02
1207.220, 5.4277591E-02
1209.149, 5.5021320E-02
1211.077, 5.6363940E-02
1213.006, 5.7695281E-02
1214.934, 5.8478400E-02
1216.863, 5.8543421E-02
1218.791, 5.7508498E-02
1220.719, 5.5769369E-02
1222.648, 5.3710241E-02
1224.576, 5.1516429E-02
1226.505, 4.9033821E-02
1228.433, 4.6532448E-02
1230.362, 4.3942161E-02
1232.290, 4.1450180E-02
1234.219, 3.9155860E-02
1236.147, 3.6978710E-02
1238.076, 3.5165429E-02
1240.004, 3.3691660E-02
1241.933, 3.2228980E-02
1243.861, 3.0816600E-02
1245.790, 2.9548829E-02
1247.718, 2.8458601E-02
1249.646, 2.7216589E-02
1251.575, 2.5892381E-02
1253.503, 2.4502380E-02
1255.432, 2.3193261E-02
1257.360, 2.1917440E-02
1259.289, 2.0583130E-02
1261.217, 1.9115640E-02
1263.146, 1.7876200E-02
1265.074, 1.6992191E-02
1267.003, 1.6103480E-02
1268.931, 1.5488040E-02
1270.860, 1.5024600E-02
1272.788, 1.4547640E-02
1274.717, 1.4215620E-02
1276.645, 1.4114810E-02
1278.573, 1.4093100E-02
1280.502, 1.4283860E-02
1282.430, 1.4410680E-02
1284.359, 1.4278830E-02
1286.287, 1.4358920E-02
1288.216, 1.4587790E-02
1290.144, 1.4837870E-02
1292.073, 1.5009640E-02
1294.001, 1.4954390E-02
1295.930, 1.4846850E-02
1297.858, 1.4485450E-02
1299.787, 1.4215720E-02
1301.715, 1.4043310E-02
1303.644, 1.3937160E-02
1305.572, 1.4010490E-02
1307.500, 1.4353480E-02
1309.429, 1.4571380E-02
1311.357, 1.4395090E-02
1313.286, 1.4125720E-02
1315.214, 1.4087220E-02
1317.143, 1.4051350E-02
1319.071, 1.4157460E-02
1321.000, 1.4140100E-02
1322.928, 1.3976920E-02
1324.857, 1.4198160E-02
1326.785, 1.4249380E-02
1328.714, 1.4142190E-02
1330.642, 1.4242770E-02
1332.571, 1.4310670E-02
1334.499, 1.4429510E-02
1336.427, 1.4716720E-02
1338.356, 1.4799610E-02
1340.284, 1.4959670E-02
1342.213, 1.5119170E-02
1344.141, 1.5225400E-02
1346.070, 1.5374840E-02
1347.998, 1.5356720E-02
1349.927, 1.5283740E-02
1351.855, 1.5499740E-02
1353.784, 1.5986171E-02
1355.712, 1.6469531E-02
1357.641, 1.6865280E-02
1359.569, 1.7475400E-02
1361.498, 1.8417049E-02
1363.426, 1.9466460E-02
1365.354, 1.9777790E-02
1367.283, 1.9276360E-02
1369.211, 1.9009700E-02
1371.140, 1.8951960E-02
1373.068, 1.8841561E-02
1374.997, 1.9316509E-02
1376.925, 2.0041460E-02
1378.854, 2.0677431E-02
1380.782, 2.1638490E-02
1382.711, 2.3014270E-02
1384.639, 2.4575381E-02
1386.568, 2.6102740E-02
1388.496, 2.7478529E-02
1390.424, 2.8957820E-02
1392.353, 3.0565720E-02
1394.281, 3.2524139E-02
1396.210, 3.4787081E-02
1398.138, 3.7174050E-02
1400.067, 3.9796971E-02
1401.995, 4.2264301E-02
1403.924, 4.4424050E-02
1405.852, 4.6299718E-02
1407.781, 4.7963399E-02
1409.709, 4.9166080E-02
1411.638, 4.9704030E-02
1413.566, 4.9942348E-02
1415.495, 5.0045591E-02
1417.423, 5.0023731E-02
1419.351, 4.9871840E-02
1421.280, 4.9543791E-02
1423.208, 4.9168751E-02
1425.137, 4.8711959E-02
1427.065, 4.7730532E-02
1428.994, 4.6386831E-02
1430.922, 4.4921700E-02
1432.851, 4.3045819E-02
1434.779, 4.1137930E-02
1436.708, 3.9422560E-02
1438.636, 3.7801299E-02
1440.565, 3.6099032E-02
1442.493, 3.4518909E-02
1444.422, 3.3069529E-02
1446.350, 3.1621311E-02
1448.278, 3.0191360E-02
1450.207, 2.8919291E-02
1452.135, 2.7620001E-02
1454.064, 2.6082650E-02
1455.992, 2.4633620E-02
1457.921, 2.3785710E-02
1459.849, 2.3279980E-02
1461.778, 2.2432990E-02
1463.706, 2.1504641E-02
1465.635, 2.0718681E-02
1467.563, 2.0129500E-02
1469.492, 2.0125721E-02
1471.420, 2.0574270E-02
1473.349, 2.0664539E-02
1475.277, 2.0516161E-02
1477.205, 2.0373341E-02
1479.134, 2.0483639E-02
1481.062, 2.0498609E-02
1482.991, 2.0690920E-02
1484.919, 2.0967619E-02
1486.848, 2.1293810E-02
1488.776, 2.1784861E-02
1490.705, 2.2574840E-02
1492.633, 2.3643600E-02
1494.562, 2.5116529E-02
1496.490, 2.6566010E-02
1498.419, 2.8067321E-02
1500.347, 2.9342391E-02
1502.276, 3.0023670E-02
1504.204, 3.0351160E-02
1506.132, 2.9827051E-02
1508.061, 2.8297340E-02
1509.989, 2.6607160E-02
1511.918, 2.4834260E-02
1513.846, 2.3410641E-02
1515.775, 2.2626540E-02
1517.703, 2.1986861E-02
1519.632, 2.1619720E-02
1521.560, 2.1613451E-02
1523.489, 2.1736581E-02
1525.417, 2.1833040E-02
1527.346, 2.1993561E-02
1529.274, 2.2066901E-02
1531.203, 2.2108590E-02
1533.131, 2.2210550E-02
1535.059, 2.2575891E-02
1536.988, 2.2754069E-02
1538.916, 2.2891130E-02
1540.845, 2.3288300E-02
1542.773, 2.3511400E-02
1544.702, 2.3757599E-02
1546.630, 2.4099590E-02
1548.559, 2.4353869E-02
1550.487, 2.4797630E-02
1552.416, 2.4938820E-02
1554.344, 2.5223440E-02
1556.273, 2.5682680E-02
1558.201, 2.5753271E-02
1560.130, 2.5865650E-02
1562.058, 2.6418131E-02
1563.986, 2.7104151E-02
1565.915, 2.7495340E-02
1567.843, 2.7487250E-02
1569.772, 2.7806191E-02
1571.700, 2.8446009E-02
1573.629, 2.8920781E-02
1575.557, 2.9217379E-02
1577.486, 2.9738201E-02
1579.414, 3.0358620E-02
1581.343, 3.0974880E-02
1583.271, 3.1540170E-02
1585.200, 3.2236401E-02
1587.128, 3.3265229E-02
1589.057, 3.4240611E-02
1590.985, 3.5074569E-02
1592.913, 3.6015000E-02
1594.842, 3.7001371E-02
1596.770, 3.7933141E-02
1598.699, 3.9017580E-02
1600.627, 4.0010631E-02
1602.556, 4.0847171E-02
1604.484, 4.1494839E-02
1606.413, 4.1948400E-02
1608.341, 4.2418670E-02
1610.270, 4.2855792E-02
1612.198, 4.3241739E-02
1614.127, 4.3556679E-02
1616.055, 4.3624271E-02
1617.984, 4.3505069E-02
1619.912, 4.3118041E-02
1621.840, 4.2800359E-02
1623.769, 4.2383522E-02
1625.697, 4.1711219E-02
1627.626, 4.1161459E-02
1629.554, 4.0743358E-02
1631.483, 4.0143330E-02
1633.411, 3.9499339E-02
1635.340, 3.8934112E-02
1637.268, 3.8260181E-02
1639.197, 3.7747908E-02
1641.125, 3.6938742E-02
1643.054, 3.6059931E-02
1644.982, 3.5309851E-02
1646.911, 3.4589618E-02
1648.839, 3.3575661E-02
1650.767, 3.2551602E-02
1652.696, 3.1546019E-02
1654.624, 3.0937411E-02
1656.553, 3.0269619E-02
1658.481, 2.9297940E-02
1660.410, 2.8498400E-02
1662.338, 2.7912280E-02
1664.267, 2.7411370E-02
1666.195, 2.6729479E-02
1668.124, 2.5873180E-02
1670.052, 2.5306460E-02
1671.981, 2.4866780E-02
1673.909, 2.4147861E-02
1675.838, 2.3268269E-02
1677.766, 2.2615440E-02
1679.694, 2.1933580E-02
1681.623, 2.1261141E-02
1683.551, 2.0824829E-02
1685.480, 2.0243490E-02
1687.408, 1.9781150E-02
1689.337, 1.9165220E-02
1691.265, 1.8423449E-02
1693.194, 1.7887110E-02
1695.122, 1.7372619E-02
1697.051, 1.6893590E-02
1698.979, 1.6421940E-02
1700.908, 1.5813161E-02
1702.836, 1.5051520E-02
1704.765, 1.4335810E-02
1706.693, 1.3769300E-02
1708.621, 1.3341070E-02
1710.550, 1.3092850E-02
1712.478, 1.2862680E-02
1714.407, 1.2672450E-02
1716.335, 1.2832140E-02
1718.264, 1.3222830E-02
1720.192, 1.3348660E-02
1722.121, 1.3081610E-02
1724.049, 1.2849030E-02
1725.978, 1.2971950E-02
1727.906, 1.3049240E-02
1729.835, 1.3005880E-02
1731.763, 1.2431390E-02
1733.692, 1.1728720E-02
1735.620, 1.1391540E-02
1737.548, 1.1010030E-02
1739.477, 1.0607060E-02
1741.405, 1.0671950E-02
1743.334, 1.1241290E-02
1745.262, 1.2036900E-02
1747.191, 1.2776030E-02
1749.119, 1.3846980E-02
1751.048, 1.5143190E-02
1752.976, 1.6462199E-02
1754.905, 1.8118400E-02
1756.833, 1.9906219E-02
1758.762, 2.1492871E-02
1760.690, 2.3043649E-02
1762.619, 2.4536319E-02
1764.547, 2.5965709E-02
1766.475, 2.7113350E-02
1768.404, 2.7752681E-02
1770.332, 2.8019780E-02
1772.261, 2.7793581E-02
1774.189, 2.7324241E-02
1776.118, 2.6523599E-02
1778.046, 2.5551260E-02
1779.975, 2.4477670E-02
1781.903, 2.3389939E-02
1783.832, 2.2393040E-02
1785.760, 2.1472231E-02
1787.689, 2.0691060E-02
1789.617, 1.9829670E-02
1791.546, 1.8549301E-02
1793.474, 1.7363790E-02
1795.402, 1.6599610E-02
1797.331, 1.6147699E-02
1799.259, 1.6283531E-02
1801.188, 1.6342839E-02
1803.116, 1.6274270E-02
1805.045, 1.5851710E-02
1806.973, 1.5283640E-02
1808.902, 1.5271250E-02
1810.830, 1.5303380E-02
1812.759, 1.5410300E-02
1814.687, 1.5112690E-02
1816.616, 1.4790350E-02
1818.544, 1.5008820E-02
1820.473, 1.5421430E-02
1822.401, 1.5386370E-02
1824.329, 1.5118490E-02
1826.258, 1.5112380E-02
1828.186, 1.4993280E-02
1830.115, 1.4988680E-02
1832.043, 1.5174790E-02
1833.972, 1.5082020E-02
1835.900, 1.4813840E-02
1837.829, 1.4925820E-02
1839.757, 1.5286150E-02
1841.686, 1.5286900E-02
1843.614, 1.4950720E-02
1845.543, 1.4889270E-02
1847.471, 1.5086240E-02
1849.400, 1.5484330E-02
1851.328, 1.5614450E-02
1853.256, 1.5387400E-02
1855.185, 1.5287550E-02
1857.113, 1.5482580E-02
1859.042, 1.5849341E-02
1860.970, 1.5551430E-02
1862.899, 1.5087400E-02
1864.827, 1.4981350E-02
1866.756, 1.4742390E-02
1868.684, 1.4893180E-02
1870.613, 1.5480170E-02
1872.541, 1.6210539E-02
1874.470, 1.5749309E-02
1876.398, 1.4854500E-02
1878.327, 1.4930180E-02
1880.255, 1.5539580E-02
1882.183, 1.5644880E-02
1884.112, 1.5507740E-02
1886.040, 1.5580270E-02
1887.969, 1.6004220E-02
1889.897, 1.5571580E-02
1891.826, 1.5173480E-02
1893.754, 1.5466570E-02
1895.683, 1.5777180E-02
1897.611, 1.6175970E-02
1899.540, 1.6319269E-02
1901.468, 1.6380550E-02
1903.397, 1.5896700E-02
1905.325, 1.5411740E-02
1907.254, 1.5554890E-02
1909.182, 1.5946779E-02
1911.110, 1.5882680E-02
1913.039, 1.5952621E-02
1914.967, 1.5827971E-02
1916.896, 1.5353390E-02
1918.824, 1.5459570E-02
1920.753, 1.5919389E-02
1922.681, 1.5830580E-02
1924.610, 1.5566470E-02
1926.538, 1.6167309E-02
1928.467, 1.6596440E-02
1930.395, 1.5973181E-02
1932.324, 1.5576870E-02
1934.252, 1.6517580E-02
1936.181, 1.6804591E-02
1938.109, 1.7035579E-02
1940.037, 1.6545391E-02
1941.966, 1.6128240E-02
1943.894, 1.6649110E-02
1945.823, 1.6343631E-02
1947.751, 1.6358530E-02
1949.680, 1.7105291E-02
1951.608, 1.6976619E-02
1953.537, 1.6967010E-02
1955.465, 1.6708260E-02
1957.394, 1.6003020E-02
1959.322, 1.6817089E-02
1961.251, 1.7122351E-02
1963.179, 1.6626799E-02
1965.108, 1.7163031E-02
1967.036, 1.7822310E-02
1968.964, 1.8289819E-02
1970.893, 1.7706061E-02
1972.821, 1.7836500E-02
1974.750, 1.7175021E-02
1976.678, 1.7089089E-02
1978.607, 1.8917140E-02
1980.535, 1.9775881E-02
1982.464, 1.8894790E-02
1984.392, 1.7228769E-02
1986.321, 1.6465301E-02
1988.249, 1.6686190E-02
1990.178, 1.7576311E-02
1992.106, 1.7911280E-02
1994.035, 1.7567510E-02
1995.963, 1.6715631E-02
1997.891, 1.6332550E-02
1999.820, 1.6508359E-02
2001.748, 1.7124420E-02
2003.677, 1.6812580E-02
2005.605, 1.6784091E-02
2007.534, 1.6876711E-02
2009.462, 1.6656820E-02
2011.391, 1.5952351E-02
2013.319, 1.5627470E-02
2015.248, 1.6693290E-02
2017.176, 1.7232761E-02
2019.105, 1.6265810E-02
2021.033, 1.6594300E-02
2022.962, 1.7335510E-02
2024.890, 1.7255491E-02
2026.818, 1.7374139E-02
2028.747, 1.7397281E-02
2030.675, 1.7249970E-02
2032.604, 1.7081650E-02
2034.532, 1.7942980E-02
2036.461, 1.8778000E-02
2038.389, 1.9054700E-02
2040.318, 1.9293750E-02
2042.246, 1.9564230E-02
2044.175, 1.8977189E-02
2046.103, 1.8742399E-02
2048.032, 1.9477241E-02
2049.960, 1.9350700E-02
2051.889, 1.8447300E-02
2053.817, 1.8069459E-02
2055.746, 1.8349200E-02
2057.674, 1.8817930E-02
2059.603, 1.8935829E-02
2061.531, 1.8416811E-02
2063.459, 1.8042481E-02
2065.388, 1.7779849E-02
2067.316, 1.7979899E-02
2069.245, 1.8724900E-02
2071.173, 1.9129450E-02
2073.102, 1.9166470E-02
2075.030, 1.9399971E-02
2076.959, 1.9128099E-02
2078.887, 1.8652361E-02
2080.816, 1.9438500E-02
2082.744, 1.9950520E-02
2084.673, 1.8766791E-02
2086.601, 1.8384941E-02
2088.530, 1.8674079E-02
2090.458, 1.8739531E-02
2092.386, 1.8208539E-02
2094.315, 1.7677000E-02
2096.243, 1.7723000E-02
2098.172, 1.8277690E-02
2100.100, 1.8549159E-02
2102.029, 1.9292681E-02
2103.957, 1.9541319E-02
2105.886, 1.8937729E-02
2107.814, 1.8589521E-02
2109.743, 1.8635960E-02
2111.671, 1.8605810E-02
2113.600, 1.8478241E-02
2115.528, 1.7760800E-02
2117.457, 1.7877139E-02
2119.385, 1.8032430E-02
2121.313, 1.7717650E-02
2123.242, 1.7300859E-02
2125.170, 1.7785100E-02
2127.099, 1.8249489E-02
2129.027, 1.8343560E-02
2130.956, 1.8464830E-02
2132.884, 1.7162340E-02
2134.813, 1.6566800E-02
2136.741, 1.6805410E-02
2138.670, 1.6954400E-02
2140.598, 1.7910421E-02
2142.527, 1.9190090E-02
2144.455, 1.9031189E-02
2146.384, 1.8821180E-02
2148.312, 1.8353829E-02
2150.240, 1.7427390E-02
2152.169, 1.7415971E-02
2154.097, 1.7723421E-02
2156.026, 1.7140860E-02
2157.954, 1.6238190E-02
2159.883, 1.8087249E-02
2161.811, 1.8741811E-02
2163.740, 1.8498050E-02
2165.668, 1.7885249E-02
2167.597, 1.8187979E-02
2169.525, 1.7260520E-02
2171.454, 1.6609831E-02
2173.382, 1.7537801E-02
2175.311, 1.8665049E-02
2177.239, 1.7930480E-02
2179.167, 1.7784679E-02
2181.096, 1.9335421E-02
2183.024, 1.8363470E-02
2184.953, 1.7320059E-02
2186.881, 1.7992990E-02
2188.810, 1.8642120E-02
2190.738, 1.8006630E-02
2192.667, 1.7443530E-02
2194.595, 1.8089840E-02
2196.524, 1.8374011E-02
2198.452, 1.8610019E-02
2200.381, 1.8604839E-02
2202.309, 1.8285530E-02
2204.238, 1.8561261E-02
2206.166, 1.8568870E-02
2208.094, 1.8521739E-02
2210.023, 1.8700579E-02
2211.951, 1.7476881E-02
2213.880, 1.7722210E-02
2215.808, 1.8649559E-02
2217.737, 1.8651631E-02
2219.665, 1.7783860E-02
2221.594, 1.7558061E-02
2223.522, 1.8320650E-02
2225.451, 1.8795090E-02
2227.379, 1.9242730E-02
2229.308, 1.9344220E-02
2231.236, 1.9173499E-02
2233.165, 1.9016379E-02
2235.093, 1.9557750E-02
2237.021, 1.9995101E-02
2238.950, 1.9698940E-02
2240.878, 1.9690759E-02
2242.807, 1.9618090E-02
2244.735, 1.9002151E-02
2246.664, 1.9054910E-02
2248.592, 1.9295340E-02
2250.521, 2.0093059E-02
2252.449, 2.0163789E-02
2254.378, 2.0081190E-02
2256.306, 2.0782771E-02
2258.235, 2.0608110E-02
2260.163, 1.9799640E-02
2262.092, 1.9960480E-02
2264.020, 2.0416090E-02
2265.948, 2.0553010E-02
2267.877, 2.0332091E-02
2269.805, 2.0323060E-02
2271.734, 2.0737590E-02
2273.662, 2.0829210E-02
2275.591, 2.0744020E-02
2277.519, 2.0495759E-02
2279.448, 2.0849969E-02
2281.376, 2.1119669E-02
2283.305, 2.1120790E-02
2285.233, 2.1102071E-02
2287.162, 2.0863280E-02
2289.090, 2.0721531E-02
2291.019, 2.0758200E-02
2292.947, 2.0604050E-02
2294.875, 2.0531090E-02
2296.804, 2.0553570E-02
2298.732, 2.0497121E-02
2300.661, 2.0678440E-02
2302.589, 2.0786909E-02
2304.518, 2.0862550E-02
2306.446, 2.0579800E-02
2308.375, 2.0676460E-02
2310.303, 2.1013491E-02
2312.232, 2.0869710E-02
2314.160, 2.0594390E-02
2316.089, 2.0647369E-02
2318.017, 2.0830220E-02
2319.946, 2.0909101E-02
2321.874, 2.1065241E-02
2323.802, 2.1515541E-02
2325.731, 2.1300489E-02
2327.659, 2.0878511E-02
2329.588, 2.1023091E-02
2331.516, 2.1127950E-02
2333.445, 2.1089939E-02
2335.373, 2.1071291E-02
2337.302, 2.0881500E-02
2339.230, 2.0890011E-02
2341.159, 2.0678820E-02
2343.087, 2.0779300E-02
2345.016, 2.0970991E-02
2346.944, 2.1058770E-02
2348.873, 2.1048510E-02
2350.801, 2.0960080E-02
2352.729, 2.1155190E-02
2354.658, 2.1119190E-02
2356.586, 2.0537481E-02
2358.515, 2.0643240E-02
2360.443, 2.0698629E-02
2362.372, 2.0458009E-02
2364.300, 2.0677499E-02
2366.229, 2.0576499E-02
2368.157, 2.0709541E-02
2370.086, 2.0694910E-02
2372.014, 2.0453179E-02
2373.942, 2.0784440E-02
2375.871, 2.1297360E-02
2377.799, 2.1528730E-02
2379.728, 2.1293771E-02
2381.656, 2.0919461E-02
2383.585, 2.0569829E-02
2385.513, 2.1241929E-02
2387.442, 2.1516580E-02
2389.370, 2.1163329E-02
2391.299, 2.1107780E-02
2393.227, 2.0888209E-02
2395.156, 2.0888491E-02
2397.084, 2.1012509E-02
2399.012, 2.0992801E-02
2400.941, 2.1181939E-02
2402.869, 2.1106910E-02
2404.798, 2.1363409E-02
2406.726, 2.1653850E-02
2408.655, 2.1759881E-02
2410.583, 2.1772040E-02
2412.512, 2.1231251E-02
2414.440, 2.1041030E-02
2416.369, 2.1553800E-02
2418.297, 2.1922670E-02
2420.226, 2.1720169E-02
2422.154, 2.1328120E-02
2424.083, 2.1201881E-02
2426.011, 2.1442501E-02
2427.939, 2.1647019E-02
2429.868, 2.1351650E-02
2431.796, 2.1303341E-02
2433.725, 2.1620421E-02
2435.653, 2.1936540E-02
2437.582, 2.2041660E-02
2439.510, 2.2074601E-02
2441.439, 2.1672729E-02
2443.367, 2.1273520E-02
2445.296, 2.1756360E-02
2447.224, 2.2306111E-02
2449.153, 2.2400120E-02
2451.081, 2.2447960E-02
2453.010, 2.2728371E-02
2454.938, 2.2513449E-02
2456.866, 2.1854119E-02
2458.795, 2.1718530E-02
2460.723, 2.2183109E-02
2462.652, 2.2532471E-02
2464.580, 2.2420529E-02
2466.509, 2.2422491E-02
2468.437, 2.2554640E-02
2470.366, 2.2432640E-02
2472.294, 2.2488290E-02
2474.223, 2.2435609E-02
2476.151, 2.2519629E-02
2478.080, 2.2872761E-02
2480.008, 2.3146531E-02
2481.937, 2.3159079E-02
2483.865, 2.3050191E-02
2485.793, 2.2986639E-02
2487.722, 2.2731690E-02
2489.650, 2.2915831E-02
2491.579, 2.3737339E-02
2493.507, 2.3616340E-02
2495.436, 2.3079639E-02
2497.364, 2.3370391E-02
2499.293, 2.3363290E-02
2501.221, 2.3006830E-02
2503.150, 2.3117000E-02
2505.078, 2.3496080E-02
2507.007, 2.2979720E-02
2508.935, 2.2854080E-02
2510.864, 2.2891100E-02
2512.792, 2.3225060E-02
2514.720, 2.3739049E-02
2516.649, 2.3867160E-02
2518.577, 2.3563899E-02
2520.506, 2.3573590E-02
2522.434, 2.3824351E-02
2524.363, 2.4313821E-02
2526.291, 2.4411140E-02
2528.220, 2.4146350E-02
2530.148, 2.4339890E-02
2532.077, 2.4930920E-02
2534.005, 2.5203669E-02
2535.934, 2.4802890E-02
2537.862, 2.4498951E-02
2539.791, 2.4339849E-02
2541.719, 2.4033779E-02
2543.647, 2.3814689E-02
2545.576, 2.4384610E-02
2547.504, 2.4719970E-02
2549.433, 2.4505541E-02
2551.361, 2.4316899E-02
2553.290, 2.4782270E-02
2555.218, 2.5281910E-02
2557.147, 2.5681481E-02
2559.075, 2.5440609E-02
2561.004, 2.4916120E-02
2562.932, 2.4834050E-02
2564.861, 2.5319770E-02
2566.789, 2.5555020E-02
2568.718, 2.5828451E-02
2570.646, 2.6073581E-02
2572.574, 2.5889279E-02
2574.503, 2.5636740E-02
2576.431, 2.5250871E-02
2578.360, 2.5601840E-02
2580.288, 2.5761180E-02
2582.217, 2.5898671E-02
2584.145, 2.6075721E-02
2586.074, 2.6049791E-02
2588.002, 2.5970250E-02
2589.931, 2.5868500E-02
2591.859, 2.6185161E-02
2593.788, 2.6589930E-02
2595.716, 2.6890719E-02
2597.645, 2.7003750E-02
2599.573, 2.7119171E-02
2601.501, 2.6856810E-02
2603.430, 2.6748190E-02
2605.358, 2.6847931E-02
2607.287, 2.7109539E-02
2609.215, 2.7472220E-02
2611.144, 2.7631121E-02
2613.072, 2.7603930E-02
2615.001, 2.7118539E-02
2616.929, 2.7029030E-02
2618.858, 2.7602309E-02
2620.786, 2.7636100E-02
2622.715, 2.7748400E-02
2624.643, 2.8081210E-02
2626.572, 2.8169800E-02
2628.500, 2.8251620E-02
2630.428, 2.8371859E-02
2632.357, 2.8419260E-02
2634.285, 2.8667200E-02
2636.214, 2.8820630E-02
2638.142, 2.8762890E-02
2640.071, 2.8879410E-02
2641.999, 2.8802261E-02
2643.928, 2.8697040E-02
2645.856, 2.8838160E-02
2647.785, 2.8822120E-02
2649.713, 2.9038090E-02
2651.642, 2.9365011E-02
2653.570, 2.9575540E-02
2655.499, 2.9606540E-02
2657.427, 2.9873300E-02
2659.355, 3.0022040E-02
2661.284, 2.9712331E-02
2663.212, 2.9858850E-02
2665.141, 2.9976100E-02
2667.069, 2.9882809E-02
2668.998, 2.9927891E-02
2670.926, 2.9948020E-02
2672.855, 3.0031269E-02
2674.783, 3.0054029E-02
2676.712, 3.0122001E-02
2678.640, 3.0412350E-02
2680.569, 3.0869350E-02
2682.497, 3.1021221E-02
2684.426, 3.0936560E-02
2686.354, 3.0826950E-02
2688.282, 3.0700941E-02
2690.211, 3.0978801E-02
2692.139, 3.1267330E-02
2694.068, 3.1365622E-02
2695.996, 3.1507041E-02
2697.925, 3.1562660E-02
2699.853, 3.1741850E-02
2701.782, 3.2050230E-02
2703.710, 3.1956501E-02
2705.639, 3.2490149E-02
2707.567, 3.2493420E-02
2709.496, 3.2497130E-02
2711.424, 3.2393619E-02
2713.353, 3.3350289E-02
2715.281, 3.4425441E-02
2717.209, 3.3904079E-02
2719.138, 3.3065010E-02
2721.066, 3.3424199E-02
2722.995, 3.4480229E-02
2724.923, 3.4798380E-02
2726.852, 3.4743909E-02
2728.780, 3.4524471E-02
2730.709, 3.4216050E-02
2732.637, 3.4452852E-02
2734.566, 3.4677900E-02
2736.494, 3.5166450E-02
2738.423, 3.5565309E-02
2740.351, 3.4644891E-02
2742.280, 3.4137409E-02
2744.208, 3.4413420E-02
2746.136, 3.4877691E-02
2748.065, 3.5435170E-02
2749.993, 3.5709988E-02
2751.922, 3.5816640E-02
2753.850, 3.6317240E-02
2755.779, 3.6353659E-02
2757.707, 3.6555558E-02
2759.636, 3.6585830E-02
2761.564, 3.6684498E-02
2763.493, 3.6763769E-02
2765.421, 3.6985241E-02
2767.350, 3.7326481E-02
2769.278, 3.7283309E-02
2771.207, 3.7036851E-02
2773.135, 3.7048001E-02
2775.063, 3.7762061E-02
2776.992, 3.8041629E-02
2778.920, 3.7981249E-02
2780.849, 3.8564060E-02
2782.777, 3.8460109E-02
2784.706, 3.8134672E-02
2786.634, 3.8642470E-02
2788.563, 3.8512059E-02
2790.491, 3.8308401E-02
2792.420, 3.8618390E-02
2794.348, 3.9000399E-02
2796.277, 3.9153200E-02
2798.205, 3.9275412E-02
2800.134, 3.9382230E-02
2802.062, 3.9451879E-02
2803.990, 3.9369449E-02
2805.919, 3.9877649E-02
2807.847, 4.0555559E-02
2809.776, 4.0646031E-02
2811.704, 4.0583778E-02
2813.633, 4.0783059E-02
2815.561, 4.0201820E-02
2817.490, 4.0234901E-02
2819.418, 4.0825091E-02
2821.347, 4.1067559E-02
2823.275, 4.1649271E-02
2825.204, 4.2027500E-02
2827.132, 4.1409690E-02
2829.061, 4.1228060E-02
2830.989, 4.1646618E-02
2832.917, 4.1757710E-02
2834.846, 4.1746430E-02
2836.774, 4.1902021E-02
2838.703, 4.2139091E-02
2840.631, 4.1518509E-02
2842.560, 4.1354891E-02
2844.488, 4.1570701E-02
2846.417, 4.1821379E-02
2848.345, 4.2691641E-02
2850.274, 4.3184981E-02
2852.202, 4.3295879E-02
2854.131, 4.3376852E-02
2856.059, 4.3263629E-02
2857.988, 4.4040758E-02
2859.916, 4.4667751E-02
2861.844, 4.4582319E-02
2863.773, 4.4372819E-02
2865.701, 4.4337220E-02
2867.630, 4.4037338E-02
2869.558, 4.3555539E-02
2871.487, 4.4182900E-02
2873.415, 4.4972681E-02
2875.344, 4.4920679E-02
2877.272, 4.5226268E-02
2879.201, 4.5596130E-02
2881.129, 4.5819771E-02
2883.058, 4.5297809E-02
2884.986, 4.5472331E-02
2886.915, 4.5608118E-02
2888.843, 4.6088889E-02
2890.771, 4.6563420E-02
2892.700, 4.6352290E-02
2894.628, 4.6438560E-02
2896.557, 4.6805460E-02
2898.485, 4.7501121E-02
2900.414, 4.7649872E-02
2902.342, 4.6686608E-02
2904.271, 4.6335619E-02
2906.199, 4.7122661E-02
2908.128, 4.8559979E-02
2910.056, 4.9574390E-02
2911.985, 4.9298968E-02
2913.913, 4.9244080E-02
2915.842, 4.8960719E-02
2917.770, 4.9553189E-02
2919.698, 5.1316720E-02
2921.627, 5.0978359E-02
2923.555, 4.9855590E-02
2925.484, 5.0505642E-02
2927.412, 5.0793801E-02
2929.341, 5.1185660E-02
2931.269, 5.1662192E-02
2933.198, 5.2617632E-02
2935.126, 5.3008389E-02
2937.055, 5.1867232E-02
2938.983, 5.1338252E-02
2940.912, 5.2379761E-02
2942.840, 5.2641012E-02
2944.769, 5.1996361E-02
2946.697, 5.1299229E-02
2948.625, 5.1247511E-02
2950.554, 5.1578239E-02
2952.482, 5.1865891E-02
2954.411, 5.1922310E-02
2956.339, 5.3499799E-02
2958.268, 5.5211332E-02
2960.196, 5.5420790E-02
2962.125, 5.5414170E-02
2964.053, 5.5887312E-02
2965.982, 5.5844069E-02
2967.910, 5.6008440E-02
2969.839, 5.6521822E-02
2971.767, 5.6330159E-02
2973.696, 5.5605032E-02
2975.624, 5.5754699E-02
2977.552, 5.6178339E-02
2979.481, 5.6515969E-02
2981.409, 5.6141961E-02
2983.338, 5.6503750E-02
2985.266, 5.7526030E-02
2987.195, 5.7664871E-02
2989.123, 5.7542481E-02
2991.052, 5.7405081E-02
2992.980, 5.7140980E-02
2994.909, 5.6255002E-02
2996.837, 5.6315910E-02
2998.766, 5.7245191E-02
3000.694, 5.8235999E-02
3002.623, 5.8392789E-02
3004.551, 5.8964010E-02
3006.479, 5.9113000E-02
3008.408, 5.8107849E-02
3010.336, 5.7912551E-02
3012.265, 5.7903878E-02
3014.193, 5.8285560E-02
3016.122, 5.8490962E-02
3018.050, 5.8657620E-02
3019.979, 5.8800690E-02
3021.907, 5.9688680E-02
3023.836, 6.0152009E-02
3025.764, 6.0252171E-02
3027.693, 5.9720349E-02
3029.621, 5.9573490E-02
3031.550, 5.8539592E-02
3033.478, 5.7814769E-02
3035.406, 5.8606230E-02
3037.335, 5.8973148E-02
3039.263, 5.9368651E-02
3041.192, 5.9904121E-02
3043.120, 5.9988949E-02
3045.049, 5.9708580E-02
3046.977, 5.9726380E-02
3048.906, 6.0002360E-02
3050.834, 6.0184430E-02
3052.763, 6.0081679E-02
3054.691, 6.0521040E-02
3056.620, 6.1611891E-02
3058.548, 6.1285611E-02
3060.477, 6.0503200E-02
3062.405, 6.0658261E-02
3064.333, 5.9700549E-02
3066.262, 5.9575651E-02
3068.190, 6.0118511E-02
3070.119, 5.9287049E-02
3072.047, 5.8832750E-02
3073.976, 5.9587669E-02
3075.904, 6.0311981E-02
3077.833, 6.1047751E-02
3079.761, 6.0770869E-02
3081.690, 6.0755659E-02
3083.618, 6.1542962E-02
3085.547, 6.2584028E-02
3087.475, 6.3067518E-02
3089.404, 6.2404942E-02
3091.332, 6.1617251E-02
3093.260, 6.1936282E-02
3095.189, 6.1599929E-02
3097.117, 6.1196249E-02
3099.046, 6.1860200E-02
3100.974, 6.2635541E-02
3102.903, 6.3231423E-02
3104.831, 6.2339321E-02
3106.760, 6.1312620E-02
3108.688, 6.1237179E-02
3110.617, 6.1658401E-02
3112.545, 6.2913567E-02
3114.474, 6.3025512E-02
3116.402, 6.2361419E-02
3118.331, 6.1874300E-02
3120.259, 6.1751202E-02
3122.188, 6.2231351E-02
3124.116, 6.2420029E-02
3126.044, 6.3672140E-02
3127.973, 6.4216800E-02
3129.901, 6.3599363E-02
3131.830, 6.4295404E-02
3133.758, 6.4040788E-02
3135.687, 6.3823588E-02
3137.615, 6.4025342E-02
3139.544, 6.3878737E-02
3141.472, 6.3743718E-02
3143.401, 6.3936993E-02
3145.329, 6.4480782E-02
3147.258, 6.5042406E-02
3149.186, 6.4291567E-02
3151.115, 6.3633688E-02
3153.043, 6.4073168E-02
3154.971, 6.4622961E-02
3156.900, 6.5212987E-02
3158.828, 6.4655028E-02
3160.757, 6.4428061E-02
3162.685, 6.4440899E-02
3164.614, 6.4427987E-02
3166.542, 6.4628229E-02
3168.471, 6.4589970E-02
3170.399, 6.5020949E-02
3172.328, 6.5204598E-02
3174.256, 6.4895272E-02
3176.185, 6.4957693E-02
3178.113, 6.5230742E-02
3180.042, 6.4963304E-02
3181.970, 6.4804293E-02
3183.898, 6.4718440E-02
3185.827, 6.5042377E-02
3187.755, 6.4894930E-02
3189.684, 6.4727828E-02
3191.612, 6.4736247E-02
3193.541, 6.4721063E-02
3195.469, 6.5236643E-02
3197.398, 6.5739177E-02
3199.326, 6.5669723E-02
3201.255, 6.5672033E-02
3203.183, 6.5402232E-02
3205.112, 6.5069787E-02
3207.040, 6.5103553E-02
3208.969, 6.5537378E-02
3210.897, 6.6039123E-02
3212.825, 6.5792881E-02
3214.754, 6.5520778E-02
3216.682, 6.5569557E-02
3218.611, 6.4995512E-02
3220.539, 6.4632267E-02
3222.468, 6.4587086E-02
3224.396, 6.4783096E-02
3226.325, 6.5252960E-02
3228.253, 6.5652028E-02
3230.182, 6.5417834E-02
3232.110, 6.4964257E-02
3234.039, 6.4884312E-02
3235.967, 6.5396532E-02
3237.896, 6.5385669E-02
3239.824, 6.4930208E-02
3241.752, 6.4433977E-02
3243.681, 6.4448200E-02
3245.609, 6.4396359E-02
3247.538, 6.3788094E-02
3249.466, 6.4097129E-02
3251.395, 6.4689294E-02
3253.323, 6.4689137E-02
3255.252, 6.4132623E-02
3257.180, 6.3857362E-02
3259.109, 6.3908570E-02
3261.037, 6.3835718E-02
3262.966, 6.4001054E-02
3264.894, 6.4031273E-02
3266.823, 6.3598707E-02
3268.751, 6.3177153E-02
3270.679, 6.3018717E-02
3272.608, 6.3036747E-02
3274.536, 6.3073002E-02
3276.465, 6.2734291E-02
3278.393, 6.2246639E-02
3280.322, 6.2171619E-02
3282.250, 6.2721387E-02
3284.179, 6.3026913E-02
3286.107, 6.2914759E-02
3288.036, 6.2978603E-02
3289.964, 6.3010059E-02
3291.893, 6.2995002E-02
3293.821, 6.2950447E-02
3295.750, 6.2867038E-02
3297.678, 6.2898867E-02
3299.606, 6.2954403E-02
3301.535, 6.3069358E-02
3303.463, 6.3149787E-02
3305.392, 6.3360140E-02
3307.320, 6.3703708E-02
3309.249, 6.4415611E-02
3311.177, 6.4923897E-02
3313.106, 6.4816751E-02
3315.034, 6.4790413E-02
3316.963, 6.4541340E-02
3318.891, 6.4508744E-02
3320.820, 6.4142719E-02
3322.748, 6.4607933E-02
3324.677, 6.5400623E-02
3326.605, 6.5799117E-02
3328.533, 6.5839097E-02
3330.462, 6.5634027E-02
3332.390, 6.5811962E-02
3334.319, 6.6487104E-02
3336.247, 6.6750608E-02
3338.176, 6.7289963E-02
3340.104, 6.7743607E-02
3342.033, 6.7805730E-02
3343.961, 6.8130001E-02
3345.890, 6.8115547E-02
3347.818, 6.8401083E-02
3349.747, 6.8715818E-02
3351.675, 6.8785921E-02
3353.604, 6.9118053E-02
3355.532, 6.9470443E-02
3357.460, 6.9754601E-02
3359.389, 6.9970742E-02
3361.317, 7.0170559E-02
3363.246, 6.9731489E-02
3365.174, 6.9555096E-02
3367.103, 7.0101373E-02
3369.031, 7.0095398E-02
3370.960, 6.9521457E-02
3372.888, 6.8822652E-02
3374.817, 6.8848662E-02
3376.745, 6.9229282E-02
3378.674, 6.8739377E-02
3380.602, 6.8283372E-02
3382.531, 6.7721531E-02
3384.459, 6.7054503E-02
3386.387, 6.6479214E-02
3388.316, 6.5975577E-02
3390.244, 6.5988660E-02
3392.173, 6.5632842E-02
3394.101, 6.4557560E-02
3396.030, 6.3754968E-02
3397.958, 6.3088357E-02
3399.887, 6.2827632E-02
3401.815, 6.2333960E-02
3403.744, 6.1352480E-02
3405.672, 6.0018681E-02
3407.601, 5.9847739E-02
3409.529, 5.9917491E-02
3411.458, 5.9031360E-02
3413.386, 5.8173560E-02
3415.314, 5.7411261E-02
3417.243, 5.6135789E-02
3419.171, 5.5337310E-02
3421.100, 5.5084839E-02
3423.028, 5.4586239E-02
3424.957, 5.3217079E-02
3426.885, 5.2568980E-02
3428.814, 5.2258350E-02
3430.742, 5.0915081E-02
3432.671, 4.9857348E-02
3434.599, 4.9143851E-02
3436.528, 4.8874710E-02
3438.456, 4.8928481E-02
3440.385, 4.8571490E-02
3442.313, 4.7305431E-02
3444.241, 4.6394281E-02
3446.170, 4.5397252E-02
3448.098, 4.4085380E-02
3450.027, 4.3662000E-02
3451.955, 4.3335859E-02
3453.884, 4.2774320E-02
3455.812, 4.2364970E-02
3457.741, 4.1624270E-02
3459.669, 4.0929809E-02
3461.598, 4.0893141E-02
3463.526, 4.0884040E-02
3465.455, 3.9870549E-02
3467.383, 3.8924031E-02
3469.312, 3.8541030E-02
3471.240, 3.8153440E-02
3473.168, 3.7939440E-02
3475.097, 3.7764572E-02
3477.025, 3.7966449E-02
3478.954, 3.7409641E-02
3480.882, 3.6490049E-02
3482.811, 3.6043111E-02
3484.739, 3.5580561E-02
3486.668, 3.5560168E-02
3488.596, 3.5651561E-02
3490.525, 3.5268229E-02
3492.453, 3.4235619E-02
3494.382, 3.3075292E-02
3496.310, 3.1928111E-02
3498.239, 3.2306042E-02
3500.167, 3.3005681E-02
3502.095, 3.3227641E-02
3504.024, 3.2300930E-02
3505.952, 3.1703431E-02
3507.881, 3.1750228E-02
3509.809, 3.1332359E-02
3511.738, 3.1148739E-02
3513.666, 3.1050609E-02
3515.595, 3.0097250E-02
3517.523, 2.9026540E-02
3519.452, 2.8655590E-02
3521.380, 2.8251801E-02
3523.309, 2.8396480E-02
3525.237, 2.8652159E-02
3527.166, 2.8295960E-02
3529.094, 2.8126489E-02
3531.022, 2.7817391E-02
3532.951, 2.7388750E-02
3534.879, 2.6745200E-02
3536.808, 2.6413620E-02
3538.736, 2.5863299E-02
3540.665, 2.4964649E-02
3542.593, 2.5105299E-02
3544.522, 2.5699450E-02
3546.450, 2.5428040E-02
3548.379, 2.4687560E-02
3550.307, 2.4091531E-02
3552.236, 2.3557920E-02
3554.164, 2.3661230E-02
3556.093, 2.3963651E-02
3558.021, 2.3322320E-02
3559.949, 2.2019420E-02
3561.878, 2.1126879E-02
3563.806, 2.0945190E-02
3565.735, 2.1233751E-02
3567.663, 2.2096220E-02
3569.592, 2.1970339E-02
3571.520, 2.1176379E-02
3573.449, 2.1112610E-02
3575.377, 2.0336051E-02
3577.306, 1.8869771E-02
3579.234, 1.8425729E-02
3581.163, 1.8382311E-02
3583.091, 1.8135849E-02
3585.020, 1.7603669E-02
3586.948, 1.7410450E-02
3588.876, 1.6804520E-02
3590.805, 1.6239909E-02
3592.733, 1.6235581E-02
3594.662, 1.6484020E-02
3596.590, 1.6028799E-02
3598.519, 1.5167170E-02
3600.447, 1.5195380E-02
3602.376, 1.5552250E-02
3604.304, 1.5132760E-02
3606.233, 1.4953530E-02
3608.161, 1.5026890E-02
3610.090, 1.4949830E-02
3612.018, 1.4625730E-02
3613.947, 1.4562850E-02
3615.875, 1.4140510E-02
3617.803, 1.4156810E-02
3619.732, 1.4217810E-02
3621.660, 1.3546300E-02
3623.589, 1.3375380E-02
3625.517, 1.3548860E-02
3627.446, 1.3857240E-02
3629.374, 1.3417790E-02
3631.303, 1.3423390E-02
3633.231, 1.3779320E-02
3635.160, 1.3364100E-02
3637.088, 1.2985430E-02
3639.017, 1.2566980E-02
3640.945, 1.2598490E-02
3642.874, 1.3351260E-02
3644.802, 1.3294300E-02
3646.730, 1.2319940E-02
3648.659, 1.2056080E-02
3650.587, 1.2537370E-02
3652.516, 1.2751770E-02
3654.444, 1.2120130E-02
3656.373, 1.1046230E-02
3658.301, 1.0867860E-02
3660.230, 1.1754460E-02
3662.158, 1.2453960E-02
3664.087, 1.1806410E-02
3666.015, 1.1302090E-02
3667.944, 1.1977530E-02
3669.872, 1.3823380E-02
3671.801, 1.3648760E-02
3673.729, 1.3105930E-02
3675.657, 1.3399230E-02
3677.586, 1.3234450E-02
3679.514, 1.2908830E-02
3681.443, 1.2813910E-02
3683.371, 1.2763920E-02
3685.300, 1.2941840E-02
3687.228, 1.2210060E-02
3689.157, 1.1946910E-02
3691.085, 1.2394020E-02
3693.014, 1.2490690E-02
3694.942, 1.2683360E-02
3696.871, 1.2330540E-02
3698.799, 1.2123030E-02
3700.728, 1.2360410E-02
3702.656, 1.3135940E-02
3704.584, 1.3275410E-02
3706.513, 1.3118530E-02
3708.441, 1.3730930E-02
3710.370, 1.3880330E-02
3712.298, 1.3310900E-02
3714.227, 1.2842750E-02
3716.155, 1.2823470E-02
3718.084, 1.2982460E-02
3720.012, 1.3657410E-02
3721.941, 1.4164060E-02
3723.869, 1.3054360E-02
3725.798, 1.2243320E-02
3727.726, 1.2334120E-02
3729.655, 1.2959830E-02
3731.583, 1.3506300E-02
3733.511, 1.4138460E-02
3735.440, 1.3889400E-02
3737.368, 1.3453090E-02
3739.297, 1.3306840E-02
3741.225, 1.3359560E-02
3743.154, 1.3186290E-02
3745.082, 1.2671220E-02
3747.011, 1.2718230E-02
3748.939, 1.2850360E-02
3750.868, 1.3239980E-02
3752.796, 1.3532390E-02
3754.725, 1.4119260E-02
3756.653, 1.4887210E-02
3758.582, 1.4598110E-02
3760.510, 1.3542030E-02
3762.438, 1.3566980E-02
3764.367, 1.3604790E-02
3766.295, 1.2341420E-02
3768.224, 1.2141970E-02
3770.152, 1.3339880E-02
3772.081, 1.4032360E-02
3774.009, 1.3055970E-02
3775.938, 1.2979110E-02
3777.866, 1.4019520E-02
3779.795, 1.4195080E-02
3781.723, 1.3690440E-02
3783.652, 1.3585410E-02
3785.580, 1.3590740E-02
3787.509, 1.3921760E-02
3789.437, 1.4553460E-02
3791.365, 1.4670520E-02
3793.294, 1.4353000E-02
3795.222, 1.4095060E-02
3797.151, 1.3964770E-02
3799.079, 1.3457430E-02
3801.008, 1.2951360E-02
3802.936, 1.2784740E-02
3804.865, 1.3188810E-02
3806.793, 1.3779770E-02
3808.722, 1.3850160E-02
3810.650, 1.3709860E-02
3812.579, 1.4200930E-02
3814.507, 1.4030470E-02
3816.436, 1.3926210E-02
3818.364, 1.4638480E-02
3820.292, 1.4610480E-02
3822.221, 1.3930320E-02
3824.149, 1.3522950E-02
3826.078, 1.3679880E-02
3828.006, 1.4071300E-02
3829.935, 1.4355500E-02
3831.863, 1.4676180E-02
3833.792, 1.4712440E-02
3835.720, 1.4455790E-02
3837.649, 1.4741610E-02
3839.577, 1.4739280E-02
3841.506, 1.4877160E-02
3843.434, 1.5830850E-02
3845.363, 1.6023889E-02
3847.291, 1.5730690E-02
3849.219, 1.5479070E-02
3851.148, 1.4742740E-02
3853.076, 1.4330570E-02
3855.005, 1.4521800E-02
3856.933, 1.4336800E-02
3858.862, 1.4176220E-02
3860.790, 1.4666240E-02
3862.719, 1.5424450E-02
3864.647, 1.4744730E-02
3866.576, 1.3984930E-02
3868.504, 1.4588820E-02
3870.433, 1.5488480E-02
3872.361, 1.5867110E-02
3874.290, 1.5907010E-02
3876.218, 1.5427850E-02
3878.146, 1.4992080E-02
3880.075, 1.5130180E-02
3882.003, 1.5515470E-02
3883.932, 1.5555750E-02
3885.860, 1.4876410E-02
3887.789, 1.5081060E-02
3889.717, 1.5358740E-02
3891.646, 1.5041540E-02
3893.574, 1.5501700E-02
3895.503, 1.5624030E-02
3897.431, 1.4547640E-02
3899.360, 1.4758570E-02
3901.288, 1.5327130E-02
3903.217, 1.4593790E-02
3905.145, 1.4267220E-02
3907.073, 1.5252790E-02
3909.002, 1.5797760E-02
3910.930, 1.4966290E-02
3912.859, 1.5527110E-02
3914.787, 1.6036570E-02
3916.716, 1.6070031E-02
3918.644, 1.5353760E-02
3920.573, 1.4564290E-02
3922.501, 1.4351700E-02
3924.430, 1.4674080E-02
3926.358, 1.5895940E-02
3928.287, 1.6129071E-02
3930.215, 1.5547790E-02
3932.144, 1.5492530E-02
3934.072, 1.5305060E-02
3936.000, 1.5291710E-02
3937.929, 1.5670950E-02
3939.857, 1.6630311E-02
3941.786, 1.6469739E-02
3943.714, 1.6003020E-02
3945.643, 1.6250679E-02
3947.571, 1.5731240E-02
3949.500, 1.5618050E-02
3951.428, 1.5956370E-02
3953.357, 1.5530580E-02
3955.285, 1.5177980E-02
3957.214, 1.5215830E-02
3959.142, 1.5140380E-02
3961.071, 1.4866160E-02
3962.999, 1.4835400E-02
3964.927, 1.4867910E-02
3966.856, 1.5115640E-02
3968.784, 1.4784800E-02
3970.713, 1.4157700E-02
3972.641, 1.4388280E-02
3974.570, 1.4496310E-02
3976.498, 1.4640770E-02
3978.427, 1.5256050E-02
3980.355, 1.6388319E-02
3982.284, 1.6790779E-02
3984.212, 1.6532380E-02
3986.141, 1.6131019E-02
3988.069, 1.5800850E-02
3989.998, 1.5238510E-02
3991.926, 1.5714649E-02
3993.854, 1.6278060E-02
3995.783, 1.6690951E-02
3997.711, 1.6708201E-02
3999.640, 1.6708201E-02
##END=



