##NAMES=Ferrierite-Mg
##RRUFFID=R070091
##IDEAL CHEMISTRY=[Mg_2_(K,Na)_2_Ca_0.5_](Si_29_Al_7_)O_72_&#183;18H_2_O
##LOCALITY=Kamloops Lake, British Columbia, Canada
##OWNER=RRUFF
##SOURCE=Michael Scott
##DESCRIPTION=White acicular crystal in radial hemispheres and lining a cavity associated with quartz
##STATUS=The identification of this mineral has been confirmed by X-ray diffraction and chemical analysis
##URL=rruff.info/R070091
##MEASURED CHEMISTRY=(Mg_1.66_Na_1.65_K_0.35_Ca_0.12_Ba_0.05_Sr_0.04_)_Σ=3.87_(Si_30.26_Al_5.74_)O_72_·21.5H_2_O; H_2_O estimated by difference
3.991926e+002, 1.330220e-001
4.011211e+002, 1.378374e-001
4.030495e+002, 1.375159e-001
4.049780e+002, 1.371514e-001
4.069065e+002, 1.417392e-001
4.088349e+002, 1.430767e-001
4.107634e+002, 1.440292e-001
4.126919e+002, 1.443015e-001
4.146203e+002, 1.420933e-001
4.165488e+002, 1.421288e-001
4.184773e+002, 1.454967e-001
4.204057e+002, 1.473482e-001
4.223342e+002, 1.477404e-001
4.242627e+002, 1.504609e-001
4.261911e+002, 1.546307e-001
4.281196e+002, 1.552459e-001
4.300481e+002, 1.541425e-001
4.319765e+002, 1.546440e-001
4.339050e+002, 1.536195e-001
4.358335e+002, 1.550016e-001
4.377619e+002, 1.546396e-001
4.396904e+002, 1.526552e-001
4.416189e+002, 1.525335e-001
4.435473e+002, 1.520397e-001
4.454758e+002, 1.506130e-001
4.474043e+002, 1.503599e-001
4.493327e+002, 1.491056e-001
4.512612e+002, 1.476384e-001
4.531897e+002, 1.472560e-001
4.551181e+002, 1.465276e-001
4.570466e+002, 1.447043e-001
4.589751e+002, 1.436588e-001
4.609035e+002, 1.421501e-001
4.628320e+002, 1.396252e-001
4.647605e+002, 1.353695e-001
4.666889e+002, 1.303284e-001
4.686174e+002, 1.251290e-001
4.705459e+002, 1.192775e-001
4.724743e+002, 1.133999e-001
4.744028e+002, 1.082183e-001
4.763313e+002, 1.029883e-001
4.782597e+002, 9.738059e-002
4.801882e+002, 9.252258e-002
4.821167e+002, 8.814519e-002
4.840451e+002, 8.420957e-002
4.859736e+002, 8.059920e-002
4.879021e+002, 7.680036e-002
4.898305e+002, 7.297084e-002
4.917590e+002, 6.970933e-002
4.936875e+002, 6.699828e-002
4.956159e+002, 6.433524e-002
4.975444e+002, 6.210962e-002
4.994729e+002, 5.988036e-002
5.014013e+002, 5.856775e-002
5.033298e+002, 5.710519e-002
5.052583e+002, 5.554224e-002
5.071867e+002, 5.471002e-002
5.091152e+002, 5.382228e-002
5.110437e+002, 5.374272e-002
5.129721e+002, 5.375904e-002
5.149006e+002, 5.375371e-002
5.168290e+002, 5.399898e-002
5.187575e+002, 5.388311e-002
5.206860e+002, 5.388812e-002
5.226144e+002, 5.425259e-002
5.245429e+002, 5.495061e-002
5.264714e+002, 5.541936e-002
5.283998e+002, 5.613220e-002
5.303283e+002, 5.702506e-002
5.322568e+002, 5.775647e-002
5.341852e+002, 5.822150e-002
5.361137e+002, 5.889277e-002
5.380422e+002, 5.938224e-002
5.399706e+002, 6.047461e-002
5.418991e+002, 6.180027e-002
5.438276e+002, 6.237685e-002
5.457560e+002, 6.266217e-002
5.476845e+002, 6.353350e-002
5.496130e+002, 6.443069e-002
5.515414e+002, 6.473751e-002
5.534699e+002, 6.485789e-002
5.553984e+002, 6.494242e-002
5.573268e+002, 6.499281e-002
5.592553e+002, 6.494856e-002
5.611838e+002, 6.496882e-002
5.631122e+002, 6.467734e-002
5.650407e+002, 6.365190e-002
5.669692e+002, 6.245339e-002
5.688976e+002, 6.133791e-002
5.708261e+002, 6.027835e-002
5.727546e+002, 5.898640e-002
5.746830e+002, 5.745036e-002
5.766115e+002, 5.501583e-002
5.785400e+002, 5.295615e-002
5.804684e+002, 5.123581e-002
5.823969e+002, 4.948223e-002
5.843254e+002, 4.759324e-002
5.862538e+002, 4.588141e-002
5.881823e+002, 4.441446e-002
5.901108e+002, 4.289921e-002
5.920392e+002, 4.164222e-002
5.939677e+002, 4.074268e-002
5.958962e+002, 3.968099e-002
5.978246e+002, 3.857720e-002
5.997531e+002, 3.786367e-002
6.016816e+002, 3.727065e-002
6.036100e+002, 3.677389e-002
6.055385e+002, 3.656936e-002
6.074670e+002, 3.654171e-002
6.093954e+002, 3.624305e-002
6.113239e+002, 3.598193e-002
6.132524e+002, 3.605772e-002
6.151808e+002, 3.635423e-002
6.171093e+002, 3.650730e-002
6.190378e+002, 3.659576e-002
6.209662e+002, 3.661361e-002
6.228947e+002, 3.674259e-002
6.248232e+002, 3.688570e-002
6.267516e+002, 3.729931e-002
6.286801e+002, 3.796861e-002
6.306086e+002, 3.856247e-002
6.325370e+002, 3.878911e-002
6.344655e+002, 3.917942e-002
6.363940e+002, 3.968032e-002
6.383224e+002, 4.005677e-002
6.402509e+002, 4.044098e-002
6.421794e+002, 4.026915e-002
6.441078e+002, 4.027665e-002
6.460363e+002, 4.048751e-002
6.479648e+002, 4.046932e-002
6.498932e+002, 4.047763e-002
6.518217e+002, 4.066262e-002
6.537502e+002, 4.081600e-002
6.556786e+002, 4.103152e-002
6.576071e+002, 4.133568e-002
6.595356e+002, 4.157038e-002
6.614641e+002, 4.192526e-002
6.633925e+002, 4.230245e-002
6.653210e+002, 4.273399e-002
6.672495e+002, 4.328344e-002
6.691779e+002, 4.359679e-002
6.711064e+002, 4.391166e-002
6.730349e+002, 4.436287e-002
6.749633e+002, 4.491789e-002
6.768918e+002, 4.547345e-002
6.788203e+002, 4.576252e-002
6.807487e+002, 4.608965e-002
6.826772e+002, 4.652072e-002
6.846057e+002, 4.675981e-002
6.865341e+002, 4.677264e-002
6.884626e+002, 4.662529e-002
6.903911e+002, 4.683136e-002
6.923195e+002, 4.719694e-002
6.942480e+002, 4.714921e-002
6.961765e+002, 4.710767e-002
6.981049e+002, 4.696131e-002
7.000334e+002, 4.681594e-002
7.019619e+002, 4.671901e-002
7.038903e+002, 4.675357e-002
7.058188e+002, 4.665987e-002
7.077473e+002, 4.648644e-002
7.096757e+002, 4.610595e-002
7.116042e+002, 4.572957e-002
7.135327e+002, 4.543709e-002
7.154611e+002, 4.494999e-002
7.173896e+002, 4.459628e-002
7.193181e+002, 4.440220e-002
7.212465e+002, 4.405636e-002
7.231750e+002, 4.376473e-002
7.251035e+002, 4.355430e-002
7.270319e+002, 4.324741e-002
7.289604e+002, 4.296690e-002
7.308889e+002, 4.266842e-002
7.328173e+002, 4.230219e-002
7.347458e+002, 4.204791e-002
7.366743e+002, 4.194529e-002
7.386027e+002, 4.168481e-002
7.405312e+002, 4.121098e-002
7.424597e+002, 4.058677e-002
7.443881e+002, 4.017886e-002
7.463166e+002, 3.992329e-002
7.482451e+002, 3.954889e-002
7.501735e+002, 3.904664e-002
7.521020e+002, 3.838014e-002
7.540305e+002, 3.794435e-002
7.559589e+002, 3.762073e-002
7.578874e+002, 3.708120e-002
7.598159e+002, 3.671613e-002
7.617443e+002, 3.638350e-002
7.636728e+002, 3.606796e-002
7.656013e+002, 3.584204e-002
7.675297e+002, 3.577763e-002
7.694582e+002, 3.579433e-002
7.713867e+002, 3.582940e-002
7.733151e+002, 3.577048e-002
7.752436e+002, 3.586230e-002
7.771721e+002, 3.602554e-002
7.791005e+002, 3.626759e-002
7.810290e+002, 3.658896e-002
7.829575e+002, 3.692098e-002
7.848859e+002, 3.711735e-002
7.868144e+002, 3.724187e-002
7.887429e+002, 3.730231e-002
7.906713e+002, 3.747287e-002
7.925998e+002, 3.757924e-002
7.945283e+002, 3.733831e-002
7.964567e+002, 3.695906e-002
7.983852e+002, 3.639035e-002
8.003137e+002, 3.567905e-002
8.022421e+002, 3.480322e-002
8.041706e+002, 3.378817e-002
8.060991e+002, 3.243738e-002
8.080275e+002, 3.069958e-002
8.099560e+002, 2.914177e-002
8.118845e+002, 2.782789e-002
8.138129e+002, 2.632148e-002
8.157414e+002, 2.482869e-002
8.176699e+002, 2.359581e-002
8.195983e+002, 2.278802e-002
8.215268e+002, 2.197051e-002
8.234553e+002, 2.117948e-002
8.253837e+002, 2.057402e-002
8.273122e+002, 2.003480e-002
8.292407e+002, 1.946874e-002
8.311691e+002, 1.916926e-002
8.330976e+002, 1.902934e-002
8.350261e+002, 1.902214e-002
8.369545e+002, 1.882541e-002
8.388830e+002, 1.872011e-002
8.408115e+002, 1.885984e-002
8.427399e+002, 1.906289e-002
8.446684e+002, 1.936227e-002
8.465969e+002, 1.942863e-002
8.485253e+002, 1.948123e-002
8.504538e+002, 1.983570e-002
8.523823e+002, 2.020757e-002
8.543107e+002, 2.069853e-002
8.562392e+002, 2.110634e-002
8.581677e+002, 2.153469e-002
8.600961e+002, 2.193883e-002
8.620246e+002, 2.253197e-002
8.639531e+002, 2.309220e-002
8.658815e+002, 2.366707e-002
8.678100e+002, 2.433440e-002
8.697385e+002, 2.492811e-002
8.716669e+002, 2.558385e-002
8.735954e+002, 2.636368e-002
8.755239e+002, 2.705669e-002
8.774523e+002, 2.775285e-002
8.793808e+002, 2.848952e-002
8.813093e+002, 2.936670e-002
8.832377e+002, 3.019479e-002
8.851662e+002, 3.108690e-002
8.870947e+002, 3.199609e-002
8.890231e+002, 3.289644e-002
8.909516e+002, 3.388961e-002
8.928801e+002, 3.498684e-002
8.948085e+002, 3.613678e-002
8.967370e+002, 3.716930e-002
8.986655e+002, 3.813315e-002
9.005939e+002, 3.914099e-002
9.025224e+002, 4.041361e-002
9.044509e+002, 4.162657e-002
9.063793e+002, 4.272134e-002
9.083078e+002, 4.389727e-002
9.102363e+002, 4.520531e-002
9.121647e+002, 4.661841e-002
9.140932e+002, 4.808431e-002
9.160217e+002, 4.963016e-002
9.179501e+002, 5.127041e-002
9.198786e+002, 5.285634e-002
9.218071e+002, 5.458666e-002
9.237355e+002, 5.656695e-002
9.256640e+002, 5.840780e-002
9.275925e+002, 6.028788e-002
9.295209e+002, 6.236702e-002
9.314494e+002, 6.462538e-002
9.333779e+002, 6.690276e-002
9.353063e+002, 6.939463e-002
9.372348e+002, 7.213808e-002
9.391633e+002, 7.490058e-002
9.410917e+002, 7.779434e-002
9.430202e+002, 8.063941e-002
9.449487e+002, 8.345841e-002
9.468771e+002, 8.624349e-002
9.488056e+002, 8.891925e-002
9.507341e+002, 9.163348e-002
9.526625e+002, 9.437660e-002
9.545910e+002, 9.703737e-002
9.565195e+002, 9.971752e-002
9.584479e+002, 1.026841e-001
9.603764e+002, 1.058015e-001
9.623049e+002, 1.090996e-001
9.642333e+002, 1.126300e-001
9.661618e+002, 1.163897e-001
9.680903e+002, 1.205134e-001
9.700187e+002, 1.250398e-001
9.719472e+002, 1.296953e-001
9.738757e+002, 1.343520e-001
9.758041e+002, 1.393215e-001
9.777326e+002, 1.444364e-001
9.796611e+002, 1.497773e-001
9.815895e+002, 1.552810e-001
9.835180e+002, 1.605827e-001
9.854465e+002, 1.660279e-001
9.873749e+002, 1.716901e-001
9.893034e+002, 1.772648e-001
9.912319e+002, 1.826802e-001
9.931603e+002, 1.880008e-001
9.950888e+002, 1.931858e-001
9.970173e+002, 1.982087e-001
9.989457e+002, 2.029499e-001
1.000874e+003, 2.075127e-001
1.002803e+003, 2.116881e-001
1.004731e+003, 2.156172e-001
1.006660e+003, 2.193557e-001
1.008588e+003, 2.227547e-001
1.010517e+003, 2.258290e-001
1.012445e+003, 2.286181e-001
1.014373e+003, 2.310824e-001
1.016302e+003, 2.334474e-001
1.018230e+003, 2.351952e-001
1.020159e+003, 2.366253e-001
1.022087e+003, 2.379760e-001
1.024016e+003, 2.390359e-001
1.025944e+003, 2.397814e-001
1.027873e+003, 2.404917e-001
1.029801e+003, 2.406027e-001
1.031730e+003, 2.403737e-001
1.033658e+003, 2.401186e-001
1.035587e+003, 2.395308e-001
1.037515e+003, 2.386426e-001
1.039443e+003, 2.377175e-001
1.041372e+003, 2.366510e-001
1.043300e+003, 2.352030e-001
1.045229e+003, 2.334274e-001
1.047157e+003, 2.314767e-001
1.049086e+003, 2.293521e-001
1.051014e+003, 2.273364e-001
1.052943e+003, 2.255230e-001
1.054871e+003, 2.235180e-001
1.056800e+003, 2.210278e-001
1.058728e+003, 2.186808e-001
1.060657e+003, 2.161308e-001
1.062585e+003, 2.130785e-001
1.064514e+003, 2.100728e-001
1.066442e+003, 2.071693e-001
1.068370e+003, 2.041657e-001
1.070299e+003, 2.009740e-001
1.072227e+003, 1.975612e-001
1.074156e+003, 1.938876e-001
1.076084e+003, 1.902254e-001
1.078013e+003, 1.864082e-001
1.079941e+003, 1.823340e-001
1.081870e+003, 1.781895e-001
1.083798e+003, 1.737815e-001
1.085727e+003, 1.691390e-001
1.087655e+003, 1.643849e-001
1.089584e+003, 1.595385e-001
1.091512e+003, 1.545281e-001
1.093441e+003, 1.496131e-001
1.095369e+003, 1.448036e-001
1.097297e+003, 1.399307e-001
1.099226e+003, 1.349841e-001
1.101154e+003, 1.302036e-001
1.103083e+003, 1.256164e-001
1.105011e+003, 1.211772e-001
1.106940e+003, 1.168460e-001
1.108868e+003, 1.127589e-001
1.110797e+003, 1.090235e-001
1.112725e+003, 1.053731e-001
1.114654e+003, 1.022538e-001
1.116582e+003, 9.953843e-002
1.118511e+003, 9.709083e-002
1.120439e+003, 9.498856e-002
1.122368e+003, 9.309611e-002
1.124296e+003, 9.141257e-002
1.126224e+003, 8.972598e-002
1.128153e+003, 8.838599e-002
1.130081e+003, 8.707864e-002
1.132010e+003, 8.600899e-002
1.133938e+003, 8.499563e-002
1.135867e+003, 8.392000e-002
1.137795e+003, 8.300024e-002
1.139724e+003, 8.212857e-002
1.141652e+003, 8.123345e-002
1.143581e+003, 8.034477e-002
1.145509e+003, 7.940510e-002
1.147438e+003, 7.845289e-002
1.149366e+003, 7.755588e-002
1.151295e+003, 7.656551e-002
1.153223e+003, 7.555338e-002
1.155151e+003, 7.451991e-002
1.157080e+003, 7.359770e-002
1.159008e+003, 7.271940e-002
1.160937e+003, 7.163660e-002
1.162865e+003, 7.062543e-002
1.164794e+003, 6.969737e-002
1.166722e+003, 6.885138e-002
1.168651e+003, 6.796202e-002
1.170579e+003, 6.697468e-002
1.172508e+003, 6.604162e-002
1.174436e+003, 6.518400e-002
1.176365e+003, 6.433843e-002
1.178293e+003, 6.354006e-002
1.180222e+003, 6.253613e-002
1.182150e+003, 6.156277e-002
1.184078e+003, 6.081240e-002
1.186007e+003, 6.017001e-002
1.187935e+003, 5.952810e-002
1.189864e+003, 5.887317e-002
1.191792e+003, 5.835277e-002
1.193721e+003, 5.785050e-002
1.195649e+003, 5.718785e-002
1.197578e+003, 5.657335e-002
1.199506e+003, 5.600207e-002
1.201435e+003, 5.544986e-002
1.203363e+003, 5.493232e-002
1.205292e+003, 5.433263e-002
1.207220e+003, 5.376751e-002
1.209149e+003, 5.315888e-002
1.211077e+003, 5.254367e-002
1.213005e+003, 5.177506e-002
1.214934e+003, 5.089128e-002
1.216862e+003, 4.998115e-002
1.218791e+003, 4.891253e-002
1.220719e+003, 4.754066e-002
1.222648e+003, 4.601317e-002
1.224576e+003, 4.445079e-002
1.226505e+003, 4.257997e-002
1.228433e+003, 4.043865e-002
1.230362e+003, 3.809990e-002
1.232290e+003, 3.554286e-002
1.234219e+003, 3.271739e-002
1.236147e+003, 2.972344e-002
1.238076e+003, 2.682278e-002
1.240004e+003, 2.401578e-002
1.241932e+003, 2.127267e-002
1.243861e+003, 1.877902e-002
1.245789e+003, 1.654714e-002
1.247718e+003, 1.460075e-002
1.249646e+003, 1.295620e-002
1.251575e+003, 1.160883e-002
1.253503e+003, 1.039284e-002
1.255432e+003, 9.326068e-003
1.257360e+003, 8.562132e-003
1.259289e+003, 7.827047e-003
1.261217e+003, 7.102806e-003
1.263146e+003, 6.410410e-003
1.265074e+003, 5.879899e-003
1.267003e+003, 5.415548e-003
1.268931e+003, 4.925941e-003
1.270859e+003, 4.612720e-003
1.272788e+003, 4.345214e-003
1.274716e+003, 4.111901e-003
1.276645e+003, 3.835885e-003
1.278573e+003, 3.583584e-003
1.280502e+003, 3.402164e-003
1.282430e+003, 3.152217e-003
1.284359e+003, 2.812782e-003
1.286287e+003, 2.520044e-003
1.288216e+003, 2.444040e-003
1.290144e+003, 2.388076e-003
1.292073e+003, 2.298707e-003
1.294001e+003, 2.244980e-003
1.295930e+003, 2.155653e-003
1.297858e+003, 1.928970e-003
1.299786e+003, 1.656260e-003
1.301715e+003, 1.486293e-003
1.303643e+003, 1.269979e-003
1.305572e+003, 1.152696e-003
1.307500e+003, 1.308140e-003
1.309429e+003, 1.408055e-003
1.311357e+003, 1.286498e-003
1.313286e+003, 1.162903e-003
1.315214e+003, 1.103233e-003
1.317143e+003, 1.081121e-003
1.319071e+003, 1.032097e-003
1.321000e+003, 9.167353e-004
1.322928e+003, 8.286657e-004
1.324857e+003, 6.845283e-004
1.326785e+003, 5.459010e-004
1.328714e+003, 5.650892e-004
1.330642e+003, 5.253695e-004
1.332570e+003, 4.301653e-004
1.334499e+003, 4.503565e-004
1.336427e+003, 3.921777e-004
1.338356e+003, 4.278551e-004
1.340284e+003, 3.038039e-004
1.342213e+003, 1.679441e-004
1.344141e+003, 2.191179e-004
1.346070e+003, 2.814686e-004
1.347998e+003, 2.134379e-004
1.349927e+003, 1.736287e-004
1.351855e+003, 7.138881e-005
1.353784e+003, -5.758247e-005
1.355712e+003, -1.493568e-004
1.357641e+003, -8.060544e-005
1.359569e+003, 7.269513e-006
1.361497e+003, -3.316242e-005
1.363426e+003, -9.303750e-005
1.365354e+003, -1.732508e-004
1.367283e+003, -2.575233e-004
1.369211e+003, -2.395900e-004
1.371140e+003, -1.499439e-004
1.373068e+003, -7.621961e-005
1.374997e+003, -5.266209e-005
1.376925e+003, -6.931706e-005
1.378854e+003, -7.816581e-005
1.380782e+003, -1.109613e-004
1.382711e+003, -2.575106e-004
1.384639e+003, -3.106751e-004
1.386568e+003, -1.620180e-004
1.388496e+003, -1.678290e-004
1.390424e+003, -2.231673e-004
1.392353e+003, -2.048198e-004
1.394281e+003, -2.245188e-004
1.396210e+003, -2.267911e-004
1.398138e+003, -1.176957e-004
1.400067e+003, 8.240659e-006
1.401995e+003, -5.865454e-005
1.403924e+003, -9.424546e-005
1.405852e+003, -1.210319e-004
1.407781e+003, -1.100233e-004
1.409709e+003, -1.175699e-004
1.411638e+003, -2.002829e-004
1.413566e+003, -1.740728e-004
1.415495e+003, -1.478358e-004
1.417423e+003, -1.119984e-004
1.419351e+003, -4.549103e-005
1.421280e+003, -1.357816e-004
1.423208e+003, -1.244780e-004
1.425137e+003, -2.018394e-005
1.427065e+003, 1.428512e-005
1.428994e+003, 1.104129e-004
1.430922e+003, 1.262385e-004
1.432851e+003, 5.721423e-005
1.434779e+003, 1.592647e-004
1.436708e+003, 3.107542e-004
1.438636e+003, 1.549410e-004
1.440565e+003, 1.198555e-004
1.442493e+003, 1.419930e-004
1.444422e+003, 2.205314e-004
1.446350e+003, 2.843355e-004
1.448278e+003, 2.797100e-004
1.450207e+003, 1.865270e-004
1.452135e+003, 1.462897e-004
1.454064e+003, 3.080695e-004
1.455992e+003, 6.610429e-004
1.457921e+003, 5.967231e-004
1.459849e+003, 3.191794e-004
1.461778e+003, 1.277777e-004
1.463706e+003, 1.513608e-004
1.465635e+003, 2.460308e-004
1.467563e+003, 9.425559e-005
1.469492e+003, 4.947466e-005
1.471420e+003, 2.345339e-004
1.473349e+003, 3.312830e-004
1.475277e+003, 1.453615e-004
1.477205e+003, -5.206790e-005
1.479134e+003, -1.313291e-004
1.481062e+003, -1.065838e-004
1.482991e+003, -3.947026e-005
1.484919e+003, -3.943482e-005
1.486848e+003, -1.166301e-004
1.488776e+003, -3.644257e-005
1.490705e+003, -3.067271e-005
1.492633e+003, -2.517849e-004
1.494562e+003, -1.647917e-004
1.496490e+003, -6.610873e-005
1.498419e+003, -1.512349e-004
1.500347e+003, -2.955467e-004
1.502276e+003, -3.880658e-004
1.504204e+003, -2.372304e-004
1.506132e+003, 2.141377e-005
1.508061e+003, -1.654685e-005
1.509989e+003, -1.699431e-004
1.511918e+003, -2.783802e-004
1.513846e+003, -3.097723e-004
1.515775e+003, -3.062540e-004
1.517703e+003, -2.877470e-004
1.519632e+003, -1.827696e-004
1.521560e+003, -1.536153e-005
1.523489e+003, -1.715389e-004
1.525417e+003, -1.808018e-004
1.527346e+003, -1.622110e-004
1.529274e+003, -2.076519e-004
1.531203e+003, -1.633827e-004
1.533131e+003, -2.113756e-004
1.535059e+003, -2.525803e-004
1.536988e+003, -1.209872e-004
1.538916e+003, 1.250885e-004
1.540845e+003, 1.337735e-004
1.542773e+003, 4.502825e-005
1.544702e+003, 4.763590e-006
1.546630e+003, -9.044512e-005
1.548559e+003, -3.295934e-006
1.550487e+003, 2.706373e-005
1.552416e+003, 3.388966e-005
1.554344e+003, 1.949516e-004
1.556273e+003, 3.701237e-004
1.558201e+003, 6.927914e-004
1.560130e+003, 7.536694e-004
1.562058e+003, 5.615232e-004
1.563986e+003, 5.518480e-004
1.565915e+003, 5.382531e-004
1.567843e+003, 5.773932e-004
1.569772e+003, 8.258860e-004
1.571700e+003, 8.536533e-004
1.573629e+003, 9.547799e-004
1.575557e+003, 1.189356e-003
1.577486e+003, 1.275434e-003
1.579414e+003, 1.347466e-003
1.581343e+003, 1.580201e-003
1.583271e+003, 1.743625e-003
1.585200e+003, 1.815582e-003
1.587128e+003, 1.861350e-003
1.589057e+003, 2.017624e-003
1.590985e+003, 2.376825e-003
1.592913e+003, 2.713020e-003
1.594842e+003, 2.939052e-003
1.596770e+003, 3.286778e-003
1.598699e+003, 3.667508e-003
1.600627e+003, 4.095871e-003
1.602556e+003, 4.723009e-003
1.604484e+003, 5.361212e-003
1.606413e+003, 5.992332e-003
1.608341e+003, 6.774224e-003
1.610270e+003, 7.758040e-003
1.612198e+003, 8.713160e-003
1.614127e+003, 9.922600e-003
1.616055e+003, 1.140592e-002
1.617984e+003, 1.261710e-002
1.619912e+003, 1.371787e-002
1.621840e+003, 1.504256e-002
1.623769e+003, 1.635755e-002
1.625697e+003, 1.731028e-002
1.627626e+003, 1.811151e-002
1.629554e+003, 1.883828e-002
1.631483e+003, 1.959648e-002
1.633411e+003, 2.024381e-002
1.635340e+003, 2.078212e-002
1.637268e+003, 2.087211e-002
1.639197e+003, 2.071071e-002
1.641125e+003, 2.038490e-002
1.643054e+003, 1.996460e-002
1.644982e+003, 1.972673e-002
1.646911e+003, 1.937963e-002
1.648839e+003, 1.857706e-002
1.650767e+003, 1.799866e-002
1.652696e+003, 1.766121e-002
1.654624e+003, 1.662737e-002
1.656553e+003, 1.539258e-002
1.658481e+003, 1.459477e-002
1.660410e+003, 1.386020e-002
1.662338e+003, 1.298540e-002
1.664267e+003, 1.188056e-002
1.666195e+003, 1.080069e-002
1.668124e+003, 9.991211e-003
1.670052e+003, 9.088150e-003
1.671981e+003, 8.126537e-003
1.673909e+003, 7.309179e-003
1.675838e+003, 6.334680e-003
1.677766e+003, 5.345468e-003
1.679694e+003, 4.735190e-003
1.681623e+003, 4.136784e-003
1.683551e+003, 3.777054e-003
1.685480e+003, 3.146957e-003
1.687408e+003, 2.490151e-003
1.689337e+003, 2.109461e-003
1.691265e+003, 1.817971e-003
1.693194e+003, 1.545607e-003
1.695122e+003, 1.481192e-003
1.697051e+003, 1.200620e-003
1.698979e+003, 1.044032e-003
1.700908e+003, 9.332194e-004
1.702836e+003, 4.043658e-004
1.704765e+003, 1.237332e-004
1.706693e+003, -3.128435e-005
1.708621e+003, -4.687500e-005
1.710550e+003, -1.142300e-004
1.712478e+003, -2.515009e-004
1.714407e+003, -3.780408e-004
1.716335e+003, -3.231932e-004
1.718264e+003, -4.394447e-004
1.720192e+003, -7.073055e-004
1.722121e+003, -6.796382e-004
1.724049e+003, -5.569757e-004
1.725978e+003, -7.364178e-004
1.727906e+003, -8.831649e-004
1.729835e+003, -9.246568e-004
1.731763e+003, -7.914336e-004
1.733692e+003, -7.913719e-004
1.735620e+003, -1.212573e-003
1.737548e+003, -1.591215e-003
1.739477e+003, -1.611475e-003
1.741405e+003, -1.834353e-003
1.743334e+003, -1.897724e-003
1.745262e+003, -1.948998e-003
1.747191e+003, -2.066659e-003
1.749119e+003, -2.026730e-003
1.751048e+003, -1.922808e-003
1.752976e+003, -1.992854e-003
1.754905e+003, -2.097720e-003
1.756833e+003, -2.095470e-003
1.758762e+003, -2.089141e-003
1.760690e+003, -1.982719e-003
1.762619e+003, -1.947474e-003
1.764547e+003, -2.013081e-003
1.766475e+003, -1.934281e-003
1.768404e+003, -2.029170e-003
1.770332e+003, -1.977003e-003
1.772261e+003, -1.779961e-003
1.774189e+003, -1.899217e-003
1.776118e+003, -1.884883e-003
1.778046e+003, -1.854693e-003
1.779975e+003, -1.969572e-003
1.781903e+003, -1.996409e-003
1.783832e+003, -2.028781e-003
1.785760e+003, -1.925596e-003
1.787689e+003, -1.952884e-003
1.789617e+003, -2.007185e-003
1.791546e+003, -1.899183e-003
1.793474e+003, -2.002616e-003
1.795402e+003, -2.273184e-003
1.797331e+003, -2.314783e-003
1.799259e+003, -2.140084e-003
1.801188e+003, -2.110453e-003
1.803116e+003, -1.970085e-003
1.805045e+003, -2.048338e-003
1.806973e+003, -2.205559e-003
1.808902e+003, -1.997649e-003
1.810830e+003, -1.842691e-003
1.812759e+003, -1.999384e-003
1.814687e+003, -2.131501e-003
1.816616e+003, -2.185535e-003
1.818544e+003, -2.089630e-003
1.820473e+003, -1.921180e-003
1.822401e+003, -1.772394e-003
1.824329e+003, -1.647992e-003
1.826258e+003, -1.719923e-003
1.828186e+003, -1.893777e-003
1.830115e+003, -1.903905e-003
1.832043e+003, -1.914051e-003
1.833972e+003, -1.983386e-003
1.835900e+003, -1.951089e-003
1.837829e+003, -2.040388e-003
1.839757e+003, -1.963019e-003
1.841686e+003, -2.014415e-003
1.843614e+003, -2.443325e-003
1.845543e+003, -2.536674e-003
1.847471e+003, -2.374454e-003
1.849400e+003, -2.222489e-003
1.851328e+003, -1.903489e-003
1.853256e+003, -1.906414e-003
1.855185e+003, -2.274573e-003
1.857113e+003, -2.473226e-003
1.859042e+003, -2.072692e-003
1.860970e+003, -1.811588e-003
1.862899e+003, -1.989114e-003
1.864827e+003, -2.326000e-003
1.866756e+003, -2.654439e-003
1.868684e+003, -2.421615e-003
1.870613e+003, -2.236192e-003
1.872541e+003, -2.395292e-003
1.874470e+003, -2.656898e-003
1.876398e+003, -2.726021e-003
1.878327e+003, -2.689544e-003
1.880255e+003, -2.643182e-003
1.882183e+003, -2.801074e-003
1.884112e+003, -2.944310e-003
1.886040e+003, -2.671599e-003
1.887969e+003, -2.317923e-003
1.889897e+003, -2.366474e-003
1.891826e+003, -2.856512e-003
1.893754e+003, -3.026032e-003
1.895683e+003, -2.798549e-003
1.897611e+003, -2.914466e-003
1.899540e+003, -3.074743e-003
1.901468e+003, -3.063099e-003
1.903397e+003, -3.194708e-003
1.905325e+003, -3.449916e-003
1.907254e+003, -3.295760e-003
1.909182e+003, -3.288056e-003
1.911110e+003, -3.339940e-003
1.913039e+003, -3.224563e-003
1.914967e+003, -3.215771e-003
1.916896e+003, -3.102648e-003
1.918824e+003, -3.232913e-003
1.920753e+003, -3.003442e-003
1.922681e+003, -2.559290e-003
1.924610e+003, -3.174204e-003
1.926538e+003, -3.758284e-003
1.928467e+003, -3.438165e-003
1.930395e+003, -3.636760e-003
1.932324e+003, -4.157667e-003
1.934252e+003, -3.589175e-003
1.936181e+003, -2.860319e-003
1.938109e+003, -3.154750e-003
1.940037e+003, -3.791292e-003
1.941966e+003, -3.393070e-003
1.943894e+003, -3.116732e-003
1.945823e+003, -3.537523e-003
1.947751e+003, -3.762887e-003
1.949680e+003, -3.616542e-003
1.951608e+003, -3.168573e-003
1.953537e+003, -2.597291e-003
1.955465e+003, -3.341610e-003
1.957394e+003, -3.809538e-003
1.959322e+003, -3.745134e-003
1.961251e+003, -3.839429e-003
1.963179e+003, -3.939060e-003
1.965108e+003, -3.509098e-003
1.967036e+003, -3.149207e-003
1.968964e+003, -3.863793e-003
1.970893e+003, -4.486051e-003
1.972821e+003, -4.464145e-003
1.974750e+003, -3.742566e-003
1.976678e+003, -2.503276e-003
1.978607e+003, -2.050471e-003
1.980535e+003, -2.081218e-003
1.982464e+003, -1.905089e-003
1.984392e+003, -1.985092e-003
1.986321e+003, -3.785731e-003
1.988249e+003, -5.403569e-003
1.990178e+003, -4.602071e-003
1.992106e+003, -3.169965e-003
1.994035e+003, -3.254548e-003
1.995963e+003, -4.350048e-003
1.997891e+003, -4.891650e-003
1.999820e+003, -4.462774e-003
2.001748e+003, -4.929914e-003
2.003677e+003, -6.115726e-003
2.005605e+003, -5.489957e-003
2.007534e+003, -4.487433e-003
2.009462e+003, -4.626418e-003
2.011391e+003, -4.584380e-003
2.013319e+003, -4.317718e-003
2.015248e+003, -3.550276e-003
2.017176e+003, -3.690004e-003
2.019105e+003, -4.727998e-003
2.021033e+003, -5.410913e-003
2.022962e+003, -5.733774e-003
2.024890e+003, -5.574997e-003
2.026818e+003, -5.318122e-003
2.028747e+003, -4.934840e-003
2.030675e+003, -4.901463e-003
2.032604e+003, -3.753917e-003
2.034532e+003, -3.321141e-003
2.036461e+003, -4.187688e-003
2.038389e+003, -4.267685e-003
2.040318e+003, -3.950221e-003
2.042246e+003, -3.890168e-003
2.044175e+003, -4.141999e-003
2.046103e+003, -4.543656e-003
2.048031e+003, -3.864917e-003
2.049960e+003, -3.501000e-003
2.051888e+003, -4.381709e-003
2.053817e+003, -4.645446e-003
2.055745e+003, -4.446747e-003
2.057674e+003, -4.342136e-003
2.059602e+003, -5.104528e-003
2.061531e+003, -5.705174e-003
2.063459e+003, -5.170835e-003
2.065388e+003, -4.787729e-003
2.067316e+003, -4.539957e-003
2.069245e+003, -4.294415e-003
2.071173e+003, -3.662196e-003
2.073102e+003, -3.732597e-003
2.075030e+003, -3.848444e-003
2.076958e+003, -3.905370e-003
2.078887e+003, -4.136608e-003
2.080815e+003, -4.307407e-003
2.082744e+003, -4.716340e-003
2.084672e+003, -4.907806e-003
2.086601e+003, -4.779802e-003
2.088529e+003, -5.046350e-003
2.090458e+003, -5.319513e-003
2.092386e+003, -5.772584e-003
2.094315e+003, -5.663505e-003
2.096243e+003, -4.491719e-003
2.098172e+003, -3.951632e-003
2.100100e+003, -3.928175e-003
2.102029e+003, -4.220596e-003
2.103957e+003, -4.368991e-003
2.105885e+003, -4.562743e-003
2.107814e+003, -4.953527e-003
2.109742e+003, -5.157566e-003
2.111671e+003, -5.021275e-003
2.113599e+003, -5.040501e-003
2.115528e+003, -4.906927e-003
2.117456e+003, -5.201018e-003
2.119385e+003, -5.549727e-003
2.121313e+003, -5.769231e-003
2.123242e+003, -5.262507e-003
2.125170e+003, -5.145999e-003
2.127099e+003, -5.829665e-003
2.129027e+003, -6.294231e-003
2.130956e+003, -6.480676e-003
2.132884e+003, -6.868752e-003
2.134813e+003, -6.694796e-003
2.136741e+003, -6.458277e-003
2.138669e+003, -6.459397e-003
2.140598e+003, -5.856405e-003
2.142526e+003, -6.003162e-003
2.144455e+003, -7.017560e-003
2.146383e+003, -7.394746e-003
2.148312e+003, -6.641380e-003
2.150240e+003, -6.277796e-003
2.152169e+003, -6.593364e-003
2.154097e+003, -6.222960e-003
2.156026e+003, -6.469477e-003
2.157954e+003, -6.244535e-003
2.159883e+003, -3.997453e-003
2.161811e+003, -3.779630e-003
2.163740e+003, -3.283153e-003
2.165668e+003, -2.390703e-003
2.167596e+003, -1.995801e-003
2.169525e+003, -2.036531e-003
2.171453e+003, -4.152450e-003
2.173382e+003, -4.501160e-003
2.175310e+003, -3.392684e-003
2.177239e+003, -3.540413e-003
2.179167e+003, -3.862787e-003
2.181096e+003, -4.089599e-003
2.183024e+003, -3.711560e-003
2.184953e+003, -2.425024e-003
2.186881e+003, -1.796971e-003
2.188810e+003, -1.769831e-003
2.190738e+003, -2.246063e-003
2.192667e+003, -2.515795e-003
2.194595e+003, -1.819179e-003
2.196523e+003, -2.013874e-003
2.198452e+003, -2.366487e-003
2.200380e+003, -2.227981e-003
2.202309e+003, -2.251197e-003
2.204237e+003, -2.398873e-003
2.206166e+003, -2.643929e-003
2.208094e+003, -2.788408e-003
2.210023e+003, -1.920238e-003
2.211951e+003, -1.680178e-003
2.213880e+003, -1.894344e-003
2.215808e+003, -2.188097e-003
2.217737e+003, -2.144491e-003
2.219665e+003, -2.263051e-003
2.221594e+003, -2.032891e-003
2.223522e+003, -1.505506e-003
2.225450e+003, -2.604665e-003
2.227379e+003, -3.431386e-003
2.229307e+003, -2.956591e-003
2.231236e+003, -2.231467e-003
2.233164e+003, -1.718145e-003
2.235093e+003, -1.328078e-003
2.237021e+003, -1.582117e-003
2.238950e+003, -2.109530e-003
2.240878e+003, -2.276941e-003
2.242807e+003, -2.238648e-003
2.244735e+003, -2.375728e-003
2.246664e+003, -2.344100e-003
2.248592e+003, -2.006323e-003
2.250521e+003, -1.853623e-003
2.252449e+003, -2.102496e-003
2.254377e+003, -2.153955e-003
2.256306e+003, -2.103225e-003
2.258234e+003, -2.269019e-003
2.260163e+003, -2.074483e-003
2.262091e+003, -2.073841e-003
2.264020e+003, -2.266393e-003
2.265948e+003, -2.405100e-003
2.267877e+003, -2.363124e-003
2.269805e+003, -1.632250e-003
2.271734e+003, -1.252656e-003
2.273662e+003, -1.676883e-003
2.275591e+003, -1.773398e-003
2.277519e+003, -1.788296e-003
2.279448e+003, -1.928425e-003
2.281376e+003, -1.760969e-003
2.283304e+003, -1.326463e-003
2.285233e+003, -9.748041e-004
2.287161e+003, -1.179114e-003
2.289090e+003, -1.664218e-003
2.291018e+003, -1.942362e-003
2.292947e+003, -1.849308e-003
2.294875e+003, -2.191640e-003
2.296804e+003, -2.573813e-003
2.298732e+003, -2.227545e-003
2.300661e+003, -1.774891e-003
2.302589e+003, -1.659964e-003
2.304518e+003, -1.779538e-003
2.306446e+003, -2.048043e-003
2.308375e+003, -2.048060e-003
2.310303e+003, -1.846974e-003
2.312231e+003, -1.745741e-003
2.314160e+003, -1.992969e-003
2.316088e+003, -1.945054e-003
2.318017e+003, -1.906578e-003
2.319945e+003, -1.886787e-003
2.321874e+003, -1.804298e-003
2.323802e+003, -1.703368e-003
2.325731e+003, -2.214623e-003
2.327659e+003, -2.784686e-003
2.329588e+003, -2.783482e-003
2.331516e+003, -2.787808e-003
2.333445e+003, -2.965702e-003
2.335373e+003, -3.037775e-003
2.337302e+003, -2.822507e-003
2.339230e+003, -2.901188e-003
2.341158e+003, -3.107964e-003
2.343087e+003, -2.863518e-003
2.345015e+003, -2.714399e-003
2.346944e+003, -2.734083e-003
2.348872e+003, -2.955583e-003
2.350801e+003, -3.223287e-003
2.352729e+003, -3.355432e-003
2.354658e+003, -3.239503e-003
2.356586e+003, -3.197511e-003
2.358515e+003, -3.357772e-003
2.360443e+003, -3.371161e-003
2.362372e+003, -3.434917e-003
2.364300e+003, -3.655612e-003
2.366229e+003, -3.763690e-003
2.368157e+003, -3.787324e-003
2.370085e+003, -3.896165e-003
2.372014e+003, -3.780279e-003
2.373942e+003, -3.678179e-003
2.375871e+003, -3.700061e-003
2.377799e+003, -3.802439e-003
2.379728e+003, -3.670648e-003
2.381656e+003, -3.596097e-003
2.383585e+003, -3.898223e-003
2.385513e+003, -3.890364e-003
2.387442e+003, -3.957316e-003
2.389370e+003, -4.065662e-003
2.391299e+003, -4.033343e-003
2.393227e+003, -3.938613e-003
2.395156e+003, -3.723190e-003
2.397084e+003, -3.711372e-003
2.399012e+003, -3.885632e-003
2.400941e+003, -3.990201e-003
2.402869e+003, -4.130770e-003
2.404798e+003, -3.993731e-003
2.406726e+003, -3.566656e-003
2.408655e+003, -3.418699e-003
2.410583e+003, -3.509940e-003
2.412512e+003, -3.508021e-003
2.414440e+003, -3.766086e-003
2.416369e+003, -4.509110e-003
2.418297e+003, -4.141160e-003
2.420226e+003, -3.552025e-003
2.422154e+003, -3.513326e-003
2.424083e+003, -3.185456e-003
2.426011e+003, -3.191259e-003
2.427939e+003, -3.312964e-003
2.429868e+003, -3.482469e-003
2.431796e+003, -3.665463e-003
2.433725e+003, -3.688647e-003
2.435653e+003, -3.331131e-003
2.437582e+003, -3.252088e-003
2.439510e+003, -3.585198e-003
2.441439e+003, -3.682815e-003
2.443367e+003, -3.479630e-003
2.445296e+003, -3.238368e-003
2.447224e+003, -3.460663e-003
2.449153e+003, -3.608859e-003
2.451081e+003, -3.466955e-003
2.453010e+003, -3.177973e-003
2.454938e+003, -2.956843e-003
2.456866e+003, -3.076023e-003
2.458795e+003, -3.070861e-003
2.460723e+003, -3.052589e-003
2.462652e+003, -3.269633e-003
2.464580e+003, -3.541520e-003
2.466509e+003, -3.534404e-003
2.468437e+003, -3.453505e-003
2.470366e+003, -3.275849e-003
2.472294e+003, -3.012778e-003
2.474223e+003, -2.967763e-003
2.476151e+003, -3.111657e-003
2.478080e+003, -3.056175e-003
2.480008e+003, -3.297914e-003
2.481937e+003, -3.533259e-003
2.483865e+003, -3.356151e-003
2.485793e+003, -3.033300e-003
2.487722e+003, -3.071292e-003
2.489650e+003, -3.553153e-003
2.491579e+003, -3.506429e-003
2.493507e+003, -2.999574e-003
2.495436e+003, -3.041612e-003
2.497364e+003, -3.134029e-003
2.499293e+003, -3.278931e-003
2.501221e+003, -3.377266e-003
2.503150e+003, -3.341968e-003
2.505078e+003, -3.199125e-003
2.507007e+003, -3.158900e-003
2.508935e+003, -2.970233e-003
2.510864e+003, -3.014296e-003
2.512792e+003, -3.196822e-003
2.514720e+003, -3.540206e-003
2.516649e+003, -3.549794e-003
2.518577e+003, -3.124450e-003
2.520506e+003, -2.545987e-003
2.522434e+003, -2.503967e-003
2.524363e+003, -2.731968e-003
2.526291e+003, -3.026558e-003
2.528220e+003, -3.272231e-003
2.530148e+003, -2.955708e-003
2.532077e+003, -2.663703e-003
2.534005e+003, -2.839895e-003
2.535934e+003, -3.076998e-003
2.537862e+003, -3.351788e-003
2.539791e+003, -3.272414e-003
2.541719e+003, -3.103981e-003
2.543647e+003, -3.144128e-003
2.545576e+003, -2.897756e-003
2.547504e+003, -2.722186e-003
2.549433e+003, -2.991216e-003
2.551361e+003, -3.557726e-003
2.553290e+003, -3.171153e-003
2.555218e+003, -3.053037e-003
2.557147e+003, -2.965664e-003
2.559075e+003, -2.920930e-003
2.561004e+003, -2.934519e-003
2.562932e+003, -2.841248e-003
2.564861e+003, -2.836228e-003
2.566789e+003, -2.736778e-003
2.568718e+003, -2.746608e-003
2.570646e+003, -2.644472e-003
2.572574e+003, -2.791479e-003
2.574503e+003, -2.899558e-003
2.576431e+003, -2.672633e-003
2.578360e+003, -2.949923e-003
2.580288e+003, -3.094062e-003
2.582217e+003, -2.648400e-003
2.584145e+003, -2.627457e-003
2.586074e+003, -2.822727e-003
2.588002e+003, -2.546777e-003
2.589931e+003, -2.252617e-003
2.591859e+003, -2.330701e-003
2.593788e+003, -2.501430e-003
2.595716e+003, -2.492182e-003
2.597645e+003, -2.524576e-003
2.599573e+003, -2.425600e-003
2.601501e+003, -2.334475e-003
2.603430e+003, -2.227871e-003
2.605358e+003, -2.289357e-003
2.607287e+003, -2.422402e-003
2.609215e+003, -2.580199e-003
2.611144e+003, -2.677444e-003
2.613072e+003, -2.812737e-003
2.615001e+003, -2.895158e-003
2.616929e+003, -2.770717e-003
2.618858e+003, -2.633003e-003
2.620786e+003, -2.442223e-003
2.622715e+003, -2.339053e-003
2.624643e+003, -2.298651e-003
2.626572e+003, -2.335908e-003
2.628500e+003, -2.253884e-003
2.630428e+003, -1.958859e-003
2.632357e+003, -1.951112e-003
2.634285e+003, -2.267452e-003
2.636214e+003, -2.214936e-003
2.638142e+003, -2.233090e-003
2.640071e+003, -2.348782e-003
2.641999e+003, -2.067555e-003
2.643928e+003, -2.097888e-003
2.645856e+003, -2.233524e-003
2.647785e+003, -2.205516e-003
2.649713e+003, -2.192710e-003
2.651642e+003, -2.214179e-003
2.653570e+003, -2.299635e-003
2.655499e+003, -2.221365e-003
2.657427e+003, -2.213269e-003
2.659355e+003, -2.331968e-003
2.661284e+003, -2.694980e-003
2.663212e+003, -2.938247e-003
2.665141e+003, -2.888109e-003
2.667069e+003, -2.791515e-003
2.668998e+003, -2.746744e-003
2.670926e+003, -2.769609e-003
2.672855e+003, -2.646458e-003
2.674783e+003, -2.698556e-003
2.676712e+003, -2.793804e-003
2.678640e+003, -2.862185e-003
2.680569e+003, -2.786588e-003
2.682497e+003, -2.780934e-003
2.684426e+003, -2.790698e-003
2.686354e+003, -2.918208e-003
2.688282e+003, -3.036556e-003
2.690211e+003, -2.883811e-003
2.692139e+003, -2.773369e-003
2.694068e+003, -2.899354e-003
2.695996e+003, -2.725666e-003
2.697925e+003, -2.711429e-003
2.699853e+003, -3.011640e-003
2.701782e+003, -3.018043e-003
2.703710e+003, -2.672164e-003
2.705639e+003, -2.702746e-003
2.707567e+003, -2.895166e-003
2.709496e+003, -2.913044e-003
2.711424e+003, -2.947065e-003
2.713353e+003, -2.863561e-003
2.715281e+003, -2.751477e-003
2.717209e+003, -2.597808e-003
2.719138e+003, -2.356605e-003
2.721066e+003, -2.411406e-003
2.722995e+003, -2.510406e-003
2.724923e+003, -2.646100e-003
2.726852e+003, -2.936192e-003
2.728780e+003, -2.975200e-003
2.730709e+003, -2.559326e-003
2.732637e+003, -2.251172e-003
2.734566e+003, -2.233543e-003
2.736494e+003, -2.147114e-003
2.738423e+003, -2.130105e-003
2.740351e+003, -2.257986e-003
2.742280e+003, -2.551327e-003
2.744208e+003, -2.750667e-003
2.746136e+003, -2.576985e-003
2.748065e+003, -2.345863e-003
2.749993e+003, -2.212060e-003
2.751922e+003, -2.274995e-003
2.753850e+003, -2.269722e-003
2.755779e+003, -2.324485e-003
2.757707e+003, -2.491388e-003
2.759636e+003, -2.649203e-003
2.761564e+003, -2.511132e-003
2.763493e+003, -2.484523e-003
2.765421e+003, -2.599850e-003
2.767350e+003, -2.576282e-003
2.769278e+003, -2.292242e-003
2.771207e+003, -2.202693e-003
2.773135e+003, -2.564205e-003
2.775063e+003, -2.435372e-003
2.776992e+003, -1.948236e-003
2.778920e+003, -1.975464e-003
2.780849e+003, -2.334482e-003
2.782777e+003, -2.347647e-003
2.784706e+003, -2.355764e-003
2.786634e+003, -2.105023e-003
2.788563e+003, -1.565548e-003
2.790491e+003, -1.779772e-003
2.792420e+003, -2.047641e-003
2.794348e+003, -2.179057e-003
2.796277e+003, -2.133437e-003
2.798205e+003, -1.974468e-003
2.800134e+003, -1.888152e-003
2.802062e+003, -1.805045e-003
2.803990e+003, -1.864875e-003
2.805919e+003, -1.877711e-003
2.807847e+003, -1.650247e-003
2.809776e+003, -1.574720e-003
2.811704e+003, -1.563200e-003
2.813633e+003, -1.709644e-003
2.815561e+003, -1.789947e-003
2.817490e+003, -1.661733e-003
2.819418e+003, -1.725695e-003
2.821347e+003, -1.721234e-003
2.823275e+003, -1.564669e-003
2.825204e+003, -1.604765e-003
2.827132e+003, -1.717606e-003
2.829061e+003, -1.457917e-003
2.830989e+003, -1.406122e-003
2.832917e+003, -1.484844e-003
2.834846e+003, -1.224514e-003
2.836774e+003, -8.118881e-004
2.838703e+003, -6.738351e-004
2.840631e+003, -8.258788e-004
2.842560e+003, -8.913192e-004
2.844488e+003, -5.514731e-004
2.846417e+003, -5.705545e-004
2.848345e+003, -7.030497e-004
2.850274e+003, -4.953378e-004
2.852202e+003, -5.207483e-004
2.854131e+003, -3.627159e-004
2.856059e+003, -1.144578e-004
2.857988e+003, -9.867988e-005
2.859916e+003, -2.964225e-004
2.861844e+003, -3.883419e-004
2.863773e+003, -3.808677e-004
2.865701e+003, -4.380321e-004
2.867630e+003, -4.625791e-004
2.869558e+003, -5.348773e-004
2.871487e+003, -3.141603e-004
2.873415e+003, -3.342109e-004
2.875344e+003, -2.386682e-004
2.877272e+003, -3.273194e-004
2.879201e+003, -6.482854e-004
2.881129e+003, -5.410375e-004
2.883058e+003, -5.702772e-004
2.884986e+003, -7.689508e-004
2.886915e+003, -6.604294e-004
2.888843e+003, -2.007796e-004
2.890771e+003, -5.366028e-005
2.892700e+003, -1.889708e-004
2.894628e+003, 3.883800e-004
2.896557e+003, 7.504795e-004
2.898485e+003, 5.442480e-004
2.900414e+003, 1.125830e-004
2.902342e+003, 1.182806e-004
2.904271e+003, 4.629883e-004
2.906199e+003, 5.286520e-004
2.908128e+003, 3.938216e-004
2.910056e+003, 7.312734e-004
2.911985e+003, 1.260948e-003
2.913913e+003, 1.171963e-003
2.915842e+003, 7.906814e-004
2.917770e+003, 1.230040e-003
2.919698e+003, 1.871319e-003
2.921627e+003, 1.877361e-003
2.923555e+003, 1.750221e-003
2.925484e+003, 1.724147e-003
2.927412e+003, 1.770892e-003
2.929341e+003, 1.890006e-003
2.931269e+003, 1.354022e-003
2.933198e+003, 1.333263e-003
2.935126e+003, 1.307328e-003
2.937055e+003, 1.015343e-003
2.938983e+003, 1.098526e-003
2.940912e+003, 1.012411e-003
2.942840e+003, 8.785616e-004
2.944769e+003, 8.196370e-004
2.946697e+003, 8.061527e-004
2.948625e+003, 1.092616e-003
2.950554e+003, 1.473855e-003
2.952482e+003, 1.774208e-003
2.954411e+003, 1.946292e-003
2.956339e+003, 1.727390e-003
2.958268e+003, 1.371068e-003
2.960196e+003, 1.477956e-003
2.962125e+003, 1.767002e-003
2.964053e+003, 1.645375e-003
2.965982e+003, 1.293213e-003
2.967910e+003, 1.131114e-003
2.969839e+003, 9.276517e-004
2.971767e+003, 9.255530e-004
2.973696e+003, 1.167989e-003
2.975624e+003, 1.451951e-003
2.977552e+003, 6.610741e-004
2.979481e+003, 1.260404e-004
2.981409e+003, 3.235842e-004
2.983338e+003, 6.797325e-004
2.985266e+003, 9.455783e-004
2.987195e+003, 8.171855e-004
2.989123e+003, 1.012620e-003
2.991052e+003, 1.294440e-003
2.992980e+003, 1.527637e-003
2.994909e+003, 1.292155e-003
2.996837e+003, 9.024785e-004
2.998766e+003, 1.325854e-003
3.000694e+003, 1.801871e-003
3.002623e+003, 1.909192e-003
3.004551e+003, 2.057140e-003
3.006479e+003, 1.898187e-003
3.008408e+003, 1.841858e-003
3.010336e+003, 1.807740e-003
3.012265e+003, 1.163278e-003
3.014193e+003, 1.229170e-004
3.016122e+003, -6.957136e-004
3.018050e+003, 1.393956e-004
3.019979e+003, 1.495825e-003
3.021907e+003, 1.780741e-003
3.023836e+003, 1.814143e-003
3.025764e+003, 2.437536e-003
3.027693e+003, 2.626392e-003
3.029621e+003, 2.660614e-003
3.031550e+003, 3.008534e-003
3.033478e+003, 2.860718e-003
3.035406e+003, 2.560460e-003
3.037335e+003, 2.656924e-003
3.039263e+003, 2.622347e-003
3.041192e+003, 2.630827e-003
3.043120e+003, 2.910225e-003
3.045049e+003, 3.072398e-003
3.046977e+003, 2.976962e-003
3.048906e+003, 3.159141e-003
3.050834e+003, 3.742724e-003
3.052763e+003, 4.046141e-003
3.054691e+003, 4.028040e-003
3.056620e+003, 3.362900e-003
3.058548e+003, 3.468402e-003
3.060477e+003, 4.386595e-003
3.062405e+003, 4.662281e-003
3.064333e+003, 4.651108e-003
3.066262e+003, 4.093281e-003
3.068190e+003, 4.121310e-003
3.070119e+003, 4.491963e-003
3.072047e+003, 4.910676e-003
3.073976e+003, 5.128208e-003
3.075904e+003, 4.351011e-003
3.077833e+003, 3.945429e-003
3.079761e+003, 4.519678e-003
3.081690e+003, 5.153816e-003
3.083618e+003, 5.614004e-003
3.085547e+003, 5.391933e-003
3.087475e+003, 5.367122e-003
3.089404e+003, 5.723702e-003
3.091332e+003, 5.689391e-003
3.093260e+003, 5.370785e-003
3.095189e+003, 5.494971e-003
3.097117e+003, 6.310952e-003
3.099046e+003, 6.497344e-003
3.100974e+003, 6.703409e-003
3.102903e+003, 6.323226e-003
3.104831e+003, 6.121762e-003
3.106760e+003, 7.056186e-003
3.108688e+003, 7.917489e-003
3.110617e+003, 7.617499e-003
3.112545e+003, 7.260163e-003
3.114474e+003, 7.331853e-003
3.116402e+003, 7.224953e-003
3.118331e+003, 7.658877e-003
3.120259e+003, 7.871740e-003
3.122188e+003, 7.751181e-003
3.124116e+003, 8.065472e-003
3.126044e+003, 8.236497e-003
3.127973e+003, 8.339453e-003
3.129901e+003, 8.371259e-003
3.131830e+003, 8.956702e-003
3.133758e+003, 9.284759e-003
3.135687e+003, 9.122227e-003
3.137615e+003, 9.185153e-003
3.139544e+003, 8.900792e-003
3.141472e+003, 9.098906e-003
3.143401e+003, 9.592503e-003
3.145329e+003, 9.927092e-003
3.147258e+003, 1.022076e-002
3.149186e+003, 1.045050e-002
3.151115e+003, 1.063846e-002
3.153043e+003, 1.075959e-002
3.154971e+003, 1.091006e-002
3.156900e+003, 1.095116e-002
3.158828e+003, 1.137186e-002
3.160757e+003, 1.144402e-002
3.162685e+003, 1.132427e-002
3.164614e+003, 1.152124e-002
3.166542e+003, 1.155011e-002
3.168471e+003, 1.197621e-002
3.170399e+003, 1.188406e-002
3.172328e+003, 1.165495e-002
3.174256e+003, 1.205067e-002
3.176185e+003, 1.251601e-002
3.178113e+003, 1.226421e-002
3.180042e+003, 1.255313e-002
3.181970e+003, 1.328351e-002
3.183898e+003, 1.290142e-002
3.185827e+003, 1.255007e-002
3.187755e+003, 1.281248e-002
3.189684e+003, 1.325494e-002
3.191612e+003, 1.414294e-002
3.193541e+003, 1.443368e-002
3.195469e+003, 1.407653e-002
3.197398e+003, 1.420730e-002
3.199326e+003, 1.452666e-002
3.201255e+003, 1.439807e-002
3.203183e+003, 1.433561e-002
3.205112e+003, 1.445279e-002
3.207040e+003, 1.457247e-002
3.208969e+003, 1.512603e-002
3.210897e+003, 1.537923e-002
3.212825e+003, 1.532676e-002
3.214754e+003, 1.543198e-002
3.216682e+003, 1.545650e-002
3.218611e+003, 1.581018e-002
3.220539e+003, 1.601205e-002
3.222468e+003, 1.596890e-002
3.224396e+003, 1.592049e-002
3.226325e+003, 1.600274e-002
3.228253e+003, 1.631328e-002
3.230182e+003, 1.626116e-002
3.232110e+003, 1.652003e-002
3.234039e+003, 1.697065e-002
3.235967e+003, 1.707830e-002
3.237896e+003, 1.721212e-002
3.239824e+003, 1.696515e-002
3.241752e+003, 1.678909e-002
3.243681e+003, 1.682200e-002
3.245609e+003, 1.681564e-002
3.247538e+003, 1.697848e-002
3.249466e+003, 1.733357e-002
3.251395e+003, 1.757078e-002
3.253323e+003, 1.781650e-002
3.255252e+003, 1.780659e-002
3.257180e+003, 1.748774e-002
3.259109e+003, 1.721580e-002
3.261037e+003, 1.702056e-002
3.262966e+003, 1.696822e-002
3.264894e+003, 1.712557e-002
3.266823e+003, 1.700681e-002
3.268751e+003, 1.679476e-002
3.270679e+003, 1.715635e-002
3.272608e+003, 1.736651e-002
3.274536e+003, 1.767899e-002
3.276465e+003, 1.774927e-002
3.278393e+003, 1.710496e-002
3.280322e+003, 1.690182e-002
3.282250e+003, 1.723782e-002
3.284179e+003, 1.729010e-002
3.286107e+003, 1.682276e-002
3.288036e+003, 1.680944e-002
3.289964e+003, 1.700711e-002
3.291893e+003, 1.669024e-002
3.293821e+003, 1.644231e-002
3.295750e+003, 1.640914e-002
3.297678e+003, 1.656703e-002
3.299606e+003, 1.680409e-002
3.301535e+003, 1.711385e-002
3.303463e+003, 1.706920e-002
3.305392e+003, 1.696242e-002
3.307320e+003, 1.685431e-002
3.309249e+003, 1.737362e-002
3.311177e+003, 1.788416e-002
3.313106e+003, 1.747123e-002
3.315034e+003, 1.714453e-002
3.316963e+003, 1.725379e-002
3.318891e+003, 1.693739e-002
3.320820e+003, 1.708471e-002
3.322748e+003, 1.765863e-002
3.324677e+003, 1.766003e-002
3.326605e+003, 1.801471e-002
3.328533e+003, 1.815723e-002
3.330462e+003, 1.777164e-002
3.332390e+003, 1.779172e-002
3.334319e+003, 1.828052e-002
3.336247e+003, 1.880195e-002
3.338176e+003, 1.886298e-002
3.340104e+003, 1.877439e-002
3.342033e+003, 1.869500e-002
3.343961e+003, 1.865020e-002
3.345890e+003, 1.870169e-002
3.347818e+003, 1.874636e-002
3.349747e+003, 1.875442e-002
3.351675e+003, 1.907142e-002
3.353604e+003, 1.930088e-002
3.355532e+003, 1.929944e-002
3.357460e+003, 1.925673e-002
3.359389e+003, 1.905233e-002
3.361317e+003, 1.937515e-002
3.363246e+003, 1.995490e-002
3.365174e+003, 1.987521e-002
3.367103e+003, 1.994140e-002
3.369031e+003, 2.012401e-002
3.370960e+003, 1.992388e-002
3.372888e+003, 1.975342e-002
3.374817e+003, 1.971832e-002
3.376745e+003, 1.958304e-002
3.378674e+003, 1.981476e-002
3.380602e+003, 2.003346e-002
3.382531e+003, 1.987444e-002
3.384459e+003, 1.994563e-002
3.386387e+003, 2.003703e-002
3.388316e+003, 1.994200e-002
3.390244e+003, 1.979824e-002
3.392173e+003, 1.995813e-002
3.394101e+003, 2.023848e-002
3.396030e+003, 2.048051e-002
3.397958e+003, 2.010321e-002
3.399887e+003, 1.955845e-002
3.401815e+003, 1.955443e-002
3.403744e+003, 2.004907e-002
3.405672e+003, 2.022980e-002
3.407601e+003, 2.037354e-002
3.409529e+003, 2.069179e-002
3.411458e+003, 2.014466e-002
3.413386e+003, 2.022972e-002
3.415314e+003, 2.036100e-002
3.417243e+003, 2.006576e-002
3.419171e+003, 2.009382e-002
3.421100e+003, 2.044651e-002
3.423028e+003, 2.044190e-002
3.424957e+003, 2.017061e-002
3.426885e+003, 2.009032e-002
3.428814e+003, 2.002156e-002
3.430742e+003, 2.012875e-002
3.432671e+003, 1.986395e-002
3.434599e+003, 1.986388e-002
3.436528e+003, 2.041201e-002
3.438456e+003, 2.024013e-002
3.440385e+003, 1.962936e-002
3.442313e+003, 1.974966e-002
3.444241e+003, 2.065227e-002
3.446170e+003, 2.082000e-002
3.448098e+003, 2.012139e-002
3.450027e+003, 1.976006e-002
3.451955e+003, 2.003856e-002
3.453884e+003, 1.986336e-002
3.455812e+003, 1.935899e-002
3.457741e+003, 1.927087e-002
3.459669e+003, 1.933140e-002
3.461598e+003, 1.955510e-002
3.463526e+003, 1.946761e-002
3.465455e+003, 1.954447e-002
3.467383e+003, 1.953390e-002
3.469312e+003, 1.929752e-002
3.471240e+003, 1.917017e-002
3.473168e+003, 1.910748e-002
3.475097e+003, 1.950337e-002
3.477025e+003, 1.966484e-002
3.478954e+003, 1.927426e-002
3.480882e+003, 1.926937e-002
3.482811e+003, 1.911989e-002
3.484739e+003, 1.882342e-002
3.486668e+003, 1.918218e-002
3.488596e+003, 1.962980e-002
3.490525e+003, 1.992957e-002
3.492453e+003, 1.972610e-002
3.494382e+003, 1.977802e-002
3.496310e+003, 1.984242e-002
3.498239e+003, 1.948968e-002
3.500167e+003, 1.936072e-002
3.502095e+003, 1.936300e-002
3.504024e+003, 1.950839e-002
3.505952e+003, 1.975831e-002
3.507881e+003, 1.941983e-002
3.509809e+003, 1.889830e-002
3.511738e+003, 1.866551e-002
3.513666e+003, 1.899137e-002
3.515595e+003, 1.900364e-002
3.517523e+003, 1.857605e-002
3.519452e+003, 1.891472e-002
3.521380e+003, 1.889836e-002
3.523309e+003, 1.837218e-002
3.525237e+003, 1.854345e-002
3.527166e+003, 1.901071e-002
3.529094e+003, 1.877684e-002
3.531022e+003, 1.885387e-002
3.532951e+003, 1.865153e-002
3.534879e+003, 1.770607e-002
3.536808e+003, 1.710825e-002
3.538736e+003, 1.751515e-002
3.540665e+003, 1.786999e-002
3.542593e+003, 1.787137e-002
3.544522e+003, 1.770274e-002
3.546450e+003, 1.740806e-002
3.548379e+003, 1.713370e-002
3.550307e+003, 1.746821e-002
3.552236e+003, 1.798628e-002
3.554164e+003, 1.732503e-002
3.556093e+003, 1.664296e-002
3.558021e+003, 1.679496e-002
3.559949e+003, 1.689119e-002
3.561878e+003, 1.645771e-002
3.563806e+003, 1.634080e-002
3.565735e+003, 1.654245e-002
3.567663e+003, 1.635089e-002
3.569592e+003, 1.632383e-002
3.571520e+003, 1.590454e-002
3.573449e+003, 1.564780e-002
3.575377e+003, 1.579862e-002
3.577306e+003, 1.579093e-002
3.579234e+003, 1.580708e-002
3.581163e+003, 1.548727e-002
3.583091e+003, 1.444157e-002
3.585020e+003, 1.411089e-002
3.586948e+003, 1.475132e-002
3.588876e+003, 1.518771e-002
3.590805e+003, 1.479245e-002
3.592733e+003, 1.389907e-002
3.594662e+003, 1.327153e-002
3.596590e+003, 1.331443e-002
3.598519e+003, 1.357229e-002
3.600447e+003, 1.416422e-002
3.602376e+003, 1.464688e-002
3.604304e+003, 1.426983e-002
3.606233e+003, 1.364607e-002
3.608161e+003, 1.320320e-002
3.610090e+003, 1.248530e-002
3.612018e+003, 1.213586e-002
3.613947e+003, 1.205747e-002
3.615875e+003, 1.221733e-002
3.617803e+003, 1.286614e-002
3.619732e+003, 1.269341e-002
3.621660e+003, 1.162567e-002
3.623589e+003, 1.073317e-002
3.625517e+003, 1.039854e-002
3.627446e+003, 1.042738e-002
3.629374e+003, 1.009640e-002
3.631303e+003, 8.925397e-003
3.633231e+003, 8.513091e-003
3.635160e+003, 8.567702e-003
3.637088e+003, 8.232142e-003
3.639017e+003, 7.263631e-003
3.640945e+003, 6.520216e-003
3.642874e+003, 5.892311e-003
3.644802e+003, 5.351102e-003
3.646730e+003, 5.232668e-003
3.648659e+003, 4.795534e-003
3.650587e+003, 4.020544e-003
3.652516e+003, 3.492035e-003
3.654444e+003, 3.009839e-003
3.656373e+003, 1.838584e-003
3.658301e+003, 5.289561e-004
3.660230e+003, -5.456638e-004
3.662158e+003, -9.805467e-004
3.664087e+003, -1.237807e-003
3.666015e+003, -1.792465e-003
3.667944e+003, -2.565336e-003
3.669872e+003, -2.858051e-003
3.671801e+003, -3.474822e-003
3.673729e+003, -4.297761e-003
3.675657e+003, -4.152964e-003
3.677586e+003, -4.241463e-003
3.679514e+003, -5.379228e-003
3.681443e+003, -5.739584e-003
3.683371e+003, -5.827501e-003
3.685300e+003, -5.960769e-003
3.687228e+003, -6.106200e-003
3.689157e+003, -6.052325e-003
3.691085e+003, -6.084883e-003
3.693014e+003, -6.124054e-003
3.694942e+003, -6.546903e-003
3.696871e+003, -7.081294e-003
3.698799e+003, -7.382221e-003
3.700728e+003, -7.597000e-003
3.702656e+003, -7.915632e-003
3.704584e+003, -7.756351e-003
3.706513e+003, -7.472576e-003
3.708441e+003, -7.149176e-003
3.710370e+003, -7.498405e-003
3.712298e+003, -7.496588e-003
3.714227e+003, -7.998869e-003
3.716155e+003, -8.333099e-003
3.718084e+003, -8.449838e-003
3.720012e+003, -8.145727e-003
3.721941e+003, -7.729931e-003
3.723869e+003, -8.032694e-003
3.725798e+003, -8.272970e-003
3.727726e+003, -8.160297e-003
3.729655e+003, -7.756788e-003
3.731583e+003, -7.713209e-003
3.733511e+003, -7.917904e-003
3.735440e+003, -7.728399e-003
3.737368e+003, -7.800883e-003
3.739297e+003, -7.986380e-003
3.741225e+003, -8.301040e-003
3.743154e+003, -7.371570e-003
3.745082e+003, -6.618684e-003
3.747011e+003, -8.203376e-003
3.748939e+003, -8.924486e-003
3.750868e+003, -8.596774e-003
3.752796e+003, -7.981238e-003
3.754725e+003, -8.603820e-003
3.756653e+003, -9.088429e-003
3.758582e+003, -9.022222e-003
3.760510e+003, -8.774895e-003
3.762438e+003, -8.811723e-003
3.764367e+003, -8.549836e-003
3.766295e+003, -8.058175e-003
3.768224e+003, -7.983000e-003
3.770152e+003, -8.440734e-003
3.772081e+003, -9.236500e-003
3.774009e+003, -9.698469e-003
3.775938e+003, -9.037860e-003
3.777866e+003, -8.338068e-003
3.779795e+003, -8.594227e-003
3.781723e+003, -8.695798e-003
3.783652e+003, -7.873829e-003
3.785580e+003, -7.662199e-003
3.787509e+003, -8.913334e-003
3.789437e+003, -8.935194e-003
3.791365e+003, -8.046124e-003
3.793294e+003, -7.728467e-003
3.795222e+003, -8.527316e-003
3.797151e+003, -8.873783e-003
3.799079e+003, -8.056217e-003
3.801008e+003, -7.626458e-003
3.802936e+003, -8.849341e-003
3.804865e+003, -9.040243e-003
3.806793e+003, -8.280401e-003
3.808722e+003, -8.621166e-003
3.810650e+003, -8.718318e-003
3.812579e+003, -8.564597e-003
3.814507e+003, -8.795208e-003
3.816436e+003, -9.123472e-003
3.818364e+003, -8.944822e-003
3.820292e+003, -8.779835e-003
3.822221e+003, -9.534243e-003
3.824149e+003, -9.670288e-003
3.826078e+003, -9.075329e-003
3.828006e+003, -9.159463e-003
3.829935e+003, -9.219181e-003
3.831863e+003, -8.843557e-003
3.833792e+003, -8.879558e-003
3.835720e+003, -8.557793e-003
3.837649e+003, -8.200974e-003
3.839577e+003, -8.543783e-003
3.841506e+003, -8.501687e-003
3.843434e+003, -8.651859e-003
3.845363e+003, -8.604572e-003
3.847291e+003, -9.167138e-003
3.849219e+003, -9.302071e-003
3.851148e+003, -9.009467e-003
3.853076e+003, -9.227624e-003
3.855005e+003, -9.511008e-003
3.856933e+003, -9.570228e-003
3.858862e+003, -9.168357e-003
3.860790e+003, -8.894114e-003
3.862719e+003, -8.906525e-003
3.864647e+003, -9.048996e-003
3.866576e+003, -8.844721e-003
3.868504e+003, -8.319857e-003
3.870433e+003, -8.156391e-003
3.872361e+003, -8.130278e-003
3.874290e+003, -7.979173e-003
3.876218e+003, -8.080109e-003
3.878146e+003, -8.130121e-003
3.880075e+003, -8.742882e-003
3.882003e+003, -9.162108e-003
3.883932e+003, -8.551740e-003
3.885860e+003, -8.175806e-003
3.887789e+003, -9.051953e-003
3.889717e+003, -9.090998e-003
3.891646e+003, -8.936930e-003
3.893574e+003, -9.419645e-003
3.895503e+003, -9.759112e-003
3.897431e+003, -9.409350e-003
3.899360e+003, -9.007379e-003
3.901288e+003, -8.877533e-003
3.903217e+003, -8.750887e-003
3.905145e+003, -8.781548e-003
3.907073e+003, -8.520112e-003
3.909002e+003, -8.494110e-003
3.910930e+003, -8.958746e-003
3.912859e+003, -8.942348e-003
3.914787e+003, -8.319480e-003
3.916716e+003, -9.110467e-003
3.918644e+003, -9.505128e-003
3.920573e+003, -9.072021e-003
3.922501e+003, -9.217596e-003
3.924430e+003, -9.615574e-003
3.926358e+003, -1.002925e-002
3.928287e+003, -9.661664e-003
3.930215e+003, -9.028618e-003
3.932144e+003, -8.823416e-003
3.934072e+003, -9.030227e-003
3.936000e+003, -8.481473e-003
3.937929e+003, -8.207046e-003
3.939857e+003, -9.146301e-003
3.941786e+003, -9.814823e-003
3.943714e+003, -9.536558e-003
3.945643e+003, -9.319092e-003
3.947571e+003, -9.609885e-003
3.949500e+003, -9.809708e-003
3.951428e+003, -9.679939e-003
3.953357e+003, -9.897688e-003
3.955285e+003, -1.012082e-002
3.957214e+003, -1.011253e-002
3.959142e+003, -9.977971e-003
3.961071e+003, -9.015573e-003
3.962999e+003, -8.656726e-003
3.964927e+003, -9.041733e-003
3.966856e+003, -9.110266e-003
3.968784e+003, -8.767553e-003
3.970713e+003, -8.763895e-003
3.972641e+003, -8.908599e-003
3.974570e+003, -9.423740e-003
3.976498e+003, -1.013127e-002
3.978427e+003, -9.446122e-003
3.980355e+003, -9.023240e-003
3.982284e+003, -8.809496e-003
3.984212e+003, -8.253415e-003
3.986141e+003, -8.166238e-003
3.988069e+003, -8.787886e-003
3.989998e+003, -9.111809e-003
3.991926e+003, -9.240867e-003
3.993854e+003, -9.316476e-003
3.995783e+003, -9.173927e-003
3.997711e+003, -9.508455e-003
3.999640e+003, -9.871694e-003
4.001568e+003, 0.000000e+000
##END=



