##NAMES=Ferro-edenite
##RRUFFID=R060044
##IDEAL CHEMISTRY=NaCa_2_Fe^2+^_5_(Si_7_Al)O_22_(OH)_2_
##LOCALITY=Barkevik, Norway
##OWNER=RRUFF
##SOURCE=University of Arizona Mineral Museum
##DESCRIPTION=Black cleavage fragment
##STATUS=The identification of this mineral has been confirmed by X-ray diffraction and chemical analysis
##URL=rruff.info/R060044
##MEASURED CHEMISTRY=(Na_0.68_K_0.32_)(Ca_1.50_Na_0.50_)_Σ=2_(Fe^2+^_3.50_Mg_0.75_Fe^3+^_0.25_Ti_0.25_Mn_0.20_Al_0.05_)_Σ=5_(Si_6.64_Al_1.36_)_Σ=8_O_22_(OH)_2_
3.991926e+002, 2.932822e-001
4.011211e+002, 2.731625e-001
4.030495e+002, 2.707575e-001
4.049780e+002, 2.873206e-001
4.069065e+002, 2.980848e-001
4.088349e+002, 3.039119e-001
4.107634e+002, 3.090731e-001
4.126919e+002, 3.112402e-001
4.146203e+002, 3.046778e-001
4.165488e+002, 3.051224e-001
4.184773e+002, 3.255323e-001
4.204057e+002, 3.303837e-001
4.223342e+002, 3.235516e-001
4.242627e+002, 3.277533e-001
4.261911e+002, 3.246617e-001
4.281196e+002, 3.203634e-001
4.300481e+002, 3.202504e-001
4.319765e+002, 3.217265e-001
4.339050e+002, 3.306871e-001
4.358335e+002, 3.402968e-001
4.377619e+002, 3.491432e-001
4.396904e+002, 3.476848e-001
4.416189e+002, 3.538945e-001
4.435473e+002, 3.565700e-001
4.454758e+002, 3.439222e-001
4.474043e+002, 3.446802e-001
4.493327e+002, 3.516115e-001
4.512612e+002, 3.427116e-001
4.531897e+002, 3.256668e-001
4.551181e+002, 3.174123e-001
4.570466e+002, 3.146072e-001
4.589751e+002, 3.044365e-001
4.609035e+002, 2.942633e-001
4.628320e+002, 2.871329e-001
4.647605e+002, 2.788625e-001
4.666889e+002, 2.622241e-001
4.686174e+002, 2.501495e-001
4.705459e+002, 2.417978e-001
4.724743e+002, 2.376840e-001
4.744028e+002, 2.340955e-001
4.763313e+002, 2.303987e-001
4.782597e+002, 2.298990e-001
4.801882e+002, 2.333026e-001
4.821167e+002, 2.378940e-001
4.840451e+002, 2.367177e-001
4.859736e+002, 2.347245e-001
4.879021e+002, 2.360511e-001
4.898305e+002, 2.355557e-001
4.917590e+002, 2.324328e-001
4.936875e+002, 2.318473e-001
4.956159e+002, 2.306219e-001
4.975444e+002, 2.251980e-001
4.994729e+002, 2.207044e-001
5.014013e+002, 2.174024e-001
5.033298e+002, 2.137125e-001
5.052583e+002, 2.098871e-001
5.071867e+002, 2.042634e-001
5.091152e+002, 2.003450e-001
5.110437e+002, 1.985516e-001
5.129721e+002, 1.944877e-001
5.149006e+002, 1.890251e-001
5.168290e+002, 1.846376e-001
5.187575e+002, 1.809287e-001
5.206860e+002, 1.752836e-001
5.226144e+002, 1.695624e-001
5.245429e+002, 1.658187e-001
5.264714e+002, 1.589680e-001
5.283998e+002, 1.496837e-001
5.303283e+002, 1.440534e-001
5.322568e+002, 1.383239e-001
5.341852e+002, 1.321416e-001
5.361137e+002, 1.259746e-001
5.380422e+002, 1.195265e-001
5.399706e+002, 1.136282e-001
5.418991e+002, 1.078691e-001
5.438276e+002, 1.031414e-001
5.457560e+002, 9.801369e-002
5.476845e+002, 9.357478e-002
5.496130e+002, 9.084309e-002
5.515414e+002, 8.678097e-002
5.534699e+002, 8.295138e-002
5.553984e+002, 8.017376e-002
5.573268e+002, 7.769046e-002
5.592553e+002, 7.461347e-002
5.611838e+002, 7.192420e-002
5.631122e+002, 7.089403e-002
5.650407e+002, 6.946171e-002
5.669692e+002, 6.784709e-002
5.688976e+002, 6.615935e-002
5.708261e+002, 6.539111e-002
5.727546e+002, 6.522957e-002
5.746830e+002, 6.489082e-002
5.766115e+002, 6.612957e-002
5.785400e+002, 6.793649e-002
5.804684e+002, 6.940119e-002
5.823969e+002, 7.157576e-002
5.843254e+002, 7.391005e-002
5.862538e+002, 7.592409e-002
5.881823e+002, 7.910790e-002
5.901108e+002, 8.206882e-002
5.920392e+002, 8.629090e-002
5.939677e+002, 9.126638e-002
5.958962e+002, 9.470195e-002
5.978246e+002, 9.713095e-002
5.997531e+002, 1.011241e-001
6.016816e+002, 1.043912e-001
6.036100e+002, 1.066841e-001
6.055385e+002, 1.079004e-001
6.074670e+002, 1.085883e-001
6.093954e+002, 1.092962e-001
6.113239e+002, 1.100709e-001
6.132524e+002, 1.102804e-001
6.151808e+002, 1.092352e-001
6.171093e+002, 1.082660e-001
6.190378e+002, 1.083208e-001
6.209662e+002, 1.082545e-001
6.228947e+002, 1.074263e-001
6.248232e+002, 1.070012e-001
6.267516e+002, 1.071754e-001
6.286801e+002, 1.075471e-001
6.306086e+002, 1.081030e-001
6.325370e+002, 1.079355e-001
6.344655e+002, 1.080179e-001
6.363940e+002, 1.085948e-001
6.383224e+002, 1.091689e-001
6.402509e+002, 1.089534e-001
6.421794e+002, 1.092675e-001
6.441078e+002, 1.101516e-001
6.460363e+002, 1.105132e-001
6.479648e+002, 1.109131e-001
6.498932e+002, 1.118156e-001
6.518217e+002, 1.121162e-001
6.537502e+002, 1.119812e-001
6.556786e+002, 1.121243e-001
6.576071e+002, 1.117563e-001
6.595356e+002, 1.111426e-001
6.614641e+002, 1.105455e-001
6.633925e+002, 1.104239e-001
6.653210e+002, 1.111005e-001
6.672495e+002, 1.112521e-001
6.691779e+002, 1.108130e-001
6.711064e+002, 1.101845e-001
6.730349e+002, 1.085192e-001
6.749633e+002, 1.064000e-001
6.768918e+002, 1.044476e-001
6.788203e+002, 1.027940e-001
6.807487e+002, 1.016098e-001
6.826772e+002, 9.931130e-002
6.846057e+002, 9.777316e-002
6.865341e+002, 9.763119e-002
6.884626e+002, 9.694227e-002
6.903911e+002, 9.613820e-002
6.923195e+002, 9.593166e-002
6.942480e+002, 9.583060e-002
6.961765e+002, 9.474567e-002
6.981049e+002, 9.321057e-002
7.000334e+002, 9.205297e-002
7.019619e+002, 9.121363e-002
7.038903e+002, 9.108894e-002
7.058188e+002, 9.114375e-002
7.077473e+002, 9.139146e-002
7.096757e+002, 9.241227e-002
7.116042e+002, 9.458268e-002
7.135327e+002, 9.705106e-002
7.154611e+002, 9.919709e-002
7.173896e+002, 1.011653e-001
7.193181e+002, 1.031742e-001
7.212465e+002, 1.055804e-001
7.231750e+002, 1.077183e-001
7.251035e+002, 1.096954e-001
7.270319e+002, 1.112111e-001
7.289604e+002, 1.116728e-001
7.308889e+002, 1.111798e-001
7.328173e+002, 1.106349e-001
7.347458e+002, 1.101819e-001
7.366743e+002, 1.098624e-001
7.386027e+002, 1.096952e-001
7.405312e+002, 1.099998e-001
7.424597e+002, 1.106105e-001
7.443881e+002, 1.106245e-001
7.463166e+002, 1.107716e-001
7.482451e+002, 1.110578e-001
7.501735e+002, 1.113990e-001
7.521020e+002, 1.116590e-001
7.540305e+002, 1.124260e-001
7.559589e+002, 1.140879e-001
7.578874e+002, 1.156719e-001
7.598159e+002, 1.164958e-001
7.617443e+002, 1.178381e-001
7.636728e+002, 1.196960e-001
7.656013e+002, 1.212289e-001
7.675297e+002, 1.227612e-001
7.694582e+002, 1.239858e-001
7.713867e+002, 1.251581e-001
7.733151e+002, 1.261860e-001
7.752436e+002, 1.263236e-001
7.771721e+002, 1.262606e-001
7.791005e+002, 1.267588e-001
7.810290e+002, 1.269406e-001
7.829575e+002, 1.262928e-001
7.848859e+002, 1.256177e-001
7.868144e+002, 1.255140e-001
7.887429e+002, 1.250126e-001
7.906713e+002, 1.238890e-001
7.925998e+002, 1.228734e-001
7.945283e+002, 1.223872e-001
7.964567e+002, 1.222330e-001
7.983852e+002, 1.219324e-001
8.003137e+002, 1.217513e-001
8.022421e+002, 1.224055e-001
8.041706e+002, 1.238684e-001
8.060991e+002, 1.255348e-001
8.080275e+002, 1.276583e-001
8.099560e+002, 1.307780e-001
8.118845e+002, 1.346107e-001
8.138129e+002, 1.384479e-001
8.157414e+002, 1.428354e-001
8.176699e+002, 1.484401e-001
8.195983e+002, 1.550082e-001
8.215268e+002, 1.618256e-001
8.234553e+002, 1.688007e-001
8.253837e+002, 1.758669e-001
8.273122e+002, 1.840141e-001
8.292407e+002, 1.933361e-001
8.311691e+002, 2.027169e-001
8.330976e+002, 2.126788e-001
8.350261e+002, 2.233896e-001
8.369545e+002, 2.334454e-001
8.388830e+002, 2.433553e-001
8.408115e+002, 2.541570e-001
8.427399e+002, 2.652936e-001
8.446684e+002, 2.756780e-001
8.465969e+002, 2.853353e-001
8.485253e+002, 2.945422e-001
8.504538e+002, 3.028285e-001
8.523823e+002, 3.096826e-001
8.543107e+002, 3.168050e-001
8.562392e+002, 3.237618e-001
8.581677e+002, 3.299593e-001
8.600961e+002, 3.360317e-001
8.620246e+002, 3.425320e-001
8.639531e+002, 3.490553e-001
8.658815e+002, 3.561251e-001
8.678100e+002, 3.629336e-001
8.697385e+002, 3.701769e-001
8.716669e+002, 3.771986e-001
8.735954e+002, 3.842826e-001
8.755239e+002, 3.927028e-001
8.774523e+002, 4.013697e-001
8.793808e+002, 4.083949e-001
8.813093e+002, 4.143416e-001
8.832377e+002, 4.213589e-001
8.851662e+002, 4.289879e-001
8.870947e+002, 4.355580e-001
8.890231e+002, 4.415766e-001
8.909516e+002, 4.462083e-001
8.928801e+002, 4.511166e-001
8.948085e+002, 4.581689e-001
8.967370e+002, 4.650423e-001
8.986655e+002, 4.708426e-001
9.005939e+002, 4.755698e-001
9.025224e+002, 4.799415e-001
9.044509e+002, 4.833875e-001
9.063793e+002, 4.851985e-001
9.083078e+002, 4.868798e-001
9.102363e+002, 4.881926e-001
9.121647e+002, 4.889678e-001
9.140932e+002, 4.881616e-001
9.160217e+002, 4.874329e-001
9.179501e+002, 4.871925e-001
9.198786e+002, 4.868643e-001
9.218071e+002, 4.854552e-001
9.237355e+002, 4.832747e-001
9.256640e+002, 4.811494e-001
9.275925e+002, 4.791782e-001
9.295209e+002, 4.766692e-001
9.314494e+002, 4.730718e-001
9.333779e+002, 4.697553e-001
9.353063e+002, 4.664136e-001
9.372348e+002, 4.621908e-001
9.391633e+002, 4.567024e-001
9.410917e+002, 4.505816e-001
9.430202e+002, 4.440498e-001
9.449487e+002, 4.376312e-001
9.468771e+002, 4.314641e-001
9.488056e+002, 4.254645e-001
9.507341e+002, 4.192193e-001
9.526625e+002, 4.129472e-001
9.545910e+002, 4.063518e-001
9.565195e+002, 3.995980e-001
9.584479e+002, 3.933774e-001
9.603764e+002, 3.859738e-001
9.623049e+002, 3.784481e-001
9.642333e+002, 3.711584e-001
9.661618e+002, 3.640242e-001
9.680903e+002, 3.567005e-001
9.700187e+002, 3.489518e-001
9.719472e+002, 3.407624e-001
9.738757e+002, 3.324331e-001
9.758041e+002, 3.238959e-001
9.777326e+002, 3.153661e-001
9.796611e+002, 3.070364e-001
9.815895e+002, 2.990620e-001
9.835180e+002, 2.909602e-001
9.854465e+002, 2.828137e-001
9.873749e+002, 2.741087e-001
9.893034e+002, 2.660549e-001
9.912319e+002, 2.588380e-001
9.931603e+002, 2.518493e-001
9.950888e+002, 2.448898e-001
9.970173e+002, 2.392214e-001
9.989457e+002, 2.337125e-001
1.000874e+003, 2.277495e-001
1.002803e+003, 2.230069e-001
1.004731e+003, 2.201334e-001
1.006660e+003, 2.169194e-001
1.008588e+003, 2.136607e-001
1.010517e+003, 2.114688e-001
1.012445e+003, 2.104222e-001
1.014373e+003, 2.093790e-001
1.016302e+003, 2.077100e-001
1.018230e+003, 2.059629e-001
1.020159e+003, 2.053042e-001
1.022087e+003, 2.039433e-001
1.024016e+003, 2.022306e-001
1.025944e+003, 2.016893e-001
1.027873e+003, 2.018035e-001
1.029801e+003, 2.011594e-001
1.031730e+003, 1.996810e-001
1.033658e+003, 1.984428e-001
1.035587e+003, 1.979304e-001
1.037515e+003, 1.969748e-001
1.039443e+003, 1.953439e-001
1.041372e+003, 1.934281e-001
1.043300e+003, 1.907908e-001
1.045229e+003, 1.881429e-001
1.047157e+003, 1.854554e-001
1.049086e+003, 1.822371e-001
1.051014e+003, 1.784638e-001
1.052943e+003, 1.736542e-001
1.054871e+003, 1.690821e-001
1.056800e+003, 1.641211e-001
1.058728e+003, 1.594849e-001
1.060657e+003, 1.549325e-001
1.062585e+003, 1.498490e-001
1.064514e+003, 1.446052e-001
1.066442e+003, 1.399122e-001
1.068370e+003, 1.345087e-001
1.070299e+003, 1.287873e-001
1.072227e+003, 1.239244e-001
1.074156e+003, 1.199838e-001
1.076084e+003, 1.157160e-001
1.078013e+003, 1.113525e-001
1.079941e+003, 1.073370e-001
1.081870e+003, 1.038302e-001
1.083798e+003, 1.007361e-001
1.085727e+003, 9.776692e-002
1.087655e+003, 9.518992e-002
1.089584e+003, 9.280569e-002
1.091512e+003, 9.101091e-002
1.093441e+003, 8.931045e-002
1.095369e+003, 8.825959e-002
1.097297e+003, 8.781916e-002
1.099226e+003, 8.670545e-002
1.101154e+003, 8.455130e-002
1.103083e+003, 8.197096e-002
1.105011e+003, 7.945945e-002
1.106940e+003, 7.618734e-002
1.108868e+003, 7.200728e-002
1.110797e+003, 6.741506e-002
1.112725e+003, 6.251176e-002
1.114654e+003, 5.739054e-002
1.116582e+003, 5.238211e-002
1.118511e+003, 4.807452e-002
1.120439e+003, 4.393169e-002
1.122368e+003, 3.988467e-002
1.124296e+003, 3.610065e-002
1.126224e+003, 3.292787e-002
1.128153e+003, 3.004281e-002
1.130081e+003, 2.736402e-002
1.132010e+003, 2.505486e-002
1.133938e+003, 2.323380e-002
1.135867e+003, 2.231591e-002
1.137795e+003, 2.133178e-002
1.139724e+003, 1.968857e-002
1.141652e+003, 1.842800e-002
1.143581e+003, 1.815334e-002
1.145509e+003, 1.762582e-002
1.147438e+003, 1.691370e-002
1.149366e+003, 1.605075e-002
1.151295e+003, 1.557697e-002
1.153223e+003, 1.535477e-002
1.155151e+003, 1.503906e-002
1.157080e+003, 1.443031e-002
1.159008e+003, 1.408837e-002
1.160937e+003, 1.367879e-002
1.162865e+003, 1.300671e-002
1.164794e+003, 1.247741e-002
1.166722e+003, 1.208841e-002
1.168651e+003, 1.184474e-002
1.170579e+003, 1.161042e-002
1.172508e+003, 1.116281e-002
1.174436e+003, 1.099934e-002
1.176365e+003, 1.064615e-002
1.178293e+003, 9.908498e-003
1.180222e+003, 9.430683e-003
1.182150e+003, 9.525336e-003
1.184078e+003, 9.611463e-003
1.186007e+003, 9.384659e-003
1.187935e+003, 8.816414e-003
1.189864e+003, 8.278061e-003
1.191792e+003, 8.139501e-003
1.193721e+003, 8.219615e-003
1.195649e+003, 7.996922e-003
1.197578e+003, 7.579753e-003
1.199506e+003, 7.603614e-003
1.201435e+003, 7.774287e-003
1.203363e+003, 7.265640e-003
1.205292e+003, 7.043718e-003
1.207220e+003, 7.163774e-003
1.209149e+003, 7.250280e-003
1.211077e+003, 6.812336e-003
1.213005e+003, 6.535484e-003
1.214934e+003, 6.701511e-003
1.216862e+003, 6.649471e-003
1.218791e+003, 6.175219e-003
1.220719e+003, 5.807250e-003
1.222648e+003, 6.018711e-003
1.224576e+003, 6.328028e-003
1.226505e+003, 5.931911e-003
1.228433e+003, 5.570813e-003
1.230362e+003, 5.823858e-003
1.232290e+003, 6.091038e-003
1.234219e+003, 5.780642e-003
1.236147e+003, 5.431950e-003
1.238076e+003, 5.594768e-003
1.240004e+003, 5.728086e-003
1.241932e+003, 5.463983e-003
1.243861e+003, 5.321316e-003
1.245789e+003, 5.704208e-003
1.247718e+003, 5.974144e-003
1.249646e+003, 5.800835e-003
1.251575e+003, 5.748888e-003
1.253503e+003, 5.753045e-003
1.255432e+003, 5.543418e-003
1.257360e+003, 5.264469e-003
1.259289e+003, 5.640036e-003
1.261217e+003, 6.031722e-003
1.263146e+003, 5.969139e-003
1.265074e+003, 5.863342e-003
1.267003e+003, 5.652020e-003
1.268931e+003, 5.792196e-003
1.270859e+003, 6.136422e-003
1.272788e+003, 5.972713e-003
1.274716e+003, 5.883401e-003
1.276645e+003, 6.205038e-003
1.278573e+003, 6.646545e-003
1.280502e+003, 6.572673e-003
1.282430e+003, 6.239517e-003
1.284359e+003, 6.229061e-003
1.286287e+003, 6.315996e-003
1.288216e+003, 6.094169e-003
1.290144e+003, 5.767951e-003
1.292073e+003, 5.892118e-003
1.294001e+003, 6.011973e-003
1.295930e+003, 5.878725e-003
1.297858e+003, 5.765986e-003
1.299786e+003, 5.991623e-003
1.301715e+003, 6.010103e-003
1.303643e+003, 5.494279e-003
1.305572e+003, 5.117012e-003
1.307500e+003, 5.835392e-003
1.309429e+003, 6.034054e-003
1.311357e+003, 5.512530e-003
1.313286e+003, 5.431978e-003
1.315214e+003, 5.841069e-003
1.317143e+003, 5.971162e-003
1.319071e+003, 5.798460e-003
1.321000e+003, 5.624489e-003
1.322928e+003, 5.875904e-003
1.324857e+003, 6.138601e-003
1.326785e+003, 5.858748e-003
1.328714e+003, 5.471700e-003
1.330642e+003, 5.817122e-003
1.332570e+003, 6.040655e-003
1.334499e+003, 5.949633e-003
1.336427e+003, 5.971205e-003
1.338356e+003, 5.856265e-003
1.340284e+003, 6.010423e-003
1.342213e+003, 6.282582e-003
1.344141e+003, 6.341719e-003
1.346070e+003, 6.420752e-003
1.347998e+003, 6.709590e-003
1.349927e+003, 6.633186e-003
1.351855e+003, 6.446989e-003
1.353784e+003, 6.737842e-003
1.355712e+003, 7.088051e-003
1.357641e+003, 7.359709e-003
1.359569e+003, 7.215005e-003
1.361497e+003, 6.941810e-003
1.363426e+003, 7.377075e-003
1.365354e+003, 7.725660e-003
1.367283e+003, 7.648914e-003
1.369211e+003, 8.005435e-003
1.371140e+003, 8.323556e-003
1.373068e+003, 8.013736e-003
1.374997e+003, 8.111855e-003
1.376925e+003, 8.738543e-003
1.378854e+003, 8.856676e-003
1.380782e+003, 8.882759e-003
1.382711e+003, 8.941387e-003
1.384639e+003, 9.049049e-003
1.386568e+003, 9.127510e-003
1.388496e+003, 9.085650e-003
1.390424e+003, 9.240465e-003
1.392353e+003, 9.590337e-003
1.394281e+003, 9.844642e-003
1.396210e+003, 9.744996e-003
1.398138e+003, 9.833219e-003
1.400067e+003, 9.764421e-003
1.401995e+003, 1.021988e-002
1.403924e+003, 1.054931e-002
1.405852e+003, 1.050764e-002
1.407781e+003, 1.057444e-002
1.409709e+003, 1.089126e-002
1.411638e+003, 1.088602e-002
1.413566e+003, 1.059174e-002
1.415495e+003, 1.076639e-002
1.417423e+003, 1.081696e-002
1.419351e+003, 1.061844e-002
1.421280e+003, 1.066410e-002
1.423208e+003, 1.100035e-002
1.425137e+003, 1.085271e-002
1.427065e+003, 1.069794e-002
1.428994e+003, 1.063330e-002
1.430922e+003, 1.091172e-002
1.432851e+003, 1.101945e-002
1.434779e+003, 1.065144e-002
1.436708e+003, 1.025603e-002
1.438636e+003, 1.040825e-002
1.440565e+003, 1.050957e-002
1.442493e+003, 1.013890e-002
1.444422e+003, 9.928898e-003
1.446350e+003, 1.001091e-002
1.448278e+003, 1.038536e-002
1.450207e+003, 1.057611e-002
1.452135e+003, 1.043151e-002
1.454064e+003, 1.048137e-002
1.455992e+003, 1.057861e-002
1.457921e+003, 1.058000e-002
1.459849e+003, 1.051132e-002
1.461778e+003, 1.044021e-002
1.463706e+003, 1.052291e-002
1.465635e+003, 1.070506e-002
1.467563e+003, 1.056770e-002
1.469492e+003, 1.006541e-002
1.471420e+003, 9.635195e-003
1.473349e+003, 9.593953e-003
1.475277e+003, 9.742387e-003
1.477205e+003, 9.467448e-003
1.479134e+003, 9.591131e-003
1.481062e+003, 9.790009e-003
1.482991e+003, 9.618883e-003
1.484919e+003, 9.604375e-003
1.486848e+003, 9.790838e-003
1.488776e+003, 9.752554e-003
1.490705e+003, 9.874258e-003
1.492633e+003, 1.006834e-002
1.494562e+003, 1.021948e-002
1.496490e+003, 1.036903e-002
1.498419e+003, 1.062302e-002
1.500347e+003, 1.061557e-002
1.502276e+003, 1.068143e-002
1.504204e+003, 1.080382e-002
1.506132e+003, 1.092575e-002
1.508061e+003, 1.061398e-002
1.509989e+003, 1.018836e-002
1.511918e+003, 1.012719e-002
1.513846e+003, 1.042752e-002
1.515775e+003, 1.089178e-002
1.517703e+003, 1.094726e-002
1.519632e+003, 1.087179e-002
1.521560e+003, 1.093100e-002
1.523489e+003, 1.079881e-002
1.525417e+003, 1.107233e-002
1.527346e+003, 1.111576e-002
1.529274e+003, 1.112274e-002
1.531203e+003, 1.113248e-002
1.533131e+003, 1.112186e-002
1.535059e+003, 1.099230e-002
1.536988e+003, 1.084356e-002
1.538916e+003, 1.143641e-002
1.540845e+003, 1.201453e-002
1.542773e+003, 1.215402e-002
1.544702e+003, 1.216170e-002
1.546630e+003, 1.218560e-002
1.548559e+003, 1.199512e-002
1.550487e+003, 1.179112e-002
1.552416e+003, 1.178511e-002
1.554344e+003, 1.187596e-002
1.556273e+003, 1.230899e-002
1.558201e+003, 1.258845e-002
1.560130e+003, 1.255948e-002
1.562058e+003, 1.222879e-002
1.563986e+003, 1.216401e-002
1.565915e+003, 1.243905e-002
1.567843e+003, 1.269757e-002
1.569772e+003, 1.285152e-002
1.571700e+003, 1.245785e-002
1.573629e+003, 1.187309e-002
1.575557e+003, 1.162783e-002
1.577486e+003, 1.152501e-002
1.579414e+003, 1.171038e-002
1.581343e+003, 1.205729e-002
1.583271e+003, 1.240859e-002
1.585200e+003, 1.246648e-002
1.587128e+003, 1.219330e-002
1.589057e+003, 1.193174e-002
1.590985e+003, 1.212555e-002
1.592913e+003, 1.251549e-002
1.594842e+003, 1.249480e-002
1.596770e+003, 1.230098e-002
1.598699e+003, 1.226435e-002
1.600627e+003, 1.265527e-002
1.602556e+003, 1.285937e-002
1.604484e+003, 1.259806e-002
1.606413e+003, 1.258930e-002
1.608341e+003, 1.255965e-002
1.610270e+003, 1.235485e-002
1.612198e+003, 1.195894e-002
1.614127e+003, 1.179667e-002
1.616055e+003, 1.214302e-002
1.617984e+003, 1.243935e-002
1.619912e+003, 1.244850e-002
1.621840e+003, 1.229137e-002
1.623769e+003, 1.214942e-002
1.625697e+003, 1.229577e-002
1.627626e+003, 1.248510e-002
1.629554e+003, 1.231895e-002
1.631483e+003, 1.143606e-002
1.633411e+003, 1.132550e-002
1.635340e+003, 1.206302e-002
1.637268e+003, 1.217901e-002
1.639197e+003, 1.200088e-002
1.641125e+003, 1.206140e-002
1.643054e+003, 1.230783e-002
1.644982e+003, 1.216681e-002
1.646911e+003, 1.152180e-002
1.648839e+003, 1.132456e-002
1.650767e+003, 1.161693e-002
1.652696e+003, 1.169617e-002
1.654624e+003, 1.195528e-002
1.656553e+003, 1.222241e-002
1.658481e+003, 1.231131e-002
1.660410e+003, 1.184880e-002
1.662338e+003, 1.079870e-002
1.664267e+003, 1.067209e-002
1.666195e+003, 1.133889e-002
1.668124e+003, 1.104542e-002
1.670052e+003, 1.047409e-002
1.671981e+003, 1.048793e-002
1.673909e+003, 1.094098e-002
1.675838e+003, 1.070870e-002
1.677766e+003, 1.042745e-002
1.679694e+003, 1.026669e-002
1.681623e+003, 9.876192e-003
1.683551e+003, 9.605143e-003
1.685480e+003, 9.314890e-003
1.687408e+003, 9.472849e-003
1.689337e+003, 1.006891e-002
1.691265e+003, 9.897435e-003
1.693194e+003, 9.372749e-003
1.695122e+003, 9.063563e-003
1.697051e+003, 8.775583e-003
1.698979e+003, 8.480667e-003
1.700908e+003, 8.752469e-003
1.702836e+003, 9.367554e-003
1.704765e+003, 9.284007e-003
1.706693e+003, 9.000750e-003
1.708621e+003, 8.782253e-003
1.710550e+003, 8.352001e-003
1.712478e+003, 8.395962e-003
1.714407e+003, 9.285844e-003
1.716335e+003, 9.563348e-003
1.718264e+003, 9.003686e-003
1.720192e+003, 8.704066e-003
1.722121e+003, 9.122487e-003
1.724049e+003, 9.425359e-003
1.725978e+003, 9.500188e-003
1.727906e+003, 9.282907e-003
1.729835e+003, 9.302784e-003
1.731763e+003, 8.925121e-003
1.733692e+003, 8.411490e-003
1.735620e+003, 8.256347e-003
1.737548e+003, 8.034769e-003
1.739477e+003, 7.448112e-003
1.741405e+003, 7.023944e-003
1.743334e+003, 6.773077e-003
1.745262e+003, 7.471481e-003
1.747191e+003, 7.726616e-003
1.749119e+003, 7.296158e-003
1.751048e+003, 7.198299e-003
1.752976e+003, 7.326966e-003
1.754905e+003, 7.752506e-003
1.756833e+003, 8.096411e-003
1.758762e+003, 7.912967e-003
1.760690e+003, 7.477494e-003
1.762619e+003, 7.517532e-003
1.764547e+003, 7.883231e-003
1.766475e+003, 8.107249e-003
1.768404e+003, 8.193619e-003
1.770332e+003, 8.076934e-003
1.772261e+003, 7.762503e-003
1.774189e+003, 7.558570e-003
1.776118e+003, 7.643693e-003
1.778046e+003, 7.588329e-003
1.779975e+003, 7.269048e-003
1.781903e+003, 7.009249e-003
1.783832e+003, 7.810258e-003
1.785760e+003, 8.317037e-003
1.787689e+003, 8.583928e-003
1.789617e+003, 8.659565e-003
1.791546e+003, 8.321662e-003
1.793474e+003, 7.870425e-003
1.795402e+003, 7.359375e-003
1.797331e+003, 7.787253e-003
1.799259e+003, 8.451802e-003
1.801188e+003, 8.309326e-003
1.803116e+003, 7.830845e-003
1.805045e+003, 7.656866e-003
1.806973e+003, 7.742681e-003
1.808902e+003, 7.803667e-003
1.810830e+003, 7.794050e-003
1.812759e+003, 7.598067e-003
1.814687e+003, 6.840349e-003
1.816616e+003, 6.442985e-003
1.818544e+003, 6.629604e-003
1.820473e+003, 7.260551e-003
1.822401e+003, 7.677625e-003
1.824329e+003, 7.240552e-003
1.826258e+003, 6.932430e-003
1.828186e+003, 7.209768e-003
1.830115e+003, 8.269229e-003
1.832043e+003, 8.376826e-003
1.833972e+003, 7.913724e-003
1.835900e+003, 7.323063e-003
1.837829e+003, 6.232668e-003
1.839757e+003, 5.936814e-003
1.841686e+003, 6.344586e-003
1.843614e+003, 7.734489e-003
1.845543e+003, 7.458977e-003
1.847471e+003, 6.715429e-003
1.849400e+003, 6.468015e-003
1.851328e+003, 5.934169e-003
1.853256e+003, 6.332829e-003
1.855185e+003, 6.689418e-003
1.857113e+003, 6.149429e-003
1.859042e+003, 6.499627e-003
1.860970e+003, 6.754425e-003
1.862899e+003, 6.616286e-003
1.864827e+003, 6.499860e-003
1.866756e+003, 6.782160e-003
1.868684e+003, 6.995859e-003
1.870613e+003, 6.585507e-003
1.872541e+003, 7.384751e-003
1.874470e+003, 8.060185e-003
1.876398e+003, 7.434531e-003
1.878327e+003, 7.187844e-003
1.880255e+003, 7.110316e-003
1.882183e+003, 6.728918e-003
1.884112e+003, 6.310294e-003
1.886040e+003, 5.282334e-003
1.887969e+003, 5.025167e-003
1.889897e+003, 5.978946e-003
1.891826e+003, 7.282569e-003
1.893754e+003, 6.555270e-003
1.895683e+003, 6.396016e-003
1.897611e+003, 7.743929e-003
1.899540e+003, 7.624867e-003
1.901468e+003, 6.504179e-003
1.903397e+003, 7.109211e-003
1.905325e+003, 7.228109e-003
1.907254e+003, 6.045950e-003
1.909182e+003, 6.541340e-003
1.911110e+003, 7.698157e-003
1.913039e+003, 6.601259e-003
1.914967e+003, 5.079090e-003
1.916896e+003, 4.662995e-003
1.918824e+003, 4.533816e-003
1.920753e+003, 5.238968e-003
1.922681e+003, 7.330327e-003
1.924610e+003, 8.375490e-003
1.926538e+003, 7.507714e-003
1.928467e+003, 7.151096e-003
1.930395e+003, 7.443818e-003
1.932324e+003, 5.909521e-003
1.934252e+003, 4.852754e-003
1.936181e+003, 4.359412e-003
1.938109e+003, 4.856423e-003
1.940037e+003, 4.793825e-003
1.941966e+003, 2.725944e-003
1.943894e+003, 3.819390e-003
1.945823e+003, 4.342238e-003
1.947751e+003, 2.906112e-003
1.949680e+003, 3.878650e-003
1.951608e+003, 5.972797e-003
1.953537e+003, 5.425838e-003
1.955465e+003, 2.221592e-003
1.957394e+003, 1.799397e-003
1.959322e+003, 1.719982e-003
1.961251e+003, 7.051074e-005
1.963179e+003, 6.606237e-004
1.965108e+003, 5.518720e-004
1.967036e+003, 7.173658e-004
1.968964e+003, 1.171987e-003
1.970893e+003, -1.864869e-004
1.972821e+003, 2.236460e-003
1.974750e+003, 2.799599e-003
1.976678e+003, 8.283261e-004
1.978607e+003, 4.006275e-003
1.980535e+003, 7.060153e-003
1.982464e+003, 6.486466e-003
1.984392e+003, 8.409412e-003
1.986321e+003, 7.581853e-003
1.988249e+003, 4.007068e-003
1.990178e+003, 3.945966e-003
1.992106e+003, 7.088756e-003
1.994035e+003, 7.701884e-003
1.995963e+003, 5.810815e-003
1.997891e+003, 5.958258e-003
1.999820e+003, 4.946278e-003
2.001748e+003, 3.821603e-003
2.003677e+003, 4.026021e-003
2.005605e+003, 4.698841e-003
2.007534e+003, 3.775326e-003
2.009462e+003, 2.077286e-003
2.011391e+003, 1.977142e-003
2.013319e+003, 2.671385e-003
2.015248e+003, 6.864704e-003
2.017176e+003, 8.688063e-003
2.019105e+003, 5.740599e-003
2.021033e+003, 1.653516e-003
2.022962e+003, 1.227754e-003
2.024890e+003, 4.480378e-003
2.026818e+003, 7.146263e-003
2.028747e+003, 6.246582e-003
2.030675e+003, 4.389917e-003
2.032604e+003, 7.971585e-004
2.034532e+003, 2.340280e-003
2.036461e+003, 4.677515e-003
2.038389e+003, 5.206613e-003
2.040318e+003, 6.979674e-003
2.042246e+003, 7.682282e-003
2.044175e+003, 9.185249e-003
2.046103e+003, 8.804984e-003
2.048031e+003, 6.806982e-003
2.049960e+003, 6.329685e-003
2.051888e+003, 6.375353e-003
2.053817e+003, 7.202831e-003
2.055745e+003, 6.857400e-003
2.057674e+003, 7.093473e-003
2.059602e+003, 1.015582e-002
2.061531e+003, 9.186286e-003
2.063459e+003, 5.131324e-003
2.065388e+003, 6.203927e-003
2.067316e+003, 9.727583e-003
2.069245e+003, 8.181110e-003
2.071173e+003, 8.224747e-003
2.073102e+003, 8.832926e-003
2.075030e+003, 9.565818e-003
2.076958e+003, 1.031150e-002
2.078887e+003, 9.393842e-003
2.080815e+003, 8.424824e-003
2.082744e+003, 9.937687e-003
2.084672e+003, 1.157604e-002
2.086601e+003, 9.760877e-003
2.088529e+003, 6.373437e-003
2.090458e+003, 5.396537e-003
2.092386e+003, 6.809172e-003
2.094315e+003, 7.184744e-003
2.096243e+003, 9.224065e-003
2.098172e+003, 1.197926e-002
2.100100e+003, 1.047848e-002
2.102029e+003, 8.904411e-003
2.103957e+003, 7.290972e-003
2.105885e+003, 8.105252e-003
2.107814e+003, 9.849803e-003
2.109742e+003, 9.557639e-003
2.111671e+003, 9.875748e-003
2.113599e+003, 1.060017e-002
2.115528e+003, 9.620680e-003
2.117456e+003, 1.042783e-002
2.119385e+003, 1.017067e-002
2.121313e+003, 7.976234e-003
2.123242e+003, 8.739411e-003
2.125170e+003, 9.479541e-003
2.127099e+003, 7.093142e-003
2.129027e+003, 6.327037e-003
2.130956e+003, 4.993938e-003
2.132884e+003, 3.129578e-003
2.134813e+003, 3.525689e-003
2.136741e+003, 5.120825e-003
2.138669e+003, 5.661153e-003
2.140598e+003, 4.749944e-003
2.142526e+003, 6.842033e-003
2.144455e+003, 7.107844e-003
2.146383e+003, 6.520194e-003
2.148312e+003, 5.627522e-003
2.150240e+003, 4.670589e-003
2.152169e+003, 4.196376e-003
2.154097e+003, 3.991813e-003
2.156026e+003, 3.581877e-003
2.157954e+003, 4.547514e-003
2.159883e+003, 1.118174e-002
2.161811e+003, 1.437101e-002
2.163740e+003, 1.362644e-002
2.165668e+003, 1.200145e-002
2.167596e+003, 1.157127e-002
2.169525e+003, 9.000602e-003
2.171453e+003, 5.676054e-003
2.173382e+003, 3.871928e-003
2.175310e+003, 4.371467e-003
2.177239e+003, 8.427700e-003
2.179167e+003, 8.435602e-003
2.181096e+003, 6.437172e-003
2.183024e+003, 9.285645e-003
2.184953e+003, 9.652150e-003
2.186881e+003, 1.022236e-002
2.188810e+003, 1.046211e-002
2.190738e+003, 9.930730e-003
2.192667e+003, 1.137573e-002
2.194595e+003, 1.105868e-002
2.196523e+003, 8.771584e-003
2.198452e+003, 8.310218e-003
2.200380e+003, 9.431037e-003
2.202309e+003, 1.087316e-002
2.204237e+003, 1.105326e-002
2.206166e+003, 1.035662e-002
2.208094e+003, 9.666650e-003
2.210023e+003, 9.407363e-003
2.211951e+003, 7.958625e-003
2.213880e+003, 9.675010e-003
2.215808e+003, 1.261199e-002
2.217737e+003, 1.194510e-002
2.219665e+003, 9.246931e-003
2.221594e+003, 8.267834e-003
2.223522e+003, 9.988444e-003
2.225450e+003, 1.384930e-002
2.227379e+003, 1.647522e-002
2.229307e+003, 1.386798e-002
2.231236e+003, 1.261801e-002
2.233164e+003, 1.332040e-002
2.235093e+003, 1.277143e-002
2.237021e+003, 1.211651e-002
2.238950e+003, 1.286285e-002
2.240878e+003, 1.387918e-002
2.242807e+003, 1.365574e-002
2.244735e+003, 1.339892e-002
2.246664e+003, 1.469837e-002
2.248592e+003, 1.475425e-002
2.250521e+003, 1.572472e-002
2.252449e+003, 1.625771e-002
2.254377e+003, 1.575843e-002
2.256306e+003, 1.469261e-002
2.258234e+003, 1.283141e-002
2.260163e+003, 1.239307e-002
2.262091e+003, 1.348732e-002
2.264020e+003, 1.400333e-002
2.265948e+003, 1.638973e-002
2.267877e+003, 1.621581e-002
2.269805e+003, 1.520226e-002
2.271734e+003, 1.600069e-002
2.273662e+003, 1.627418e-002
2.275591e+003, 1.496799e-002
2.277519e+003, 1.675744e-002
2.279448e+003, 1.755433e-002
2.281376e+003, 1.700642e-002
2.283304e+003, 1.663782e-002
2.285233e+003, 1.754123e-002
2.287161e+003, 1.971312e-002
2.289090e+003, 1.955259e-002
2.291018e+003, 1.734615e-002
2.292947e+003, 1.593292e-002
2.294875e+003, 1.622243e-002
2.296804e+003, 1.610209e-002
2.298732e+003, 1.608852e-002
2.300661e+003, 1.586894e-002
2.302589e+003, 1.611396e-002
2.304518e+003, 1.604428e-002
2.306446e+003, 1.625536e-002
2.308375e+003, 1.692223e-002
2.310303e+003, 1.493871e-002
2.312231e+003, 1.498447e-002
2.314160e+003, 1.624668e-002
2.316088e+003, 1.703389e-002
2.318017e+003, 1.742177e-002
2.319945e+003, 1.765262e-002
2.321874e+003, 1.895698e-002
2.323802e+003, 2.003396e-002
2.325731e+003, 1.858659e-002
2.327659e+003, 1.676308e-002
2.329588e+003, 1.588450e-002
2.331516e+003, 1.564036e-002
2.333445e+003, 1.601911e-002
2.335373e+003, 1.601325e-002
2.337302e+003, 1.556364e-002
2.339230e+003, 1.549149e-002
2.341158e+003, 1.585269e-002
2.343087e+003, 1.703009e-002
2.345015e+003, 1.663460e-002
2.346944e+003, 1.601612e-002
2.348872e+003, 1.618567e-002
2.350801e+003, 1.615267e-002
2.352729e+003, 1.563906e-002
2.354658e+003, 1.529956e-002
2.356586e+003, 1.588570e-002
2.358515e+003, 1.635859e-002
2.360443e+003, 1.478816e-002
2.362372e+003, 1.403753e-002
2.364300e+003, 1.501270e-002
2.366229e+003, 1.588596e-002
2.368157e+003, 1.555113e-002
2.370085e+003, 1.554258e-002
2.372014e+003, 1.589184e-002
2.373942e+003, 1.584190e-002
2.375871e+003, 1.595853e-002
2.377799e+003, 1.599765e-002
2.379728e+003, 1.580140e-002
2.381656e+003, 1.640100e-002
2.383585e+003, 1.683065e-002
2.385513e+003, 1.655991e-002
2.387442e+003, 1.623310e-002
2.389370e+003, 1.631047e-002
2.391299e+003, 1.599063e-002
2.393227e+003, 1.620083e-002
2.395156e+003, 1.652468e-002
2.397084e+003, 1.715945e-002
2.399012e+003, 1.775655e-002
2.400941e+003, 1.737479e-002
2.402869e+003, 1.679107e-002
2.404798e+003, 1.590378e-002
2.406726e+003, 1.612546e-002
2.408655e+003, 1.645898e-002
2.410583e+003, 1.713633e-002
2.412512e+003, 1.721415e-002
2.414440e+003, 1.624230e-002
2.416369e+003, 1.577035e-002
2.418297e+003, 1.570038e-002
2.420226e+003, 1.622193e-002
2.422154e+003, 1.635198e-002
2.424083e+003, 1.643516e-002
2.426011e+003, 1.725956e-002
2.427939e+003, 1.714891e-002
2.429868e+003, 1.729723e-002
2.431796e+003, 1.699133e-002
2.433725e+003, 1.743216e-002
2.435653e+003, 1.709266e-002
2.437582e+003, 1.596348e-002
2.439510e+003, 1.686675e-002
2.441439e+003, 1.726300e-002
2.443367e+003, 1.770190e-002
2.445296e+003, 1.954030e-002
2.447224e+003, 1.924471e-002
2.449153e+003, 1.864543e-002
2.451081e+003, 1.939860e-002
2.453010e+003, 1.885579e-002
2.454938e+003, 1.835617e-002
2.456866e+003, 1.775798e-002
2.458795e+003, 1.694470e-002
2.460723e+003, 1.699842e-002
2.462652e+003, 1.712251e-002
2.464580e+003, 1.650894e-002
2.466509e+003, 1.733062e-002
2.468437e+003, 1.792628e-002
2.470366e+003, 1.713954e-002
2.472294e+003, 1.727188e-002
2.474223e+003, 1.773982e-002
2.476151e+003, 1.756074e-002
2.478080e+003, 1.690209e-002
2.480008e+003, 1.760296e-002
2.481937e+003, 1.654261e-002
2.483865e+003, 1.765284e-002
2.485793e+003, 1.760484e-002
2.487722e+003, 1.664755e-002
2.489650e+003, 1.845552e-002
2.491579e+003, 2.014453e-002
2.493507e+003, 1.807684e-002
2.495436e+003, 1.663821e-002
2.497364e+003, 1.748360e-002
2.499293e+003, 1.843409e-002
2.501221e+003, 1.776919e-002
2.503150e+003, 1.815551e-002
2.505078e+003, 1.805919e-002
2.507007e+003, 1.810156e-002
2.508935e+003, 1.843453e-002
2.510864e+003, 1.812873e-002
2.512792e+003, 1.754583e-002
2.514720e+003, 1.756853e-002
2.516649e+003, 1.811242e-002
2.518577e+003, 1.860910e-002
2.520506e+003, 1.822153e-002
2.522434e+003, 1.798404e-002
2.524363e+003, 1.825128e-002
2.526291e+003, 1.839137e-002
2.528220e+003, 1.736927e-002
2.530148e+003, 1.652552e-002
2.532077e+003, 1.755491e-002
2.534005e+003, 1.833030e-002
2.535934e+003, 1.880554e-002
2.537862e+003, 1.798428e-002
2.539791e+003, 1.830216e-002
2.541719e+003, 1.906315e-002
2.543647e+003, 1.928403e-002
2.545576e+003, 1.890870e-002
2.547504e+003, 1.892475e-002
2.549433e+003, 2.017458e-002
2.551361e+003, 1.971721e-002
2.553290e+003, 1.785337e-002
2.555218e+003, 1.818361e-002
2.557147e+003, 2.009697e-002
2.559075e+003, 2.105494e-002
2.561004e+003, 2.012244e-002
2.562932e+003, 1.902199e-002
2.564861e+003, 1.955884e-002
2.566789e+003, 2.129818e-002
2.568718e+003, 2.091068e-002
2.570646e+003, 1.982212e-002
2.572574e+003, 2.013837e-002
2.574503e+003, 2.083253e-002
2.576431e+003, 1.962353e-002
2.578360e+003, 1.748289e-002
2.580288e+003, 1.822089e-002
2.582217e+003, 2.010818e-002
2.584145e+003, 2.053578e-002
2.586074e+003, 1.990235e-002
2.588002e+003, 1.957789e-002
2.589931e+003, 1.928575e-002
2.591859e+003, 1.883447e-002
2.593788e+003, 1.961168e-002
2.595716e+003, 2.133344e-002
2.597645e+003, 2.102637e-002
2.599573e+003, 2.009883e-002
2.601501e+003, 2.028758e-002
2.603430e+003, 2.048768e-002
2.605358e+003, 2.159569e-002
2.607287e+003, 2.098956e-002
2.609215e+003, 2.142703e-002
2.611144e+003, 2.173792e-002
2.613072e+003, 2.195901e-002
2.615001e+003, 2.192213e-002
2.616929e+003, 2.083022e-002
2.618858e+003, 1.937555e-002
2.620786e+003, 2.063373e-002
2.622715e+003, 2.244244e-002
2.624643e+003, 2.289062e-002
2.626572e+003, 2.201452e-002
2.628500e+003, 2.151705e-002
2.630428e+003, 2.076822e-002
2.632357e+003, 2.112110e-002
2.634285e+003, 2.109692e-002
2.636214e+003, 2.185341e-002
2.638142e+003, 2.209581e-002
2.640071e+003, 2.163308e-002
2.641999e+003, 2.184033e-002
2.643928e+003, 2.096384e-002
2.645856e+003, 2.107217e-002
2.647785e+003, 2.199725e-002
2.649713e+003, 2.227140e-002
2.651642e+003, 2.271308e-002
2.653570e+003, 2.204487e-002
2.655499e+003, 2.221839e-002
2.657427e+003, 2.228713e-002
2.659355e+003, 2.217746e-002
2.661284e+003, 2.262580e-002
2.663212e+003, 2.235265e-002
2.665141e+003, 2.134475e-002
2.667069e+003, 2.131348e-002
2.668998e+003, 2.154618e-002
2.670926e+003, 2.184731e-002
2.672855e+003, 2.220535e-002
2.674783e+003, 2.193576e-002
2.676712e+003, 2.095528e-002
2.678640e+003, 2.125869e-002
2.680569e+003, 2.193949e-002
2.682497e+003, 2.188572e-002
2.684426e+003, 2.200351e-002
2.686354e+003, 2.158165e-002
2.688282e+003, 2.131644e-002
2.690211e+003, 2.162925e-002
2.692139e+003, 2.204583e-002
2.694068e+003, 2.199858e-002
2.695996e+003, 2.253256e-002
2.697925e+003, 2.246201e-002
2.699853e+003, 2.182361e-002
2.701782e+003, 2.176560e-002
2.703710e+003, 2.195610e-002
2.705639e+003, 2.153112e-002
2.707567e+003, 2.127914e-002
2.709496e+003, 2.213901e-002
2.711424e+003, 2.179038e-002
2.713353e+003, 2.185121e-002
2.715281e+003, 2.205391e-002
2.717209e+003, 2.278098e-002
2.719138e+003, 2.343386e-002
2.721066e+003, 2.212892e-002
2.722995e+003, 2.162973e-002
2.724923e+003, 2.242277e-002
2.726852e+003, 2.276935e-002
2.728780e+003, 2.262186e-002
2.730709e+003, 2.188296e-002
2.732637e+003, 2.161346e-002
2.734566e+003, 2.146301e-002
2.736494e+003, 2.162356e-002
2.738423e+003, 2.219824e-002
2.740351e+003, 2.368309e-002
2.742280e+003, 2.418341e-002
2.744208e+003, 2.346109e-002
2.746136e+003, 2.342691e-002
2.748065e+003, 2.303717e-002
2.749993e+003, 2.306365e-002
2.751922e+003, 2.366189e-002
2.753850e+003, 2.442914e-002
2.755779e+003, 2.407558e-002
2.757707e+003, 2.319924e-002
2.759636e+003, 2.408464e-002
2.761564e+003, 2.503711e-002
2.763493e+003, 2.441730e-002
2.765421e+003, 2.434167e-002
2.767350e+003, 2.427069e-002
2.769278e+003, 2.467230e-002
2.771207e+003, 2.482117e-002
2.773135e+003, 2.374954e-002
2.775063e+003, 2.329050e-002
2.776992e+003, 2.397432e-002
2.778920e+003, 2.426037e-002
2.780849e+003, 2.440084e-002
2.782777e+003, 2.411728e-002
2.784706e+003, 2.466792e-002
2.786634e+003, 2.486133e-002
2.788563e+003, 2.442940e-002
2.790491e+003, 2.401767e-002
2.792420e+003, 2.324620e-002
2.794348e+003, 2.373481e-002
2.796277e+003, 2.368128e-002
2.798205e+003, 2.302475e-002
2.800134e+003, 2.355151e-002
2.802062e+003, 2.525393e-002
2.803990e+003, 2.517674e-002
2.805919e+003, 2.484264e-002
2.807847e+003, 2.499437e-002
2.809776e+003, 2.508698e-002
2.811704e+003, 2.553993e-002
2.813633e+003, 2.544597e-002
2.815561e+003, 2.553657e-002
2.817490e+003, 2.543434e-002
2.819418e+003, 2.538651e-002
2.821347e+003, 2.584040e-002
2.823275e+003, 2.563768e-002
2.825204e+003, 2.430689e-002
2.827132e+003, 2.462985e-002
2.829061e+003, 2.564991e-002
2.830989e+003, 2.547480e-002
2.832917e+003, 2.552262e-002
2.834846e+003, 2.528158e-002
2.836774e+003, 2.511650e-002
2.838703e+003, 2.706208e-002
2.840631e+003, 2.894432e-002
2.842560e+003, 2.799772e-002
2.844488e+003, 2.583060e-002
2.846417e+003, 2.627106e-002
2.848345e+003, 2.665862e-002
2.850274e+003, 2.863038e-002
2.852202e+003, 2.890781e-002
2.854131e+003, 2.791029e-002
2.856059e+003, 2.836100e-002
2.857988e+003, 2.825585e-002
2.859916e+003, 2.772159e-002
2.861844e+003, 2.705367e-002
2.863773e+003, 2.655794e-002
2.865701e+003, 2.794255e-002
2.867630e+003, 2.927671e-002
2.869558e+003, 2.988613e-002
2.871487e+003, 2.954482e-002
2.873415e+003, 2.703355e-002
2.875344e+003, 2.639616e-002
2.877272e+003, 2.815639e-002
2.879201e+003, 2.876211e-002
2.881129e+003, 2.794684e-002
2.883058e+003, 2.780847e-002
2.884986e+003, 2.789960e-002
2.886915e+003, 2.734639e-002
2.888843e+003, 2.788111e-002
2.890771e+003, 2.902453e-002
2.892700e+003, 3.018439e-002
2.894628e+003, 3.007003e-002
2.896557e+003, 2.973073e-002
2.898485e+003, 2.993600e-002
2.900414e+003, 3.048639e-002
2.902342e+003, 3.021467e-002
2.904271e+003, 3.040420e-002
2.906199e+003, 3.049985e-002
2.908128e+003, 2.978783e-002
2.910056e+003, 3.036470e-002
2.911985e+003, 3.077142e-002
2.913913e+003, 2.998471e-002
2.915842e+003, 3.054710e-002
2.917770e+003, 3.148076e-002
2.919698e+003, 3.188722e-002
2.921627e+003, 3.280551e-002
2.923555e+003, 3.308038e-002
2.925484e+003, 3.319413e-002
2.927412e+003, 3.271550e-002
2.929341e+003, 3.369587e-002
2.931269e+003, 3.348860e-002
2.933198e+003, 3.231902e-002
2.935126e+003, 3.161120e-002
2.937055e+003, 3.258234e-002
2.938983e+003, 3.266997e-002
2.940912e+003, 3.211061e-002
2.942840e+003, 3.132079e-002
2.944769e+003, 3.003078e-002
2.946697e+003, 3.123427e-002
2.948625e+003, 3.287739e-002
2.950554e+003, 3.253172e-002
2.952482e+003, 3.264741e-002
2.954411e+003, 3.302134e-002
2.956339e+003, 3.278049e-002
2.958268e+003, 3.345755e-002
2.960196e+003, 3.363572e-002
2.962125e+003, 3.313938e-002
2.964053e+003, 3.269154e-002
2.965982e+003, 3.284083e-002
2.967910e+003, 3.360597e-002
2.969839e+003, 3.347934e-002
2.971767e+003, 3.167276e-002
2.973696e+003, 3.048315e-002
2.975624e+003, 3.074522e-002
2.977552e+003, 3.132257e-002
2.979481e+003, 3.029989e-002
2.981409e+003, 3.053208e-002
2.983338e+003, 3.230910e-002
2.985266e+003, 3.247044e-002
2.987195e+003, 3.152541e-002
2.989123e+003, 3.079646e-002
2.991052e+003, 3.177409e-002
2.992980e+003, 3.141181e-002
2.994909e+003, 3.058113e-002
2.996837e+003, 3.187920e-002
2.998766e+003, 3.281545e-002
3.000694e+003, 3.275835e-002
3.002623e+003, 3.096305e-002
3.004551e+003, 3.005485e-002
3.006479e+003, 3.106250e-002
3.008408e+003, 3.173498e-002
3.010336e+003, 3.177321e-002
3.012265e+003, 3.081281e-002
3.014193e+003, 3.102725e-002
3.016122e+003, 3.154924e-002
3.018050e+003, 3.177000e-002
3.019979e+003, 3.283231e-002
3.021907e+003, 3.243754e-002
3.023836e+003, 3.296598e-002
3.025764e+003, 3.401370e-002
3.027693e+003, 3.478806e-002
3.029621e+003, 3.389554e-002
3.031550e+003, 3.333851e-002
3.033478e+003, 3.400130e-002
3.035406e+003, 3.425597e-002
3.037335e+003, 3.529624e-002
3.039263e+003, 3.386414e-002
3.041192e+003, 3.296530e-002
3.043120e+003, 3.401398e-002
3.045049e+003, 3.266733e-002
3.046977e+003, 3.202134e-002
3.048906e+003, 3.515400e-002
3.050834e+003, 3.623496e-002
3.052763e+003, 3.329545e-002
3.054691e+003, 3.242483e-002
3.056620e+003, 3.289445e-002
3.058548e+003, 3.400041e-002
3.060477e+003, 3.476049e-002
3.062405e+003, 3.335556e-002
3.064333e+003, 3.380923e-002
3.066262e+003, 3.407167e-002
3.068190e+003, 3.378807e-002
3.070119e+003, 3.386252e-002
3.072047e+003, 3.449566e-002
3.073976e+003, 3.456350e-002
3.075904e+003, 3.513566e-002
3.077833e+003, 3.681620e-002
3.079761e+003, 3.720498e-002
3.081690e+003, 3.743397e-002
3.083618e+003, 3.614140e-002
3.085547e+003, 3.501407e-002
3.087475e+003, 3.498439e-002
3.089404e+003, 3.300551e-002
3.091332e+003, 3.279109e-002
3.093260e+003, 3.455465e-002
3.095189e+003, 3.580476e-002
3.097117e+003, 3.530854e-002
3.099046e+003, 3.430060e-002
3.100974e+003, 3.366925e-002
3.102903e+003, 3.545187e-002
3.104831e+003, 3.607226e-002
3.106760e+003, 3.563005e-002
3.108688e+003, 3.564593e-002
3.110617e+003, 3.651597e-002
3.112545e+003, 3.654708e-002
3.114474e+003, 3.659571e-002
3.116402e+003, 3.641490e-002
3.118331e+003, 3.541992e-002
3.120259e+003, 3.500476e-002
3.122188e+003, 3.564491e-002
3.124116e+003, 3.642432e-002
3.126044e+003, 3.679828e-002
3.127973e+003, 3.732041e-002
3.129901e+003, 3.716382e-002
3.131830e+003, 3.584672e-002
3.133758e+003, 3.607285e-002
3.135687e+003, 3.707919e-002
3.137615e+003, 3.767665e-002
3.139544e+003, 3.808924e-002
3.141472e+003, 3.886425e-002
3.143401e+003, 3.686829e-002
3.145329e+003, 3.610942e-002
3.147258e+003, 3.594719e-002
3.149186e+003, 3.564787e-002
3.151115e+003, 3.780311e-002
3.153043e+003, 3.725243e-002
3.154971e+003, 3.641473e-002
3.156900e+003, 3.750428e-002
3.158828e+003, 3.899153e-002
3.160757e+003, 3.925531e-002
3.162685e+003, 4.057041e-002
3.164614e+003, 4.028242e-002
3.166542e+003, 3.925969e-002
3.168471e+003, 3.838211e-002
3.170399e+003, 3.859267e-002
3.172328e+003, 3.802983e-002
3.174256e+003, 3.668829e-002
3.176185e+003, 3.713594e-002
3.178113e+003, 3.906220e-002
3.180042e+003, 3.923636e-002
3.181970e+003, 3.884098e-002
3.183898e+003, 3.872337e-002
3.185827e+003, 3.951964e-002
3.187755e+003, 4.002457e-002
3.189684e+003, 4.139829e-002
3.191612e+003, 4.105999e-002
3.193541e+003, 4.011878e-002
3.195469e+003, 4.206991e-002
3.197398e+003, 4.322612e-002
3.199326e+003, 3.927233e-002
3.201255e+003, 3.743461e-002
3.203183e+003, 4.010521e-002
3.205112e+003, 4.248544e-002
3.207040e+003, 4.341732e-002
3.208969e+003, 4.169394e-002
3.210897e+003, 4.122053e-002
3.212825e+003, 4.194095e-002
3.214754e+003, 4.115715e-002
3.216682e+003, 3.924124e-002
3.218611e+003, 4.013538e-002
3.220539e+003, 4.080234e-002
3.222468e+003, 4.011007e-002
3.224396e+003, 4.065751e-002
3.226325e+003, 4.244143e-002
3.228253e+003, 4.328237e-002
3.230182e+003, 4.293671e-002
3.232110e+003, 4.259050e-002
3.234039e+003, 4.099322e-002
3.235967e+003, 3.968582e-002
3.237896e+003, 3.970682e-002
3.239824e+003, 3.994670e-002
3.241752e+003, 4.067966e-002
3.243681e+003, 4.093265e-002
3.245609e+003, 3.999966e-002
3.247538e+003, 4.216746e-002
3.249466e+003, 4.578006e-002
3.251395e+003, 4.372074e-002
3.253323e+003, 4.057722e-002
3.255252e+003, 4.014146e-002
3.257180e+003, 3.974350e-002
3.259109e+003, 3.942877e-002
3.261037e+003, 4.049119e-002
3.262966e+003, 4.261299e-002
3.264894e+003, 4.287676e-002
3.266823e+003, 4.292028e-002
3.268751e+003, 4.187913e-002
3.270679e+003, 4.251930e-002
3.272608e+003, 4.357389e-002
3.274536e+003, 4.390245e-002
3.276465e+003, 4.351768e-002
3.278393e+003, 4.293100e-002
3.280322e+003, 4.223023e-002
3.282250e+003, 4.128189e-002
3.284179e+003, 4.109456e-002
3.286107e+003, 4.441338e-002
3.288036e+003, 4.539924e-002
3.289964e+003, 4.321117e-002
3.291893e+003, 4.037281e-002
3.293821e+003, 4.022785e-002
3.295750e+003, 4.154700e-002
3.297678e+003, 4.222994e-002
3.299606e+003, 4.067987e-002
3.301535e+003, 4.129045e-002
3.303463e+003, 4.185497e-002
3.305392e+003, 4.081463e-002
3.307320e+003, 4.206180e-002
3.309249e+003, 4.162416e-002
3.311177e+003, 4.148501e-002
3.313106e+003, 4.267400e-002
3.315034e+003, 4.364822e-002
3.316963e+003, 4.184768e-002
3.318891e+003, 4.105475e-002
3.320820e+003, 4.370058e-002
3.322748e+003, 4.304602e-002
3.324677e+003, 4.152738e-002
3.326605e+003, 4.284606e-002
3.328533e+003, 4.154775e-002
3.330462e+003, 3.962213e-002
3.332390e+003, 3.995252e-002
3.334319e+003, 4.269756e-002
3.336247e+003, 4.419705e-002
3.338176e+003, 4.479960e-002
3.340104e+003, 4.563693e-002
3.342033e+003, 4.445180e-002
3.343961e+003, 4.420305e-002
3.345890e+003, 4.378849e-002
3.347818e+003, 4.190343e-002
3.349747e+003, 3.953983e-002
3.351675e+003, 4.072325e-002
3.353604e+003, 4.353860e-002
3.355532e+003, 4.278967e-002
3.357460e+003, 4.370708e-002
3.359389e+003, 4.400187e-002
3.361317e+003, 4.286505e-002
3.363246e+003, 4.325095e-002
3.365174e+003, 4.445346e-002
3.367103e+003, 4.256135e-002
3.369031e+003, 4.201052e-002
3.370960e+003, 4.291302e-002
3.372888e+003, 4.068037e-002
3.374817e+003, 3.980185e-002
3.376745e+003, 3.999154e-002
3.378674e+003, 4.196486e-002
3.380602e+003, 4.297302e-002
3.382531e+003, 4.344423e-002
3.384459e+003, 4.599267e-002
3.386387e+003, 4.489563e-002
3.388316e+003, 4.381853e-002
3.390244e+003, 4.316026e-002
3.392173e+003, 4.404303e-002
3.394101e+003, 4.430528e-002
3.396030e+003, 4.322730e-002
3.397958e+003, 4.316374e-002
3.399887e+003, 4.518785e-002
3.401815e+003, 4.654036e-002
3.403744e+003, 4.545902e-002
3.405672e+003, 4.581681e-002
3.407601e+003, 4.592160e-002
3.409529e+003, 4.424033e-002
3.411458e+003, 4.210199e-002
3.413386e+003, 4.274135e-002
3.415314e+003, 4.545275e-002
3.417243e+003, 4.576087e-002
3.419171e+003, 4.430300e-002
3.421100e+003, 4.519527e-002
3.423028e+003, 4.487786e-002
3.424957e+003, 4.350646e-002
3.426885e+003, 4.332520e-002
3.428814e+003, 4.427425e-002
3.430742e+003, 4.368331e-002
3.432671e+003, 4.236110e-002
3.434599e+003, 4.324675e-002
3.436528e+003, 4.429785e-002
3.438456e+003, 4.635011e-002
3.440385e+003, 4.677219e-002
3.442313e+003, 4.575632e-002
3.444241e+003, 4.369832e-002
3.446170e+003, 4.133859e-002
3.448098e+003, 4.097114e-002
3.450027e+003, 4.250202e-002
3.451955e+003, 4.385401e-002
3.453884e+003, 4.409040e-002
3.455812e+003, 4.208921e-002
3.457741e+003, 4.064505e-002
3.459669e+003, 4.009343e-002
3.461598e+003, 3.844067e-002
3.463526e+003, 3.852743e-002
3.465455e+003, 4.080427e-002
3.467383e+003, 4.443027e-002
3.469312e+003, 4.690146e-002
3.471240e+003, 4.678183e-002
3.473168e+003, 4.528059e-002
3.475097e+003, 4.521259e-002
3.477025e+003, 4.291617e-002
3.478954e+003, 4.076911e-002
3.480882e+003, 4.193605e-002
3.482811e+003, 4.460740e-002
3.484739e+003, 4.514401e-002
3.486668e+003, 4.535766e-002
3.488596e+003, 4.496891e-002
3.490525e+003, 4.273621e-002
3.492453e+003, 4.148569e-002
3.494382e+003, 4.058668e-002
3.496310e+003, 3.909703e-002
3.498239e+003, 3.988805e-002
3.500167e+003, 4.080504e-002
3.502095e+003, 4.196018e-002
3.504024e+003, 4.244322e-002
3.505952e+003, 4.311008e-002
3.507881e+003, 4.215018e-002
3.509809e+003, 4.138843e-002
3.511738e+003, 4.275419e-002
3.513666e+003, 4.282400e-002
3.515595e+003, 4.173364e-002
3.517523e+003, 4.135137e-002
3.519452e+003, 4.132528e-002
3.521380e+003, 4.090961e-002
3.523309e+003, 4.034914e-002
3.525237e+003, 4.098429e-002
3.527166e+003, 4.309287e-002
3.529094e+003, 4.616299e-002
3.531022e+003, 4.693318e-002
3.532951e+003, 4.443997e-002
3.534879e+003, 4.178636e-002
3.536808e+003, 4.120620e-002
3.538736e+003, 4.275951e-002
3.540665e+003, 4.355670e-002
3.542593e+003, 4.110361e-002
3.544522e+003, 3.960216e-002
3.546450e+003, 3.983979e-002
3.548379e+003, 3.820493e-002
3.550307e+003, 3.797224e-002
3.552236e+003, 4.050967e-002
3.554164e+003, 4.164734e-002
3.556093e+003, 3.963726e-002
3.558021e+003, 3.909666e-002
3.559949e+003, 4.072842e-002
3.561878e+003, 3.995727e-002
3.563806e+003, 3.751826e-002
3.565735e+003, 3.748034e-002
3.567663e+003, 3.804908e-002
3.569592e+003, 3.809426e-002
3.571520e+003, 3.855867e-002
3.573449e+003, 3.789735e-002
3.575377e+003, 3.732441e-002
3.577306e+003, 3.584968e-002
3.579234e+003, 3.541784e-002
3.581163e+003, 3.821895e-002
3.583091e+003, 3.892325e-002
3.585020e+003, 4.020663e-002
3.586948e+003, 3.837924e-002
3.588876e+003, 3.755340e-002
3.590805e+003, 3.770582e-002
3.592733e+003, 3.472204e-002
3.594662e+003, 3.479585e-002
3.596590e+003, 3.547999e-002
3.598519e+003, 3.703687e-002
3.600447e+003, 3.613323e-002
3.602376e+003, 3.426343e-002
3.604304e+003, 3.758382e-002
3.606233e+003, 3.840862e-002
3.608161e+003, 3.511858e-002
3.610090e+003, 3.570690e-002
3.612018e+003, 3.562765e-002
3.613947e+003, 3.454497e-002
3.615875e+003, 3.771601e-002
3.617803e+003, 3.556798e-002
3.619732e+003, 3.235330e-002
3.621660e+003, 3.549998e-002
3.623589e+003, 3.626411e-002
3.625517e+003, 3.630468e-002
3.627446e+003, 3.738432e-002
3.629374e+003, 3.964490e-002
3.631303e+003, 3.858019e-002
3.633231e+003, 3.775919e-002
3.635160e+003, 3.665220e-002
3.637088e+003, 3.786013e-002
3.639017e+003, 3.970770e-002
3.640945e+003, 3.899087e-002
3.642874e+003, 3.416888e-002
3.644802e+003, 3.107064e-002
3.646730e+003, 3.193745e-002
3.648659e+003, 3.356781e-002
3.650587e+003, 3.214946e-002
3.652516e+003, 3.184006e-002
3.654444e+003, 3.405979e-002
3.656373e+003, 3.646712e-002
3.658301e+003, 3.923116e-002
3.660230e+003, 3.976868e-002
3.662158e+003, 3.865897e-002
3.664087e+003, 3.430099e-002
3.666015e+003, 3.305827e-002
3.667944e+003, 3.765186e-002
3.669872e+003, 3.798917e-002
3.671801e+003, 3.512722e-002
3.673729e+003, 3.363422e-002
3.675657e+003, 3.111236e-002
3.677586e+003, 2.750342e-002
3.679514e+003, 2.627215e-002
3.681443e+003, 2.882342e-002
3.683371e+003, 3.178059e-002
3.685300e+003, 3.016820e-002
3.687228e+003, 3.065566e-002
3.689157e+003, 3.379919e-002
3.691085e+003, 3.262643e-002
3.693014e+003, 2.762029e-002
3.694942e+003, 2.683079e-002
3.696871e+003, 2.700373e-002
3.698799e+003, 2.702006e-002
3.700728e+003, 3.140646e-002
3.702656e+003, 3.572719e-002
3.704584e+003, 3.595704e-002
3.706513e+003, 3.233583e-002
3.708441e+003, 2.960554e-002
3.710370e+003, 3.306178e-002
3.712298e+003, 3.489297e-002
3.714227e+003, 3.232038e-002
3.716155e+003, 2.974174e-002
3.718084e+003, 2.896291e-002
3.720012e+003, 2.998342e-002
3.721941e+003, 3.134505e-002
3.723869e+003, 3.027272e-002
3.725798e+003, 3.126174e-002
3.727726e+003, 3.108678e-002
3.729655e+003, 2.974279e-002
3.731583e+003, 2.766838e-002
3.733511e+003, 2.738850e-002
3.735440e+003, 3.353609e-002
3.737368e+003, 3.318821e-002
3.739297e+003, 2.840856e-002
3.741225e+003, 3.140231e-002
3.743154e+003, 3.306174e-002
3.745082e+003, 3.459548e-002
3.747011e+003, 3.376913e-002
3.748939e+003, 3.252245e-002
3.750868e+003, 3.397824e-002
3.752796e+003, 3.227673e-002
3.754725e+003, 3.098426e-002
3.756653e+003, 3.080710e-002
3.758582e+003, 3.135794e-002
3.760510e+003, 2.956173e-002
3.762438e+003, 2.905562e-002
3.764367e+003, 2.884453e-002
3.766295e+003, 2.904730e-002
3.768224e+003, 2.934841e-002
3.770152e+003, 2.895523e-002
3.772081e+003, 2.948801e-002
3.774009e+003, 2.865638e-002
3.775938e+003, 2.916815e-002
3.777866e+003, 3.091486e-002
3.779795e+003, 3.183969e-002
3.781723e+003, 3.119467e-002
3.783652e+003, 3.024669e-002
3.785580e+003, 3.058895e-002
3.787509e+003, 3.117013e-002
3.789437e+003, 3.234343e-002
3.791365e+003, 3.179743e-002
3.793294e+003, 3.143602e-002
3.795222e+003, 3.144726e-002
3.797151e+003, 3.178040e-002
3.799079e+003, 3.029822e-002
3.801008e+003, 2.942347e-002
3.802936e+003, 2.838049e-002
3.804865e+003, 2.831267e-002
3.806793e+003, 2.879659e-002
3.808722e+003, 3.129365e-002
3.810650e+003, 3.152902e-002
3.812579e+003, 2.847121e-002
3.814507e+003, 2.864584e-002
3.816436e+003, 3.028827e-002
3.818364e+003, 3.304509e-002
3.820292e+003, 3.528558e-002
3.822221e+003, 3.402806e-002
3.824149e+003, 3.093353e-002
3.826078e+003, 3.160240e-002
3.828006e+003, 3.180359e-002
3.829935e+003, 2.893136e-002
3.831863e+003, 2.958348e-002
3.833792e+003, 3.184000e-002
3.835720e+003, 3.185122e-002
3.837649e+003, 3.048641e-002
3.839577e+003, 3.069389e-002
3.841506e+003, 3.208935e-002
3.843434e+003, 3.333506e-002
3.845363e+003, 3.143811e-002
3.847291e+003, 2.840339e-002
3.849219e+003, 2.970787e-002
3.851148e+003, 2.969899e-002
3.853076e+003, 2.871259e-002
3.855005e+003, 2.826521e-002
3.856933e+003, 2.982725e-002
3.858862e+003, 3.135201e-002
3.860790e+003, 3.020090e-002
3.862719e+003, 3.135192e-002
3.864647e+003, 3.451596e-002
3.866576e+003, 3.291050e-002
3.868504e+003, 2.766534e-002
3.870433e+003, 2.767613e-002
3.872361e+003, 2.718155e-002
3.874290e+003, 2.826104e-002
3.876218e+003, 2.930529e-002
3.878146e+003, 2.828030e-002
3.880075e+003, 2.721087e-002
3.882003e+003, 2.693775e-002
3.883932e+003, 2.715056e-002
3.885860e+003, 2.594960e-002
3.887789e+003, 2.645336e-002
3.889717e+003, 2.701250e-002
3.891646e+003, 2.582666e-002
3.893574e+003, 2.760961e-002
3.895503e+003, 2.905724e-002
3.897431e+003, 2.918974e-002
3.899360e+003, 2.887901e-002
3.901288e+003, 2.825109e-002
3.903217e+003, 2.724923e-002
3.905145e+003, 2.578460e-002
3.907073e+003, 2.938260e-002
3.909002e+003, 3.075832e-002
3.910930e+003, 3.040340e-002
3.912859e+003, 2.987151e-002
3.914787e+003, 3.453495e-002
3.916716e+003, 3.432379e-002
3.918644e+003, 2.952128e-002
3.920573e+003, 2.769873e-002
3.922501e+003, 2.989102e-002
3.924430e+003, 3.118614e-002
3.926358e+003, 3.199120e-002
3.928287e+003, 3.086075e-002
3.930215e+003, 2.968424e-002
3.932144e+003, 3.063834e-002
3.934072e+003, 2.949718e-002
3.936000e+003, 2.813106e-002
3.937929e+003, 3.105994e-002
3.939857e+003, 3.076517e-002
3.941786e+003, 2.728159e-002
3.943714e+003, 2.932514e-002
3.945643e+003, 3.321182e-002
3.947571e+003, 3.018630e-002
3.949500e+003, 2.574107e-002
3.951428e+003, 2.591806e-002
3.953357e+003, 2.948066e-002
3.955285e+003, 3.267884e-002
3.957214e+003, 3.152878e-002
3.959142e+003, 3.046050e-002
3.961071e+003, 2.988496e-002
3.962999e+003, 2.850037e-002
3.964927e+003, 2.936194e-002
3.966856e+003, 3.232599e-002
3.968784e+003, 3.177032e-002
3.970713e+003, 2.889417e-002
3.972641e+003, 2.750785e-002
3.974570e+003, 2.544252e-002
3.976498e+003, 2.443666e-002
3.978427e+003, 2.528782e-002
3.980355e+003, 2.460296e-002
3.982284e+003, 2.469131e-002
3.984212e+003, 2.705768e-002
3.986141e+003, 3.013190e-002
3.988069e+003, 3.177880e-002
3.989998e+003, 3.133102e-002
3.991926e+003, 2.956322e-002
3.993854e+003, 3.035221e-002
3.995783e+003, 3.347418e-002
3.997711e+003, 3.520849e-002
3.999640e+003, 3.371213e-002
4.001568e+003, 0.000000e+000
##END=



