##NAMES=Fluoro-richterite
##RRUFFID=R040019
##IDEAL CHEMISTRY=Na(NaCa)Mg_5_Si_8_O_22_F_2_
##LOCALITY=Wilberforce, Ontario, Canada
##OWNER=RRUFF
##SOURCE=University of Arizona Mineral Museum
##DESCRIPTION=Brown prismatic crystals
##STATUS=The identification of this mineral has been confirmed by X-ray diffraction and chemical analysis
##URL=rruff.info/R040019
##MEASURED CHEMISTRY=(Na_0.59_K_0.27_[box]_0.14_)_Σ=1_(Ca_1.30_Na_0.70_)_Σ=2_(Mg_4.67_Fe_0.17_Fe^3+^_0.10_Ti_0.03_Mn_0.02_Al_0.01_)_Σ=5_(Si_7.67_Al_0.33_)_Σ=8_(F_1.12_(OH)_0.88_)_Σ=2_; OH estimated by charge balance
3.991926e+002, 0.000000e+000
4.011211e+002, 3.299413e-001
4.030496e+002, 3.315205e-001
4.049780e+002, 3.319600e-001
4.069065e+002, 3.315789e-001
4.088350e+002, 3.232626e-001
4.107634e+002, 3.253528e-001
4.126919e+002, 3.251629e-001
4.146204e+002, 3.190390e-001
4.165488e+002, 3.114738e-001
4.184773e+002, 3.074316e-001
4.204058e+002, 3.074166e-001
4.223342e+002, 3.168816e-001
4.242627e+002, 3.237503e-001
4.261912e+002, 3.307751e-001
4.281196e+002, 3.380041e-001
4.300481e+002, 3.485842e-001
4.319766e+002, 3.567613e-001
4.339050e+002, 3.604536e-001
4.358335e+002, 3.583841e-001
4.377620e+002, 3.588251e-001
4.396904e+002, 3.565909e-001
4.416189e+002, 3.508521e-001
4.435474e+002, 3.418531e-001
4.454758e+002, 3.350009e-001
4.474043e+002, 3.251249e-001
4.493328e+002, 3.217438e-001
4.512612e+002, 3.254600e-001
4.531897e+002, 3.272927e-001
4.551182e+002, 3.252878e-001
4.570466e+002, 3.245098e-001
4.589751e+002, 3.224968e-001
4.609036e+002, 3.192129e-001
4.628320e+002, 3.136178e-001
4.647605e+002, 3.064827e-001
4.666890e+002, 2.956299e-001
4.686174e+002, 2.847262e-001
4.705459e+002, 2.774868e-001
4.724744e+002, 2.720606e-001
4.744028e+002, 2.645248e-001
4.763313e+002, 2.565392e-001
4.782598e+002, 2.513209e-001
4.801882e+002, 2.486916e-001
4.821167e+002, 2.439484e-001
4.840452e+002, 2.411236e-001
4.859736e+002, 2.416390e-001
4.879021e+002, 2.419689e-001
4.898306e+002, 2.407024e-001
4.917590e+002, 2.384507e-001
4.936875e+002, 2.357082e-001
4.956160e+002, 2.338565e-001
4.975444e+002, 2.323644e-001
4.994729e+002, 2.310990e-001
5.014014e+002, 2.299800e-001
5.033298e+002, 2.276851e-001
5.052583e+002, 2.230654e-001
5.071868e+002, 2.181745e-001
5.091152e+002, 2.118111e-001
5.110437e+002, 2.043255e-001
5.129722e+002, 1.966221e-001
5.149006e+002, 1.890168e-001
5.168291e+002, 1.817888e-001
5.187576e+002, 1.749147e-001
5.206860e+002, 1.693431e-001
5.226145e+002, 1.639843e-001
5.245430e+002, 1.583745e-001
5.264714e+002, 1.533723e-001
5.283999e+002, 1.488782e-001
5.303284e+002, 1.435652e-001
5.322568e+002, 1.379919e-001
5.341853e+002, 1.331832e-001
5.361138e+002, 1.289418e-001
5.380422e+002, 1.247454e-001
5.399707e+002, 1.197298e-001
5.418992e+002, 1.135784e-001
5.438276e+002, 1.073167e-001
5.457561e+002, 1.004081e-001
5.476846e+002, 9.322862e-002
5.496130e+002, 8.611382e-002
5.515415e+002, 7.957318e-002
5.534700e+002, 7.372747e-002
5.553984e+002, 6.726200e-002
5.573269e+002, 6.147141e-002
5.592554e+002, 5.718113e-002
5.611838e+002, 5.311806e-002
5.631123e+002, 4.967266e-002
5.650408e+002, 4.682875e-002
5.669692e+002, 4.370259e-002
5.688977e+002, 4.053764e-002
5.708262e+002, 3.801637e-002
5.727546e+002, 3.605612e-002
5.746831e+002, 3.421133e-002
5.766116e+002, 3.247000e-002
5.785400e+002, 3.118182e-002
5.804685e+002, 2.985215e-002
5.823970e+002, 2.875995e-002
5.843254e+002, 2.810574e-002
5.862539e+002, 2.748526e-002
5.881824e+002, 2.712853e-002
5.901108e+002, 2.639444e-002
5.920393e+002, 2.571436e-002
5.939678e+002, 2.593945e-002
5.958962e+002, 2.620783e-002
5.978247e+002, 2.637610e-002
5.997532e+002, 2.640342e-002
6.016816e+002, 2.672571e-002
6.036101e+002, 2.753098e-002
6.055386e+002, 2.848463e-002
6.074670e+002, 2.955572e-002
6.093955e+002, 3.038040e-002
6.113240e+002, 3.120263e-002
6.132524e+002, 3.196844e-002
6.151809e+002, 3.266078e-002
6.171094e+002, 3.361018e-002
6.190378e+002, 3.435835e-002
6.209663e+002, 3.518193e-002
6.228948e+002, 3.592795e-002
6.248232e+002, 3.615793e-002
6.267517e+002, 3.654719e-002
6.286802e+002, 3.736126e-002
6.306086e+002, 3.810547e-002
6.325371e+002, 3.884600e-002
6.344656e+002, 3.998209e-002
6.363940e+002, 4.112591e-002
6.383225e+002, 4.267402e-002
6.402510e+002, 4.444601e-002
6.421794e+002, 4.656733e-002
6.441079e+002, 4.919078e-002
6.460364e+002, 5.246137e-002
6.479648e+002, 5.623757e-002
6.498933e+002, 6.028247e-002
6.518218e+002, 6.479950e-002
6.537502e+002, 6.983479e-002
6.556787e+002, 7.512910e-002
6.576072e+002, 8.093854e-002
6.595356e+002, 8.666159e-002
6.614641e+002, 9.156610e-002
6.633926e+002, 9.484109e-002
6.653210e+002, 9.592545e-002
6.672495e+002, 9.399512e-002
6.691780e+002, 8.906473e-002
6.711064e+002, 8.242574e-002
6.730349e+002, 7.506785e-002
6.749634e+002, 6.796203e-002
6.768918e+002, 6.213256e-002
6.788203e+002, 5.787326e-002
6.807488e+002, 5.489304e-002
6.826772e+002, 5.265673e-002
6.846057e+002, 5.112026e-002
6.865342e+002, 5.031108e-002
6.884626e+002, 4.970737e-002
6.903911e+002, 4.933137e-002
6.923196e+002, 4.935414e-002
6.942480e+002, 4.921164e-002
6.961765e+002, 4.902234e-002
6.981050e+002, 4.914228e-002
7.000334e+002, 4.958631e-002
7.019619e+002, 5.045673e-002
7.038904e+002, 5.115344e-002
7.058188e+002, 5.147524e-002
7.077473e+002, 5.219234e-002
7.096758e+002, 5.304022e-002
7.116042e+002, 5.383589e-002
7.135327e+002, 5.452483e-002
7.154612e+002, 5.506708e-002
7.173896e+002, 5.549945e-002
7.193181e+002, 5.555557e-002
7.212466e+002, 5.572081e-002
7.231750e+002, 5.587608e-002
7.251035e+002, 5.628447e-002
7.270320e+002, 5.766686e-002
7.289604e+002, 5.995367e-002
7.308889e+002, 6.295485e-002
7.328174e+002, 6.672078e-002
7.347458e+002, 7.133077e-002
7.366743e+002, 7.627290e-002
7.386028e+002, 8.110677e-002
7.405313e+002, 8.515637e-002
7.424597e+002, 8.766482e-002
7.443882e+002, 8.773704e-002
7.463167e+002, 8.558585e-002
7.482451e+002, 8.193319e-002
7.501736e+002, 7.754907e-002
7.521021e+002, 7.267936e-002
7.540305e+002, 6.745777e-002
7.559590e+002, 6.238297e-002
7.578875e+002, 5.790560e-002
7.598159e+002, 5.369182e-002
7.617444e+002, 4.993086e-002
7.636729e+002, 4.629453e-002
7.656013e+002, 4.314581e-002
7.675298e+002, 4.099991e-002
7.694583e+002, 3.934625e-002
7.713867e+002, 3.815899e-002
7.733152e+002, 3.761652e-002
7.752437e+002, 3.748759e-002
7.771721e+002, 3.760600e-002
7.791006e+002, 3.798958e-002
7.810291e+002, 3.845898e-002
7.829575e+002, 3.900455e-002
7.848860e+002, 3.958295e-002
7.868145e+002, 4.021856e-002
7.887429e+002, 4.080874e-002
7.906714e+002, 4.147388e-002
7.925999e+002, 4.228189e-002
7.945283e+002, 4.301420e-002
7.964568e+002, 4.401064e-002
7.983853e+002, 4.506546e-002
8.003137e+002, 4.591813e-002
8.022422e+002, 4.675503e-002
8.041707e+002, 4.733649e-002
8.060991e+002, 4.813052e-002
8.080276e+002, 4.884386e-002
8.099561e+002, 4.946214e-002
8.118845e+002, 5.011221e-002
8.138130e+002, 5.062585e-002
8.157415e+002, 5.112471e-002
8.176699e+002, 5.173350e-002
8.195984e+002, 5.275223e-002
8.215269e+002, 5.387633e-002
8.234553e+002, 5.500159e-002
8.253838e+002, 5.670460e-002
8.273123e+002, 5.863813e-002
8.292407e+002, 6.066931e-002
8.311692e+002, 6.317322e-002
8.330977e+002, 6.597140e-002
8.350261e+002, 6.919200e-002
8.369546e+002, 7.307192e-002
8.388831e+002, 7.715787e-002
8.408115e+002, 8.151817e-002
8.427400e+002, 8.625526e-002
8.446685e+002, 9.118395e-002
8.465969e+002, 9.620069e-002
8.485254e+002, 1.013881e-001
8.504539e+002, 1.065863e-001
8.523823e+002, 1.115698e-001
8.543108e+002, 1.162540e-001
8.562393e+002, 1.208832e-001
8.581677e+002, 1.254411e-001
8.600962e+002, 1.297168e-001
8.620247e+002, 1.341411e-001
8.639531e+002, 1.394531e-001
8.658816e+002, 1.452839e-001
8.678101e+002, 1.516090e-001
8.697385e+002, 1.589947e-001
8.716670e+002, 1.676821e-001
8.735955e+002, 1.769019e-001
8.755239e+002, 1.859393e-001
8.774524e+002, 1.950574e-001
8.793809e+002, 2.047766e-001
8.813093e+002, 2.154094e-001
8.832378e+002, 2.276055e-001
8.851663e+002, 2.410607e-001
8.870947e+002, 2.553256e-001
8.890232e+002, 2.691448e-001
8.909517e+002, 2.818585e-001
8.928801e+002, 2.937680e-001
8.948085e+002, 3.057577e-001
8.967370e+002, 3.182416e-001
8.986655e+002, 3.307266e-001
9.005939e+002, 3.429027e-001
9.025224e+002, 3.547309e-001
9.044509e+002, 3.664134e-001
9.063793e+002, 3.774342e-001
9.083078e+002, 3.872976e-001
9.102363e+002, 3.953967e-001
9.121647e+002, 4.010999e-001
9.140932e+002, 4.040685e-001
9.160217e+002, 4.036563e-001
9.179501e+002, 4.000879e-001
9.198786e+002, 3.942688e-001
9.218071e+002, 3.879773e-001
9.237355e+002, 3.829141e-001
9.256640e+002, 3.800262e-001
9.275925e+002, 3.792861e-001
9.295209e+002, 3.803076e-001
9.314494e+002, 3.822547e-001
9.333779e+002, 3.846384e-001
9.353063e+002, 3.878270e-001
9.372348e+002, 3.928869e-001
9.391633e+002, 3.993599e-001
9.410917e+002, 4.060908e-001
9.430202e+002, 4.130592e-001
9.449487e+002, 4.205139e-001
9.468771e+002, 4.275149e-001
9.488056e+002, 4.341690e-001
9.507341e+002, 4.406079e-001
9.526625e+002, 4.460568e-001
9.545910e+002, 4.496769e-001
9.565195e+002, 4.513453e-001
9.584479e+002, 4.504648e-001
9.603764e+002, 4.475402e-001
9.623049e+002, 4.437302e-001
9.642333e+002, 4.390950e-001
9.661618e+002, 4.332769e-001
9.680903e+002, 4.265767e-001
9.700187e+002, 4.192167e-001
9.719472e+002, 4.111533e-001
9.738757e+002, 4.027471e-001
9.758041e+002, 3.938452e-001
9.777326e+002, 3.840022e-001
9.796611e+002, 3.738898e-001
9.815895e+002, 3.633315e-001
9.835180e+002, 3.522385e-001
9.854465e+002, 3.408543e-001
9.873749e+002, 3.291987e-001
9.893034e+002, 3.171075e-001
9.912319e+002, 3.050455e-001
9.931603e+002, 2.932980e-001
9.950888e+002, 2.817103e-001
9.970173e+002, 2.703719e-001
9.989457e+002, 2.594692e-001
1.000874e+003, 2.491567e-001
1.002803e+003, 2.390234e-001
1.004731e+003, 2.293126e-001
1.006660e+003, 2.203013e-001
1.008588e+003, 2.118031e-001
1.010517e+003, 2.040533e-001
1.012445e+003, 1.971792e-001
1.014373e+003, 1.908961e-001
1.016302e+003, 1.852718e-001
1.018230e+003, 1.805598e-001
1.020159e+003, 1.765179e-001
1.022087e+003, 1.730204e-001
1.024016e+003, 1.702257e-001
1.025944e+003, 1.682307e-001
1.027873e+003, 1.672584e-001
1.029801e+003, 1.669948e-001
1.031730e+003, 1.676469e-001
1.033658e+003, 1.691722e-001
1.035587e+003, 1.708744e-001
1.037515e+003, 1.725166e-001
1.039444e+003, 1.743246e-001
1.041372e+003, 1.761447e-001
1.043301e+003, 1.779769e-001
1.045229e+003, 1.800843e-001
1.047157e+003, 1.823616e-001
1.049086e+003, 1.846713e-001
1.051014e+003, 1.867859e-001
1.052943e+003, 1.886143e-001
1.054871e+003, 1.901167e-001
1.056800e+003, 1.905073e-001
1.058728e+003, 1.895250e-001
1.060657e+003, 1.877054e-001
1.062585e+003, 1.853185e-001
1.064514e+003, 1.823730e-001
1.066442e+003, 1.788745e-001
1.068371e+003, 1.747152e-001
1.070299e+003, 1.701301e-001
1.072228e+003, 1.655621e-001
1.074156e+003, 1.614260e-001
1.076084e+003, 1.573490e-001
1.078013e+003, 1.529391e-001
1.079941e+003, 1.481750e-001
1.081870e+003, 1.435265e-001
1.083798e+003, 1.388492e-001
1.085727e+003, 1.336969e-001
1.087655e+003, 1.281499e-001
1.089584e+003, 1.221150e-001
1.091512e+003, 1.161372e-001
1.093441e+003, 1.106978e-001
1.095369e+003, 1.052734e-001
1.097298e+003, 9.998308e-002
1.099226e+003, 9.498197e-002
1.101155e+003, 9.049443e-002
1.103083e+003, 8.630829e-002
1.105011e+003, 8.233064e-002
1.106940e+003, 7.882362e-002
1.108868e+003, 7.583037e-002
1.110797e+003, 7.305101e-002
1.112725e+003, 7.024261e-002
1.114654e+003, 6.750054e-002
1.116582e+003, 6.501334e-002
1.118511e+003, 6.285119e-002
1.120439e+003, 6.138078e-002
1.122368e+003, 6.077777e-002
1.124296e+003, 6.132836e-002
1.126225e+003, 6.296013e-002
1.128153e+003, 6.569560e-002
1.130082e+003, 6.952085e-002
1.132010e+003, 7.394229e-002
1.133938e+003, 7.819428e-002
1.135867e+003, 8.090261e-002
1.137795e+003, 8.102633e-002
1.139724e+003, 7.872537e-002
1.141652e+003, 7.434615e-002
1.143581e+003, 6.805372e-002
1.145509e+003, 6.071231e-002
1.147438e+003, 5.354423e-002
1.149366e+003, 4.696606e-002
1.151295e+003, 4.088783e-002
1.153223e+003, 3.563204e-002
1.155152e+003, 3.105740e-002
1.157080e+003, 2.718926e-002
1.159009e+003, 2.406330e-002
1.160937e+003, 2.154098e-002
1.162865e+003, 1.940773e-002
1.164794e+003, 1.760587e-002
1.166722e+003, 1.631786e-002
1.168651e+003, 1.545281e-002
1.170579e+003, 1.470136e-002
1.172508e+003, 1.387457e-002
1.174436e+003, 1.306961e-002
1.176365e+003, 1.246788e-002
1.178293e+003, 1.203362e-002
1.180222e+003, 1.168759e-002
1.182150e+003, 1.126962e-002
1.184079e+003, 1.081591e-002
1.186007e+003, 1.053216e-002
1.187936e+003, 1.023254e-002
1.189864e+003, 9.886186e-003
1.191792e+003, 9.583844e-003
1.193721e+003, 9.292481e-003
1.195649e+003, 9.118803e-003
1.197578e+003, 8.947900e-003
1.199506e+003, 8.639728e-003
1.201435e+003, 8.488968e-003
1.203363e+003, 8.307785e-003
1.205292e+003, 8.039628e-003
1.207220e+003, 7.813840e-003
1.209149e+003, 7.600320e-003
1.211077e+003, 7.291787e-003
1.213006e+003, 7.038601e-003
1.214934e+003, 6.979189e-003
1.216863e+003, 6.945660e-003
1.218791e+003, 6.711479e-003
1.220719e+003, 6.421670e-003
1.222648e+003, 6.308515e-003
1.224576e+003, 6.353383e-003
1.226505e+003, 6.233668e-003
1.228433e+003, 6.067038e-003
1.230362e+003, 5.912876e-003
1.232290e+003, 5.681808e-003
1.234219e+003, 5.671941e-003
1.236147e+003, 5.778427e-003
1.238076e+003, 5.703192e-003
1.240004e+003, 5.551872e-003
1.241933e+003, 5.418079e-003
1.243861e+003, 5.520924e-003
1.245790e+003, 5.573398e-003
1.247718e+003, 5.525152e-003
1.249646e+003, 5.613660e-003
1.251575e+003, 5.527755e-003
1.253503e+003, 5.343298e-003
1.255432e+003, 5.247339e-003
1.257360e+003, 5.157349e-003
1.259289e+003, 5.188575e-003
1.261217e+003, 5.143862e-003
1.263146e+003, 5.090415e-003
1.265074e+003, 5.062795e-003
1.267003e+003, 5.072583e-003
1.268931e+003, 5.123191e-003
1.270860e+003, 5.187731e-003
1.272788e+003, 5.164349e-003
1.274717e+003, 5.081148e-003
1.276645e+003, 4.948511e-003
1.278573e+003, 4.821066e-003
1.280502e+003, 4.985099e-003
1.282430e+003, 5.098093e-003
1.284359e+003, 4.989553e-003
1.286287e+003, 4.950788e-003
1.288216e+003, 4.874397e-003
1.290144e+003, 4.759170e-003
1.292073e+003, 4.843392e-003
1.294001e+003, 4.865472e-003
1.295930e+003, 4.905600e-003
1.297858e+003, 4.937703e-003
1.299787e+003, 5.009109e-003
1.301715e+003, 5.077519e-003
1.303644e+003, 5.059307e-003
1.305572e+003, 5.072223e-003
1.307500e+003, 5.128836e-003
1.309429e+003, 5.199422e-003
1.311357e+003, 5.274348e-003
1.313286e+003, 5.290393e-003
1.315214e+003, 5.247751e-003
1.317143e+003, 5.276723e-003
1.319071e+003, 5.451351e-003
1.321000e+003, 5.420640e-003
1.322928e+003, 5.482976e-003
1.324857e+003, 5.625147e-003
1.326785e+003, 5.562562e-003
1.328714e+003, 5.385803e-003
1.330642e+003, 5.447367e-003
1.332571e+003, 5.533215e-003
1.334499e+003, 5.768916e-003
1.336427e+003, 5.740922e-003
1.338356e+003, 5.736516e-003
1.340284e+003, 5.830916e-003
1.342213e+003, 5.957504e-003
1.344141e+003, 6.141992e-003
1.346070e+003, 6.292316e-003
1.347998e+003, 6.477206e-003
1.349927e+003, 6.825651e-003
1.351855e+003, 6.996218e-003
1.353784e+003, 7.130930e-003
1.355712e+003, 7.377100e-003
1.357641e+003, 7.510334e-003
1.359569e+003, 7.664036e-003
1.361498e+003, 7.991000e-003
1.363426e+003, 8.420752e-003
1.365354e+003, 8.733368e-003
1.367283e+003, 8.930786e-003
1.369211e+003, 9.253307e-003
1.371140e+003, 9.682996e-003
1.373068e+003, 1.005382e-002
1.374997e+003, 1.038692e-002
1.376925e+003, 1.073498e-002
1.378854e+003, 1.129481e-002
1.380782e+003, 1.167076e-002
1.382711e+003, 1.194275e-002
1.384639e+003, 1.252182e-002
1.386568e+003, 1.279826e-002
1.388496e+003, 1.329550e-002
1.390424e+003, 1.399747e-002
1.392353e+003, 1.477748e-002
1.394281e+003, 1.532628e-002
1.396210e+003, 1.583352e-002
1.398138e+003, 1.634401e-002
1.400067e+003, 1.693757e-002
1.401995e+003, 1.745930e-002
1.403924e+003, 1.807369e-002
1.405852e+003, 1.884936e-002
1.407781e+003, 1.941609e-002
1.409709e+003, 1.973928e-002
1.411638e+003, 2.028925e-002
1.413566e+003, 2.082534e-002
1.415495e+003, 2.117461e-002
1.417423e+003, 2.172869e-002
1.419351e+003, 2.234415e-002
1.421280e+003, 2.255745e-002
1.423208e+003, 2.265819e-002
1.425137e+003, 2.294735e-002
1.427065e+003, 2.315928e-002
1.428994e+003, 2.322773e-002
1.430922e+003, 2.335258e-002
1.432851e+003, 2.353709e-002
1.434779e+003, 2.370629e-002
1.436708e+003, 2.384738e-002
1.438636e+003, 2.394271e-002
1.440565e+003, 2.399570e-002
1.442493e+003, 2.387179e-002
1.444422e+003, 2.369744e-002
1.446350e+003, 2.374636e-002
1.448278e+003, 2.401395e-002
1.450207e+003, 2.402769e-002
1.452135e+003, 2.392982e-002
1.454064e+003, 2.393869e-002
1.455992e+003, 2.375335e-002
1.457921e+003, 2.364560e-002
1.459849e+003, 2.360181e-002
1.461778e+003, 2.342536e-002
1.463706e+003, 2.313956e-002
1.465635e+003, 2.316011e-002
1.467563e+003, 2.325092e-002
1.469492e+003, 2.322198e-002
1.471420e+003, 2.320469e-002
1.473349e+003, 2.311074e-002
1.475277e+003, 2.286691e-002
1.477205e+003, 2.280304e-002
1.479134e+003, 2.267643e-002
1.481062e+003, 2.251569e-002
1.482991e+003, 2.229350e-002
1.484919e+003, 2.203501e-002
1.486848e+003, 2.190394e-002
1.488776e+003, 2.183591e-002
1.490705e+003, 2.168906e-002
1.492633e+003, 2.149193e-002
1.494562e+003, 2.145372e-002
1.496490e+003, 2.122743e-002
1.498419e+003, 2.079129e-002
1.500347e+003, 2.067210e-002
1.502276e+003, 2.049253e-002
1.504204e+003, 1.997085e-002
1.506132e+003, 1.985203e-002
1.508061e+003, 1.989339e-002
1.509989e+003, 1.965569e-002
1.511918e+003, 1.949656e-002
1.513846e+003, 1.930977e-002
1.515775e+003, 1.885778e-002
1.517703e+003, 1.851770e-002
1.519632e+003, 1.824067e-002
1.521560e+003, 1.804983e-002
1.523489e+003, 1.769089e-002
1.525417e+003, 1.734533e-002
1.527346e+003, 1.716476e-002
1.529274e+003, 1.684990e-002
1.531203e+003, 1.640415e-002
1.533131e+003, 1.619090e-002
1.535059e+003, 1.595647e-002
1.536988e+003, 1.569063e-002
1.538916e+003, 1.553161e-002
1.540845e+003, 1.542318e-002
1.542773e+003, 1.517648e-002
1.544702e+003, 1.484840e-002
1.546630e+003, 1.451554e-002
1.548559e+003, 1.415709e-002
1.550487e+003, 1.384459e-002
1.552416e+003, 1.358439e-002
1.554344e+003, 1.347165e-002
1.556273e+003, 1.328608e-002
1.558201e+003, 1.294287e-002
1.560130e+003, 1.285573e-002
1.562058e+003, 1.268568e-002
1.563986e+003, 1.247384e-002
1.565915e+003, 1.222409e-002
1.567843e+003, 1.194773e-002
1.569772e+003, 1.171072e-002
1.571700e+003, 1.150062e-002
1.573629e+003, 1.136015e-002
1.575557e+003, 1.128171e-002
1.577486e+003, 1.141866e-002
1.579414e+003, 1.131333e-002
1.581343e+003, 1.118874e-002
1.583271e+003, 1.101834e-002
1.585200e+003, 1.108124e-002
1.587128e+003, 1.110260e-002
1.589057e+003, 1.110415e-002
1.590985e+003, 1.096524e-002
1.592913e+003, 1.079929e-002
1.594842e+003, 1.079661e-002
1.596770e+003, 1.082637e-002
1.598699e+003, 1.101075e-002
1.600627e+003, 1.102348e-002
1.602556e+003, 1.080609e-002
1.604484e+003, 1.083613e-002
1.606413e+003, 1.085540e-002
1.608341e+003, 1.098746e-002
1.610270e+003, 1.090802e-002
1.612198e+003, 1.076632e-002
1.614127e+003, 1.084352e-002
1.616055e+003, 1.089758e-002
1.617984e+003, 1.101939e-002
1.619912e+003, 1.093305e-002
1.621840e+003, 1.072618e-002
1.623769e+003, 1.063411e-002
1.625697e+003, 1.072005e-002
1.627626e+003, 1.104724e-002
1.629554e+003, 1.093972e-002
1.631483e+003, 1.081606e-002
1.633411e+003, 1.086705e-002
1.635340e+003, 1.082182e-002
1.637268e+003, 1.085673e-002
1.639197e+003, 1.086062e-002
1.641125e+003, 1.066058e-002
1.643054e+003, 1.027050e-002
1.644982e+003, 1.034287e-002
1.646911e+003, 1.071596e-002
1.648839e+003, 1.040265e-002
1.650767e+003, 1.005252e-002
1.652696e+003, 1.008897e-002
1.654624e+003, 1.015677e-002
1.656553e+003, 9.945675e-003
1.658481e+003, 9.930062e-003
1.660410e+003, 9.743909e-003
1.662338e+003, 9.421321e-003
1.664267e+003, 9.157908e-003
1.666195e+003, 8.986488e-003
1.668124e+003, 9.020261e-003
1.670052e+003, 8.936148e-003
1.671981e+003, 8.648474e-003
1.673909e+003, 8.574891e-003
1.675838e+003, 8.604581e-003
1.677766e+003, 8.502229e-003
1.679694e+003, 8.433089e-003
1.681623e+003, 8.069653e-003
1.683551e+003, 7.927930e-003
1.685480e+003, 8.054690e-003
1.687408e+003, 7.608276e-003
1.689337e+003, 7.574105e-003
1.691265e+003, 7.566901e-003
1.693194e+003, 7.084907e-003
1.695122e+003, 6.879143e-003
1.697051e+003, 6.888376e-003
1.698979e+003, 6.694874e-003
1.700908e+003, 6.878501e-003
1.702836e+003, 6.469005e-003
1.704765e+003, 6.312751e-003
1.706693e+003, 6.157252e-003
1.708621e+003, 5.927491e-003
1.710550e+003, 5.910787e-003
1.712478e+003, 5.922055e-003
1.714407e+003, 5.695100e-003
1.716335e+003, 5.635395e-003
1.718264e+003, 5.797053e-003
1.720192e+003, 5.672819e-003
1.722121e+003, 5.519668e-003
1.724049e+003, 5.599556e-003
1.725978e+003, 5.508822e-003
1.727906e+003, 5.377898e-003
1.729835e+003, 5.393517e-003
1.731763e+003, 5.146437e-003
1.733692e+003, 4.611883e-003
1.735620e+003, 4.610851e-003
1.737548e+003, 4.570405e-003
1.739477e+003, 4.260594e-003
1.741405e+003, 3.839892e-003
1.743334e+003, 3.780216e-003
1.745262e+003, 4.106758e-003
1.747191e+003, 4.427029e-003
1.749119e+003, 4.382441e-003
1.751048e+003, 4.001601e-003
1.752976e+003, 4.263956e-003
1.754905e+003, 4.301987e-003
1.756833e+003, 4.207406e-003
1.758762e+003, 4.538173e-003
1.760690e+003, 4.830094e-003
1.762619e+003, 4.891349e-003
1.764547e+003, 4.734170e-003
1.766475e+003, 4.705117e-003
1.768404e+003, 4.655184e-003
1.770332e+003, 4.724103e-003
1.772261e+003, 4.814572e-003
1.774189e+003, 4.582941e-003
1.776118e+003, 4.684503e-003
1.778046e+003, 4.714377e-003
1.779975e+003, 4.379714e-003
1.781903e+003, 4.451293e-003
1.783832e+003, 4.697046e-003
1.785760e+003, 4.444130e-003
1.787689e+003, 4.265345e-003
1.789617e+003, 4.591806e-003
1.791546e+003, 4.539818e-003
1.793474e+003, 4.494729e-003
1.795402e+003, 4.369878e-003
1.797331e+003, 4.156770e-003
1.799259e+003, 3.922201e-003
1.801188e+003, 3.842752e-003
1.803116e+003, 3.954689e-003
1.805045e+003, 4.007475e-003
1.806973e+003, 4.199371e-003
1.808902e+003, 4.151520e-003
1.810830e+003, 3.789918e-003
1.812759e+003, 3.762308e-003
1.814687e+003, 3.781104e-003
1.816616e+003, 3.336971e-003
1.818544e+003, 3.151661e-003
1.820473e+003, 3.515245e-003
1.822401e+003, 3.657456e-003
1.824329e+003, 3.534684e-003
1.826258e+003, 3.464682e-003
1.828186e+003, 2.896628e-003
1.830115e+003, 2.968014e-003
1.832043e+003, 3.523230e-003
1.833972e+003, 3.704828e-003
1.835900e+003, 3.511037e-003
1.837829e+003, 3.124262e-003
1.839757e+003, 3.027875e-003
1.841686e+003, 3.052695e-003
1.843614e+003, 3.097959e-003
1.845543e+003, 3.356528e-003
1.847471e+003, 3.013773e-003
1.849400e+003, 2.193488e-003
1.851328e+003, 2.086948e-003
1.853256e+003, 2.170732e-003
1.855185e+003, 2.098996e-003
1.857113e+003, 2.249529e-003
1.859042e+003, 2.153653e-003
1.860970e+003, 2.153275e-003
1.862899e+003, 2.341509e-003
1.864827e+003, 2.329868e-003
1.866756e+003, 2.364046e-003
1.868684e+003, 2.410763e-003
1.870613e+003, 2.533164e-003
1.872541e+003, 2.408880e-003
1.874470e+003, 2.356529e-003
1.876398e+003, 2.388122e-003
1.878327e+003, 2.009334e-003
1.880255e+003, 1.671026e-003
1.882183e+003, 1.948247e-003
1.884112e+003, 1.944151e-003
1.886040e+003, 1.586961e-003
1.887969e+003, 1.752852e-003
1.889897e+003, 1.270198e-003
1.891826e+003, 1.198746e-003
1.893754e+003, 1.732664e-003
1.895683e+003, 1.843559e-003
1.897611e+003, 1.501593e-003
1.899540e+003, 1.460586e-003
1.901468e+003, 1.067800e-003
1.903397e+003, 7.040027e-004
1.905325e+003, 1.015945e-003
1.907254e+003, 5.748008e-004
1.909182e+003, -7.995131e-005
1.911110e+003, 3.433000e-004
1.913039e+003, 3.397100e-004
1.914967e+003, 4.692008e-004
1.916896e+003, 5.077859e-004
1.918824e+003, 8.837417e-004
1.920753e+003, 6.220589e-004
1.922681e+003, 5.988854e-004
1.924610e+003, 3.111499e-004
1.926538e+003, -4.194716e-004
1.928467e+003, 4.424462e-004
1.930395e+003, -8.154759e-005
1.932324e+003, -6.529863e-004
1.934252e+003, -6.738544e-004
1.936181e+003, -1.344982e-003
1.938109e+003, -2.003225e-003
1.940037e+003, -1.825702e-003
1.941966e+003, -1.498991e-003
1.943894e+003, -1.600543e-003
1.945823e+003, -2.137055e-003
1.947751e+003, -3.039308e-003
1.949680e+003, -3.649255e-003
1.951608e+003, -3.269519e-003
1.953537e+003, -2.666361e-003
1.955465e+003, -3.009248e-003
1.957394e+003, -3.323385e-003
1.959322e+003, -3.124253e-003
1.961251e+003, -3.817321e-003
1.963179e+003, -4.191011e-003
1.965108e+003, -3.729006e-003
1.967036e+003, -4.202453e-003
1.968964e+003, -3.669772e-003
1.970893e+003, -4.076957e-003
1.972821e+003, -4.548656e-003
1.974750e+003, -3.616985e-003
1.976678e+003, -3.092041e-003
1.978607e+003, -2.332891e-003
1.980535e+003, -2.099177e-003
1.982464e+003, -3.356808e-003
1.984392e+003, -3.025131e-003
1.986321e+003, -1.789016e-003
1.988249e+003, -3.201582e-003
1.990178e+003, -3.073171e-003
1.992106e+003, -1.664124e-003
1.994035e+003, -5.334778e-004
1.995963e+003, -4.109871e-004
1.997891e+003, -1.453082e-003
1.999820e+003, -1.050787e-003
2.001748e+003, -9.403537e-004
2.003677e+003, -2.383381e-003
2.005605e+003, -2.802835e-003
2.007534e+003, -2.062288e-003
2.009462e+003, -2.628141e-003
2.011391e+003, -4.351351e-003
2.013319e+003, -5.659036e-003
2.015248e+003, -5.593783e-003
2.017176e+003, -5.026208e-003
2.019105e+003, -3.734113e-003
2.021033e+003, -2.743259e-003
2.022962e+003, -2.819690e-003
2.024890e+003, -1.789505e-003
2.026818e+003, -1.752514e-003
2.028747e+003, -2.043732e-003
2.030675e+003, -1.787015e-003
2.032604e+003, -1.401139e-003
2.034532e+003, -1.197859e-003
2.036461e+003, -2.708605e-003
2.038389e+003, -3.400792e-003
2.040318e+003, -2.439637e-003
2.042246e+003, -2.449563e-003
2.044175e+003, -3.010349e-003
2.046103e+003, -1.831768e-003
2.048032e+003, -3.194000e-004
2.049960e+003, -2.580386e-004
2.051889e+003, 6.493305e-004
2.053817e+003, 1.279337e-003
2.055746e+003, 1.126279e-003
2.057674e+003, 1.371824e-003
2.059603e+003, 1.385650e-003
2.061531e+003, 6.625145e-004
2.063459e+003, 8.478771e-004
2.065388e+003, 2.415958e-003
2.067316e+003, 2.275537e-003
2.069245e+003, 1.289835e-003
2.071173e+003, 5.946567e-004
2.073102e+003, 6.618453e-004
2.075030e+003, 2.183483e-003
2.076959e+003, 2.388082e-003
2.078887e+003, 2.547510e-003
2.080816e+003, 2.437915e-003
2.082744e+003, 1.832882e-003
2.084673e+003, 2.009091e-003
2.086601e+003, 2.491689e-003
2.088530e+003, 2.785031e-003
2.090458e+003, 3.512172e-003
2.092386e+003, 3.233975e-003
2.094315e+003, 2.423742e-003
2.096243e+003, 9.993087e-004
2.098172e+003, 6.133346e-004
2.100100e+003, 4.547585e-004
2.102029e+003, 7.320513e-004
2.103957e+003, 1.238463e-003
2.105886e+003, 1.656272e-003
2.107814e+003, 2.013871e-003
2.109743e+003, 2.635466e-003
2.111671e+003, 2.549121e-003
2.113600e+003, 1.888869e-003
2.115528e+003, 1.796561e-003
2.117457e+003, 1.622937e-003
2.119385e+003, 1.160610e-003
2.121313e+003, 1.587652e-003
2.123242e+003, 1.626325e-003
2.125170e+003, 1.278794e-003
2.127099e+003, 1.657587e-004
2.129027e+003, -4.795800e-004
2.130956e+003, -2.042973e-003
2.132884e+003, -3.387029e-003
2.134813e+003, -2.458326e-003
2.136741e+003, -2.496082e-003
2.138670e+003, -2.228890e-003
2.140598e+003, -2.116434e-003
2.142527e+003, -1.804641e-003
2.144455e+003, -1.141907e-003
2.146384e+003, -1.575112e-003
2.148312e+003, -2.737515e-003
2.150240e+003, -1.758215e-003
2.152169e+003, -2.300425e-003
2.154097e+003, -5.992451e-003
2.156026e+003, -8.404727e-003
2.157954e+003, -6.636578e-003
2.159883e+003, -4.267786e-003
2.161811e+003, -2.562956e-003
2.163740e+003, 6.582676e-005
2.165668e+003, -3.796932e-004
2.167597e+003, -1.775340e-003
2.169525e+003, -1.918080e-003
2.171454e+003, -8.288712e-004
2.173382e+003, 7.893352e-004
2.175311e+003, 1.780791e-003
2.177239e+003, 8.902467e-004
2.179167e+003, -3.401238e-004
2.181096e+003, 1.028490e-003
2.183024e+003, 1.111058e-003
2.184953e+003, -1.940188e-004
2.186881e+003, -1.206503e-003
2.188810e+003, -4.089247e-004
2.190738e+003, 1.611475e-003
2.192667e+003, 1.696510e-003
2.194595e+003, 1.325055e-003
2.196524e+003, 7.867335e-004
2.198452e+003, 1.457237e-004
2.200381e+003, 1.582968e-003
2.202309e+003, 3.222052e-003
2.204238e+003, 2.349002e-003
2.206166e+003, 2.778549e-003
2.208094e+003, 3.475344e-003
2.210023e+003, 3.209104e-003
2.211951e+003, 2.642334e-003
2.213880e+003, 2.214194e-003
2.215808e+003, 3.786793e-003
2.217737e+003, 4.689821e-003
2.219665e+003, 4.061154e-003
2.221594e+003, 3.743391e-003
2.223522e+003, 4.089596e-003
2.225451e+003, 3.936072e-003
2.227379e+003, 3.647004e-003
2.229308e+003, 3.874133e-003
2.231236e+003, 4.405535e-003
2.233165e+003, 4.993173e-003
2.235093e+003, 4.461856e-003
2.237021e+003, 4.013044e-003
2.238950e+003, 4.772634e-003
2.240878e+003, 5.247835e-003
2.242807e+003, 5.459196e-003
2.244735e+003, 3.782462e-003
2.246664e+003, 3.636531e-003
2.248592e+003, 4.737104e-003
2.250521e+003, 4.618573e-003
2.252449e+003, 5.583358e-003
2.254378e+003, 5.096951e-003
2.256306e+003, 4.095700e-003
2.258235e+003, 4.444037e-003
2.260163e+003, 4.753619e-003
2.262092e+003, 4.240636e-003
2.264020e+003, 4.593293e-003
2.265948e+003, 4.716262e-003
2.267877e+003, 4.374221e-003
2.269805e+003, 4.534932e-003
2.271734e+003, 4.532656e-003
2.273662e+003, 4.621310e-003
2.275591e+003, 4.739178e-003
2.277519e+003, 4.784797e-003
2.279448e+003, 5.489954e-003
2.281376e+003, 5.434893e-003
2.283305e+003, 5.725509e-003
2.285233e+003, 6.300449e-003
2.287162e+003, 6.319452e-003
2.289090e+003, 6.455887e-003
2.291019e+003, 6.638798e-003
2.292947e+003, 6.463790e-003
2.294875e+003, 6.023074e-003
2.296804e+003, 6.587273e-003
2.298732e+003, 6.721202e-003
2.300661e+003, 6.741785e-003
2.302589e+003, 6.415620e-003
2.304518e+003, 6.105280e-003
2.306446e+003, 7.254228e-003
2.308375e+003, 8.007535e-003
2.310303e+003, 7.982640e-003
2.312232e+003, 7.630759e-003
2.314160e+003, 7.129963e-003
2.316089e+003, 7.250790e-003
2.318017e+003, 7.919612e-003
2.319946e+003, 8.287323e-003
2.321874e+003, 8.400393e-003
2.323802e+003, 8.501569e-003
2.325731e+003, 7.832049e-003
2.327659e+003, 7.343820e-003
2.329588e+003, 6.852569e-003
2.331516e+003, 6.877491e-003
2.333445e+003, 7.142188e-003
2.335373e+003, 6.761761e-003
2.337302e+003, 6.696183e-003
2.339230e+003, 7.081817e-003
2.341159e+003, 7.053334e-003
2.343087e+003, 6.866096e-003
2.345016e+003, 6.956307e-003
2.346944e+003, 7.432187e-003
2.348873e+003, 7.276755e-003
2.350801e+003, 6.890859e-003
2.352729e+003, 6.592299e-003
2.354658e+003, 6.382061e-003
2.356586e+003, 6.297341e-003
2.358515e+003, 7.012819e-003
2.360443e+003, 7.169056e-003
2.362372e+003, 6.945063e-003
2.364300e+003, 7.030461e-003
2.366229e+003, 7.102819e-003
2.368157e+003, 6.819750e-003
2.370086e+003, 6.773971e-003
2.372014e+003, 7.050376e-003
2.373942e+003, 6.656430e-003
2.375871e+003, 6.749599e-003
2.377799e+003, 7.397924e-003
2.379728e+003, 7.148369e-003
2.381656e+003, 6.690860e-003
2.383585e+003, 6.575261e-003
2.385513e+003, 6.345982e-003
2.387442e+003, 6.612889e-003
2.389370e+003, 6.478455e-003
2.391299e+003, 6.428979e-003
2.393227e+003, 6.627110e-003
2.395156e+003, 6.895350e-003
2.397084e+003, 7.520151e-003
2.399012e+003, 7.022845e-003
2.400941e+003, 6.553437e-003
2.402869e+003, 6.535156e-003
2.404798e+003, 6.656750e-003
2.406726e+003, 6.805196e-003
2.408655e+003, 7.156410e-003
2.410583e+003, 6.600959e-003
2.412512e+003, 6.456318e-003
2.414440e+003, 6.939859e-003
2.416369e+003, 7.318350e-003
2.418297e+003, 7.499782e-003
2.420226e+003, 7.057417e-003
2.422154e+003, 7.194861e-003
2.424083e+003, 7.114477e-003
2.426011e+003, 6.756602e-003
2.427939e+003, 6.660228e-003
2.429868e+003, 7.262022e-003
2.431796e+003, 7.697626e-003
2.433725e+003, 7.658168e-003
2.435653e+003, 7.638065e-003
2.437582e+003, 7.455808e-003
2.439510e+003, 7.982632e-003
2.441439e+003, 8.119605e-003
2.443367e+003, 7.400954e-003
2.445296e+003, 6.537516e-003
2.447224e+003, 6.981868e-003
2.449153e+003, 7.998059e-003
2.451081e+003, 7.896209e-003
2.453010e+003, 7.711470e-003
2.454938e+003, 7.934775e-003
2.456866e+003, 8.466844e-003
2.458795e+003, 8.724113e-003
2.460723e+003, 8.227247e-003
2.462652e+003, 7.695802e-003
2.464580e+003, 7.753718e-003
2.466509e+003, 7.631603e-003
2.468437e+003, 7.506494e-003
2.470366e+003, 7.756131e-003
2.472294e+003, 8.365134e-003
2.474223e+003, 8.297955e-003
2.476151e+003, 8.150316e-003
2.478080e+003, 9.005265e-003
2.480008e+003, 7.894208e-003
2.481937e+003, 7.080031e-003
2.483865e+003, 7.805590e-003
2.485793e+003, 7.748383e-003
2.487722e+003, 7.698973e-003
2.489650e+003, 8.516017e-003
2.491579e+003, 8.403203e-003
2.493507e+003, 8.287271e-003
2.495436e+003, 8.175030e-003
2.497364e+003, 7.918684e-003
2.499293e+003, 7.938842e-003
2.501221e+003, 7.790553e-003
2.503150e+003, 7.580927e-003
2.505078e+003, 7.426008e-003
2.507007e+003, 7.680271e-003
2.508935e+003, 7.027086e-003
2.510864e+003, 7.246324e-003
2.512792e+003, 7.941956e-003
2.514720e+003, 7.981712e-003
2.516649e+003, 7.585682e-003
2.518577e+003, 7.514589e-003
2.520506e+003, 7.236185e-003
2.522434e+003, 7.100814e-003
2.524363e+003, 8.064471e-003
2.526291e+003, 8.872317e-003
2.528220e+003, 8.759716e-003
2.530148e+003, 7.476690e-003
2.532077e+003, 7.662386e-003
2.534005e+003, 8.297157e-003
2.535934e+003, 8.319692e-003
2.537862e+003, 8.027607e-003
2.539791e+003, 7.918186e-003
2.541719e+003, 8.391156e-003
2.543647e+003, 8.987904e-003
2.545576e+003, 8.110755e-003
2.547504e+003, 8.311105e-003
2.549433e+003, 9.105818e-003
2.551361e+003, 9.174434e-003
2.553290e+003, 8.987390e-003
2.555218e+003, 7.880768e-003
2.557147e+003, 7.343871e-003
2.559075e+003, 8.165691e-003
2.561004e+003, 8.639777e-003
2.562932e+003, 8.798153e-003
2.564861e+003, 8.607803e-003
2.566789e+003, 8.123624e-003
2.568718e+003, 8.269683e-003
2.570646e+003, 8.583268e-003
2.572574e+003, 8.492461e-003
2.574503e+003, 8.986460e-003
2.576431e+003, 9.649551e-003
2.578360e+003, 8.923132e-003
2.580288e+003, 8.075149e-003
2.582217e+003, 8.172153e-003
2.584145e+003, 8.772885e-003
2.586074e+003, 9.112502e-003
2.588002e+003, 8.804045e-003
2.589931e+003, 8.124909e-003
2.591859e+003, 8.293324e-003
2.593788e+003, 8.575895e-003
2.595716e+003, 8.685789e-003
2.597645e+003, 8.924012e-003
2.599573e+003, 8.741654e-003
2.601501e+003, 8.385612e-003
2.603430e+003, 8.427778e-003
2.605358e+003, 8.910844e-003
2.607287e+003, 8.729858e-003
2.609215e+003, 9.058424e-003
2.611144e+003, 9.597173e-003
2.613072e+003, 9.095971e-003
2.615001e+003, 8.697206e-003
2.616929e+003, 8.379755e-003
2.618858e+003, 8.599561e-003
2.620786e+003, 9.073894e-003
2.622715e+003, 8.748998e-003
2.624643e+003, 8.202210e-003
2.626572e+003, 8.444086e-003
2.628500e+003, 9.183427e-003
2.630428e+003, 9.118210e-003
2.632357e+003, 9.251813e-003
2.634285e+003, 9.851201e-003
2.636214e+003, 9.501611e-003
2.638142e+003, 8.588724e-003
2.640071e+003, 8.492675e-003
2.641999e+003, 8.930922e-003
2.643928e+003, 9.698735e-003
2.645856e+003, 9.451218e-003
2.647785e+003, 9.218189e-003
2.649713e+003, 9.398784e-003
2.651642e+003, 9.635164e-003
2.653570e+003, 9.772900e-003
2.655499e+003, 9.835577e-003
2.657427e+003, 9.822033e-003
2.659355e+003, 9.568257e-003
2.661284e+003, 8.833176e-003
2.663212e+003, 8.760622e-003
2.665141e+003, 9.205128e-003
2.667069e+003, 9.402884e-003
2.668998e+003, 9.288115e-003
2.670926e+003, 8.873836e-003
2.672855e+003, 8.704017e-003
2.674783e+003, 8.659963e-003
2.676712e+003, 9.162144e-003
2.678640e+003, 9.387717e-003
2.680569e+003, 9.333342e-003
2.682497e+003, 9.441419e-003
2.684426e+003, 9.231356e-003
2.686354e+003, 9.352252e-003
2.688282e+003, 9.350575e-003
2.690211e+003, 9.113351e-003
2.692139e+003, 9.704231e-003
2.694068e+003, 1.000138e-002
2.695996e+003, 9.646721e-003
2.697925e+003, 9.317569e-003
2.699853e+003, 9.105079e-003
2.701782e+003, 8.690324e-003
2.703710e+003, 8.923011e-003
2.705639e+003, 8.984129e-003
2.707567e+003, 8.802628e-003
2.709496e+003, 8.861720e-003
2.711424e+003, 8.793299e-003
2.713353e+003, 9.021882e-003
2.715281e+003, 8.582440e-003
2.717209e+003, 8.640044e-003
2.719138e+003, 9.211275e-003
2.721066e+003, 9.467437e-003
2.722995e+003, 9.317080e-003
2.724923e+003, 9.131220e-003
2.726852e+003, 9.380312e-003
2.728780e+003, 9.714346e-003
2.730709e+003, 9.363761e-003
2.732637e+003, 9.422036e-003
2.734566e+003, 9.346557e-003
2.736494e+003, 9.499812e-003
2.738423e+003, 9.812501e-003
2.740351e+003, 1.030442e-002
2.742280e+003, 1.002489e-002
2.744208e+003, 9.347339e-003
2.746136e+003, 9.332729e-003
2.748065e+003, 9.540919e-003
2.749993e+003, 9.705991e-003
2.751922e+003, 1.010866e-002
2.753850e+003, 9.831378e-003
2.755779e+003, 9.990719e-003
2.757707e+003, 1.039490e-002
2.759636e+003, 1.064300e-002
2.761564e+003, 1.067358e-002
2.763493e+003, 1.012006e-002
2.765421e+003, 1.007271e-002
2.767350e+003, 9.900126e-003
2.769278e+003, 9.506667e-003
2.771207e+003, 9.899945e-003
2.773135e+003, 1.037848e-002
2.775063e+003, 1.073961e-002
2.776992e+003, 1.065498e-002
2.778920e+003, 1.016627e-002
2.780849e+003, 1.003324e-002
2.782777e+003, 1.063278e-002
2.784706e+003, 1.080469e-002
2.786634e+003, 1.077366e-002
2.788563e+003, 1.062212e-002
2.790491e+003, 1.063091e-002
2.792420e+003, 1.024052e-002
2.794348e+003, 9.643186e-003
2.796277e+003, 1.016210e-002
2.798205e+003, 1.049642e-002
2.800134e+003, 1.022569e-002
2.802062e+003, 1.028770e-002
2.803990e+003, 9.983764e-003
2.805919e+003, 9.951267e-003
2.807847e+003, 1.022509e-002
2.809776e+003, 1.011469e-002
2.811704e+003, 1.026102e-002
2.813633e+003, 1.024384e-002
2.815561e+003, 1.001602e-002
2.817490e+003, 1.016653e-002
2.819418e+003, 1.039886e-002
2.821347e+003, 1.045403e-002
2.823275e+003, 1.016688e-002
2.825204e+003, 1.016746e-002
2.827132e+003, 1.012695e-002
2.829061e+003, 1.049099e-002
2.830989e+003, 1.077201e-002
2.832917e+003, 1.028654e-002
2.834846e+003, 1.010543e-002
2.836774e+003, 1.046317e-002
2.838703e+003, 1.030453e-002
2.840631e+003, 9.971524e-003
2.842560e+003, 9.950129e-003
2.844488e+003, 1.012789e-002
2.846417e+003, 1.025127e-002
2.848345e+003, 1.052143e-002
2.850274e+003, 9.780668e-003
2.852202e+003, 9.288090e-003
2.854131e+003, 9.588837e-003
2.856059e+003, 9.903926e-003
2.857988e+003, 1.062405e-002
2.859916e+003, 1.082076e-002
2.861844e+003, 1.100003e-002
2.863773e+003, 1.058582e-002
2.865701e+003, 1.039489e-002
2.867630e+003, 1.053057e-002
2.869558e+003, 1.025818e-002
2.871487e+003, 1.057529e-002
2.873415e+003, 1.081309e-002
2.875344e+003, 1.126341e-002
2.877272e+003, 1.185523e-002
2.879201e+003, 1.183497e-002
2.881129e+003, 1.153170e-002
2.883058e+003, 1.128253e-002
2.884986e+003, 1.072210e-002
2.886915e+003, 1.097151e-002
2.888843e+003, 1.093508e-002
2.890771e+003, 1.040058e-002
2.892700e+003, 1.018246e-002
2.894628e+003, 1.058126e-002
2.896557e+003, 1.142735e-002
2.898485e+003, 1.154890e-002
2.900414e+003, 1.092257e-002
2.902342e+003, 1.092988e-002
2.904271e+003, 1.090202e-002
2.906199e+003, 1.117532e-002
2.908128e+003, 1.144733e-002
2.910056e+003, 1.121299e-002
2.911985e+003, 1.076198e-002
2.913913e+003, 1.080034e-002
2.915842e+003, 1.098821e-002
2.917770e+003, 1.104841e-002
2.919698e+003, 1.110107e-002
2.921627e+003, 1.101274e-002
2.923555e+003, 1.078247e-002
2.925484e+003, 1.114957e-002
2.927412e+003, 1.105115e-002
2.929341e+003, 1.061214e-002
2.931269e+003, 1.126872e-002
2.933198e+003, 1.174681e-002
2.935126e+003, 1.176942e-002
2.937055e+003, 1.142225e-002
2.938983e+003, 1.111041e-002
2.940912e+003, 1.150596e-002
2.942840e+003, 1.245430e-002
2.944769e+003, 1.206512e-002
2.946697e+003, 1.139230e-002
2.948625e+003, 1.117116e-002
2.950554e+003, 1.123175e-002
2.952482e+003, 1.176355e-002
2.954411e+003, 1.257603e-002
2.956339e+003, 1.262765e-002
2.958268e+003, 1.261687e-002
2.960196e+003, 1.212109e-002
2.962125e+003, 1.212199e-002
2.964053e+003, 1.276582e-002
2.965982e+003, 1.286634e-002
2.967910e+003, 1.258930e-002
2.969839e+003, 1.298136e-002
2.971767e+003, 1.328416e-002
2.973696e+003, 1.357263e-002
2.975624e+003, 1.360319e-002
2.977552e+003, 1.326300e-002
2.979481e+003, 1.333007e-002
2.981409e+003, 1.341283e-002
2.983338e+003, 1.273781e-002
2.985266e+003, 1.258860e-002
2.987195e+003, 1.277554e-002
2.989123e+003, 1.330990e-002
2.991052e+003, 1.380551e-002
2.992980e+003, 1.298946e-002
2.994909e+003, 1.307764e-002
2.996837e+003, 1.310172e-002
2.998766e+003, 1.373134e-002
3.000694e+003, 1.469736e-002
3.002623e+003, 1.418062e-002
3.004551e+003, 1.308179e-002
3.006479e+003, 1.317330e-002
3.008408e+003, 1.338907e-002
3.010336e+003, 1.352025e-002
3.012265e+003, 1.414206e-002
3.014193e+003, 1.432841e-002
3.016122e+003, 1.393109e-002
3.018050e+003, 1.355346e-002
3.019979e+003, 1.321455e-002
3.021907e+003, 1.373021e-002
3.023836e+003, 1.402599e-002
3.025764e+003, 1.333642e-002
3.027693e+003, 1.295495e-002
3.029621e+003, 1.321661e-002
3.031550e+003, 1.362466e-002
3.033478e+003, 1.438806e-002
3.035406e+003, 1.423965e-002
3.037335e+003, 1.406199e-002
3.039263e+003, 1.444427e-002
3.041192e+003, 1.446890e-002
3.043120e+003, 1.433132e-002
3.045049e+003, 1.409182e-002
3.046977e+003, 1.374493e-002
3.048906e+003, 1.400577e-002
3.050834e+003, 1.468060e-002
3.052763e+003, 1.503260e-002
3.054691e+003, 1.549687e-002
3.056620e+003, 1.530198e-002
3.058548e+003, 1.475987e-002
3.060477e+003, 1.439317e-002
3.062405e+003, 1.373814e-002
3.064333e+003, 1.431480e-002
3.066262e+003, 1.533438e-002
3.068190e+003, 1.548560e-002
3.070119e+003, 1.555971e-002
3.072047e+003, 1.529790e-002
3.073976e+003, 1.550008e-002
3.075904e+003, 1.587579e-002
3.077833e+003, 1.604487e-002
3.079761e+003, 1.545940e-002
3.081690e+003, 1.567916e-002
3.083618e+003, 1.653620e-002
3.085547e+003, 1.663738e-002
3.087475e+003, 1.568688e-002
3.089404e+003, 1.627206e-002
3.091332e+003, 1.747944e-002
3.093260e+003, 1.714345e-002
3.095189e+003, 1.624203e-002
3.097117e+003, 1.614162e-002
3.099046e+003, 1.562186e-002
3.100974e+003, 1.611474e-002
3.102903e+003, 1.721056e-002
3.104831e+003, 1.695769e-002
3.106760e+003, 1.661360e-002
3.108688e+003, 1.662314e-002
3.110617e+003, 1.627274e-002
3.112545e+003, 1.511497e-002
3.114474e+003, 1.543233e-002
3.116402e+003, 1.628017e-002
3.118331e+003, 1.687439e-002
3.120259e+003, 1.775560e-002
3.122188e+003, 1.769113e-002
3.124116e+003, 1.667575e-002
3.126044e+003, 1.638976e-002
3.127973e+003, 1.632213e-002
3.129901e+003, 1.613978e-002
3.131830e+003, 1.683383e-002
3.133758e+003, 1.737438e-002
3.135687e+003, 1.727208e-002
3.137615e+003, 1.720095e-002
3.139544e+003, 1.668006e-002
3.141472e+003, 1.609760e-002
3.143401e+003, 1.679701e-002
3.145329e+003, 1.806000e-002
3.147258e+003, 1.850229e-002
3.149186e+003, 1.703299e-002
3.151115e+003, 1.687187e-002
3.153043e+003, 1.797256e-002
3.154971e+003, 1.774291e-002
3.156900e+003, 1.777296e-002
3.158828e+003, 1.765612e-002
3.160757e+003, 1.779749e-002
3.162685e+003, 1.921640e-002
3.164614e+003, 1.801323e-002
3.166542e+003, 1.751329e-002
3.168471e+003, 1.883738e-002
3.170399e+003, 1.898821e-002
3.172328e+003, 1.933784e-002
3.174256e+003, 1.910457e-002
3.176185e+003, 1.839199e-002
3.178113e+003, 1.902914e-002
3.180042e+003, 1.975473e-002
3.181970e+003, 1.922878e-002
3.183898e+003, 1.878385e-002
3.185827e+003, 1.905437e-002
3.187755e+003, 1.867279e-002
3.189684e+003, 1.880554e-002
3.191612e+003, 1.821281e-002
3.193541e+003, 1.759043e-002
3.195469e+003, 1.803328e-002
3.197398e+003, 1.848961e-002
3.199326e+003, 1.889983e-002
3.201255e+003, 1.943000e-002
3.203183e+003, 1.921459e-002
3.205112e+003, 1.893532e-002
3.207040e+003, 1.898734e-002
3.208969e+003, 1.898225e-002
3.210897e+003, 1.829656e-002
3.212825e+003, 1.857696e-002
3.214754e+003, 1.944341e-002
3.216682e+003, 1.896193e-002
3.218611e+003, 1.765610e-002
3.220539e+003, 1.807899e-002
3.222468e+003, 1.928850e-002
3.224396e+003, 2.001362e-002
3.226325e+003, 2.000179e-002
3.228253e+003, 1.969747e-002
3.230182e+003, 1.961897e-002
3.232110e+003, 1.910413e-002
3.234039e+003, 1.899412e-002
3.235967e+003, 2.008150e-002
3.237896e+003, 2.079867e-002
3.239824e+003, 2.073589e-002
3.241752e+003, 1.999907e-002
3.243681e+003, 1.904418e-002
3.245609e+003, 1.837131e-002
3.247538e+003, 1.955709e-002
3.249466e+003, 2.042319e-002
3.251395e+003, 2.068271e-002
3.253323e+003, 2.068810e-002
3.255252e+003, 1.995062e-002
3.257180e+003, 1.998079e-002
3.259109e+003, 2.053947e-002
3.261037e+003, 2.108389e-002
3.262966e+003, 2.142228e-002
3.264894e+003, 2.129178e-002
3.266823e+003, 2.150345e-002
3.268751e+003, 2.091859e-002
3.270679e+003, 2.024870e-002
3.272608e+003, 2.013331e-002
3.274536e+003, 2.033882e-002
3.276465e+003, 2.113131e-002
3.278393e+003, 2.152288e-002
3.280322e+003, 2.110054e-002
3.282250e+003, 2.094752e-002
3.284179e+003, 2.140038e-002
3.286107e+003, 2.142730e-002
3.288036e+003, 2.090287e-002
3.289964e+003, 2.083757e-002
3.291893e+003, 2.040446e-002
3.293821e+003, 2.083797e-002
3.295750e+003, 2.128143e-002
3.297678e+003, 2.233857e-002
3.299606e+003, 2.200173e-002
3.301535e+003, 2.095883e-002
3.303463e+003, 2.039455e-002
3.305392e+003, 2.010716e-002
3.307320e+003, 2.082075e-002
3.309249e+003, 2.209221e-002
3.311177e+003, 2.144195e-002
3.313106e+003, 2.076956e-002
3.315034e+003, 2.112791e-002
3.316963e+003, 2.164433e-002
3.318891e+003, 2.232563e-002
3.320820e+003, 2.347278e-002
3.322748e+003, 2.327028e-002
3.324677e+003, 2.225900e-002
3.326605e+003, 2.196985e-002
3.328533e+003, 2.183790e-002
3.330462e+003, 2.076966e-002
3.332390e+003, 2.017691e-002
3.334319e+003, 2.061656e-002
3.336247e+003, 2.201520e-002
3.338176e+003, 2.198951e-002
3.340104e+003, 2.107978e-002
3.342033e+003, 2.165614e-002
3.343961e+003, 2.193403e-002
3.345890e+003, 2.136631e-002
3.347818e+003, 2.129389e-002
3.349747e+003, 2.181295e-002
3.351675e+003, 2.169592e-002
3.353604e+003, 2.101397e-002
3.355532e+003, 2.091837e-002
3.357460e+003, 2.164506e-002
3.359389e+003, 2.217126e-002
3.361317e+003, 2.146821e-002
3.363246e+003, 2.053084e-002
3.365174e+003, 2.077750e-002
3.367103e+003, 2.140678e-002
3.369031e+003, 2.170345e-002
3.370960e+003, 2.139110e-002
3.372888e+003, 2.113315e-002
3.374817e+003, 2.132837e-002
3.376745e+003, 2.063838e-002
3.378674e+003, 2.021452e-002
3.380602e+003, 1.999282e-002
3.382531e+003, 2.082113e-002
3.384459e+003, 2.184612e-002
3.386387e+003, 2.124184e-002
3.388316e+003, 2.155843e-002
3.390244e+003, 2.246535e-002
3.392173e+003, 2.178854e-002
3.394101e+003, 2.175189e-002
3.396030e+003, 2.033462e-002
3.397958e+003, 1.955917e-002
3.399887e+003, 1.980593e-002
3.401815e+003, 2.035274e-002
3.403744e+003, 2.238698e-002
3.405672e+003, 2.319800e-002
3.407601e+003, 2.183354e-002
3.409529e+003, 2.043086e-002
3.411458e+003, 1.986902e-002
3.413386e+003, 2.124685e-002
3.415314e+003, 2.252608e-002
3.417243e+003, 2.255450e-002
3.419171e+003, 2.221117e-002
3.421100e+003, 2.223973e-002
3.423028e+003, 2.227097e-002
3.424957e+003, 2.198433e-002
3.426885e+003, 2.224855e-002
3.428814e+003, 2.263059e-002
3.430742e+003, 2.215062e-002
3.432671e+003, 2.146384e-002
3.434599e+003, 2.128550e-002
3.436528e+003, 2.089822e-002
3.438456e+003, 2.125889e-002
3.440385e+003, 2.204300e-002
3.442313e+003, 2.165935e-002
3.444241e+003, 2.077861e-002
3.446170e+003, 1.982430e-002
3.448098e+003, 1.994076e-002
3.450027e+003, 2.206573e-002
3.451955e+003, 2.292028e-002
3.453884e+003, 2.133183e-002
3.455812e+003, 2.006232e-002
3.457741e+003, 2.054815e-002
3.459669e+003, 2.132320e-002
3.461598e+003, 2.138228e-002
3.463526e+003, 2.045195e-002
3.465455e+003, 1.948613e-002
3.467383e+003, 1.993131e-002
3.469312e+003, 2.152230e-002
3.471240e+003, 2.162519e-002
3.473168e+003, 2.053213e-002
3.475097e+003, 2.012691e-002
3.477025e+003, 2.028058e-002
3.478954e+003, 2.015794e-002
3.480882e+003, 1.991931e-002
3.482811e+003, 1.934046e-002
3.484739e+003, 1.962429e-002
3.486668e+003, 1.989274e-002
3.488596e+003, 2.092719e-002
3.490525e+003, 2.075307e-002
3.492453e+003, 2.072564e-002
3.494382e+003, 2.025782e-002
3.496310e+003, 1.885961e-002
3.498239e+003, 1.920375e-002
3.500167e+003, 2.096683e-002
3.502095e+003, 2.122773e-002
3.504024e+003, 2.125034e-002
3.505952e+003, 2.076260e-002
3.507881e+003, 2.011703e-002
3.509809e+003, 2.000382e-002
3.511738e+003, 1.986818e-002
3.513666e+003, 1.909303e-002
3.515595e+003, 2.115447e-002
3.517523e+003, 2.116380e-002
3.519452e+003, 1.884596e-002
3.521380e+003, 1.873158e-002
3.523309e+003, 2.076475e-002
3.525237e+003, 2.051252e-002
3.527166e+003, 1.934236e-002
3.529094e+003, 1.816590e-002
3.531022e+003, 1.833282e-002
3.532951e+003, 1.892111e-002
3.534879e+003, 1.956915e-002
3.536808e+003, 1.989183e-002
3.538736e+003, 1.988163e-002
3.540665e+003, 1.957071e-002
3.542593e+003, 1.993211e-002
3.544522e+003, 1.811335e-002
3.546450e+003, 1.696868e-002
3.548379e+003, 1.763061e-002
3.550307e+003, 1.813133e-002
3.552236e+003, 1.853609e-002
3.554164e+003, 1.877811e-002
3.556093e+003, 1.970941e-002
3.558021e+003, 1.882418e-002
3.559949e+003, 1.836711e-002
3.561878e+003, 1.871213e-002
3.563806e+003, 1.827479e-002
3.565735e+003, 1.743132e-002
3.567663e+003, 1.791446e-002
3.569592e+003, 1.799765e-002
3.571520e+003, 1.622000e-002
3.573449e+003, 1.636225e-002
3.575377e+003, 1.786875e-002
3.577306e+003, 1.659048e-002
3.579234e+003, 1.492555e-002
3.581163e+003, 1.563874e-002
3.583091e+003, 1.691213e-002
3.585020e+003, 1.745788e-002
3.586948e+003, 1.661190e-002
3.588876e+003, 1.586518e-002
3.590805e+003, 1.715247e-002
3.592733e+003, 1.743686e-002
3.594662e+003, 1.622187e-002
3.596590e+003, 1.669509e-002
3.598519e+003, 1.642521e-002
3.600447e+003, 1.590239e-002
3.602376e+003, 1.605379e-002
3.604304e+003, 1.530780e-002
3.606233e+003, 1.436964e-002
3.608161e+003, 1.390752e-002
3.610090e+003, 1.411910e-002
3.612018e+003, 1.470709e-002
3.613947e+003, 1.643366e-002
3.615875e+003, 1.514689e-002
3.617803e+003, 1.459999e-002
3.619732e+003, 1.529165e-002
3.621660e+003, 1.514845e-002
3.623589e+003, 1.395347e-002
3.625517e+003, 1.482448e-002
3.627446e+003, 1.571457e-002
3.629374e+003, 1.482237e-002
3.631303e+003, 1.487931e-002
3.633231e+003, 1.505854e-002
3.635160e+003, 1.338209e-002
3.637088e+003, 1.139170e-002
3.639017e+003, 1.293638e-002
3.640945e+003, 1.436678e-002
3.642874e+003, 1.364265e-002
3.644802e+003, 1.259142e-002
3.646730e+003, 1.282363e-002
3.648659e+003, 1.449061e-002
3.650587e+003, 1.296694e-002
3.652516e+003, 1.155247e-002
3.654444e+003, 1.266753e-002
3.656373e+003, 1.258863e-002
3.658301e+003, 1.118948e-002
3.660230e+003, 1.168179e-002
3.662158e+003, 1.293930e-002
3.664087e+003, 1.320607e-002
3.666015e+003, 1.452375e-002
3.667944e+003, 1.573738e-002
3.669872e+003, 1.484846e-002
3.671801e+003, 1.285041e-002
3.673729e+003, 1.289034e-002
3.675657e+003, 1.339231e-002
3.677586e+003, 1.244079e-002
3.679514e+003, 1.240804e-002
3.681443e+003, 1.204704e-002
3.683371e+003, 1.163817e-002
3.685300e+003, 1.151003e-002
3.687228e+003, 1.145751e-002
3.689157e+003, 1.117542e-002
3.691085e+003, 1.076287e-002
3.693014e+003, 1.139775e-002
3.694942e+003, 1.351838e-002
3.696871e+003, 1.435000e-002
3.698799e+003, 1.501345e-002
3.700728e+003, 1.321305e-002
3.702656e+003, 1.079571e-002
3.704584e+003, 1.185407e-002
3.706513e+003, 1.374876e-002
3.708441e+003, 1.343528e-002
3.710370e+003, 1.260433e-002
3.712298e+003, 1.213702e-002
3.714227e+003, 1.157408e-002
3.716155e+003, 1.202943e-002
3.718084e+003, 1.188197e-002
3.720012e+003, 1.046889e-002
3.721941e+003, 1.148635e-002
3.723869e+003, 1.361231e-002
3.725798e+003, 1.370880e-002
3.727726e+003, 1.160868e-002
3.729655e+003, 1.074103e-002
3.731583e+003, 1.044379e-002
3.733511e+003, 1.073718e-002
3.735440e+003, 1.268074e-002
3.737368e+003, 1.299257e-002
3.739297e+003, 1.179656e-002
3.741225e+003, 1.256808e-002
3.743154e+003, 1.275502e-002
3.745082e+003, 1.257345e-002
3.747011e+003, 1.311094e-002
3.748939e+003, 1.362243e-002
3.750868e+003, 1.247874e-002
3.752796e+003, 1.148117e-002
3.754725e+003, 1.168258e-002
3.756653e+003, 1.311505e-002
3.758582e+003, 1.356424e-002
3.760510e+003, 1.116704e-002
3.762438e+003, 1.021271e-002
3.764367e+003, 1.117034e-002
3.766295e+003, 1.111119e-002
3.768224e+003, 1.148472e-002
3.770152e+003, 1.317753e-002
3.772081e+003, 1.285953e-002
3.774009e+003, 1.098737e-002
3.775938e+003, 1.155625e-002
3.777866e+003, 1.196421e-002
3.779795e+003, 1.129151e-002
3.781723e+003, 1.164002e-002
3.783652e+003, 1.150845e-002
3.785580e+003, 1.279398e-002
3.787509e+003, 1.281542e-002
3.789437e+003, 1.193846e-002
3.791365e+003, 1.251378e-002
3.793294e+003, 1.255190e-002
3.795222e+003, 1.148223e-002
3.797151e+003, 1.161914e-002
3.799079e+003, 1.221698e-002
3.801008e+003, 1.105462e-002
3.802936e+003, 9.015358e-003
3.804865e+003, 1.039588e-002
3.806793e+003, 1.152565e-002
3.808722e+003, 1.056669e-002
3.810650e+003, 1.254650e-002
3.812579e+003, 1.346607e-002
3.814507e+003, 1.216334e-002
3.816436e+003, 1.168790e-002
3.818364e+003, 1.166051e-002
3.820292e+003, 1.268284e-002
3.822221e+003, 1.238540e-002
3.824149e+003, 1.108548e-002
3.826078e+003, 1.108807e-002
3.828006e+003, 1.076202e-002
3.829935e+003, 1.154236e-002
3.831863e+003, 1.197830e-002
3.833792e+003, 1.225961e-002
3.835720e+003, 1.238887e-002
3.837649e+003, 1.285403e-002
3.839577e+003, 1.213047e-002
3.841506e+003, 1.208586e-002
3.843434e+003, 1.263435e-002
3.845363e+003, 1.191161e-002
3.847291e+003, 1.099319e-002
3.849219e+003, 1.017226e-002
3.851148e+003, 1.000670e-002
3.853076e+003, 9.338683e-003
3.855005e+003, 1.072392e-002
3.856933e+003, 1.289599e-002
3.858862e+003, 1.160828e-002
3.860790e+003, 9.911686e-003
3.862719e+003, 9.591529e-003
3.864647e+003, 1.086037e-002
3.866576e+003, 1.269459e-002
3.868504e+003, 1.243808e-002
3.870433e+003, 1.138341e-002
3.872361e+003, 1.081819e-002
3.874290e+003, 1.006115e-002
3.876218e+003, 9.770019e-003
3.878146e+003, 1.149908e-002
3.880075e+003, 1.225090e-002
3.882003e+003, 1.041368e-002
3.883932e+003, 1.016707e-002
3.885860e+003, 1.098187e-002
3.887789e+003, 1.212166e-002
3.889717e+003, 1.090945e-002
3.891646e+003, 8.490887e-003
3.893574e+003, 9.237804e-003
3.895503e+003, 1.114685e-002
3.897431e+003, 1.113133e-002
3.899360e+003, 1.201594e-002
3.901288e+003, 1.225549e-002
3.903217e+003, 1.035074e-002
3.905145e+003, 9.071147e-003
3.907073e+003, 1.178020e-002
3.909002e+003, 1.330940e-002
3.910930e+003, 1.237630e-002
3.912859e+003, 1.168496e-002
3.914787e+003, 1.139930e-002
3.916716e+003, 1.188942e-002
3.918644e+003, 1.303773e-002
3.920573e+003, 1.431333e-002
3.922501e+003, 1.327739e-002
3.924430e+003, 1.157515e-002
3.926358e+003, 1.161989e-002
3.928287e+003, 1.265966e-002
3.930215e+003, 1.223132e-002
3.932144e+003, 1.190887e-002
3.934072e+003, 1.153100e-002
3.936000e+003, 1.146775e-002
3.937929e+003, 9.863748e-003
3.939857e+003, 9.579700e-003
3.941786e+003, 1.128418e-002
3.943714e+003, 1.170843e-002
3.945643e+003, 1.175565e-002
3.947571e+003, 1.222213e-002
3.949500e+003, 1.254804e-002
3.951428e+003, 1.126683e-002
3.953357e+003, 1.171820e-002
3.955285e+003, 1.183559e-002
3.957214e+003, 1.191235e-002
3.959142e+003, 1.197958e-002
3.961071e+003, 1.128333e-002
3.962999e+003, 1.061263e-002
3.964927e+003, 1.193942e-002
3.966856e+003, 1.198543e-002
3.968784e+003, 1.009971e-002
3.970713e+003, 1.067545e-002
3.972641e+003, 1.192623e-002
3.974570e+003, 1.167007e-002
3.976498e+003, 1.160246e-002
3.978427e+003, 1.286476e-002
3.980355e+003, 1.203854e-002
3.982284e+003, 8.796981e-003
3.984212e+003, 8.413388e-003
3.986141e+003, 1.242964e-002
3.988069e+003, 1.473379e-002
3.989998e+003, 1.315701e-002
3.991926e+003, 1.138806e-002
3.993854e+003, 9.737617e-003
3.995783e+003, 1.181887e-002
3.997711e+003, 1.250373e-002
3.999640e+003, 1.250977e-002
##END=



