##NAMES=Fluorapatite
##RRUFFID=R050369
##IDEAL CHEMISTRY=Ca_5_(PO_4_)_3_F
##LOCALITY=Russia
##OWNER=RRUFF
##SOURCE=Eugene Schlepp
##DESCRIPTION=Blueish-green hexagonal prismatic crystal
##STATUS=The identification of this mineral has been confirmed by X-ray diffraction and chemical analysis
##URL=rruff.info/R050369
##MEASURED CHEMISTRY=(Ca_0.99_Na_0.01_)_5_((P_0.98_S_0.02_)O_4_)_3_F_1.00_
399.1926, 1.7703470E-02
401.1211, 1.2644550E-02
403.0496, 1.2705340E-02
404.9780, 1.3034990E-02
406.9065, 1.5145460E-02
408.8350, 1.8238319E-02
410.7634, 1.6503209E-02
412.6919, 1.3914830E-02
414.6204, 1.2875190E-02
416.5488, 1.2560750E-02
418.4773, 1.3035740E-02
420.4058, 1.2991800E-02
422.3342, 1.3781440E-02
424.2627, 1.3624130E-02
426.1912, 1.2194030E-02
428.1196, 1.1985550E-02
430.0481, 1.1432190E-02
431.9766, 1.1557160E-02
433.9050, 1.2413350E-02
435.8335, 1.3583500E-02
437.7620, 1.2703320E-02
439.6904, 1.1524120E-02
441.6189, 1.2325260E-02
443.5474, 1.3685410E-02
445.4758, 1.2360320E-02
447.4043, 1.1441070E-02
449.3328, 1.2251610E-02
451.2612, 1.3255610E-02
453.1897, 1.4430900E-02
455.1182, 1.4962840E-02
457.0466, 1.5212150E-02
458.9751, 1.6602010E-02
460.9036, 1.8181469E-02
462.8320, 1.9012690E-02
464.7605, 1.9648850E-02
466.6890, 2.1317910E-02
468.6174, 2.2881670E-02
470.5459, 2.3580490E-02
472.4744, 2.3977630E-02
474.4028, 2.3620890E-02
476.3313, 2.2136061E-02
478.2598, 2.0680681E-02
480.1882, 1.9582709E-02
482.1167, 1.8561650E-02
484.0452, 1.7996989E-02
485.9736, 1.7918270E-02
487.9021, 1.8064830E-02
489.8306, 1.8238090E-02
491.7590, 1.8600751E-02
493.6875, 1.8971210E-02
495.6160, 1.8920250E-02
497.5444, 1.8643221E-02
499.4729, 1.8677721E-02
501.4014, 1.9089891E-02
503.3298, 1.9346640E-02
505.2583, 2.0046201E-02
507.1868, 2.1198340E-02
509.1152, 2.1767011E-02
511.0437, 2.2663441E-02
512.9722, 2.5179431E-02
514.9006, 2.7523220E-02
516.8291, 2.9383380E-02
518.7576, 3.1487431E-02
520.6860, 3.3506870E-02
522.6145, 3.5062019E-02
524.5430, 3.6117561E-02
526.4714, 3.7049010E-02
528.3999, 3.8966991E-02
530.3284, 4.1814789E-02
532.2568, 4.4567909E-02
534.1853, 4.7564380E-02
536.1138, 5.1879361E-02
538.0422, 5.8104731E-02
539.9707, 6.5045051E-02
541.8992, 7.3008657E-02
543.8276, 8.1953406E-02
545.7561, 9.3604296E-02
547.6846, 0.1079130
549.6130, 0.1243367
551.5415, 0.1446613
553.4700, 0.1676702
555.3984, 0.1905072
557.3269, 0.2134186
559.2554, 0.2357060
561.1838, 0.2538327
563.1123, 0.2674943
565.0408, 0.2764850
566.9692, 0.2801216
568.8977, 0.2782870
570.8262, 0.2729505
572.7546, 0.2643158
574.6831, 0.2493381
576.6116, 0.2238395
578.5400, 0.1888127
580.4685, 0.1563973
582.3970, 0.1352613
584.3254, 0.1229424
586.2539, 0.1162319
588.1824, 0.1133752
590.1108, 0.1162876
592.0393, 0.1280030
593.9678, 0.1505326
595.8962, 0.1817808
597.8247, 0.2107071
599.7532, 0.2197197
601.6816, 0.2039069
603.6101, 0.1751085
605.5386, 0.1444787
607.4670, 0.1172968
609.3955, 9.5517501E-02
611.3240, 7.7549137E-02
613.2524, 6.0965050E-02
615.1809, 4.7121398E-02
617.1094, 3.6985260E-02
619.0378, 2.9380741E-02
620.9663, 2.3861310E-02
622.8948, 2.0538289E-02
624.8232, 1.8772840E-02
626.7517, 1.7351471E-02
628.6802, 1.6184909E-02
630.6086, 1.5330940E-02
632.5371, 1.3851580E-02
634.4656, 1.2723520E-02
636.3940, 1.2011340E-02
638.3225, 1.1106150E-02
640.2510, 1.0879730E-02
642.1794, 1.1428340E-02
644.1079, 1.2155010E-02
646.0364, 1.3597650E-02
647.9648, 1.4584700E-02
649.8933, 1.3920180E-02
651.8218, 1.2719660E-02
653.7502, 1.1694500E-02
655.6787, 1.1320740E-02
657.6072, 1.1205500E-02
659.5356, 1.0741000E-02
661.4641, 1.0622010E-02
663.3926, 1.0769990E-02
665.3210, 1.0734850E-02
667.2495, 1.0997550E-02
669.1780, 1.0784770E-02
671.1064, 1.0346650E-02
673.0349, 1.0623430E-02
674.9634, 1.0985720E-02
676.8918, 1.1086580E-02
678.8203, 1.0949770E-02
680.7488, 1.1154340E-02
682.6772, 1.1276410E-02
684.6057, 1.1027900E-02
686.5342, 1.1072210E-02
688.4626, 1.1142660E-02
690.3911, 1.0551260E-02
692.3196, 1.0145560E-02
694.2480, 1.0446080E-02
696.1765, 1.0675450E-02
698.1050, 1.0391160E-02
700.0334, 1.0090570E-02
701.9619, 1.0087760E-02
703.8904, 1.0160410E-02
705.8188, 1.0526770E-02
707.7473, 1.1009590E-02
709.6758, 1.1245600E-02
711.6042, 1.1509720E-02
713.5327, 1.1968800E-02
715.4612, 1.2363690E-02
717.3896, 1.2758990E-02
719.3181, 1.3155110E-02
721.2466, 1.3427880E-02
723.1750, 1.3841460E-02
725.1035, 1.4409700E-02
727.0320, 1.4417910E-02
728.9604, 1.4825140E-02
730.8889, 1.5518550E-02
732.8174, 1.6089959E-02
734.7458, 1.6571390E-02
736.6743, 1.6922491E-02
738.6028, 1.7318180E-02
740.5313, 1.7860740E-02
742.4597, 1.8315280E-02
744.3882, 1.8633600E-02
746.3167, 1.8480230E-02
748.2451, 1.7896600E-02
750.1736, 1.7438700E-02
752.1021, 1.6983520E-02
754.0305, 1.6440770E-02
755.9590, 1.5793281E-02
757.8875, 1.4925080E-02
759.8159, 1.4097760E-02
761.7444, 1.3719820E-02
763.6729, 1.3867930E-02
765.6013, 1.3645970E-02
767.5298, 1.3329790E-02
769.4583, 1.3114110E-02
771.3867, 1.2920490E-02
773.3152, 1.2901500E-02
775.2437, 1.2869620E-02
777.1721, 1.2957130E-02
779.1006, 1.2876820E-02
781.0291, 1.2943860E-02
782.9575, 1.3220060E-02
784.8860, 1.3405470E-02
786.8145, 1.3523780E-02
788.7429, 1.3576370E-02
790.6714, 1.3863970E-02
792.5999, 1.4110690E-02
794.5283, 1.4394740E-02
796.4568, 1.4588820E-02
798.3853, 1.4797700E-02
800.3137, 1.5063180E-02
802.2422, 1.5136960E-02
804.1707, 1.5160600E-02
806.0991, 1.5096830E-02
808.0276, 1.5440530E-02
809.9561, 1.5753260E-02
811.8845, 1.5834169E-02
813.8130, 1.6186761E-02
815.7415, 1.6567150E-02
817.6699, 1.6861320E-02
819.5984, 1.6992221E-02
821.5269, 1.6992750E-02
823.4553, 1.7420961E-02
825.3838, 1.7982770E-02
827.3123, 1.8388990E-02
829.2407, 1.8504050E-02
831.1692, 1.8697839E-02
833.0977, 1.9131901E-02
835.0261, 1.9816481E-02
836.9546, 2.0596471E-02
838.8831, 2.1004960E-02
840.8115, 2.1298580E-02
842.7400, 2.1719789E-02
844.6685, 2.2210300E-02
846.5969, 2.2852721E-02
848.5254, 2.3739841E-02
850.4539, 2.4358530E-02
852.3823, 2.4939731E-02
854.3108, 2.5714040E-02
856.2393, 2.6616650E-02
858.1677, 2.7412619E-02
860.0962, 2.8361309E-02
862.0247, 2.9982099E-02
863.9531, 3.2395530E-02
865.8816, 3.2892581E-02
867.8101, 3.2044791E-02
869.7385, 3.2132909E-02
871.6670, 3.2915521E-02
873.5955, 3.3817180E-02
875.5239, 3.4468669E-02
877.4524, 3.4965578E-02
879.3809, 3.5526011E-02
881.3093, 3.6353271E-02
883.2378, 3.6872860E-02
885.1663, 3.7496321E-02
887.0947, 3.8524210E-02
889.0232, 3.9811630E-02
890.9517, 4.1193120E-02
892.8801, 4.2371619E-02
894.8085, 4.3536369E-02
896.7370, 4.4901181E-02
898.6655, 4.6635300E-02
900.5939, 4.8255678E-02
902.5224, 4.9821541E-02
904.4509, 5.1383741E-02
906.3793, 5.3207051E-02
908.3078, 5.5722289E-02
910.2363, 5.8781631E-02
912.1647, 6.1319642E-02
914.0932, 6.3766167E-02
916.0217, 6.6756599E-02
917.9501, 7.0001103E-02
919.8786, 7.3321380E-02
921.8071, 7.6804519E-02
923.7355, 8.0582790E-02
925.6640, 8.3902963E-02
927.5925, 8.6261950E-02
929.5209, 8.7724403E-02
931.4494, 8.8680677E-02
933.3779, 9.0137169E-02
935.3063, 9.2097938E-02
937.2348, 9.4515979E-02
939.1633, 9.7259641E-02
941.0917, 0.1010568
943.0202, 0.1061854
944.9487, 0.1130451
946.8771, 0.1203817
948.8056, 0.1272790
950.7341, 0.1340416
952.6625, 0.1410000
954.5910, 0.1484878
956.5195, 0.1578967
958.4479, 0.1699799
960.3764, 0.1851851
962.3049, 0.2015865
964.2333, 0.2042930
966.1618, 0.1846812
968.0903, 0.1647273
970.0187, 0.1584284
971.9472, 0.1623326
973.8757, 0.1720976
975.8041, 0.1847781
977.7326, 0.1991720
979.6611, 0.2137815
981.5895, 0.2285325
983.5180, 0.2439236
985.4465, 0.2593542
987.3749, 0.2747101
989.3034, 0.2903107
991.2319, 0.3059932
993.1603, 0.3219487
995.0888, 0.3383432
997.0173, 0.3547048
998.9457, 0.3712690
1000.874, 0.3886290
1002.803, 0.4057768
1004.731, 0.4222355
1006.660, 0.4385377
1008.588, 0.4545093
1010.517, 0.4705005
1012.445, 0.4865344
1014.373, 0.5015263
1016.302, 0.5152445
1018.230, 0.5272300
1020.159, 0.5362707
1022.087, 0.5422738
1024.016, 0.5472100
1025.944, 0.5484353
1027.873, 0.5449110
1029.801, 0.5380315
1031.730, 0.5285939
1033.658, 0.5176575
1035.587, 0.5050830
1037.515, 0.4886326
1039.444, 0.4686621
1041.372, 0.4474728
1043.301, 0.4256372
1045.229, 0.4047628
1047.157, 0.3848908
1049.086, 0.3649288
1051.014, 0.3463400
1052.943, 0.3292235
1054.871, 0.3130211
1056.800, 0.2971394
1058.728, 0.2819072
1060.657, 0.2678348
1062.585, 0.2546177
1064.514, 0.2413777
1066.442, 0.2283352
1068.371, 0.2155979
1070.299, 0.2035497
1072.228, 0.1917859
1074.156, 0.1799251
1076.084, 0.1683222
1078.013, 0.1573828
1079.941, 0.1475267
1081.870, 0.1408105
1083.798, 0.1406699
1085.727, 0.1493213
1087.655, 0.1652348
1089.584, 0.1793372
1091.512, 0.1817681
1093.441, 0.1731271
1095.369, 0.1594530
1097.298, 0.1452808
1099.226, 0.1322632
1101.155, 0.1205974
1103.083, 0.1100516
1105.011, 0.1004804
1106.940, 9.1795243E-02
1108.868, 8.3524279E-02
1110.797, 7.5354233E-02
1112.725, 6.7716517E-02
1114.654, 6.0160529E-02
1116.582, 5.2569941E-02
1118.511, 4.5653552E-02
1120.439, 3.9494932E-02
1122.368, 3.3929180E-02
1124.296, 2.9190470E-02
1126.225, 2.5810219E-02
1128.153, 2.3417169E-02
1130.082, 2.1177709E-02
1132.010, 1.9442299E-02
1133.938, 1.8279379E-02
1135.867, 1.7507840E-02
1137.795, 1.7355651E-02
1139.724, 1.7249079E-02
1141.652, 1.7263381E-02
1143.581, 1.7750930E-02
1145.509, 1.8208640E-02
1147.438, 1.7939350E-02
1149.366, 1.7587680E-02
1151.295, 1.7247550E-02
1153.223, 1.6605919E-02
1155.152, 1.6083371E-02
1157.080, 1.5881730E-02
1159.009, 1.5825210E-02
1160.937, 1.5501510E-02
1162.865, 1.5050170E-02
1164.794, 1.4550900E-02
1166.722, 1.4229170E-02
1168.651, 1.4077890E-02
1170.579, 1.3829710E-02
1172.508, 1.3433850E-02
1174.436, 1.2871750E-02
1176.365, 1.2500860E-02
1178.293, 1.2093750E-02
1180.222, 1.1246120E-02
1182.150, 1.0331610E-02
1184.079, 9.4777690E-03
1186.007, 8.9544682E-03
1187.936, 8.7787788E-03
1189.864, 8.6513711E-03
1191.792, 8.3236210E-03
1193.721, 8.2049891E-03
1195.649, 7.9288166E-03
1197.578, 7.2979890E-03
1199.506, 6.5044430E-03
1201.435, 5.9433570E-03
1203.363, 5.7317782E-03
1205.292, 5.7378961E-03
1207.220, 5.5531170E-03
1209.149, 5.3705419E-03
1211.077, 5.1575610E-03
1213.006, 4.9669710E-03
1214.934, 4.8630461E-03
1216.863, 4.7995979E-03
1218.791, 4.4909832E-03
1220.719, 4.1450700E-03
1222.648, 4.1610911E-03
1224.576, 3.9658779E-03
1226.505, 3.5893200E-03
1228.433, 3.4834321E-03
1230.362, 3.4378569E-03
1232.290, 3.3189079E-03
1234.219, 3.0132290E-03
1236.147, 2.8460820E-03
1238.076, 3.0148490E-03
1240.004, 3.0219001E-03
1241.933, 2.8323880E-03
1243.861, 2.8250611E-03
1245.790, 3.1612089E-03
1247.718, 3.1673911E-03
1249.646, 2.9321939E-03
1251.575, 3.0689060E-03
1253.503, 3.3735340E-03
1255.432, 3.2863971E-03
1257.360, 2.9712380E-03
1259.289, 2.8375781E-03
1261.217, 2.9169519E-03
1263.146, 2.8946940E-03
1265.074, 2.7510570E-03
1267.003, 2.8152510E-03
1268.931, 3.2159551E-03
1270.860, 3.4329561E-03
1272.788, 3.2797749E-03
1274.717, 3.1485450E-03
1276.645, 3.2701411E-03
1278.573, 3.2337031E-03
1280.502, 3.2260760E-03
1282.430, 3.1128160E-03
1284.359, 3.0334541E-03
1286.287, 2.9814469E-03
1288.216, 2.9490569E-03
1290.144, 3.0726499E-03
1292.073, 2.9420480E-03
1294.001, 2.9068741E-03
1295.930, 3.0117400E-03
1297.858, 2.8181579E-03
1299.787, 2.6600140E-03
1301.715, 2.6396071E-03
1303.644, 2.6118390E-03
1305.572, 2.4919009E-03
1307.500, 2.4689529E-03
1309.429, 2.5208781E-03
1311.357, 2.5348470E-03
1313.286, 2.5061001E-03
1315.214, 2.7048970E-03
1317.143, 2.6892200E-03
1319.071, 2.6169750E-03
1321.000, 2.7870771E-03
1322.928, 2.6939409E-03
1324.857, 2.8046980E-03
1326.785, 2.7224219E-03
1328.714, 2.5403609E-03
1330.642, 2.8146859E-03
1332.571, 2.8774689E-03
1334.499, 2.6633521E-03
1336.427, 2.5461239E-03
1338.356, 2.4980900E-03
1340.284, 2.6078480E-03
1342.213, 2.6920161E-03
1344.141, 2.6479210E-03
1346.070, 2.5686610E-03
1347.998, 2.6260421E-03
1349.927, 2.5428671E-03
1351.855, 2.5489740E-03
1353.784, 2.7330690E-03
1355.712, 2.8672649E-03
1357.641, 2.7031200E-03
1359.569, 2.6127910E-03
1361.498, 2.5641189E-03
1363.426, 2.7447289E-03
1365.354, 2.9384850E-03
1367.283, 3.1795229E-03
1369.211, 3.2811221E-03
1371.140, 3.1657470E-03
1373.068, 3.1575300E-03
1374.997, 3.1194170E-03
1376.925, 3.1647480E-03
1378.854, 3.5060300E-03
1380.782, 3.7632650E-03
1382.711, 3.8773811E-03
1384.639, 3.9972700E-03
1386.568, 4.2172852E-03
1388.496, 4.3885708E-03
1390.424, 4.4935672E-03
1392.353, 4.4909678E-03
1394.281, 4.6548960E-03
1396.210, 5.0519882E-03
1398.138, 5.5595669E-03
1400.067, 6.0780779E-03
1401.995, 6.2965490E-03
1403.924, 6.2803952E-03
1405.852, 6.6327788E-03
1407.781, 7.3274220E-03
1409.709, 7.6928642E-03
1411.638, 8.0524217E-03
1413.566, 8.5945474E-03
1415.495, 8.9112232E-03
1417.423, 9.1664772E-03
1419.351, 9.8508894E-03
1421.280, 1.0602200E-02
1423.208, 1.1299580E-02
1425.137, 1.2069140E-02
1427.065, 1.2131520E-02
1428.994, 1.1579100E-02
1430.922, 1.1044140E-02
1432.851, 1.0260490E-02
1434.779, 9.3176616E-03
1436.708, 8.8149086E-03
1438.636, 8.7108659E-03
1440.565, 8.3102947E-03
1442.493, 8.2786037E-03
1444.422, 8.7130414E-03
1446.350, 9.4332304E-03
1448.278, 1.0267210E-02
1450.207, 1.0980450E-02
1452.135, 1.1861870E-02
1454.064, 1.2075600E-02
1455.992, 1.1196930E-02
1457.921, 1.0499590E-02
1459.849, 1.0038880E-02
1461.778, 9.5508629E-03
1463.706, 9.3337307E-03
1465.635, 8.7099345E-03
1467.563, 8.0027645E-03
1469.492, 7.8203790E-03
1471.420, 7.6463269E-03
1473.349, 7.4684368E-03
1475.277, 7.4888952E-03
1477.205, 7.4794209E-03
1479.134, 7.2642108E-03
1481.062, 7.0053302E-03
1482.991, 6.7246589E-03
1484.919, 6.4699040E-03
1486.848, 6.3723722E-03
1488.776, 6.4949798E-03
1490.705, 6.5220040E-03
1492.633, 6.2553310E-03
1494.562, 5.9630759E-03
1496.490, 5.9798290E-03
1498.419, 6.1446410E-03
1500.347, 6.3469410E-03
1502.276, 6.1161900E-03
1504.204, 5.9134280E-03
1506.132, 5.9804348E-03
1508.061, 5.6709819E-03
1509.989, 5.4428470E-03
1511.918, 5.5708899E-03
1513.846, 5.5288770E-03
1515.775, 5.2773640E-03
1517.703, 5.2161030E-03
1519.632, 5.1069250E-03
1521.560, 4.8262570E-03
1523.489, 4.9129738E-03
1525.417, 5.0449269E-03
1527.346, 5.2118530E-03
1529.274, 5.2635311E-03
1531.203, 5.0793458E-03
1533.131, 4.9663321E-03
1535.059, 5.0514978E-03
1536.988, 5.3164661E-03
1538.916, 5.5353930E-03
1540.845, 5.3183818E-03
1542.773, 5.1016058E-03
1544.702, 5.0727590E-03
1546.630, 5.2373218E-03
1548.559, 5.3053400E-03
1550.487, 5.1767598E-03
1552.416, 5.1017199E-03
1554.344, 5.1942570E-03
1556.273, 5.1023420E-03
1558.201, 4.9442980E-03
1560.130, 5.1075378E-03
1562.058, 5.1532770E-03
1563.986, 5.1876800E-03
1565.915, 5.3687249E-03
1567.843, 5.3554391E-03
1569.772, 5.1294100E-03
1571.700, 5.3583258E-03
1573.629, 5.7589938E-03
1575.557, 5.5386042E-03
1577.486, 5.3316401E-03
1579.414, 5.2097449E-03
1581.343, 5.1705982E-03
1583.271, 5.0346809E-03
1585.200, 4.8717861E-03
1587.128, 5.0840289E-03
1589.057, 5.1372559E-03
1590.985, 5.1985681E-03
1592.913, 5.6684720E-03
1594.842, 5.7813129E-03
1596.770, 5.3667468E-03
1598.699, 5.2097361E-03
1600.627, 5.4219882E-03
1602.556, 5.6662741E-03
1604.484, 5.6823660E-03
1606.413, 5.6642969E-03
1608.341, 5.6594382E-03
1610.270, 5.5681202E-03
1612.198, 5.7466850E-03
1614.127, 5.7455781E-03
1616.055, 5.4172622E-03
1617.984, 5.3735930E-03
1619.912, 5.8052992E-03
1621.840, 5.7856599E-03
1623.769, 5.2816751E-03
1625.697, 5.1982980E-03
1627.626, 5.2926452E-03
1629.554, 5.2849362E-03
1631.483, 5.4729008E-03
1633.411, 5.6367940E-03
1635.340, 5.3621689E-03
1637.268, 5.3300122E-03
1639.197, 5.5490262E-03
1641.125, 5.8064852E-03
1643.054, 5.7042022E-03
1644.982, 5.5713570E-03
1646.911, 5.8107800E-03
1648.839, 5.8760801E-03
1650.767, 5.7267370E-03
1652.696, 5.8421232E-03
1654.624, 5.8059390E-03
1656.553, 5.8211721E-03
1658.481, 5.6018480E-03
1660.410, 5.5159391E-03
1662.338, 5.4506948E-03
1664.267, 5.3805141E-03
1666.195, 5.3009870E-03
1668.124, 5.4573580E-03
1670.052, 5.5935290E-03
1671.981, 5.5195438E-03
1673.909, 5.4639350E-03
1675.838, 5.3399978E-03
1677.766, 5.2311830E-03
1679.694, 5.0057778E-03
1681.623, 4.8139021E-03
1683.551, 5.2055679E-03
1685.480, 5.1998310E-03
1687.408, 5.0146361E-03
1689.337, 5.1037832E-03
1691.265, 5.3978520E-03
1693.194, 5.5472329E-03
1695.122, 5.4535042E-03
1697.051, 5.5542029E-03
1698.979, 5.4259882E-03
1700.908, 5.4772831E-03
1702.836, 5.4560392E-03
1704.765, 5.3220200E-03
1706.693, 5.3427350E-03
1708.621, 5.3789392E-03
1710.550, 5.2747200E-03
1712.478, 5.1126201E-03
1714.407, 5.0860620E-03
1716.335, 5.3080819E-03
1718.264, 5.3031519E-03
1720.192, 5.4331049E-03
1722.121, 5.3778128E-03
1724.049, 5.2917241E-03
1725.978, 5.3616329E-03
1727.906, 5.2069901E-03
1729.835, 5.3044022E-03
1731.763, 5.2754129E-03
1733.692, 4.8266770E-03
1735.620, 4.6233088E-03
1737.548, 4.7674808E-03
1739.477, 4.8098369E-03
1741.405, 4.4510532E-03
1743.334, 4.1657458E-03
1745.262, 4.4937190E-03
1747.191, 4.5557572E-03
1749.119, 4.4880840E-03
1751.048, 4.4572558E-03
1752.976, 4.6690749E-03
1754.905, 4.9610562E-03
1756.833, 4.9256701E-03
1758.762, 4.7641709E-03
1760.690, 4.6589822E-03
1762.619, 4.9338378E-03
1764.547, 5.1627010E-03
1766.475, 5.0808438E-03
1768.404, 4.9769841E-03
1770.332, 4.9930378E-03
1772.261, 5.2519012E-03
1774.189, 4.9270601E-03
1776.118, 4.3893722E-03
1778.046, 4.6202089E-03
1779.975, 5.0318101E-03
1781.903, 5.2419561E-03
1783.832, 5.1077991E-03
1785.760, 4.8369481E-03
1787.689, 4.8895581E-03
1789.617, 5.0553670E-03
1791.546, 5.2590258E-03
1793.474, 5.1136948E-03
1795.402, 4.7543650E-03
1797.331, 4.7472492E-03
1799.259, 5.2229110E-03
1801.188, 5.2443710E-03
1803.116, 5.1755882E-03
1805.045, 5.3793429E-03
1806.973, 5.4572541E-03
1808.902, 5.1380158E-03
1810.830, 5.1569021E-03
1812.759, 5.0258879E-03
1814.687, 4.9916599E-03
1816.616, 5.0592381E-03
1818.544, 5.0306479E-03
1820.473, 5.0439960E-03
1822.401, 5.0709751E-03
1824.329, 5.0680060E-03
1826.258, 4.8383870E-03
1828.186, 4.6653100E-03
1830.115, 4.6078339E-03
1832.043, 4.9063009E-03
1833.972, 4.7622300E-03
1835.900, 4.6155481E-03
1837.829, 5.4549719E-03
1839.757, 5.5318349E-03
1841.686, 5.1785600E-03
1843.614, 5.6262300E-03
1845.543, 5.3138020E-03
1847.471, 4.5739589E-03
1849.400, 4.8046331E-03
1851.328, 4.7634239E-03
1853.256, 4.4122939E-03
1855.185, 4.4807969E-03
1857.113, 3.8554240E-03
1859.042, 4.1903122E-03
1860.970, 5.1552118E-03
1862.899, 5.2900231E-03
1864.827, 5.1719900E-03
1866.756, 4.4810041E-03
1868.684, 4.2676269E-03
1870.613, 4.4507501E-03
1872.541, 4.9235532E-03
1874.470, 5.6300801E-03
1876.398, 5.5454141E-03
1878.327, 4.9462779E-03
1880.255, 4.9146898E-03
1882.183, 4.7085718E-03
1884.112, 4.2667128E-03
1886.040, 4.4993330E-03
1887.969, 5.0657028E-03
1889.897, 5.4851319E-03
1891.826, 5.0121620E-03
1893.754, 5.0709350E-03
1895.683, 5.3398120E-03
1897.611, 4.1947719E-03
1899.540, 3.9859382E-03
1901.468, 4.6509360E-03
1903.397, 5.2456381E-03
1905.325, 4.6985280E-03
1907.254, 4.1096392E-03
1909.182, 4.9320711E-03
1911.110, 3.9505991E-03
1913.039, 2.5623620E-03
1914.967, 3.5748649E-03
1916.896, 4.6478580E-03
1918.824, 4.6944758E-03
1920.753, 4.6794820E-03
1922.681, 4.4943779E-03
1924.610, 3.4040189E-03
1926.538, 2.7029440E-03
1928.467, 2.6519950E-03
1930.395, 2.9521030E-03
1932.324, 3.8928781E-03
1934.252, 4.2456230E-03
1936.181, 2.6603511E-03
1938.109, 1.7644870E-03
1940.037, 2.1996819E-03
1941.966, 1.3946120E-03
1943.894, 1.3659970E-03
1945.823, 2.7351740E-03
1947.751, 2.4211421E-03
1949.680, 7.0676889E-04
1951.608, 1.6387610E-04
1953.537, 5.5024179E-04
1955.465, 1.0602780E-03
1957.394, 7.2540349E-04
1959.322, -3.6224730E-05
1961.251, 1.9685979E-04
1963.179, -4.3844129E-04
1965.108, 3.0223810E-04
1967.036, 1.2438740E-03
1968.964, 1.0582560E-03
1970.893, 2.5165800E-03
1972.821, 1.7580980E-03
1974.750, -9.7029340E-05
1976.678, -2.1809670E-05
1978.607, 3.1547910E-03
1980.535, 4.7272011E-03
1982.464, 4.3133530E-03
1984.392, 2.5937629E-03
1986.321, 8.2268934E-06
1988.249, 5.7709281E-04
1990.178, 1.3590900E-03
1992.106, 2.1418540E-03
1994.035, 2.1730710E-03
1995.963, 3.4269679E-03
1997.891, 4.5407461E-03
1999.820, 4.0936982E-03
2001.748, 9.5834199E-04
2003.677, -2.2498979E-03
2005.605, -1.7863730E-03
2007.534, -3.2323489E-03
2009.462, -3.1016450E-03
2011.391, -2.4304430E-03
2013.319, -2.3223360E-03
2015.248, 2.1634820E-05
2017.176, -1.1344280E-03
2019.105, -3.3670149E-03
2021.033, -4.9089771E-03
2022.962, -6.4247651E-03
2024.890, -6.1963461E-03
2026.818, -2.2146581E-03
2028.747, -4.2788949E-04
2030.675, -3.6230830E-03
2032.604, -5.3042169E-03
2034.532, -3.8794740E-03
2036.461, -3.3275951E-03
2038.389, -3.4850880E-03
2040.318, -2.0636399E-03
2042.246, -5.6166842E-04
2044.175, -2.9417811E-04
2046.103, -1.3426950E-03
2048.032, -6.4348301E-04
2049.960, 1.8337150E-03
2051.889, 2.0010730E-03
2053.817, 2.3787090E-04
2055.746, -6.0418132E-04
2057.674, -1.7610330E-03
2059.603, -4.7354901E-04
2061.531, 1.8771261E-03
2063.459, 1.7624840E-03
2065.388, 1.6475710E-03
2067.316, 7.6017610E-04
2069.245, 1.5825110E-03
2071.173, 3.5882760E-03
2073.102, 2.6832570E-03
2075.030, 1.5838360E-03
2076.959, 1.8615200E-03
2078.887, 2.7065671E-03
2080.816, 2.6199440E-03
2082.744, 2.8179120E-03
2084.673, 3.0969570E-03
2086.601, 3.1764151E-03
2088.530, 2.9282051E-03
2090.458, 2.5840839E-03
2092.386, 1.4603450E-03
2094.315, 1.5622700E-03
2096.243, 2.7041540E-03
2098.172, 3.6721840E-03
2100.100, 3.1530431E-03
2102.029, 1.6062580E-03
2103.957, 7.5676473E-04
2105.886, 1.2733300E-03
2107.814, 3.4255080E-03
2109.743, 4.5429301E-03
2111.671, 3.1374169E-03
2113.600, 3.8868049E-03
2115.528, 4.7245398E-03
2117.457, 3.5365350E-03
2119.385, 2.6647029E-03
2121.313, 1.5512190E-03
2123.242, 1.1442750E-03
2125.170, 8.7138033E-04
2127.099, 6.6344911E-04
2129.027, 1.4951030E-03
2130.956, 7.7969040E-04
2132.884, -7.6844112E-04
2134.813, 1.2112079E-03
2136.741, 1.7337130E-03
2138.670, 1.2720780E-03
2140.598, 1.1713820E-03
2142.527, 2.0934511E-03
2144.455, 3.0607211E-03
2146.384, 2.7681920E-03
2148.312, 3.2538560E-03
2150.240, 1.0409160E-03
2152.169, -4.5769851E-04
2154.097, -7.7430089E-04
2156.026, -2.3720870E-03
2157.954, 5.7775189E-05
2159.883, 2.9979469E-03
2161.811, 4.5316019E-03
2163.740, 2.5016279E-03
2165.668, 1.3597790E-03
2167.597, 4.4296379E-03
2169.525, 6.4112740E-03
2171.454, 4.1555651E-03
2173.382, 2.3622410E-03
2175.311, 1.3845291E-03
2177.239, 3.2122509E-04
2179.167, 5.8343128E-05
2181.096, 6.2959577E-04
2183.024, 2.9938589E-03
2184.953, 4.2165220E-03
2186.881, 3.7674231E-03
2188.810, 2.9100559E-03
2190.738, 2.5556970E-03
2192.667, 2.4507940E-03
2194.595, 3.0017770E-03
2196.524, 4.4238940E-03
2198.452, 5.5930372E-03
2200.381, 5.3094840E-03
2202.309, 4.8193312E-03
2204.238, 2.7313959E-03
2206.166, 3.8812310E-03
2208.094, 5.7370169E-03
2210.023, 4.9232058E-03
2211.951, 4.7222129E-03
2213.880, 5.0572990E-03
2215.808, 5.2161920E-03
2217.737, 5.8760671E-03
2219.665, 5.8381110E-03
2221.594, 5.6271818E-03
2223.522, 5.1134690E-03
2225.451, 5.2266582E-03
2227.379, 4.2290119E-03
2229.308, 3.8488919E-03
2231.236, 3.9316448E-03
2233.165, 7.2593992E-03
2235.093, 8.9667179E-03
2237.021, 7.5186319E-03
2238.950, 9.1127045E-03
2240.878, 1.0166270E-02
2242.807, 9.1672596E-03
2244.735, 8.5541997E-03
2246.664, 8.2831271E-03
2248.592, 8.2637891E-03
2250.521, 8.3294604E-03
2252.449, 1.0030020E-02
2254.378, 1.1277640E-02
2256.306, 9.8846611E-03
2258.235, 8.8097723E-03
2260.163, 9.8338556E-03
2262.092, 1.0822690E-02
2264.020, 1.1554620E-02
2265.948, 1.1472170E-02
2267.877, 1.0638110E-02
2269.805, 9.4554322E-03
2271.734, 9.5691839E-03
2273.662, 9.8277600E-03
2275.591, 1.0546410E-02
2277.519, 1.1544420E-02
2279.448, 1.1741880E-02
2281.376, 1.0818040E-02
2283.305, 9.9553289E-03
2285.233, 1.0176310E-02
2287.162, 1.0259620E-02
2289.090, 9.2153409E-03
2291.019, 9.3672313E-03
2292.947, 9.5014386E-03
2294.875, 8.8786017E-03
2296.804, 9.3433335E-03
2298.732, 1.0277440E-02
2300.661, 1.1217570E-02
2302.589, 1.1295960E-02
2304.518, 1.0256860E-02
2306.446, 1.0569690E-02
2308.375, 1.0642070E-02
2310.303, 1.0533830E-02
2312.232, 1.1483590E-02
2314.160, 1.1909290E-02
2316.089, 1.1959670E-02
2318.017, 1.1791110E-02
2319.946, 1.1527190E-02
2321.874, 1.1901810E-02
2323.802, 1.2476710E-02
2325.731, 1.2378620E-02
2327.659, 1.2638600E-02
2329.588, 1.1680350E-02
2331.516, 1.1580310E-02
2333.445, 1.2499750E-02
2335.373, 1.2872550E-02
2337.302, 1.2911960E-02
2339.230, 1.3655600E-02
2341.159, 1.4332140E-02
2343.087, 1.3816070E-02
2345.016, 1.2253650E-02
2346.944, 1.1404160E-02
2348.873, 1.0754050E-02
2350.801, 1.1010320E-02
2352.729, 1.1225590E-02
2354.658, 1.1737550E-02
2356.586, 1.3000940E-02
2358.515, 1.3914880E-02
2360.443, 1.4328370E-02
2362.372, 1.5118420E-02
2364.300, 1.4665070E-02
2366.229, 1.3735740E-02
2368.157, 1.3900980E-02
2370.086, 1.3521940E-02
2372.014, 1.1378160E-02
2373.942, 1.0090260E-02
2375.871, 1.0257070E-02
2377.799, 1.0079450E-02
2379.728, 1.0695800E-02
2381.656, 1.1126680E-02
2383.585, 1.0053970E-02
2385.513, 9.0260077E-03
2387.442, 9.3099996E-03
2389.370, 9.5094191E-03
2391.299, 1.0307510E-02
2393.227, 9.8607773E-03
2395.156, 9.6811838E-03
2397.084, 1.0447960E-02
2399.012, 1.0640250E-02
2400.941, 1.0624930E-02
2402.869, 1.0312920E-02
2404.798, 1.0389350E-02
2406.726, 9.8535251E-03
2408.655, 1.0114420E-02
2410.583, 1.1033280E-02
2412.512, 1.1280600E-02
2414.440, 1.1017540E-02
2416.369, 1.0818100E-02
2418.297, 1.1238730E-02
2420.226, 1.1012820E-02
2422.154, 1.0710540E-02
2424.083, 1.0757530E-02
2426.011, 9.8072812E-03
2427.939, 9.6678725E-03
2429.868, 1.0218300E-02
2431.796, 1.1408490E-02
2433.725, 1.2194170E-02
2435.653, 1.1926210E-02
2437.582, 1.0923920E-02
2439.510, 1.0107870E-02
2441.439, 1.0272100E-02
2443.367, 1.0326160E-02
2445.296, 1.0543530E-02
2447.224, 1.0870140E-02
2449.153, 1.0972340E-02
2451.081, 1.0764450E-02
2453.010, 1.0866850E-02
2454.938, 1.1405480E-02
2456.866, 1.1192790E-02
2458.795, 1.0675880E-02
2460.723, 1.1360830E-02
2462.652, 1.1810790E-02
2464.580, 1.0997310E-02
2466.509, 1.1071970E-02
2468.437, 1.2234400E-02
2470.366, 1.1905720E-02
2472.294, 1.1729820E-02
2474.223, 1.2452650E-02
2476.151, 1.1288530E-02
2478.080, 1.0514400E-02
2480.008, 1.1253960E-02
2481.937, 1.0973980E-02
2483.865, 1.0692540E-02
2485.793, 1.0707170E-02
2487.722, 9.7221760E-03
2489.650, 9.6978331E-03
2491.579, 1.1117870E-02
2493.507, 1.1543420E-02
2495.436, 1.1575990E-02
2497.364, 1.1564120E-02
2499.293, 1.1831960E-02
2501.221, 1.1775820E-02
2503.150, 1.0982310E-02
2505.078, 1.1492880E-02
2507.007, 1.1976390E-02
2508.935, 1.1419080E-02
2510.864, 1.1868740E-02
2512.792, 1.1081560E-02
2514.720, 9.2793973E-03
2516.649, 9.7292969E-03
2518.577, 1.1735640E-02
2520.506, 1.2191700E-02
2522.434, 1.1912360E-02
2524.363, 1.1015310E-02
2526.291, 1.1497150E-02
2528.220, 1.1478240E-02
2530.148, 1.0578640E-02
2532.077, 1.0051550E-02
2534.005, 1.0873790E-02
2535.934, 1.0954880E-02
2537.862, 1.0541350E-02
2539.791, 1.1259110E-02
2541.719, 1.2447350E-02
2543.647, 1.2631200E-02
2545.576, 1.1819580E-02
2547.504, 1.2407310E-02
2549.433, 1.2006130E-02
2551.361, 1.1160110E-02
2553.290, 1.1356910E-02
2555.218, 1.2006850E-02
2557.147, 1.1732360E-02
2559.075, 1.2119430E-02
2561.004, 1.3570630E-02
2562.932, 1.2262280E-02
2564.861, 1.0757750E-02
2566.789, 1.0601490E-02
2568.718, 1.1658410E-02
2570.646, 1.2584700E-02
2572.574, 1.2080910E-02
2574.503, 1.2054520E-02
2576.431, 1.0993340E-02
2578.360, 1.1413780E-02
2580.288, 1.3311470E-02
2582.217, 1.3212160E-02
2584.145, 1.0517160E-02
2586.074, 1.0552510E-02
2588.002, 1.1696890E-02
2589.931, 1.2072810E-02
2591.859, 1.2340850E-02
2593.788, 1.2029720E-02
2595.716, 1.0826730E-02
2597.645, 1.1349600E-02
2599.573, 1.2130730E-02
2601.501, 1.1170740E-02
2603.430, 1.0840350E-02
2605.358, 1.0768810E-02
2607.287, 1.1142010E-02
2609.215, 1.2457140E-02
2611.144, 1.4461380E-02
2613.072, 1.4115030E-02
2615.001, 1.2973610E-02
2616.929, 1.2335480E-02
2618.858, 1.2559590E-02
2620.786, 1.2702480E-02
2622.715, 1.1906730E-02
2624.643, 1.1675250E-02
2626.572, 1.1706330E-02
2628.500, 1.1474120E-02
2630.428, 1.1291430E-02
2632.357, 1.1977650E-02
2634.285, 1.3142040E-02
2636.214, 1.3053760E-02
2638.142, 1.1927660E-02
2640.071, 1.1978720E-02
2641.999, 1.3060010E-02
2643.928, 1.3079020E-02
2645.856, 1.2682520E-02
2647.785, 1.2449080E-02
2649.713, 1.2695850E-02
2651.642, 1.2499190E-02
2653.570, 1.2067150E-02
2655.499, 1.1848240E-02
2657.427, 1.2166730E-02
2659.355, 1.2624190E-02
2661.284, 1.2605620E-02
2663.212, 1.2822370E-02
2665.141, 1.2930140E-02
2667.069, 1.2327340E-02
2668.998, 1.1881660E-02
2670.926, 1.1662990E-02
2672.855, 1.1823140E-02
2674.783, 1.2334690E-02
2676.712, 1.2035360E-02
2678.640, 1.2016140E-02
2680.569, 1.2305900E-02
2682.497, 1.2478420E-02
2684.426, 1.2083710E-02
2686.354, 1.2203380E-02
2688.282, 1.1614980E-02
2690.211, 1.1669320E-02
2692.139, 1.2561150E-02
2694.068, 1.2846010E-02
2695.996, 1.2571380E-02
2697.925, 1.2588410E-02
2699.853, 1.2920990E-02
2701.782, 1.2926060E-02
2703.710, 1.2876680E-02
2705.639, 1.2778920E-02
2707.567, 1.2448610E-02
2709.496, 1.2115460E-02
2711.424, 1.2876630E-02
2713.353, 1.3252050E-02
2715.281, 1.3331530E-02
2717.209, 1.2811810E-02
2719.138, 1.1517730E-02
2721.066, 1.1219120E-02
2722.995, 1.2404840E-02
2724.923, 1.3244290E-02
2726.852, 1.2890340E-02
2728.780, 1.1949410E-02
2730.709, 1.2274220E-02
2732.637, 1.3002000E-02
2734.566, 1.2579700E-02
2736.494, 1.2237560E-02
2738.423, 1.2293490E-02
2740.351, 1.3079920E-02
2742.280, 1.3358690E-02
2744.208, 1.2815950E-02
2746.136, 1.3319790E-02
2748.065, 1.3348480E-02
2749.993, 1.3435340E-02
2751.922, 1.3397920E-02
2753.850, 1.3462120E-02
2755.779, 1.3872200E-02
2757.707, 1.3933860E-02
2759.636, 1.3398950E-02
2761.564, 1.3007440E-02
2763.493, 1.3109100E-02
2765.421, 1.3086560E-02
2767.350, 1.2772400E-02
2769.278, 1.3635350E-02
2771.207, 1.3782480E-02
2773.135, 1.2927730E-02
2775.063, 1.2636370E-02
2776.992, 1.2751340E-02
2778.920, 1.3012410E-02
2780.849, 1.3374950E-02
2782.777, 1.3151820E-02
2784.706, 1.2345400E-02
2786.634, 1.2685330E-02
2788.563, 1.2865360E-02
2790.491, 1.2445130E-02
2792.420, 1.2214630E-02
2794.348, 1.2485060E-02
2796.277, 1.2993380E-02
2798.205, 1.2923900E-02
2800.134, 1.2943210E-02
2802.062, 1.3972100E-02
2803.990, 1.4707650E-02
2805.919, 1.4519040E-02
2807.847, 1.3867410E-02
2809.776, 1.3206300E-02
2811.704, 1.2881170E-02
2813.633, 1.2964630E-02
2815.561, 1.3347600E-02
2817.490, 1.4017300E-02
2819.418, 1.3450980E-02
2821.347, 1.3518980E-02
2823.275, 1.4146480E-02
2825.204, 1.3979170E-02
2827.132, 1.3074450E-02
2829.061, 1.3322990E-02
2830.989, 1.4967280E-02
2832.917, 1.5257900E-02
2834.846, 1.5432730E-02
2836.774, 1.4615250E-02
2838.703, 1.4343770E-02
2840.631, 1.5121440E-02
2842.560, 1.4903760E-02
2844.488, 1.4928940E-02
2846.417, 1.5574030E-02
2848.345, 1.5410560E-02
2850.274, 1.4688340E-02
2852.202, 1.5563000E-02
2854.131, 1.6858300E-02
2856.059, 1.7485701E-02
2857.988, 1.7025851E-02
2859.916, 1.5287320E-02
2861.844, 1.3445850E-02
2863.773, 1.2813170E-02
2865.701, 1.2924170E-02
2867.630, 1.3301110E-02
2869.558, 1.4055350E-02
2871.487, 1.5092790E-02
2873.415, 1.5022560E-02
2875.344, 1.4005930E-02
2877.272, 1.2937240E-02
2879.201, 1.3025150E-02
2881.129, 1.4170150E-02
2883.058, 1.4604140E-02
2884.986, 1.3579120E-02
2886.915, 1.2957400E-02
2888.843, 1.3171590E-02
2890.771, 1.3786070E-02
2892.700, 1.5128130E-02
2894.628, 1.5634650E-02
2896.557, 1.5062340E-02
2898.485, 1.4536450E-02
2900.414, 1.4296970E-02
2902.342, 1.4129860E-02
2904.271, 1.4815580E-02
2906.199, 1.4386170E-02
2908.128, 1.4229750E-02
2910.056, 1.4539860E-02
2911.985, 1.5595340E-02
2913.913, 1.5564910E-02
2915.842, 1.5400140E-02
2917.770, 1.6066359E-02
2919.698, 1.5875651E-02
2921.627, 1.5737049E-02
2923.555, 1.5933610E-02
2925.484, 1.7293220E-02
2927.412, 1.7845720E-02
2929.341, 1.7186839E-02
2931.269, 1.7080911E-02
2933.198, 1.6025919E-02
2935.126, 1.5303260E-02
2937.055, 1.5252250E-02
2938.983, 1.4536340E-02
2940.912, 1.4030310E-02
2942.840, 1.4251190E-02
2944.769, 1.4517490E-02
2946.697, 1.4904570E-02
2948.625, 1.5841531E-02
2950.554, 1.5789930E-02
2952.482, 1.5540590E-02
2954.411, 1.6331671E-02
2956.339, 1.6345499E-02
2958.268, 1.5581950E-02
2960.196, 1.4868170E-02
2962.125, 1.5147550E-02
2964.053, 1.5298730E-02
2965.982, 1.5036620E-02
2967.910, 1.4837380E-02
2969.839, 1.4779930E-02
2971.767, 1.4474620E-02
2973.696, 1.4057120E-02
2975.624, 1.4338170E-02
2977.552, 1.4338690E-02
2979.481, 1.3992450E-02
2981.409, 1.4729200E-02
2983.338, 1.5333150E-02
2985.266, 1.6955329E-02
2987.195, 1.6974511E-02
2989.123, 1.5069870E-02
2991.052, 1.4674590E-02
2992.980, 1.5336240E-02
2994.909, 1.6017251E-02
2996.837, 1.5176170E-02
2998.766, 1.4192300E-02
3000.694, 1.4264560E-02
3002.623, 1.4770600E-02
3004.551, 1.4249980E-02
3006.479, 1.3681780E-02
3008.408, 1.4084270E-02
3010.336, 1.4128590E-02
3012.265, 1.4617880E-02
3014.193, 1.4736720E-02
3016.122, 1.4602230E-02
3018.050, 1.4166610E-02
3019.979, 1.4410050E-02
3021.907, 1.5187040E-02
3023.836, 1.5915049E-02
3025.764, 1.5480700E-02
3027.693, 1.4914020E-02
3029.621, 1.5207220E-02
3031.550, 1.5799589E-02
3033.478, 1.6395399E-02
3035.406, 1.6464680E-02
3037.335, 1.5102900E-02
3039.263, 1.4893200E-02
3041.192, 1.6077280E-02
3043.120, 1.5520930E-02
3045.049, 1.3619860E-02
3046.977, 1.4389040E-02
3048.906, 1.5225940E-02
3050.834, 1.5553830E-02
3052.763, 1.5142990E-02
3054.691, 1.4865220E-02
3056.620, 1.5080070E-02
3058.548, 1.5499340E-02
3060.477, 1.6319970E-02
3062.405, 1.5817869E-02
3064.333, 1.3917870E-02
3066.262, 1.3654390E-02
3068.190, 1.5152780E-02
3070.119, 1.5161790E-02
3072.047, 1.6668480E-02
3073.976, 1.7821230E-02
3075.904, 1.7729640E-02
3077.833, 1.7113300E-02
3079.761, 1.5869720E-02
3081.690, 1.5876140E-02
3083.618, 1.6971819E-02
3085.547, 1.6936781E-02
3087.475, 1.6834440E-02
3089.404, 1.5503670E-02
3091.332, 1.5131470E-02
3093.260, 1.7249949E-02
3095.189, 1.7585170E-02
3097.117, 1.5856771E-02
3099.046, 1.5043580E-02
3100.974, 1.5972059E-02
3102.903, 1.7219581E-02
3104.831, 1.7145360E-02
3106.760, 1.6511340E-02
3108.688, 1.5602430E-02
3110.617, 1.5505550E-02
3112.545, 1.6741710E-02
3114.474, 1.7002661E-02
3116.402, 1.6804900E-02
3118.331, 1.6961560E-02
3120.259, 1.5750770E-02
3122.188, 1.5293480E-02
3124.116, 1.6005149E-02
3126.044, 1.6102239E-02
3127.973, 1.6119409E-02
3129.901, 1.5224290E-02
3131.830, 1.4133830E-02
3133.758, 1.4070560E-02
3135.687, 1.5314640E-02
3137.615, 1.5966911E-02
3139.544, 1.5718780E-02
3141.472, 1.7438149E-02
3143.401, 1.7606050E-02
3145.329, 1.7356010E-02
3147.258, 1.6562110E-02
3149.186, 1.6799459E-02
3151.115, 1.6828140E-02
3153.043, 1.7029669E-02
3154.971, 1.7061470E-02
3156.900, 1.6892809E-02
3158.828, 1.6049450E-02
3160.757, 1.7072929E-02
3162.685, 1.8359199E-02
3164.614, 1.7795609E-02
3166.542, 1.7055729E-02
3168.471, 1.7485199E-02
3170.399, 1.6747050E-02
3172.328, 1.4788890E-02
3174.256, 1.5851511E-02
3176.185, 1.7030209E-02
3178.113, 1.6246621E-02
3180.042, 1.6576150E-02
3181.970, 1.6825560E-02
3183.898, 1.6486291E-02
3185.827, 1.6147640E-02
3187.755, 1.8744851E-02
3189.684, 1.9670179E-02
3191.612, 1.9637670E-02
3193.541, 1.9328030E-02
3195.469, 1.6810780E-02
3197.398, 1.7471230E-02
3199.326, 1.8942369E-02
3201.255, 1.9135419E-02
3203.183, 1.8624621E-02
3205.112, 1.7017700E-02
3207.040, 1.5396850E-02
3208.969, 1.5426000E-02
3210.897, 1.6538130E-02
3212.825, 1.6337041E-02
3214.754, 1.5416650E-02
3216.682, 1.6061541E-02
3218.611, 1.7900370E-02
3220.539, 1.7528201E-02
3222.468, 1.7222811E-02
3224.396, 1.8044120E-02
3226.325, 1.8693520E-02
3228.253, 1.8294459E-02
3230.182, 1.6951689E-02
3232.110, 1.6980670E-02
3234.039, 1.8021990E-02
3235.967, 1.9089431E-02
3237.896, 1.8220410E-02
3239.824, 1.7055310E-02
3241.752, 1.8727610E-02
3243.681, 1.9262619E-02
3245.609, 1.8862359E-02
3247.538, 1.8205119E-02
3249.466, 1.7646279E-02
3251.395, 1.7330950E-02
3253.323, 1.9478129E-02
3255.252, 2.0031210E-02
3257.180, 1.7148430E-02
3259.109, 1.6392451E-02
3261.037, 1.6443910E-02
3262.966, 1.5827149E-02
3264.894, 1.6932840E-02
3266.823, 1.7784599E-02
3268.751, 1.8101450E-02
3270.679, 1.7949799E-02
3272.608, 1.7578719E-02
3274.536, 1.7854059E-02
3276.465, 1.8213660E-02
3278.393, 1.7873440E-02
3280.322, 1.7841140E-02
3282.250, 1.9374041E-02
3284.179, 2.0453701E-02
3286.107, 2.0774910E-02
3288.036, 2.0864040E-02
3289.964, 2.1331090E-02
3291.893, 1.9793989E-02
3293.821, 1.8657951E-02
3295.750, 1.7465230E-02
3297.678, 1.8376959E-02
3299.606, 1.9240670E-02
3301.535, 1.7997609E-02
3303.463, 1.7954480E-02
3305.392, 1.9537721E-02
3307.320, 2.0079991E-02
3309.249, 1.8079750E-02
3311.177, 1.9107111E-02
3313.106, 1.8535661E-02
3315.034, 1.5735861E-02
3316.963, 1.6133299E-02
3318.891, 1.6508039E-02
3320.820, 1.6013861E-02
3322.748, 1.7792430E-02
3324.677, 1.8599940E-02
3326.605, 1.8685540E-02
3328.533, 1.9867370E-02
3330.462, 1.8758070E-02
3332.390, 1.6657950E-02
3334.319, 1.6741350E-02
3336.247, 1.7175149E-02
3338.176, 1.8166550E-02
3340.104, 1.8126059E-02
3342.033, 1.8353840E-02
3343.961, 1.7892219E-02
3345.890, 1.6828829E-02
3347.818, 1.9069459E-02
3349.747, 2.0460380E-02
3351.675, 1.8902751E-02
3353.604, 1.7558791E-02
3355.532, 1.8601950E-02
3357.460, 2.1798519E-02
3359.389, 1.9469690E-02
3361.317, 1.7854299E-02
3363.246, 1.9797791E-02
3365.174, 1.9389210E-02
3367.103, 1.7630599E-02
3369.031, 1.8308129E-02
3370.960, 1.6889609E-02
3372.888, 1.6020540E-02
3374.817, 1.8815210E-02
3376.745, 2.0139150E-02
3378.674, 1.8364379E-02
3380.602, 1.7554590E-02
3382.531, 1.8934170E-02
3384.459, 1.9429751E-02
3386.387, 1.8078901E-02
3388.316, 1.7711220E-02
3390.244, 1.8289311E-02
3392.173, 1.8723110E-02
3394.101, 1.7896719E-02
3396.030, 1.6475540E-02
3397.958, 1.6300811E-02
3399.887, 1.6799470E-02
3401.815, 1.6429409E-02
3403.744, 1.7754430E-02
3405.672, 1.8571461E-02
3407.601, 1.7392701E-02
3409.529, 1.8327340E-02
3411.458, 1.9372750E-02
3413.386, 2.0188671E-02
3415.314, 2.0293919E-02
3417.243, 1.9765630E-02
3419.171, 2.0061661E-02
3421.100, 1.9504109E-02
3423.028, 1.7414520E-02
3424.957, 1.8139141E-02
3426.885, 1.8630570E-02
3428.814, 1.7653640E-02
3430.742, 1.7928960E-02
3432.671, 1.6678140E-02
3434.599, 1.5863180E-02
3436.528, 1.8062809E-02
3438.456, 1.8897340E-02
3440.385, 1.7923281E-02
3442.313, 1.8956080E-02
3444.241, 2.0451570E-02
3446.170, 2.0250389E-02
3448.098, 1.8949410E-02
3450.027, 1.7170940E-02
3451.955, 1.6909830E-02
3453.884, 1.8297790E-02
3455.812, 1.9932210E-02
3457.741, 1.8296771E-02
3459.669, 1.6397970E-02
3461.598, 1.8389629E-02
3463.526, 1.7959870E-02
3465.455, 1.7428691E-02
3467.383, 2.0532031E-02
3469.312, 2.0887841E-02
3471.240, 1.7748009E-02
3473.168, 1.7801540E-02
3475.097, 1.8829839E-02
3477.025, 2.0294379E-02
3478.954, 1.8878169E-02
3480.882, 1.6778851E-02
3482.811, 1.7100319E-02
3484.739, 1.6914200E-02
3486.668, 1.6378200E-02
3488.596, 1.5462330E-02
3490.525, 1.7431339E-02
3492.453, 1.9167380E-02
3494.382, 1.8344630E-02
3496.310, 1.6396550E-02
3498.239, 1.7551830E-02
3500.167, 1.8889230E-02
3502.095, 1.9143330E-02
3504.024, 2.0698739E-02
3505.952, 2.1889340E-02
3507.881, 1.9646080E-02
3509.809, 1.4722540E-02
3511.738, 1.5984621E-02
3513.666, 1.8927550E-02
3515.595, 2.0181760E-02
3517.523, 2.3624320E-02
3519.452, 2.4971381E-02
3521.380, 2.4951151E-02
3523.309, 2.3973480E-02
3525.237, 2.4330720E-02
3527.166, 2.1506250E-02
3529.094, 1.9167770E-02
3531.022, 2.0116810E-02
3532.951, 2.0945450E-02
3534.879, 2.2121640E-02
3536.808, 2.3552589E-02
3538.736, 2.1090530E-02
3540.665, 1.7291000E-02
3542.593, 1.8498641E-02
3544.522, 2.0552410E-02
3546.450, 2.1607030E-02
3548.379, 2.0388070E-02
3550.307, 1.9091100E-02
3552.236, 2.0613600E-02
3554.164, 2.1534011E-02
3556.093, 2.1055890E-02
3558.021, 1.7567839E-02
3559.949, 1.6279640E-02
3561.878, 1.8162711E-02
3563.806, 2.0467261E-02
3565.735, 2.0690739E-02
3567.663, 2.0694019E-02
3569.592, 2.0007979E-02
3571.520, 1.9795960E-02
3573.449, 2.0270711E-02
3575.377, 1.8800890E-02
3577.306, 1.7047569E-02
3579.234, 1.5818050E-02
3581.163, 1.8149629E-02
3583.091, 1.9055611E-02
3585.020, 1.6170179E-02
3586.948, 1.5777590E-02
3588.876, 1.7664259E-02
3590.805, 1.7541030E-02
3592.733, 1.7033949E-02
3594.662, 1.7666239E-02
3596.590, 1.7106339E-02
3598.519, 1.6308540E-02
3600.447, 1.6536331E-02
3602.376, 1.5477130E-02
3604.304, 1.5395200E-02
3606.233, 1.9090990E-02
3608.161, 2.1743581E-02
3610.090, 2.0992970E-02
3612.018, 1.8049570E-02
3613.947, 1.8229410E-02
3615.875, 1.7467709E-02
3617.803, 1.6678320E-02
3619.732, 1.6841400E-02
3621.660, 1.7492380E-02
3623.589, 1.7858190E-02
3625.517, 1.8723520E-02
3627.446, 1.9708769E-02
3629.374, 2.0104939E-02
3631.303, 1.7921280E-02
3633.231, 1.9629771E-02
3635.160, 2.0467380E-02
3637.088, 1.8058561E-02
3639.017, 1.6426651E-02
3640.945, 1.6007051E-02
3642.874, 1.5201970E-02
3644.802, 1.6009251E-02
3646.730, 1.7740419E-02
3648.659, 1.9228820E-02
3650.587, 1.7967150E-02
3652.516, 1.8109569E-02
3654.444, 1.8327359E-02
3656.373, 1.5094410E-02
3658.301, 1.4390570E-02
3660.230, 1.4657010E-02
3662.158, 1.4809250E-02
3664.087, 1.4714240E-02
3666.015, 1.6289189E-02
3667.944, 1.8183850E-02
3669.872, 2.0049360E-02
3671.801, 2.1384370E-02
3673.729, 2.1054899E-02
3675.657, 1.8123919E-02
3677.586, 1.4277570E-02
3679.514, 1.5061570E-02
3681.443, 1.7284000E-02
3683.371, 1.7746139E-02
3685.300, 1.5674200E-02
3687.228, 1.3532550E-02
3689.157, 1.4353940E-02
3691.085, 1.6160410E-02
3693.014, 1.7497901E-02
3694.942, 1.9059259E-02
3696.871, 1.7712340E-02
3698.799, 1.4716590E-02
3700.728, 1.4976480E-02
3702.656, 1.7782981E-02
3704.584, 1.9812699E-02
3706.513, 1.8015349E-02
3708.441, 1.5881330E-02
3710.370, 1.4584840E-02
3712.298, 1.5966170E-02
3714.227, 2.0293679E-02
3716.155, 2.0183140E-02
3718.084, 1.8167401E-02
3720.012, 1.8440610E-02
3721.941, 1.7813381E-02
3723.869, 1.6530801E-02
3725.798, 1.7257400E-02
3727.726, 2.0814771E-02
3729.655, 2.0857081E-02
3731.583, 1.8055061E-02
3733.511, 1.8593870E-02
3735.440, 1.7639229E-02
3737.368, 1.6198060E-02
3739.297, 1.6335700E-02
3741.225, 1.6197501E-02
3743.154, 1.8114431E-02
3745.082, 1.9108580E-02
3747.011, 1.8419741E-02
3748.939, 1.7269300E-02
3750.868, 1.7882969E-02
3752.796, 2.0354440E-02
3754.725, 2.0601369E-02
3756.653, 2.0648761E-02
3758.582, 1.8058760E-02
3760.510, 1.5568720E-02
3762.438, 1.7175511E-02
3764.367, 1.9144259E-02
3766.295, 1.5958831E-02
3768.224, 1.4884700E-02
3770.152, 1.4959640E-02
3772.081, 1.7249720E-02
3774.009, 1.9687179E-02
3775.938, 2.0111861E-02
3777.866, 1.7202681E-02
3779.795, 1.6717819E-02
3781.723, 1.5609100E-02
3783.652, 1.6123520E-02
3785.580, 1.7598581E-02
3787.509, 1.7756470E-02
3789.437, 1.6098600E-02
3791.365, 1.5013130E-02
3793.294, 1.4080660E-02
3795.222, 1.4341500E-02
3797.151, 1.7099150E-02
3799.079, 1.8463099E-02
3801.008, 2.0460751E-02
3802.936, 2.1520920E-02
3804.865, 1.6317179E-02
3806.793, 1.3618540E-02
3808.722, 1.7343430E-02
3810.650, 1.9279610E-02
3812.579, 2.0953471E-02
3814.507, 2.2113141E-02
3816.436, 1.8010581E-02
3818.364, 1.5292800E-02
3820.292, 1.6962290E-02
3822.221, 1.7731160E-02
3824.149, 1.7787879E-02
3826.078, 1.9019609E-02
3828.006, 1.7711719E-02
3829.935, 1.7534930E-02
3831.863, 2.1196410E-02
3833.792, 2.1414740E-02
3835.720, 1.8728189E-02
3837.649, 1.7884601E-02
3839.577, 2.0979069E-02
3841.506, 2.2198061E-02
3843.434, 2.3025420E-02
3845.363, 2.1852661E-02
3847.291, 1.6521649E-02
3849.219, 1.6216571E-02
3851.148, 1.9526079E-02
3853.076, 1.9795110E-02
3855.005, 1.9084590E-02
3856.933, 2.0210290E-02
3858.862, 1.8022999E-02
3860.790, 1.4804910E-02
3862.719, 1.8046711E-02
3864.647, 2.1458041E-02
3866.576, 1.9216390E-02
3868.504, 1.8412201E-02
3870.433, 2.1531731E-02
3872.361, 2.2458021E-02
3874.290, 1.9897079E-02
3876.218, 1.6698020E-02
3878.146, 1.5332650E-02
3880.075, 1.6280100E-02
3882.003, 1.8190119E-02
3883.932, 1.7562110E-02
3885.860, 1.5911030E-02
3887.789, 1.7566411E-02
3889.717, 2.0739671E-02
3891.646, 2.0510821E-02
3893.574, 1.7902700E-02
3895.503, 1.7203899E-02
3897.431, 1.8027460E-02
3899.360, 1.7126439E-02
3901.288, 1.8928850E-02
3903.217, 1.9653080E-02
3905.145, 1.7567690E-02
3907.073, 1.8583730E-02
3909.002, 1.9130919E-02
3910.930, 1.9731380E-02
3912.859, 1.6307959E-02
3914.787, 1.8796939E-02
3916.716, 2.2347961E-02
3918.644, 2.0717129E-02
3920.573, 1.9676730E-02
3922.501, 2.2552170E-02
3924.430, 2.3361020E-02
3926.358, 2.3123899E-02
3928.287, 1.9518079E-02
3930.215, 1.6913399E-02
3932.144, 1.7349010E-02
3934.072, 2.1214381E-02
3936.000, 2.1283140E-02
3937.929, 1.8354829E-02
3939.857, 2.0135010E-02
3941.786, 2.1640830E-02
3943.714, 1.8143009E-02
3945.643, 1.8511180E-02
3947.571, 1.6392279E-02
3949.500, 1.5601410E-02
3951.428, 1.6241761E-02
3953.357, 1.8731169E-02
3955.285, 2.0042140E-02
3957.214, 1.8556319E-02
3959.142, 2.0038450E-02
3961.071, 2.0923359E-02
3962.999, 1.8665081E-02
3964.927, 1.7179679E-02
3966.856, 1.8549850E-02
3968.784, 1.7540431E-02
3970.713, 1.6784219E-02
3972.641, 1.7877581E-02
3974.570, 1.9560499E-02
3976.498, 1.7078640E-02
3978.427, 1.8378120E-02
3980.355, 2.0605819E-02
3982.284, 1.8353390E-02
3984.212, 1.9232141E-02
3986.141, 2.2370219E-02
3988.069, 2.2445429E-02
3989.998, 2.0177901E-02
3991.926, 1.8819241E-02
3993.854, 2.0395430E-02
3995.783, 2.0649379E-02
3997.711, 1.8519821E-02
3999.640, 1.8528750E-02
##END=



