##NAMES=Fluorite
##RRUFFID=R050115
##IDEAL CHEMISTRY=CaF_2_
##LOCALITY=Isthak Valley Iskardu, N.A. Gilgit, Pakistan
##OWNER=RRUFF
##SOURCE=Syed Shah
##DESCRIPTION=Colorless fragment
##STATUS=The identification of this mineral has been confirmed by X-ray diffraction and chemical analysis
##URL=rruff.info/R050115
##MEASURED CHEMISTRY=CaF_2_
3.741225e+002, 9.571388e-002
3.760510e+002, 7.596876e-002
3.779795e+002, 7.158712e-002
3.799079e+002, 8.237018e-002
3.818364e+002, 9.929776e-002
3.837649e+002, 8.917060e-002
3.856933e+002, 8.182853e-002
3.876218e+002, 8.497024e-002
3.895503e+002, 8.931680e-002
3.914787e+002, 9.170554e-002
3.934072e+002, 8.959268e-002
3.953357e+002, 8.294520e-002
3.972641e+002, 7.894743e-002
3.991926e+002, 7.260842e-002
4.011211e+002, 7.228189e-002
4.030495e+002, 7.203865e-002
4.049780e+002, 7.263033e-002
4.069065e+002, 6.894653e-002
4.088349e+002, 6.982395e-002
4.107634e+002, 6.320332e-002
4.126919e+002, 5.909814e-002
4.146203e+002, 6.033111e-002
4.165488e+002, 5.813003e-002
4.184773e+002, 5.471379e-002
4.204057e+002, 5.288038e-002
4.223342e+002, 5.282731e-002
4.242627e+002, 5.065588e-002
4.261911e+002, 4.846818e-002
4.281196e+002, 4.937702e-002
4.300481e+002, 4.803129e-002
4.319765e+002, 4.630623e-002
4.339050e+002, 4.534737e-002
4.358335e+002, 4.480052e-002
4.377619e+002, 4.376573e-002
4.396904e+002, 4.233902e-002
4.416189e+002, 3.982554e-002
4.435473e+002, 3.768626e-002
4.454758e+002, 3.488594e-002
4.474043e+002, 3.423538e-002
4.493327e+002, 3.354857e-002
4.512612e+002, 3.166602e-002
4.531897e+002, 2.947341e-002
4.551181e+002, 2.719909e-002
4.570466e+002, 2.599242e-002
4.589751e+002, 2.581005e-002
4.609035e+002, 2.536818e-002
4.628320e+002, 2.410068e-002
4.647605e+002, 2.334032e-002
4.666889e+002, 2.252746e-002
4.686174e+002, 2.202333e-002
4.705459e+002, 2.059594e-002
4.724743e+002, 1.895857e-002
4.744028e+002, 1.768439e-002
4.763313e+002, 1.694757e-002
4.782597e+002, 1.617249e-002
4.801882e+002, 1.549978e-002
4.821167e+002, 1.512174e-002
4.840451e+002, 1.405496e-002
4.859736e+002, 1.308404e-002
4.879021e+002, 1.286845e-002
4.898305e+002, 1.298049e-002
4.917590e+002, 1.274635e-002
4.936875e+002, 1.215542e-002
4.956159e+002, 1.182917e-002
4.975444e+002, 1.157967e-002
4.994729e+002, 1.134993e-002
5.014013e+002, 1.119169e-002
5.033298e+002, 1.122605e-002
5.052583e+002, 1.082121e-002
5.071867e+002, 1.056934e-002
5.091152e+002, 1.074206e-002
5.110437e+002, 1.091092e-002
5.129721e+002, 1.005077e-002
5.149006e+002, 9.351214e-003
5.168290e+002, 9.149008e-003
5.187575e+002, 9.134203e-003
5.206860e+002, 9.362835e-003
5.226144e+002, 9.453469e-003
5.245429e+002, 8.754178e-003
5.264714e+002, 8.144263e-003
5.283998e+002, 8.526248e-003
5.303283e+002, 8.707779e-003
5.322568e+002, 8.792528e-003
5.341852e+002, 8.986366e-003
5.361137e+002, 8.699375e-003
5.380422e+002, 8.387334e-003
5.399706e+002, 8.357948e-003
5.418991e+002, 8.782704e-003
5.438276e+002, 8.475091e-003
5.457560e+002, 8.343573e-003
5.476845e+002, 8.473698e-003
5.496130e+002, 8.483192e-003
5.515414e+002, 8.312586e-003
5.534699e+002, 8.212050e-003
5.553984e+002, 8.202696e-003
5.573268e+002, 8.031801e-003
5.592553e+002, 7.807176e-003
5.611838e+002, 7.925995e-003
5.631122e+002, 8.162358e-003
5.650407e+002, 8.397620e-003
5.669692e+002, 8.328070e-003
5.688976e+002, 8.048126e-003
5.708261e+002, 7.624385e-003
5.727546e+002, 7.444797e-003
5.746830e+002, 7.395868e-003
5.766115e+002, 7.348746e-003
5.785400e+002, 7.197953e-003
5.804684e+002, 6.989079e-003
5.823969e+002, 6.546397e-003
5.843254e+002, 6.316621e-003
5.862538e+002, 6.033774e-003
5.881823e+002, 6.044202e-003
5.901108e+002, 6.040457e-003
5.920392e+002, 5.799192e-003
5.939677e+002, 5.636396e-003
5.958962e+002, 5.325376e-003
5.978246e+002, 4.902609e-003
5.997531e+002, 4.757193e-003
6.016816e+002, 4.630992e-003
6.036100e+002, 4.764751e-003
6.055385e+002, 4.890042e-003
6.074670e+002, 4.645159e-003
6.093954e+002, 4.268751e-003
6.113239e+002, 4.087124e-003
6.132524e+002, 3.898574e-003
6.151808e+002, 3.902270e-003
6.171093e+002, 3.842289e-003
6.190378e+002, 3.945052e-003
6.209662e+002, 3.921891e-003
6.228947e+002, 3.829929e-003
6.248232e+002, 3.652177e-003
6.267516e+002, 3.438684e-003
6.286801e+002, 3.338220e-003
6.306086e+002, 3.521514e-003
6.325370e+002, 3.366380e-003
6.344655e+002, 3.222416e-003
6.363940e+002, 3.104149e-003
6.383224e+002, 3.013622e-003
6.402509e+002, 2.915903e-003
6.421794e+002, 2.913161e-003
6.441078e+002, 2.983185e-003
6.460363e+002, 3.194566e-003
6.479648e+002, 2.973360e-003
6.498932e+002, 2.706442e-003
6.518217e+002, 2.648737e-003
6.537502e+002, 2.642252e-003
6.556786e+002, 2.190819e-003
6.576071e+002, 1.982161e-003
6.595356e+002, 2.103194e-003
6.614641e+002, 2.245291e-003
6.633925e+002, 2.205873e-003
6.653210e+002, 2.260628e-003
6.672495e+002, 2.235853e-003
6.691779e+002, 2.362128e-003
6.711064e+002, 2.515406e-003
6.730349e+002, 2.443444e-003
6.749633e+002, 2.222015e-003
6.768918e+002, 2.422054e-003
6.788203e+002, 2.392762e-003
6.807487e+002, 2.309979e-003
6.826772e+002, 2.314653e-003
6.846057e+002, 2.276958e-003
6.865341e+002, 2.140324e-003
6.884626e+002, 2.267168e-003
6.903911e+002, 2.119034e-003
6.923195e+002, 2.154987e-003
6.942480e+002, 2.273194e-003
6.961765e+002, 2.156793e-003
6.981049e+002, 2.105696e-003
7.000334e+002, 2.290991e-003
7.019619e+002, 2.263536e-003
7.038903e+002, 2.202068e-003
7.058188e+002, 2.141210e-003
7.077473e+002, 2.164182e-003
7.096757e+002, 2.153171e-003
7.116042e+002, 2.212450e-003
7.135327e+002, 2.122260e-003
7.154611e+002, 2.013827e-003
7.173896e+002, 2.057633e-003
7.193181e+002, 2.353024e-003
7.212465e+002, 2.434105e-003
7.231750e+002, 2.330249e-003
7.251035e+002, 2.073010e-003
7.270319e+002, 1.993786e-003
7.289604e+002, 1.833664e-003
7.308889e+002, 1.845823e-003
7.328173e+002, 1.867716e-003
7.347458e+002, 1.832081e-003
7.366743e+002, 1.710631e-003
7.386027e+002, 1.760310e-003
7.405312e+002, 1.766412e-003
7.424597e+002, 1.836693e-003
7.443881e+002, 1.797437e-003
7.463166e+002, 1.875682e-003
7.482451e+002, 1.906289e-003
7.501735e+002, 2.043667e-003
7.521020e+002, 1.821977e-003
7.540305e+002, 1.684805e-003
7.559589e+002, 1.693067e-003
7.578874e+002, 1.715485e-003
7.598159e+002, 1.600067e-003
7.617443e+002, 1.554599e-003
7.636728e+002, 1.449769e-003
7.656013e+002, 1.351862e-003
7.675297e+002, 1.382693e-003
7.694582e+002, 1.523290e-003
7.713867e+002, 1.481741e-003
7.733151e+002, 1.281673e-003
7.752436e+002, 1.146406e-003
7.771721e+002, 1.321646e-003
7.791005e+002, 1.185811e-003
7.810290e+002, 9.839085e-004
7.829575e+002, 9.662006e-004
7.848859e+002, 1.198087e-003
7.868144e+002, 1.120383e-003
7.887429e+002, 1.176700e-003
7.906713e+002, 1.005619e-003
7.925998e+002, 8.934373e-004
7.945283e+002, 9.227191e-004
7.964567e+002, 9.056432e-004
7.983852e+002, 9.513365e-004
8.003137e+002, 1.010144e-003
8.022421e+002, 8.127735e-004
8.041706e+002, 8.455759e-004
8.060991e+002, 8.589562e-004
8.080275e+002, 1.048155e-003
8.099560e+002, 1.015693e-003
8.118845e+002, 7.956874e-004
8.138129e+002, 7.529336e-004
8.157414e+002, 8.538411e-004
8.176699e+002, 9.236527e-004
8.195983e+002, 9.824412e-004
8.215268e+002, 9.646637e-004
8.234553e+002, 1.104184e-003
8.253837e+002, 1.140321e-003
8.273122e+002, 1.004058e-003
8.292407e+002, 8.575600e-004
8.311691e+002, 1.018598e-003
8.330976e+002, 1.099835e-003
8.350261e+002, 1.249358e-003
8.369545e+002, 1.377433e-003
8.388830e+002, 1.462059e-003
8.408115e+002, 1.369994e-003
8.427399e+002, 1.484818e-003
8.446684e+002, 1.369732e-003
8.465969e+002, 1.330037e-003
8.485253e+002, 1.367267e-003
8.504538e+002, 1.355554e-003
8.523823e+002, 1.255149e-003
8.543107e+002, 1.473828e-003
8.562392e+002, 1.666305e-003
8.581677e+002, 1.745042e-003
8.600961e+002, 1.693135e-003
8.620246e+002, 1.750733e-003
8.639531e+002, 1.790400e-003
8.658815e+002, 1.788689e-003
8.678100e+002, 1.887939e-003
8.697385e+002, 2.139585e-003
8.716669e+002, 2.169658e-003
8.735954e+002, 2.195740e-003
8.755239e+002, 2.306868e-003
8.774523e+002, 2.480820e-003
8.793808e+002, 2.283906e-003
8.813093e+002, 2.402619e-003
8.832377e+002, 2.502715e-003
8.851662e+002, 2.545289e-003
8.870947e+002, 2.517164e-003
8.890231e+002, 2.662433e-003
8.909516e+002, 2.742974e-003
8.928801e+002, 2.880986e-003
8.948085e+002, 3.101672e-003
8.967370e+002, 3.211970e-003
8.986655e+002, 2.991789e-003
9.005939e+002, 3.048640e-003
9.025224e+002, 3.164796e-003
9.044509e+002, 3.403739e-003
9.063793e+002, 3.360773e-003
9.083078e+002, 3.351199e-003
9.102363e+002, 3.376351e-003
9.121647e+002, 3.426823e-003
9.140932e+002, 3.558643e-003
9.160217e+002, 3.812021e-003
9.179501e+002, 3.765574e-003
9.198786e+002, 3.738195e-003
9.218071e+002, 3.696090e-003
9.237355e+002, 3.558661e-003
9.256640e+002, 3.442641e-003
9.275925e+002, 3.761539e-003
9.295209e+002, 3.945572e-003
9.314494e+002, 3.839893e-003
9.333779e+002, 3.563952e-003
9.353063e+002, 3.550056e-003
9.372348e+002, 3.647984e-003
9.391633e+002, 3.752993e-003
9.410917e+002, 3.657175e-003
9.430202e+002, 3.773042e-003
9.449487e+002, 3.881478e-003
9.468771e+002, 4.003783e-003
9.488056e+002, 4.016985e-003
9.507341e+002, 3.970885e-003
9.526625e+002, 3.802318e-003
9.545910e+002, 3.679700e-003
9.565195e+002, 3.724515e-003
9.584479e+002, 3.759583e-003
9.603764e+002, 3.731154e-003
9.623049e+002, 3.822751e-003
9.642333e+002, 3.693404e-003
9.661618e+002, 3.789712e-003
9.680903e+002, 3.943540e-003
9.700187e+002, 4.023912e-003
9.719472e+002, 3.881564e-003
9.738757e+002, 3.756610e-003
9.758041e+002, 3.875529e-003
9.777326e+002, 4.087246e-003
9.796611e+002, 3.945065e-003
9.815895e+002, 3.783674e-003
9.835180e+002, 3.530823e-003
9.854465e+002, 3.391133e-003
9.873749e+002, 3.357309e-003
9.893034e+002, 3.397731e-003
9.912319e+002, 3.385154e-003
9.931603e+002, 3.580635e-003
9.950888e+002, 3.640652e-003
9.970173e+002, 3.578586e-003
9.989457e+002, 3.590480e-003
1.000874e+003, 3.610821e-003
1.002803e+003, 3.538180e-003
1.004731e+003, 3.480515e-003
1.006660e+003, 3.456097e-003
1.008588e+003, 3.557817e-003
1.010517e+003, 3.502649e-003
1.012445e+003, 3.344008e-003
1.014373e+003, 3.299242e-003
1.016302e+003, 3.228913e-003
1.018230e+003, 3.313656e-003
1.020159e+003, 3.584662e-003
1.022087e+003, 3.385138e-003
1.024016e+003, 3.208273e-003
1.025944e+003, 2.989963e-003
1.027873e+003, 3.039404e-003
1.029801e+003, 3.187735e-003
1.031730e+003, 3.276275e-003
1.033658e+003, 3.210057e-003
1.035587e+003, 3.188434e-003
1.037515e+003, 3.195168e-003
1.039443e+003, 3.266772e-003
1.041372e+003, 3.153151e-003
1.043300e+003, 2.915416e-003
1.045229e+003, 2.726314e-003
1.047157e+003, 2.864843e-003
1.049086e+003, 2.820136e-003
1.051014e+003, 2.894320e-003
1.052943e+003, 2.977687e-003
1.054871e+003, 2.878772e-003
1.056800e+003, 2.903486e-003
1.058728e+003, 3.063612e-003
1.060657e+003, 2.966145e-003
1.062585e+003, 2.783274e-003
1.064514e+003, 2.708846e-003
1.066442e+003, 2.898366e-003
1.068370e+003, 3.031114e-003
1.070299e+003, 3.033480e-003
1.072227e+003, 2.909048e-003
1.074156e+003, 2.894834e-003
1.076084e+003, 2.904982e-003
1.078013e+003, 2.924709e-003
1.079941e+003, 2.923387e-003
1.081870e+003, 2.913783e-003
1.083798e+003, 2.625624e-003
1.085727e+003, 2.676639e-003
1.087655e+003, 2.838101e-003
1.089584e+003, 2.907533e-003
1.091512e+003, 2.872689e-003
1.093441e+003, 3.104904e-003
1.095369e+003, 3.208479e-003
1.097297e+003, 3.017312e-003
1.099226e+003, 2.821761e-003
1.101154e+003, 2.759111e-003
1.103083e+003, 2.886631e-003
1.105011e+003, 3.177674e-003
1.106940e+003, 3.091406e-003
1.108868e+003, 3.035818e-003
1.110797e+003, 2.928108e-003
1.112725e+003, 2.896656e-003
1.114654e+003, 3.039318e-003
1.116582e+003, 3.177579e-003
1.118511e+003, 3.055242e-003
1.120439e+003, 3.141249e-003
1.122368e+003, 3.149688e-003
1.124296e+003, 3.205307e-003
1.126224e+003, 3.082509e-003
1.128153e+003, 3.037008e-003
1.130081e+003, 3.001397e-003
1.132010e+003, 3.028257e-003
1.133938e+003, 3.007369e-003
1.135867e+003, 3.212496e-003
1.137795e+003, 3.364216e-003
1.139724e+003, 3.602285e-003
1.141652e+003, 3.652201e-003
1.143581e+003, 3.667112e-003
1.145509e+003, 3.834490e-003
1.147438e+003, 4.144556e-003
1.149366e+003, 4.238508e-003
1.151295e+003, 4.435671e-003
1.153223e+003, 4.495302e-003
1.155151e+003, 4.701480e-003
1.157080e+003, 4.810694e-003
1.159008e+003, 4.753889e-003
1.160937e+003, 4.624937e-003
1.162865e+003, 4.625076e-003
1.164794e+003, 4.592319e-003
1.166722e+003, 4.579676e-003
1.168651e+003, 4.441482e-003
1.170579e+003, 4.402135e-003
1.172508e+003, 4.171769e-003
1.174436e+003, 3.884735e-003
1.176365e+003, 3.659205e-003
1.178293e+003, 3.508803e-003
1.180222e+003, 3.362268e-003
1.182150e+003, 3.368510e-003
1.184078e+003, 3.265494e-003
1.186007e+003, 3.049157e-003
1.187935e+003, 2.731122e-003
1.189864e+003, 2.501727e-003
1.191792e+003, 2.339230e-003
1.193721e+003, 2.397569e-003
1.195649e+003, 2.325390e-003
1.197578e+003, 2.288885e-003
1.199506e+003, 2.265386e-003
1.201435e+003, 2.100412e-003
1.203363e+003, 1.977854e-003
1.205292e+003, 2.196901e-003
1.207220e+003, 2.168282e-003
1.209149e+003, 2.095877e-003
1.211077e+003, 2.174806e-003
1.213005e+003, 2.207288e-003
1.214934e+003, 2.070340e-003
1.216862e+003, 2.013803e-003
1.218791e+003, 1.888343e-003
1.220719e+003, 1.984051e-003
1.222648e+003, 2.180045e-003
1.224576e+003, 2.180469e-003
1.226505e+003, 2.014911e-003
1.228433e+003, 1.979348e-003
1.230362e+003, 2.118608e-003
1.232290e+003, 2.244717e-003
1.234219e+003, 2.115724e-003
1.236147e+003, 2.064754e-003
1.238076e+003, 2.177774e-003
1.240004e+003, 2.217428e-003
1.241932e+003, 2.058761e-003
1.243861e+003, 2.077680e-003
1.245789e+003, 2.098264e-003
1.247718e+003, 1.991043e-003
1.249646e+003, 2.099938e-003
1.251575e+003, 2.283885e-003
1.253503e+003, 2.221926e-003
1.255432e+003, 2.244098e-003
1.257360e+003, 2.182582e-003
1.259289e+003, 2.164188e-003
1.261217e+003, 2.091988e-003
1.263146e+003, 2.042001e-003
1.265074e+003, 2.068638e-003
1.267003e+003, 2.132981e-003
1.268931e+003, 2.145513e-003
1.270859e+003, 2.056077e-003
1.272788e+003, 1.942887e-003
1.274716e+003, 1.852209e-003
1.276645e+003, 1.752141e-003
1.278573e+003, 1.761120e-003
1.280502e+003, 1.720023e-003
1.282430e+003, 1.775129e-003
1.284359e+003, 1.771352e-003
1.286287e+003, 1.804753e-003
1.288216e+003, 1.749096e-003
1.290144e+003, 1.754545e-003
1.292073e+003, 1.795047e-003
1.294001e+003, 1.824480e-003
1.295930e+003, 1.737990e-003
1.297858e+003, 1.746615e-003
1.299786e+003, 1.718798e-003
1.301715e+003, 1.705514e-003
1.303643e+003, 1.559584e-003
1.305572e+003, 1.562021e-003
1.307500e+003, 1.664254e-003
1.309429e+003, 1.677892e-003
1.311357e+003, 1.687554e-003
1.313286e+003, 1.683228e-003
1.315214e+003, 1.703226e-003
1.317143e+003, 1.720125e-003
1.319071e+003, 1.661449e-003
1.321000e+003, 1.668838e-003
1.322928e+003, 1.665384e-003
1.324857e+003, 1.642630e-003
1.326785e+003, 1.472709e-003
1.328714e+003, 1.463373e-003
1.330642e+003, 1.442425e-003
1.332570e+003, 1.556690e-003
1.334499e+003, 1.692234e-003
1.336427e+003, 1.680512e-003
1.338356e+003, 1.645091e-003
1.340284e+003, 1.634992e-003
1.342213e+003, 1.658930e-003
1.344141e+003, 1.850183e-003
1.346070e+003, 1.744929e-003
1.347998e+003, 1.712846e-003
1.349927e+003, 1.707536e-003
1.351855e+003, 1.641651e-003
1.353784e+003, 1.667294e-003
1.355712e+003, 1.648001e-003
1.357641e+003, 1.605282e-003
1.359569e+003, 1.780321e-003
1.361497e+003, 2.063361e-003
1.363426e+003, 2.272724e-003
1.365354e+003, 2.314405e-003
1.367283e+003, 2.293615e-003
1.369211e+003, 2.321034e-003
1.371140e+003, 2.345375e-003
1.373068e+003, 2.329034e-003
1.374997e+003, 2.345020e-003
1.376925e+003, 2.241278e-003
1.378854e+003, 2.182327e-003
1.380782e+003, 2.117838e-003
1.382711e+003, 2.151003e-003
1.384639e+003, 1.935614e-003
1.386568e+003, 1.922593e-003
1.388496e+003, 1.883822e-003
1.390424e+003, 1.907929e-003
1.392353e+003, 1.989766e-003
1.394281e+003, 2.038411e-003
1.396210e+003, 1.889926e-003
1.398138e+003, 1.954438e-003
1.400067e+003, 1.943545e-003
1.401995e+003, 1.929865e-003
1.403924e+003, 1.908580e-003
1.405852e+003, 1.869382e-003
1.407781e+003, 1.894920e-003
1.409709e+003, 1.973846e-003
1.411638e+003, 1.913155e-003
1.413566e+003, 1.955377e-003
1.415495e+003, 1.968066e-003
1.417423e+003, 2.195954e-003
1.419351e+003, 2.197903e-003
1.421280e+003, 2.000252e-003
1.423208e+003, 2.039491e-003
1.425137e+003, 2.149429e-003
1.427065e+003, 2.106457e-003
1.428994e+003, 2.156909e-003
1.430922e+003, 2.190461e-003
1.432851e+003, 2.456033e-003
1.434779e+003, 2.741857e-003
1.436708e+003, 3.063921e-003
1.438636e+003, 2.899918e-003
1.440565e+003, 2.766289e-003
1.442493e+003, 2.672593e-003
1.444422e+003, 2.884318e-003
1.446350e+003, 3.099654e-003
1.448278e+003, 3.218331e-003
1.450207e+003, 3.143123e-003
1.452135e+003, 3.181298e-003
1.454064e+003, 3.514689e-003
1.455992e+003, 4.150517e-003
1.457921e+003, 4.097230e-003
1.459849e+003, 3.514763e-003
1.461778e+003, 3.303295e-003
1.463706e+003, 3.549701e-003
1.465635e+003, 3.518681e-003
1.467563e+003, 3.046510e-003
1.469492e+003, 2.730487e-003
1.471420e+003, 2.867068e-003
1.473349e+003, 2.667843e-003
1.475277e+003, 2.238787e-003
1.477205e+003, 1.936621e-003
1.479134e+003, 1.968547e-003
1.481062e+003, 2.022456e-003
1.482991e+003, 1.937355e-003
1.484919e+003, 1.709453e-003
1.486848e+003, 1.751537e-003
1.488776e+003, 1.855760e-003
1.490705e+003, 1.951049e-003
1.492633e+003, 1.824262e-003
1.494562e+003, 1.980783e-003
1.496490e+003, 2.146246e-003
1.498419e+003, 2.028924e-003
1.500347e+003, 1.770281e-003
1.502276e+003, 1.781790e-003
1.504204e+003, 2.182662e-003
1.506132e+003, 2.836461e-003
1.508061e+003, 2.527412e-003
1.509989e+003, 1.976088e-003
1.511918e+003, 1.826682e-003
1.513846e+003, 1.771572e-003
1.515775e+003, 1.899286e-003
1.517703e+003, 2.085354e-003
1.519632e+003, 2.296547e-003
1.521560e+003, 2.406420e-003
1.523489e+003, 2.217787e-003
1.525417e+003, 2.349620e-003
1.527346e+003, 2.247013e-003
1.529274e+003, 2.191434e-003
1.531203e+003, 2.150168e-003
1.533131e+003, 2.326021e-003
1.535059e+003, 2.179925e-003
1.536988e+003, 2.358806e-003
1.538916e+003, 3.042738e-003
1.540845e+003, 3.185657e-003
1.542773e+003, 2.695259e-003
1.544702e+003, 2.406959e-003
1.546630e+003, 2.204172e-003
1.548559e+003, 2.292586e-003
1.550487e+003, 2.625334e-003
1.552416e+003, 3.062970e-003
1.554344e+003, 3.293831e-003
1.556273e+003, 3.565040e-003
1.558201e+003, 4.053622e-003
1.560130e+003, 3.931605e-003
1.562058e+003, 3.257649e-003
1.563986e+003, 3.044519e-003
1.565915e+003, 2.988913e-003
1.567843e+003, 3.105517e-003
1.569772e+003, 3.132327e-003
1.571700e+003, 2.978145e-003
1.573629e+003, 2.930637e-003
1.575557e+003, 3.394919e-003
1.577486e+003, 3.199495e-003
1.579414e+003, 2.773826e-003
1.581343e+003, 2.522530e-003
1.583271e+003, 2.502281e-003
1.585200e+003, 2.483979e-003
1.587128e+003, 2.489429e-003
1.589057e+003, 2.544611e-003
1.590985e+003, 2.777739e-003
1.592913e+003, 2.787254e-003
1.594842e+003, 2.818431e-003
1.596770e+003, 2.599872e-003
1.598699e+003, 2.693248e-003
1.600627e+003, 2.820986e-003
1.602556e+003, 2.730717e-003
1.604484e+003, 2.549040e-003
1.606413e+003, 2.545586e-003
1.608341e+003, 2.759622e-003
1.610270e+003, 2.777233e-003
1.612198e+003, 2.688212e-003
1.614127e+003, 2.757091e-003
1.616055e+003, 2.860328e-003
1.617984e+003, 2.673803e-003
1.619912e+003, 2.495388e-003
1.621840e+003, 2.646841e-003
1.623769e+003, 2.497063e-003
1.625697e+003, 2.372574e-003
1.627626e+003, 2.381449e-003
1.629554e+003, 2.429238e-003
1.631483e+003, 2.494442e-003
1.633411e+003, 2.949250e-003
1.635340e+003, 3.144013e-003
1.637268e+003, 2.724568e-003
1.639197e+003, 2.420668e-003
1.641125e+003, 2.453799e-003
1.643054e+003, 2.409321e-003
1.644982e+003, 2.745448e-003
1.646911e+003, 2.899653e-003
1.648839e+003, 2.585730e-003
1.650767e+003, 2.731933e-003
1.652696e+003, 3.547980e-003
1.654624e+003, 3.136651e-003
1.656553e+003, 2.529798e-003
1.658481e+003, 2.387393e-003
1.660410e+003, 2.494337e-003
1.662338e+003, 2.553557e-003
1.664267e+003, 2.608319e-003
1.666195e+003, 2.583195e-003
1.668124e+003, 2.753777e-003
1.670052e+003, 2.652708e-003
1.671981e+003, 2.400100e-003
1.673909e+003, 2.288300e-003
1.675838e+003, 2.626342e-003
1.677766e+003, 2.545402e-003
1.679694e+003, 2.397102e-003
1.681623e+003, 2.525925e-003
1.683551e+003, 3.188182e-003
1.685480e+003, 3.115105e-003
1.687408e+003, 2.621358e-003
1.689337e+003, 2.648060e-003
1.691265e+003, 2.636741e-003
1.693194e+003, 2.647067e-003
1.695122e+003, 3.225945e-003
1.697051e+003, 3.371951e-003
1.698979e+003, 3.438163e-003
1.700908e+003, 3.380068e-003
1.702836e+003, 3.091599e-003
1.704765e+003, 3.069632e-003
1.706693e+003, 2.993554e-003
1.708621e+003, 2.781080e-003
1.710550e+003, 2.741666e-003
1.712478e+003, 2.818228e-003
1.714407e+003, 3.376478e-003
1.716335e+003, 4.107751e-003
1.718264e+003, 4.303484e-003
1.720192e+003, 4.178365e-003
1.722121e+003, 4.573227e-003
1.724049e+003, 5.218895e-003
1.725978e+003, 5.746552e-003
1.727906e+003, 6.173789e-003
1.729835e+003, 6.746539e-003
1.731763e+003, 7.257941e-003
1.733692e+003, 7.951273e-003
1.735620e+003, 7.672600e-003
1.737548e+003, 7.206971e-003
1.739477e+003, 6.849166e-003
1.741405e+003, 6.159193e-003
1.743334e+003, 5.428988e-003
1.745262e+003, 4.781722e-003
1.747191e+003, 4.216176e-003
1.749119e+003, 3.832039e-003
1.751048e+003, 3.405164e-003
1.752976e+003, 2.898868e-003
1.754905e+003, 2.374293e-003
1.756833e+003, 2.132568e-003
1.758762e+003, 1.910949e-003
1.760690e+003, 1.731880e-003
1.762619e+003, 1.561878e-003
1.764547e+003, 1.526386e-003
1.766475e+003, 1.441202e-003
1.768404e+003, 1.418355e-003
1.770332e+003, 1.534623e-003
1.772261e+003, 2.110900e-003
1.774189e+003, 1.829476e-003
1.776118e+003, 1.177309e-003
1.778046e+003, 7.910290e-004
1.779975e+003, 8.535843e-004
1.781903e+003, 1.460710e-003
1.783832e+003, 1.692147e-003
1.785760e+003, 1.434113e-003
1.787689e+003, 1.288446e-003
1.789617e+003, 1.274393e-003
1.791546e+003, 1.406110e-003
1.793474e+003, 1.446619e-003
1.795402e+003, 1.428209e-003
1.797331e+003, 1.396094e-003
1.799259e+003, 1.560356e-003
1.801188e+003, 1.454515e-003
1.803116e+003, 1.126397e-003
1.805045e+003, 1.096038e-003
1.806973e+003, 1.295209e-003
1.808902e+003, 1.215608e-003
1.810830e+003, 1.316003e-003
1.812759e+003, 1.341772e-003
1.814687e+003, 1.181015e-003
1.816616e+003, 9.270771e-004
1.818544e+003, 1.243451e-003
1.820473e+003, 1.481087e-003
1.822401e+003, 1.311710e-003
1.824329e+003, 1.098365e-003
1.826258e+003, 1.030753e-003
1.828186e+003, 1.122161e-003
1.830115e+003, 1.491362e-003
1.832043e+003, 1.583008e-003
1.833972e+003, 1.464065e-003
1.835900e+003, 1.100702e-003
1.837829e+003, 9.405244e-004
1.839757e+003, 8.582091e-004
1.841686e+003, 1.590362e-003
1.843614e+003, 2.223759e-003
1.845543e+003, 2.151339e-003
1.847471e+003, 1.362008e-003
1.849400e+003, 1.246750e-003
1.851328e+003, 1.278831e-003
1.853256e+003, 1.463157e-003
1.855185e+003, 1.706116e-003
1.857113e+003, 1.768631e-003
1.859042e+003, 1.378744e-003
1.860970e+003, 1.161735e-003
1.862899e+003, 1.554008e-003
1.864827e+003, 1.818087e-003
1.866756e+003, 1.606680e-003
1.868684e+003, 1.692222e-003
1.870613e+003, 1.101714e-003
1.872541e+003, 7.390418e-004
1.874470e+003, 8.294501e-004
1.876398e+003, 1.047100e-003
1.878327e+003, 1.214766e-003
1.880255e+003, 1.371761e-003
1.882183e+003, 1.196400e-003
1.884112e+003, 1.487768e-003
1.886040e+003, 1.577257e-003
1.887969e+003, 1.913004e-003
1.889897e+003, 2.040814e-003
1.891826e+003, 1.348432e-003
1.893754e+003, 7.000605e-004
1.895683e+003, 1.071573e-003
1.897611e+003, 1.067185e-003
1.899540e+003, 6.700734e-004
1.901468e+003, 6.285713e-004
1.903397e+003, 1.168326e-003
1.905325e+003, 1.149469e-003
1.907254e+003, 1.160631e-003
1.909182e+003, 1.201778e-003
1.911110e+003, 8.625882e-004
1.913039e+003, 7.787537e-004
1.914967e+003, 1.447934e-003
1.916896e+003, 1.689739e-003
1.918824e+003, 1.325073e-003
1.920753e+003, 1.147623e-003
1.922681e+003, 1.388930e-003
1.924610e+003, 1.382083e-003
1.926538e+003, 1.209315e-003
1.928467e+003, 8.694624e-004
1.930395e+003, 9.860389e-004
1.932324e+003, 9.868958e-004
1.934252e+003, 1.361725e-003
1.936181e+003, 1.325493e-003
1.938109e+003, 1.256773e-003
1.940037e+003, 9.066608e-004
1.941966e+003, 1.375341e-003
1.943894e+003, 2.447934e-003
1.945823e+003, 2.366180e-003
1.947751e+003, 1.034448e-003
1.949680e+003, 9.897453e-004
1.951608e+003, 9.983636e-004
1.953537e+003, 4.591793e-004
1.955465e+003, -5.873997e-004
1.957394e+003, -1.176413e-004
1.959322e+003, 9.193778e-004
1.961251e+003, 1.760484e-003
1.963179e+003, 1.549160e-003
1.965108e+003, 1.743394e-003
1.967036e+003, 1.569703e-003
1.968964e+003, 6.944328e-004
1.970893e+003, 4.017770e-004
1.972821e+003, 8.054451e-004
1.974750e+003, 6.895319e-004
1.976678e+003, 1.269649e-003
1.978607e+003, 2.989450e-003
1.980535e+003, 3.759880e-003
1.982464e+003, 2.813765e-003
1.984392e+003, 2.629970e-003
1.986321e+003, 2.281260e-003
1.988249e+003, 2.942805e-003
1.990178e+003, 2.914098e-003
1.992106e+003, 1.743602e-003
1.994035e+003, 5.476326e-004
1.995963e+003, 1.039991e-003
1.997891e+003, 1.759677e-003
1.999820e+003, 8.857133e-004
2.001748e+003, 2.808697e-004
2.003677e+003, 4.209474e-004
2.005605e+003, -3.567174e-004
2.007534e+003, 2.196026e-004
2.009462e+003, 9.460380e-004
2.011391e+003, 7.731219e-005
2.013319e+003, -1.112738e-003
2.015248e+003, 4.793632e-004
2.017176e+003, 1.206573e-003
2.019105e+003, 1.019831e-003
2.021033e+003, 2.092236e-004
2.022962e+003, 6.256022e-004
2.024890e+003, 1.091539e-003
2.026818e+003, 1.737647e-003
2.028747e+003, 1.836564e-003
2.030675e+003, 3.201615e-003
2.032604e+003, 2.762368e-003
2.034532e+003, 1.870850e-003
2.036461e+003, 1.630715e-003
2.038389e+003, 1.779916e-003
2.040318e+003, 2.014114e-003
2.042246e+003, 3.108011e-003
2.044175e+003, 2.793381e-003
2.046103e+003, 2.906675e-003
2.048031e+003, 3.049810e-003
2.049960e+003, 2.893959e-003
2.051888e+003, 2.016610e-003
2.053817e+003, 1.248798e-003
2.055745e+003, 1.781898e-003
2.057674e+003, 2.299636e-003
2.059602e+003, 1.675773e-003
2.061531e+003, 8.397482e-004
2.063459e+003, 4.991078e-006
2.065388e+003, 1.361445e-003
2.067316e+003, 2.130226e-003
2.069245e+003, 1.908678e-003
2.071173e+003, 1.833091e-003
2.073102e+003, 1.888488e-003
2.075030e+003, 1.737716e-003
2.076958e+003, 2.384735e-003
2.078887e+003, 1.865043e-003
2.080815e+003, 1.833750e-003
2.082744e+003, 2.418433e-003
2.084672e+003, 2.186193e-003
2.086601e+003, 9.314845e-004
2.088529e+003, 7.041208e-004
2.090458e+003, 1.253528e-003
2.092386e+003, 1.716270e-003
2.094315e+003, 1.221028e-003
2.096243e+003, 1.070823e-003
2.098172e+003, 1.081344e-003
2.100100e+003, 9.370229e-004
2.102029e+003, 5.888607e-004
2.103957e+003, 9.346266e-004
2.105885e+003, 1.335380e-003
2.107814e+003, 1.343247e-003
2.109742e+003, 1.748786e-003
2.111671e+003, 1.759287e-003
2.113599e+003, 6.277721e-004
2.115528e+003, 8.637080e-004
2.117456e+003, 1.250116e-003
2.119385e+003, 1.108729e-003
2.121313e+003, 1.003270e-003
2.123242e+003, 1.227467e-003
2.125170e+003, 1.436748e-003
2.127099e+003, 1.241623e-003
2.129027e+003, -2.114645e-004
2.130956e+003, -7.096829e-004
2.132884e+003, -2.211740e-004
2.134813e+003, 7.749424e-004
2.136741e+003, 6.373377e-004
2.138669e+003, 4.500166e-004
2.140598e+003, 3.265327e-004
2.142526e+003, 3.278922e-004
2.144455e+003, -5.738011e-004
2.146383e+003, -3.766378e-004
2.148312e+003, -6.427535e-005
2.150240e+003, -1.863613e-004
2.152169e+003, 4.928110e-004
2.154097e+003, 1.525934e-003
2.156026e+003, -1.214442e-006
2.157954e+003, -1.176466e-003
2.159883e+003, 1.287275e-003
2.161811e+003, 4.124521e-003
2.163740e+003, 2.713424e-003
2.165668e+003, 2.136344e-003
2.167596e+003, 2.432493e-003
2.169525e+003, 1.879729e-003
2.171453e+003, 1.859844e-003
2.173382e+003, 3.115012e-003
2.175310e+003, 2.441366e-003
2.177239e+003, 9.420497e-004
2.179167e+003, 2.276163e-004
2.181096e+003, 7.968786e-004
2.183024e+003, 1.117326e-003
2.184953e+003, 2.413792e-003
2.186881e+003, 2.670722e-003
2.188810e+003, 8.970386e-004
2.190738e+003, 8.643348e-004
2.192667e+003, 3.016557e-003
2.194595e+003, 2.915267e-003
2.196523e+003, 2.185529e-003
2.198452e+003, 1.536560e-003
2.200380e+003, 1.851529e-003
2.202309e+003, 2.155960e-003
2.204237e+003, 2.048712e-003
2.206166e+003, 1.851929e-003
2.208094e+003, 2.176876e-003
2.210023e+003, 1.700004e-003
2.211951e+003, 1.899818e-003
2.213880e+003, 1.572398e-003
2.215808e+003, 1.633483e-003
2.217737e+003, 1.808854e-003
2.219665e+003, 1.976453e-003
2.221594e+003, 2.394791e-003
2.223522e+003, 3.023605e-003
2.225450e+003, 2.103308e-003
2.227379e+003, 2.095442e-003
2.229307e+003, 1.879052e-003
2.231236e+003, 1.964161e-003
2.233164e+003, 2.649781e-003
2.235093e+003, 3.028345e-003
2.237021e+003, 2.770979e-003
2.238950e+003, 2.132126e-003
2.240878e+003, 1.899815e-003
2.242807e+003, 2.641029e-003
2.244735e+003, 2.514361e-003
2.246664e+003, 2.328836e-003
2.248592e+003, 1.871120e-003
2.250521e+003, 1.972545e-003
2.252449e+003, 1.476005e-003
2.254377e+003, 1.447121e-003
2.256306e+003, 1.894767e-003
2.258234e+003, 1.867524e-003
2.260163e+003, 1.858239e-003
2.262091e+003, 2.487588e-003
2.264020e+003, 2.734009e-003
2.265948e+003, 2.956282e-003
2.267877e+003, 2.505853e-003
2.269805e+003, 2.516655e-003
2.271734e+003, 2.348409e-003
2.273662e+003, 1.801485e-003
2.275591e+003, 1.459001e-003
2.277519e+003, 1.708457e-003
2.279448e+003, 2.375084e-003
2.281376e+003, 3.253794e-003
2.283304e+003, 3.341560e-003
2.285233e+003, 3.156895e-003
2.287161e+003, 2.558312e-003
2.289090e+003, 2.490969e-003
2.291018e+003, 2.647032e-003
2.292947e+003, 3.055595e-003
2.294875e+003, 2.815878e-003
2.296804e+003, 2.808780e-003
2.298732e+003, 2.856663e-003
2.300661e+003, 2.688441e-003
2.302589e+003, 2.998117e-003
2.304518e+003, 3.293847e-003
2.306446e+003, 3.126172e-003
2.308375e+003, 3.177584e-003
2.310303e+003, 3.242289e-003
2.312231e+003, 2.743292e-003
2.314160e+003, 2.470515e-003
2.316088e+003, 3.140858e-003
2.318017e+003, 3.427965e-003
2.319945e+003, 3.890856e-003
2.321874e+003, 4.196262e-003
2.323802e+003, 4.418117e-003
2.325731e+003, 3.672608e-003
2.327659e+003, 3.261153e-003
2.329588e+003, 3.358101e-003
2.331516e+003, 3.427929e-003
2.333445e+003, 3.166721e-003
2.335373e+003, 3.412249e-003
2.337302e+003, 3.543366e-003
2.339230e+003, 3.129945e-003
2.341158e+003, 3.106147e-003
2.343087e+003, 3.154341e-003
2.345015e+003, 2.428604e-003
2.346944e+003, 2.165374e-003
2.348872e+003, 2.758045e-003
2.350801e+003, 2.865206e-003
2.352729e+003, 2.604924e-003
2.354658e+003, 2.758032e-003
2.356586e+003, 3.127086e-003
2.358515e+003, 3.351189e-003
2.360443e+003, 3.116828e-003
2.362372e+003, 3.003888e-003
2.364300e+003, 3.176376e-003
2.366229e+003, 3.187540e-003
2.368157e+003, 2.977563e-003
2.370085e+003, 2.695867e-003
2.372014e+003, 2.294130e-003
2.373942e+003, 2.356699e-003
2.375871e+003, 2.144258e-003
2.377799e+003, 1.720703e-003
2.379728e+003, 1.374717e-003
2.381656e+003, 1.266475e-003
2.383585e+003, 1.492650e-003
2.385513e+003, 1.951479e-003
2.387442e+003, 1.659143e-003
2.389370e+003, 1.848432e-003
2.391299e+003, 2.322072e-003
2.393227e+003, 2.331574e-003
2.395156e+003, 2.088580e-003
2.397084e+003, 2.278735e-003
2.399012e+003, 2.090589e-003
2.400941e+003, 2.063016e-003
2.402869e+003, 2.107034e-003
2.404798e+003, 2.001423e-003
2.406726e+003, 1.987368e-003
2.408655e+003, 2.205596e-003
2.410583e+003, 2.166382e-003
2.412512e+003, 1.799951e-003
2.414440e+003, 1.886981e-003
2.416369e+003, 2.604751e-003
2.418297e+003, 2.748697e-003
2.420226e+003, 2.668802e-003
2.422154e+003, 2.300557e-003
2.424083e+003, 2.479333e-003
2.426011e+003, 2.685578e-003
2.427939e+003, 2.528274e-003
2.429868e+003, 2.668377e-003
2.431796e+003, 2.648523e-003
2.433725e+003, 2.560327e-003
2.435653e+003, 2.690912e-003
2.437582e+003, 2.412752e-003
2.439510e+003, 2.553692e-003
2.441439e+003, 2.498625e-003
2.443367e+003, 2.479906e-003
2.445296e+003, 2.688324e-003
2.447224e+003, 2.880441e-003
2.449153e+003, 2.863589e-003
2.451081e+003, 3.021799e-003
2.453010e+003, 2.888717e-003
2.454938e+003, 3.270649e-003
2.456866e+003, 2.759236e-003
2.458795e+003, 2.587926e-003
2.460723e+003, 2.992314e-003
2.462652e+003, 2.957511e-003
2.464580e+003, 2.755455e-003
2.466509e+003, 3.029099e-003
2.468437e+003, 2.391322e-003
2.470366e+003, 2.145142e-003
2.472294e+003, 3.097900e-003
2.474223e+003, 3.847608e-003
2.476151e+003, 3.884614e-003
2.478080e+003, 3.725559e-003
2.480008e+003, 3.176380e-003
2.481937e+003, 2.617724e-003
2.483865e+003, 2.420867e-003
2.485793e+003, 3.255497e-003
2.487722e+003, 3.462419e-003
2.489650e+003, 3.384253e-003
2.491579e+003, 3.355571e-003
2.493507e+003, 2.997217e-003
2.495436e+003, 2.688076e-003
2.497364e+003, 2.570790e-003
2.499293e+003, 2.615692e-003
2.501221e+003, 3.176287e-003
2.503150e+003, 3.527160e-003
2.505078e+003, 3.081044e-003
2.507007e+003, 2.933398e-003
2.508935e+003, 3.381447e-003
2.510864e+003, 2.630970e-003
2.512792e+003, 2.148613e-003
2.514720e+003, 2.111858e-003
2.516649e+003, 2.361978e-003
2.518577e+003, 2.925265e-003
2.520506e+003, 3.678308e-003
2.522434e+003, 3.406683e-003
2.524363e+003, 2.934165e-003
2.526291e+003, 2.641179e-003
2.528220e+003, 3.237793e-003
2.530148e+003, 3.378334e-003
2.532077e+003, 3.682314e-003
2.534005e+003, 4.021807e-003
2.535934e+003, 4.015507e-003
2.537862e+003, 3.815436e-003
2.539791e+003, 3.302832e-003
2.541719e+003, 2.835449e-003
2.543647e+003, 3.024357e-003
2.545576e+003, 3.243102e-003
2.547504e+003, 3.443166e-003
2.549433e+003, 3.369259e-003
2.551361e+003, 3.768717e-003
2.553290e+003, 3.643136e-003
2.555218e+003, 3.602228e-003
2.557147e+003, 3.798943e-003
2.559075e+003, 3.579338e-003
2.561004e+003, 3.473925e-003
2.562932e+003, 4.363424e-003
2.564861e+003, 4.533090e-003
2.566789e+003, 3.638847e-003
2.568718e+003, 2.990243e-003
2.570646e+003, 3.999862e-003
2.572574e+003, 4.276300e-003
2.574503e+003, 3.677512e-003
2.576431e+003, 3.338494e-003
2.578360e+003, 3.756651e-003
2.580288e+003, 3.525642e-003
2.582217e+003, 3.813779e-003
2.584145e+003, 3.847214e-003
2.586074e+003, 3.823001e-003
2.588002e+003, 3.976352e-003
2.589931e+003, 3.781259e-003
2.591859e+003, 3.364946e-003
2.593788e+003, 3.707990e-003
2.595716e+003, 3.940561e-003
2.597645e+003, 4.154342e-003
2.599573e+003, 4.265670e-003
2.601501e+003, 4.060329e-003
2.603430e+003, 3.881897e-003
2.605358e+003, 3.787759e-003
2.607287e+003, 3.815353e-003
2.609215e+003, 3.931731e-003
2.611144e+003, 3.636455e-003
2.613072e+003, 4.134088e-003
2.615001e+003, 3.905845e-003
2.616929e+003, 3.463852e-003
2.618858e+003, 3.975083e-003
2.620786e+003, 4.322619e-003
2.622715e+003, 4.030907e-003
2.624643e+003, 4.207995e-003
2.626572e+003, 4.462509e-003
2.628500e+003, 4.277118e-003
2.630428e+003, 3.940520e-003
2.632357e+003, 3.888096e-003
2.634285e+003, 3.850395e-003
2.636214e+003, 3.718252e-003
2.638142e+003, 3.569968e-003
2.640071e+003, 3.708158e-003
2.641999e+003, 3.824077e-003
2.643928e+003, 4.046103e-003
2.645856e+003, 3.718043e-003
2.647785e+003, 3.733427e-003
2.649713e+003, 3.967471e-003
2.651642e+003, 4.225707e-003
2.653570e+003, 4.251284e-003
2.655499e+003, 4.166947e-003
2.657427e+003, 3.632720e-003
2.659355e+003, 3.688482e-003
2.661284e+003, 3.711237e-003
2.663212e+003, 3.515466e-003
2.665141e+003, 3.189443e-003
2.667069e+003, 3.394164e-003
2.668998e+003, 3.474406e-003
2.670926e+003, 3.528401e-003
2.672855e+003, 3.727995e-003
2.674783e+003, 3.839606e-003
2.676712e+003, 3.398163e-003
2.678640e+003, 3.433636e-003
2.680569e+003, 3.404307e-003
2.682497e+003, 3.351400e-003
2.684426e+003, 2.923399e-003
2.686354e+003, 3.172613e-003
2.688282e+003, 3.315839e-003
2.690211e+003, 3.184675e-003
2.692139e+003, 3.103330e-003
2.694068e+003, 3.238920e-003
2.695996e+003, 3.432142e-003
2.697925e+003, 3.475033e-003
2.699853e+003, 3.324459e-003
2.701782e+003, 3.003598e-003
2.703710e+003, 2.815800e-003
2.705639e+003, 3.306231e-003
2.707567e+003, 3.188670e-003
2.709496e+003, 3.244954e-003
2.711424e+003, 3.452683e-003
2.713353e+003, 3.338197e-003
2.715281e+003, 3.176644e-003
2.717209e+003, 3.316036e-003
2.719138e+003, 3.684091e-003
2.721066e+003, 3.771632e-003
2.722995e+003, 3.641259e-003
2.724923e+003, 3.310964e-003
2.726852e+003, 2.858377e-003
2.728780e+003, 3.082020e-003
2.730709e+003, 3.162124e-003
2.732637e+003, 3.323878e-003
2.734566e+003, 3.615652e-003
2.736494e+003, 3.856235e-003
2.738423e+003, 4.037021e-003
2.740351e+003, 3.731322e-003
2.742280e+003, 3.384720e-003
2.744208e+003, 3.394759e-003
2.746136e+003, 3.139574e-003
2.748065e+003, 3.258185e-003
2.749993e+003, 3.050710e-003
2.751922e+003, 3.344043e-003
2.753850e+003, 3.939557e-003
2.755779e+003, 3.731445e-003
2.757707e+003, 3.205482e-003
2.759636e+003, 3.548191e-003
2.761564e+003, 3.681913e-003
2.763493e+003, 3.649399e-003
2.765421e+003, 3.284000e-003
2.767350e+003, 3.239859e-003
2.769278e+003, 3.449974e-003
2.771207e+003, 3.713374e-003
2.773135e+003, 3.840024e-003
2.775063e+003, 3.713100e-003
2.776992e+003, 3.540145e-003
2.778920e+003, 3.662384e-003
2.780849e+003, 3.686829e-003
2.782777e+003, 3.804352e-003
2.784706e+003, 3.675099e-003
2.786634e+003, 4.047969e-003
2.788563e+003, 4.200222e-003
2.790491e+003, 3.853484e-003
2.792420e+003, 3.438255e-003
2.794348e+003, 3.864754e-003
2.796277e+003, 4.195292e-003
2.798205e+003, 4.358404e-003
2.800134e+003, 4.020383e-003
2.802062e+003, 3.959065e-003
2.803990e+003, 3.731210e-003
2.805919e+003, 3.510260e-003
2.807847e+003, 3.529001e-003
2.809776e+003, 4.358861e-003
2.811704e+003, 4.293509e-003
2.813633e+003, 3.982896e-003
2.815561e+003, 4.252122e-003
2.817490e+003, 4.473703e-003
2.819418e+003, 4.057913e-003
2.821347e+003, 3.901063e-003
2.823275e+003, 4.401396e-003
2.825204e+003, 4.998103e-003
2.827132e+003, 4.622337e-003
2.829061e+003, 4.593217e-003
2.830989e+003, 4.628737e-003
2.832917e+003, 5.015048e-003
2.834846e+003, 5.116930e-003
2.836774e+003, 5.487152e-003
2.838703e+003, 5.665961e-003
2.840631e+003, 6.164812e-003
2.842560e+003, 6.783666e-003
2.844488e+003, 7.561253e-003
2.846417e+003, 8.138143e-003
2.848345e+003, 8.981655e-003
2.850274e+003, 9.829250e-003
2.852202e+003, 9.971461e-003
2.854131e+003, 9.049434e-003
2.856059e+003, 8.668203e-003
2.857988e+003, 8.471717e-003
2.859916e+003, 8.089749e-003
2.861844e+003, 7.615404e-003
2.863773e+003, 7.530032e-003
2.865701e+003, 7.560418e-003
2.867630e+003, 7.510158e-003
2.869558e+003, 7.497129e-003
2.871487e+003, 7.471156e-003
2.873415e+003, 7.148554e-003
2.875344e+003, 6.724634e-003
2.877272e+003, 6.820685e-003
2.879201e+003, 6.947562e-003
2.881129e+003, 6.579426e-003
2.883058e+003, 6.442960e-003
2.884986e+003, 6.443714e-003
2.886915e+003, 6.381200e-003
2.888843e+003, 6.694135e-003
2.890771e+003, 7.364566e-003
2.892700e+003, 7.214653e-003
2.894628e+003, 7.299626e-003
2.896557e+003, 7.795844e-003
2.898485e+003, 8.370637e-003
2.900414e+003, 8.509816e-003
2.902342e+003, 8.848767e-003
2.904271e+003, 9.313784e-003
2.906199e+003, 9.377301e-003
2.908128e+003, 9.796749e-003
2.910056e+003, 1.054266e-002
2.911985e+003, 1.074386e-002
2.913913e+003, 1.181220e-002
2.915842e+003, 1.269371e-002
2.917770e+003, 1.327447e-002
2.919698e+003, 1.357597e-002
2.921627e+003, 1.420094e-002
2.923555e+003, 1.412313e-002
2.925484e+003, 1.408089e-002
2.927412e+003, 1.384932e-002
2.929341e+003, 1.342961e-002
2.931269e+003, 1.238774e-002
2.933198e+003, 1.155256e-002
2.935126e+003, 1.058396e-002
2.937055e+003, 9.823879e-003
2.938983e+003, 9.181244e-003
2.940912e+003, 9.269422e-003
2.942840e+003, 9.308403e-003
2.944769e+003, 8.699385e-003
2.946697e+003, 7.729410e-003
2.948625e+003, 8.048845e-003
2.950554e+003, 8.498373e-003
2.952482e+003, 8.546962e-003
2.954411e+003, 8.614139e-003
2.956339e+003, 8.893941e-003
2.958268e+003, 8.469282e-003
2.960196e+003, 7.889949e-003
2.962125e+003, 7.130289e-003
2.964053e+003, 6.951455e-003
2.965982e+003, 6.921988e-003
2.967910e+003, 6.862522e-003
2.969839e+003, 6.672206e-003
2.971767e+003, 6.311859e-003
2.973696e+003, 5.460563e-003
2.975624e+003, 5.061682e-003
2.977552e+003, 4.873620e-003
2.979481e+003, 5.092129e-003
2.981409e+003, 4.555129e-003
2.983338e+003, 3.673726e-003
2.985266e+003, 3.648426e-003
2.987195e+003, 3.925356e-003
2.989123e+003, 3.842856e-003
2.991052e+003, 4.058465e-003
2.992980e+003, 4.087046e-003
2.994909e+003, 3.799436e-003
2.996837e+003, 3.269794e-003
2.998766e+003, 3.443440e-003
3.000694e+003, 3.548338e-003
3.002623e+003, 3.627236e-003
3.004551e+003, 3.255456e-003
3.006479e+003, 2.969265e-003
3.008408e+003, 2.976465e-003
3.010336e+003, 3.333522e-003
3.012265e+003, 3.203481e-003
3.014193e+003, 2.394632e-003
3.016122e+003, 1.908374e-003
3.018050e+003, 2.099985e-003
3.019979e+003, 2.468902e-003
3.021907e+003, 2.984201e-003
3.023836e+003, 3.038827e-003
3.025764e+003, 2.865023e-003
3.027693e+003, 2.682172e-003
3.029621e+003, 3.273160e-003
3.031550e+003, 3.746794e-003
3.033478e+003, 3.555963e-003
3.035406e+003, 3.137355e-003
3.037335e+003, 3.018702e-003
3.039263e+003, 2.905660e-003
3.041192e+003, 2.920632e-003
3.043120e+003, 3.403084e-003
3.045049e+003, 3.612928e-003
3.046977e+003, 3.288369e-003
3.048906e+003, 3.356685e-003
3.050834e+003, 3.372084e-003
3.052763e+003, 3.428166e-003
3.054691e+003, 3.227394e-003
3.056620e+003, 2.721397e-003
3.058548e+003, 2.861128e-003
3.060477e+003, 3.384572e-003
3.062405e+003, 3.337061e-003
3.064333e+003, 3.254681e-003
3.066262e+003, 3.154887e-003
3.068190e+003, 3.175723e-003
3.070119e+003, 3.233803e-003
3.072047e+003, 3.332772e-003
3.073976e+003, 3.232658e-003
3.075904e+003, 2.713955e-003
3.077833e+003, 2.817951e-003
3.079761e+003, 2.985593e-003
3.081690e+003, 3.268714e-003
3.083618e+003, 3.686660e-003
3.085547e+003, 3.631966e-003
3.087475e+003, 3.972274e-003
3.089404e+003, 3.769229e-003
3.091332e+003, 3.251527e-003
3.093260e+003, 2.961084e-003
3.095189e+003, 3.076715e-003
3.097117e+003, 3.307504e-003
3.099046e+003, 3.322019e-003
3.100974e+003, 2.905346e-003
3.102903e+003, 3.293791e-003
3.104831e+003, 3.675607e-003
3.106760e+003, 4.131413e-003
3.108688e+003, 3.945227e-003
3.110617e+003, 3.685969e-003
3.112545e+003, 2.828339e-003
3.114474e+003, 2.673226e-003
3.116402e+003, 3.190433e-003
3.118331e+003, 3.771884e-003
3.120259e+003, 3.250032e-003
3.122188e+003, 2.811392e-003
3.124116e+003, 3.229666e-003
3.126044e+003, 3.316384e-003
3.127973e+003, 2.936977e-003
3.129901e+003, 3.576969e-003
3.131830e+003, 4.105735e-003
3.133758e+003, 3.528178e-003
3.135687e+003, 2.825838e-003
3.137615e+003, 2.824346e-003
3.139544e+003, 2.009698e-003
3.141472e+003, 2.185655e-003
3.143401e+003, 2.860239e-003
3.145329e+003, 2.999752e-003
3.147258e+003, 3.195786e-003
3.149186e+003, 2.937027e-003
3.151115e+003, 2.968856e-003
3.153043e+003, 3.283761e-003
3.154971e+003, 3.317625e-003
3.156900e+003, 3.107025e-003
3.158828e+003, 3.548324e-003
3.160757e+003, 3.634597e-003
3.162685e+003, 3.567891e-003
3.164614e+003, 4.186261e-003
3.166542e+003, 4.185339e-003
3.168471e+003, 4.213899e-003
3.170399e+003, 4.138281e-003
3.172328e+003, 3.750979e-003
3.174256e+003, 2.831086e-003
3.176185e+003, 3.552627e-003
3.178113e+003, 4.411899e-003
3.180042e+003, 4.353585e-003
3.181970e+003, 3.660682e-003
3.183898e+003, 3.920382e-003
3.185827e+003, 4.079331e-003
3.187755e+003, 3.557838e-003
3.189684e+003, 3.260689e-003
3.191612e+003, 3.639542e-003
3.193541e+003, 3.786247e-003
3.195469e+003, 4.164102e-003
3.197398e+003, 4.297747e-003
3.199326e+003, 4.780526e-003
3.201255e+003, 4.604287e-003
3.203183e+003, 3.513236e-003
3.205112e+003, 2.745489e-003
3.207040e+003, 3.312516e-003
3.208969e+003, 3.843348e-003
3.210897e+003, 3.485753e-003
3.212825e+003, 2.573233e-003
3.214754e+003, 3.191082e-003
3.216682e+003, 4.147275e-003
3.218611e+003, 3.778757e-003
3.220539e+003, 3.433854e-003
3.222468e+003, 3.856518e-003
3.224396e+003, 3.882716e-003
3.226325e+003, 3.897366e-003
3.228253e+003, 3.929301e-003
3.230182e+003, 3.377938e-003
3.232110e+003, 2.902002e-003
3.234039e+003, 2.746540e-003
3.235967e+003, 2.874307e-003
3.237896e+003, 3.807422e-003
3.239824e+003, 4.081290e-003
3.241752e+003, 3.911586e-003
3.243681e+003, 3.871019e-003
3.245609e+003, 4.173353e-003
3.247538e+003, 4.393854e-003
3.249466e+003, 4.317299e-003
3.251395e+003, 4.183601e-003
3.253323e+003, 4.036459e-003
3.255252e+003, 3.193337e-003
3.257180e+003, 3.181059e-003
3.259109e+003, 3.170063e-003
3.261037e+003, 3.246880e-003
3.262966e+003, 3.419483e-003
3.264894e+003, 3.539600e-003
3.266823e+003, 2.908330e-003
3.268751e+003, 2.437589e-003
3.270679e+003, 3.562169e-003
3.272608e+003, 4.051360e-003
3.274536e+003, 3.056977e-003
3.276465e+003, 2.607236e-003
3.278393e+003, 2.528242e-003
3.280322e+003, 3.133725e-003
3.282250e+003, 3.886078e-003
3.284179e+003, 3.914112e-003
3.286107e+003, 4.291716e-003
3.288036e+003, 4.806931e-003
3.289964e+003, 4.572530e-003
3.291893e+003, 3.816233e-003
3.293821e+003, 3.005640e-003
3.295750e+003, 3.061460e-003
3.297678e+003, 3.971617e-003
3.299606e+003, 4.363519e-003
3.301535e+003, 3.596870e-003
3.303463e+003, 3.562541e-003
3.305392e+003, 3.411468e-003
3.307320e+003, 2.905621e-003
3.309249e+003, 2.789539e-003
3.311177e+003, 2.668492e-003
3.313106e+003, 2.484412e-003
3.315034e+003, 2.920873e-003
3.316963e+003, 3.827114e-003
3.318891e+003, 4.131044e-003
3.320820e+003, 3.830792e-003
3.322748e+003, 4.723577e-003
3.324677e+003, 4.844470e-003
3.326605e+003, 4.280043e-003
3.328533e+003, 3.748684e-003
3.330462e+003, 3.761367e-003
3.332390e+003, 3.411774e-003
3.334319e+003, 3.361923e-003
3.336247e+003, 3.502485e-003
3.338176e+003, 3.749120e-003
3.340104e+003, 2.784722e-003
3.342033e+003, 2.742507e-003
3.343961e+003, 3.972584e-003
3.345890e+003, 3.889947e-003
3.347818e+003, 3.310270e-003
3.349747e+003, 4.308927e-003
3.351675e+003, 4.037986e-003
3.353604e+003, 3.140256e-003
3.355532e+003, 3.210923e-003
3.357460e+003, 4.234501e-003
3.359389e+003, 5.057338e-003
3.361317e+003, 4.866237e-003
3.363246e+003, 3.251140e-003
3.365174e+003, 3.094662e-003
3.367103e+003, 3.560488e-003
3.369031e+003, 3.946625e-003
3.370960e+003, 3.431558e-003
3.372888e+003, 2.802314e-003
3.374817e+003, 3.522351e-003
3.376745e+003, 3.859408e-003
3.378674e+003, 3.190208e-003
3.380602e+003, 2.951707e-003
3.382531e+003, 2.837051e-003
3.384459e+003, 2.988223e-003
3.386387e+003, 3.093818e-003
3.388316e+003, 2.889935e-003
3.390244e+003, 3.024624e-003
3.392173e+003, 3.323936e-003
3.394101e+003, 3.470220e-003
3.396030e+003, 3.330535e-003
3.397958e+003, 2.726924e-003
3.399887e+003, 2.797657e-003
3.401815e+003, 3.268089e-003
3.403744e+003, 3.317867e-003
3.405672e+003, 2.866749e-003
3.407601e+003, 3.481532e-003
3.409529e+003, 3.779762e-003
3.411458e+003, 3.691923e-003
3.413386e+003, 3.782564e-003
3.415314e+003, 4.466251e-003
3.417243e+003, 5.002869e-003
3.419171e+003, 4.129755e-003
3.421100e+003, 2.627734e-003
3.423028e+003, 2.688526e-003
3.424957e+003, 3.291572e-003
3.426885e+003, 3.836569e-003
3.428814e+003, 3.284690e-003
3.430742e+003, 3.606930e-003
3.432671e+003, 3.082876e-003
3.434599e+003, 2.515896e-003
3.436528e+003, 3.659583e-003
3.438456e+003, 3.865172e-003
3.440385e+003, 2.842517e-003
3.442313e+003, 2.591812e-003
3.444241e+003, 2.396647e-003
3.446170e+003, 2.869949e-003
3.448098e+003, 3.103715e-003
3.450027e+003, 3.286223e-003
3.451955e+003, 3.225359e-003
3.453884e+003, 2.769857e-003
3.455812e+003, 2.084752e-003
3.457741e+003, 1.753699e-003
3.459669e+003, 2.400838e-003
3.461598e+003, 3.452777e-003
3.463526e+003, 3.181198e-003
3.465455e+003, 3.330263e-003
3.467383e+003, 3.202010e-003
3.469312e+003, 2.501138e-003
3.471240e+003, 1.698020e-003
3.473168e+003, 2.101330e-003
3.475097e+003, 2.707736e-003
3.477025e+003, 3.361011e-003
3.478954e+003, 3.327986e-003
3.480882e+003, 2.944965e-003
3.482811e+003, 2.701608e-003
3.484739e+003, 2.957946e-003
3.486668e+003, 3.493648e-003
3.488596e+003, 4.445104e-003
3.490525e+003, 3.861204e-003
3.492453e+003, 3.103983e-003
3.494382e+003, 2.163209e-003
3.496310e+003, 2.768366e-003
3.498239e+003, 2.696273e-003
3.500167e+003, 2.512347e-003
3.502095e+003, 2.574288e-003
3.504024e+003, 3.107984e-003
3.505952e+003, 3.578059e-003
3.507881e+003, 3.725198e-003
3.509809e+003, 2.712531e-003
3.511738e+003, 2.350964e-003
3.513666e+003, 3.378227e-003
3.515595e+003, 3.854836e-003
3.517523e+003, 3.178703e-003
3.519452e+003, 2.644986e-003
3.521380e+003, 2.655318e-003
3.523309e+003, 3.601506e-003
3.525237e+003, 3.964480e-003
3.527166e+003, 4.188237e-003
3.529094e+003, 4.029781e-003
3.531022e+003, 3.195123e-003
3.532951e+003, 2.322725e-003
3.534879e+003, 1.753540e-003
3.536808e+003, 1.476584e-003
3.538736e+003, 1.954084e-003
3.540665e+003, 1.770622e-003
3.542593e+003, 1.991709e-003
3.544522e+003, 2.620651e-003
3.546450e+003, 2.815013e-003
3.548379e+003, 2.814541e-003
3.550307e+003, 3.425835e-003
3.552236e+003, 3.587778e-003
3.554164e+003, 2.826445e-003
3.556093e+003, 1.915180e-003
3.558021e+003, 3.007392e-003
3.559949e+003, 3.756962e-003
3.561878e+003, 4.043432e-003
3.563806e+003, 3.804356e-003
3.565735e+003, 2.390426e-003
3.567663e+003, 1.307138e-003
3.569592e+003, 2.350486e-003
3.571520e+003, 3.246947e-003
3.573449e+003, 2.795045e-003
3.575377e+003, 2.181674e-003
3.577306e+003, 3.072029e-003
3.579234e+003, 3.210702e-003
3.581163e+003, 2.530074e-003
3.583091e+003, 2.070469e-003
3.585020e+003, 1.840135e-003
3.586948e+003, 2.214324e-003
3.588876e+003, 2.923624e-003
3.590805e+003, 3.348775e-003
3.592733e+003, 4.337000e-003
3.594662e+003, 4.096650e-003
3.596590e+003, 3.680953e-003
3.598519e+003, 2.782762e-003
3.600447e+003, 2.353838e-003
3.602376e+003, 1.483648e-003
3.604304e+003, 1.415111e-003
3.606233e+003, 2.049981e-003
3.608161e+003, 3.270434e-003
3.610090e+003, 3.874868e-003
3.612018e+003, 3.085290e-003
3.613947e+003, 2.343115e-003
3.615875e+003, 1.823826e-003
3.617803e+003, 1.922371e-003
3.619732e+003, 2.551436e-003
3.621660e+003, 2.525872e-003
3.623589e+003, 3.066783e-003
3.625517e+003, 3.969465e-003
3.627446e+003, 4.693991e-003
3.629374e+003, 3.972482e-003
3.631303e+003, 2.656369e-003
3.633231e+003, 2.811776e-003
3.635160e+003, 3.665133e-003
3.637088e+003, 3.705973e-003
3.639017e+003, 2.741365e-003
3.640945e+003, 2.551647e-003
3.642874e+003, 2.527610e-003
3.644802e+003, 2.934337e-003
3.646730e+003, 4.246127e-003
3.648659e+003, 4.297224e-003
3.650587e+003, 2.915486e-003
3.652516e+003, 1.327205e-003
3.654444e+003, 2.208095e-003
3.656373e+003, 3.320325e-003
3.658301e+003, 2.001539e-003
3.660230e+003, 1.946615e-003
3.662158e+003, 2.537102e-003
3.664087e+003, 2.586714e-003
3.666015e+003, 3.026868e-003
3.667944e+003, 2.870539e-003
3.669872e+003, 3.079273e-003
3.671801e+003, 3.857319e-003
3.673729e+003, 4.639001e-003
3.675657e+003, 5.073396e-003
3.677586e+003, 4.240269e-003
3.679514e+003, 3.273535e-003
3.681443e+003, 3.209858e-003
3.683371e+003, 2.499113e-003
3.685300e+003, 2.017166e-003
3.687228e+003, 3.974444e-003
3.689157e+003, 5.694234e-003
3.691085e+003, 4.345598e-003
3.693014e+003, 2.549654e-003
3.694942e+003, 2.545712e-003
3.696871e+003, 2.622004e-003
3.698799e+003, 3.414978e-003
3.700728e+003, 4.031650e-003
3.702656e+003, 3.548251e-003
3.704584e+003, 3.203838e-003
3.706513e+003, 3.362164e-003
3.708441e+003, 3.606380e-003
3.710370e+003, 3.614170e-003
3.712298e+003, 3.899863e-003
3.714227e+003, 4.032908e-003
3.716155e+003, 4.006982e-003
3.718084e+003, 3.894333e-003
3.720012e+003, 4.047716e-003
3.721941e+003, 3.899238e-003
3.723869e+003, 3.917708e-003
3.725798e+003, 4.035447e-003
3.727726e+003, 3.512116e-003
3.729655e+003, 3.744553e-003
3.731583e+003, 3.558004e-003
3.733511e+003, 2.883063e-003
3.735440e+003, 3.083817e-003
3.737368e+003, 3.200054e-003
3.739297e+003, 3.782175e-003
3.741225e+003, 4.433342e-003
3.743154e+003, 5.700536e-003
3.745082e+003, 5.522049e-003
3.747011e+003, 4.571045e-003
3.748939e+003, 4.202107e-003
3.750868e+003, 4.157542e-003
3.752796e+003, 4.185735e-003
3.754725e+003, 2.699923e-003
3.756653e+003, 3.643409e-003
3.758582e+003, 4.335281e-003
3.760510e+003, 3.197896e-003
3.762438e+003, 3.486727e-003
3.764367e+003, 3.771652e-003
3.766295e+003, 2.940384e-003
3.768224e+003, 2.576693e-003
3.770152e+003, 3.607424e-003
3.772081e+003, 3.283125e-003
3.774009e+003, 4.113490e-003
3.775938e+003, 4.425299e-003
3.777866e+003, 3.797850e-003
3.779795e+003, 4.076229e-003
3.781723e+003, 3.881356e-003
3.783652e+003, 3.583904e-003
3.785580e+003, 3.743499e-003
3.787509e+003, 3.617743e-003
3.789437e+003, 3.444179e-003
3.791365e+003, 3.795682e-003
3.793294e+003, 4.038876e-003
3.795222e+003, 2.850095e-003
3.797151e+003, 1.929746e-003
3.799079e+003, 2.296621e-003
3.801008e+003, 3.664591e-003
3.802936e+003, 2.791388e-003
3.804865e+003, 3.287153e-003
3.806793e+003, 4.758072e-003
3.808722e+003, 4.695051e-003
3.810650e+003, 4.136466e-003
3.812579e+003, 3.236858e-003
3.814507e+003, 2.855588e-003
3.816436e+003, 3.158666e-003
3.818364e+003, 2.781549e-003
3.820292e+003, 2.918121e-003
3.822221e+003, 3.470549e-003
3.824149e+003, 4.039974e-003
3.826078e+003, 3.636034e-003
3.828006e+003, 3.062643e-003
3.829935e+003, 2.858493e-003
3.831863e+003, 3.276893e-003
3.833792e+003, 3.666535e-003
3.835720e+003, 3.363348e-003
3.837649e+003, 4.176480e-003
3.839577e+003, 4.032935e-003
3.841506e+003, 3.460126e-003
3.843434e+003, 3.490066e-003
3.845363e+003, 2.611574e-003
3.847291e+003, 2.890602e-003
3.849219e+003, 3.018922e-003
3.851148e+003, 4.202557e-003
3.853076e+003, 5.588284e-003
3.855005e+003, 5.453956e-003
3.856933e+003, 4.636067e-003
3.858862e+003, 3.599789e-003
3.860790e+003, 2.521734e-003
3.862719e+003, 2.915399e-003
3.864647e+003, 3.777666e-003
3.866576e+003, 3.460498e-003
3.868504e+003, 4.354373e-003
3.870433e+003, 3.914686e-003
3.872361e+003, 2.684527e-003
3.874290e+003, 3.812953e-003
3.876218e+003, 3.933540e-003
3.878146e+003, 2.956006e-003
3.880075e+003, 3.168959e-003
3.882003e+003, 3.749640e-003
3.883932e+003, 4.857455e-003
3.885860e+003, 5.240314e-003
3.887789e+003, 4.991345e-003
3.889717e+003, 5.075776e-003
3.891646e+003, 4.822877e-003
3.893574e+003, 3.855336e-003
3.895503e+003, 3.720120e-003
3.897431e+003, 4.576492e-003
3.899360e+003, 5.739804e-003
3.901288e+003, 5.748610e-003
3.903217e+003, 4.783651e-003
3.905145e+003, 3.732830e-003
3.907073e+003, 2.805972e-003
3.909002e+003, 3.105645e-003
3.910930e+003, 3.921487e-003
3.912859e+003, 4.216220e-003
3.914787e+003, 4.544847e-003
3.916716e+003, 4.708057e-003
3.918644e+003, 4.680560e-003
3.920573e+003, 4.695759e-003
3.922501e+003, 5.185562e-003
3.924430e+003, 5.414160e-003
3.926358e+003, 4.771570e-003
3.928287e+003, 3.430690e-003
3.930215e+003, 3.155897e-003
3.932144e+003, 4.283759e-003
3.934072e+003, 4.451439e-003
3.936000e+003, 3.437296e-003
3.937929e+003, 3.417408e-003
3.939857e+003, 4.187600e-003
3.941786e+003, 4.217931e-003
3.943714e+003, 3.821427e-003
3.945643e+003, 3.316819e-003
3.947571e+003, 3.724227e-003
3.949500e+003, 4.123863e-003
3.951428e+003, 4.369085e-003
3.953357e+003, 4.502153e-003
3.955285e+003, 3.982381e-003
3.957214e+003, 3.163783e-003
3.959142e+003, 3.153366e-003
3.961071e+003, 4.201069e-003
3.962999e+003, 3.154464e-003
3.964927e+003, 2.177983e-003
3.966856e+003, 4.204438e-003
3.968784e+003, 5.703061e-003
3.970713e+003, 5.768666e-003
3.972641e+003, 4.499303e-003
3.974570e+003, 4.711836e-003
3.976498e+003, 4.779125e-003
3.978427e+003, 3.666940e-003
3.980355e+003, 2.871547e-003
3.982284e+003, 3.302540e-003
3.984212e+003, 3.405325e-003
3.986141e+003, 4.049457e-003
3.988069e+003, 3.713303e-003
3.989998e+003, 3.248272e-003
3.991926e+003, 3.762493e-003
3.993854e+003, 4.473575e-003
3.995783e+003, 3.443205e-003
3.997711e+003, 2.957575e-003
3.999640e+003, 3.584899e-003
##END=



