##NAMES=Fluorapophyllite-(K)
##RRUFFID=R050021
##IDEAL CHEMISTRY=KCa_4_Si_8_O_20_F&#183;8H_2_O
##LOCALITY=Poona, Maharashtra State, India
##OWNER=RRUFF
##SOURCE=Eugene Schlepp
##DESCRIPTION=Colorless tetragonal prisms
##STATUS=The identification of this mineral has been confirmed by X-ray diffraction and chemical analysis
##URL=rruff.info/R050021
##MEASURED CHEMISTRY=(K_0.98_Na_0.02_)_Σ=1_Ca_4.00_Si_8.00_O_20_(F_0.84_(OH)_0.16_)_Σ=1_·8H_2_O
3.991926e+002, 0.000000e+000
4.011211e+002, 7.641891e-002
4.030496e+002, 7.664732e-002
4.049780e+002, 8.246285e-002
4.069065e+002, 9.018055e-002
4.088350e+002, 9.709699e-002
4.107634e+002, 1.034752e-001
4.126919e+002, 1.086503e-001
4.146204e+002, 1.101265e-001
4.165488e+002, 1.075908e-001
4.184773e+002, 9.589832e-002
4.204058e+002, 8.313118e-002
4.223342e+002, 7.458374e-002
4.242627e+002, 7.057238e-002
4.261912e+002, 6.979986e-002
4.281196e+002, 7.115037e-002
4.300481e+002, 7.421653e-002
4.319766e+002, 7.861535e-002
4.339050e+002, 8.417699e-002
4.358335e+002, 9.298412e-002
4.377620e+002, 1.006631e-001
4.396904e+002, 1.043197e-001
4.416189e+002, 1.085624e-001
4.435474e+002, 1.137858e-001
4.454758e+002, 1.155559e-001
4.474043e+002, 1.154625e-001
4.493328e+002, 1.161313e-001
4.512612e+002, 1.192618e-001
4.531897e+002, 1.236267e-001
4.551182e+002, 1.291328e-001
4.570466e+002, 1.358372e-001
4.589751e+002, 1.425317e-001
4.609036e+002, 1.495369e-001
4.628320e+002, 1.573533e-001
4.647605e+002, 1.669120e-001
4.666890e+002, 1.760864e-001
4.686174e+002, 1.838095e-001
4.705459e+002, 1.895741e-001
4.724744e+002, 1.920496e-001
4.744028e+002, 1.902418e-001
4.763313e+002, 1.819637e-001
4.782598e+002, 1.704123e-001
4.801882e+002, 1.593188e-001
4.821167e+002, 1.527641e-001
4.840452e+002, 1.525207e-001
4.859736e+002, 1.564172e-001
4.879021e+002, 1.640042e-001
4.898306e+002, 1.733963e-001
4.917590e+002, 1.813530e-001
4.936875e+002, 1.875874e-001
4.956160e+002, 1.914722e-001
4.975444e+002, 1.920999e-001
4.994729e+002, 1.890012e-001
5.014014e+002, 1.823532e-001
5.033298e+002, 1.728207e-001
5.052583e+002, 1.625520e-001
5.071868e+002, 1.524036e-001
5.091152e+002, 1.421673e-001
5.110437e+002, 1.326110e-001
5.129722e+002, 1.238530e-001
5.149006e+002, 1.176712e-001
5.168291e+002, 1.141664e-001
5.187576e+002, 1.122201e-001
5.206860e+002, 1.129986e-001
5.226145e+002, 1.154391e-001
5.245430e+002, 1.193022e-001
5.264714e+002, 1.234336e-001
5.283999e+002, 1.272862e-001
5.303284e+002, 1.312039e-001
5.322568e+002, 1.337373e-001
5.341853e+002, 1.339954e-001
5.361138e+002, 1.321430e-001
5.380422e+002, 1.287629e-001
5.399707e+002, 1.235026e-001
5.418992e+002, 1.173552e-001
5.438276e+002, 1.108681e-001
5.457561e+002, 1.032741e-001
5.476846e+002, 9.531005e-002
5.496130e+002, 8.828674e-002
5.515415e+002, 8.213694e-002
5.534700e+002, 7.508136e-002
5.553984e+002, 6.730379e-002
5.573269e+002, 6.015491e-002
5.592554e+002, 5.352043e-002
5.611838e+002, 4.790583e-002
5.631123e+002, 4.399790e-002
5.650408e+002, 4.152341e-002
5.669692e+002, 3.999555e-002
5.688977e+002, 3.847557e-002
5.708262e+002, 3.769701e-002
5.727546e+002, 3.780829e-002
5.746831e+002, 3.793497e-002
5.766116e+002, 3.888376e-002
5.785400e+002, 4.068301e-002
5.804685e+002, 4.254594e-002
5.823970e+002, 4.527826e-002
5.843254e+002, 4.886378e-002
5.862539e+002, 5.292408e-002
5.881824e+002, 5.807515e-002
5.901108e+002, 6.459076e-002
5.920393e+002, 7.108184e-002
5.939678e+002, 7.717460e-002
5.958962e+002, 8.217824e-002
5.978247e+002, 8.515593e-002
5.997532e+002, 8.441411e-002
6.016816e+002, 8.070765e-002
6.036101e+002, 7.603937e-002
6.055386e+002, 7.010663e-002
6.074670e+002, 6.362264e-002
6.093955e+002, 5.813512e-002
6.113240e+002, 5.359656e-002
6.132524e+002, 4.988297e-002
6.151809e+002, 4.743866e-002
6.171094e+002, 4.604824e-002
6.190378e+002, 4.472176e-002
6.209663e+002, 4.398134e-002
6.228948e+002, 4.359960e-002
6.248232e+002, 4.357754e-002
6.267517e+002, 4.323270e-002
6.286802e+002, 4.248204e-002
6.306086e+002, 4.115740e-002
6.325371e+002, 3.975644e-002
6.344656e+002, 3.808202e-002
6.363940e+002, 3.577211e-002
6.383225e+002, 3.352022e-002
6.402510e+002, 3.144613e-002
6.421794e+002, 2.964935e-002
6.441079e+002, 2.837671e-002
6.460364e+002, 2.723658e-002
6.479648e+002, 2.651340e-002
6.498933e+002, 2.598794e-002
6.518218e+002, 2.590910e-002
6.537502e+002, 2.596585e-002
6.556787e+002, 2.600736e-002
6.576072e+002, 2.616660e-002
6.595356e+002, 2.587238e-002
6.614641e+002, 2.559374e-002
6.633926e+002, 2.558091e-002
6.653210e+002, 2.543914e-002
6.672495e+002, 2.522100e-002
6.691780e+002, 2.457900e-002
6.711064e+002, 2.374257e-002
6.730349e+002, 2.318330e-002
6.749634e+002, 2.280959e-002
6.768918e+002, 2.245153e-002
6.788203e+002, 2.223477e-002
6.807488e+002, 2.220439e-002
6.826772e+002, 2.203493e-002
6.846057e+002, 2.193956e-002
6.865342e+002, 2.216228e-002
6.884626e+002, 2.245319e-002
6.903911e+002, 2.263821e-002
6.923196e+002, 2.271417e-002
6.942480e+002, 2.291318e-002
6.961765e+002, 2.326215e-002
6.981050e+002, 2.370309e-002
7.000334e+002, 2.394822e-002
7.019619e+002, 2.396455e-002
7.038904e+002, 2.417197e-002
7.058188e+002, 2.436689e-002
7.077473e+002, 2.464396e-002
7.096758e+002, 2.500406e-002
7.116042e+002, 2.529688e-002
7.135327e+002, 2.548503e-002
7.154612e+002, 2.630445e-002
7.173896e+002, 2.714218e-002
7.193181e+002, 2.753062e-002
7.212466e+002, 2.800403e-002
7.231750e+002, 2.860990e-002
7.251035e+002, 2.946868e-002
7.270320e+002, 3.055336e-002
7.289604e+002, 3.147885e-002
7.308889e+002, 3.252915e-002
7.328174e+002, 3.377943e-002
7.347458e+002, 3.509867e-002
7.366743e+002, 3.656993e-002
7.386028e+002, 3.845634e-002
7.405313e+002, 4.058373e-002
7.424597e+002, 4.286888e-002
7.443882e+002, 4.572340e-002
7.463167e+002, 4.913030e-002
7.482451e+002, 5.297349e-002
7.501736e+002, 5.765084e-002
7.521021e+002, 6.373367e-002
7.540305e+002, 7.124177e-002
7.559590e+002, 7.975950e-002
7.578875e+002, 8.923225e-002
7.598159e+002, 9.876859e-002
7.617444e+002, 1.061216e-001
7.636729e+002, 1.090207e-001
7.656013e+002, 1.070699e-001
7.675298e+002, 1.015534e-001
7.694583e+002, 9.496256e-002
7.713867e+002, 8.956239e-002
7.733152e+002, 8.616428e-002
7.752437e+002, 8.430889e-002
7.771721e+002, 8.383437e-002
7.791006e+002, 8.436753e-002
7.810291e+002, 8.501245e-002
7.829575e+002, 8.582023e-002
7.848860e+002, 8.668309e-002
7.868145e+002, 8.714435e-002
7.887429e+002, 8.707108e-002
7.906714e+002, 8.626387e-002
7.925999e+002, 8.450989e-002
7.945283e+002, 8.173671e-002
7.964568e+002, 7.838085e-002
7.983853e+002, 7.455314e-002
8.003137e+002, 7.015444e-002
8.022422e+002, 6.591314e-002
8.041707e+002, 6.205456e-002
8.060991e+002, 5.828714e-002
8.080276e+002, 5.489654e-002
8.099561e+002, 5.196507e-002
8.118845e+002, 4.962926e-002
8.138130e+002, 4.762228e-002
8.157415e+002, 4.592517e-002
8.176699e+002, 4.482360e-002
8.195984e+002, 4.390449e-002
8.215269e+002, 4.304108e-002
8.234553e+002, 4.217616e-002
8.253838e+002, 4.154357e-002
8.273123e+002, 4.133115e-002
8.292407e+002, 4.091064e-002
8.311692e+002, 4.043975e-002
8.330977e+002, 4.011181e-002
8.350261e+002, 3.992173e-002
8.369546e+002, 3.990093e-002
8.388831e+002, 3.979986e-002
8.408115e+002, 3.975584e-002
8.427400e+002, 3.965252e-002
8.446685e+002, 3.960252e-002
8.465969e+002, 3.965279e-002
8.485254e+002, 3.966367e-002
8.504539e+002, 3.991580e-002
8.523823e+002, 4.025772e-002
8.543108e+002, 4.040543e-002
8.562393e+002, 4.027371e-002
8.581677e+002, 4.020709e-002
8.600962e+002, 4.063373e-002
8.620247e+002, 4.133771e-002
8.639531e+002, 4.190613e-002
8.658816e+002, 4.221260e-002
8.678101e+002, 4.240916e-002
8.697385e+002, 4.245872e-002
8.716670e+002, 4.245894e-002
8.735955e+002, 4.278440e-002
8.755239e+002, 4.329146e-002
8.774524e+002, 4.393054e-002
8.793809e+002, 4.463055e-002
8.813093e+002, 4.505446e-002
8.832378e+002, 4.558541e-002
8.851663e+002, 4.646454e-002
8.870947e+002, 4.738306e-002
8.890232e+002, 4.798296e-002
8.909517e+002, 4.853659e-002
8.928801e+002, 4.917678e-002
8.948085e+002, 4.995748e-002
8.967370e+002, 5.065892e-002
8.986655e+002, 5.161798e-002
9.005939e+002, 5.245809e-002
9.025224e+002, 5.333765e-002
9.044509e+002, 5.433200e-002
9.063793e+002, 5.539129e-002
9.083078e+002, 5.647569e-002
9.102363e+002, 5.766934e-002
9.121647e+002, 5.899484e-002
9.140932e+002, 6.059273e-002
9.160217e+002, 6.237863e-002
9.179501e+002, 6.429506e-002
9.198786e+002, 6.640522e-002
9.218071e+002, 6.862678e-002
9.237355e+002, 7.107191e-002
9.256640e+002, 7.366216e-002
9.275925e+002, 7.623509e-002
9.295209e+002, 7.926460e-002
9.314494e+002, 8.256773e-002
9.333779e+002, 8.598990e-002
9.353063e+002, 8.988107e-002
9.372348e+002, 9.413195e-002
9.391633e+002, 9.862017e-002
9.410917e+002, 1.034434e-001
9.430202e+002, 1.087312e-001
9.449487e+002, 1.144547e-001
9.468771e+002, 1.201102e-001
9.488056e+002, 1.261598e-001
9.507341e+002, 1.332091e-001
9.526625e+002, 1.405579e-001
9.545910e+002, 1.481816e-001
9.565195e+002, 1.563367e-001
9.584479e+002, 1.649965e-001
9.603764e+002, 1.740816e-001
9.623049e+002, 1.839669e-001
9.642333e+002, 1.944120e-001
9.661618e+002, 2.049733e-001
9.680903e+002, 2.157321e-001
9.700187e+002, 2.272934e-001
9.719472e+002, 2.397321e-001
9.738757e+002, 2.522321e-001
9.758041e+002, 2.641435e-001
9.777326e+002, 2.760372e-001
9.796611e+002, 2.878093e-001
9.815895e+002, 2.996979e-001
9.835180e+002, 3.112985e-001
9.854465e+002, 3.225393e-001
9.873749e+002, 3.334053e-001
9.893034e+002, 3.436225e-001
9.912319e+002, 3.528976e-001
9.931603e+002, 3.607941e-001
9.950888e+002, 3.665472e-001
9.970173e+002, 3.705942e-001
9.989457e+002, 3.721842e-001
1.000874e+003, 3.714308e-001
1.002803e+003, 3.690483e-001
1.004731e+003, 3.652676e-001
1.006660e+003, 3.607779e-001
1.008588e+003, 3.558055e-001
1.010517e+003, 3.495799e-001
1.012445e+003, 3.404441e-001
1.014373e+003, 3.281549e-001
1.016302e+003, 3.140424e-001
1.018230e+003, 2.988975e-001
1.020159e+003, 2.833100e-001
1.022087e+003, 2.674719e-001
1.024016e+003, 2.517948e-001
1.025944e+003, 2.367523e-001
1.027873e+003, 2.223801e-001
1.029801e+003, 2.087839e-001
1.031730e+003, 1.962293e-001
1.033658e+003, 1.847109e-001
1.035587e+003, 1.740636e-001
1.037515e+003, 1.641303e-001
1.039444e+003, 1.545692e-001
1.041372e+003, 1.454304e-001
1.043301e+003, 1.367805e-001
1.045229e+003, 1.286244e-001
1.047157e+003, 1.210486e-001
1.049086e+003, 1.134805e-001
1.051014e+003, 1.060523e-001
1.052943e+003, 9.916561e-002
1.054871e+003, 9.241420e-002
1.056800e+003, 8.554479e-002
1.058728e+003, 7.876734e-002
1.060657e+003, 7.191399e-002
1.062585e+003, 6.528313e-002
1.064514e+003, 5.930641e-002
1.066442e+003, 5.454948e-002
1.068371e+003, 5.135480e-002
1.070299e+003, 4.935362e-002
1.072228e+003, 4.812561e-002
1.074156e+003, 4.794264e-002
1.076084e+003, 4.868784e-002
1.078013e+003, 5.037659e-002
1.079941e+003, 5.324660e-002
1.081870e+003, 5.732716e-002
1.083798e+003, 6.273874e-002
1.085727e+003, 6.942907e-002
1.087655e+003, 7.743131e-002
1.089584e+003, 8.584414e-002
1.091512e+003, 9.256344e-002
1.093441e+003, 9.636164e-002
1.095369e+003, 9.694025e-002
1.097298e+003, 9.449160e-002
1.099226e+003, 9.032595e-002
1.101155e+003, 8.535863e-002
1.103083e+003, 8.054002e-002
1.105011e+003, 7.599472e-002
1.106940e+003, 7.219102e-002
1.108868e+003, 6.980573e-002
1.110797e+003, 6.967027e-002
1.112725e+003, 7.199739e-002
1.114654e+003, 7.669750e-002
1.116582e+003, 8.304533e-002
1.118511e+003, 8.897164e-002
1.120439e+003, 9.225102e-002
1.122368e+003, 9.204353e-002
1.124296e+003, 8.865730e-002
1.126225e+003, 8.351207e-002
1.128153e+003, 7.790582e-002
1.130082e+003, 7.203385e-002
1.132010e+003, 6.611640e-002
1.133938e+003, 6.038085e-002
1.135867e+003, 5.470532e-002
1.137795e+003, 4.907460e-002
1.139724e+003, 4.388246e-002
1.141652e+003, 3.950153e-002
1.143581e+003, 3.559446e-002
1.145509e+003, 3.233676e-002
1.147438e+003, 2.978535e-002
1.149366e+003, 2.768598e-002
1.151295e+003, 2.610113e-002
1.153223e+003, 2.478083e-002
1.155152e+003, 2.361039e-002
1.157080e+003, 2.256639e-002
1.159009e+003, 2.183793e-002
1.160937e+003, 2.129116e-002
1.162865e+003, 2.087719e-002
1.164794e+003, 2.036882e-002
1.166722e+003, 1.959725e-002
1.168651e+003, 1.899638e-002
1.170579e+003, 1.859946e-002
1.172508e+003, 1.813531e-002
1.174436e+003, 1.774163e-002
1.176365e+003, 1.734343e-002
1.178293e+003, 1.688697e-002
1.180222e+003, 1.662361e-002
1.182150e+003, 1.625752e-002
1.184079e+003, 1.598907e-002
1.186007e+003, 1.558172e-002
1.187936e+003, 1.514051e-002
1.189864e+003, 1.492111e-002
1.191792e+003, 1.478486e-002
1.193721e+003, 1.435131e-002
1.195649e+003, 1.404199e-002
1.197578e+003, 1.382405e-002
1.199506e+003, 1.330109e-002
1.201435e+003, 1.285903e-002
1.203363e+003, 1.271340e-002
1.205292e+003, 1.266996e-002
1.207220e+003, 1.256026e-002
1.209149e+003, 1.232455e-002
1.211077e+003, 1.188458e-002
1.213006e+003, 1.150011e-002
1.214934e+003, 1.134172e-002
1.216863e+003, 1.126100e-002
1.218791e+003, 1.110013e-002
1.220719e+003, 1.096923e-002
1.222648e+003, 1.080965e-002
1.224576e+003, 1.054063e-002
1.226505e+003, 1.043459e-002
1.228433e+003, 1.047897e-002
1.230362e+003, 1.029404e-002
1.232290e+003, 1.005269e-002
1.234219e+003, 1.007474e-002
1.236147e+003, 1.009074e-002
1.238076e+003, 1.002683e-002
1.240004e+003, 9.995800e-003
1.241933e+003, 9.919187e-003
1.243861e+003, 9.685930e-003
1.245790e+003, 9.580378e-003
1.247718e+003, 9.628315e-003
1.249646e+003, 9.654254e-003
1.251575e+003, 9.620594e-003
1.253503e+003, 9.583169e-003
1.255432e+003, 9.543797e-003
1.257360e+003, 9.473056e-003
1.259289e+003, 9.217593e-003
1.261217e+003, 9.224259e-003
1.263146e+003, 9.351759e-003
1.265074e+003, 9.239088e-003
1.267003e+003, 8.986426e-003
1.268931e+003, 9.174758e-003
1.270860e+003, 9.279768e-003
1.272788e+003, 9.250705e-003
1.274717e+003, 9.176088e-003
1.276645e+003, 9.186288e-003
1.278573e+003, 9.078523e-003
1.280502e+003, 9.021217e-003
1.282430e+003, 9.116916e-003
1.284359e+003, 9.094280e-003
1.286287e+003, 9.020478e-003
1.288216e+003, 9.055984e-003
1.290144e+003, 8.903888e-003
1.292073e+003, 8.905127e-003
1.294001e+003, 8.936986e-003
1.295930e+003, 8.845937e-003
1.297858e+003, 8.761172e-003
1.299787e+003, 8.685311e-003
1.301715e+003, 8.680857e-003
1.303644e+003, 8.682814e-003
1.305572e+003, 8.563430e-003
1.307500e+003, 8.579075e-003
1.309429e+003, 8.653450e-003
1.311357e+003, 8.610986e-003
1.313286e+003, 8.813988e-003
1.315214e+003, 8.948362e-003
1.317143e+003, 8.725665e-003
1.319071e+003, 8.764726e-003
1.321000e+003, 8.980928e-003
1.322928e+003, 9.049062e-003
1.324857e+003, 9.050788e-003
1.326785e+003, 9.064678e-003
1.328714e+003, 9.085367e-003
1.330642e+003, 9.203929e-003
1.332571e+003, 9.348830e-003
1.334499e+003, 9.202101e-003
1.336427e+003, 8.936416e-003
1.338356e+003, 8.938792e-003
1.340284e+003, 9.219242e-003
1.342213e+003, 9.201170e-003
1.344141e+003, 9.229011e-003
1.346070e+003, 9.377912e-003
1.347998e+003, 9.375201e-003
1.349927e+003, 9.367757e-003
1.351855e+003, 9.412501e-003
1.353784e+003, 9.420275e-003
1.355712e+003, 9.630417e-003
1.357641e+003, 9.780801e-003
1.359569e+003, 9.767280e-003
1.361498e+003, 9.864297e-003
1.363426e+003, 1.013949e-002
1.365354e+003, 1.026529e-002
1.367283e+003, 1.015451e-002
1.369211e+003, 1.028646e-002
1.371140e+003, 1.026454e-002
1.373068e+003, 1.005122e-002
1.374997e+003, 1.047474e-002
1.376925e+003, 1.065751e-002
1.378854e+003, 1.112773e-002
1.380782e+003, 1.135087e-002
1.382711e+003, 1.134476e-002
1.384639e+003, 1.125210e-002
1.386568e+003, 1.099809e-002
1.388496e+003, 1.209205e-002
1.390424e+003, 1.198114e-002
1.392353e+003, 1.197998e-002
1.394281e+003, 1.193242e-002
1.396210e+003, 1.283212e-002
1.398138e+003, 1.284438e-002
1.400067e+003, 1.372094e-002
1.401995e+003, 1.331778e-002
1.403924e+003, 1.346076e-002
1.405852e+003, 1.439030e-002
1.407781e+003, 1.454919e-002
1.409709e+003, 1.464565e-002
1.411638e+003, 1.482865e-002
1.413566e+003, 1.504509e-002
1.415495e+003, 1.497269e-002
1.417423e+003, 1.455453e-002
1.419351e+003, 1.523379e-002
1.421280e+003, 1.586812e-002
1.423208e+003, 1.568129e-002
1.425137e+003, 1.612582e-002
1.427065e+003, 1.593588e-002
1.428994e+003, 1.595976e-002
1.430922e+003, 1.674417e-002
1.432851e+003, 1.664601e-002
1.434779e+003, 1.594073e-002
1.436708e+003, 1.639877e-002
1.438636e+003, 1.713378e-002
1.440565e+003, 1.691754e-002
1.442493e+003, 1.696468e-002
1.444422e+003, 1.681167e-002
1.446350e+003, 1.652150e-002
1.448278e+003, 1.714159e-002
1.450207e+003, 1.713978e-002
1.452135e+003, 1.718280e-002
1.454064e+003, 1.634792e-002
1.455992e+003, 1.471456e-002
1.457921e+003, 1.744878e-002
1.459849e+003, 1.723813e-002
1.461778e+003, 1.688679e-002
1.463706e+003, 1.638893e-002
1.465635e+003, 1.770710e-002
1.467563e+003, 1.706530e-002
1.469492e+003, 1.670009e-002
1.471420e+003, 1.558534e-002
1.473349e+003, 1.682821e-002
1.475277e+003, 1.648525e-002
1.477205e+003, 1.743142e-002
1.479134e+003, 1.712246e-002
1.481062e+003, 1.724485e-002
1.482991e+003, 1.724319e-002
1.484919e+003, 1.690073e-002
1.486848e+003, 1.679611e-002
1.488776e+003, 1.681592e-002
1.490705e+003, 1.762229e-002
1.492633e+003, 1.735172e-002
1.494562e+003, 1.660526e-002
1.496490e+003, 1.714700e-002
1.498419e+003, 1.688378e-002
1.500347e+003, 1.766155e-002
1.502276e+003, 1.749331e-002
1.504204e+003, 1.581055e-002
1.506132e+003, 1.598352e-002
1.508061e+003, 1.823321e-002
1.509989e+003, 1.804199e-002
1.511918e+003, 1.766520e-002
1.513846e+003, 1.784656e-002
1.515775e+003, 1.736724e-002
1.517703e+003, 1.822595e-002
1.519632e+003, 1.611868e-002
1.521560e+003, 1.744500e-002
1.523489e+003, 1.786633e-002
1.525417e+003, 1.781788e-002
1.527346e+003, 1.818785e-002
1.529274e+003, 1.855869e-002
1.531203e+003, 1.795726e-002
1.533131e+003, 1.782021e-002
1.535059e+003, 1.916605e-002
1.536988e+003, 1.724048e-002
1.538916e+003, 1.579556e-002
1.540845e+003, 1.776599e-002
1.542773e+003, 1.876592e-002
1.544702e+003, 1.832225e-002
1.546630e+003, 1.938000e-002
1.548559e+003, 1.879639e-002
1.550487e+003, 1.940373e-002
1.552416e+003, 1.822254e-002
1.554344e+003, 1.832638e-002
1.556273e+003, 1.684925e-002
1.558201e+003, 1.613057e-002
1.560130e+003, 1.857107e-002
1.562058e+003, 1.871875e-002
1.563986e+003, 1.861156e-002
1.565915e+003, 1.932977e-002
1.567843e+003, 1.821733e-002
1.569772e+003, 1.872994e-002
1.571700e+003, 1.884842e-002
1.573629e+003, 1.811604e-002
1.575557e+003, 1.672825e-002
1.577486e+003, 1.962508e-002
1.579414e+003, 1.916794e-002
1.581343e+003, 1.933265e-002
1.583271e+003, 1.956417e-002
1.585200e+003, 1.973874e-002
1.587128e+003, 1.981660e-002
1.589057e+003, 1.989472e-002
1.590985e+003, 1.993284e-002
1.592913e+003, 1.992511e-002
1.594842e+003, 2.021695e-002
1.596770e+003, 2.034157e-002
1.598699e+003, 2.034242e-002
1.600627e+003, 2.045460e-002
1.602556e+003, 2.068605e-002
1.604484e+003, 2.084677e-002
1.606413e+003, 2.081602e-002
1.608341e+003, 2.080229e-002
1.610270e+003, 2.112451e-002
1.612198e+003, 2.153622e-002
1.614127e+003, 2.127295e-002
1.616055e+003, 2.006791e-002
1.617984e+003, 2.282457e-002
1.619912e+003, 2.224938e-002
1.621840e+003, 2.210000e-002
1.623769e+003, 2.315454e-002
1.625697e+003, 2.306929e-002
1.627626e+003, 2.346769e-002
1.629554e+003, 2.410491e-002
1.631483e+003, 2.461437e-002
1.633411e+003, 2.394604e-002
1.635340e+003, 2.430756e-002
1.637268e+003, 2.590589e-002
1.639197e+003, 2.648647e-002
1.641125e+003, 2.699425e-002
1.643054e+003, 2.725047e-002
1.644982e+003, 2.592727e-002
1.646911e+003, 2.810767e-002
1.648839e+003, 2.920237e-002
1.650767e+003, 2.697293e-002
1.652696e+003, 2.673261e-002
1.654624e+003, 3.163428e-002
1.656553e+003, 3.212688e-002
1.658481e+003, 3.311322e-002
1.660410e+003, 3.383465e-002
1.662338e+003, 3.502581e-002
1.664267e+003, 3.746700e-002
1.666195e+003, 3.829249e-002
1.668124e+003, 3.901577e-002
1.670052e+003, 4.242643e-002
1.671981e+003, 4.364155e-002
1.673909e+003, 4.371529e-002
1.675838e+003, 4.690708e-002
1.677766e+003, 4.741754e-002
1.679694e+003, 4.814193e-002
1.681623e+003, 4.757707e-002
1.683551e+003, 4.540470e-002
1.685480e+003, 4.834703e-002
1.687408e+003, 4.700541e-002
1.689337e+003, 4.749281e-002
1.691265e+003, 4.709138e-002
1.693194e+003, 4.481639e-002
1.695122e+003, 4.012150e-002
1.697051e+003, 3.920119e-002
1.698979e+003, 3.204712e-002
1.700908e+003, 3.218797e-002
1.702836e+003, 2.665723e-002
1.704765e+003, 2.368282e-002
1.706693e+003, 2.137090e-002
1.708621e+003, 1.859336e-002
1.710550e+003, 1.642751e-002
1.712478e+003, 1.401028e-002
1.714407e+003, 1.279166e-002
1.716335e+003, 1.080950e-002
1.718264e+003, 1.206452e-002
1.720192e+003, 1.197367e-002
1.722121e+003, 1.109176e-002
1.724049e+003, 1.076373e-002
1.725978e+003, 1.075116e-002
1.727906e+003, 1.018579e-002
1.729835e+003, 9.782596e-003
1.731763e+003, 8.233890e-003
1.733692e+003, 7.298016e-003
1.735620e+003, 9.766624e-003
1.737548e+003, 8.470993e-003
1.739477e+003, 8.287480e-003
1.741405e+003, 8.847079e-003
1.743334e+003, 8.298560e-003
1.745262e+003, 8.539435e-003
1.747191e+003, 8.536705e-003
1.749119e+003, 8.556252e-003
1.751048e+003, 8.123795e-003
1.752976e+003, 9.216022e-003
1.754905e+003, 8.941852e-003
1.756833e+003, 9.266654e-003
1.758762e+003, 9.244717e-003
1.760690e+003, 8.690719e-003
1.762619e+003, 9.970042e-003
1.764547e+003, 9.493290e-003
1.766475e+003, 9.279871e-003
1.768404e+003, 9.694100e-003
1.770332e+003, 8.396706e-003
1.772261e+003, 8.833483e-003
1.774189e+003, 1.002902e-002
1.776118e+003, 9.874247e-003
1.778046e+003, 9.381992e-003
1.779975e+003, 9.277372e-003
1.781903e+003, 9.583823e-003
1.783832e+003, 9.282759e-003
1.785760e+003, 9.960370e-003
1.787689e+003, 9.373839e-003
1.789617e+003, 8.874901e-003
1.791546e+003, 8.743790e-003
1.793474e+003, 9.989400e-003
1.795402e+003, 9.390350e-003
1.797331e+003, 9.162771e-003
1.799259e+003, 8.967274e-003
1.801188e+003, 9.448532e-003
1.803116e+003, 9.626464e-003
1.805045e+003, 9.497194e-003
1.806973e+003, 9.454509e-003
1.808902e+003, 9.109414e-003
1.810830e+003, 8.900797e-003
1.812759e+003, 8.706303e-003
1.814687e+003, 9.233233e-003
1.816616e+003, 9.432306e-003
1.818544e+003, 9.500939e-003
1.820473e+003, 9.371572e-003
1.822401e+003, 9.233462e-003
1.824329e+003, 8.702788e-003
1.826258e+003, 9.525131e-003
1.828186e+003, 8.583406e-003
1.830115e+003, 9.291300e-003
1.832043e+003, 9.289795e-003
1.833972e+003, 9.431133e-003
1.835900e+003, 9.469414e-003
1.837829e+003, 9.474045e-003
1.839757e+003, 9.290410e-003
1.841686e+003, 9.193276e-003
1.843614e+003, 8.218859e-003
1.845543e+003, 9.571427e-003
1.847471e+003, 9.223060e-003
1.849400e+003, 9.617931e-003
1.851328e+003, 9.143817e-003
1.853256e+003, 8.692792e-003
1.855185e+003, 9.404754e-003
1.857113e+003, 9.748538e-003
1.859042e+003, 9.312799e-003
1.860970e+003, 9.326097e-003
1.862899e+003, 9.888964e-003
1.864827e+003, 9.747860e-003
1.866756e+003, 9.361936e-003
1.868684e+003, 9.264755e-003
1.870613e+003, 9.846388e-003
1.872541e+003, 9.492795e-003
1.874470e+003, 9.358044e-003
1.876398e+003, 9.421639e-003
1.878327e+003, 9.395286e-003
1.880255e+003, 9.565368e-003
1.882183e+003, 9.444268e-003
1.884112e+003, 9.615908e-003
1.886040e+003, 9.600666e-003
1.887969e+003, 9.666454e-003
1.889897e+003, 1.001654e-002
1.891826e+003, 9.398244e-003
1.893754e+003, 8.730227e-003
1.895683e+003, 8.290332e-003
1.897611e+003, 7.896723e-003
1.899540e+003, 8.584428e-003
1.901468e+003, 8.917271e-003
1.903397e+003, 8.951826e-003
1.905325e+003, 8.750470e-003
1.907254e+003, 8.286729e-003
1.909182e+003, 7.696518e-003
1.911110e+003, 7.267384e-003
1.913039e+003, 7.129069e-003
1.914967e+003, 8.303082e-003
1.916896e+003, 7.875428e-003
1.918824e+003, 8.264519e-003
1.920753e+003, 7.992358e-003
1.922681e+003, 7.915489e-003
1.924610e+003, 7.390455e-003
1.926538e+003, 7.413638e-003
1.928467e+003, 6.999458e-003
1.930395e+003, 6.466688e-003
1.932324e+003, 5.708455e-003
1.934252e+003, 5.086435e-003
1.936181e+003, 5.746510e-003
1.938109e+003, 7.234480e-003
1.940037e+003, 7.011498e-003
1.941966e+003, 5.841923e-003
1.943894e+003, 6.146770e-003
1.945823e+003, 5.155859e-003
1.947751e+003, 4.411172e-003
1.949680e+003, 4.946204e-003
1.951608e+003, 4.649377e-003
1.953537e+003, 4.314294e-003
1.955465e+003, 3.933466e-003
1.957394e+003, 3.718026e-003
1.959322e+003, 3.389585e-003
1.961251e+003, 4.757807e-003
1.963179e+003, 5.130194e-003
1.965108e+003, 3.619776e-003
1.967036e+003, 3.346696e-003
1.968964e+003, 2.706873e-003
1.970893e+003, 2.971029e-003
1.972821e+003, 4.112366e-003
1.974750e+003, 4.020629e-003
1.976678e+003, 4.848090e-003
1.978607e+003, 6.223955e-003
1.980535e+003, 6.905836e-003
1.982464e+003, 5.376249e-003
1.984392e+003, 4.712132e-003
1.986321e+003, 3.599380e-003
1.988249e+003, 3.388830e-003
1.990178e+003, 3.610347e-003
1.992106e+003, 4.897621e-003
1.994035e+003, 4.847762e-003
1.995963e+003, 3.794380e-003
1.997891e+003, 1.298264e-003
1.999820e+003, 1.157298e-003
2.001748e+003, 2.686429e-003
2.003677e+003, 1.943602e-003
2.005605e+003, 1.194965e-003
2.007534e+003, 1.979165e-003
2.009462e+003, 1.419570e-003
2.011391e+003, 1.168256e-004
2.013319e+003, 1.767510e-003
2.015248e+003, 2.744761e-003
2.017176e+003, 3.530907e-003
2.019105e+003, 2.366381e-003
2.021033e+003, 7.300905e-004
2.022962e+003, -2.250488e-004
2.024890e+003, -8.262909e-004
2.026818e+003, 8.152419e-004
2.028747e+003, 2.417411e-003
2.030675e+003, 1.606117e-003
2.032604e+003, 3.323516e-004
2.034532e+003, 1.246938e-003
2.036461e+003, 1.941007e-003
2.038389e+003, 2.086932e-003
2.040318e+003, 2.448544e-003
2.042246e+003, 2.302089e-003
2.044175e+003, 2.595869e-003
2.046103e+003, 2.970216e-003
2.048032e+003, 4.077398e-003
2.049960e+003, 5.410996e-003
2.051889e+003, 4.828713e-003
2.053817e+003, 4.828358e-003
2.055746e+003, 5.516140e-003
2.057674e+003, 5.439925e-003
2.059603e+003, 5.303951e-003
2.061531e+003, 6.143096e-003
2.063459e+003, 7.154727e-003
2.065388e+003, 7.537674e-003
2.067316e+003, 8.562542e-003
2.069245e+003, 7.557601e-003
2.071173e+003, 7.026845e-003
2.073102e+003, 8.194537e-003
2.075030e+003, 8.792355e-003
2.076959e+003, 8.221493e-003
2.078887e+003, 7.847992e-003
2.080816e+003, 7.984489e-003
2.082744e+003, 8.667545e-003
2.084673e+003, 8.244035e-003
2.086601e+003, 7.836708e-003
2.088530e+003, 7.776371e-003
2.090458e+003, 7.833840e-003
2.092386e+003, 7.753960e-003
2.094315e+003, 8.398606e-003
2.096243e+003, 8.568348e-003
2.098172e+003, 8.963812e-003
2.100100e+003, 9.388751e-003
2.102029e+003, 9.484213e-003
2.103957e+003, 9.336702e-003
2.105886e+003, 9.535349e-003
2.107814e+003, 9.920149e-003
2.109743e+003, 1.009483e-002
2.111671e+003, 1.012490e-002
2.113600e+003, 1.045986e-002
2.115528e+003, 1.080663e-002
2.117457e+003, 9.688743e-003
2.119385e+003, 9.020930e-003
2.121313e+003, 9.384933e-003
2.123242e+003, 9.833680e-003
2.125170e+003, 9.681734e-003
2.127099e+003, 9.150581e-003
2.129027e+003, 8.760633e-003
2.130956e+003, 9.086587e-003
2.132884e+003, 9.781842e-003
2.134813e+003, 1.025065e-002
2.136741e+003, 1.091732e-002
2.138670e+003, 1.061575e-002
2.140598e+003, 1.064285e-002
2.142527e+003, 1.170626e-002
2.144455e+003, 1.126511e-002
2.146384e+003, 1.087581e-002
2.148312e+003, 1.050741e-002
2.150240e+003, 1.057370e-002
2.152169e+003, 1.045933e-002
2.154097e+003, 9.363303e-003
2.156026e+003, 9.410957e-003
2.157954e+003, 1.163695e-002
2.159883e+003, 1.216737e-002
2.161811e+003, 1.047552e-002
2.163740e+003, 1.193721e-002
2.165668e+003, 1.369592e-002
2.167597e+003, 1.103267e-002
2.169525e+003, 1.136113e-002
2.171454e+003, 1.278422e-002
2.173382e+003, 1.346222e-002
2.175311e+003, 1.528102e-002
2.177239e+003, 1.403760e-002
2.179167e+003, 1.183041e-002
2.181096e+003, 1.158370e-002
2.183024e+003, 1.042132e-002
2.184953e+003, 1.013168e-002
2.186881e+003, 1.181563e-002
2.188810e+003, 1.209217e-002
2.190738e+003, 1.209467e-002
2.192667e+003, 1.266952e-002
2.194595e+003, 1.180954e-002
2.196524e+003, 1.133136e-002
2.198452e+003, 1.183573e-002
2.200381e+003, 1.221143e-002
2.202309e+003, 1.314950e-002
2.204238e+003, 1.446642e-002
2.206166e+003, 1.254325e-002
2.208094e+003, 1.032170e-002
2.210023e+003, 1.010915e-002
2.211951e+003, 1.066470e-002
2.213880e+003, 1.296410e-002
2.215808e+003, 1.444878e-002
2.217737e+003, 1.429855e-002
2.219665e+003, 1.349367e-002
2.221594e+003, 1.325549e-002
2.223522e+003, 1.462624e-002
2.225451e+003, 1.424947e-002
2.227379e+003, 1.200834e-002
2.229308e+003, 1.323623e-002
2.231236e+003, 1.517356e-002
2.233165e+003, 1.505657e-002
2.235093e+003, 1.394681e-002
2.237021e+003, 1.295402e-002
2.238950e+003, 1.286598e-002
2.240878e+003, 1.186713e-002
2.242807e+003, 1.210334e-002
2.244735e+003, 1.322496e-002
2.246664e+003, 1.425679e-002
2.248592e+003, 1.384760e-002
2.250521e+003, 1.335553e-002
2.252449e+003, 1.364771e-002
2.254378e+003, 1.387400e-002
2.256306e+003, 1.513718e-002
2.258235e+003, 1.597950e-002
2.260163e+003, 1.603393e-002
2.262092e+003, 1.525890e-002
2.264020e+003, 1.455341e-002
2.265948e+003, 1.481719e-002
2.267877e+003, 1.527463e-002
2.269805e+003, 1.539303e-002
2.271734e+003, 1.572569e-002
2.273662e+003, 1.626516e-002
2.275591e+003, 1.613504e-002
2.277519e+003, 1.723868e-002
2.279448e+003, 1.808549e-002
2.281376e+003, 1.659541e-002
2.283305e+003, 1.572063e-002
2.285233e+003, 1.654702e-002
2.287162e+003, 1.762783e-002
2.289090e+003, 1.779919e-002
2.291019e+003, 1.719549e-002
2.292947e+003, 1.640737e-002
2.294875e+003, 1.605285e-002
2.296804e+003, 1.579100e-002
2.298732e+003, 1.604870e-002
2.300661e+003, 1.599312e-002
2.302589e+003, 1.649372e-002
2.304518e+003, 1.777942e-002
2.306446e+003, 1.780245e-002
2.308375e+003, 1.742415e-002
2.310303e+003, 1.722821e-002
2.312232e+003, 1.780329e-002
2.314160e+003, 1.871975e-002
2.316089e+003, 1.910905e-002
2.318017e+003, 1.835568e-002
2.319946e+003, 1.772471e-002
2.321874e+003, 1.834510e-002
2.323802e+003, 1.876793e-002
2.325731e+003, 1.827423e-002
2.327659e+003, 1.821845e-002
2.329588e+003, 1.807939e-002
2.331516e+003, 1.776101e-002
2.333445e+003, 1.765012e-002
2.335373e+003, 1.728140e-002
2.337302e+003, 1.713131e-002
2.339230e+003, 1.708184e-002
2.341159e+003, 1.708125e-002
2.343087e+003, 1.732376e-002
2.345016e+003, 1.695814e-002
2.346944e+003, 1.675863e-002
2.348873e+003, 1.705708e-002
2.350801e+003, 1.697202e-002
2.352729e+003, 1.687597e-002
2.354658e+003, 1.639599e-002
2.356586e+003, 1.640743e-002
2.358515e+003, 1.673841e-002
2.360443e+003, 1.673692e-002
2.362372e+003, 1.605774e-002
2.364300e+003, 1.565804e-002
2.366229e+003, 1.577110e-002
2.368157e+003, 1.580817e-002
2.370086e+003, 1.540885e-002
2.372014e+003, 1.476865e-002
2.373942e+003, 1.496971e-002
2.375871e+003, 1.514411e-002
2.377799e+003, 1.557504e-002
2.379728e+003, 1.651623e-002
2.381656e+003, 1.708830e-002
2.383585e+003, 1.647539e-002
2.385513e+003, 1.578365e-002
2.387442e+003, 1.582983e-002
2.389370e+003, 1.624571e-002
2.391299e+003, 1.640368e-002
2.393227e+003, 1.656939e-002
2.395156e+003, 1.653773e-002
2.397084e+003, 1.611572e-002
2.399012e+003, 1.563629e-002
2.400941e+003, 1.664274e-002
2.402869e+003, 1.716059e-002
2.404798e+003, 1.668405e-002
2.406726e+003, 1.640171e-002
2.408655e+003, 1.625167e-002
2.410583e+003, 1.615977e-002
2.412512e+003, 1.609400e-002
2.414440e+003, 1.560812e-002
2.416369e+003, 1.581277e-002
2.418297e+003, 1.632285e-002
2.420226e+003, 1.613894e-002
2.422154e+003, 1.545173e-002
2.424083e+003, 1.561297e-002
2.426011e+003, 1.656526e-002
2.427939e+003, 1.691578e-002
2.429868e+003, 1.681093e-002
2.431796e+003, 1.678052e-002
2.433725e+003, 1.662829e-002
2.435653e+003, 1.711701e-002
2.437582e+003, 1.765685e-002
2.439510e+003, 1.695373e-002
2.441439e+003, 1.697984e-002
2.443367e+003, 1.714865e-002
2.445296e+003, 1.639672e-002
2.447224e+003, 1.686427e-002
2.449153e+003, 1.676051e-002
2.451081e+003, 1.655287e-002
2.453010e+003, 1.655364e-002
2.454938e+003, 1.699427e-002
2.456866e+003, 1.758182e-002
2.458795e+003, 1.766733e-002
2.460723e+003, 1.754902e-002
2.462652e+003, 1.729789e-002
2.464580e+003, 1.653505e-002
2.466509e+003, 1.666811e-002
2.468437e+003, 1.690359e-002
2.470366e+003, 1.673003e-002
2.472294e+003, 1.724364e-002
2.474223e+003, 1.712192e-002
2.476151e+003, 1.678647e-002
2.478080e+003, 1.616076e-002
2.480008e+003, 1.627404e-002
2.481937e+003, 1.735600e-002
2.483865e+003, 1.789773e-002
2.485793e+003, 1.791314e-002
2.487722e+003, 1.752824e-002
2.489650e+003, 1.680702e-002
2.491579e+003, 1.736402e-002
2.493507e+003, 1.780020e-002
2.495436e+003, 1.771603e-002
2.497364e+003, 1.767140e-002
2.499293e+003, 1.764135e-002
2.501221e+003, 1.744602e-002
2.503150e+003, 1.735959e-002
2.505078e+003, 1.795768e-002
2.507007e+003, 1.891809e-002
2.508935e+003, 1.901879e-002
2.510864e+003, 1.843053e-002
2.512792e+003, 1.823942e-002
2.514720e+003, 1.873445e-002
2.516649e+003, 1.867592e-002
2.518577e+003, 1.793341e-002
2.520506e+003, 1.759581e-002
2.522434e+003, 1.773032e-002
2.524363e+003, 1.823685e-002
2.526291e+003, 1.868123e-002
2.528220e+003, 1.810558e-002
2.530148e+003, 1.769293e-002
2.532077e+003, 1.806480e-002
2.534005e+003, 1.780797e-002
2.535934e+003, 1.769098e-002
2.537862e+003, 1.830318e-002
2.539791e+003, 1.900641e-002
2.541719e+003, 1.933509e-002
2.543647e+003, 1.925597e-002
2.545576e+003, 1.890017e-002
2.547504e+003, 1.910767e-002
2.549433e+003, 1.916154e-002
2.551361e+003, 1.881896e-002
2.553290e+003, 1.856813e-002
2.555218e+003, 1.830387e-002
2.557147e+003, 1.792281e-002
2.559075e+003, 1.879952e-002
2.561004e+003, 1.908799e-002
2.562932e+003, 1.897135e-002
2.564861e+003, 1.912872e-002
2.566789e+003, 1.915434e-002
2.568718e+003, 1.932916e-002
2.570646e+003, 1.996084e-002
2.572574e+003, 2.040669e-002
2.574503e+003, 1.979426e-002
2.576431e+003, 1.982192e-002
2.578360e+003, 2.066159e-002
2.580288e+003, 2.114243e-002
2.582217e+003, 2.149481e-002
2.584145e+003, 2.062573e-002
2.586074e+003, 2.049438e-002
2.588002e+003, 2.110450e-002
2.589931e+003, 2.091110e-002
2.591859e+003, 2.085258e-002
2.593788e+003, 2.152683e-002
2.595716e+003, 2.163855e-002
2.597645e+003, 2.148940e-002
2.599573e+003, 2.145768e-002
2.601501e+003, 2.100630e-002
2.603430e+003, 2.057390e-002
2.605358e+003, 2.079468e-002
2.607287e+003, 2.156265e-002
2.609215e+003, 2.245843e-002
2.611144e+003, 2.270060e-002
2.613072e+003, 2.212368e-002
2.615001e+003, 2.181062e-002
2.616929e+003, 2.190388e-002
2.618858e+003, 2.259874e-002
2.620786e+003, 2.299596e-002
2.622715e+003, 2.226936e-002
2.624643e+003, 2.272024e-002
2.626572e+003, 2.362117e-002
2.628500e+003, 2.344002e-002
2.630428e+003, 2.336883e-002
2.632357e+003, 2.364439e-002
2.634285e+003, 2.365338e-002
2.636214e+003, 2.366841e-002
2.638142e+003, 2.362880e-002
2.640071e+003, 2.373695e-002
2.641999e+003, 2.391940e-002
2.643928e+003, 2.431874e-002
2.645856e+003, 2.382167e-002
2.647785e+003, 2.349807e-002
2.649713e+003, 2.385192e-002
2.651642e+003, 2.436849e-002
2.653570e+003, 2.387511e-002
2.655499e+003, 2.328899e-002
2.657427e+003, 2.400733e-002
2.659355e+003, 2.427717e-002
2.661284e+003, 2.344336e-002
2.663212e+003, 2.389344e-002
2.665141e+003, 2.482558e-002
2.667069e+003, 2.476414e-002
2.668998e+003, 2.428402e-002
2.670926e+003, 2.416477e-002
2.672855e+003, 2.373205e-002
2.674783e+003, 2.379846e-002
2.676712e+003, 2.381814e-002
2.678640e+003, 2.427271e-002
2.680569e+003, 2.475168e-002
2.682497e+003, 2.467033e-002
2.684426e+003, 2.547095e-002
2.686354e+003, 2.630293e-002
2.688282e+003, 2.602142e-002
2.690211e+003, 2.560387e-002
2.692139e+003, 2.534734e-002
2.694068e+003, 2.570263e-002
2.695996e+003, 2.634447e-002
2.697925e+003, 2.619351e-002
2.699853e+003, 2.623094e-002
2.701782e+003, 2.681541e-002
2.703710e+003, 2.718190e-002
2.705639e+003, 2.719249e-002
2.707567e+003, 2.738451e-002
2.709496e+003, 2.778310e-002
2.711424e+003, 2.745963e-002
2.713353e+003, 2.735102e-002
2.715281e+003, 2.702292e-002
2.717209e+003, 2.730249e-002
2.719138e+003, 2.756021e-002
2.721066e+003, 2.790080e-002
2.722995e+003, 2.809451e-002
2.724923e+003, 2.824550e-002
2.726852e+003, 2.871367e-002
2.728780e+003, 2.858989e-002
2.730709e+003, 2.886591e-002
2.732637e+003, 2.884999e-002
2.734566e+003, 2.857577e-002
2.736494e+003, 2.902382e-002
2.738423e+003, 2.898166e-002
2.740351e+003, 2.899705e-002
2.742280e+003, 2.956762e-002
2.744208e+003, 3.013161e-002
2.746136e+003, 2.975763e-002
2.748065e+003, 3.004988e-002
2.749993e+003, 3.077114e-002
2.751922e+003, 3.105792e-002
2.753850e+003, 3.147341e-002
2.755779e+003, 3.161632e-002
2.757707e+003, 3.214205e-002
2.759636e+003, 3.215894e-002
2.761564e+003, 3.189358e-002
2.763493e+003, 3.162088e-002
2.765421e+003, 3.160328e-002
2.767350e+003, 3.141623e-002
2.769278e+003, 3.158982e-002
2.771207e+003, 3.255368e-002
2.773135e+003, 3.356060e-002
2.775063e+003, 3.375744e-002
2.776992e+003, 3.328284e-002
2.778920e+003, 3.383091e-002
2.780849e+003, 3.437715e-002
2.782777e+003, 3.443467e-002
2.784706e+003, 3.455196e-002
2.786634e+003, 3.517789e-002
2.788563e+003, 3.537213e-002
2.790491e+003, 3.505873e-002
2.792420e+003, 3.485587e-002
2.794348e+003, 3.531897e-002
2.796277e+003, 3.585235e-002
2.798205e+003, 3.621186e-002
2.800134e+003, 3.674324e-002
2.802062e+003, 3.729969e-002
2.803990e+003, 3.761420e-002
2.805919e+003, 3.709255e-002
2.807847e+003, 3.613579e-002
2.809776e+003, 3.695915e-002
2.811704e+003, 3.755823e-002
2.813633e+003, 3.750642e-002
2.815561e+003, 3.853467e-002
2.817490e+003, 3.933025e-002
2.819418e+003, 3.946444e-002
2.821347e+003, 3.840532e-002
2.823275e+003, 3.836343e-002
2.825204e+003, 3.951697e-002
2.827132e+003, 3.949658e-002
2.829061e+003, 3.898923e-002
2.830989e+003, 3.940724e-002
2.832917e+003, 4.039785e-002
2.834846e+003, 4.125268e-002
2.836774e+003, 4.147146e-002
2.838703e+003, 4.132495e-002
2.840631e+003, 4.181609e-002
2.842560e+003, 4.240576e-002
2.844488e+003, 4.265023e-002
2.846417e+003, 4.255771e-002
2.848345e+003, 4.293767e-002
2.850274e+003, 4.332332e-002
2.852202e+003, 4.347989e-002
2.854131e+003, 4.330083e-002
2.856059e+003, 4.355922e-002
2.857988e+003, 4.396619e-002
2.859916e+003, 4.452838e-002
2.861844e+003, 4.500694e-002
2.863773e+003, 4.502171e-002
2.865701e+003, 4.513645e-002
2.867630e+003, 4.535501e-002
2.869558e+003, 4.493500e-002
2.871487e+003, 4.554346e-002
2.873415e+003, 4.630529e-002
2.875344e+003, 4.749032e-002
2.877272e+003, 4.865473e-002
2.879201e+003, 4.849942e-002
2.881129e+003, 4.845572e-002
2.883058e+003, 4.822353e-002
2.884986e+003, 4.816842e-002
2.886915e+003, 4.930452e-002
2.888843e+003, 5.026076e-002
2.890771e+003, 5.045610e-002
2.892700e+003, 5.058731e-002
2.894628e+003, 5.208582e-002
2.896557e+003, 5.287267e-002
2.898485e+003, 5.177041e-002
2.900414e+003, 5.088465e-002
2.902342e+003, 5.149878e-002
2.904271e+003, 5.231515e-002
2.906199e+003, 5.382615e-002
2.908128e+003, 5.469228e-002
2.910056e+003, 5.530059e-002
2.911985e+003, 5.566235e-002
2.913913e+003, 5.470662e-002
2.915842e+003, 5.438400e-002
2.917770e+003, 5.502651e-002
2.919698e+003, 5.623879e-002
2.921627e+003, 5.550281e-002
2.923555e+003, 5.523051e-002
2.925484e+003, 5.671522e-002
2.927412e+003, 5.754895e-002
2.929341e+003, 5.759027e-002
2.931269e+003, 5.727482e-002
2.933198e+003, 5.689706e-002
2.935126e+003, 5.772817e-002
2.937055e+003, 5.830930e-002
2.938983e+003, 5.890924e-002
2.940912e+003, 5.948471e-002
2.942840e+003, 5.944983e-002
2.944769e+003, 5.930571e-002
2.946697e+003, 6.030979e-002
2.948625e+003, 6.062812e-002
2.950554e+003, 6.050719e-002
2.952482e+003, 6.052403e-002
2.954411e+003, 6.144784e-002
2.956339e+003, 6.301720e-002
2.958268e+003, 6.375749e-002
2.960196e+003, 6.382573e-002
2.962125e+003, 6.496963e-002
2.964053e+003, 6.532677e-002
2.965982e+003, 6.467657e-002
2.967910e+003, 6.378870e-002
2.969839e+003, 6.520198e-002
2.971767e+003, 6.735568e-002
2.973696e+003, 6.775203e-002
2.975624e+003, 6.831748e-002
2.977552e+003, 6.906535e-002
2.979481e+003, 6.906014e-002
2.981409e+003, 6.944367e-002
2.983338e+003, 7.087138e-002
2.985266e+003, 7.288130e-002
2.987195e+003, 7.325742e-002
2.989123e+003, 7.287093e-002
2.991052e+003, 7.436013e-002
2.992980e+003, 7.446349e-002
2.994909e+003, 7.359404e-002
2.996837e+003, 7.369552e-002
2.998766e+003, 7.472267e-002
3.000694e+003, 7.582609e-002
3.002623e+003, 7.663662e-002
3.004551e+003, 7.685016e-002
3.006479e+003, 7.650264e-002
3.008408e+003, 7.675733e-002
3.010336e+003, 7.818480e-002
3.012265e+003, 7.858939e-002
3.014193e+003, 7.837480e-002
3.016122e+003, 7.846519e-002
3.018050e+003, 7.831128e-002
3.019979e+003, 7.781269e-002
3.021907e+003, 7.661586e-002
3.023836e+003, 7.656872e-002
3.025764e+003, 7.690155e-002
3.027693e+003, 7.741060e-002
3.029621e+003, 7.787570e-002
3.031550e+003, 7.811263e-002
3.033478e+003, 7.743669e-002
3.035406e+003, 7.624897e-002
3.037335e+003, 7.637988e-002
3.039263e+003, 7.655875e-002
3.041192e+003, 7.648072e-002
3.043120e+003, 7.550264e-002
3.045049e+003, 7.561154e-002
3.046977e+003, 7.607450e-002
3.048906e+003, 7.678967e-002
3.050834e+003, 7.711647e-002
3.052763e+003, 7.577488e-002
3.054691e+003, 7.486890e-002
3.056620e+003, 7.506543e-002
3.058548e+003, 7.597452e-002
3.060477e+003, 7.524482e-002
3.062405e+003, 7.443275e-002
3.064333e+003, 7.482800e-002
3.066262e+003, 7.535332e-002
3.068190e+003, 7.550178e-002
3.070119e+003, 7.427073e-002
3.072047e+003, 7.270463e-002
3.073976e+003, 7.314068e-002
3.075904e+003, 7.409300e-002
3.077833e+003, 7.382238e-002
3.079761e+003, 7.346240e-002
3.081690e+003, 7.308378e-002
3.083618e+003, 7.315681e-002
3.085547e+003, 7.271897e-002
3.087475e+003, 7.211752e-002
3.089404e+003, 7.172639e-002
3.091332e+003, 7.270482e-002
3.093260e+003, 7.334711e-002
3.095189e+003, 7.260551e-002
3.097117e+003, 7.072308e-002
3.099046e+003, 6.975320e-002
3.100974e+003, 7.051805e-002
3.102903e+003, 7.043266e-002
3.104831e+003, 6.903256e-002
3.106760e+003, 6.886025e-002
3.108688e+003, 7.018352e-002
3.110617e+003, 7.128754e-002
3.112545e+003, 7.141311e-002
3.114474e+003, 7.171235e-002
3.116402e+003, 7.083956e-002
3.118331e+003, 6.808235e-002
3.120259e+003, 6.671055e-002
3.122188e+003, 6.790306e-002
3.124116e+003, 6.833294e-002
3.126044e+003, 6.825328e-002
3.127973e+003, 6.891161e-002
3.129901e+003, 6.936015e-002
3.131830e+003, 6.796020e-002
3.133758e+003, 6.687404e-002
3.135687e+003, 6.731161e-002
3.137615e+003, 6.814517e-002
3.139544e+003, 6.789927e-002
3.141472e+003, 6.667648e-002
3.143401e+003, 6.641117e-002
3.145329e+003, 6.716511e-002
3.147258e+003, 6.717923e-002
3.149186e+003, 6.610632e-002
3.151115e+003, 6.563281e-002
3.153043e+003, 6.526555e-002
3.154971e+003, 6.591007e-002
3.156900e+003, 6.600553e-002
3.158828e+003, 6.490442e-002
3.160757e+003, 6.429537e-002
3.162685e+003, 6.411424e-002
3.164614e+003, 6.326666e-002
3.166542e+003, 6.346576e-002
3.168471e+003, 6.328771e-002
3.170399e+003, 6.168010e-002
3.172328e+003, 6.055367e-002
3.174256e+003, 6.088039e-002
3.176185e+003, 5.978260e-002
3.178113e+003, 5.930022e-002
3.180042e+003, 5.982845e-002
3.181970e+003, 5.908403e-002
3.183898e+003, 5.904452e-002
3.185827e+003, 6.013221e-002
3.187755e+003, 5.952176e-002
3.189684e+003, 5.829478e-002
3.191612e+003, 5.709977e-002
3.193541e+003, 5.764651e-002
3.195469e+003, 5.708517e-002
3.197398e+003, 5.633967e-002
3.199326e+003, 5.662356e-002
3.201255e+003, 5.535445e-002
3.203183e+003, 5.484063e-002
3.205112e+003, 5.581534e-002
3.207040e+003, 5.581841e-002
3.208969e+003, 5.476910e-002
3.210897e+003, 5.488369e-002
3.212825e+003, 5.361404e-002
3.214754e+003, 5.302505e-002
3.216682e+003, 5.404875e-002
3.218611e+003, 5.437633e-002
3.220539e+003, 5.391015e-002
3.222468e+003, 5.195253e-002
3.224396e+003, 5.030477e-002
3.226325e+003, 5.084890e-002
3.228253e+003, 5.273318e-002
3.230182e+003, 5.163707e-002
3.232110e+003, 5.122155e-002
3.234039e+003, 5.131665e-002
3.235967e+003, 4.988065e-002
3.237896e+003, 4.954886e-002
3.239824e+003, 5.068414e-002
3.241752e+003, 5.071518e-002
3.243681e+003, 4.849730e-002
3.245609e+003, 4.824532e-002
3.247538e+003, 4.898090e-002
3.249466e+003, 4.913619e-002
3.251395e+003, 4.946792e-002
3.253323e+003, 4.943347e-002
3.255252e+003, 4.851392e-002
3.257180e+003, 4.733798e-002
3.259109e+003, 4.689400e-002
3.261037e+003, 4.722023e-002
3.262966e+003, 4.647942e-002
3.264894e+003, 4.500574e-002
3.266823e+003, 4.436163e-002
3.268751e+003, 4.438947e-002
3.270679e+003, 4.352125e-002
3.272608e+003, 4.269480e-002
3.274536e+003, 4.282844e-002
3.276465e+003, 4.128946e-002
3.278393e+003, 4.130727e-002
3.280322e+003, 4.144642e-002
3.282250e+003, 4.144450e-002
3.284179e+003, 4.135343e-002
3.286107e+003, 4.003926e-002
3.288036e+003, 4.047433e-002
3.289964e+003, 4.332318e-002
3.291893e+003, 4.424551e-002
3.293821e+003, 4.380006e-002
3.295750e+003, 4.349996e-002
3.297678e+003, 4.245548e-002
3.299606e+003, 4.003019e-002
3.301535e+003, 3.938032e-002
3.303463e+003, 4.116488e-002
3.305392e+003, 4.180065e-002
3.307320e+003, 4.078168e-002
3.309249e+003, 4.007365e-002
3.311177e+003, 4.211503e-002
3.313106e+003, 4.229370e-002
3.315034e+003, 4.032080e-002
3.316963e+003, 3.852595e-002
3.318891e+003, 3.948399e-002
3.320820e+003, 4.105010e-002
3.322748e+003, 4.070931e-002
3.324677e+003, 3.939590e-002
3.326605e+003, 4.029483e-002
3.328533e+003, 4.026900e-002
3.330462e+003, 3.897449e-002
3.332390e+003, 3.988321e-002
3.334319e+003, 4.035043e-002
3.336247e+003, 3.967482e-002
3.338176e+003, 3.905373e-002
3.340104e+003, 3.900119e-002
3.342033e+003, 3.966622e-002
3.343961e+003, 3.909500e-002
3.345890e+003, 3.782428e-002
3.347818e+003, 3.757168e-002
3.349747e+003, 3.819316e-002
3.351675e+003, 3.929723e-002
3.353604e+003, 3.952032e-002
3.355532e+003, 3.890588e-002
3.357460e+003, 3.958765e-002
3.359389e+003, 3.919450e-002
3.361317e+003, 3.852646e-002
3.363246e+003, 3.877373e-002
3.365174e+003, 3.968165e-002
3.367103e+003, 4.038049e-002
3.369031e+003, 3.983933e-002
3.370960e+003, 3.940127e-002
3.372888e+003, 3.940053e-002
3.374817e+003, 3.884419e-002
3.376745e+003, 3.816944e-002
3.378674e+003, 3.804817e-002
3.380602e+003, 3.900418e-002
3.382531e+003, 3.829850e-002
3.384459e+003, 3.688236e-002
3.386387e+003, 3.842209e-002
3.388316e+003, 3.932456e-002
3.390244e+003, 3.875649e-002
3.392173e+003, 3.813896e-002
3.394101e+003, 3.756836e-002
3.396030e+003, 3.722279e-002
3.397958e+003, 3.655186e-002
3.399887e+003, 3.734351e-002
3.401815e+003, 3.888223e-002
3.403744e+003, 3.825654e-002
3.405672e+003, 3.773198e-002
3.407601e+003, 3.859058e-002
3.409529e+003, 3.709790e-002
3.411458e+003, 3.609448e-002
3.413386e+003, 3.727368e-002
3.415314e+003, 3.750100e-002
3.417243e+003, 3.703818e-002
3.419171e+003, 3.746818e-002
3.421100e+003, 3.712583e-002
3.423028e+003, 3.625107e-002
3.424957e+003, 3.697898e-002
3.426885e+003, 3.684426e-002
3.428814e+003, 3.760017e-002
3.430742e+003, 3.788509e-002
3.432671e+003, 3.899267e-002
3.434599e+003, 3.888610e-002
3.436528e+003, 3.798043e-002
3.438456e+003, 3.684828e-002
3.440385e+003, 3.433704e-002
3.442313e+003, 3.434499e-002
3.444241e+003, 3.537176e-002
3.446170e+003, 3.553768e-002
3.448098e+003, 3.489791e-002
3.450027e+003, 3.455226e-002
3.451955e+003, 3.521569e-002
3.453884e+003, 3.617952e-002
3.455812e+003, 3.696046e-002
3.457741e+003, 3.780676e-002
3.459669e+003, 3.977457e-002
3.461598e+003, 3.909674e-002
3.463526e+003, 3.618358e-002
3.465455e+003, 3.488126e-002
3.467383e+003, 3.685116e-002
3.469312e+003, 3.776876e-002
3.471240e+003, 3.542404e-002
3.473168e+003, 3.346671e-002
3.475097e+003, 3.457848e-002
3.477025e+003, 3.704689e-002
3.478954e+003, 3.729747e-002
3.480882e+003, 3.723005e-002
3.482811e+003, 3.826151e-002
3.484739e+003, 3.820829e-002
3.486668e+003, 3.934632e-002
3.488596e+003, 3.929215e-002
3.490525e+003, 3.836713e-002
3.492453e+003, 3.904033e-002
3.494382e+003, 4.124434e-002
3.496310e+003, 4.347222e-002
3.498239e+003, 4.281987e-002
3.500167e+003, 4.204547e-002
3.502095e+003, 4.089236e-002
3.504024e+003, 3.873366e-002
3.505952e+003, 4.047767e-002
3.507881e+003, 4.274839e-002
3.509809e+003, 4.490318e-002
3.511738e+003, 4.449586e-002
3.513666e+003, 4.426711e-002
3.515595e+003, 4.646797e-002
3.517523e+003, 4.866868e-002
3.519452e+003, 5.053005e-002
3.521380e+003, 5.255586e-002
3.523309e+003, 5.475347e-002
3.525237e+003, 5.753523e-002
3.527166e+003, 6.208578e-002
3.529094e+003, 6.705528e-002
3.531022e+003, 7.036834e-002
3.532951e+003, 7.347257e-002
3.534879e+003, 7.790905e-002
3.536808e+003, 8.602243e-002
3.538736e+003, 9.351582e-002
3.540665e+003, 1.020098e-001
3.542593e+003, 1.133384e-001
3.544522e+003, 1.256895e-001
3.546450e+003, 1.374879e-001
3.548379e+003, 1.501994e-001
3.550307e+003, 1.629943e-001
3.552236e+003, 1.741182e-001
3.554164e+003, 1.761224e-001
3.556093e+003, 1.682432e-001
3.558021e+003, 1.550944e-001
3.559949e+003, 1.360633e-001
3.561878e+003, 1.112089e-001
3.563806e+003, 8.735645e-002
3.565735e+003, 6.528744e-002
3.567663e+003, 4.909822e-002
3.569592e+003, 3.943338e-002
3.571520e+003, 3.465626e-002
3.573449e+003, 3.094049e-002
3.575377e+003, 2.691360e-002
3.577306e+003, 2.350545e-002
3.579234e+003, 2.253248e-002
3.581163e+003, 2.205682e-002
3.583091e+003, 2.216159e-002
3.585020e+003, 2.209727e-002
3.586948e+003, 2.048531e-002
3.588876e+003, 2.054619e-002
3.590805e+003, 2.084480e-002
3.592733e+003, 2.193673e-002
3.594662e+003, 2.177810e-002
3.596590e+003, 2.240947e-002
3.598519e+003, 2.394638e-002
3.600447e+003, 2.487317e-002
3.602376e+003, 2.383466e-002
3.604304e+003, 2.081944e-002
3.606233e+003, 1.969758e-002
3.608161e+003, 2.077625e-002
3.610090e+003, 2.125841e-002
3.612018e+003, 1.798788e-002
3.613947e+003, 1.897682e-002
3.615875e+003, 2.046988e-002
3.617803e+003, 1.941082e-002
3.619732e+003, 1.981193e-002
3.621660e+003, 2.304894e-002
3.623589e+003, 2.376044e-002
3.625517e+003, 2.022325e-002
3.627446e+003, 1.615226e-002
3.629374e+003, 1.905220e-002
3.631303e+003, 2.133442e-002
3.633231e+003, 2.061479e-002
3.635160e+003, 2.152087e-002
3.637088e+003, 2.326212e-002
3.639017e+003, 2.345810e-002
3.640945e+003, 2.354916e-002
3.642874e+003, 2.215743e-002
3.644802e+003, 2.113769e-002
3.646730e+003, 1.651731e-002
3.648659e+003, 1.295428e-002
3.650587e+003, 1.682485e-002
3.652516e+003, 1.951325e-002
3.654444e+003, 1.734056e-002
3.656373e+003, 1.714536e-002
3.658301e+003, 2.137673e-002
3.660230e+003, 2.283465e-002
3.662158e+003, 1.909670e-002
3.664087e+003, 1.978573e-002
3.666015e+003, 1.957550e-002
3.667944e+003, 1.596395e-002
3.669872e+003, 1.538471e-002
3.671801e+003, 2.105243e-002
3.673729e+003, 1.742256e-002
3.675657e+003, 1.701073e-002
3.677586e+003, 2.022067e-002
3.679514e+003, 2.038993e-002
3.681443e+003, 1.815697e-002
3.683371e+003, 2.062268e-002
3.685300e+003, 1.935573e-002
3.687228e+003, 1.444342e-002
3.689157e+003, 1.918498e-002
3.691085e+003, 1.855988e-002
3.693014e+003, 2.021821e-002
3.694942e+003, 2.132375e-002
3.696871e+003, 2.012284e-002
3.698799e+003, 2.010674e-002
3.700728e+003, 1.959232e-002
3.702656e+003, 1.981988e-002
3.704584e+003, 1.880339e-002
3.706513e+003, 1.895211e-002
3.708441e+003, 1.731491e-002
3.710370e+003, 1.791700e-002
3.712298e+003, 1.991324e-002
3.714227e+003, 2.114641e-002
3.716155e+003, 2.039338e-002
3.718084e+003, 1.781698e-002
3.720012e+003, 1.707694e-002
3.721941e+003, 1.688328e-002
3.723869e+003, 1.684365e-002
3.725798e+003, 1.695197e-002
3.727726e+003, 1.675723e-002
3.729655e+003, 1.801492e-002
3.731583e+003, 1.922670e-002
3.733511e+003, 1.906304e-002
3.735440e+003, 1.653429e-002
3.737368e+003, 1.949226e-002
3.739297e+003, 2.075898e-002
3.741225e+003, 1.945988e-002
3.743154e+003, 1.554783e-002
3.745082e+003, 2.012680e-002
3.747011e+003, 1.846210e-002
3.748939e+003, 1.652834e-002
3.750868e+003, 1.637621e-002
3.752796e+003, 2.007519e-002
3.754725e+003, 1.954171e-002
3.756653e+003, 1.648719e-002
3.758582e+003, 1.951992e-002
3.760510e+003, 2.281943e-002
3.762438e+003, 2.221194e-002
3.764367e+003, 2.151324e-002
3.766295e+003, 2.129580e-002
3.768224e+003, 1.923325e-002
3.770152e+003, 2.222624e-002
3.772081e+003, 2.292309e-002
3.774009e+003, 2.352075e-002
3.775938e+003, 2.268156e-002
3.777866e+003, 2.259241e-002
3.779795e+003, 2.438911e-002
3.781723e+003, 2.477188e-002
3.783652e+003, 2.199228e-002
3.785580e+003, 2.153433e-002
3.787509e+003, 2.425863e-002
3.789437e+003, 2.380436e-002
3.791365e+003, 2.433389e-002
3.793294e+003, 2.512790e-002
3.795222e+003, 2.047488e-002
3.797151e+003, 2.131191e-002
3.799079e+003, 2.130412e-002
3.801008e+003, 1.860529e-002
3.802936e+003, 2.373217e-002
3.804865e+003, 2.320858e-002
3.806793e+003, 1.967793e-002
3.808722e+003, 2.295109e-002
3.810650e+003, 2.648026e-002
3.812579e+003, 2.425164e-002
3.814507e+003, 1.735988e-002
3.816436e+003, 1.907443e-002
3.818364e+003, 2.191320e-002
3.820292e+003, 2.022453e-002
3.822221e+003, 2.179592e-002
3.824149e+003, 2.217622e-002
3.826078e+003, 2.512031e-002
3.828006e+003, 2.570818e-002
3.829935e+003, 2.140287e-002
3.831863e+003, 2.010078e-002
3.833792e+003, 1.970323e-002
3.835720e+003, 1.894551e-002
3.837649e+003, 1.818350e-002
3.839577e+003, 2.072736e-002
3.841506e+003, 2.018616e-002
3.843434e+003, 2.052473e-002
3.845363e+003, 2.376721e-002
3.847291e+003, 2.438181e-002
3.849219e+003, 2.190588e-002
3.851148e+003, 1.850124e-002
3.853076e+003, 1.746873e-002
3.855005e+003, 2.387766e-002
3.856933e+003, 2.268281e-002
3.858862e+003, 2.353830e-002
3.860790e+003, 2.214860e-002
3.862719e+003, 1.980790e-002
3.864647e+003, 2.119949e-002
3.866576e+003, 2.380174e-002
3.868504e+003, 2.043332e-002
3.870433e+003, 2.019469e-002
3.872361e+003, 2.062585e-002
3.874290e+003, 2.227109e-002
3.876218e+003, 2.673848e-002
3.878146e+003, 2.990354e-002
3.880075e+003, 2.745957e-002
3.882003e+003, 2.470003e-002
3.883932e+003, 2.361846e-002
3.885860e+003, 2.596426e-002
3.887789e+003, 2.661517e-002
3.889717e+003, 2.498423e-002
3.891646e+003, 2.656375e-002
3.893574e+003, 2.603109e-002
3.895503e+003, 2.418070e-002
3.897431e+003, 2.137910e-002
3.899360e+003, 2.322033e-002
3.901288e+003, 2.329425e-002
3.903217e+003, 2.019190e-002
3.905145e+003, 2.236637e-002
3.907073e+003, 2.323553e-002
3.909002e+003, 2.283926e-002
3.910930e+003, 2.353817e-002
3.912859e+003, 2.416256e-002
3.914787e+003, 2.486642e-002
3.916716e+003, 2.450670e-002
3.918644e+003, 2.549270e-002
3.920573e+003, 2.741916e-002
3.922501e+003, 2.532342e-002
3.924430e+003, 2.352954e-002
3.926358e+003, 2.280405e-002
3.928287e+003, 2.334427e-002
3.930215e+003, 2.508745e-002
3.932144e+003, 2.792409e-002
3.934072e+003, 2.811653e-002
3.936000e+003, 2.638117e-002
3.937929e+003, 2.900600e-002
3.939857e+003, 2.899480e-002
3.941786e+003, 2.737038e-002
3.943714e+003, 2.440864e-002
3.945643e+003, 2.352434e-002
3.947571e+003, 2.562582e-002
3.949500e+003, 2.657750e-002
3.951428e+003, 2.731333e-002
3.953357e+003, 2.819325e-002
3.955285e+003, 2.555146e-002
3.957214e+003, 2.640109e-002
3.959142e+003, 2.616240e-002
3.961071e+003, 2.839565e-002
3.962999e+003, 3.155693e-002
3.964927e+003, 2.813975e-002
3.966856e+003, 2.300709e-002
3.968784e+003, 2.553438e-002
3.970713e+003, 2.735092e-002
3.972641e+003, 2.750196e-002
3.974570e+003, 2.772461e-002
3.976498e+003, 2.762995e-002
3.978427e+003, 2.799602e-002
3.980355e+003, 2.715508e-002
3.982284e+003, 2.774769e-002
3.984212e+003, 3.002132e-002
3.986141e+003, 2.912922e-002
3.988069e+003, 2.518176e-002
3.989998e+003, 2.588063e-002
3.991926e+003, 2.833033e-002
3.993854e+003, 2.745102e-002
3.995783e+003, 2.693395e-002
3.997711e+003, 2.772053e-002
3.999640e+003, 2.772728e-002
4.001568e+003, 0.000000e+000
##END=



