##NAMES=Fluorophlogopite
##RRUFFID=R040039
##IDEAL CHEMISTRY=KMg_3_(Si_3_Al)O_10_F_2_
##LOCALITY=Franklin, Sussex County, New Jersey, USA
##OWNER=RRUFF
##SOURCE=University of Arizona Mineral Museum
##DESCRIPTION=Brown hexagonal sheets
##STATUS=The identification of this mineral has been confirmed by X-ray diffraction and chemical analysis
##URL=rruff.info/R040039
##MEASURED CHEMISTRY=(K_0.92_Na_0.06_[box]_0.02_)_Σ=1_(Mg_2.94_Fe_0.04_Ti_0.02_)_Σ=3_(Si_2.98_Al_1.02_)O_10_(F_1.24_(OH)_0.76_)_Σ=2_; OH estimated by charge balance
3.991926e+002, 0.000000e+000
4.011211e+002, 1.401093e-001
4.030496e+002, 1.408259e-001
4.049780e+002, 1.389100e-001
4.069065e+002, 1.403026e-001
4.088350e+002, 1.419969e-001
4.107634e+002, 1.426461e-001
4.126919e+002, 1.414214e-001
4.146204e+002, 1.420472e-001
4.165488e+002, 1.457355e-001
4.184773e+002, 1.511151e-001
4.204058e+002, 1.538587e-001
4.223342e+002, 1.522790e-001
4.242627e+002, 1.522774e-001
4.261912e+002, 1.554605e-001
4.281196e+002, 1.603265e-001
4.300481e+002, 1.639872e-001
4.319766e+002, 1.664880e-001
4.339050e+002, 1.678051e-001
4.358335e+002, 1.686729e-001
4.377620e+002, 1.692964e-001
4.396904e+002, 1.706965e-001
4.416189e+002, 1.741015e-001
4.435474e+002, 1.779187e-001
4.454758e+002, 1.790902e-001
4.474043e+002, 1.791234e-001
4.493328e+002, 1.802629e-001
4.512612e+002, 1.815437e-001
4.531897e+002, 1.802275e-001
4.551182e+002, 1.810970e-001
4.570466e+002, 1.818289e-001
4.589751e+002, 1.795290e-001
4.609036e+002, 1.767169e-001
4.628320e+002, 1.751027e-001
4.647605e+002, 1.724593e-001
4.666890e+002, 1.686139e-001
4.686174e+002, 1.638318e-001
4.705459e+002, 1.584105e-001
4.724744e+002, 1.526545e-001
4.744028e+002, 1.458737e-001
4.763313e+002, 1.390860e-001
4.782598e+002, 1.327953e-001
4.801882e+002, 1.271176e-001
4.821167e+002, 1.232148e-001
4.840452e+002, 1.211580e-001
4.859736e+002, 1.192889e-001
4.879021e+002, 1.167139e-001
4.898306e+002, 1.148678e-001
4.917590e+002, 1.137534e-001
4.936875e+002, 1.128009e-001
4.956160e+002, 1.115224e-001
4.975444e+002, 1.095492e-001
4.994729e+002, 1.076591e-001
5.014014e+002, 1.049576e-001
5.033298e+002, 1.017829e-001
5.052583e+002, 1.000610e-001
5.071868e+002, 9.836659e-002
5.091152e+002, 9.583421e-002
5.110437e+002, 9.389857e-002
5.129722e+002, 9.205201e-002
5.149006e+002, 8.896986e-002
5.168291e+002, 8.612107e-002
5.187576e+002, 8.377749e-002
5.206860e+002, 8.156396e-002
5.226145e+002, 7.895979e-002
5.245430e+002, 7.647490e-002
5.264714e+002, 7.423878e-002
5.283999e+002, 7.200621e-002
5.303284e+002, 6.967018e-002
5.322568e+002, 6.772140e-002
5.341853e+002, 6.543845e-002
5.361138e+002, 6.294992e-002
5.380422e+002, 6.112305e-002
5.399707e+002, 5.909786e-002
5.418992e+002, 5.671243e-002
5.438276e+002, 5.470956e-002
5.457561e+002, 5.252377e-002
5.476846e+002, 5.087779e-002
5.496130e+002, 4.938640e-002
5.515415e+002, 4.715251e-002
5.534700e+002, 4.490368e-002
5.553984e+002, 4.291726e-002
5.573269e+002, 4.020480e-002
5.592554e+002, 3.715540e-002
5.611838e+002, 3.453974e-002
5.631123e+002, 3.256781e-002
5.650408e+002, 3.043343e-002
5.669692e+002, 2.851857e-002
5.688977e+002, 2.719612e-002
5.708262e+002, 2.633965e-002
5.727546e+002, 2.514946e-002
5.746831e+002, 2.446617e-002
5.766116e+002, 2.441610e-002
5.785400e+002, 2.398894e-002
5.804685e+002, 2.391814e-002
5.823970e+002, 2.380485e-002
5.843254e+002, 2.328926e-002
5.862539e+002, 2.365743e-002
5.881824e+002, 2.419666e-002
5.901108e+002, 2.426819e-002
5.920393e+002, 2.448170e-002
5.939678e+002, 2.499542e-002
5.958962e+002, 2.498855e-002
5.978247e+002, 2.490458e-002
5.997532e+002, 2.529496e-002
6.016816e+002, 2.594546e-002
6.036101e+002, 2.640031e-002
6.055386e+002, 2.665638e-002
6.074670e+002, 2.655994e-002
6.093955e+002, 2.700591e-002
6.113240e+002, 2.743697e-002
6.132524e+002, 2.766985e-002
6.151809e+002, 2.818063e-002
6.171094e+002, 2.893178e-002
6.190378e+002, 2.977535e-002
6.209663e+002, 3.041615e-002
6.228948e+002, 3.094952e-002
6.248232e+002, 3.167018e-002
6.267517e+002, 3.249107e-002
6.286802e+002, 3.356179e-002
6.306086e+002, 3.437001e-002
6.325371e+002, 3.516344e-002
6.344656e+002, 3.632978e-002
6.363940e+002, 3.750106e-002
6.383225e+002, 3.869239e-002
6.402510e+002, 3.990921e-002
6.421794e+002, 4.108131e-002
6.441079e+002, 4.241271e-002
6.460364e+002, 4.361919e-002
6.479648e+002, 4.469979e-002
6.498933e+002, 4.564754e-002
6.518218e+002, 4.695000e-002
6.537502e+002, 4.822268e-002
6.556787e+002, 4.929458e-002
6.576072e+002, 5.021160e-002
6.595356e+002, 5.101636e-002
6.614641e+002, 5.170948e-002
6.633926e+002, 5.227944e-002
6.653210e+002, 5.273518e-002
6.672495e+002, 5.347710e-002
6.691780e+002, 5.443609e-002
6.711064e+002, 5.559582e-002
6.730349e+002, 5.696092e-002
6.749634e+002, 5.864136e-002
6.768918e+002, 6.057416e-002
6.788203e+002, 6.244226e-002
6.807488e+002, 6.418616e-002
6.826772e+002, 6.578547e-002
6.846057e+002, 6.677239e-002
6.865342e+002, 6.701453e-002
6.884626e+002, 6.645856e-002
6.903911e+002, 6.491963e-002
6.923196e+002, 6.218148e-002
6.942480e+002, 5.839998e-002
6.961765e+002, 5.436674e-002
6.981050e+002, 5.058217e-002
7.000334e+002, 4.766694e-002
7.019619e+002, 4.545090e-002
7.038904e+002, 4.417897e-002
7.058188e+002, 4.368615e-002
7.077473e+002, 4.366884e-002
7.096758e+002, 4.398222e-002
7.116042e+002, 4.471738e-002
7.135327e+002, 4.575751e-002
7.154612e+002, 4.653377e-002
7.173896e+002, 4.710202e-002
7.193181e+002, 4.790387e-002
7.212466e+002, 4.896852e-002
7.231750e+002, 4.983100e-002
7.251035e+002, 5.059654e-002
7.270320e+002, 5.144999e-002
7.289604e+002, 5.213913e-002
7.308889e+002, 5.227964e-002
7.328174e+002, 5.194921e-002
7.347458e+002, 5.105845e-002
7.366743e+002, 5.001228e-002
7.386028e+002, 4.887743e-002
7.405313e+002, 4.799507e-002
7.424597e+002, 4.714773e-002
7.443882e+002, 4.632999e-002
7.463167e+002, 4.590867e-002
7.482451e+002, 4.589000e-002
7.501736e+002, 4.614753e-002
7.521021e+002, 4.658278e-002
7.540305e+002, 4.705080e-002
7.559590e+002, 4.783649e-002
7.578875e+002, 4.859057e-002
7.598159e+002, 4.925978e-002
7.617444e+002, 5.025410e-002
7.636729e+002, 5.125645e-002
7.656013e+002, 5.230114e-002
7.675298e+002, 5.353415e-002
7.694583e+002, 5.467904e-002
7.713867e+002, 5.568483e-002
7.733152e+002, 5.667311e-002
7.752437e+002, 5.769039e-002
7.771721e+002, 5.883795e-002
7.791006e+002, 5.971671e-002
7.810291e+002, 6.066914e-002
7.829575e+002, 6.221531e-002
7.848860e+002, 6.401862e-002
7.868145e+002, 6.599977e-002
7.887429e+002, 6.820607e-002
7.906714e+002, 7.068773e-002
7.925999e+002, 7.337338e-002
7.945283e+002, 7.595977e-002
7.964568e+002, 7.852267e-002
7.983853e+002, 8.105171e-002
8.003137e+002, 8.329959e-002
8.022422e+002, 8.493035e-002
8.041707e+002, 8.586098e-002
8.060991e+002, 8.557980e-002
8.080276e+002, 8.424184e-002
8.099561e+002, 8.188111e-002
8.118845e+002, 7.823381e-002
8.138130e+002, 7.323030e-002
8.157415e+002, 6.750111e-002
8.176699e+002, 6.166555e-002
8.195984e+002, 5.615143e-002
8.215269e+002, 5.181533e-002
8.234553e+002, 4.869398e-002
8.253838e+002, 4.647252e-002
8.273123e+002, 4.511399e-002
8.292407e+002, 4.440823e-002
8.311692e+002, 4.386098e-002
8.330977e+002, 4.336759e-002
8.350261e+002, 4.302987e-002
8.369546e+002, 4.297229e-002
8.388831e+002, 4.331645e-002
8.408115e+002, 4.425372e-002
8.427400e+002, 4.553294e-002
8.446685e+002, 4.726542e-002
8.465969e+002, 4.907594e-002
8.485254e+002, 5.073290e-002
8.504539e+002, 5.247395e-002
8.523823e+002, 5.452629e-002
8.543108e+002, 5.654573e-002
8.562393e+002, 5.898570e-002
8.581677e+002, 6.204938e-002
8.600962e+002, 6.524050e-002
8.620247e+002, 6.851280e-002
8.639531e+002, 7.209045e-002
8.658816e+002, 7.605718e-002
8.678101e+002, 8.068974e-002
8.697385e+002, 8.580191e-002
8.716670e+002, 9.135453e-002
8.735955e+002, 9.704815e-002
8.755239e+002, 1.028546e-001
8.774524e+002, 1.082980e-001
8.793809e+002, 1.133505e-001
8.813093e+002, 1.186013e-001
8.832378e+002, 1.245196e-001
8.851663e+002, 1.307909e-001
8.870947e+002, 1.366506e-001
8.890232e+002, 1.418683e-001
8.909517e+002, 1.464330e-001
8.928801e+002, 1.502615e-001
8.948085e+002, 1.533341e-001
8.967370e+002, 1.564950e-001
8.986655e+002, 1.597587e-001
9.005939e+002, 1.629965e-001
9.025224e+002, 1.659102e-001
9.044509e+002, 1.687570e-001
9.063793e+002, 1.719303e-001
9.083078e+002, 1.752288e-001
9.102363e+002, 1.787663e-001
9.121647e+002, 1.824216e-001
9.140932e+002, 1.860372e-001
9.160217e+002, 1.898262e-001
9.179501e+002, 1.937217e-001
9.198786e+002, 1.974468e-001
9.218071e+002, 2.012052e-001
9.237355e+002, 2.053025e-001
9.256640e+002, 2.098472e-001
9.275925e+002, 2.143360e-001
9.295209e+002, 2.187726e-001
9.314494e+002, 2.233980e-001
9.333779e+002, 2.278554e-001
9.353063e+002, 2.324966e-001
9.372348e+002, 2.368607e-001
9.391633e+002, 2.411612e-001
9.410917e+002, 2.454577e-001
9.430202e+002, 2.493007e-001
9.449487e+002, 2.530921e-001
9.468771e+002, 2.569415e-001
9.488056e+002, 2.605259e-001
9.507341e+002, 2.640570e-001
9.526625e+002, 2.677420e-001
9.545910e+002, 2.711568e-001
9.565195e+002, 2.741978e-001
9.584479e+002, 2.770708e-001
9.603764e+002, 2.794547e-001
9.623049e+002, 2.812910e-001
9.642333e+002, 2.825739e-001
9.661618e+002, 2.832761e-001
9.680903e+002, 2.835752e-001
9.700187e+002, 2.834435e-001
9.719472e+002, 2.826017e-001
9.738757e+002, 2.814217e-001
9.758041e+002, 2.797040e-001
9.777326e+002, 2.773232e-001
9.796611e+002, 2.747250e-001
9.815895e+002, 2.719646e-001
9.835180e+002, 2.688713e-001
9.854465e+002, 2.660681e-001
9.873749e+002, 2.636900e-001
9.893034e+002, 2.617660e-001
9.912319e+002, 2.602754e-001
9.931603e+002, 2.595134e-001
9.950888e+002, 2.590178e-001
9.970173e+002, 2.585000e-001
9.989457e+002, 2.583461e-001
1.000874e+003, 2.579799e-001
1.002803e+003, 2.571229e-001
1.004731e+003, 2.556535e-001
1.006660e+003, 2.528019e-001
1.008588e+003, 2.489895e-001
1.010517e+003, 2.450499e-001
1.012445e+003, 2.405721e-001
1.014373e+003, 2.335541e-001
1.016302e+003, 2.233280e-001
1.018230e+003, 2.110909e-001
1.020159e+003, 1.979722e-001
1.022087e+003, 1.846431e-001
1.024016e+003, 1.713702e-001
1.025944e+003, 1.588446e-001
1.027873e+003, 1.476170e-001
1.029801e+003, 1.381873e-001
1.031730e+003, 1.302306e-001
1.033658e+003, 1.230310e-001
1.035587e+003, 1.163158e-001
1.037515e+003, 1.101967e-001
1.039444e+003, 1.047568e-001
1.041372e+003, 1.000481e-001
1.043301e+003, 9.633336e-002
1.045229e+003, 9.330003e-002
1.047157e+003, 9.098227e-002
1.049086e+003, 8.912700e-002
1.051014e+003, 8.733149e-002
1.052943e+003, 8.579984e-002
1.054871e+003, 8.454034e-002
1.056800e+003, 8.326013e-002
1.058728e+003, 8.168054e-002
1.060657e+003, 8.016956e-002
1.062585e+003, 7.914200e-002
1.064514e+003, 7.834326e-002
1.066442e+003, 7.740130e-002
1.068371e+003, 7.662269e-002
1.070299e+003, 7.593785e-002
1.072228e+003, 7.543888e-002
1.074156e+003, 7.517727e-002
1.076084e+003, 7.501692e-002
1.078013e+003, 7.477510e-002
1.079941e+003, 7.376745e-002
1.081870e+003, 7.185940e-002
1.083798e+003, 6.917295e-002
1.085727e+003, 6.601062e-002
1.087655e+003, 6.308176e-002
1.089584e+003, 6.051652e-002
1.091512e+003, 5.811443e-002
1.093441e+003, 5.591111e-002
1.095369e+003, 5.357973e-002
1.097298e+003, 5.121872e-002
1.099226e+003, 4.888905e-002
1.101155e+003, 4.619345e-002
1.103083e+003, 4.345204e-002
1.105011e+003, 4.059774e-002
1.106940e+003, 3.795184e-002
1.108868e+003, 3.567936e-002
1.110797e+003, 3.337721e-002
1.112725e+003, 3.116948e-002
1.114654e+003, 2.927885e-002
1.116582e+003, 2.747647e-002
1.118511e+003, 2.605519e-002
1.120439e+003, 2.489243e-002
1.122368e+003, 2.396652e-002
1.124296e+003, 2.334689e-002
1.126225e+003, 2.283062e-002
1.128153e+003, 2.214723e-002
1.130082e+003, 2.163321e-002
1.132010e+003, 2.123916e-002
1.133938e+003, 2.085629e-002
1.135867e+003, 2.070348e-002
1.137795e+003, 2.068881e-002
1.139724e+003, 2.054756e-002
1.141652e+003, 2.050500e-002
1.143581e+003, 2.068687e-002
1.145509e+003, 2.070291e-002
1.147438e+003, 2.099778e-002
1.149366e+003, 2.152672e-002
1.151295e+003, 2.187996e-002
1.153223e+003, 2.210381e-002
1.155152e+003, 2.232861e-002
1.157080e+003, 2.241550e-002
1.159009e+003, 2.235813e-002
1.160937e+003, 2.181903e-002
1.162865e+003, 2.088643e-002
1.164794e+003, 1.979537e-002
1.166722e+003, 1.850725e-002
1.168651e+003, 1.708511e-002
1.170579e+003, 1.596434e-002
1.172508e+003, 1.561982e-002
1.174436e+003, 1.630426e-002
1.176365e+003, 1.730669e-002
1.178293e+003, 1.794521e-002
1.180222e+003, 1.832506e-002
1.182150e+003, 1.893940e-002
1.184079e+003, 1.943358e-002
1.186007e+003, 1.970524e-002
1.187936e+003, 1.967491e-002
1.189864e+003, 1.924689e-002
1.191792e+003, 1.861409e-002
1.193721e+003, 1.778783e-002
1.195649e+003, 1.682111e-002
1.197578e+003, 1.587930e-002
1.199506e+003, 1.495229e-002
1.201435e+003, 1.410383e-002
1.203363e+003, 1.330945e-002
1.205292e+003, 1.283196e-002
1.207220e+003, 1.285498e-002
1.209149e+003, 1.340517e-002
1.211077e+003, 1.427106e-002
1.213006e+003, 1.503425e-002
1.214934e+003, 1.557848e-002
1.216863e+003, 1.594188e-002
1.218791e+003, 1.593700e-002
1.220719e+003, 1.585371e-002
1.222648e+003, 1.565765e-002
1.224576e+003, 1.533547e-002
1.226505e+003, 1.501314e-002
1.228433e+003, 1.475275e-002
1.230362e+003, 1.436878e-002
1.232290e+003, 1.374876e-002
1.234219e+003, 1.334603e-002
1.236147e+003, 1.314923e-002
1.238076e+003, 1.294193e-002
1.240004e+003, 1.269460e-002
1.241933e+003, 1.258555e-002
1.243861e+003, 1.227747e-002
1.245790e+003, 1.183489e-002
1.247718e+003, 1.136667e-002
1.249646e+003, 1.096195e-002
1.251575e+003, 1.054103e-002
1.253503e+003, 9.781956e-003
1.255432e+003, 9.047724e-003
1.257360e+003, 8.743733e-003
1.259289e+003, 8.171952e-003
1.261217e+003, 7.610271e-003
1.263146e+003, 7.182444e-003
1.265074e+003, 6.749874e-003
1.267003e+003, 6.373554e-003
1.268931e+003, 6.115804e-003
1.270860e+003, 6.080453e-003
1.272788e+003, 6.184518e-003
1.274717e+003, 6.282103e-003
1.276645e+003, 6.145944e-003
1.278573e+003, 6.141606e-003
1.280502e+003, 6.469102e-003
1.282430e+003, 6.474860e-003
1.284359e+003, 6.504471e-003
1.286287e+003, 6.735540e-003
1.288216e+003, 6.843042e-003
1.290144e+003, 7.016790e-003
1.292073e+003, 7.226068e-003
1.294001e+003, 6.933020e-003
1.295930e+003, 6.675932e-003
1.297858e+003, 6.617172e-003
1.299787e+003, 6.388450e-003
1.301715e+003, 6.402120e-003
1.303644e+003, 6.391024e-003
1.305572e+003, 6.479241e-003
1.307500e+003, 6.564185e-003
1.309429e+003, 6.325073e-003
1.311357e+003, 6.311347e-003
1.313286e+003, 6.360341e-003
1.315214e+003, 6.285221e-003
1.317143e+003, 6.234676e-003
1.319071e+003, 6.208444e-003
1.321000e+003, 6.083987e-003
1.322928e+003, 6.037446e-003
1.324857e+003, 5.853260e-003
1.326785e+003, 5.800456e-003
1.328714e+003, 6.141494e-003
1.330642e+003, 6.439779e-003
1.332571e+003, 6.450086e-003
1.334499e+003, 6.414288e-003
1.336427e+003, 6.441103e-003
1.338356e+003, 6.683119e-003
1.340284e+003, 6.882742e-003
1.342213e+003, 7.056980e-003
1.344141e+003, 7.197545e-003
1.346070e+003, 7.391507e-003
1.347998e+003, 7.612169e-003
1.349927e+003, 7.895041e-003
1.351855e+003, 8.076716e-003
1.353784e+003, 8.168451e-003
1.355712e+003, 8.323875e-003
1.357641e+003, 8.563841e-003
1.359569e+003, 9.035702e-003
1.361498e+003, 9.621699e-003
1.363426e+003, 1.018190e-002
1.365354e+003, 1.036643e-002
1.367283e+003, 1.016618e-002
1.369211e+003, 9.914360e-003
1.371140e+003, 9.796999e-003
1.373068e+003, 9.803580e-003
1.374997e+003, 1.003948e-002
1.376925e+003, 1.024622e-002
1.378854e+003, 1.024559e-002
1.380782e+003, 1.033264e-002
1.382711e+003, 1.052571e-002
1.384639e+003, 1.091165e-002
1.386568e+003, 1.101113e-002
1.388496e+003, 1.082182e-002
1.390424e+003, 1.082687e-002
1.392353e+003, 1.095848e-002
1.394281e+003, 1.121561e-002
1.396210e+003, 1.136059e-002
1.398138e+003, 1.166601e-002
1.400067e+003, 1.198465e-002
1.401995e+003, 1.237857e-002
1.403924e+003, 1.287162e-002
1.405852e+003, 1.345482e-002
1.407781e+003, 1.401206e-002
1.409709e+003, 1.414420e-002
1.411638e+003, 1.416779e-002
1.413566e+003, 1.424117e-002
1.415495e+003, 1.423382e-002
1.417423e+003, 1.435546e-002
1.419351e+003, 1.441693e-002
1.421280e+003, 1.442826e-002
1.423208e+003, 1.457018e-002
1.425137e+003, 1.489446e-002
1.427065e+003, 1.507014e-002
1.428994e+003, 1.504408e-002
1.430922e+003, 1.537555e-002
1.432851e+003, 1.555632e-002
1.434779e+003, 1.549871e-002
1.436708e+003, 1.550951e-002
1.438636e+003, 1.552206e-002
1.440565e+003, 1.568094e-002
1.442493e+003, 1.573346e-002
1.444422e+003, 1.592259e-002
1.446350e+003, 1.624548e-002
1.448278e+003, 1.631911e-002
1.450207e+003, 1.630661e-002
1.452135e+003, 1.613485e-002
1.454064e+003, 1.600230e-002
1.455992e+003, 1.598307e-002
1.457921e+003, 1.585786e-002
1.459849e+003, 1.567939e-002
1.461778e+003, 1.549114e-002
1.463706e+003, 1.524159e-002
1.465635e+003, 1.495145e-002
1.467563e+003, 1.449933e-002
1.469492e+003, 1.381135e-002
1.471420e+003, 1.331418e-002
1.473349e+003, 1.290876e-002
1.475277e+003, 1.259937e-002
1.477205e+003, 1.214572e-002
1.479134e+003, 1.187674e-002
1.481062e+003, 1.145681e-002
1.482991e+003, 1.118985e-002
1.484919e+003, 1.110080e-002
1.486848e+003, 1.114387e-002
1.488776e+003, 1.136282e-002
1.490705e+003, 1.173437e-002
1.492633e+003, 1.221431e-002
1.494562e+003, 1.289726e-002
1.496490e+003, 1.353359e-002
1.498419e+003, 1.405375e-002
1.500347e+003, 1.452532e-002
1.502276e+003, 1.478932e-002
1.504204e+003, 1.466734e-002
1.506132e+003, 1.399756e-002
1.508061e+003, 1.296965e-002
1.509989e+003, 1.168749e-002
1.511918e+003, 1.038139e-002
1.513846e+003, 9.432813e-003
1.515775e+003, 8.903482e-003
1.517703e+003, 8.408054e-003
1.519632e+003, 8.292829e-003
1.521560e+003, 8.064561e-003
1.523489e+003, 7.851343e-003
1.525417e+003, 7.856301e-003
1.527346e+003, 7.835551e-003
1.529274e+003, 7.849431e-003
1.531203e+003, 8.042014e-003
1.533131e+003, 8.129853e-003
1.535059e+003, 8.250362e-003
1.536988e+003, 8.632647e-003
1.538916e+003, 8.980290e-003
1.540845e+003, 9.112322e-003
1.542773e+003, 9.208551e-003
1.544702e+003, 9.446023e-003
1.546630e+003, 9.744439e-003
1.548559e+003, 1.000076e-002
1.550487e+003, 1.029989e-002
1.552416e+003, 1.081660e-002
1.554344e+003, 1.128571e-002
1.556273e+003, 1.176755e-002
1.558201e+003, 1.209846e-002
1.560130e+003, 1.251374e-002
1.562058e+003, 1.313438e-002
1.563986e+003, 1.379496e-002
1.565915e+003, 1.424845e-002
1.567843e+003, 1.473344e-002
1.569772e+003, 1.513803e-002
1.571700e+003, 1.548875e-002
1.573629e+003, 1.607869e-002
1.575557e+003, 1.674314e-002
1.577486e+003, 1.712531e-002
1.579414e+003, 1.762100e-002
1.581343e+003, 1.813367e-002
1.583271e+003, 1.855119e-002
1.585200e+003, 1.905203e-002
1.587128e+003, 1.976777e-002
1.589057e+003, 2.040096e-002
1.590985e+003, 2.057619e-002
1.592913e+003, 2.072252e-002
1.594842e+003, 2.095980e-002
1.596770e+003, 2.100049e-002
1.598699e+003, 2.097196e-002
1.600627e+003, 2.109264e-002
1.602556e+003, 2.104410e-002
1.604484e+003, 2.079752e-002
1.606413e+003, 2.038364e-002
1.608341e+003, 1.994400e-002
1.610270e+003, 1.961781e-002
1.612198e+003, 1.928031e-002
1.614127e+003, 1.890812e-002
1.616055e+003, 1.867128e-002
1.617984e+003, 1.845000e-002
1.619912e+003, 1.826414e-002
1.621840e+003, 1.792371e-002
1.623769e+003, 1.766392e-002
1.625697e+003, 1.749719e-002
1.627626e+003, 1.726978e-002
1.629554e+003, 1.709811e-002
1.631483e+003, 1.703062e-002
1.633411e+003, 1.696254e-002
1.635340e+003, 1.681296e-002
1.637268e+003, 1.652648e-002
1.639197e+003, 1.639790e-002
1.641125e+003, 1.606028e-002
1.643054e+003, 1.564683e-002
1.644982e+003, 1.540597e-002
1.646911e+003, 1.492055e-002
1.648839e+003, 1.465468e-002
1.650767e+003, 1.434158e-002
1.652696e+003, 1.398321e-002
1.654624e+003, 1.367943e-002
1.656553e+003, 1.321958e-002
1.658481e+003, 1.270817e-002
1.660410e+003, 1.233007e-002
1.662338e+003, 1.181470e-002
1.664267e+003, 1.129558e-002
1.666195e+003, 1.073234e-002
1.668124e+003, 1.046810e-002
1.670052e+003, 1.027979e-002
1.671981e+003, 9.815861e-003
1.673909e+003, 9.336784e-003
1.675838e+003, 8.945897e-003
1.677766e+003, 8.844584e-003
1.679694e+003, 8.614355e-003
1.681623e+003, 8.353191e-003
1.683551e+003, 8.167087e-003
1.685480e+003, 7.711309e-003
1.687408e+003, 7.673210e-003
1.689337e+003, 7.727724e-003
1.691265e+003, 7.373413e-003
1.693194e+003, 7.022995e-003
1.695122e+003, 7.075309e-003
1.697051e+003, 7.070899e-003
1.698979e+003, 7.056449e-003
1.700908e+003, 6.643849e-003
1.702836e+003, 6.518340e-003
1.704765e+003, 6.272583e-003
1.706693e+003, 5.967416e-003
1.708621e+003, 5.842668e-003
1.710550e+003, 6.016746e-003
1.712478e+003, 6.246445e-003
1.714407e+003, 6.299424e-003
1.716335e+003, 6.173798e-003
1.718264e+003, 6.308649e-003
1.720192e+003, 6.530558e-003
1.722121e+003, 6.581877e-003
1.724049e+003, 6.594457e-003
1.725978e+003, 6.643628e-003
1.727906e+003, 6.512830e-003
1.729835e+003, 6.553905e-003
1.731763e+003, 6.587281e-003
1.733692e+003, 6.432315e-003
1.735620e+003, 6.203688e-003
1.737548e+003, 6.137829e-003
1.739477e+003, 6.010700e-003
1.741405e+003, 5.900132e-003
1.743334e+003, 6.177919e-003
1.745262e+003, 6.493017e-003
1.747191e+003, 6.963493e-003
1.749119e+003, 7.411708e-003
1.751048e+003, 7.469005e-003
1.752976e+003, 7.866778e-003
1.754905e+003, 8.744547e-003
1.756833e+003, 9.438694e-003
1.758762e+003, 1.021864e-002
1.760690e+003, 1.152532e-002
1.762619e+003, 1.229635e-002
1.764547e+003, 1.296516e-002
1.766475e+003, 1.356247e-002
1.768404e+003, 1.408890e-002
1.770332e+003, 1.426588e-002
1.772261e+003, 1.370375e-002
1.774189e+003, 1.320913e-002
1.776118e+003, 1.290009e-002
1.778046e+003, 1.242334e-002
1.779975e+003, 1.152589e-002
1.781903e+003, 1.068289e-002
1.783832e+003, 9.898292e-003
1.785760e+003, 9.007649e-003
1.787689e+003, 8.330387e-003
1.789617e+003, 7.534487e-003
1.791546e+003, 7.025050e-003
1.793474e+003, 6.692261e-003
1.795402e+003, 6.125412e-003
1.797331e+003, 5.462840e-003
1.799259e+003, 4.928836e-003
1.801188e+003, 4.572141e-003
1.803116e+003, 4.246975e-003
1.805045e+003, 3.761134e-003
1.806973e+003, 3.931972e-003
1.808902e+003, 4.244292e-003
1.810830e+003, 4.129612e-003
1.812759e+003, 3.921007e-003
1.814687e+003, 3.777666e-003
1.816616e+003, 3.764493e-003
1.818544e+003, 3.847722e-003
1.820473e+003, 3.904787e-003
1.822401e+003, 4.135892e-003
1.824329e+003, 3.991550e-003
1.826258e+003, 3.590143e-003
1.828186e+003, 3.669399e-003
1.830115e+003, 3.972014e-003
1.832043e+003, 3.872069e-003
1.833972e+003, 3.551185e-003
1.835900e+003, 3.651144e-003
1.837829e+003, 3.516069e-003
1.839757e+003, 2.918883e-003
1.841686e+003, 3.130919e-003
1.843614e+003, 3.484710e-003
1.845543e+003, 3.687216e-003
1.847471e+003, 3.826732e-003
1.849400e+003, 3.072475e-003
1.851328e+003, 2.631599e-003
1.853256e+003, 2.886645e-003
1.855185e+003, 3.167201e-003
1.857113e+003, 3.134832e-003
1.859042e+003, 2.843098e-003
1.860970e+003, 2.690892e-003
1.862899e+003, 2.807323e-003
1.864827e+003, 2.638561e-003
1.866756e+003, 2.736210e-003
1.868684e+003, 2.975527e-003
1.870613e+003, 2.574446e-003
1.872541e+003, 2.267161e-003
1.874470e+003, 2.298446e-003
1.876398e+003, 2.655799e-003
1.878327e+003, 2.243824e-003
1.880255e+003, 1.604954e-003
1.882183e+003, 1.964617e-003
1.884112e+003, 2.223258e-003
1.886040e+003, 1.839359e-003
1.887969e+003, 2.061099e-003
1.889897e+003, 2.255600e-003
1.891826e+003, 1.999236e-003
1.893754e+003, 2.210269e-003
1.895683e+003, 1.868139e-003
1.897611e+003, 1.648189e-003
1.899540e+003, 1.762172e-003
1.901468e+003, 1.646372e-003
1.903397e+003, 1.361842e-003
1.905325e+003, 1.381165e-003
1.907254e+003, 1.449122e-003
1.909182e+003, 1.503008e-003
1.911110e+003, 1.058609e-003
1.913039e+003, 9.042280e-004
1.914967e+003, 8.686871e-004
1.916896e+003, 9.689251e-004
1.918824e+003, 9.425314e-004
1.920753e+003, 6.242630e-004
1.922681e+003, 1.675653e-005
1.924610e+003, -5.153589e-004
1.926538e+003, 2.576855e-004
1.928467e+003, 9.933078e-004
1.930395e+003, 1.182342e-003
1.932324e+003, 3.583588e-004
1.934252e+003, -7.458159e-004
1.936181e+003, -8.394181e-004
1.938109e+003, -9.083697e-004
1.940037e+003, -9.202602e-004
1.941966e+003, -3.532814e-004
1.943894e+003, -5.296735e-004
1.945823e+003, -6.105184e-004
1.947751e+003, -5.879433e-004
1.949680e+003, -1.530483e-003
1.951608e+003, -1.766179e-003
1.953537e+003, -2.164799e-003
1.955465e+003, -2.068523e-003
1.957394e+003, -2.040159e-003
1.959322e+003, -2.391850e-003
1.961251e+003, -2.686652e-003
1.963179e+003, -2.327879e-003
1.965108e+003, -2.122448e-003
1.967036e+003, -3.132429e-003
1.968964e+003, -3.225360e-003
1.970893e+003, -2.593869e-003
1.972821e+003, -4.192428e-003
1.974750e+003, -5.659191e-003
1.976678e+003, -4.793390e-003
1.978607e+003, -1.659992e-003
1.980535e+003, -1.211436e-003
1.982464e+003, -3.385690e-003
1.984392e+003, -3.821470e-003
1.986321e+003, -3.398699e-003
1.988249e+003, -2.608051e-003
1.990178e+003, -1.465626e-003
1.992106e+003, -6.618350e-004
1.994035e+003, -7.882772e-004
1.995963e+003, -1.004016e-003
1.997891e+003, -2.551064e-003
1.999820e+003, -4.530798e-003
2.001748e+003, -5.543558e-003
2.003677e+003, -4.326751e-003
2.005605e+003, -3.616286e-003
2.007534e+003, -5.865945e-003
2.009462e+003, -6.653897e-003
2.011391e+003, -3.879875e-003
2.013319e+003, -4.092962e-003
2.015248e+003, -4.515004e-003
2.017176e+003, -3.647068e-003
2.019105e+003, -3.426601e-003
2.021033e+003, -5.613674e-003
2.022962e+003, -5.841258e-003
2.024890e+003, -4.203801e-003
2.026818e+003, -4.606774e-003
2.028747e+003, -5.369064e-003
2.030675e+003, -6.259788e-003
2.032604e+003, -6.401949e-003
2.034532e+003, -5.001336e-003
2.036461e+003, -3.138017e-003
2.038389e+003, -1.001842e-003
2.040318e+003, -9.760678e-004
2.042246e+003, -1.635295e-003
2.044175e+003, -2.567454e-003
2.046103e+003, -1.409182e-003
2.048032e+003, 1.101195e-003
2.049960e+003, 1.078335e-003
2.051889e+003, -2.542494e-004
2.053817e+003, 3.722494e-004
2.055746e+003, 1.198145e-003
2.057674e+003, 1.348369e-004
2.059603e+003, 1.169298e-004
2.061531e+003, 8.142316e-004
2.063459e+003, 3.140614e-004
2.065388e+003, 4.285262e-004
2.067316e+003, 2.233378e-003
2.069245e+003, 2.548731e-003
2.071173e+003, 1.403626e-003
2.073102e+003, 1.471251e-003
2.075030e+003, 1.145904e-003
2.076959e+003, 1.174114e-003
2.078887e+003, 2.690874e-003
2.080816e+003, 2.060024e-003
2.082744e+003, 1.742226e-003
2.084673e+003, 2.132928e-003
2.086601e+003, 2.188051e-003
2.088530e+003, 2.532814e-003
2.090458e+003, 2.244857e-003
2.092386e+003, 1.396010e-003
2.094315e+003, 1.227382e-003
2.096243e+003, 1.515379e-003
2.098172e+003, 2.244132e-003
2.100100e+003, 3.108224e-003
2.102029e+003, 3.645650e-003
2.103957e+003, 2.510522e-003
2.105886e+003, 1.058918e-003
2.107814e+003, 1.344016e-003
2.109743e+003, 2.228171e-003
2.111671e+003, 3.003381e-003
2.113600e+003, 2.795149e-003
2.115528e+003, 2.257877e-003
2.117457e+003, 2.001918e-003
2.119385e+003, 2.565020e-003
2.121313e+003, 1.693980e-003
2.123242e+003, 8.447825e-004
2.125170e+003, 1.486569e-003
2.127099e+003, 1.757193e-003
2.129027e+003, 1.644292e-003
2.130956e+003, 5.174327e-004
2.132884e+003, 8.122228e-005
2.134813e+003, 1.215961e-003
2.136741e+003, 1.369696e-003
2.138670e+003, 1.489451e-003
2.140598e+003, 1.265194e-003
2.142527e+003, 4.586348e-004
2.144455e+003, 2.730215e-004
2.146384e+003, 1.036397e-003
2.148312e+003, -2.732446e-004
2.150240e+003, 4.909198e-004
2.152169e+003, -5.944173e-004
2.154097e+003, -1.730595e-003
2.156026e+003, -1.460364e-003
2.157954e+003, -7.802236e-004
2.159883e+003, 2.524525e-003
2.161811e+003, 5.086197e-003
2.163740e+003, 3.562886e-003
2.165668e+003, 2.502134e-003
2.167597e+003, 1.483922e-003
2.169525e+003, 9.692960e-004
2.171454e+003, 1.033895e-003
2.173382e+003, 1.305696e-003
2.175311e+003, 1.004769e-003
2.177239e+003, 1.636104e-003
2.179167e+003, 2.757363e-003
2.181096e+003, 3.134445e-003
2.183024e+003, 3.595468e-003
2.184953e+003, 3.858547e-003
2.186881e+003, 2.209227e-003
2.188810e+003, 1.364969e-003
2.190738e+003, 3.233202e-003
2.192667e+003, 3.316090e-003
2.194595e+003, 2.643912e-003
2.196524e+003, 2.837096e-003
2.198452e+003, 4.256028e-003
2.200381e+003, 4.623135e-003
2.202309e+003, 4.491120e-003
2.204238e+003, 4.630517e-003
2.206166e+003, 4.244403e-003
2.208094e+003, 4.425119e-003
2.210023e+003, 4.184670e-003
2.211951e+003, 3.670392e-003
2.213880e+003, 3.863745e-003
2.215808e+003, 4.957899e-003
2.217737e+003, 5.737302e-003
2.219665e+003, 5.359076e-003
2.221594e+003, 4.992981e-003
2.223522e+003, 5.034031e-003
2.225451e+003, 5.778566e-003
2.227379e+003, 7.161785e-003
2.229308e+003, 6.613912e-003
2.231236e+003, 6.158063e-003
2.233165e+003, 6.704977e-003
2.235093e+003, 6.448498e-003
2.237021e+003, 6.384471e-003
2.238950e+003, 6.634774e-003
2.240878e+003, 5.493183e-003
2.242807e+003, 5.088153e-003
2.244735e+003, 5.733839e-003
2.246664e+003, 5.025961e-003
2.248592e+003, 5.185722e-003
2.250521e+003, 5.472710e-003
2.252449e+003, 4.911428e-003
2.254378e+003, 5.014624e-003
2.256306e+003, 5.822538e-003
2.258235e+003, 6.309460e-003
2.260163e+003, 6.870450e-003
2.262092e+003, 5.920155e-003
2.264020e+003, 4.686936e-003
2.265948e+003, 4.588364e-003
2.267877e+003, 5.126743e-003
2.269805e+003, 6.138439e-003
2.271734e+003, 5.765730e-003
2.273662e+003, 5.324118e-003
2.275591e+003, 5.212885e-003
2.277519e+003, 5.211997e-003
2.279448e+003, 5.835580e-003
2.281376e+003, 5.981526e-003
2.283305e+003, 6.325882e-003
2.285233e+003, 7.056225e-003
2.287162e+003, 6.742800e-003
2.289090e+003, 6.663321e-003
2.291019e+003, 7.206372e-003
2.292947e+003, 6.677480e-003
2.294875e+003, 5.742841e-003
2.296804e+003, 5.626997e-003
2.298732e+003, 6.050223e-003
2.300661e+003, 6.036723e-003
2.302589e+003, 5.748895e-003
2.304518e+003, 6.041600e-003
2.306446e+003, 5.629720e-003
2.308375e+003, 5.649063e-003
2.310303e+003, 5.924214e-003
2.312232e+003, 6.146105e-003
2.314160e+003, 6.558856e-003
2.316089e+003, 6.422134e-003
2.318017e+003, 6.480889e-003
2.319946e+003, 6.902116e-003
2.321874e+003, 7.341995e-003
2.323802e+003, 7.484690e-003
2.325731e+003, 6.466830e-003
2.327659e+003, 5.380227e-003
2.329588e+003, 5.496935e-003
2.331516e+003, 5.852430e-003
2.333445e+003, 5.350659e-003
2.335373e+003, 5.429442e-003
2.337302e+003, 5.949976e-003
2.339230e+003, 6.074967e-003
2.341159e+003, 5.905579e-003
2.343087e+003, 5.401790e-003
2.345016e+003, 5.456137e-003
2.346944e+003, 5.526642e-003
2.348873e+003, 5.461744e-003
2.350801e+003, 5.469239e-003
2.352729e+003, 6.149469e-003
2.354658e+003, 6.915144e-003
2.356586e+003, 6.730137e-003
2.358515e+003, 6.128935e-003
2.360443e+003, 5.919692e-003
2.362372e+003, 5.793838e-003
2.364300e+003, 5.803171e-003
2.366229e+003, 5.865347e-003
2.368157e+003, 5.444403e-003
2.370086e+003, 4.706535e-003
2.372014e+003, 4.516386e-003
2.373942e+003, 4.519267e-003
2.375871e+003, 4.842971e-003
2.377799e+003, 5.260103e-003
2.379728e+003, 5.043653e-003
2.381656e+003, 4.993831e-003
2.383585e+003, 5.243693e-003
2.385513e+003, 5.344764e-003
2.387442e+003, 5.134830e-003
2.389370e+003, 5.203650e-003
2.391299e+003, 5.727104e-003
2.393227e+003, 5.275686e-003
2.395156e+003, 4.337142e-003
2.397084e+003, 4.948610e-003
2.399012e+003, 5.244568e-003
2.400941e+003, 5.751934e-003
2.402869e+003, 6.181005e-003
2.404798e+003, 5.924620e-003
2.406726e+003, 5.918865e-003
2.408655e+003, 6.179109e-003
2.410583e+003, 6.433798e-003
2.412512e+003, 6.749122e-003
2.414440e+003, 6.268630e-003
2.416369e+003, 5.947486e-003
2.418297e+003, 6.163218e-003
2.420226e+003, 6.306963e-003
2.422154e+003, 6.001272e-003
2.424083e+003, 5.506228e-003
2.426011e+003, 5.446129e-003
2.427939e+003, 5.356011e-003
2.429868e+003, 5.701887e-003
2.431796e+003, 6.455465e-003
2.433725e+003, 7.026069e-003
2.435653e+003, 7.186248e-003
2.437582e+003, 6.711544e-003
2.439510e+003, 5.657546e-003
2.441439e+003, 4.647944e-003
2.443367e+003, 4.629009e-003
2.445296e+003, 5.731402e-003
2.447224e+003, 6.716627e-003
2.449153e+003, 6.377597e-003
2.451081e+003, 5.981699e-003
2.453010e+003, 6.466791e-003
2.454938e+003, 6.293076e-003
2.456866e+003, 5.896437e-003
2.458795e+003, 5.468610e-003
2.460723e+003, 5.648207e-003
2.462652e+003, 5.330060e-003
2.464580e+003, 4.968760e-003
2.466509e+003, 5.322472e-003
2.468437e+003, 5.245426e-003
2.470366e+003, 5.235622e-003
2.472294e+003, 5.481338e-003
2.474223e+003, 6.466537e-003
2.476151e+003, 6.348105e-003
2.478080e+003, 5.641319e-003
2.480008e+003, 5.487451e-003
2.481937e+003, 5.483618e-003
2.483865e+003, 6.220277e-003
2.485793e+003, 6.430735e-003
2.487722e+003, 6.192545e-003
2.489650e+003, 5.427364e-003
2.491579e+003, 5.347355e-003
2.493507e+003, 6.232704e-003
2.495436e+003, 6.286672e-003
2.497364e+003, 5.660840e-003
2.499293e+003, 5.430819e-003
2.501221e+003, 5.321823e-003
2.503150e+003, 5.129662e-003
2.505078e+003, 5.381576e-003
2.507007e+003, 5.767199e-003
2.508935e+003, 6.478718e-003
2.510864e+003, 6.196926e-003
2.512792e+003, 5.385092e-003
2.514720e+003, 5.450854e-003
2.516649e+003, 5.551746e-003
2.518577e+003, 5.669825e-003
2.520506e+003, 5.937206e-003
2.522434e+003, 5.553251e-003
2.524363e+003, 5.174133e-003
2.526291e+003, 5.218538e-003
2.528220e+003, 5.476068e-003
2.530148e+003, 5.666120e-003
2.532077e+003, 6.173167e-003
2.534005e+003, 7.198642e-003
2.535934e+003, 7.230000e-003
2.537862e+003, 6.752123e-003
2.539791e+003, 6.428020e-003
2.541719e+003, 6.455008e-003
2.543647e+003, 6.322833e-003
2.545576e+003, 5.872528e-003
2.547504e+003, 5.877060e-003
2.549433e+003, 6.533480e-003
2.551361e+003, 6.221960e-003
2.553290e+003, 6.786182e-003
2.555218e+003, 6.571639e-003
2.557147e+003, 5.764214e-003
2.559075e+003, 5.429470e-003
2.561004e+003, 5.669275e-003
2.562932e+003, 6.268191e-003
2.564861e+003, 6.786320e-003
2.566789e+003, 6.486586e-003
2.568718e+003, 6.314008e-003
2.570646e+003, 7.252047e-003
2.572574e+003, 7.036758e-003
2.574503e+003, 6.470213e-003
2.576431e+003, 6.186598e-003
2.578360e+003, 6.129981e-003
2.580288e+003, 6.375117e-003
2.582217e+003, 6.810800e-003
2.584145e+003, 6.607092e-003
2.586074e+003, 6.449216e-003
2.588002e+003, 6.434188e-003
2.589931e+003, 6.370025e-003
2.591859e+003, 7.034624e-003
2.593788e+003, 7.423206e-003
2.595716e+003, 7.360506e-003
2.597645e+003, 7.220784e-003
2.599573e+003, 6.606589e-003
2.601501e+003, 6.497220e-003
2.603430e+003, 6.407038e-003
2.605358e+003, 5.909143e-003
2.607287e+003, 6.052992e-003
2.609215e+003, 6.331029e-003
2.611144e+003, 6.492409e-003
2.613072e+003, 6.614503e-003
2.615001e+003, 6.743843e-003
2.616929e+003, 6.704244e-003
2.618858e+003, 6.650616e-003
2.620786e+003, 6.655775e-003
2.622715e+003, 6.687069e-003
2.624643e+003, 6.738000e-003
2.626572e+003, 6.651207e-003
2.628500e+003, 6.749651e-003
2.630428e+003, 6.924263e-003
2.632357e+003, 6.785348e-003
2.634285e+003, 6.543706e-003
2.636214e+003, 7.063142e-003
2.638142e+003, 7.346360e-003
2.640071e+003, 7.042933e-003
2.641999e+003, 6.902403e-003
2.643928e+003, 6.580870e-003
2.645856e+003, 6.538763e-003
2.647785e+003, 6.759981e-003
2.649713e+003, 6.851277e-003
2.651642e+003, 7.307550e-003
2.653570e+003, 7.330295e-003
2.655499e+003, 6.613470e-003
2.657427e+003, 5.935876e-003
2.659355e+003, 5.757921e-003
2.661284e+003, 6.069025e-003
2.663212e+003, 6.326886e-003
2.665141e+003, 6.543962e-003
2.667069e+003, 6.584513e-003
2.668998e+003, 6.423236e-003
2.670926e+003, 6.343696e-003
2.672855e+003, 6.231628e-003
2.674783e+003, 6.458813e-003
2.676712e+003, 6.409693e-003
2.678640e+003, 6.073981e-003
2.680569e+003, 5.542068e-003
2.682497e+003, 5.262900e-003
2.684426e+003, 5.304746e-003
2.686354e+003, 5.616901e-003
2.688282e+003, 5.510132e-003
2.690211e+003, 5.897280e-003
2.692139e+003, 6.274071e-003
2.694068e+003, 6.397213e-003
2.695996e+003, 6.480296e-003
2.697925e+003, 6.815678e-003
2.699853e+003, 7.006279e-003
2.701782e+003, 7.191140e-003
2.703710e+003, 6.997181e-003
2.705639e+003, 6.875018e-003
2.707567e+003, 6.775697e-003
2.709496e+003, 6.288157e-003
2.711424e+003, 6.276103e-003
2.713353e+003, 6.711778e-003
2.715281e+003, 7.066673e-003
2.717209e+003, 6.844556e-003
2.719138e+003, 6.553215e-003
2.721066e+003, 7.003726e-003
2.722995e+003, 7.316404e-003
2.724923e+003, 7.212482e-003
2.726852e+003, 7.256948e-003
2.728780e+003, 6.995019e-003
2.730709e+003, 7.089614e-003
2.732637e+003, 7.066020e-003
2.734566e+003, 7.141647e-003
2.736494e+003, 6.804850e-003
2.738423e+003, 6.838937e-003
2.740351e+003, 6.668884e-003
2.742280e+003, 6.281194e-003
2.744208e+003, 6.596710e-003
2.746136e+003, 7.406591e-003
2.748065e+003, 7.224257e-003
2.749993e+003, 7.239959e-003
2.751922e+003, 7.472013e-003
2.753850e+003, 7.169330e-003
2.755779e+003, 6.939491e-003
2.757707e+003, 7.048754e-003
2.759636e+003, 7.223485e-003
2.761564e+003, 7.845363e-003
2.763493e+003, 8.159176e-003
2.765421e+003, 7.403921e-003
2.767350e+003, 7.094242e-003
2.769278e+003, 7.251951e-003
2.771207e+003, 7.490919e-003
2.773135e+003, 7.528307e-003
2.775063e+003, 7.950624e-003
2.776992e+003, 7.820467e-003
2.778920e+003, 7.193275e-003
2.780849e+003, 6.941447e-003
2.782777e+003, 6.870961e-003
2.784706e+003, 7.250296e-003
2.786634e+003, 7.517472e-003
2.788563e+003, 7.799296e-003
2.790491e+003, 7.821440e-003
2.792420e+003, 7.826564e-003
2.794348e+003, 7.875209e-003
2.796277e+003, 7.699649e-003
2.798205e+003, 7.810584e-003
2.800134e+003, 8.319186e-003
2.802062e+003, 8.417652e-003
2.803990e+003, 7.638985e-003
2.805919e+003, 6.858154e-003
2.807847e+003, 6.713647e-003
2.809776e+003, 7.654650e-003
2.811704e+003, 8.284804e-003
2.813633e+003, 8.314234e-003
2.815561e+003, 8.236903e-003
2.817490e+003, 7.581630e-003
2.819418e+003, 7.422331e-003
2.821347e+003, 8.169971e-003
2.823275e+003, 7.765978e-003
2.825204e+003, 7.535699e-003
2.827132e+003, 8.257923e-003
2.829061e+003, 8.031425e-003
2.830989e+003, 8.296573e-003
2.832917e+003, 8.311674e-003
2.834846e+003, 8.485765e-003
2.836774e+003, 9.556830e-003
2.838703e+003, 9.042757e-003
2.840631e+003, 7.639252e-003
2.842560e+003, 8.129187e-003
2.844488e+003, 8.240486e-003
2.846417e+003, 7.839115e-003
2.848345e+003, 8.335743e-003
2.850274e+003, 8.692564e-003
2.852202e+003, 8.601755e-003
2.854131e+003, 8.451883e-003
2.856059e+003, 7.949951e-003
2.857988e+003, 8.367199e-003
2.859916e+003, 8.364831e-003
2.861844e+003, 8.222700e-003
2.863773e+003, 8.957827e-003
2.865701e+003, 9.485099e-003
2.867630e+003, 9.601975e-003
2.869558e+003, 9.497960e-003
2.871487e+003, 9.481717e-003
2.873415e+003, 9.498829e-003
2.875344e+003, 9.574900e-003
2.877272e+003, 9.723416e-003
2.879201e+003, 9.628024e-003
2.881129e+003, 9.182025e-003
2.883058e+003, 8.805039e-003
2.884986e+003, 8.930013e-003
2.886915e+003, 9.018837e-003
2.888843e+003, 8.966920e-003
2.890771e+003, 8.768019e-003
2.892700e+003, 9.116361e-003
2.894628e+003, 9.212480e-003
2.896557e+003, 9.282717e-003
2.898485e+003, 8.835709e-003
2.900414e+003, 9.095849e-003
2.902342e+003, 9.625063e-003
2.904271e+003, 9.179672e-003
2.906199e+003, 9.054537e-003
2.908128e+003, 8.964080e-003
2.910056e+003, 9.072379e-003
2.911985e+003, 8.924660e-003
2.913913e+003, 9.117076e-003
2.915842e+003, 9.450995e-003
2.917770e+003, 9.278039e-003
2.919698e+003, 9.083437e-003
2.921627e+003, 8.775423e-003
2.923555e+003, 8.858470e-003
2.925484e+003, 8.704046e-003
2.927412e+003, 8.810184e-003
2.929341e+003, 9.598012e-003
2.931269e+003, 9.978698e-003
2.933198e+003, 1.012084e-002
2.935126e+003, 1.074355e-002
2.937055e+003, 1.168730e-002
2.938983e+003, 1.132305e-002
2.940912e+003, 1.063678e-002
2.942840e+003, 1.068289e-002
2.944769e+003, 1.098136e-002
2.946697e+003, 1.068635e-002
2.948625e+003, 1.061168e-002
2.950554e+003, 1.090452e-002
2.952482e+003, 1.087643e-002
2.954411e+003, 1.124689e-002
2.956339e+003, 1.136758e-002
2.958268e+003, 1.165538e-002
2.960196e+003, 1.196103e-002
2.962125e+003, 1.263173e-002
2.964053e+003, 1.305072e-002
2.965982e+003, 1.339332e-002
2.967910e+003, 1.236496e-002
2.969839e+003, 1.192897e-002
2.971767e+003, 1.188991e-002
2.973696e+003, 1.159247e-002
2.975624e+003, 1.140581e-002
2.977552e+003, 1.160691e-002
2.979481e+003, 1.182572e-002
2.981409e+003, 1.165294e-002
2.983338e+003, 1.096735e-002
2.985266e+003, 1.056003e-002
2.987195e+003, 1.070097e-002
2.989123e+003, 1.091021e-002
2.991052e+003, 1.047459e-002
2.992980e+003, 1.074239e-002
2.994909e+003, 1.064296e-002
2.996837e+003, 1.012783e-002
2.998766e+003, 1.023759e-002
3.000694e+003, 1.064086e-002
3.002623e+003, 1.021225e-002
3.004551e+003, 1.073844e-002
3.006479e+003, 1.160779e-002
3.008408e+003, 1.105166e-002
3.010336e+003, 9.952108e-003
3.012265e+003, 1.028950e-002
3.014193e+003, 1.113627e-002
3.016122e+003, 1.091261e-002
3.018050e+003, 1.016151e-002
3.019979e+003, 1.095552e-002
3.021907e+003, 1.074565e-002
3.023836e+003, 1.110661e-002
3.025764e+003, 1.222321e-002
3.027693e+003, 1.157512e-002
3.029621e+003, 1.114143e-002
3.031550e+003, 1.120566e-002
3.033478e+003, 1.156053e-002
3.035406e+003, 1.159618e-002
3.037335e+003, 1.120014e-002
3.039263e+003, 1.137575e-002
3.041192e+003, 1.273546e-002
3.043120e+003, 1.314135e-002
3.045049e+003, 1.236302e-002
3.046977e+003, 1.209553e-002
3.048906e+003, 1.203151e-002
3.050834e+003, 1.233835e-002
3.052763e+003, 1.177055e-002
3.054691e+003, 1.138367e-002
3.056620e+003, 1.140976e-002
3.058548e+003, 1.187650e-002
3.060477e+003, 1.259844e-002
3.062405e+003, 1.247087e-002
3.064333e+003, 1.262877e-002
3.066262e+003, 1.321521e-002
3.068190e+003, 1.396155e-002
3.070119e+003, 1.401782e-002
3.072047e+003, 1.351147e-002
3.073976e+003, 1.378502e-002
3.075904e+003, 1.375784e-002
3.077833e+003, 1.345152e-002
3.079761e+003, 1.282947e-002
3.081690e+003, 1.258980e-002
3.083618e+003, 1.208497e-002
3.085547e+003, 1.184609e-002
3.087475e+003, 1.250841e-002
3.089404e+003, 1.327865e-002
3.091332e+003, 1.357859e-002
3.093260e+003, 1.277322e-002
3.095189e+003, 1.201452e-002
3.097117e+003, 1.177746e-002
3.099046e+003, 1.243257e-002
3.100974e+003, 1.322752e-002
3.102903e+003, 1.304410e-002
3.104831e+003, 1.349988e-002
3.106760e+003, 1.390051e-002
3.108688e+003, 1.413104e-002
3.110617e+003, 1.401691e-002
3.112545e+003, 1.292375e-002
3.114474e+003, 1.255091e-002
3.116402e+003, 1.363696e-002
3.118331e+003, 1.436793e-002
3.120259e+003, 1.501696e-002
3.122188e+003, 1.478829e-002
3.124116e+003, 1.428401e-002
3.126044e+003, 1.460584e-002
3.127973e+003, 1.491293e-002
3.129901e+003, 1.448811e-002
3.131830e+003, 1.422133e-002
3.133758e+003, 1.459926e-002
3.135687e+003, 1.559756e-002
3.137615e+003, 1.484444e-002
3.139544e+003, 1.435728e-002
3.141472e+003, 1.449096e-002
3.143401e+003, 1.511169e-002
3.145329e+003, 1.471395e-002
3.147258e+003, 1.422763e-002
3.149186e+003, 1.500361e-002
3.151115e+003, 1.642444e-002
3.153043e+003, 1.596449e-002
3.154971e+003, 1.444240e-002
3.156900e+003, 1.449531e-002
3.158828e+003, 1.491823e-002
3.160757e+003, 1.490151e-002
3.162685e+003, 1.510151e-002
3.164614e+003, 1.524685e-002
3.166542e+003, 1.581694e-002
3.168471e+003, 1.495358e-002
3.170399e+003, 1.435952e-002
3.172328e+003, 1.501779e-002
3.174256e+003, 1.600368e-002
3.176185e+003, 1.662935e-002
3.178113e+003, 1.574105e-002
3.180042e+003, 1.499838e-002
3.181970e+003, 1.453870e-002
3.183898e+003, 1.469507e-002
3.185827e+003, 1.536644e-002
3.187755e+003, 1.601296e-002
3.189684e+003, 1.598202e-002
3.191612e+003, 1.542461e-002
3.193541e+003, 1.528007e-002
3.195469e+003, 1.629991e-002
3.197398e+003, 1.756447e-002
3.199326e+003, 1.724360e-002
3.201255e+003, 1.642257e-002
3.203183e+003, 1.572051e-002
3.205112e+003, 1.627559e-002
3.207040e+003, 1.648924e-002
3.208969e+003, 1.636263e-002
3.210897e+003, 1.683864e-002
3.212825e+003, 1.719531e-002
3.214754e+003, 1.640064e-002
3.216682e+003, 1.648165e-002
3.218611e+003, 1.731600e-002
3.220539e+003, 1.745602e-002
3.222468e+003, 1.771992e-002
3.224396e+003, 1.702503e-002
3.226325e+003, 1.693880e-002
3.228253e+003, 1.660209e-002
3.230182e+003, 1.594924e-002
3.232110e+003, 1.576196e-002
3.234039e+003, 1.666459e-002
3.235967e+003, 1.770533e-002
3.237896e+003, 1.774347e-002
3.239824e+003, 1.738523e-002
3.241752e+003, 1.706416e-002
3.243681e+003, 1.759244e-002
3.245609e+003, 1.859154e-002
3.247538e+003, 1.867226e-002
3.249466e+003, 1.805648e-002
3.251395e+003, 1.778242e-002
3.253323e+003, 1.807714e-002
3.255252e+003, 1.856371e-002
3.257180e+003, 1.802501e-002
3.259109e+003, 1.853789e-002
3.261037e+003, 1.872359e-002
3.262966e+003, 1.788906e-002
3.264894e+003, 1.813595e-002
3.266823e+003, 1.890127e-002
3.268751e+003, 1.845546e-002
3.270679e+003, 1.816238e-002
3.272608e+003, 1.843407e-002
3.274536e+003, 1.842305e-002
3.276465e+003, 1.735335e-002
3.278393e+003, 1.860080e-002
3.280322e+003, 1.933706e-002
3.282250e+003, 1.825230e-002
3.284179e+003, 1.865171e-002
3.286107e+003, 1.861412e-002
3.288036e+003, 1.714071e-002
3.289964e+003, 1.702886e-002
3.291893e+003, 1.685849e-002
3.293821e+003, 1.609269e-002
3.295750e+003, 1.627760e-002
3.297678e+003, 1.816832e-002
3.299606e+003, 1.916285e-002
3.301535e+003, 1.876701e-002
3.303463e+003, 1.959896e-002
3.305392e+003, 2.098835e-002
3.307320e+003, 2.035524e-002
3.309249e+003, 1.855014e-002
3.311177e+003, 1.811902e-002
3.313106e+003, 1.829612e-002
3.315034e+003, 1.878910e-002
3.316963e+003, 1.900180e-002
3.318891e+003, 1.834744e-002
3.320820e+003, 1.806939e-002
3.322748e+003, 1.837735e-002
3.324677e+003, 1.869721e-002
3.326605e+003, 1.854047e-002
3.328533e+003, 1.932838e-002
3.330462e+003, 1.892539e-002
3.332390e+003, 1.887919e-002
3.334319e+003, 1.934271e-002
3.336247e+003, 2.004506e-002
3.338176e+003, 1.996446e-002
3.340104e+003, 1.989106e-002
3.342033e+003, 2.046846e-002
3.343961e+003, 2.064637e-002
3.345890e+003, 1.965467e-002
3.347818e+003, 1.960303e-002
3.349747e+003, 2.098315e-002
3.351675e+003, 2.153140e-002
3.353604e+003, 2.068680e-002
3.355532e+003, 1.974460e-002
3.357460e+003, 1.926360e-002
3.359389e+003, 2.042714e-002
3.361317e+003, 2.049622e-002
3.363246e+003, 1.973811e-002
3.365174e+003, 1.993779e-002
3.367103e+003, 1.938812e-002
3.369031e+003, 1.940756e-002
3.370960e+003, 1.996132e-002
3.372888e+003, 2.058676e-002
3.374817e+003, 2.058393e-002
3.376745e+003, 2.014028e-002
3.378674e+003, 1.926058e-002
3.380602e+003, 1.937169e-002
3.382531e+003, 1.959329e-002
3.384459e+003, 1.976345e-002
3.386387e+003, 1.968070e-002
3.388316e+003, 1.985911e-002
3.390244e+003, 2.044204e-002
3.392173e+003, 1.973923e-002
3.394101e+003, 1.932051e-002
3.396030e+003, 1.985146e-002
3.397958e+003, 1.914984e-002
3.399887e+003, 1.871924e-002
3.401815e+003, 1.955014e-002
3.403744e+003, 1.957635e-002
3.405672e+003, 2.018089e-002
3.407601e+003, 2.067497e-002
3.409529e+003, 2.091136e-002
3.411458e+003, 2.026778e-002
3.413386e+003, 1.905595e-002
3.415314e+003, 1.938490e-002
3.417243e+003, 2.115020e-002
3.419171e+003, 2.207476e-002
3.421100e+003, 2.170661e-002
3.423028e+003, 2.181721e-002
3.424957e+003, 2.108420e-002
3.426885e+003, 1.963370e-002
3.428814e+003, 2.038455e-002
3.430742e+003, 2.176930e-002
3.432671e+003, 2.188141e-002
3.434599e+003, 2.027289e-002
3.436528e+003, 1.961392e-002
3.438456e+003, 1.875681e-002
3.440385e+003, 1.821300e-002
3.442313e+003, 1.928720e-002
3.444241e+003, 2.036280e-002
3.446170e+003, 1.935032e-002
3.448098e+003, 1.824674e-002
3.450027e+003, 1.819968e-002
3.451955e+003, 1.840013e-002
3.453884e+003, 1.806496e-002
3.455812e+003, 1.904714e-002
3.457741e+003, 1.960711e-002
3.459669e+003, 1.930831e-002
3.461598e+003, 1.998943e-002
3.463526e+003, 2.100435e-002
3.465455e+003, 1.925793e-002
3.467383e+003, 1.804098e-002
3.469312e+003, 1.895789e-002
3.471240e+003, 1.849470e-002
3.473168e+003, 1.833286e-002
3.475097e+003, 1.873062e-002
3.477025e+003, 1.796473e-002
3.478954e+003, 1.767587e-002
3.480882e+003, 1.746540e-002
3.482811e+003, 1.786343e-002
3.484739e+003, 1.850164e-002
3.486668e+003, 1.929432e-002
3.488596e+003, 1.895965e-002
3.490525e+003, 1.878577e-002
3.492453e+003, 1.616445e-002
3.494382e+003, 1.625760e-002
3.496310e+003, 1.884235e-002
3.498239e+003, 2.000824e-002
3.500167e+003, 1.973930e-002
3.502095e+003, 1.826998e-002
3.504024e+003, 1.835896e-002
3.505952e+003, 1.887657e-002
3.507881e+003, 1.779310e-002
3.509809e+003, 1.832579e-002
3.511738e+003, 1.870835e-002
3.513666e+003, 1.777809e-002
3.515595e+003, 1.706281e-002
3.517523e+003, 1.775308e-002
3.519452e+003, 1.831935e-002
3.521380e+003, 1.806044e-002
3.523309e+003, 1.783464e-002
3.525237e+003, 1.727613e-002
3.527166e+003, 1.546280e-002
3.529094e+003, 1.529743e-002
3.531022e+003, 1.609777e-002
3.532951e+003, 1.654587e-002
3.534879e+003, 1.593080e-002
3.536808e+003, 1.548290e-002
3.538736e+003, 1.549954e-002
3.540665e+003, 1.599037e-002
3.542593e+003, 1.560149e-002
3.544522e+003, 1.473493e-002
3.546450e+003, 1.526263e-002
3.548379e+003, 1.645174e-002
3.550307e+003, 1.612859e-002
3.552236e+003, 1.585024e-002
3.554164e+003, 1.664694e-002
3.556093e+003, 1.697433e-002
3.558021e+003, 1.652671e-002
3.559949e+003, 1.708476e-002
3.561878e+003, 1.609737e-002
3.563806e+003, 1.502072e-002
3.565735e+003, 1.592881e-002
3.567663e+003, 1.711654e-002
3.569592e+003, 1.768364e-002
3.571520e+003, 1.682359e-002
3.573449e+003, 1.503902e-002
3.575377e+003, 1.469715e-002
3.577306e+003, 1.427045e-002
3.579234e+003, 1.407866e-002
3.581163e+003, 1.674057e-002
3.583091e+003, 1.816114e-002
3.585020e+003, 1.615328e-002
3.586948e+003, 1.410046e-002
3.588876e+003, 1.474326e-002
3.590805e+003, 1.659630e-002
3.592733e+003, 1.607327e-002
3.594662e+003, 1.462324e-002
3.596590e+003, 1.268402e-002
3.598519e+003, 1.210230e-002
3.600447e+003, 1.197119e-002
3.602376e+003, 1.245883e-002
3.604304e+003, 1.348844e-002
3.606233e+003, 1.394490e-002
3.608161e+003, 1.463380e-002
3.610090e+003, 1.502982e-002
3.612018e+003, 1.423791e-002
3.613947e+003, 1.360100e-002
3.615875e+003, 1.106254e-002
3.617803e+003, 1.101802e-002
3.619732e+003, 1.234096e-002
3.621660e+003, 1.281866e-002
3.623589e+003, 1.349093e-002
3.625517e+003, 1.420896e-002
3.627446e+003, 1.401930e-002
3.629374e+003, 1.411152e-002
3.631303e+003, 1.270054e-002
3.633231e+003, 1.093724e-002
3.635160e+003, 1.199890e-002
3.637088e+003, 1.349048e-002
3.639017e+003, 1.287592e-002
3.640945e+003, 1.178577e-002
3.642874e+003, 1.160569e-002
3.644802e+003, 1.159879e-002
3.646730e+003, 1.169986e-002
3.648659e+003, 1.083109e-002
3.650587e+003, 9.606265e-003
3.652516e+003, 1.033581e-002
3.654444e+003, 1.034310e-002
3.656373e+003, 1.058711e-002
3.658301e+003, 1.122032e-002
3.660230e+003, 1.194930e-002
3.662158e+003, 1.137297e-002
3.664087e+003, 1.070031e-002
3.666015e+003, 1.136709e-002
3.667944e+003, 1.161859e-002
3.669872e+003, 9.530056e-003
3.671801e+003, 1.084799e-002
3.673729e+003, 1.125925e-002
3.675657e+003, 9.651005e-003
3.677586e+003, 9.210670e-003
3.679514e+003, 8.313879e-003
3.681443e+003, 7.655375e-003
3.683371e+003, 9.632306e-003
3.685300e+003, 1.140257e-002
3.687228e+003, 1.112569e-002
3.689157e+003, 9.248382e-003
3.691085e+003, 9.477068e-003
3.693014e+003, 1.152880e-002
3.694942e+003, 1.309295e-002
3.696871e+003, 1.284930e-002
3.698799e+003, 1.280420e-002
3.700728e+003, 1.151065e-002
3.702656e+003, 9.991227e-003
3.704584e+003, 1.220046e-002
3.706513e+003, 1.384627e-002
3.708441e+003, 1.292167e-002
3.710370e+003, 1.212152e-002
3.712298e+003, 1.140218e-002
3.714227e+003, 1.181792e-002
3.716155e+003, 1.137688e-002
3.718084e+003, 1.026045e-002
3.720012e+003, 9.059924e-003
3.721941e+003, 9.690787e-003
3.723869e+003, 9.795843e-003
3.725798e+003, 9.419297e-003
3.727726e+003, 8.774399e-003
3.729655e+003, 9.511560e-003
3.731583e+003, 9.486375e-003
3.733511e+003, 7.901590e-003
3.735440e+003, 8.478444e-003
3.737368e+003, 1.035870e-002
3.739297e+003, 8.781969e-003
3.741225e+003, 6.631995e-003
3.743154e+003, 7.306700e-003
3.745082e+003, 6.742259e-003
3.747011e+003, 6.941121e-003
3.748939e+003, 7.430250e-003
3.750868e+003, 8.397901e-003
3.752796e+003, 8.357067e-003
3.754725e+003, 8.559451e-003
3.756653e+003, 8.517069e-003
3.758582e+003, 1.051583e-002
3.760510e+003, 9.770826e-003
3.762438e+003, 7.327022e-003
3.764367e+003, 7.549034e-003
3.766295e+003, 8.034906e-003
3.768224e+003, 7.061493e-003
3.770152e+003, 6.782546e-003
3.772081e+003, 6.899333e-003
3.774009e+003, 7.208274e-003
3.775938e+003, 9.502505e-003
3.777866e+003, 9.518160e-003
3.779795e+003, 9.640539e-003
3.781723e+003, 8.014721e-003
3.783652e+003, 6.039139e-003
3.785580e+003, 4.944236e-003
3.787509e+003, 5.732109e-003
3.789437e+003, 6.337539e-003
3.791365e+003, 7.438613e-003
3.793294e+003, 8.927108e-003
3.795222e+003, 1.061076e-002
3.797151e+003, 1.194154e-002
3.799079e+003, 1.119587e-002
3.801008e+003, 8.076280e-003
3.802936e+003, 7.908434e-003
3.804865e+003, 7.971284e-003
3.806793e+003, 7.836389e-003
3.808722e+003, 8.632364e-003
3.810650e+003, 8.522885e-003
3.812579e+003, 9.503896e-003
3.814507e+003, 9.807930e-003
3.816436e+003, 7.513312e-003
3.818364e+003, 8.593996e-003
3.820292e+003, 9.528959e-003
3.822221e+003, 8.369601e-003
3.824149e+003, 8.410344e-003
3.826078e+003, 1.029481e-002
3.828006e+003, 8.848692e-003
3.829935e+003, 7.953050e-003
3.831863e+003, 9.199494e-003
3.833792e+003, 1.026394e-002
3.835720e+003, 8.905526e-003
3.837649e+003, 7.991424e-003
3.839577e+003, 8.402103e-003
3.841506e+003, 9.355471e-003
3.843434e+003, 9.067013e-003
3.845363e+003, 8.962711e-003
3.847291e+003, 9.115542e-003
3.849219e+003, 9.675798e-003
3.851148e+003, 9.454393e-003
3.853076e+003, 8.667114e-003
3.855005e+003, 7.807177e-003
3.856933e+003, 8.562541e-003
3.858862e+003, 8.753718e-003
3.860790e+003, 1.036646e-002
3.862719e+003, 8.971944e-003
3.864647e+003, 8.374872e-003
3.866576e+003, 9.482451e-003
3.868504e+003, 9.071893e-003
3.870433e+003, 8.395825e-003
3.872361e+003, 1.005711e-002
3.874290e+003, 9.007480e-003
3.876218e+003, 7.372148e-003
3.878146e+003, 7.838858e-003
3.880075e+003, 1.099541e-002
3.882003e+003, 1.175370e-002
3.883932e+003, 9.530840e-003
3.885860e+003, 7.300151e-003
3.887789e+003, 5.606580e-003
3.889717e+003, 6.060235e-003
3.891646e+003, 7.667181e-003
3.893574e+003, 8.204499e-003
3.895503e+003, 7.246363e-003
3.897431e+003, 7.545304e-003
3.899360e+003, 8.476190e-003
3.901288e+003, 8.792000e-003
3.903217e+003, 8.818799e-003
3.905145e+003, 9.528938e-003
3.907073e+003, 1.052948e-002
3.909002e+003, 9.145360e-003
3.910930e+003, 8.386799e-003
3.912859e+003, 8.793214e-003
3.914787e+003, 9.838521e-003
3.916716e+003, 9.358786e-003
3.918644e+003, 9.114359e-003
3.920573e+003, 8.770416e-003
3.922501e+003, 8.287225e-003
3.924430e+003, 9.693763e-003
3.926358e+003, 1.078413e-002
3.928287e+003, 1.050883e-002
3.930215e+003, 9.636135e-003
3.932144e+003, 8.409810e-003
3.934072e+003, 9.974472e-003
3.936000e+003, 1.028813e-002
3.937929e+003, 9.784278e-003
3.939857e+003, 9.075385e-003
3.941786e+003, 7.501503e-003
3.943714e+003, 7.535685e-003
3.945643e+003, 8.311681e-003
3.947571e+003, 9.270003e-003
3.949500e+003, 1.034852e-002
3.951428e+003, 9.320782e-003
3.953357e+003, 9.204006e-003
3.955285e+003, 9.412439e-003
3.957214e+003, 9.289654e-003
3.959142e+003, 8.177180e-003
3.961071e+003, 6.790594e-003
3.962999e+003, 6.759777e-003
3.964927e+003, 8.228261e-003
3.966856e+003, 9.409561e-003
3.968784e+003, 9.696078e-003
3.970713e+003, 1.030255e-002
3.972641e+003, 1.110337e-002
3.974570e+003, 9.876024e-003
3.976498e+003, 9.989915e-003
3.978427e+003, 1.034985e-002
3.980355e+003, 1.041447e-002
3.982284e+003, 9.855168e-003
3.984212e+003, 9.545607e-003
3.986141e+003, 8.327238e-003
3.988069e+003, 9.276533e-003
3.989998e+003, 9.317047e-003
3.991926e+003, 1.000211e-002
3.993854e+003, 1.155653e-002
3.995783e+003, 1.163361e-002
3.997711e+003, 1.191276e-002
3.999640e+003, 1.191967e-002
##END=



