##NAMES=Fluorite
##RRUFFID=R050045
##IDEAL CHEMISTRY=CaF_2_
##LOCALITY=Hunan Province, China
##OWNER=RRUFF
##SOURCE=Eugene Schlepp
##DESCRIPTION=Pale green colored cubes
##STATUS=The identification of this mineral has been confirmed by X-ray diffraction and chemical analysis
##URL=rruff.info/R050045
##MEASURED CHEMISTRY=Ca_1.000_ F_2.000_
3.991926e+002, 0.000000e+000
4.011211e+002, 6.397381e-002
4.030496e+002, 6.427018e-002
4.049780e+002, 6.148862e-002
4.069065e+002, 6.186222e-002
4.088350e+002, 6.204651e-002
4.107634e+002, 6.226684e-002
4.126919e+002, 6.091357e-002
4.146204e+002, 5.754612e-002
4.165488e+002, 5.601017e-002
4.184773e+002, 5.686380e-002
4.204058e+002, 5.608231e-002
4.223342e+002, 5.377096e-002
4.242627e+002, 5.296985e-002
4.261912e+002, 5.177069e-002
4.281196e+002, 5.042231e-002
4.300481e+002, 4.805219e-002
4.319766e+002, 4.435483e-002
4.339050e+002, 4.317018e-002
4.358335e+002, 4.344860e-002
4.377620e+002, 4.236671e-002
4.396904e+002, 3.979008e-002
4.416189e+002, 3.881255e-002
4.435474e+002, 3.829202e-002
4.454758e+002, 3.719328e-002
4.474043e+002, 3.595675e-002
4.493328e+002, 3.595102e-002
4.512612e+002, 3.491734e-002
4.531897e+002, 3.306542e-002
4.551182e+002, 3.159128e-002
4.570466e+002, 3.018886e-002
4.589751e+002, 2.877033e-002
4.609036e+002, 2.735147e-002
4.628320e+002, 2.588459e-002
4.647605e+002, 2.491844e-002
4.666890e+002, 2.444412e-002
4.686174e+002, 2.354856e-002
4.705459e+002, 2.194649e-002
4.724744e+002, 2.045945e-002
4.744028e+002, 1.960624e-002
4.763313e+002, 1.939049e-002
4.782598e+002, 1.846585e-002
4.801882e+002, 1.695477e-002
4.821167e+002, 1.646584e-002
4.840452e+002, 1.602284e-002
4.859736e+002, 1.572248e-002
4.879021e+002, 1.483533e-002
4.898306e+002, 1.416460e-002
4.917590e+002, 1.389163e-002
4.936875e+002, 1.353775e-002
4.956160e+002, 1.358111e-002
4.975444e+002, 1.350264e-002
4.994729e+002, 1.332558e-002
5.014014e+002, 1.295397e-002
5.033298e+002, 1.272759e-002
5.052583e+002, 1.242904e-002
5.071868e+002, 1.207235e-002
5.091152e+002, 1.166945e-002
5.110437e+002, 1.113786e-002
5.129722e+002, 1.099919e-002
5.149006e+002, 1.093201e-002
5.168291e+002, 1.030147e-002
5.187576e+002, 1.046252e-002
5.206860e+002, 1.077134e-002
5.226145e+002, 1.062679e-002
5.245430e+002, 1.026548e-002
5.264714e+002, 9.855831e-003
5.283999e+002, 9.567007e-003
5.303284e+002, 9.456631e-003
5.322568e+002, 9.698027e-003
5.341853e+002, 9.929658e-003
5.361138e+002, 9.480152e-003
5.380422e+002, 9.504586e-003
5.399707e+002, 9.658564e-003
5.418992e+002, 9.582284e-003
5.438276e+002, 9.779416e-003
5.457561e+002, 9.603211e-003
5.476846e+002, 9.444112e-003
5.496130e+002, 9.609286e-003
5.515415e+002, 1.011645e-002
5.534700e+002, 1.042262e-002
5.553984e+002, 9.873787e-003
5.573269e+002, 9.324708e-003
5.592554e+002, 9.310947e-003
5.611838e+002, 9.358494e-003
5.631123e+002, 9.509050e-003
5.650408e+002, 9.669240e-003
5.669692e+002, 8.948268e-003
5.688977e+002, 8.441557e-003
5.708262e+002, 8.360517e-003
5.727546e+002, 8.222454e-003
5.746831e+002, 8.290660e-003
5.766116e+002, 8.311381e-003
5.785400e+002, 7.979148e-003
5.804685e+002, 7.680398e-003
5.823970e+002, 7.473273e-003
5.843254e+002, 6.950466e-003
5.862539e+002, 6.740402e-003
5.881824e+002, 6.459408e-003
5.901108e+002, 6.285177e-003
5.920393e+002, 6.373669e-003
5.939678e+002, 6.033434e-003
5.958962e+002, 5.612303e-003
5.978247e+002, 5.279973e-003
5.997532e+002, 5.190106e-003
6.016816e+002, 5.277206e-003
6.036101e+002, 5.170390e-003
6.055386e+002, 5.064845e-003
6.074670e+002, 4.984412e-003
6.093955e+002, 4.853691e-003
6.113240e+002, 4.398102e-003
6.132524e+002, 4.336964e-003
6.151809e+002, 4.338572e-003
6.171094e+002, 4.387018e-003
6.190378e+002, 4.519341e-003
6.209663e+002, 4.413085e-003
6.228948e+002, 4.309234e-003
6.248232e+002, 4.140627e-003
6.267517e+002, 3.977542e-003
6.286802e+002, 3.975245e-003
6.306086e+002, 3.994863e-003
6.325371e+002, 3.862842e-003
6.344656e+002, 3.759141e-003
6.363940e+002, 3.891102e-003
6.383225e+002, 4.073245e-003
6.402510e+002, 4.069208e-003
6.421794e+002, 3.960430e-003
6.441079e+002, 3.889517e-003
6.460364e+002, 3.901010e-003
6.479648e+002, 3.598683e-003
6.498933e+002, 3.439556e-003
6.518218e+002, 3.414659e-003
6.537502e+002, 3.307892e-003
6.556787e+002, 3.355110e-003
6.576072e+002, 3.317347e-003
6.595356e+002, 3.174697e-003
6.614641e+002, 3.112490e-003
6.633926e+002, 3.280489e-003
6.653210e+002, 3.250374e-003
6.672495e+002, 2.995433e-003
6.691780e+002, 2.930159e-003
6.711064e+002, 2.834040e-003
6.730349e+002, 2.970953e-003
6.749634e+002, 3.022287e-003
6.768918e+002, 2.952209e-003
6.788203e+002, 2.807454e-003
6.807488e+002, 2.635204e-003
6.826772e+002, 2.662127e-003
6.846057e+002, 2.716078e-003
6.865342e+002, 2.704385e-003
6.884626e+002, 2.976132e-003
6.903911e+002, 3.201181e-003
6.923196e+002, 3.020411e-003
6.942480e+002, 2.744340e-003
6.961765e+002, 2.319457e-003
6.981050e+002, 2.315692e-003
7.000334e+002, 2.497959e-003
7.019619e+002, 2.548472e-003
7.038904e+002, 2.498917e-003
7.058188e+002, 2.468177e-003
7.077473e+002, 2.471597e-003
7.096758e+002, 2.674350e-003
7.116042e+002, 2.758474e-003
7.135327e+002, 2.459080e-003
7.154612e+002, 2.462972e-003
7.173896e+002, 2.674253e-003
7.193181e+002, 2.650987e-003
7.212466e+002, 2.572053e-003
7.231750e+002, 2.722577e-003
7.251035e+002, 2.859633e-003
7.270320e+002, 2.736375e-003
7.289604e+002, 2.615045e-003
7.308889e+002, 2.541350e-003
7.328174e+002, 2.606565e-003
7.347458e+002, 2.581061e-003
7.366743e+002, 2.459485e-003
7.386028e+002, 2.396267e-003
7.405313e+002, 2.317375e-003
7.424597e+002, 2.305154e-003
7.443882e+002, 2.455984e-003
7.463167e+002, 2.456989e-003
7.482451e+002, 2.198469e-003
7.501736e+002, 2.003763e-003
7.521021e+002, 2.100142e-003
7.540305e+002, 1.998816e-003
7.559590e+002, 1.715741e-003
7.578875e+002, 1.753886e-003
7.598159e+002, 2.023325e-003
7.617444e+002, 2.129730e-003
7.636729e+002, 2.017593e-003
7.656013e+002, 1.962549e-003
7.675298e+002, 2.198144e-003
7.694583e+002, 2.437346e-003
7.713867e+002, 2.399601e-003
7.733152e+002, 2.130619e-003
7.752437e+002, 2.059271e-003
7.771721e+002, 2.125108e-003
7.791006e+002, 2.013757e-003
7.810291e+002, 1.859112e-003
7.829575e+002, 1.733869e-003
7.848860e+002, 1.557673e-003
7.868145e+002, 1.586113e-003
7.887429e+002, 1.479638e-003
7.906714e+002, 1.487460e-003
7.925999e+002, 1.512146e-003
7.945283e+002, 1.477617e-003
7.964568e+002, 1.693719e-003
7.983853e+002, 1.799879e-003
8.003137e+002, 1.733557e-003
8.022422e+002, 1.630096e-003
8.041707e+002, 1.495197e-003
8.060991e+002, 1.437209e-003
8.080276e+002, 1.621456e-003
8.099561e+002, 1.789139e-003
8.118845e+002, 1.784499e-003
8.138130e+002, 1.716618e-003
8.157415e+002, 1.743006e-003
8.176699e+002, 1.687904e-003
8.195984e+002, 1.452912e-003
8.215269e+002, 1.404488e-003
8.234553e+002, 1.753480e-003
8.253838e+002, 2.061991e-003
8.273123e+002, 1.979814e-003
8.292407e+002, 1.722678e-003
8.311692e+002, 1.651756e-003
8.330977e+002, 1.502888e-003
8.350261e+002, 1.379723e-003
8.369546e+002, 1.424532e-003
8.388831e+002, 1.483854e-003
8.408115e+002, 1.542507e-003
8.427400e+002, 1.383215e-003
8.446685e+002, 1.138788e-003
8.465969e+002, 1.076494e-003
8.485254e+002, 1.240135e-003
8.504539e+002, 1.440754e-003
8.523823e+002, 1.532862e-003
8.543108e+002, 1.423416e-003
8.562393e+002, 1.112472e-003
8.581677e+002, 1.072451e-003
8.600962e+002, 1.206237e-003
8.620247e+002, 1.204868e-003
8.639531e+002, 1.172008e-003
8.658816e+002, 1.335492e-003
8.678101e+002, 1.420085e-003
8.697385e+002, 1.506073e-003
8.716670e+002, 1.492306e-003
8.735955e+002, 1.668632e-003
8.755239e+002, 1.859892e-003
8.774524e+002, 1.762570e-003
8.793809e+002, 1.869635e-003
8.813093e+002, 2.028916e-003
8.832378e+002, 2.127685e-003
8.851663e+002, 2.056438e-003
8.870947e+002, 1.763081e-003
8.890232e+002, 1.268434e-003
8.909517e+002, 1.082241e-003
8.928801e+002, 1.141721e-003
8.948085e+002, 1.298214e-003
8.967370e+002, 1.450872e-003
8.986655e+002, 1.518603e-003
9.005939e+002, 1.547690e-003
9.025224e+002, 1.481739e-003
9.044509e+002, 1.344681e-003
9.063793e+002, 1.329253e-003
9.083078e+002, 1.498129e-003
9.102363e+002, 1.522098e-003
9.121647e+002, 1.534732e-003
9.140932e+002, 1.648838e-003
9.160217e+002, 1.607062e-003
9.179501e+002, 1.643582e-003
9.198786e+002, 1.740517e-003
9.218071e+002, 1.644982e-003
9.237355e+002, 1.711957e-003
9.256640e+002, 1.874737e-003
9.275925e+002, 2.052248e-003
9.295209e+002, 1.956188e-003
9.314494e+002, 1.812488e-003
9.333779e+002, 1.883598e-003
9.353063e+002, 1.834798e-003
9.372348e+002, 1.735559e-003
9.391633e+002, 1.967964e-003
9.410917e+002, 2.213685e-003
9.430202e+002, 2.073692e-003
9.449487e+002, 1.919993e-003
9.468771e+002, 2.134930e-003
9.488056e+002, 2.357413e-003
9.507341e+002, 2.477824e-003
9.526625e+002, 2.583440e-003
9.545910e+002, 2.599790e-003
9.565195e+002, 2.656358e-003
9.584479e+002, 2.767763e-003
9.603764e+002, 2.884033e-003
9.623049e+002, 3.044718e-003
9.642333e+002, 3.110447e-003
9.661618e+002, 3.066751e-003
9.680903e+002, 3.062113e-003
9.700187e+002, 3.064733e-003
9.719472e+002, 2.994101e-003
9.738757e+002, 3.088518e-003
9.758041e+002, 3.167102e-003
9.777326e+002, 3.074781e-003
9.796611e+002, 3.103203e-003
9.815895e+002, 3.017419e-003
9.835180e+002, 2.940185e-003
9.854465e+002, 3.019406e-003
9.873749e+002, 3.078500e-003
9.893034e+002, 3.160949e-003
9.912319e+002, 3.302832e-003
9.931603e+002, 3.508276e-003
9.950888e+002, 3.542137e-003
9.970173e+002, 3.399149e-003
9.989457e+002, 3.434607e-003
1.000874e+003, 3.545261e-003
1.002803e+003, 3.540206e-003
1.004731e+003, 3.566324e-003
1.006660e+003, 3.636972e-003
1.008588e+003, 3.662518e-003
1.010517e+003, 3.585725e-003
1.012445e+003, 3.426373e-003
1.014373e+003, 3.518946e-003
1.016302e+003, 3.588859e-003
1.018230e+003, 3.421746e-003
1.020159e+003, 3.441644e-003
1.022087e+003, 3.583130e-003
1.024016e+003, 3.613072e-003
1.025944e+003, 3.548924e-003
1.027873e+003, 3.370804e-003
1.029801e+003, 3.228556e-003
1.031730e+003, 3.161336e-003
1.033658e+003, 2.989757e-003
1.035587e+003, 2.908254e-003
1.037515e+003, 2.879714e-003
1.039444e+003, 2.897858e-003
1.041372e+003, 2.670045e-003
1.043301e+003, 2.458831e-003
1.045229e+003, 2.653780e-003
1.047157e+003, 2.772053e-003
1.049086e+003, 2.670906e-003
1.051014e+003, 2.617260e-003
1.052943e+003, 2.490244e-003
1.054871e+003, 2.525485e-003
1.056800e+003, 2.733112e-003
1.058728e+003, 2.712331e-003
1.060657e+003, 2.477909e-003
1.062585e+003, 2.499527e-003
1.064514e+003, 2.457612e-003
1.066442e+003, 2.497290e-003
1.068371e+003, 2.584678e-003
1.070299e+003, 2.637112e-003
1.072228e+003, 2.637321e-003
1.074156e+003, 2.567959e-003
1.076084e+003, 2.573085e-003
1.078013e+003, 2.699665e-003
1.079941e+003, 2.807300e-003
1.081870e+003, 2.911202e-003
1.083798e+003, 3.011666e-003
1.085727e+003, 3.019428e-003
1.087655e+003, 3.052317e-003
1.089584e+003, 2.938875e-003
1.091512e+003, 2.646112e-003
1.093441e+003, 2.650444e-003
1.095369e+003, 2.856898e-003
1.097298e+003, 2.980937e-003
1.099226e+003, 2.774429e-003
1.101155e+003, 2.742828e-003
1.103083e+003, 2.669876e-003
1.105011e+003, 2.554427e-003
1.106940e+003, 2.400433e-003
1.108868e+003, 2.376969e-003
1.110797e+003, 2.401263e-003
1.112725e+003, 2.373909e-003
1.114654e+003, 2.199367e-003
1.116582e+003, 2.163554e-003
1.118511e+003, 2.196633e-003
1.120439e+003, 2.025651e-003
1.122368e+003, 1.953244e-003
1.124296e+003, 2.006201e-003
1.126225e+003, 2.021634e-003
1.128153e+003, 1.976697e-003
1.130082e+003, 1.860239e-003
1.132010e+003, 1.697419e-003
1.133938e+003, 1.606303e-003
1.135867e+003, 1.702504e-003
1.137795e+003, 1.698822e-003
1.139724e+003, 1.657424e-003
1.141652e+003, 1.610958e-003
1.143581e+003, 1.628933e-003
1.145509e+003, 1.616092e-003
1.147438e+003, 1.450426e-003
1.149366e+003, 1.378955e-003
1.151295e+003, 1.422211e-003
1.153223e+003, 1.367663e-003
1.155152e+003, 1.578287e-003
1.157080e+003, 1.693040e-003
1.159009e+003, 1.560158e-003
1.160937e+003, 1.465529e-003
1.162865e+003, 1.577945e-003
1.164794e+003, 1.492122e-003
1.166722e+003, 1.390687e-003
1.168651e+003, 1.459744e-003
1.170579e+003, 1.497380e-003
1.172508e+003, 1.459482e-003
1.174436e+003, 1.530010e-003
1.176365e+003, 1.639464e-003
1.178293e+003, 1.530436e-003
1.180222e+003, 1.472288e-003
1.182150e+003, 1.549826e-003
1.184079e+003, 1.410836e-003
1.186007e+003, 1.484879e-003
1.187936e+003, 1.636876e-003
1.189864e+003, 1.621505e-003
1.191792e+003, 1.472846e-003
1.193721e+003, 1.428874e-003
1.195649e+003, 1.419647e-003
1.197578e+003, 1.425655e-003
1.199506e+003, 1.455415e-003
1.201435e+003, 1.415774e-003
1.203363e+003, 1.321310e-003
1.205292e+003, 1.303868e-003
1.207220e+003, 1.360766e-003
1.209149e+003, 1.462466e-003
1.211077e+003, 1.525393e-003
1.213006e+003, 1.478598e-003
1.214934e+003, 1.478535e-003
1.216863e+003, 1.318119e-003
1.218791e+003, 1.210709e-003
1.220719e+003, 1.406220e-003
1.222648e+003, 1.456594e-003
1.224576e+003, 1.417037e-003
1.226505e+003, 1.344402e-003
1.228433e+003, 1.356364e-003
1.230362e+003, 1.225503e-003
1.232290e+003, 9.457918e-004
1.234219e+003, 9.086401e-004
1.236147e+003, 9.371603e-004
1.238076e+003, 8.912382e-004
1.240004e+003, 7.473263e-004
1.241933e+003, 6.393925e-004
1.243861e+003, 5.523661e-004
1.245790e+003, 6.928830e-004
1.247718e+003, 9.254418e-004
1.249646e+003, 8.374477e-004
1.251575e+003, 7.053919e-004
1.253503e+003, 6.058552e-004
1.255432e+003, 5.941348e-004
1.257360e+003, 6.555223e-004
1.259289e+003, 7.593819e-004
1.261217e+003, 8.235040e-004
1.263146e+003, 7.895998e-004
1.265074e+003, 5.763310e-004
1.267003e+003, 5.105525e-004
1.268931e+003, 7.526216e-004
1.270860e+003, 7.589208e-004
1.272788e+003, 6.156829e-004
1.274717e+003, 5.507505e-004
1.276645e+003, 5.907443e-004
1.278573e+003, 7.629329e-004
1.280502e+003, 9.173463e-004
1.282430e+003, 8.129553e-004
1.284359e+003, 7.355320e-004
1.286287e+003, 5.995603e-004
1.288216e+003, 6.009780e-004
1.290144e+003, 7.401382e-004
1.292073e+003, 6.438118e-004
1.294001e+003, 4.973591e-004
1.295930e+003, 7.033852e-004
1.297858e+003, 7.956354e-004
1.299787e+003, 8.345807e-004
1.301715e+003, 8.658219e-004
1.303644e+003, 7.813117e-004
1.305572e+003, 6.791189e-004
1.307500e+003, 5.695674e-004
1.309429e+003, 7.750912e-004
1.311357e+003, 8.400840e-004
1.313286e+003, 7.888414e-004
1.315214e+003, 8.151105e-004
1.317143e+003, 8.063897e-004
1.319071e+003, 7.278179e-004
1.321000e+003, 7.624826e-004
1.322928e+003, 8.936347e-004
1.324857e+003, 6.765314e-004
1.326785e+003, 5.627721e-004
1.328714e+003, 7.987937e-004
1.330642e+003, 8.128277e-004
1.332571e+003, 8.386085e-004
1.334499e+003, 8.691922e-004
1.336427e+003, 7.989327e-004
1.338356e+003, 6.771584e-004
1.340284e+003, 8.099963e-004
1.342213e+003, 1.031768e-003
1.344141e+003, 9.604580e-004
1.346070e+003, 8.700386e-004
1.347998e+003, 7.640121e-004
1.349927e+003, 5.588730e-004
1.351855e+003, 7.962707e-004
1.353784e+003, 9.871316e-004
1.355712e+003, 9.263061e-004
1.357641e+003, 8.723732e-004
1.359569e+003, 9.300663e-004
1.361498e+003, 9.374785e-004
1.363426e+003, 7.643628e-004
1.365354e+003, 8.030542e-004
1.367283e+003, 1.032594e-003
1.369211e+003, 1.363205e-003
1.371140e+003, 1.431990e-003
1.373068e+003, 1.234610e-003
1.374997e+003, 1.280895e-003
1.376925e+003, 1.380995e-003
1.378854e+003, 1.457200e-003
1.380782e+003, 1.528711e-003
1.382711e+003, 1.449414e-003
1.384639e+003, 1.452760e-003
1.386568e+003, 1.393126e-003
1.388496e+003, 1.365111e-003
1.390424e+003, 1.351537e-003
1.392353e+003, 1.345561e-003
1.394281e+003, 1.346065e-003
1.396210e+003, 1.363609e-003
1.398138e+003, 1.495020e-003
1.400067e+003, 1.637687e-003
1.401995e+003, 1.540355e-003
1.403924e+003, 1.586291e-003
1.405852e+003, 1.816207e-003
1.407781e+003, 1.886068e-003
1.409709e+003, 1.703857e-003
1.411638e+003, 1.617706e-003
1.413566e+003, 1.735580e-003
1.415495e+003, 1.962099e-003
1.417423e+003, 2.011741e-003
1.419351e+003, 2.075349e-003
1.421280e+003, 2.123269e-003
1.423208e+003, 2.136675e-003
1.425137e+003, 2.265915e-003
1.427065e+003, 2.416271e-003
1.428994e+003, 2.476157e-003
1.430922e+003, 2.499357e-003
1.432851e+003, 2.525236e-003
1.434779e+003, 2.588032e-003
1.436708e+003, 2.746913e-003
1.438636e+003, 2.840725e-003
1.440565e+003, 2.899074e-003
1.442493e+003, 2.932899e-003
1.444422e+003, 3.009821e-003
1.446350e+003, 3.132790e-003
1.448278e+003, 3.146843e-003
1.450207e+003, 3.165016e-003
1.452135e+003, 3.243679e-003
1.454064e+003, 2.996141e-003
1.455992e+003, 2.693272e-003
1.457921e+003, 3.057160e-003
1.459849e+003, 3.250591e-003
1.461778e+003, 3.250537e-003
1.463706e+003, 3.082008e-003
1.465635e+003, 2.777474e-003
1.467563e+003, 2.580557e-003
1.469492e+003, 2.586642e-003
1.471420e+003, 2.369451e-003
1.473349e+003, 2.315327e-003
1.475277e+003, 2.363804e-003
1.477205e+003, 2.383013e-003
1.479134e+003, 2.528754e-003
1.481062e+003, 2.632044e-003
1.482991e+003, 2.574486e-003
1.484919e+003, 2.504116e-003
1.486848e+003, 2.313146e-003
1.488776e+003, 2.306864e-003
1.490705e+003, 2.097474e-003
1.492633e+003, 1.961125e-003
1.494562e+003, 1.974807e-003
1.496490e+003, 2.051519e-003
1.498419e+003, 2.029290e-003
1.500347e+003, 2.071458e-003
1.502276e+003, 1.922106e-003
1.504204e+003, 1.737377e-003
1.506132e+003, 1.716019e-003
1.508061e+003, 1.750880e-003
1.509989e+003, 1.666929e-003
1.511918e+003, 1.801668e-003
1.513846e+003, 1.852096e-003
1.515775e+003, 1.325910e-003
1.517703e+003, 1.066528e-003
1.519632e+003, 1.048340e-003
1.521560e+003, 1.174383e-003
1.523489e+003, 1.339616e-003
1.525417e+003, 1.307708e-003
1.527346e+003, 1.164931e-003
1.529274e+003, 1.262376e-003
1.531203e+003, 1.194672e-003
1.533131e+003, 1.028876e-003
1.535059e+003, 1.170903e-003
1.536988e+003, 1.007417e-003
1.538916e+003, 6.924130e-004
1.540845e+003, 7.959279e-004
1.542773e+003, 9.837414e-004
1.544702e+003, 1.198616e-003
1.546630e+003, 1.303670e-003
1.548559e+003, 1.469857e-003
1.550487e+003, 1.812999e-003
1.552416e+003, 2.044161e-003
1.554344e+003, 2.253444e-003
1.556273e+003, 2.232092e-003
1.558201e+003, 2.032806e-003
1.560130e+003, 2.218866e-003
1.562058e+003, 2.410197e-003
1.563986e+003, 2.403661e-003
1.565915e+003, 2.380486e-003
1.567843e+003, 2.353082e-003
1.569772e+003, 2.347469e-003
1.571700e+003, 2.196859e-003
1.573629e+003, 1.885345e-003
1.575557e+003, 1.494532e-003
1.577486e+003, 1.663525e-003
1.579414e+003, 1.865006e-003
1.581343e+003, 1.736386e-003
1.583271e+003, 1.514981e-003
1.585200e+003, 1.570815e-003
1.587128e+003, 1.701164e-003
1.589057e+003, 1.764404e-003
1.590985e+003, 1.654530e-003
1.592913e+003, 1.667432e-003
1.594842e+003, 1.777555e-003
1.596770e+003, 1.849238e-003
1.598699e+003, 1.904482e-003
1.600627e+003, 1.578939e-003
1.602556e+003, 1.422960e-003
1.604484e+003, 1.602172e-003
1.606413e+003, 1.582771e-003
1.608341e+003, 1.477969e-003
1.610270e+003, 1.312475e-003
1.612198e+003, 1.228872e-003
1.614127e+003, 1.222316e-003
1.616055e+003, 9.843382e-004
1.617984e+003, 8.797697e-004
1.619912e+003, 8.669342e-004
1.621840e+003, 9.228293e-004
1.623769e+003, 9.807005e-004
1.625697e+003, 8.439049e-004
1.627626e+003, 7.759428e-004
1.629554e+003, 8.125181e-004
1.631483e+003, 7.137738e-004
1.633411e+003, 4.707305e-004
1.635340e+003, 3.347758e-004
1.637268e+003, 4.084658e-004
1.639197e+003, 3.783982e-004
1.641125e+003, 4.532618e-004
1.643054e+003, 5.598487e-004
1.644982e+003, 3.594085e-004
1.646911e+003, 4.448057e-004
1.648839e+003, 5.160392e-004
1.650767e+003, 1.485223e-004
1.652696e+003, -1.819225e-004
1.654624e+003, 3.421190e-004
1.656553e+003, 4.988222e-004
1.658481e+003, 4.082797e-004
1.660410e+003, 3.525558e-004
1.662338e+003, 4.270359e-004
1.664267e+003, 7.025898e-004
1.666195e+003, 7.238665e-004
1.668124e+003, 3.857433e-004
1.670052e+003, 5.804278e-004
1.671981e+003, 6.996397e-004
1.673909e+003, 4.111889e-004
1.675838e+003, 4.259346e-004
1.677766e+003, 6.255756e-004
1.679694e+003, 6.322987e-004
1.681623e+003, 4.561045e-004
1.683551e+003, 4.505126e-004
1.685480e+003, 9.712932e-004
1.687408e+003, 1.228079e-003
1.689337e+003, 1.017224e-003
1.691265e+003, 8.433408e-004
1.693194e+003, 8.533988e-004
1.695122e+003, 7.012794e-004
1.697051e+003, 8.092554e-004
1.698979e+003, 6.905687e-004
1.700908e+003, 7.062117e-004
1.702836e+003, 7.240807e-004
1.704765e+003, 7.247311e-004
1.706693e+003, 7.020477e-004
1.708621e+003, 7.467188e-004
1.710550e+003, 9.215504e-004
1.712478e+003, 9.569742e-004
1.714407e+003, 8.448916e-004
1.716335e+003, 5.300209e-004
1.718264e+003, 5.278152e-004
1.720192e+003, 6.187300e-004
1.722121e+003, 7.942970e-004
1.724049e+003, 8.564104e-004
1.725978e+003, 9.803977e-004
1.727906e+003, 7.137569e-004
1.729835e+003, 2.924758e-004
1.731763e+003, 4.229579e-004
1.733692e+003, 5.051150e-004
1.735620e+003, 5.099082e-004
1.737548e+003, 3.038876e-004
1.739477e+003, 2.549489e-004
1.741405e+003, 3.834583e-004
1.743334e+003, 2.980104e-004
1.745262e+003, 1.772715e-004
1.747191e+003, 1.805261e-004
1.749119e+003, 2.654458e-004
1.751048e+003, 1.379078e-004
1.752976e+003, 1.417995e-004
1.754905e+003, 2.912755e-004
1.756833e+003, 3.063185e-004
1.758762e+003, 5.910100e-006
1.760690e+003, -6.244918e-005
1.762619e+003, 1.976422e-004
1.764547e+003, 3.838842e-004
1.766475e+003, 6.466553e-004
1.768404e+003, 5.042260e-004
1.770332e+003, 5.413359e-005
1.772261e+003, -1.036833e-004
1.774189e+003, 4.881210e-005
1.776118e+003, 1.839426e-006
1.778046e+003, 1.750330e-004
1.779975e+003, 3.007260e-004
1.781903e+003, 3.723946e-004
1.783832e+003, 4.574692e-004
1.785760e+003, 4.244827e-004
1.787689e+003, 3.933843e-004
1.789617e+003, 4.126659e-004
1.791546e+003, 5.262383e-004
1.793474e+003, 8.543357e-004
1.795402e+003, 8.596736e-004
1.797331e+003, 5.981375e-004
1.799259e+003, 5.127806e-004
1.801188e+003, 2.370746e-004
1.803116e+003, 2.540886e-004
1.805045e+003, 4.606769e-004
1.806973e+003, 3.540718e-004
1.808902e+003, 6.602905e-005
1.810830e+003, -1.974679e-004
1.812759e+003, -3.623416e-004
1.814687e+003, -3.597130e-004
1.816616e+003, -9.764102e-005
1.818544e+003, 5.462504e-004
1.820473e+003, 7.162291e-004
1.822401e+003, 4.640673e-004
1.824329e+003, 6.160243e-005
1.826258e+003, 2.067451e-004
1.828186e+003, 5.268239e-004
1.830115e+003, 5.914562e-004
1.832043e+003, 3.534600e-004
1.833972e+003, 1.917740e-004
1.835900e+003, -1.911257e-004
1.837829e+003, -3.904497e-004
1.839757e+003, 3.071472e-004
1.841686e+003, 9.063039e-004
1.843614e+003, 3.183643e-004
1.845543e+003, 3.445906e-004
1.847471e+003, 7.737686e-004
1.849400e+003, 6.361624e-004
1.851328e+003, 3.502805e-004
1.853256e+003, 1.843896e-004
1.855185e+003, 8.556002e-005
1.857113e+003, 5.347576e-004
1.859042e+003, 1.104503e-003
1.860970e+003, 8.083211e-004
1.862899e+003, 9.335401e-004
1.864827e+003, 1.137586e-003
1.866756e+003, 8.850429e-004
1.868684e+003, 2.638130e-004
1.870613e+003, 3.041062e-004
1.872541e+003, 4.389737e-004
1.874470e+003, 1.457636e-004
1.876398e+003, 1.558405e-004
1.878327e+003, -1.247711e-004
1.880255e+003, -2.587179e-004
1.882183e+003, -1.644603e-005
1.884112e+003, -2.369235e-004
1.886040e+003, -7.446582e-005
1.887969e+003, 3.392685e-004
1.889897e+003, 2.088084e-004
1.891826e+003, -2.081546e-004
1.893754e+003, -7.242680e-005
1.895683e+003, -4.261858e-005
1.897611e+003, 1.815810e-004
1.899540e+003, -4.591507e-005
1.901468e+003, 1.388400e-005
1.903397e+003, -3.208602e-004
1.905325e+003, -1.236847e-003
1.907254e+003, -1.452628e-003
1.909182e+003, -3.289724e-004
1.911110e+003, 4.097862e-004
1.913039e+003, 1.435393e-004
1.914967e+003, -2.684274e-004
1.916896e+003, 2.194268e-004
1.918824e+003, 6.503320e-004
1.920753e+003, -5.926011e-005
1.922681e+003, -5.407565e-004
1.924610e+003, -5.176819e-004
1.926538e+003, -7.313053e-004
1.928467e+003, -7.724080e-004
1.930395e+003, -6.256942e-004
1.932324e+003, -5.236034e-004
1.934252e+003, 1.440000e-004
1.936181e+003, 1.943275e-004
1.938109e+003, -3.250185e-004
1.940037e+003, 3.132805e-004
1.941966e+003, 2.244783e-004
1.943894e+003, -2.816308e-004
1.945823e+003, 1.778243e-004
1.947751e+003, 1.444563e-005
1.949680e+003, 4.015838e-004
1.951608e+003, 2.660428e-004
1.953537e+003, -1.321328e-003
1.955465e+003, -1.925308e-003
1.957394e+003, -1.314738e-003
1.959322e+003, -1.267190e-003
1.961251e+003, -1.915863e-003
1.963179e+003, -2.718655e-003
1.965108e+003, -1.593085e-003
1.967036e+003, -1.198857e-003
1.968964e+003, -2.841709e-003
1.970893e+003, -1.794659e-003
1.972821e+003, -4.192178e-004
1.974750e+003, 7.561122e-004
1.976678e+003, 2.305724e-003
1.978607e+003, 3.457592e-003
1.980535e+003, 2.455098e-003
1.982464e+003, 1.168922e-003
1.984392e+003, 3.508255e-004
1.986321e+003, 9.768549e-004
1.988249e+003, 1.233492e-003
1.990178e+003, 5.634764e-004
1.992106e+003, 1.332468e-003
1.994035e+003, 8.427396e-004
1.995963e+003, -8.154425e-004
1.997891e+003, -7.430351e-004
1.999820e+003, -6.953898e-004
2.001748e+003, -9.336586e-004
2.003677e+003, -1.753919e-003
2.005605e+003, -1.856706e-003
2.007534e+003, -2.409695e-004
2.009462e+003, 7.687548e-004
2.011391e+003, 1.161219e-004
2.013319e+003, -1.490634e-004
2.015248e+003, 2.404475e-004
2.017176e+003, -3.857252e-004
2.019105e+003, -2.629030e-004
2.021033e+003, 1.147419e-003
2.022962e+003, 1.446300e-003
2.024890e+003, 7.808597e-004
2.026818e+003, -3.062165e-004
2.028747e+003, 9.204268e-004
2.030675e+003, 9.122545e-004
2.032604e+003, 6.256856e-004
2.034532e+003, 1.936432e-003
2.036461e+003, 2.508589e-003
2.038389e+003, 1.064662e-003
2.040318e+003, 8.326485e-004
2.042246e+003, 1.046100e-003
2.044175e+003, 1.330073e-003
2.046103e+003, 2.707893e-003
2.048032e+003, 2.590611e-003
2.049960e+003, 2.805757e-003
2.051889e+003, 2.044070e-003
2.053817e+003, 8.680061e-004
2.055746e+003, 5.583256e-004
2.057674e+003, -4.275054e-004
2.059603e+003, -1.127748e-004
2.061531e+003, -1.292908e-004
2.063459e+003, 1.234729e-004
2.065388e+003, 7.259126e-004
2.067316e+003, 9.509872e-004
2.069245e+003, 1.161060e-003
2.071173e+003, 1.206426e-003
2.073102e+003, 4.660813e-004
2.075030e+003, 9.658376e-004
2.076959e+003, 1.416547e-003
2.078887e+003, 8.713735e-004
2.080816e+003, 1.008448e-003
2.082744e+003, 6.907289e-004
2.084673e+003, 7.386698e-004
2.086601e+003, 7.503827e-004
2.088530e+003, 7.978667e-004
2.090458e+003, 4.430479e-004
2.092386e+003, -3.098205e-004
2.094315e+003, -2.580351e-004
2.096243e+003, 2.752834e-004
2.098172e+003, 5.178624e-004
2.100100e+003, 3.572971e-005
2.102029e+003, 4.873433e-004
2.103957e+003, 1.182002e-003
2.105886e+003, 9.320109e-004
2.107814e+003, 7.707009e-004
2.109743e+003, 1.188867e-003
2.111671e+003, 1.338131e-003
2.113600e+003, 1.861249e-003
2.115528e+003, 2.790388e-003
2.117457e+003, 2.121500e-003
2.119385e+003, 1.402065e-003
2.121313e+003, 8.681183e-004
2.123242e+003, -3.649510e-004
2.125170e+003, -7.416288e-004
2.127099e+003, -3.613765e-004
2.129027e+003, -1.879740e-003
2.130956e+003, -2.936159e-003
2.132884e+003, -2.521701e-003
2.134813e+003, -1.651079e-003
2.136741e+003, -1.400740e-003
2.138670e+003, -1.229062e-003
2.140598e+003, -3.292822e-004
2.142527e+003, -3.339579e-004
2.144455e+003, -2.244601e-003
2.146384e+003, -3.516659e-003
2.148312e+003, -2.867103e-003
2.150240e+003, -2.100178e-003
2.152169e+003, -1.784359e-003
2.154097e+003, -1.960320e-003
2.156026e+003, -2.894128e-003
2.157954e+003, -2.181671e-003
2.159883e+003, 4.578137e-004
2.161811e+003, 1.930723e-003
2.163740e+003, 2.983263e-003
2.165668e+003, 2.352185e-003
2.167597e+003, 1.999949e-003
2.169525e+003, 1.862756e-003
2.171454e+003, 1.679456e-003
2.173382e+003, 2.322191e-003
2.175311e+003, 1.822856e-003
2.177239e+003, 8.052494e-004
2.179167e+003, -1.898671e-004
2.181096e+003, 4.727173e-004
2.183024e+003, 2.133556e-003
2.184953e+003, 1.772023e-003
2.186881e+003, 1.845535e-003
2.188810e+003, 1.651888e-003
2.190738e+003, 1.817167e-003
2.192667e+003, 2.969507e-003
2.194595e+003, 3.145691e-003
2.196524e+003, 1.345570e-003
2.198452e+003, 9.357703e-004
2.200381e+003, 2.058384e-003
2.202309e+003, 1.720481e-003
2.204238e+003, 3.254895e-005
2.206166e+003, 5.572749e-005
2.208094e+003, 1.406829e-003
2.210023e+003, 2.578955e-003
2.211951e+003, 2.528517e-003
2.213880e+003, 1.579626e-003
2.215808e+003, 1.267648e-003
2.217737e+003, 1.871444e-003
2.219665e+003, 1.004216e-003
2.221594e+003, 8.909485e-004
2.223522e+003, 2.303546e-003
2.225451e+003, 2.246631e-003
2.227379e+003, 1.357145e-003
2.229308e+003, 1.173367e-003
2.231236e+003, 7.790013e-004
2.233165e+003, 1.003081e-003
2.235093e+003, 7.001484e-004
2.237021e+003, 8.911401e-004
2.238950e+003, 2.175641e-003
2.240878e+003, 3.509089e-003
2.242807e+003, 2.580683e-003
2.244735e+003, 9.150504e-004
2.246664e+003, 7.066425e-004
2.248592e+003, 9.025722e-004
2.250521e+003, 1.083458e-003
2.252449e+003, 1.229122e-003
2.254378e+003, 1.669928e-003
2.256306e+003, 1.087059e-003
2.258235e+003, 1.100937e-003
2.260163e+003, 7.601908e-004
2.262092e+003, -1.847138e-005
2.264020e+003, 3.399165e-004
2.265948e+003, 1.989370e-003
2.267877e+003, 3.320165e-003
2.269805e+003, 3.094828e-003
2.271734e+003, 2.318381e-003
2.273662e+003, 2.237909e-003
2.275591e+003, 2.181456e-003
2.277519e+003, 2.154146e-003
2.279448e+003, 2.050075e-003
2.281376e+003, 2.035218e-003
2.283305e+003, 2.681702e-003
2.285233e+003, 3.296524e-003
2.287162e+003, 3.095378e-003
2.289090e+003, 2.407573e-003
2.291019e+003, 2.264669e-003
2.292947e+003, 2.260501e-003
2.294875e+003, 2.107830e-003
2.296804e+003, 2.495252e-003
2.298732e+003, 2.697499e-003
2.300661e+003, 1.875461e-003
2.302589e+003, 1.240116e-003
2.304518e+003, 6.596022e-004
2.306446e+003, 7.913353e-004
2.308375e+003, 1.796540e-003
2.310303e+003, 2.037461e-003
2.312232e+003, 1.496861e-003
2.314160e+003, 1.257837e-003
2.316089e+003, 1.735396e-003
2.318017e+003, 1.784066e-003
2.319946e+003, 1.670306e-003
2.321874e+003, 2.326333e-003
2.323802e+003, 2.605780e-003
2.325731e+003, 1.882706e-003
2.327659e+003, 1.127907e-003
2.329588e+003, 6.059312e-004
2.331516e+003, 6.494293e-004
2.333445e+003, 8.983737e-004
2.335373e+003, 1.032374e-003
2.337302e+003, 9.644672e-004
2.339230e+003, 1.017043e-003
2.341159e+003, 8.244878e-004
2.343087e+003, 5.959752e-004
2.345016e+003, 5.481733e-004
2.346944e+003, 7.452823e-005
2.348873e+003, -3.330632e-004
2.350801e+003, -1.000962e-004
2.352729e+003, 5.467733e-004
2.354658e+003, 1.025745e-003
2.356586e+003, 8.138387e-004
2.358515e+003, 3.370976e-004
2.360443e+003, 2.496418e-004
2.362372e+003, 2.688433e-004
2.364300e+003, 1.027180e-004
2.366229e+003, 1.978876e-005
2.368157e+003, 2.373862e-005
2.370086e+003, -3.722007e-004
2.372014e+003, -5.061079e-004
2.373942e+003, -1.905796e-004
2.375871e+003, -3.612035e-005
2.377799e+003, 3.127407e-004
2.379728e+003, 3.049692e-004
2.381656e+003, -3.578727e-005
2.383585e+003, -2.416051e-004
2.385513e+003, -5.347912e-005
2.387442e+003, -6.046531e-005
2.389370e+003, -9.834263e-005
2.391299e+003, -1.609943e-004
2.393227e+003, 1.631131e-004
2.395156e+003, 7.258513e-004
2.397084e+003, 8.616935e-004
2.399012e+003, 1.023110e-003
2.400941e+003, 3.449931e-004
2.402869e+003, -2.953849e-004
2.404798e+003, -3.574244e-004
2.406726e+003, 2.127565e-005
2.408655e+003, 5.916856e-004
2.410583e+003, 8.607330e-004
2.412512e+003, 1.088648e-003
2.414440e+003, 8.474708e-004
2.416369e+003, 2.879772e-004
2.418297e+003, 6.608703e-004
2.420226e+003, 1.120275e-003
2.422154e+003, 1.011410e-003
2.424083e+003, 6.704838e-004
2.426011e+003, -4.138758e-005
2.427939e+003, -2.133430e-004
2.429868e+003, 4.440765e-004
2.431796e+003, 6.891055e-004
2.433725e+003, 5.593201e-004
2.435653e+003, 2.313752e-007
2.437582e+003, 2.578430e-004
2.439510e+003, 8.291797e-004
2.441439e+003, 1.078041e-003
2.443367e+003, 1.184695e-003
2.445296e+003, 1.167879e-003
2.447224e+003, 1.372755e-003
2.449153e+003, 1.442831e-003
2.451081e+003, 6.881143e-004
2.453010e+003, 3.373006e-004
2.454938e+003, 3.261843e-004
2.456866e+003, 7.707183e-004
2.458795e+003, 1.067470e-003
2.460723e+003, 2.231997e-004
2.462652e+003, 9.842312e-005
2.464580e+003, 9.958993e-004
2.466509e+003, 1.081835e-003
2.468437e+003, 3.480980e-004
2.470366e+003, 4.270281e-004
2.472294e+003, 6.784518e-004
2.474223e+003, 4.779157e-004
2.476151e+003, 4.491034e-004
2.478080e+003, 7.444316e-004
2.480008e+003, 4.678393e-004
2.481937e+003, 3.853234e-004
2.483865e+003, 2.321065e-004
2.485793e+003, 9.789921e-004
2.487722e+003, 1.388223e-003
2.489650e+003, 1.148948e-003
2.491579e+003, 8.681911e-004
2.493507e+003, 4.759072e-004
2.495436e+003, 3.104160e-004
2.497364e+003, 3.212231e-004
2.499293e+003, 5.491644e-004
2.501221e+003, 1.569871e-003
2.503150e+003, 1.917135e-003
2.505078e+003, 1.273417e-003
2.507007e+003, 7.762878e-004
2.508935e+003, 4.589968e-004
2.510864e+003, 4.708369e-004
2.512792e+003, 5.866587e-004
2.514720e+003, 6.760015e-004
2.516649e+003, 9.912468e-004
2.518577e+003, 7.779460e-004
2.520506e+003, 5.536493e-004
2.522434e+003, 6.494039e-004
2.524363e+003, 5.640311e-004
2.526291e+003, 4.029940e-004
2.528220e+003, 3.678498e-004
2.530148e+003, 9.518287e-005
2.532077e+003, 4.745506e-005
2.534005e+003, -1.982405e-004
2.535934e+003, 1.949648e-004
2.537862e+003, 9.888608e-004
2.539791e+003, 8.463454e-004
2.541719e+003, 8.781815e-004
2.543647e+003, -1.956085e-004
2.545576e+003, -5.535887e-004
2.547504e+003, 4.295335e-004
2.549433e+003, 1.307743e-003
2.551361e+003, 1.472779e-003
2.553290e+003, 1.698247e-003
2.555218e+003, 1.388258e-003
2.557147e+003, 8.734193e-004
2.559075e+003, 1.161803e-003
2.561004e+003, 2.017715e-003
2.562932e+003, 1.899053e-003
2.564861e+003, 1.043810e-003
2.566789e+003, 1.331904e-003
2.568718e+003, 1.372126e-003
2.570646e+003, 9.106580e-004
2.572574e+003, 1.055476e-003
2.574503e+003, 1.521277e-003
2.576431e+003, 1.529277e-003
2.578360e+003, 1.284784e-003
2.580288e+003, 1.091669e-003
2.582217e+003, 1.541597e-003
2.584145e+003, 2.029129e-003
2.586074e+003, 2.389568e-003
2.588002e+003, 2.444179e-003
2.589931e+003, 2.134290e-003
2.591859e+003, 1.646351e-003
2.593788e+003, 1.604904e-003
2.595716e+003, 1.637856e-003
2.597645e+003, 1.665920e-003
2.599573e+003, 1.443554e-003
2.601501e+003, 1.134240e-003
2.603430e+003, 1.307091e-003
2.605358e+003, 1.275889e-003
2.607287e+003, 7.639210e-004
2.609215e+003, 1.070592e-003
2.611144e+003, 1.599429e-003
2.613072e+003, 1.910896e-003
2.615001e+003, 1.264069e-003
2.616929e+003, 1.011054e-003
2.618858e+003, 1.193551e-003
2.620786e+003, 1.227506e-003
2.622715e+003, 1.106182e-003
2.624643e+003, 1.171084e-003
2.626572e+003, 1.193983e-003
2.628500e+003, 5.933566e-004
2.630428e+003, 6.937597e-004
2.632357e+003, 1.277925e-003
2.634285e+003, 1.999052e-003
2.636214e+003, 2.243194e-003
2.638142e+003, 1.835454e-003
2.640071e+003, 1.753588e-003
2.641999e+003, 1.724449e-003
2.643928e+003, 1.320945e-003
2.645856e+003, 1.417548e-003
2.647785e+003, 1.897862e-003
2.649713e+003, 1.810481e-003
2.651642e+003, 1.598570e-003
2.653570e+003, 1.939728e-003
2.655499e+003, 1.893470e-003
2.657427e+003, 1.082541e-003
2.659355e+003, 4.282864e-004
2.661284e+003, 4.006126e-004
2.663212e+003, 4.338209e-004
2.665141e+003, 9.241836e-005
2.667069e+003, -2.341665e-005
2.668998e+003, -1.994283e-004
2.670926e+003, -4.107688e-004
2.672855e+003, -5.402529e-004
2.674783e+003, -2.224419e-004
2.676712e+003, 5.131689e-005
2.678640e+003, -1.723906e-004
2.680569e+003, -3.000730e-004
2.682497e+003, -3.076998e-004
2.684426e+003, 2.095422e-005
2.686354e+003, 9.455661e-005
2.688282e+003, -3.017271e-004
2.690211e+003, -2.639321e-004
2.692139e+003, -2.420790e-004
2.694068e+003, -1.248390e-004
2.695996e+003, 6.007632e-005
2.697925e+003, 2.963220e-004
2.699853e+003, 4.490170e-004
2.701782e+003, 2.133070e-004
2.703710e+003, 1.444930e-005
2.705639e+003, -6.348918e-005
2.707567e+003, 3.007171e-004
2.709496e+003, 3.506393e-004
2.711424e+003, -3.646247e-004
2.713353e+003, -5.770390e-004
2.715281e+003, -6.661506e-005
2.717209e+003, -9.083097e-005
2.719138e+003, -4.644309e-004
2.721066e+003, -7.925424e-004
2.722995e+003, -3.794522e-004
2.724923e+003, -7.427216e-005
2.726852e+003, 2.257508e-004
2.728780e+003, 3.692645e-004
2.730709e+003, 3.283162e-004
2.732637e+003, 8.108919e-005
2.734566e+003, -2.457919e-005
2.736494e+003, -6.370322e-005
2.738423e+003, -5.923416e-004
2.740351e+003, -6.940092e-004
2.742280e+003, -2.477648e-004
2.744208e+003, -2.421419e-006
2.746136e+003, -2.175305e-004
2.748065e+003, -5.768819e-004
2.749993e+003, -6.286994e-004
2.751922e+003, -3.883249e-004
2.753850e+003, -2.429711e-004
2.755779e+003, -4.152516e-004
2.757707e+003, -8.148808e-004
2.759636e+003, -5.857769e-004
2.761564e+003, -2.816841e-004
2.763493e+003, -9.657673e-005
2.765421e+003, 2.453706e-005
2.767350e+003, -6.139910e-004
2.769278e+003, -8.153823e-004
2.771207e+003, 5.334059e-005
2.773135e+003, 5.155560e-004
2.775063e+003, 1.744754e-004
2.776992e+003, 1.110841e-004
2.778920e+003, -3.828799e-005
2.780849e+003, -3.361599e-004
2.782777e+003, -8.715398e-005
2.784706e+003, 1.232584e-004
2.786634e+003, 3.467182e-004
2.788563e+003, 5.159586e-004
2.790491e+003, 4.058280e-004
2.792420e+003, 4.695484e-004
2.794348e+003, 2.241060e-004
2.796277e+003, 9.764902e-005
2.798205e+003, -1.731978e-004
2.800134e+003, -2.153055e-004
2.802062e+003, 3.117754e-004
2.803990e+003, 7.978013e-005
2.805919e+003, -1.944052e-004
2.807847e+003, -2.260139e-004
2.809776e+003, -9.977633e-005
2.811704e+003, -8.894994e-005
2.813633e+003, 1.156244e-004
2.815561e+003, 3.127740e-004
2.817490e+003, 4.689945e-004
2.819418e+003, 4.586642e-004
2.821347e+003, 5.292072e-004
2.823275e+003, 3.519638e-004
2.825204e+003, 1.726163e-004
2.827132e+003, 1.816734e-004
2.829061e+003, 7.940165e-005
2.830989e+003, -3.196605e-004
2.832917e+003, -3.338687e-004
2.834846e+003, 2.297640e-004
2.836774e+003, 6.755482e-004
2.838703e+003, 4.114687e-004
2.840631e+003, 1.220085e-005
2.842560e+003, 4.718524e-004
2.844488e+003, 2.413199e-004
2.846417e+003, -3.437264e-004
2.848345e+003, -7.141627e-004
2.850274e+003, -9.447169e-004
2.852202e+003, -6.462386e-004
2.854131e+003, -6.275081e-004
2.856059e+003, -6.780045e-004
2.857988e+003, -1.091218e-004
2.859916e+003, -2.606896e-004
2.861844e+003, -5.854957e-004
2.863773e+003, -2.795987e-004
2.865701e+003, 9.572229e-005
2.867630e+003, 1.952012e-004
2.869558e+003, -1.541330e-004
2.871487e+003, -4.406712e-004
2.873415e+003, -7.572513e-004
2.875344e+003, -7.669817e-004
2.877272e+003, -1.223184e-003
2.879201e+003, -1.003702e-003
2.881129e+003, -2.431189e-004
2.883058e+003, 1.475392e-004
2.884986e+003, 6.784315e-005
2.886915e+003, -4.936860e-004
2.888843e+003, -6.724385e-004
2.890771e+003, -7.204076e-004
2.892700e+003, -5.964868e-004
2.894628e+003, -4.599000e-004
2.896557e+003, -7.368986e-004
2.898485e+003, -4.411275e-004
2.900414e+003, -5.561341e-004
2.902342e+003, -6.978475e-004
2.904271e+003, -8.580152e-004
2.906199e+003, -1.091347e-003
2.908128e+003, -1.302873e-003
2.910056e+003, -1.152253e-003
2.911985e+003, -1.180820e-003
2.913913e+003, -1.353614e-003
2.915842e+003, -1.214132e-003
2.917770e+003, -4.506267e-004
2.919698e+003, -6.611792e-004
2.921627e+003, -8.041718e-004
2.923555e+003, -3.936472e-004
2.925484e+003, -5.282576e-004
2.927412e+003, -1.025385e-003
2.929341e+003, -1.160231e-003
2.931269e+003, -1.194026e-003
2.933198e+003, -1.469003e-003
2.935126e+003, -1.381990e-003
2.937055e+003, -1.123638e-003
2.938983e+003, -9.430465e-004
2.940912e+003, -5.900196e-004
2.942840e+003, -5.525270e-004
2.944769e+003, -6.415088e-004
2.946697e+003, -8.056310e-004
2.948625e+003, -1.154715e-003
2.950554e+003, -1.097997e-003
2.952482e+003, -1.365975e-003
2.954411e+003, -1.098731e-003
2.956339e+003, -9.120963e-004
2.958268e+003, -1.380946e-003
2.960196e+003, -1.284381e-003
2.962125e+003, -6.999177e-004
2.964053e+003, -8.438541e-004
2.965982e+003, -9.319979e-004
2.967910e+003, -7.263529e-004
2.969839e+003, -5.187641e-005
2.971767e+003, -2.702277e-004
2.973696e+003, -1.124015e-003
2.975624e+003, -8.960594e-004
2.977552e+003, -6.392658e-004
2.979481e+003, -7.273109e-004
2.981409e+003, -8.906510e-004
2.983338e+003, -1.316246e-003
2.985266e+003, -1.146158e-003
2.987195e+003, -7.661728e-004
2.989123e+003, -7.321177e-004
2.991052e+003, -9.483537e-004
2.992980e+003, -7.767637e-004
2.994909e+003, -5.520927e-004
2.996837e+003, -7.227758e-004
2.998766e+003, -6.130286e-004
3.000694e+003, -1.653859e-004
3.002623e+003, -1.036391e-004
3.004551e+003, -7.925936e-004
3.006479e+003, -7.519874e-004
3.008408e+003, -3.130221e-004
3.010336e+003, -8.177055e-004
3.012265e+003, -6.980901e-004
3.014193e+003, -4.336862e-004
3.016122e+003, -1.177444e-003
3.018050e+003, -8.855566e-004
3.019979e+003, -4.716910e-004
3.021907e+003, -7.618055e-004
3.023836e+003, -1.042630e-003
3.025764e+003, -1.036057e-003
3.027693e+003, -8.394867e-004
3.029621e+003, -8.394593e-004
3.031550e+003, -8.518767e-004
3.033478e+003, -5.947120e-004
3.035406e+003, -4.198154e-004
3.037335e+003, 1.325040e-004
3.039263e+003, 1.120430e-004
3.041192e+003, -2.737167e-004
3.043120e+003, -2.247299e-004
3.045049e+003, -3.115616e-004
3.046977e+003, -7.168319e-004
3.048906e+003, -5.687919e-004
3.050834e+003, -2.067541e-004
3.052763e+003, -8.640799e-004
3.054691e+003, -8.819763e-004
3.056620e+003, -2.020530e-004
3.058548e+003, -3.755123e-004
3.060477e+003, -3.242778e-004
3.062405e+003, -9.383519e-006
3.064333e+003, -1.364780e-004
3.066262e+003, -1.743741e-004
3.068190e+003, -2.758761e-004
3.070119e+003, -7.510891e-004
3.072047e+003, -7.052777e-004
3.073976e+003, -4.578157e-004
3.075904e+003, -7.069348e-004
3.077833e+003, -5.741880e-004
3.079761e+003, -5.221361e-004
3.081690e+003, -1.943338e-004
3.083618e+003, -3.467630e-004
3.085547e+003, -1.427590e-003
3.087475e+003, -1.189257e-003
3.089404e+003, -5.543840e-004
3.091332e+003, -6.399311e-004
3.093260e+003, -7.795173e-004
3.095189e+003, -4.835936e-004
3.097117e+003, -9.487625e-004
3.099046e+003, -8.133090e-004
3.100974e+003, -9.223936e-004
3.102903e+003, -1.014929e-003
3.104831e+003, -8.570660e-004
3.106760e+003, -5.206884e-004
3.108688e+003, -6.135989e-004
3.110617e+003, -3.895633e-004
3.112545e+003, -4.425237e-004
3.114474e+003, -8.902374e-004
3.116402e+003, -4.190329e-004
3.118331e+003, 2.184445e-004
3.120259e+003, 4.431295e-004
3.122188e+003, -2.305191e-005
3.124116e+003, -2.167641e-004
3.126044e+003, -5.481567e-004
3.127973e+003, -8.037534e-004
3.129901e+003, -4.287520e-004
3.131830e+003, -5.696373e-004
3.133758e+003, -7.058950e-004
3.135687e+003, -3.139878e-004
3.137615e+003, -3.091655e-004
3.139544e+003, -6.288819e-004
3.141472e+003, -5.570272e-004
3.143401e+003, -2.967862e-004
3.145329e+003, -1.508390e-004
3.147258e+003, -7.263996e-004
3.149186e+003, -9.771702e-004
3.151115e+003, -8.459181e-004
3.153043e+003, -7.718637e-004
3.154971e+003, -4.472273e-004
3.156900e+003, -2.812566e-004
3.158828e+003, -4.239690e-004
3.160757e+003, -5.631921e-004
3.162685e+003, -9.164626e-005
3.164614e+003, 7.375969e-004
3.166542e+003, 3.410183e-004
3.168471e+003, 1.253125e-004
3.170399e+003, 5.418517e-004
3.172328e+003, 6.751266e-004
3.174256e+003, 8.664324e-004
3.176185e+003, 8.475526e-004
3.178113e+003, 7.559796e-005
3.180042e+003, 1.099299e-004
3.181970e+003, 5.022144e-004
3.183898e+003, 5.469974e-005
3.185827e+003, -6.924450e-004
3.187755e+003, -1.114142e-003
3.189684e+003, -3.928545e-004
3.191612e+003, -4.384806e-005
3.193541e+003, -1.832823e-004
3.195469e+003, -2.843082e-004
3.197398e+003, -2.266926e-004
3.199326e+003, -7.871752e-005
3.201255e+003, -4.186186e-004
3.203183e+003, 2.768884e-004
3.205112e+003, 1.622994e-003
3.207040e+003, 1.110981e-003
3.208969e+003, -6.280924e-004
3.210897e+003, -9.738455e-004
3.212825e+003, -5.997368e-004
3.214754e+003, -4.204896e-005
3.216682e+003, -2.527952e-004
3.218611e+003, -9.665863e-004
3.220539e+003, -1.475395e-003
3.222468e+003, -1.724101e-003
3.224396e+003, -8.256389e-004
3.226325e+003, -3.283394e-005
3.228253e+003, -3.806642e-004
3.230182e+003, -6.167751e-004
3.232110e+003, -1.183123e-004
3.234039e+003, 6.738197e-004
3.235967e+003, 6.053106e-004
3.237896e+003, -2.424125e-004
3.239824e+003, 2.250374e-004
3.241752e+003, 7.893025e-004
3.243681e+003, -5.856098e-004
3.245609e+003, -9.537956e-004
3.247538e+003, -7.495079e-004
3.249466e+003, -2.262652e-004
3.251395e+003, 6.574603e-005
3.253323e+003, -1.200280e-003
3.255252e+003, -1.735924e-003
3.257180e+003, -1.327378e-003
3.259109e+003, -9.221985e-004
3.261037e+003, 6.885256e-005
3.262966e+003, 1.071817e-003
3.264894e+003, 3.674794e-004
3.266823e+003, -7.352362e-004
3.268751e+003, -8.101721e-004
3.270679e+003, -6.417580e-004
3.272608e+003, -5.004200e-005
3.274536e+003, 8.446894e-004
3.276465e+003, 8.658686e-004
3.278393e+003, 7.044940e-004
3.280322e+003, 6.406254e-004
3.282250e+003, 2.345990e-004
3.284179e+003, -1.264883e-004
3.286107e+003, -7.334136e-004
3.288036e+003, -2.293601e-004
3.289964e+003, 1.719573e-004
3.291893e+003, -1.352332e-004
3.293821e+003, -4.054537e-004
3.295750e+003, 5.314238e-004
3.297678e+003, 5.261664e-004
3.299606e+003, -2.992662e-004
3.301535e+003, -7.629264e-004
3.303463e+003, -7.998415e-004
3.305392e+003, -8.435331e-004
3.307320e+003, -6.431824e-004
3.309249e+003, -1.203857e-003
3.311177e+003, -1.941291e-003
3.313106e+003, -2.399636e-003
3.315034e+003, -1.574221e-003
3.316963e+003, -8.049005e-004
3.318891e+003, -6.154555e-004
3.320820e+003, -7.121003e-004
3.322748e+003, -1.056190e-003
3.324677e+003, -1.178482e-003
3.326605e+003, -8.441713e-004
3.328533e+003, -1.319039e-003
3.330462e+003, -1.496589e-003
3.332390e+003, -1.461711e-003
3.334319e+003, -1.688378e-003
3.336247e+003, -2.154846e-003
3.338176e+003, -2.052783e-003
3.340104e+003, -1.434283e-003
3.342033e+003, -1.031096e-003
3.343961e+003, -1.491757e-003
3.345890e+003, -1.159453e-003
3.347818e+003, -1.303480e-003
3.349747e+003, -1.643416e-003
3.351675e+003, -1.391917e-003
3.353604e+003, -7.387944e-004
3.355532e+003, -9.242804e-004
3.357460e+003, -1.268638e-003
3.359389e+003, -1.117860e-003
3.361317e+003, -8.301122e-004
3.363246e+003, -1.562373e-003
3.365174e+003, -2.548958e-003
3.367103e+003, -2.402338e-003
3.369031e+003, -1.975845e-003
3.370960e+003, -1.147572e-003
3.372888e+003, -3.010591e-004
3.374817e+003, -1.552864e-004
3.376745e+003, 7.502356e-004
3.378674e+003, 1.292134e-003
3.380602e+003, -3.784242e-004
3.382531e+003, -1.221790e-003
3.384459e+003, -1.313418e-003
3.386387e+003, -8.617936e-004
3.388316e+003, -7.605364e-004
3.390244e+003, -1.039543e-003
3.392173e+003, -1.486459e-003
3.394101e+003, -1.128305e-003
3.396030e+003, -1.123335e-003
3.397958e+003, -1.695073e-003
3.399887e+003, -1.228292e-003
3.401815e+003, -5.284412e-004
3.403744e+003, -5.863000e-005
3.405672e+003, -8.199520e-005
3.407601e+003, -6.439693e-004
3.409529e+003, -1.257954e-003
3.411458e+003, -1.211773e-003
3.413386e+003, -6.083428e-004
3.415314e+003, -1.150511e-004
3.417243e+003, -1.032108e-003
3.419171e+003, -9.731716e-004
3.421100e+003, 6.461836e-004
3.423028e+003, 9.583515e-004
3.424957e+003, -2.630981e-004
3.426885e+003, -1.099904e-003
3.428814e+003, -7.889746e-004
3.430742e+003, -5.728264e-004
3.432671e+003, -1.226397e-003
3.434599e+003, -1.382128e-003
3.436528e+003, -9.702808e-004
3.438456e+003, -8.175391e-004
3.440385e+003, -1.018347e-003
3.442313e+003, -1.433157e-003
3.444241e+003, -8.021354e-004
3.446170e+003, -6.221394e-004
3.448098e+003, -1.523921e-003
3.450027e+003, -1.002555e-003
3.451955e+003, 4.109954e-004
3.453884e+003, 1.043023e-004
3.455812e+003, -5.850741e-004
3.457741e+003, 8.921371e-005
3.459669e+003, -5.720729e-004
3.461598e+003, -1.006784e-003
3.463526e+003, -1.031516e-003
3.465455e+003, -1.490280e-003
3.467383e+003, -1.510662e-003
3.469312e+003, -9.676855e-004
3.471240e+003, -1.110483e-003
3.473168e+003, -1.033401e-003
3.475097e+003, -1.154794e-003
3.477025e+003, -1.366380e-003
3.478954e+003, -8.367284e-004
3.480882e+003, -1.683962e-003
3.482811e+003, -2.148849e-003
3.484739e+003, -1.052165e-003
3.486668e+003, -9.099816e-004
3.488596e+003, -8.665307e-004
3.490525e+003, -1.543329e-003
3.492453e+003, -1.344763e-003
3.494382e+003, -9.203623e-004
3.496310e+003, -1.143228e-003
3.498239e+003, -1.099755e-003
3.500167e+003, -4.738626e-004
3.502095e+003, -8.877029e-004
3.504024e+003, -1.623096e-003
3.505952e+003, -2.249348e-003
3.507881e+003, -1.278291e-003
3.509809e+003, -6.072750e-004
3.511738e+003, -7.226217e-004
3.513666e+003, -6.108921e-004
3.515595e+003, -6.294379e-004
3.517523e+003, 3.197293e-005
3.519452e+003, 2.484033e-004
3.521380e+003, -5.153704e-004
3.523309e+003, -3.783282e-004
3.525237e+003, 4.730292e-004
3.527166e+003, 3.921939e-004
3.529094e+003, -1.454888e-003
3.531022e+003, -1.844593e-003
3.532951e+003, -7.374172e-004
3.534879e+003, 8.866819e-004
3.536808e+003, 2.275000e-004
3.538736e+003, -1.735982e-003
3.540665e+003, -1.528353e-003
3.542593e+003, -7.999047e-004
3.544522e+003, -4.588861e-004
3.546450e+003, -4.912359e-004
3.548379e+003, -1.032114e-003
3.550307e+003, -1.617542e-003
3.552236e+003, -2.168542e-003
3.554164e+003, -1.761602e-003
3.556093e+003, -8.168155e-004
3.558021e+003, 5.719039e-005
3.559949e+003, -2.278953e-004
3.561878e+003, -2.613731e-004
3.563806e+003, -5.655694e-004
3.565735e+003, -8.345474e-004
3.567663e+003, -4.689977e-004
3.569592e+003, -3.156288e-004
3.571520e+003, 7.871432e-005
3.573449e+003, -8.459370e-005
3.575377e+003, -4.636629e-006
3.577306e+003, 2.617643e-004
3.579234e+003, -7.356513e-004
3.581163e+003, -1.343372e-003
3.583091e+003, -1.030463e-003
3.585020e+003, -9.278802e-004
3.586948e+003, -1.965947e-003
3.588876e+003, -2.595225e-003
3.590805e+003, -2.746940e-004
3.592733e+003, 6.110731e-004
3.594662e+003, -9.459502e-004
3.596590e+003, -1.849428e-003
3.598519e+003, -1.576659e-003
3.600447e+003, -1.277264e-003
3.602376e+003, -5.997912e-004
3.604304e+003, -1.205597e-003
3.606233e+003, -6.070597e-004
3.608161e+003, -1.475957e-003
3.610090e+003, -2.892301e-003
3.612018e+003, -2.673718e-003
3.613947e+003, -1.301275e-003
3.615875e+003, -3.279724e-004
3.617803e+003, -3.233895e-004
3.619732e+003, -1.886927e-003
3.621660e+003, -2.255795e-003
3.623589e+003, -8.642817e-004
3.625517e+003, 2.570211e-004
3.627446e+003, 1.220492e-005
3.629374e+003, -8.365682e-004
3.631303e+003, -1.347836e-003
3.633231e+003, -2.659159e-004
3.635160e+003, 4.421161e-004
3.637088e+003, -1.059558e-003
3.639017e+003, 3.012027e-005
3.640945e+003, 2.464507e-004
3.642874e+003, -4.059850e-005
3.644802e+003, -1.117947e-004
3.646730e+003, -1.435427e-003
3.648659e+003, -2.601183e-003
3.650587e+003, -1.996648e-003
3.652516e+003, -5.930847e-004
3.654444e+003, 2.217761e-004
3.656373e+003, -1.919767e-003
3.658301e+003, -3.089825e-003
3.660230e+003, -3.195857e-003
3.662158e+003, -2.298507e-003
3.664087e+003, -2.133936e-003
3.666015e+003, -2.370925e-003
3.667944e+003, -2.123745e-003
3.669872e+003, -1.476641e-003
3.671801e+003, -2.140474e-003
3.673729e+003, -3.780178e-003
3.675657e+003, -3.045951e-003
3.677586e+003, -2.264883e-003
3.679514e+003, -3.047654e-003
3.681443e+003, -2.919351e-003
3.683371e+003, -2.461680e-003
3.685300e+003, -1.886189e-003
3.687228e+003, -1.676020e-003
3.689157e+003, 2.323790e-004
3.691085e+003, 9.520336e-004
3.693014e+003, -1.126421e-003
3.694942e+003, -1.942452e-003
3.696871e+003, -1.147204e-003
3.698799e+003, 3.199927e-004
3.700728e+003, 9.001094e-005
3.702656e+003, -1.105919e-003
3.704584e+003, -2.270892e-003
3.706513e+003, -2.542904e-003
3.708441e+003, -1.905001e-003
3.710370e+003, -2.118122e-003
3.712298e+003, -3.929207e-003
3.714227e+003, -3.110578e-003
3.716155e+003, -2.023249e-003
3.718084e+003, -2.043966e-003
3.720012e+003, -1.069851e-003
3.721941e+003, -3.889368e-004
3.723869e+003, -1.529658e-003
3.725798e+003, -2.244966e-003
3.727726e+003, -1.815996e-003
3.729655e+003, -1.232671e-003
3.731583e+003, -1.648396e-003
3.733511e+003, -2.236546e-003
3.735440e+003, -3.048622e-003
3.737368e+003, -3.754083e-003
3.739297e+003, -3.544173e-003
3.741225e+003, -2.431008e-003
3.743154e+003, -2.761410e-003
3.745082e+003, -2.761498e-003
3.747011e+003, -1.857225e-003
3.748939e+003, -1.791167e-003
3.750868e+003, -1.426953e-003
3.752796e+003, -9.053156e-004
3.754725e+003, -1.203874e-003
3.756653e+003, -1.478920e-003
3.758582e+003, -2.425804e-003
3.760510e+003, -2.854846e-003
3.762438e+003, -2.667863e-003
3.764367e+003, -1.644375e-003
3.766295e+003, -8.331065e-004
3.768224e+003, -1.441705e-003
3.770152e+003, -1.539710e-003
3.772081e+003, -1.325036e-003
3.774009e+003, -1.627061e-003
3.775938e+003, -1.375688e-003
3.777866e+003, -8.735162e-004
3.779795e+003, -1.042883e-003
3.781723e+003, -1.774343e-003
3.783652e+003, -2.218271e-003
3.785580e+003, -1.441809e-003
3.787509e+003, -1.882465e-003
3.789437e+003, -2.785027e-003
3.791365e+003, -1.841041e-003
3.793294e+003, -1.000094e-003
3.795222e+003, -1.114410e-003
3.797151e+003, -2.740212e-003
3.799079e+003, -3.765655e-003
3.801008e+003, -1.959731e-003
3.802936e+003, -1.490861e-003
3.804865e+003, -1.169883e-003
3.806793e+003, -3.661172e-004
3.808722e+003, 6.361799e-004
3.810650e+003, 3.750964e-004
3.812579e+003, -8.884784e-005
3.814507e+003, -1.010103e-003
3.816436e+003, -2.410406e-003
3.818364e+003, -2.694465e-003
3.820292e+003, -2.477947e-003
3.822221e+003, -2.615627e-003
3.824149e+003, -1.765186e-003
3.826078e+003, -1.641524e-003
3.828006e+003, -1.575317e-003
3.829935e+003, -2.335769e-003
3.831863e+003, -2.739549e-003
3.833792e+003, -1.833109e-003
3.835720e+003, -1.704205e-003
3.837649e+003, -1.642968e-003
3.839577e+003, -2.694054e-003
3.841506e+003, -3.934052e-003
3.843434e+003, -4.476056e-003
3.845363e+003, -2.982841e-003
3.847291e+003, -1.835211e-003
3.849219e+003, -2.406179e-003
3.851148e+003, -3.635189e-003
3.853076e+003, -4.982909e-003
3.855005e+003, -4.620894e-003
3.856933e+003, -3.011276e-003
3.858862e+003, -2.605400e-003
3.860790e+003, -3.504117e-003
3.862719e+003, -5.004845e-003
3.864647e+003, -5.272732e-003
3.866576e+003, -3.133522e-003
3.868504e+003, -2.564271e-003
3.870433e+003, -2.260541e-003
3.872361e+003, -1.745265e-003
3.874290e+003, -1.706560e-003
3.876218e+003, -1.069432e-003
3.878146e+003, -1.920943e-003
3.880075e+003, -2.687822e-003
3.882003e+003, -1.973431e-003
3.883932e+003, -1.992296e-003
3.885860e+003, -3.012175e-003
3.887789e+003, -2.313162e-003
3.889717e+003, -1.277382e-003
3.891646e+003, -1.094097e-003
3.893574e+003, -2.456215e-003
3.895503e+003, -2.832007e-003
3.897431e+003, -2.142148e-003
3.899360e+003, -2.571103e-003
3.901288e+003, -3.002536e-003
3.903217e+003, -3.652404e-003
3.905145e+003, -3.691176e-003
3.907073e+003, -2.853157e-003
3.909002e+003, -1.657527e-003
3.910930e+003, -1.697061e-003
3.912859e+003, -3.382753e-003
3.914787e+003, -3.551387e-003
3.916716e+003, -2.469960e-003
3.918644e+003, -1.384456e-003
3.920573e+003, -1.027383e-003
3.922501e+003, -2.912341e-003
3.924430e+003, -3.213233e-003
3.926358e+003, -2.779074e-003
3.928287e+003, -1.524514e-003
3.930215e+003, -8.690274e-005
3.932144e+003, -2.592273e-003
3.934072e+003, -2.521774e-003
3.936000e+003, -1.183776e-003
3.937929e+003, -1.213741e-003
3.939857e+003, -1.804043e-003
3.941786e+003, -1.814578e-003
3.943714e+003, -3.495727e-003
3.945643e+003, -3.415590e-003
3.947571e+003, -3.426055e-003
3.949500e+003, -3.550602e-003
3.951428e+003, -2.345095e-003
3.953357e+003, -2.679434e-003
3.955285e+003, -2.191085e-003
3.957214e+003, -1.819209e-003
3.959142e+003, -2.545211e-003
3.961071e+003, -4.786481e-003
3.962999e+003, -4.028005e-003
3.964927e+003, -1.638997e-003
3.966856e+003, -1.010654e-003
3.968784e+003, -2.117748e-003
3.970713e+003, -3.532356e-003
3.972641e+003, -2.300254e-003
3.974570e+003, -4.314973e-004
3.976498e+003, -8.305393e-004
3.978427e+003, -2.371662e-003
3.980355e+003, -3.114596e-003
3.982284e+003, -1.880394e-003
3.984212e+003, -1.487192e-003
3.986141e+003, -2.081809e-003
3.988069e+003, -2.351943e-003
3.989998e+003, -2.412691e-003
3.991926e+003, -3.057709e-003
3.993854e+003, -4.117724e-003
3.995783e+003, -3.754650e-003
3.997711e+003, -2.259169e-003
3.999640e+003, -2.260259e-003
##END=



