##NAMES=Fluorapophyllite-(K)
##RRUFFID=R040095
##IDEAL CHEMISTRY=KCa_4_Si_8_O_20_F&#183;8H_2_O
##LOCALITY=unknown
##OWNER=RRUFF
##SOURCE=University of Arizona Mineral Museum
##DESCRIPTION=Colorless crystals
##STATUS=The identification of this mineral has been confirmed by X-ray diffraction and chemical analysis
##URL=rruff.info/R040095
##MEASURED CHEMISTRY=(K_0.90_Na_0.04_)Ca_3.96_Si_8.00_O_20_(F_0.82_(OH)_0.18_)Â·8H_2_O
3.991926e+002, 0.000000e+000
4.011211e+002, 8.456472e-002
4.030496e+002, 8.497787e-002
4.049780e+002, 9.315430e-002
4.069065e+002, 9.530970e-002
4.088350e+002, 9.998193e-002
4.107634e+002, 1.063125e-001
4.126919e+002, 1.119377e-001
4.146204e+002, 1.180867e-001
4.165488e+002, 1.170959e-001
4.184773e+002, 1.032875e-001
4.204058e+002, 8.704005e-002
4.223342e+002, 7.983971e-002
4.242627e+002, 7.744669e-002
4.261912e+002, 7.592973e-002
4.281196e+002, 7.733745e-002
4.300481e+002, 8.170627e-002
4.319766e+002, 8.575325e-002
4.339050e+002, 9.012301e-002
4.358335e+002, 9.504623e-002
4.377620e+002, 1.021066e-001
4.396904e+002, 1.090345e-001
4.416189e+002, 1.149698e-001
4.435474e+002, 1.196454e-001
4.454758e+002, 1.213845e-001
4.474043e+002, 1.228011e-001
4.493328e+002, 1.242333e-001
4.512612e+002, 1.271429e-001
4.531897e+002, 1.310020e-001
4.551182e+002, 1.356660e-001
4.570466e+002, 1.418381e-001
4.589751e+002, 1.499879e-001
4.609036e+002, 1.564603e-001
4.628320e+002, 1.635305e-001
4.647605e+002, 1.714707e-001
4.666890e+002, 1.793527e-001
4.686174e+002, 1.884991e-001
4.705459e+002, 1.951104e-001
4.724744e+002, 1.981144e-001
4.744028e+002, 1.969031e-001
4.763313e+002, 1.900796e-001
4.782598e+002, 1.798112e-001
4.801882e+002, 1.686824e-001
4.821167e+002, 1.619218e-001
4.840452e+002, 1.614450e-001
4.859736e+002, 1.642407e-001
4.879021e+002, 1.695967e-001
4.898306e+002, 1.768022e-001
4.917590e+002, 1.829987e-001
4.936875e+002, 1.879134e-001
4.956160e+002, 1.907072e-001
4.975444e+002, 1.912129e-001
4.994729e+002, 1.900990e-001
5.014014e+002, 1.866049e-001
5.033298e+002, 1.788946e-001
5.052583e+002, 1.696531e-001
5.071868e+002, 1.590507e-001
5.091152e+002, 1.479499e-001
5.110437e+002, 1.380891e-001
5.129722e+002, 1.307494e-001
5.149006e+002, 1.249682e-001
5.168291e+002, 1.218547e-001
5.187576e+002, 1.207675e-001
5.206860e+002, 1.206739e-001
5.226145e+002, 1.229188e-001
5.245430e+002, 1.267246e-001
5.264714e+002, 1.303723e-001
5.283999e+002, 1.340190e-001
5.303284e+002, 1.378248e-001
5.322568e+002, 1.403459e-001
5.341853e+002, 1.405571e-001
5.361138e+002, 1.396936e-001
5.380422e+002, 1.370040e-001
5.399707e+002, 1.325788e-001
5.418992e+002, 1.262792e-001
5.438276e+002, 1.194031e-001
5.457561e+002, 1.118242e-001
5.476846e+002, 1.042549e-001
5.496130e+002, 9.689268e-002
5.515415e+002, 8.910658e-002
5.534700e+002, 8.132664e-002
5.553984e+002, 7.431345e-002
5.573269e+002, 6.744592e-002
5.592554e+002, 6.136109e-002
5.611838e+002, 5.659809e-002
5.631123e+002, 5.315050e-002
5.650408e+002, 5.029503e-002
5.669692e+002, 4.788005e-002
5.688977e+002, 4.650558e-002
5.708262e+002, 4.587887e-002
5.727546e+002, 4.574596e-002
5.746831e+002, 4.629737e-002
5.766116e+002, 4.738509e-002
5.785400e+002, 4.877989e-002
5.804685e+002, 5.104698e-002
5.823970e+002, 5.424897e-002
5.843254e+002, 5.800190e-002
5.862539e+002, 6.257754e-002
5.881824e+002, 6.779251e-002
5.901108e+002, 7.294289e-002
5.920393e+002, 7.746921e-002
5.939678e+002, 8.181489e-002
5.958962e+002, 8.458132e-002
5.978247e+002, 8.526137e-002
5.997532e+002, 8.385549e-002
6.016816e+002, 8.024507e-002
6.036101e+002, 7.550983e-002
6.055386e+002, 7.051833e-002
6.074670e+002, 6.513933e-002
6.093955e+002, 6.030676e-002
6.113240e+002, 5.616070e-002
6.132524e+002, 5.271904e-002
6.151809e+002, 4.996293e-002
6.171094e+002, 4.769313e-002
6.190378e+002, 4.627404e-002
6.209663e+002, 4.516985e-002
6.228948e+002, 4.412104e-002
6.248232e+002, 4.362636e-002
6.267517e+002, 4.295470e-002
6.286802e+002, 4.222961e-002
6.306086e+002, 4.098825e-002
6.325371e+002, 3.921426e-002
6.344656e+002, 3.724235e-002
6.363940e+002, 3.560463e-002
6.383225e+002, 3.396621e-002
6.402510e+002, 3.244342e-002
6.421794e+002, 3.115265e-002
6.441079e+002, 3.004210e-002
6.460364e+002, 2.914213e-002
6.479648e+002, 2.888072e-002
6.498933e+002, 2.912032e-002
6.518218e+002, 2.891998e-002
6.537502e+002, 2.850863e-002
6.556787e+002, 2.834358e-002
6.576072e+002, 2.819066e-002
6.595356e+002, 2.784293e-002
6.614641e+002, 2.771251e-002
6.633926e+002, 2.722821e-002
6.653210e+002, 2.653162e-002
6.672495e+002, 2.594018e-002
6.691780e+002, 2.558903e-002
6.711064e+002, 2.521268e-002
6.730349e+002, 2.462629e-002
6.749634e+002, 2.448723e-002
6.768918e+002, 2.427110e-002
6.788203e+002, 2.401903e-002
6.807488e+002, 2.388890e-002
6.826772e+002, 2.385274e-002
6.846057e+002, 2.384057e-002
6.865342e+002, 2.397053e-002
6.884626e+002, 2.405124e-002
6.903911e+002, 2.443077e-002
6.923196e+002, 2.482714e-002
6.942480e+002, 2.525733e-002
6.961765e+002, 2.564166e-002
6.981050e+002, 2.612786e-002
7.000334e+002, 2.658387e-002
7.019619e+002, 2.699093e-002
7.038904e+002, 2.765559e-002
7.058188e+002, 2.820944e-002
7.077473e+002, 2.872517e-002
7.096758e+002, 2.948307e-002
7.116042e+002, 3.011345e-002
7.135327e+002, 3.048512e-002
7.154612e+002, 3.104728e-002
7.173896e+002, 3.184903e-002
7.193181e+002, 3.244846e-002
7.212466e+002, 3.299507e-002
7.231750e+002, 3.372667e-002
7.251035e+002, 3.449631e-002
7.270320e+002, 3.527461e-002
7.289604e+002, 3.626904e-002
7.308889e+002, 3.739408e-002
7.328174e+002, 3.873369e-002
7.347458e+002, 4.017719e-002
7.366743e+002, 4.193315e-002
7.386028e+002, 4.407243e-002
7.405313e+002, 4.664945e-002
7.424597e+002, 4.938168e-002
7.443882e+002, 5.255717e-002
7.463167e+002, 5.636330e-002
7.482451e+002, 6.065156e-002
7.501736e+002, 6.559262e-002
7.521021e+002, 7.167572e-002
7.540305e+002, 7.877295e-002
7.559590e+002, 8.671323e-002
7.578875e+002, 9.453042e-002
7.598159e+002, 1.012106e-001
7.617444e+002, 1.053657e-001
7.636729e+002, 1.058913e-001
7.656013e+002, 1.023704e-001
7.675298e+002, 9.629606e-002
7.694583e+002, 8.995033e-002
7.713867e+002, 8.503478e-002
7.733152e+002, 8.176479e-002
7.752437e+002, 7.966740e-002
7.771721e+002, 7.861802e-002
7.791006e+002, 7.840282e-002
7.810291e+002, 7.841841e-002
7.829575e+002, 7.849233e-002
7.848860e+002, 7.854167e-002
7.868145e+002, 7.817908e-002
7.887429e+002, 7.731387e-002
7.906714e+002, 7.584284e-002
7.925999e+002, 7.350419e-002
7.945283e+002, 7.058450e-002
7.964568e+002, 6.728174e-002
7.983853e+002, 6.375348e-002
8.003137e+002, 6.011458e-002
8.022422e+002, 5.675765e-002
8.041707e+002, 5.383543e-002
8.060991e+002, 5.090866e-002
8.080276e+002, 4.824411e-002
8.099561e+002, 4.581356e-002
8.118845e+002, 4.387219e-002
8.138130e+002, 4.240311e-002
8.157415e+002, 4.094372e-002
8.176699e+002, 3.966391e-002
8.195984e+002, 3.836288e-002
8.215269e+002, 3.715222e-002
8.234553e+002, 3.651048e-002
8.253838e+002, 3.612847e-002
8.273123e+002, 3.568666e-002
8.292407e+002, 3.538442e-002
8.311692e+002, 3.535190e-002
8.330977e+002, 3.531584e-002
8.350261e+002, 3.521286e-002
8.369546e+002, 3.518346e-002
8.388831e+002, 3.499646e-002
8.408115e+002, 3.494191e-002
8.427400e+002, 3.538493e-002
8.446685e+002, 3.569848e-002
8.465969e+002, 3.584835e-002
8.485254e+002, 3.617925e-002
8.504539e+002, 3.660733e-002
8.523823e+002, 3.695468e-002
8.543108e+002, 3.706973e-002
8.562393e+002, 3.765023e-002
8.581677e+002, 3.850764e-002
8.600962e+002, 3.902297e-002
8.620247e+002, 3.937484e-002
8.639531e+002, 3.969232e-002
8.658816e+002, 4.033797e-002
8.678101e+002, 4.117741e-002
8.697385e+002, 4.191158e-002
8.716670e+002, 4.248653e-002
8.735955e+002, 4.269320e-002
8.755239e+002, 4.312608e-002
8.774524e+002, 4.379265e-002
8.793809e+002, 4.432255e-002
8.813093e+002, 4.495034e-002
8.832378e+002, 4.566905e-002
8.851663e+002, 4.640543e-002
8.870947e+002, 4.737023e-002
8.890232e+002, 4.843432e-002
8.909517e+002, 4.946323e-002
8.928801e+002, 5.067882e-002
8.948085e+002, 5.178331e-002
8.967370e+002, 5.263588e-002
8.986655e+002, 5.371474e-002
9.005939e+002, 5.512559e-002
9.025224e+002, 5.676279e-002
9.044509e+002, 5.806220e-002
9.063793e+002, 5.940617e-002
9.083078e+002, 6.106623e-002
9.102363e+002, 6.299808e-002
9.121647e+002, 6.509911e-002
9.140932e+002, 6.717529e-002
9.160217e+002, 6.925845e-002
9.179501e+002, 7.173364e-002
9.198786e+002, 7.432251e-002
9.218071e+002, 7.696807e-002
9.237355e+002, 8.008075e-002
9.256640e+002, 8.369663e-002
9.275925e+002, 8.735819e-002
9.295209e+002, 9.108210e-002
9.314494e+002, 9.516922e-002
9.333779e+002, 9.968237e-002
9.353063e+002, 1.046094e-001
9.372348e+002, 1.097791e-001
9.391633e+002, 1.153448e-001
9.410917e+002, 1.212922e-001
9.430202e+002, 1.277296e-001
9.449487e+002, 1.345387e-001
9.468771e+002, 1.416207e-001
9.488056e+002, 1.492315e-001
9.507341e+002, 1.569717e-001
9.526625e+002, 1.645061e-001
9.545910e+002, 1.724249e-001
9.565195e+002, 1.808100e-001
9.584479e+002, 1.896605e-001
9.603764e+002, 1.991681e-001
9.623049e+002, 2.090863e-001
9.642333e+002, 2.192865e-001
9.661618e+002, 2.301507e-001
9.680903e+002, 2.416455e-001
9.700187e+002, 2.529711e-001
9.719472e+002, 2.643126e-001
9.738757e+002, 2.759105e-001
9.758041e+002, 2.876203e-001
9.777326e+002, 2.988794e-001
9.796611e+002, 3.098107e-001
9.815895e+002, 3.209667e-001
9.835180e+002, 3.315397e-001
9.854465e+002, 3.413914e-001
9.873749e+002, 3.502050e-001
9.893034e+002, 3.579485e-001
9.912319e+002, 3.647006e-001
9.931603e+002, 3.705896e-001
9.950888e+002, 3.744875e-001
9.970173e+002, 3.759717e-001
9.989457e+002, 3.761718e-001
1.000874e+003, 3.747753e-001
1.002803e+003, 3.719419e-001
1.004731e+003, 3.679152e-001
1.006660e+003, 3.631288e-001
1.008588e+003, 3.574643e-001
1.010517e+003, 3.499751e-001
1.012445e+003, 3.399271e-001
1.014373e+003, 3.268756e-001
1.016302e+003, 3.116348e-001
1.018230e+003, 2.958789e-001
1.020159e+003, 2.802602e-001
1.022087e+003, 2.649843e-001
1.024016e+003, 2.502367e-001
1.025944e+003, 2.363142e-001
1.027873e+003, 2.236714e-001
1.029801e+003, 2.117712e-001
1.031730e+003, 2.004774e-001
1.033658e+003, 1.896666e-001
1.035587e+003, 1.792990e-001
1.037515e+003, 1.694871e-001
1.039444e+003, 1.599260e-001
1.041372e+003, 1.506399e-001
1.043301e+003, 1.416325e-001
1.045229e+003, 1.327015e-001
1.047157e+003, 1.239986e-001
1.049086e+003, 1.156373e-001
1.051014e+003, 1.075345e-001
1.052943e+003, 9.956650e-002
1.054871e+003, 9.185532e-002
1.056800e+003, 8.466606e-002
1.058728e+003, 7.795011e-002
1.060657e+003, 7.146911e-002
1.062585e+003, 6.539471e-002
1.064514e+003, 5.996381e-002
1.066442e+003, 5.579958e-002
1.068371e+003, 5.289955e-002
1.070299e+003, 5.066250e-002
1.072228e+003, 4.963696e-002
1.074156e+003, 4.963129e-002
1.076084e+003, 5.069576e-002
1.078013e+003, 5.286501e-002
1.079941e+003, 5.595402e-002
1.081870e+003, 6.044304e-002
1.083798e+003, 6.632465e-002
1.085727e+003, 7.338183e-002
1.087655e+003, 8.124792e-002
1.089584e+003, 8.870526e-002
1.091512e+003, 9.413212e-002
1.093441e+003, 9.648767e-002
1.095369e+003, 9.566328e-002
1.097298e+003, 9.271077e-002
1.099226e+003, 8.867249e-002
1.101155e+003, 8.414338e-002
1.103083e+003, 8.003080e-002
1.105011e+003, 7.686695e-002
1.106940e+003, 7.475613e-002
1.108868e+003, 7.372905e-002
1.110797e+003, 7.452401e-002
1.112725e+003, 7.721970e-002
1.114654e+003, 8.141758e-002
1.116582e+003, 8.636415e-002
1.118511e+003, 9.022690e-002
1.120439e+003, 9.148784e-002
1.122368e+003, 8.969660e-002
1.124296e+003, 8.567418e-002
1.126225e+003, 8.060879e-002
1.128153e+003, 7.507694e-002
1.130082e+003, 6.952881e-002
1.132010e+003, 6.395552e-002
1.133938e+003, 5.827230e-002
1.135867e+003, 5.290682e-002
1.137795e+003, 4.784331e-002
1.139724e+003, 4.306607e-002
1.141652e+003, 3.881344e-002
1.143581e+003, 3.524458e-002
1.145509e+003, 3.223681e-002
1.147438e+003, 2.991796e-002
1.149366e+003, 2.803829e-002
1.151295e+003, 2.640415e-002
1.153223e+003, 2.513365e-002
1.155152e+003, 2.422704e-002
1.157080e+003, 2.343979e-002
1.159009e+003, 2.274572e-002
1.160937e+003, 2.215186e-002
1.162865e+003, 2.159232e-002
1.164794e+003, 2.101663e-002
1.166722e+003, 2.030541e-002
1.168651e+003, 1.968882e-002
1.170579e+003, 1.923104e-002
1.172508e+003, 1.887822e-002
1.174436e+003, 1.850948e-002
1.176365e+003, 1.822693e-002
1.178293e+003, 1.772364e-002
1.180222e+003, 1.713938e-002
1.182150e+003, 1.648827e-002
1.184079e+003, 1.608860e-002
1.186007e+003, 1.579370e-002
1.187936e+003, 1.537254e-002
1.189864e+003, 1.491281e-002
1.191792e+003, 1.439382e-002
1.193721e+003, 1.397367e-002
1.195649e+003, 1.372456e-002
1.197578e+003, 1.339473e-002
1.199506e+003, 1.306008e-002
1.201435e+003, 1.271210e-002
1.203363e+003, 1.228989e-002
1.205292e+003, 1.215318e-002
1.207220e+003, 1.207090e-002
1.209149e+003, 1.169846e-002
1.211077e+003, 1.141839e-002
1.213006e+003, 1.121967e-002
1.214934e+003, 1.090298e-002
1.216863e+003, 1.068519e-002
1.218791e+003, 1.052257e-002
1.220719e+003, 1.030069e-002
1.222648e+003, 1.002758e-002
1.224576e+003, 1.011094e-002
1.226505e+003, 1.007202e-002
1.228433e+003, 9.756714e-003
1.230362e+003, 9.735909e-003
1.232290e+003, 9.584080e-003
1.234219e+003, 9.238810e-003
1.236147e+003, 9.117982e-003
1.238076e+003, 9.073819e-003
1.240004e+003, 9.185645e-003
1.241933e+003, 9.119328e-003
1.243861e+003, 8.807027e-003
1.245790e+003, 8.659251e-003
1.247718e+003, 8.646997e-003
1.249646e+003, 8.424148e-003
1.251575e+003, 8.300507e-003
1.253503e+003, 8.446029e-003
1.255432e+003, 8.377909e-003
1.257360e+003, 8.187810e-003
1.259289e+003, 8.179355e-003
1.261217e+003, 8.254193e-003
1.263146e+003, 8.186688e-003
1.265074e+003, 8.155826e-003
1.267003e+003, 8.121326e-003
1.268931e+003, 8.070002e-003
1.270860e+003, 8.085550e-003
1.272788e+003, 8.092466e-003
1.274717e+003, 7.954398e-003
1.276645e+003, 7.954621e-003
1.278573e+003, 7.856519e-003
1.280502e+003, 7.747169e-003
1.282430e+003, 7.685229e-003
1.284359e+003, 7.650654e-003
1.286287e+003, 7.716657e-003
1.288216e+003, 7.743350e-003
1.290144e+003, 7.649195e-003
1.292073e+003, 7.670451e-003
1.294001e+003, 7.612890e-003
1.295930e+003, 7.593743e-003
1.297858e+003, 7.614450e-003
1.299787e+003, 7.636436e-003
1.301715e+003, 7.748466e-003
1.303644e+003, 7.667729e-003
1.305572e+003, 7.551185e-003
1.307500e+003, 7.696457e-003
1.309429e+003, 7.831072e-003
1.311357e+003, 7.799680e-003
1.313286e+003, 7.787481e-003
1.315214e+003, 7.884657e-003
1.317143e+003, 7.817958e-003
1.319071e+003, 7.779488e-003
1.321000e+003, 7.882718e-003
1.322928e+003, 8.000292e-003
1.324857e+003, 7.933403e-003
1.326785e+003, 7.774793e-003
1.328714e+003, 7.866181e-003
1.330642e+003, 8.023120e-003
1.332571e+003, 8.158149e-003
1.334499e+003, 8.343748e-003
1.336427e+003, 8.348594e-003
1.338356e+003, 8.317247e-003
1.340284e+003, 8.319400e-003
1.342213e+003, 8.458658e-003
1.344141e+003, 8.535029e-003
1.346070e+003, 8.578455e-003
1.347998e+003, 8.836991e-003
1.349927e+003, 8.906044e-003
1.351855e+003, 8.923898e-003
1.353784e+003, 9.253879e-003
1.355712e+003, 9.340612e-003
1.357641e+003, 9.315790e-003
1.359569e+003, 9.479222e-003
1.361498e+003, 9.546359e-003
1.363426e+003, 9.530962e-003
1.365354e+003, 9.605140e-003
1.367283e+003, 9.660178e-003
1.369211e+003, 9.641029e-003
1.371140e+003, 9.677177e-003
1.373068e+003, 9.727313e-003
1.374997e+003, 9.809153e-003
1.376925e+003, 9.888222e-003
1.378854e+003, 1.001994e-002
1.380782e+003, 1.022762e-002
1.382711e+003, 1.040764e-002
1.384639e+003, 1.060733e-002
1.386568e+003, 1.070925e-002
1.388496e+003, 1.062291e-002
1.390424e+003, 1.070239e-002
1.392353e+003, 1.092772e-002
1.394281e+003, 1.112976e-002
1.396210e+003, 1.118850e-002
1.398138e+003, 1.142792e-002
1.400067e+003, 1.148647e-002
1.401995e+003, 1.171439e-002
1.403924e+003, 1.189618e-002
1.405852e+003, 1.193937e-002
1.407781e+003, 1.209339e-002
1.409709e+003, 1.226956e-002
1.411638e+003, 1.252922e-002
1.413566e+003, 1.257724e-002
1.415495e+003, 1.284689e-002
1.417423e+003, 1.304159e-002
1.419351e+003, 1.294454e-002
1.421280e+003, 1.295224e-002
1.423208e+003, 1.312645e-002
1.425137e+003, 1.333019e-002
1.427065e+003, 1.345521e-002
1.428994e+003, 1.350256e-002
1.430922e+003, 1.345185e-002
1.432851e+003, 1.352077e-002
1.434779e+003, 1.374819e-002
1.436708e+003, 1.399705e-002
1.438636e+003, 1.412411e-002
1.440565e+003, 1.439521e-002
1.442493e+003, 1.451227e-002
1.444422e+003, 1.434846e-002
1.446350e+003, 1.399566e-002
1.448278e+003, 1.396519e-002
1.450207e+003, 1.410007e-002
1.452135e+003, 1.412294e-002
1.454064e+003, 1.418079e-002
1.455992e+003, 1.442987e-002
1.457921e+003, 1.469386e-002
1.459849e+003, 1.542570e-002
1.461778e+003, 1.586430e-002
1.463706e+003, 1.581118e-002
1.465635e+003, 1.551590e-002
1.467563e+003, 1.518487e-002
1.469492e+003, 1.468707e-002
1.471420e+003, 1.444558e-002
1.473349e+003, 1.417993e-002
1.475277e+003, 1.412591e-002
1.477205e+003, 1.398198e-002
1.479134e+003, 1.387181e-002
1.481062e+003, 1.387052e-002
1.482991e+003, 1.400973e-002
1.484919e+003, 1.424084e-002
1.486848e+003, 1.437740e-002
1.488776e+003, 1.434246e-002
1.490705e+003, 1.440720e-002
1.492633e+003, 1.464366e-002
1.494562e+003, 1.463926e-002
1.496490e+003, 1.460315e-002
1.498419e+003, 1.475542e-002
1.500347e+003, 1.485449e-002
1.502276e+003, 1.509846e-002
1.504204e+003, 1.526070e-002
1.506132e+003, 1.508891e-002
1.508061e+003, 1.517098e-002
1.509989e+003, 1.544225e-002
1.511918e+003, 1.570773e-002
1.513846e+003, 1.598997e-002
1.515775e+003, 1.613360e-002
1.517703e+003, 1.623738e-002
1.519632e+003, 1.641470e-002
1.521560e+003, 1.610862e-002
1.523489e+003, 1.627974e-002
1.525417e+003, 1.651032e-002
1.527346e+003, 1.661778e-002
1.529274e+003, 1.666194e-002
1.531203e+003, 1.673202e-002
1.533131e+003, 1.692415e-002
1.535059e+003, 1.727768e-002
1.536988e+003, 1.763613e-002
1.538916e+003, 1.762323e-002
1.540845e+003, 1.772150e-002
1.542773e+003, 1.824441e-002
1.544702e+003, 1.860876e-002
1.546630e+003, 1.858362e-002
1.548559e+003, 1.864592e-002
1.550487e+003, 1.880939e-002
1.552416e+003, 1.903228e-002
1.554344e+003, 1.900333e-002
1.556273e+003, 1.930235e-002
1.558201e+003, 1.952996e-002
1.560130e+003, 1.947510e-002
1.562058e+003, 1.968507e-002
1.563986e+003, 1.967093e-002
1.565915e+003, 1.957546e-002
1.567843e+003, 1.974501e-002
1.569772e+003, 1.972373e-002
1.571700e+003, 1.992226e-002
1.573629e+003, 2.028606e-002
1.575557e+003, 2.058814e-002
1.577486e+003, 2.061435e-002
1.579414e+003, 2.073477e-002
1.581343e+003, 2.060956e-002
1.583271e+003, 2.078172e-002
1.585200e+003, 2.103450e-002
1.587128e+003, 2.133033e-002
1.589057e+003, 2.171258e-002
1.590985e+003, 2.182551e-002
1.592913e+003, 2.192724e-002
1.594842e+003, 2.200273e-002
1.596770e+003, 2.221593e-002
1.598699e+003, 2.240564e-002
1.600627e+003, 2.227352e-002
1.602556e+003, 2.230350e-002
1.604484e+003, 2.227958e-002
1.606413e+003, 2.212018e-002
1.608341e+003, 2.239569e-002
1.610270e+003, 2.274992e-002
1.612198e+003, 2.263799e-002
1.614127e+003, 2.249438e-002
1.616055e+003, 2.275516e-002
1.617984e+003, 2.283943e-002
1.619912e+003, 2.291534e-002
1.621840e+003, 2.305698e-002
1.623769e+003, 2.333239e-002
1.625697e+003, 2.364078e-002
1.627626e+003, 2.377019e-002
1.629554e+003, 2.407008e-002
1.631483e+003, 2.448569e-002
1.633411e+003, 2.476888e-002
1.635340e+003, 2.492722e-002
1.637268e+003, 2.527993e-002
1.639197e+003, 2.596255e-002
1.641125e+003, 2.650234e-002
1.643054e+003, 2.688363e-002
1.644982e+003, 2.727522e-002
1.646911e+003, 2.752250e-002
1.648839e+003, 2.809774e-002
1.650767e+003, 2.893989e-002
1.652696e+003, 2.977130e-002
1.654624e+003, 3.057715e-002
1.656553e+003, 3.154668e-002
1.658481e+003, 3.265838e-002
1.660410e+003, 3.413313e-002
1.662338e+003, 3.521675e-002
1.664267e+003, 3.619247e-002
1.666195e+003, 3.784356e-002
1.668124e+003, 3.949606e-002
1.670052e+003, 4.093932e-002
1.671981e+003, 4.289459e-002
1.673909e+003, 4.460941e-002
1.675838e+003, 4.534790e-002
1.677766e+003, 4.614823e-002
1.679694e+003, 4.642858e-002
1.681623e+003, 4.609546e-002
1.683551e+003, 4.574922e-002
1.685480e+003, 4.511572e-002
1.687408e+003, 4.475387e-002
1.689337e+003, 4.409201e-002
1.691265e+003, 4.317589e-002
1.693194e+003, 4.164710e-002
1.695122e+003, 3.912498e-002
1.697051e+003, 3.573329e-002
1.698979e+003, 3.218576e-002
1.700908e+003, 2.800673e-002
1.702836e+003, 2.479245e-002
1.704765e+003, 2.130667e-002
1.706693e+003, 1.820455e-002
1.708621e+003, 1.627434e-002
1.710550e+003, 1.472141e-002
1.712478e+003, 1.340710e-002
1.714407e+003, 1.267104e-002
1.716335e+003, 1.170362e-002
1.718264e+003, 1.045851e-002
1.720192e+003, 9.897233e-003
1.722121e+003, 9.657802e-003
1.724049e+003, 9.363795e-003
1.725978e+003, 9.318086e-003
1.727906e+003, 9.030008e-003
1.729835e+003, 8.581122e-003
1.731763e+003, 8.217919e-003
1.733692e+003, 8.050098e-003
1.735620e+003, 7.970455e-003
1.737548e+003, 8.102201e-003
1.739477e+003, 7.840474e-003
1.741405e+003, 7.785560e-003
1.743334e+003, 7.619921e-003
1.745262e+003, 7.612082e-003
1.747191e+003, 7.868866e-003
1.749119e+003, 7.807939e-003
1.751048e+003, 7.570349e-003
1.752976e+003, 7.577658e-003
1.754905e+003, 7.783267e-003
1.756833e+003, 7.590334e-003
1.758762e+003, 7.547835e-003
1.760690e+003, 8.000844e-003
1.762619e+003, 8.063799e-003
1.764547e+003, 7.584783e-003
1.766475e+003, 7.063172e-003
1.768404e+003, 7.311789e-003
1.770332e+003, 7.837552e-003
1.772261e+003, 7.765064e-003
1.774189e+003, 7.558588e-003
1.776118e+003, 7.443482e-003
1.778046e+003, 7.673208e-003
1.779975e+003, 7.956631e-003
1.781903e+003, 7.934361e-003
1.783832e+003, 7.719104e-003
1.785760e+003, 7.647689e-003
1.787689e+003, 7.806577e-003
1.789617e+003, 7.554074e-003
1.791546e+003, 7.354373e-003
1.793474e+003, 7.209303e-003
1.795402e+003, 7.433315e-003
1.797331e+003, 7.668748e-003
1.799259e+003, 7.661480e-003
1.801188e+003, 7.360448e-003
1.803116e+003, 7.354276e-003
1.805045e+003, 7.213728e-003
1.806973e+003, 6.878547e-003
1.808902e+003, 6.691074e-003
1.810830e+003, 7.063355e-003
1.812759e+003, 7.034328e-003
1.814687e+003, 6.849021e-003
1.816616e+003, 6.575050e-003
1.818544e+003, 6.851809e-003
1.820473e+003, 7.351337e-003
1.822401e+003, 7.515333e-003
1.824329e+003, 7.511137e-003
1.826258e+003, 7.476065e-003
1.828186e+003, 7.210796e-003
1.830115e+003, 6.728613e-003
1.832043e+003, 6.445398e-003
1.833972e+003, 6.552826e-003
1.835900e+003, 6.849984e-003
1.837829e+003, 7.091228e-003
1.839757e+003, 7.102603e-003
1.841686e+003, 7.065107e-003
1.843614e+003, 7.177704e-003
1.845543e+003, 7.174250e-003
1.847471e+003, 7.352924e-003
1.849400e+003, 7.691782e-003
1.851328e+003, 7.516721e-003
1.853256e+003, 6.765003e-003
1.855185e+003, 6.743452e-003
1.857113e+003, 7.054069e-003
1.859042e+003, 7.066651e-003
1.860970e+003, 6.638426e-003
1.862899e+003, 6.523489e-003
1.864827e+003, 6.654241e-003
1.866756e+003, 6.817555e-003
1.868684e+003, 6.851883e-003
1.870613e+003, 6.567651e-003
1.872541e+003, 6.330259e-003
1.874470e+003, 6.634114e-003
1.876398e+003, 7.084540e-003
1.878327e+003, 6.893815e-003
1.880255e+003, 6.908284e-003
1.882183e+003, 6.863227e-003
1.884112e+003, 6.525987e-003
1.886040e+003, 6.699235e-003
1.887969e+003, 7.076302e-003
1.889897e+003, 6.886050e-003
1.891826e+003, 6.731630e-003
1.893754e+003, 7.006737e-003
1.895683e+003, 7.293308e-003
1.897611e+003, 7.394733e-003
1.899540e+003, 7.141316e-003
1.901468e+003, 6.631962e-003
1.903397e+003, 6.290240e-003
1.905325e+003, 6.267744e-003
1.907254e+003, 5.752961e-003
1.909182e+003, 5.733053e-003
1.911110e+003, 6.045558e-003
1.913039e+003, 5.780743e-003
1.914967e+003, 5.223732e-003
1.916896e+003, 4.328345e-003
1.918824e+003, 4.341060e-003
1.920753e+003, 4.462714e-003
1.922681e+003, 4.595754e-003
1.924610e+003, 4.885038e-003
1.926538e+003, 4.572401e-003
1.928467e+003, 4.516514e-003
1.930395e+003, 4.458525e-003
1.932324e+003, 3.929496e-003
1.934252e+003, 3.753500e-003
1.936181e+003, 4.069678e-003
1.938109e+003, 3.896292e-003
1.940037e+003, 2.639820e-003
1.941966e+003, 1.940448e-003
1.943894e+003, 2.434394e-003
1.945823e+003, 2.005472e-003
1.947751e+003, 1.871155e-003
1.949680e+003, 2.581587e-003
1.951608e+003, 3.227402e-003
1.953537e+003, 2.575258e-003
1.955465e+003, 2.290765e-003
1.957394e+003, 8.578385e-004
1.959322e+003, -5.216354e-004
1.961251e+003, -6.407280e-004
1.963179e+003, -4.826221e-004
1.965108e+003, -4.331632e-004
1.967036e+003, -8.330723e-005
1.968964e+003, -5.385861e-004
1.970893e+003, -2.271622e-003
1.972821e+003, -2.614592e-003
1.974750e+003, -1.570196e-003
1.976678e+003, -5.931407e-004
1.978607e+003, 9.588525e-005
1.980535e+003, -9.584298e-005
1.982464e+003, 7.084243e-004
1.984392e+003, 1.104112e-003
1.986321e+003, 8.371721e-004
1.988249e+003, 1.870041e-003
1.990178e+003, 2.467843e-003
1.992106e+003, 1.881452e-003
1.994035e+003, 9.803959e-004
1.995963e+003, 8.443492e-004
1.997891e+003, 1.311557e-003
1.999820e+003, 1.037301e-003
2.001748e+003, -8.887723e-004
2.003677e+003, -1.753928e-003
2.005605e+003, -1.025443e-003
2.007534e+003, -1.092928e-003
2.009462e+003, -1.766178e-003
2.011391e+003, -1.532880e-003
2.013319e+003, -6.547684e-004
2.015248e+003, -5.489441e-004
2.017176e+003, -1.666580e-003
2.019105e+003, -1.721990e-003
2.021033e+003, -1.444429e-003
2.022962e+003, -1.504112e-003
2.024890e+003, -2.171237e-003
2.026818e+003, -2.946910e-003
2.028747e+003, -2.400837e-003
2.030675e+003, -1.000773e-003
2.032604e+003, 2.468787e-005
2.034532e+003, 1.057037e-003
2.036461e+003, 1.227952e-003
2.038389e+003, 3.286099e-004
2.040318e+003, 5.782174e-004
2.042246e+003, 3.201857e-004
2.044175e+003, -2.515800e-004
2.046103e+003, 3.255715e-006
2.048032e+003, 3.809920e-004
2.049960e+003, 1.436303e-003
2.051889e+003, 2.093456e-003
2.053817e+003, 3.570270e-003
2.055746e+003, 4.309387e-003
2.057674e+003, 4.733003e-003
2.059603e+003, 4.117406e-003
2.061531e+003, 2.839341e-003
2.063459e+003, 3.154038e-003
2.065388e+003, 3.708472e-003
2.067316e+003, 3.599329e-003
2.069245e+003, 4.152384e-003
2.071173e+003, 4.164215e-003
2.073102e+003, 3.474888e-003
2.075030e+003, 3.784753e-003
2.076959e+003, 5.496911e-003
2.078887e+003, 5.632762e-003
2.080816e+003, 6.036811e-003
2.082744e+003, 7.136079e-003
2.084673e+003, 5.972598e-003
2.086601e+003, 5.082057e-003
2.088530e+003, 6.195307e-003
2.090458e+003, 6.345406e-003
2.092386e+003, 6.115209e-003
2.094315e+003, 6.113443e-003
2.096243e+003, 6.214924e-003
2.098172e+003, 7.015314e-003
2.100100e+003, 7.282208e-003
2.102029e+003, 8.019555e-003
2.103957e+003, 8.438351e-003
2.105886e+003, 7.575760e-003
2.107814e+003, 7.479356e-003
2.109743e+003, 8.339355e-003
2.111671e+003, 9.133637e-003
2.113600e+003, 9.444735e-003
2.115528e+003, 9.287009e-003
2.117457e+003, 8.713656e-003
2.119385e+003, 8.435619e-003
2.121313e+003, 8.670019e-003
2.123242e+003, 8.016528e-003
2.125170e+003, 7.100492e-003
2.127099e+003, 7.320216e-003
2.129027e+003, 7.479531e-003
2.130956e+003, 6.265036e-003
2.132884e+003, 5.177952e-003
2.134813e+003, 6.425426e-003
2.136741e+003, 7.584883e-003
2.138670e+003, 7.623060e-003
2.140598e+003, 6.364420e-003
2.142527e+003, 6.412566e-003
2.144455e+003, 7.211288e-003
2.146384e+003, 5.901530e-003
2.148312e+003, 5.253263e-003
2.150240e+003, 7.111336e-003
2.152169e+003, 7.551274e-003
2.154097e+003, 6.346177e-003
2.156026e+003, 6.038274e-003
2.157954e+003, 8.276601e-003
2.159883e+003, 1.144578e-002
2.161811e+003, 9.967430e-003
2.163740e+003, 8.217192e-003
2.165668e+003, 9.699624e-003
2.167597e+003, 1.166022e-002
2.169525e+003, 1.209337e-002
2.171454e+003, 1.024225e-002
2.173382e+003, 7.804158e-003
2.175311e+003, 8.413981e-003
2.177239e+003, 8.815886e-003
2.179167e+003, 7.584545e-003
2.181096e+003, 8.382522e-003
2.183024e+003, 9.837774e-003
2.184953e+003, 8.976799e-003
2.186881e+003, 8.460816e-003
2.188810e+003, 9.916876e-003
2.190738e+003, 9.965481e-003
2.192667e+003, 1.024908e-002
2.194595e+003, 1.027475e-002
2.196524e+003, 9.752989e-003
2.198452e+003, 9.816239e-003
2.200381e+003, 1.037826e-002
2.202309e+003, 8.664179e-003
2.204238e+003, 6.781373e-003
2.206166e+003, 6.473859e-003
2.208094e+003, 7.419463e-003
2.210023e+003, 8.334733e-003
2.211951e+003, 9.067467e-003
2.213880e+003, 9.128497e-003
2.215808e+003, 8.814143e-003
2.217737e+003, 9.155829e-003
2.219665e+003, 1.088793e-002
2.221594e+003, 1.027768e-002
2.223522e+003, 1.013038e-002
2.225451e+003, 1.087666e-002
2.227379e+003, 1.085329e-002
2.229308e+003, 1.028274e-002
2.231236e+003, 1.006754e-002
2.233165e+003, 1.060965e-002
2.235093e+003, 1.032601e-002
2.237021e+003, 9.965266e-003
2.238950e+003, 9.675616e-003
2.240878e+003, 9.281523e-003
2.242807e+003, 8.493147e-003
2.244735e+003, 8.479408e-003
2.246664e+003, 1.049268e-002
2.248592e+003, 1.269811e-002
2.250521e+003, 1.227042e-002
2.252449e+003, 1.154421e-002
2.254378e+003, 1.179831e-002
2.256306e+003, 1.174588e-002
2.258235e+003, 1.111049e-002
2.260163e+003, 1.077132e-002
2.262092e+003, 1.115716e-002
2.264020e+003, 1.146484e-002
2.265948e+003, 1.228039e-002
2.267877e+003, 1.243028e-002
2.269805e+003, 1.183206e-002
2.271734e+003, 1.174621e-002
2.273662e+003, 1.221670e-002
2.275591e+003, 1.333826e-002
2.277519e+003, 1.492546e-002
2.279448e+003, 1.587090e-002
2.281376e+003, 1.530869e-002
2.283305e+003, 1.432350e-002
2.285233e+003, 1.401148e-002
2.287162e+003, 1.422437e-002
2.289090e+003, 1.478074e-002
2.291019e+003, 1.505366e-002
2.292947e+003, 1.401896e-002
2.294875e+003, 1.375424e-002
2.296804e+003, 1.413307e-002
2.298732e+003, 1.443613e-002
2.300661e+003, 1.487742e-002
2.302589e+003, 1.473877e-002
2.304518e+003, 1.431455e-002
2.306446e+003, 1.401645e-002
2.308375e+003, 1.394190e-002
2.310303e+003, 1.443148e-002
2.312232e+003, 1.397852e-002
2.314160e+003, 1.431532e-002
2.316089e+003, 1.518749e-002
2.318017e+003, 1.533492e-002
2.319946e+003, 1.566327e-002
2.321874e+003, 1.595929e-002
2.323802e+003, 1.584422e-002
2.325731e+003, 1.540470e-002
2.327659e+003, 1.414786e-002
2.329588e+003, 1.314461e-002
2.331516e+003, 1.360099e-002
2.333445e+003, 1.409345e-002
2.335373e+003, 1.380695e-002
2.337302e+003, 1.365067e-002
2.339230e+003, 1.367666e-002
2.341159e+003, 1.372745e-002
2.343087e+003, 1.350760e-002
2.345016e+003, 1.355988e-002
2.346944e+003, 1.343103e-002
2.348873e+003, 1.319501e-002
2.350801e+003, 1.273031e-002
2.352729e+003, 1.283219e-002
2.354658e+003, 1.290184e-002
2.356586e+003, 1.274048e-002
2.358515e+003, 1.261494e-002
2.360443e+003, 1.203381e-002
2.362372e+003, 1.174965e-002
2.364300e+003, 1.165710e-002
2.366229e+003, 1.189480e-002
2.368157e+003, 1.189372e-002
2.370086e+003, 1.236420e-002
2.372014e+003, 1.256475e-002
2.373942e+003, 1.186548e-002
2.375871e+003, 1.206585e-002
2.377799e+003, 1.239407e-002
2.379728e+003, 1.221997e-002
2.381656e+003, 1.224984e-002
2.383585e+003, 1.228708e-002
2.385513e+003, 1.178568e-002
2.387442e+003, 1.151553e-002
2.389370e+003, 1.136128e-002
2.391299e+003, 1.192701e-002
2.393227e+003, 1.240120e-002
2.395156e+003, 1.203300e-002
2.397084e+003, 1.108914e-002
2.399012e+003, 1.070896e-002
2.400941e+003, 1.115795e-002
2.402869e+003, 1.123684e-002
2.404798e+003, 1.103034e-002
2.406726e+003, 1.105659e-002
2.408655e+003, 1.137796e-002
2.410583e+003, 1.194054e-002
2.412512e+003, 1.216157e-002
2.414440e+003, 1.172077e-002
2.416369e+003, 1.155710e-002
2.418297e+003, 1.148396e-002
2.420226e+003, 1.171893e-002
2.422154e+003, 1.214245e-002
2.424083e+003, 1.179001e-002
2.426011e+003, 1.190507e-002
2.427939e+003, 1.270232e-002
2.429868e+003, 1.239013e-002
2.431796e+003, 1.149662e-002
2.433725e+003, 1.183762e-002
2.435653e+003, 1.239755e-002
2.437582e+003, 1.223306e-002
2.439510e+003, 1.305613e-002
2.441439e+003, 1.339068e-002
2.443367e+003, 1.267151e-002
2.445296e+003, 1.272565e-002
2.447224e+003, 1.259853e-002
2.449153e+003, 1.232475e-002
2.451081e+003, 1.322441e-002
2.453010e+003, 1.420251e-002
2.454938e+003, 1.342889e-002
2.456866e+003, 1.289866e-002
2.458795e+003, 1.239131e-002
2.460723e+003, 1.237242e-002
2.462652e+003, 1.298171e-002
2.464580e+003, 1.277199e-002
2.466509e+003, 1.220686e-002
2.468437e+003, 1.159544e-002
2.470366e+003, 1.188711e-002
2.472294e+003, 1.296386e-002
2.474223e+003, 1.329134e-002
2.476151e+003, 1.320862e-002
2.478080e+003, 1.342351e-002
2.480008e+003, 1.400901e-002
2.481937e+003, 1.397157e-002
2.483865e+003, 1.375398e-002
2.485793e+003, 1.332160e-002
2.487722e+003, 1.305495e-002
2.489650e+003, 1.389019e-002
2.491579e+003, 1.404716e-002
2.493507e+003, 1.292253e-002
2.495436e+003, 1.294733e-002
2.497364e+003, 1.335292e-002
2.499293e+003, 1.377237e-002
2.501221e+003, 1.400150e-002
2.503150e+003, 1.324235e-002
2.505078e+003, 1.306599e-002
2.507007e+003, 1.328566e-002
2.508935e+003, 1.323094e-002
2.510864e+003, 1.334867e-002
2.512792e+003, 1.357973e-002
2.514720e+003, 1.327367e-002
2.516649e+003, 1.322884e-002
2.518577e+003, 1.374161e-002
2.520506e+003, 1.374711e-002
2.522434e+003, 1.349462e-002
2.524363e+003, 1.278345e-002
2.526291e+003, 1.223730e-002
2.528220e+003, 1.248191e-002
2.530148e+003, 1.356045e-002
2.532077e+003, 1.443943e-002
2.534005e+003, 1.413907e-002
2.535934e+003, 1.435928e-002
2.537862e+003, 1.495558e-002
2.539791e+003, 1.495345e-002
2.541719e+003, 1.396602e-002
2.543647e+003, 1.379231e-002
2.545576e+003, 1.439851e-002
2.547504e+003, 1.452464e-002
2.549433e+003, 1.422256e-002
2.551361e+003, 1.468225e-002
2.553290e+003, 1.512579e-002
2.555218e+003, 1.441183e-002
2.557147e+003, 1.402154e-002
2.559075e+003, 1.508312e-002
2.561004e+003, 1.538519e-002
2.562932e+003, 1.508088e-002
2.564861e+003, 1.537081e-002
2.566789e+003, 1.522657e-002
2.568718e+003, 1.486282e-002
2.570646e+003, 1.522286e-002
2.572574e+003, 1.590518e-002
2.574503e+003, 1.573673e-002
2.576431e+003, 1.513862e-002
2.578360e+003, 1.506153e-002
2.580288e+003, 1.559121e-002
2.582217e+003, 1.558992e-002
2.584145e+003, 1.542007e-002
2.586074e+003, 1.611788e-002
2.588002e+003, 1.628622e-002
2.589931e+003, 1.594882e-002
2.591859e+003, 1.547000e-002
2.593788e+003, 1.499858e-002
2.595716e+003, 1.474590e-002
2.597645e+003, 1.510962e-002
2.599573e+003, 1.534016e-002
2.601501e+003, 1.642482e-002
2.603430e+003, 1.689607e-002
2.605358e+003, 1.662738e-002
2.607287e+003, 1.613655e-002
2.609215e+003, 1.650153e-002
2.611144e+003, 1.710259e-002
2.613072e+003, 1.707706e-002
2.615001e+003, 1.746705e-002
2.616929e+003, 1.812360e-002
2.618858e+003, 1.749105e-002
2.620786e+003, 1.656207e-002
2.622715e+003, 1.723608e-002
2.624643e+003, 1.804642e-002
2.626572e+003, 1.788208e-002
2.628500e+003, 1.763150e-002
2.630428e+003, 1.762484e-002
2.632357e+003, 1.784548e-002
2.634285e+003, 1.806312e-002
2.636214e+003, 1.809804e-002
2.638142e+003, 1.798438e-002
2.640071e+003, 1.762793e-002
2.641999e+003, 1.735388e-002
2.643928e+003, 1.741249e-002
2.645856e+003, 1.826427e-002
2.647785e+003, 1.843141e-002
2.649713e+003, 1.814039e-002
2.651642e+003, 1.802811e-002
2.653570e+003, 1.830540e-002
2.655499e+003, 1.859433e-002
2.657427e+003, 1.852523e-002
2.659355e+003, 1.851794e-002
2.661284e+003, 1.913576e-002
2.663212e+003, 1.924678e-002
2.665141e+003, 1.884341e-002
2.667069e+003, 1.873807e-002
2.668998e+003, 1.917042e-002
2.670926e+003, 1.965765e-002
2.672855e+003, 1.993779e-002
2.674783e+003, 1.989200e-002
2.676712e+003, 1.930793e-002
2.678640e+003, 1.874310e-002
2.680569e+003, 1.925169e-002
2.682497e+003, 2.048131e-002
2.684426e+003, 2.062990e-002
2.686354e+003, 1.989060e-002
2.688282e+003, 1.958689e-002
2.690211e+003, 1.985723e-002
2.692139e+003, 1.976595e-002
2.694068e+003, 1.989282e-002
2.695996e+003, 2.026558e-002
2.697925e+003, 2.044668e-002
2.699853e+003, 2.064615e-002
2.701782e+003, 2.105726e-002
2.703710e+003, 2.085575e-002
2.705639e+003, 2.061906e-002
2.707567e+003, 2.096388e-002
2.709496e+003, 2.159299e-002
2.711424e+003, 2.200145e-002
2.713353e+003, 2.218606e-002
2.715281e+003, 2.265747e-002
2.717209e+003, 2.210430e-002
2.719138e+003, 2.139168e-002
2.721066e+003, 2.184748e-002
2.722995e+003, 2.207556e-002
2.724923e+003, 2.187876e-002
2.726852e+003, 2.202346e-002
2.728780e+003, 2.230177e-002
2.730709e+003, 2.266004e-002
2.732637e+003, 2.332013e-002
2.734566e+003, 2.387346e-002
2.736494e+003, 2.369740e-002
2.738423e+003, 2.341878e-002
2.740351e+003, 2.332860e-002
2.742280e+003, 2.334240e-002
2.744208e+003, 2.377875e-002
2.746136e+003, 2.408573e-002
2.748065e+003, 2.416984e-002
2.749993e+003, 2.443519e-002
2.751922e+003, 2.449921e-002
2.753850e+003, 2.467860e-002
2.755779e+003, 2.501821e-002
2.757707e+003, 2.532838e-002
2.759636e+003, 2.582799e-002
2.761564e+003, 2.598835e-002
2.763493e+003, 2.587630e-002
2.765421e+003, 2.565835e-002
2.767350e+003, 2.611608e-002
2.769278e+003, 2.720161e-002
2.771207e+003, 2.731742e-002
2.773135e+003, 2.741066e-002
2.775063e+003, 2.735997e-002
2.776992e+003, 2.737711e-002
2.778920e+003, 2.733237e-002
2.780849e+003, 2.752075e-002
2.782777e+003, 2.764287e-002
2.784706e+003, 2.719923e-002
2.786634e+003, 2.752156e-002
2.788563e+003, 2.802505e-002
2.790491e+003, 2.773728e-002
2.792420e+003, 2.741591e-002
2.794348e+003, 2.734709e-002
2.796277e+003, 2.821184e-002
2.798205e+003, 2.890046e-002
2.800134e+003, 2.910109e-002
2.802062e+003, 2.918818e-002
2.803990e+003, 2.955195e-002
2.805919e+003, 3.002141e-002
2.807847e+003, 3.008876e-002
2.809776e+003, 2.997174e-002
2.811704e+003, 3.059313e-002
2.813633e+003, 3.100400e-002
2.815561e+003, 3.099404e-002
2.817490e+003, 3.121316e-002
2.819418e+003, 3.153272e-002
2.821347e+003, 3.149549e-002
2.823275e+003, 3.169550e-002
2.825204e+003, 3.212335e-002
2.827132e+003, 3.302645e-002
2.829061e+003, 3.340172e-002
2.830989e+003, 3.309828e-002
2.832917e+003, 3.289601e-002
2.834846e+003, 3.299144e-002
2.836774e+003, 3.361908e-002
2.838703e+003, 3.459346e-002
2.840631e+003, 3.475396e-002
2.842560e+003, 3.497916e-002
2.844488e+003, 3.516395e-002
2.846417e+003, 3.546489e-002
2.848345e+003, 3.611293e-002
2.850274e+003, 3.746643e-002
2.852202e+003, 3.797947e-002
2.854131e+003, 3.745299e-002
2.856059e+003, 3.703750e-002
2.857988e+003, 3.724298e-002
2.859916e+003, 3.697291e-002
2.861844e+003, 3.733771e-002
2.863773e+003, 3.765513e-002
2.865701e+003, 3.795707e-002
2.867630e+003, 3.841063e-002
2.869558e+003, 3.842651e-002
2.871487e+003, 3.878454e-002
2.873415e+003, 3.874244e-002
2.875344e+003, 3.919581e-002
2.877272e+003, 3.951095e-002
2.879201e+003, 4.001259e-002
2.881129e+003, 4.103895e-002
2.883058e+003, 4.120965e-002
2.884986e+003, 4.133162e-002
2.886915e+003, 4.175971e-002
2.888843e+003, 4.112603e-002
2.890771e+003, 4.124903e-002
2.892700e+003, 4.212315e-002
2.894628e+003, 4.241103e-002
2.896557e+003, 4.241901e-002
2.898485e+003, 4.268309e-002
2.900414e+003, 4.354728e-002
2.902342e+003, 4.476012e-002
2.904271e+003, 4.492512e-002
2.906199e+003, 4.509884e-002
2.908128e+003, 4.580758e-002
2.910056e+003, 4.653712e-002
2.911985e+003, 4.681480e-002
2.913913e+003, 4.841856e-002
2.915842e+003, 4.849757e-002
2.917770e+003, 4.761922e-002
2.919698e+003, 4.798987e-002
2.921627e+003, 4.829067e-002
2.923555e+003, 4.790396e-002
2.925484e+003, 4.748183e-002
2.927412e+003, 4.755865e-002
2.929341e+003, 4.758063e-002
2.931269e+003, 4.815743e-002
2.933198e+003, 4.904575e-002
2.935126e+003, 4.914043e-002
2.937055e+003, 4.899498e-002
2.938983e+003, 4.922767e-002
2.940912e+003, 4.936466e-002
2.942840e+003, 5.035054e-002
2.944769e+003, 5.093798e-002
2.946697e+003, 5.147585e-002
2.948625e+003, 5.083004e-002
2.950554e+003, 5.029367e-002
2.952482e+003, 5.037764e-002
2.954411e+003, 5.103646e-002
2.956339e+003, 5.214742e-002
2.958268e+003, 5.198856e-002
2.960196e+003, 5.238391e-002
2.962125e+003, 5.340518e-002
2.964053e+003, 5.394933e-002
2.965982e+003, 5.418977e-002
2.967910e+003, 5.461989e-002
2.969839e+003, 5.508969e-002
2.971767e+003, 5.586899e-002
2.973696e+003, 5.697580e-002
2.975624e+003, 5.686829e-002
2.977552e+003, 5.610569e-002
2.979481e+003, 5.683300e-002
2.981409e+003, 5.758303e-002
2.983338e+003, 5.771419e-002
2.985266e+003, 5.766019e-002
2.987195e+003, 5.748718e-002
2.989123e+003, 5.902205e-002
2.991052e+003, 6.021007e-002
2.992980e+003, 5.913837e-002
2.994909e+003, 5.905161e-002
2.996837e+003, 6.024721e-002
2.998766e+003, 6.048548e-002
3.000694e+003, 6.000293e-002
3.002623e+003, 6.067428e-002
3.004551e+003, 6.139538e-002
3.006479e+003, 6.123118e-002
3.008408e+003, 6.124978e-002
3.010336e+003, 6.180713e-002
3.012265e+003, 6.257148e-002
3.014193e+003, 6.374409e-002
3.016122e+003, 6.385419e-002
3.018050e+003, 6.354187e-002
3.019979e+003, 6.356627e-002
3.021907e+003, 6.335960e-002
3.023836e+003, 6.260392e-002
3.025764e+003, 6.226398e-002
3.027693e+003, 6.266651e-002
3.029621e+003, 6.362837e-002
3.031550e+003, 6.449245e-002
3.033478e+003, 6.462144e-002
3.035406e+003, 6.391411e-002
3.037335e+003, 6.355262e-002
3.039263e+003, 6.409765e-002
3.041192e+003, 6.412563e-002
3.043120e+003, 6.407113e-002
3.045049e+003, 6.377214e-002
3.046977e+003, 6.294984e-002
3.048906e+003, 6.252783e-002
3.050834e+003, 6.208811e-002
3.052763e+003, 6.215413e-002
3.054691e+003, 6.231071e-002
3.056620e+003, 6.222108e-002
3.058548e+003, 6.226656e-002
3.060477e+003, 6.218576e-002
3.062405e+003, 6.233921e-002
3.064333e+003, 6.224670e-002
3.066262e+003, 6.122122e-002
3.068190e+003, 6.085741e-002
3.070119e+003, 6.106261e-002
3.072047e+003, 6.102522e-002
3.073976e+003, 6.122475e-002
3.075904e+003, 6.187925e-002
3.077833e+003, 6.178242e-002
3.079761e+003, 6.179379e-002
3.081690e+003, 6.178107e-002
3.083618e+003, 6.014335e-002
3.085547e+003, 5.989153e-002
3.087475e+003, 6.037433e-002
3.089404e+003, 6.001770e-002
3.091332e+003, 5.997431e-002
3.093260e+003, 6.000707e-002
3.095189e+003, 6.017521e-002
3.097117e+003, 6.027256e-002
3.099046e+003, 6.005139e-002
3.100974e+003, 6.039535e-002
3.102903e+003, 6.023018e-002
3.104831e+003, 5.944306e-002
3.106760e+003, 5.849842e-002
3.108688e+003, 5.874215e-002
3.110617e+003, 5.843296e-002
3.112545e+003, 5.679298e-002
3.114474e+003, 5.659493e-002
3.116402e+003, 5.814389e-002
3.118331e+003, 5.832694e-002
3.120259e+003, 5.670430e-002
3.122188e+003, 5.564041e-002
3.124116e+003, 5.633167e-002
3.126044e+003, 5.662528e-002
3.127973e+003, 5.612653e-002
3.129901e+003, 5.544682e-002
3.131830e+003, 5.551727e-002
3.133758e+003, 5.478564e-002
3.135687e+003, 5.429118e-002
3.137615e+003, 5.501476e-002
3.139544e+003, 5.556647e-002
3.141472e+003, 5.557027e-002
3.143401e+003, 5.472581e-002
3.145329e+003, 5.469015e-002
3.147258e+003, 5.445379e-002
3.149186e+003, 5.343591e-002
3.151115e+003, 5.377109e-002
3.153043e+003, 5.364108e-002
3.154971e+003, 5.289389e-002
3.156900e+003, 5.210147e-002
3.158828e+003, 5.192604e-002
3.160757e+003, 5.202087e-002
3.162685e+003, 5.251488e-002
3.164614e+003, 5.229150e-002
3.166542e+003, 5.139279e-002
3.168471e+003, 5.099700e-002
3.170399e+003, 5.127696e-002
3.172328e+003, 5.100957e-002
3.174256e+003, 5.016462e-002
3.176185e+003, 4.920812e-002
3.178113e+003, 4.778320e-002
3.180042e+003, 4.762122e-002
3.181970e+003, 4.829383e-002
3.183898e+003, 4.861598e-002
3.185827e+003, 4.852523e-002
3.187755e+003, 4.759151e-002
3.189684e+003, 4.651396e-002
3.191612e+003, 4.645026e-002
3.193541e+003, 4.716621e-002
3.195469e+003, 4.715303e-002
3.197398e+003, 4.685932e-002
3.199326e+003, 4.618613e-002
3.201255e+003, 4.527551e-002
3.203183e+003, 4.579112e-002
3.205112e+003, 4.570466e-002
3.207040e+003, 4.510401e-002
3.208969e+003, 4.566741e-002
3.210897e+003, 4.610264e-002
3.212825e+003, 4.571083e-002
3.214754e+003, 4.515032e-002
3.216682e+003, 4.439934e-002
3.218611e+003, 4.319058e-002
3.220539e+003, 4.304197e-002
3.222468e+003, 4.249509e-002
3.224396e+003, 4.231222e-002
3.226325e+003, 4.246781e-002
3.228253e+003, 4.167229e-002
3.230182e+003, 4.044718e-002
3.232110e+003, 4.022316e-002
3.234039e+003, 3.974219e-002
3.235967e+003, 3.920457e-002
3.237896e+003, 3.865458e-002
3.239824e+003, 3.930137e-002
3.241752e+003, 4.003090e-002
3.243681e+003, 4.012288e-002
3.245609e+003, 3.943516e-002
3.247538e+003, 3.860759e-002
3.249466e+003, 3.776069e-002
3.251395e+003, 3.600234e-002
3.253323e+003, 3.529582e-002
3.255252e+003, 3.481239e-002
3.257180e+003, 3.537184e-002
3.259109e+003, 3.587647e-002
3.261037e+003, 3.554319e-002
3.262966e+003, 3.571547e-002
3.264894e+003, 3.513825e-002
3.266823e+003, 3.464101e-002
3.268751e+003, 3.482444e-002
3.270679e+003, 3.465462e-002
3.272608e+003, 3.455418e-002
3.274536e+003, 3.480032e-002
3.276465e+003, 3.479030e-002
3.278393e+003, 3.454527e-002
3.280322e+003, 3.374723e-002
3.282250e+003, 3.324890e-002
3.284179e+003, 3.281101e-002
3.286107e+003, 3.124047e-002
3.288036e+003, 3.105379e-002
3.289964e+003, 3.124864e-002
3.291893e+003, 3.072593e-002
3.293821e+003, 2.964288e-002
3.295750e+003, 2.916279e-002
3.297678e+003, 3.082731e-002
3.299606e+003, 3.064814e-002
3.301535e+003, 2.915565e-002
3.303463e+003, 2.998096e-002
3.305392e+003, 3.219224e-002
3.307320e+003, 3.127561e-002
3.309249e+003, 2.973368e-002
3.311177e+003, 2.889967e-002
3.313106e+003, 2.909747e-002
3.315034e+003, 2.989142e-002
3.316963e+003, 2.973402e-002
3.318891e+003, 2.936408e-002
3.320820e+003, 3.045014e-002
3.322748e+003, 3.058758e-002
3.324677e+003, 2.982103e-002
3.326605e+003, 2.928668e-002
3.328533e+003, 2.907280e-002
3.330462e+003, 2.936712e-002
3.332390e+003, 2.997256e-002
3.334319e+003, 2.971323e-002
3.336247e+003, 2.921175e-002
3.338176e+003, 2.977457e-002
3.340104e+003, 3.060130e-002
3.342033e+003, 2.965730e-002
3.343961e+003, 2.941026e-002
3.345890e+003, 3.036121e-002
3.347818e+003, 3.007025e-002
3.349747e+003, 2.891313e-002
3.351675e+003, 2.905328e-002
3.353604e+003, 2.934924e-002
3.355532e+003, 2.898389e-002
3.357460e+003, 2.807876e-002
3.359389e+003, 2.825964e-002
3.361317e+003, 2.899841e-002
3.363246e+003, 2.967524e-002
3.365174e+003, 3.020706e-002
3.367103e+003, 2.863323e-002
3.369031e+003, 2.756242e-002
3.370960e+003, 2.760447e-002
3.372888e+003, 2.771263e-002
3.374817e+003, 2.839774e-002
3.376745e+003, 2.897638e-002
3.378674e+003, 2.892453e-002
3.380602e+003, 2.922167e-002
3.382531e+003, 2.905027e-002
3.384459e+003, 2.913109e-002
3.386387e+003, 2.868874e-002
3.388316e+003, 2.725706e-002
3.390244e+003, 2.654318e-002
3.392173e+003, 2.727650e-002
3.394101e+003, 2.856213e-002
3.396030e+003, 2.877265e-002
3.397958e+003, 2.833275e-002
3.399887e+003, 2.846239e-002
3.401815e+003, 2.775337e-002
3.403744e+003, 2.813352e-002
3.405672e+003, 2.897764e-002
3.407601e+003, 2.794345e-002
3.409529e+003, 2.637129e-002
3.411458e+003, 2.682544e-002
3.413386e+003, 2.743728e-002
3.415314e+003, 2.691393e-002
3.417243e+003, 2.682297e-002
3.419171e+003, 2.662981e-002
3.421100e+003, 2.649905e-002
3.423028e+003, 2.719485e-002
3.424957e+003, 2.691202e-002
3.426885e+003, 2.624748e-002
3.428814e+003, 2.604446e-002
3.430742e+003, 2.458932e-002
3.432671e+003, 2.509999e-002
3.434599e+003, 2.704142e-002
3.436528e+003, 2.727069e-002
3.438456e+003, 2.602009e-002
3.440385e+003, 2.570991e-002
3.442313e+003, 2.622780e-002
3.444241e+003, 2.603301e-002
3.446170e+003, 2.555681e-002
3.448098e+003, 2.571085e-002
3.450027e+003, 2.579354e-002
3.451955e+003, 2.643235e-002
3.453884e+003, 2.581886e-002
3.455812e+003, 2.502609e-002
3.457741e+003, 2.425743e-002
3.459669e+003, 2.366137e-002
3.461598e+003, 2.477814e-002
3.463526e+003, 2.673305e-002
3.465455e+003, 2.631201e-002
3.467383e+003, 2.414242e-002
3.469312e+003, 2.500971e-002
3.471240e+003, 2.612081e-002
3.473168e+003, 2.663242e-002
3.475097e+003, 2.723209e-002
3.477025e+003, 2.766795e-002
3.478954e+003, 2.721296e-002
3.480882e+003, 2.812062e-002
3.482811e+003, 2.932795e-002
3.484739e+003, 2.873963e-002
3.486668e+003, 2.877284e-002
3.488596e+003, 2.876930e-002
3.490525e+003, 2.755225e-002
3.492453e+003, 2.855343e-002
3.494382e+003, 2.996342e-002
3.496310e+003, 3.035798e-002
3.498239e+003, 2.956003e-002
3.500167e+003, 3.027332e-002
3.502095e+003, 3.110131e-002
3.504024e+003, 2.986408e-002
3.505952e+003, 2.908760e-002
3.507881e+003, 3.087232e-002
3.509809e+003, 3.225649e-002
3.511738e+003, 3.330610e-002
3.513666e+003, 3.377795e-002
3.515595e+003, 3.521252e-002
3.517523e+003, 3.716947e-002
3.519452e+003, 3.801084e-002
3.521380e+003, 4.076738e-002
3.523309e+003, 4.495864e-002
3.525237e+003, 4.941742e-002
3.527166e+003, 5.125310e-002
3.529094e+003, 5.246560e-002
3.531022e+003, 5.778567e-002
3.532951e+003, 6.275561e-002
3.534879e+003, 6.641731e-002
3.536808e+003, 7.091372e-002
3.538736e+003, 7.590522e-002
3.540665e+003, 8.169106e-002
3.542593e+003, 8.681720e-002
3.544522e+003, 9.321301e-002
3.546450e+003, 1.019727e-001
3.548379e+003, 1.096948e-001
3.550307e+003, 1.164692e-001
3.552236e+003, 1.217133e-001
3.554164e+003, 1.217247e-001
3.556093e+003, 1.174353e-001
3.558021e+003, 1.097045e-001
3.559949e+003, 9.748623e-002
3.561878e+003, 8.063821e-002
3.563806e+003, 6.597388e-002
3.565735e+003, 5.175322e-002
3.567663e+003, 3.916903e-002
3.569592e+003, 3.096484e-002
3.571520e+003, 2.484125e-002
3.573449e+003, 2.043857e-002
3.575377e+003, 1.863679e-002
3.577306e+003, 1.725667e-002
3.579234e+003, 1.445300e-002
3.581163e+003, 1.492707e-002
3.583091e+003, 1.542071e-002
3.585020e+003, 1.340220e-002
3.586948e+003, 1.075461e-002
3.588876e+003, 8.677144e-003
3.590805e+003, 9.515968e-003
3.592733e+003, 1.152281e-002
3.594662e+003, 1.108114e-002
3.596590e+003, 1.030057e-002
3.598519e+003, 1.031729e-002
3.600447e+003, 9.479444e-003
3.602376e+003, 9.801488e-003
3.604304e+003, 1.148161e-002
3.606233e+003, 1.127466e-002
3.608161e+003, 1.080049e-002
3.610090e+003, 1.034374e-002
3.612018e+003, 9.232152e-003
3.613947e+003, 9.390783e-003
3.615875e+003, 1.073362e-002
3.617803e+003, 1.160806e-002
3.619732e+003, 1.191434e-002
3.621660e+003, 1.121142e-002
3.623589e+003, 1.144602e-002
3.625517e+003, 1.114039e-002
3.627446e+003, 9.089776e-003
3.629374e+003, 6.901512e-003
3.631303e+003, 7.804926e-003
3.633231e+003, 7.183753e-003
3.635160e+003, 6.882967e-003
3.637088e+003, 7.903955e-003
3.639017e+003, 9.931775e-003
3.640945e+003, 1.013947e-002
3.642874e+003, 8.662731e-003
3.644802e+003, 9.208359e-003
3.646730e+003, 9.705684e-003
3.648659e+003, 9.336193e-003
3.650587e+003, 9.782613e-003
3.652516e+003, 9.030790e-003
3.654444e+003, 9.542227e-003
3.656373e+003, 9.735964e-003
3.658301e+003, 7.407033e-003
3.660230e+003, 6.381985e-003
3.662158e+003, 5.594560e-003
3.664087e+003, 6.103362e-003
3.666015e+003, 7.232534e-003
3.667944e+003, 7.872452e-003
3.669872e+003, 8.394261e-003
3.671801e+003, 8.767363e-003
3.673729e+003, 7.898157e-003
3.675657e+003, 5.977229e-003
3.677586e+003, 5.986238e-003
3.679514e+003, 6.468337e-003
3.681443e+003, 6.115591e-003
3.683371e+003, 6.965904e-003
3.685300e+003, 8.006989e-003
3.687228e+003, 9.698378e-003
3.689157e+003, 8.426030e-003
3.691085e+003, 7.300814e-003
3.693014e+003, 5.866384e-003
3.694942e+003, 7.259898e-003
3.696871e+003, 1.009511e-002
3.698799e+003, 1.066093e-002
3.700728e+003, 8.685987e-003
3.702656e+003, 7.528405e-003
3.704584e+003, 7.717728e-003
3.706513e+003, 8.767132e-003
3.708441e+003, 7.821351e-003
3.710370e+003, 6.930056e-003
3.712298e+003, 5.690928e-003
3.714227e+003, 5.506589e-003
3.716155e+003, 6.252172e-003
3.718084e+003, 5.731824e-003
3.720012e+003, 4.850883e-003
3.721941e+003, 5.230011e-003
3.723869e+003, 6.798832e-003
3.725798e+003, 7.201215e-003
3.727726e+003, 7.031942e-003
3.729655e+003, 8.657494e-003
3.731583e+003, 1.018032e-002
3.733511e+003, 8.468437e-003
3.735440e+003, 6.175211e-003
3.737368e+003, 5.863750e-003
3.739297e+003, 5.583441e-003
3.741225e+003, 7.400150e-003
3.743154e+003, 7.387061e-003
3.745082e+003, 7.345459e-003
3.747011e+003, 7.852318e-003
3.748939e+003, 7.766804e-003
3.750868e+003, 9.380184e-003
3.752796e+003, 1.071899e-002
3.754725e+003, 1.143924e-002
3.756653e+003, 9.786002e-003
3.758582e+003, 7.412811e-003
3.760510e+003, 8.230879e-003
3.762438e+003, 9.413974e-003
3.764367e+003, 8.764095e-003
3.766295e+003, 8.895577e-003
3.768224e+003, 7.946392e-003
3.770152e+003, 6.909217e-003
3.772081e+003, 6.882764e-003
3.774009e+003, 7.312885e-003
3.775938e+003, 7.421071e-003
3.777866e+003, 8.957297e-003
3.779795e+003, 8.820659e-003
3.781723e+003, 7.777024e-003
3.783652e+003, 6.301141e-003
3.785580e+003, 7.356156e-003
3.787509e+003, 9.743372e-003
3.789437e+003, 1.082538e-002
3.791365e+003, 1.004185e-002
3.793294e+003, 8.981514e-003
3.795222e+003, 9.756852e-003
3.797151e+003, 9.371256e-003
3.799079e+003, 8.307615e-003
3.801008e+003, 7.839500e-003
3.802936e+003, 8.754170e-003
3.804865e+003, 9.431473e-003
3.806793e+003, 8.989530e-003
3.808722e+003, 8.870787e-003
3.810650e+003, 7.496619e-003
3.812579e+003, 5.907786e-003
3.814507e+003, 7.496975e-003
3.816436e+003, 8.388256e-003
3.818364e+003, 7.799315e-003
3.820292e+003, 7.619874e-003
3.822221e+003, 8.121789e-003
3.824149e+003, 9.591074e-003
3.826078e+003, 9.314722e-003
3.828006e+003, 8.517984e-003
3.829935e+003, 7.194749e-003
3.831863e+003, 5.013268e-003
3.833792e+003, 6.774595e-003
3.835720e+003, 8.813571e-003
3.837649e+003, 8.460966e-003
3.839577e+003, 9.137558e-003
3.841506e+003, 9.077286e-003
3.843434e+003, 8.873774e-003
3.845363e+003, 7.181392e-003
3.847291e+003, 7.400510e-003
3.849219e+003, 8.508080e-003
3.851148e+003, 8.007714e-003
3.853076e+003, 1.010977e-002
3.855005e+003, 1.040662e-002
3.856933e+003, 9.870253e-003
3.858862e+003, 1.012013e-002
3.860790e+003, 1.060360e-002
3.862719e+003, 1.019681e-002
3.864647e+003, 7.257863e-003
3.866576e+003, 5.148865e-003
3.868504e+003, 6.454075e-003
3.870433e+003, 9.269860e-003
3.872361e+003, 9.207340e-003
3.874290e+003, 7.826784e-003
3.876218e+003, 6.200233e-003
3.878146e+003, 5.264571e-003
3.880075e+003, 7.340418e-003
3.882003e+003, 7.978154e-003
3.883932e+003, 6.776329e-003
3.885860e+003, 7.720225e-003
3.887789e+003, 6.461062e-003
3.889717e+003, 5.086776e-003
3.891646e+003, 7.956592e-003
3.893574e+003, 1.148603e-002
3.895503e+003, 1.229991e-002
3.897431e+003, 1.174928e-002
3.899360e+003, 1.012230e-002
3.901288e+003, 9.189316e-003
3.903217e+003, 8.913964e-003
3.905145e+003, 9.034446e-003
3.907073e+003, 9.716368e-003
3.909002e+003, 1.063219e-002
3.910930e+003, 1.078830e-002
3.912859e+003, 8.402397e-003
3.914787e+003, 7.328042e-003
3.916716e+003, 9.366869e-003
3.918644e+003, 1.082279e-002
3.920573e+003, 9.994684e-003
3.922501e+003, 8.998779e-003
3.924430e+003, 9.547949e-003
3.926358e+003, 1.051592e-002
3.928287e+003, 8.950017e-003
3.930215e+003, 8.687439e-003
3.932144e+003, 9.386040e-003
3.934072e+003, 1.044097e-002
3.936000e+003, 1.124308e-002
3.937929e+003, 8.807350e-003
3.939857e+003, 7.906409e-003
3.941786e+003, 9.296557e-003
3.943714e+003, 1.075429e-002
3.945643e+003, 1.001073e-002
3.947571e+003, 9.042597e-003
3.949500e+003, 9.572585e-003
3.951428e+003, 1.022962e-002
3.953357e+003, 9.584791e-003
3.955285e+003, 9.764746e-003
3.957214e+003, 8.171963e-003
3.959142e+003, 6.862868e-003
3.961071e+003, 6.531339e-003
3.962999e+003, 7.544096e-003
3.964927e+003, 7.144192e-003
3.966856e+003, 8.300317e-003
3.968784e+003, 1.010919e-002
3.970713e+003, 1.097779e-002
3.972641e+003, 9.739191e-003
3.974570e+003, 1.043688e-002
3.976498e+003, 1.127290e-002
3.978427e+003, 8.909815e-003
3.980355e+003, 8.577775e-003
3.982284e+003, 1.010801e-002
3.984212e+003, 1.130802e-002
3.986141e+003, 1.065918e-002
3.988069e+003, 1.159417e-002
3.989998e+003, 1.223151e-002
3.991926e+003, 1.020449e-002
3.993854e+003, 9.051537e-003
3.995783e+003, 8.827946e-003
3.997711e+003, 9.313039e-003
3.999640e+003, 9.317805e-003
##END=



