##NAMES=Fluorapatite
##RRUFFID=R050529
##IDEAL CHEMISTRY=Ca_5_(PO_4_)_3_F
##LOCALITY=Limburg de an Lahn, Germany
##OWNER=RRUFF
##SOURCE=University of Arizona Mineral Museum
##DESCRIPTION=Botryoidal aggregate
##STATUS=The identification of this mineral has been confirmed by X-ray diffraction and chemical analysis
##URL=rruff.info/R050529
##MEASURED CHEMISTRY=(Ca_4.68_[box]_0.32_)_Σ=5_((PO_4_)_2.36_(CO_3_)_0.64_)_Σ=3_F_1.00_
3.991926e+002, 7.370494e-002
4.011211e+002, 5.913876e-002
4.030496e+002, 5.913876e-002
4.049780e+002, 5.505550e-002
4.069065e+002, 5.694371e-002
4.088350e+002, 5.363863e-002
4.107634e+002, 4.385868e-002
4.126919e+002, 4.574155e-002
4.146204e+002, 4.463808e-002
4.165488e+002, 3.912786e-002
4.184773e+002, 3.938055e-002
4.204058e+002, 4.150355e-002
4.223342e+002, 4.204082e-002
4.242627e+002, 3.768398e-002
4.261912e+002, 3.424355e-002
4.281196e+002, 3.721805e-002
4.300481e+002, 3.361547e-002
4.319766e+002, 3.371787e-002
4.339050e+002, 3.686212e-002
4.358335e+002, 3.383591e-002
4.377620e+002, 3.402121e-002
4.396904e+002, 3.626544e-002
4.416189e+002, 3.569084e-002
4.435474e+002, 3.458417e-002
4.454758e+002, 3.508201e-002
4.474043e+002, 3.491321e-002
4.493328e+002, 3.592368e-002
4.512612e+002, 3.657529e-002
4.531897e+002, 3.795520e-002
4.551182e+002, 3.839958e-002
4.570466e+002, 3.955552e-002
4.589751e+002, 4.156983e-002
4.609036e+002, 4.161176e-002
4.628320e+002, 4.155401e-002
4.647605e+002, 4.366373e-002
4.666890e+002, 4.530409e-002
4.686174e+002, 4.823305e-002
4.705459e+002, 5.021380e-002
4.724744e+002, 4.983204e-002
4.744028e+002, 4.822065e-002
4.763313e+002, 4.640162e-002
4.782598e+002, 4.211595e-002
4.801882e+002, 3.810439e-002
4.821167e+002, 3.623144e-002
4.840452e+002, 3.537246e-002
4.859736e+002, 3.367344e-002
4.879021e+002, 3.392544e-002
4.898306e+002, 3.528537e-002
4.917590e+002, 3.534457e-002
4.936875e+002, 3.486578e-002
4.956160e+002, 3.553205e-002
4.975444e+002, 3.595521e-002
4.994729e+002, 3.602947e-002
5.014014e+002, 3.697846e-002
5.033298e+002, 3.814364e-002
5.052583e+002, 3.956760e-002
5.071868e+002, 4.046614e-002
5.091152e+002, 4.229345e-002
5.110437e+002, 4.461234e-002
5.129722e+002, 4.493728e-002
5.149006e+002, 4.585182e-002
5.168291e+002, 4.902080e-002
5.187576e+002, 5.176665e-002
5.206860e+002, 5.448782e-002
5.226145e+002, 5.660688e-002
5.245430e+002, 5.902962e-002
5.264714e+002, 6.405838e-002
5.283999e+002, 7.013173e-002
5.303284e+002, 7.322690e-002
5.322568e+002, 7.634053e-002
5.341853e+002, 8.332530e-002
5.361138e+002, 9.060128e-002
5.380422e+002, 9.864273e-002
5.399707e+002, 1.087779e-001
5.418992e+002, 1.200993e-001
5.438276e+002, 1.324994e-001
5.457561e+002, 1.471969e-001
5.476846e+002, 1.647601e-001
5.496130e+002, 1.862698e-001
5.515415e+002, 2.099474e-001
5.534700e+002, 2.351769e-001
5.553984e+002, 2.644309e-001
5.573269e+002, 2.965969e-001
5.592554e+002, 3.247031e-001
5.611838e+002, 3.450337e-001
5.631123e+002, 3.581191e-001
5.650408e+002, 3.645569e-001
5.669692e+002, 3.637690e-001
5.688977e+002, 3.576208e-001
5.708262e+002, 3.481695e-001
5.727546e+002, 3.397373e-001
5.746831e+002, 3.316019e-001
5.766116e+002, 3.156752e-001
5.785400e+002, 2.872716e-001
5.804685e+002, 2.542182e-001
5.823970e+002, 2.257158e-001
5.843254e+002, 2.048963e-001
5.862539e+002, 1.919235e-001
5.881824e+002, 1.845018e-001
5.901108e+002, 1.831084e-001
5.920393e+002, 1.921131e-001
5.939678e+002, 2.119476e-001
5.958962e+002, 2.387474e-001
5.978247e+002, 2.665494e-001
5.997532e+002, 2.820320e-001
6.016816e+002, 2.743302e-001
6.036101e+002, 2.487354e-001
6.055386e+002, 2.162496e-001
6.074670e+002, 1.831080e-001
6.093955e+002, 1.530325e-001
6.113240e+002, 1.270049e-001
6.132524e+002, 1.037556e-001
6.151809e+002, 8.285549e-002
6.171094e+002, 6.571162e-002
6.190378e+002, 5.211226e-002
6.209663e+002, 4.244154e-002
6.228948e+002, 3.594581e-002
6.248232e+002, 3.114913e-002
6.267517e+002, 2.813805e-002
6.286802e+002, 2.596716e-002
6.306086e+002, 2.404313e-002
6.325371e+002, 2.229324e-002
6.344656e+002, 2.125077e-002
6.363940e+002, 2.119165e-002
6.383225e+002, 2.077492e-002
6.402510e+002, 1.952818e-002
6.421794e+002, 1.899730e-002
6.441079e+002, 1.890904e-002
6.460364e+002, 1.875479e-002
6.479648e+002, 1.907707e-002
6.498933e+002, 1.945520e-002
6.518218e+002, 1.938926e-002
6.537502e+002, 1.896823e-002
6.556787e+002, 1.861967e-002
6.576072e+002, 1.846687e-002
6.595356e+002, 1.847724e-002
6.614641e+002, 1.870296e-002
6.633926e+002, 1.845726e-002
6.653210e+002, 1.812549e-002
6.672495e+002, 1.871345e-002
6.691780e+002, 1.906467e-002
6.711064e+002, 1.906055e-002
6.730349e+002, 1.905352e-002
6.749634e+002, 1.869791e-002
6.768918e+002, 1.822713e-002
6.788203e+002, 1.809232e-002
6.807488e+002, 1.839787e-002
6.826772e+002, 1.866388e-002
6.846057e+002, 1.869719e-002
6.865342e+002, 1.969721e-002
6.884626e+002, 2.046885e-002
6.903911e+002, 2.082824e-002
6.923196e+002, 2.099721e-002
6.942480e+002, 2.049535e-002
6.961765e+002, 1.921741e-002
6.981050e+002, 1.886561e-002
7.000334e+002, 1.890164e-002
7.019619e+002, 1.839057e-002
7.038904e+002, 1.827727e-002
7.058188e+002, 1.838324e-002
7.077473e+002, 1.884308e-002
7.096758e+002, 1.939917e-002
7.116042e+002, 1.992194e-002
7.135327e+002, 1.984514e-002
7.154612e+002, 1.960915e-002
7.173896e+002, 1.927016e-002
7.193181e+002, 1.860394e-002
7.212466e+002, 1.863821e-002
7.231750e+002, 1.897024e-002
7.251035e+002, 1.868802e-002
7.270320e+002, 1.857115e-002
7.289604e+002, 1.857420e-002
7.308889e+002, 1.850998e-002
7.328174e+002, 1.848232e-002
7.347458e+002, 1.855117e-002
7.366743e+002, 1.838473e-002
7.386028e+002, 1.837146e-002
7.405313e+002, 1.821770e-002
7.424597e+002, 1.854079e-002
7.443882e+002, 1.912966e-002
7.463167e+002, 1.878589e-002
7.482451e+002, 1.829393e-002
7.501736e+002, 1.843427e-002
7.521021e+002, 1.868252e-002
7.540305e+002, 1.875396e-002
7.559590e+002, 1.877087e-002
7.578875e+002, 1.870767e-002
7.598159e+002, 1.844567e-002
7.617444e+002, 1.865091e-002
7.636729e+002, 1.937703e-002
7.656013e+002, 1.959965e-002
7.675298e+002, 1.918759e-002
7.694583e+002, 1.897948e-002
7.713867e+002, 1.899069e-002
7.733152e+002, 1.899557e-002
7.752437e+002, 1.931031e-002
7.771721e+002, 1.998743e-002
7.791006e+002, 2.011634e-002
7.810291e+002, 2.000652e-002
7.829575e+002, 2.008237e-002
7.848860e+002, 2.015188e-002
7.868145e+002, 2.013165e-002
7.887429e+002, 2.054117e-002
7.906714e+002, 2.082939e-002
7.925999e+002, 2.078416e-002
7.945283e+002, 2.097698e-002
7.964568e+002, 2.125922e-002
7.983853e+002, 2.147738e-002
8.003137e+002, 2.131928e-002
8.022422e+002, 2.118949e-002
8.041707e+002, 2.164647e-002
8.060991e+002, 2.241774e-002
8.080276e+002, 2.276112e-002
8.099561e+002, 2.264329e-002
8.118845e+002, 2.280812e-002
8.138130e+002, 2.277163e-002
8.157415e+002, 2.305648e-002
8.176699e+002, 2.324023e-002
8.195984e+002, 2.304596e-002
8.215269e+002, 2.351171e-002
8.234553e+002, 2.392986e-002
8.253838e+002, 2.430411e-002
8.273123e+002, 2.489120e-002
8.292407e+002, 2.511551e-002
8.311692e+002, 2.539266e-002
8.330977e+002, 2.567326e-002
8.350261e+002, 2.611640e-002
8.369546e+002, 2.715945e-002
8.388831e+002, 2.841608e-002
8.408115e+002, 2.929014e-002
8.427400e+002, 2.959377e-002
8.446685e+002, 3.019080e-002
8.465969e+002, 3.119121e-002
8.485254e+002, 3.209008e-002
8.504539e+002, 3.279434e-002
8.523823e+002, 3.403794e-002
8.543108e+002, 3.649405e-002
8.562393e+002, 3.968714e-002
8.581677e+002, 4.369388e-002
8.600962e+002, 5.093852e-002
8.620247e+002, 6.705612e-002
8.639531e+002, 8.708963e-002
8.658816e+002, 8.727528e-002
8.678101e+002, 7.033003e-002
8.697385e+002, 5.672199e-002
8.716670e+002, 4.928331e-002
8.735955e+002, 4.629507e-002
8.755239e+002, 4.588338e-002
8.774524e+002, 4.507639e-002
8.793809e+002, 4.267440e-002
8.813093e+002, 3.893023e-002
8.832378e+002, 3.521199e-002
8.851663e+002, 3.372683e-002
8.870947e+002, 3.340795e-002
8.890232e+002, 3.333091e-002
8.909517e+002, 3.389825e-002
8.928801e+002, 3.485465e-002
8.948085e+002, 3.551656e-002
8.967370e+002, 3.638461e-002
8.986655e+002, 3.748599e-002
9.005939e+002, 3.855541e-002
9.025224e+002, 3.925210e-002
9.044509e+002, 4.008569e-002
9.063793e+002, 4.094790e-002
9.083078e+002, 4.216187e-002
9.102363e+002, 4.332854e-002
9.121647e+002, 4.420551e-002
9.140932e+002, 4.522010e-002
9.160217e+002, 4.673158e-002
9.179501e+002, 4.806865e-002
9.198786e+002, 4.907792e-002
9.218071e+002, 5.082717e-002
9.237355e+002, 5.284431e-002
9.256640e+002, 5.483902e-002
9.275925e+002, 5.724316e-002
9.295209e+002, 6.006647e-002
9.314494e+002, 6.290070e-002
9.333779e+002, 6.570067e-002
9.353063e+002, 6.884470e-002
9.372348e+002, 7.226004e-002
9.391633e+002, 7.574028e-002
9.410917e+002, 7.954901e-002
9.430202e+002, 8.414802e-002
9.449487e+002, 8.905596e-002
9.468771e+002, 9.405404e-002
9.488056e+002, 9.951448e-002
9.507341e+002, 1.054840e-001
9.526625e+002, 1.121636e-001
9.545910e+002, 1.196748e-001
9.565195e+002, 1.282567e-001
9.584479e+002, 1.380059e-001
9.603764e+002, 1.485017e-001
9.623049e+002, 1.581293e-001
9.642333e+002, 1.635607e-001
9.661618e+002, 1.603181e-001
9.680903e+002, 1.509271e-001
9.700187e+002, 1.441617e-001
9.719472e+002, 1.431190e-001
9.738757e+002, 1.475150e-001
9.758041e+002, 1.560086e-001
9.777326e+002, 1.670537e-001
9.796611e+002, 1.790889e-001
9.815895e+002, 1.913801e-001
9.835180e+002, 2.036436e-001
9.854465e+002, 2.162667e-001
9.873749e+002, 2.297691e-001
9.893034e+002, 2.434363e-001
9.912319e+002, 2.572160e-001
9.931603e+002, 2.707098e-001
9.950888e+002, 2.840144e-001
9.970173e+002, 2.975976e-001
9.989457e+002, 3.112139e-001
1.000874e+003, 3.245172e-001
1.002803e+003, 3.372841e-001
1.004731e+003, 3.488636e-001
1.006660e+003, 3.601601e-001
1.008588e+003, 3.715535e-001
1.010517e+003, 3.821301e-001
1.012445e+003, 3.916062e-001
1.014373e+003, 4.007728e-001
1.016302e+003, 4.093708e-001
1.018230e+003, 4.168219e-001
1.020159e+003, 4.226105e-001
1.022087e+003, 4.271065e-001
1.024016e+003, 4.298664e-001
1.025944e+003, 4.297693e-001
1.027873e+003, 4.269849e-001
1.029801e+003, 4.215712e-001
1.031730e+003, 4.136271e-001
1.033658e+003, 4.046035e-001
1.035587e+003, 3.936965e-001
1.037515e+003, 3.809283e-001
1.039444e+003, 3.675277e-001
1.041372e+003, 3.526530e-001
1.043301e+003, 3.370323e-001
1.045229e+003, 3.219487e-001
1.047157e+003, 3.074133e-001
1.049086e+003, 2.929628e-001
1.051014e+003, 2.791421e-001
1.052943e+003, 2.657927e-001
1.054871e+003, 2.533677e-001
1.056800e+003, 2.410942e-001
1.058728e+003, 2.292266e-001
1.060657e+003, 2.180522e-001
1.062585e+003, 2.072130e-001
1.064514e+003, 1.969343e-001
1.066442e+003, 1.876273e-001
1.068371e+003, 1.787706e-001
1.070299e+003, 1.704478e-001
1.072228e+003, 1.628754e-001
1.074156e+003, 1.554693e-001
1.076084e+003, 1.481420e-001
1.078013e+003, 1.413855e-001
1.079941e+003, 1.352490e-001
1.081870e+003, 1.299274e-001
1.083798e+003, 1.257044e-001
1.085727e+003, 1.230023e-001
1.087655e+003, 1.218996e-001
1.089584e+003, 1.208512e-001
1.091512e+003, 1.184162e-001
1.093441e+003, 1.144774e-001
1.095369e+003, 1.096845e-001
1.097298e+003, 1.046627e-001
1.099226e+003, 9.922058e-002
1.101155e+003, 9.377207e-002
1.103083e+003, 8.850415e-002
1.105011e+003, 8.268742e-002
1.106940e+003, 7.660242e-002
1.108868e+003, 7.051980e-002
1.110797e+003, 6.439159e-002
1.112725e+003, 5.853955e-002
1.114654e+003, 5.248342e-002
1.116582e+003, 4.637131e-002
1.118511e+003, 4.029276e-002
1.120439e+003, 3.464625e-002
1.122368e+003, 2.988018e-002
1.124296e+003, 2.540127e-002
1.126225e+003, 2.119416e-002
1.128153e+003, 1.773049e-002
1.130082e+003, 1.509540e-002
1.132010e+003, 1.301206e-002
1.133938e+003, 1.132376e-002
1.135867e+003, 9.945812e-003
1.137795e+003, 8.400043e-003
1.139724e+003, 7.322006e-003
1.141652e+003, 6.447732e-003
1.143581e+003, 5.369963e-003
1.145509e+003, 4.618673e-003
1.147438e+003, 4.000551e-003
1.149366e+003, 3.253794e-003
1.151295e+003, 2.820396e-003
1.153223e+003, 2.301614e-003
1.155152e+003, 1.653983e-003
1.157080e+003, 1.374951e-003
1.159009e+003, 1.070188e-003
1.160937e+003, 6.281121e-004
1.162865e+003, 3.027518e-004
1.164794e+003, 4.158521e-005
1.166722e+003, -1.165168e-004
1.168651e+003, -1.118792e-004
1.170579e+003, -3.899782e-004
1.172508e+003, -5.936873e-004
1.174436e+003, -8.608301e-004
1.176365e+003, -1.046767e-003
1.178293e+003, -1.029314e-003
1.180222e+003, -9.089420e-004
1.182150e+003, -1.134088e-003
1.184079e+003, -1.421177e-003
1.186007e+003, -1.407834e-003
1.187936e+003, -1.165052e-003
1.189864e+003, -1.049841e-003
1.191792e+003, -9.406500e-004
1.193721e+003, -9.660742e-004
1.195649e+003, -1.225785e-003
1.197578e+003, -1.296520e-003
1.199506e+003, -1.411269e-003
1.201435e+003, -1.293976e-003
1.203363e+003, -1.057807e-003
1.205292e+003, -1.143936e-003
1.207220e+003, -1.416355e-003
1.209149e+003, -1.515356e-003
1.211077e+003, -1.415100e-003
1.213006e+003, -1.260179e-003
1.214934e+003, -1.199517e-003
1.216863e+003, -1.241314e-003
1.218791e+003, -1.520243e-003
1.220719e+003, -1.728373e-003
1.222648e+003, -1.519682e-003
1.224576e+003, -1.327473e-003
1.226505e+003, -1.452088e-003
1.228433e+003, -1.712664e-003
1.230362e+003, -1.908397e-003
1.232290e+003, -2.036539e-003
1.234219e+003, -2.097678e-003
1.236147e+003, -1.999799e-003
1.238076e+003, -1.787113e-003
1.240004e+003, -1.796848e-003
1.241933e+003, -1.961506e-003
1.243861e+003, -2.017411e-003
1.245790e+003, -2.000987e-003
1.247718e+003, -1.971962e-003
1.249646e+003, -1.955832e-003
1.251575e+003, -1.855777e-003
1.253503e+003, -1.821034e-003
1.255432e+003, -1.682365e-003
1.257360e+003, -1.544907e-003
1.259289e+003, -1.531106e-003
1.261217e+003, -1.619616e-003
1.263146e+003, -1.530313e-003
1.265074e+003, -1.452880e-003
1.267003e+003, -1.461764e-003
1.268931e+003, -1.273064e-003
1.270860e+003, -1.074763e-003
1.272788e+003, -9.470640e-004
1.274717e+003, -8.916819e-004
1.276645e+003, -7.950520e-004
1.278573e+003, -7.019734e-004
1.280502e+003, -5.334285e-004
1.282430e+003, -5.089718e-004
1.284359e+003, -7.630027e-004
1.286287e+003, -8.470404e-004
1.288216e+003, -7.430575e-004
1.290144e+003, -5.264127e-004
1.292073e+003, -2.166095e-004
1.294001e+003, -1.030015e-004
1.295930e+003, -2.365706e-005
1.297858e+003, -7.987882e-005
1.299787e+003, 5.298456e-005
1.301715e+003, 1.064727e-004
1.303644e+003, 1.902310e-004
1.305572e+003, 5.024701e-004
1.307500e+003, 6.953772e-004
1.309429e+003, 6.518047e-004
1.311357e+003, 7.696896e-004
1.313286e+003, 9.124421e-004
1.315214e+003, 1.046706e-003
1.317143e+003, 1.171708e-003
1.319071e+003, 1.278036e-003
1.321000e+003, 1.288670e-003
1.322928e+003, 1.292559e-003
1.324857e+003, 1.603031e-003
1.326785e+003, 1.700284e-003
1.328714e+003, 1.508393e-003
1.330642e+003, 1.514677e-003
1.332571e+003, 1.598042e-003
1.334499e+003, 1.661167e-003
1.336427e+003, 1.835656e-003
1.338356e+003, 1.928834e-003
1.340284e+003, 2.125373e-003
1.342213e+003, 2.188042e-003
1.344141e+003, 2.191472e-003
1.346070e+003, 2.337191e-003
1.347998e+003, 2.315505e-003
1.349927e+003, 2.146584e-003
1.351855e+003, 2.264742e-003
1.353784e+003, 2.670581e-003
1.355712e+003, 3.043731e-003
1.357641e+003, 3.239139e-003
1.359569e+003, 3.423982e-003
1.361498e+003, 3.664836e-003
1.363426e+003, 4.242160e-003
1.365354e+003, 4.672358e-003
1.367283e+003, 4.737673e-003
1.369211e+003, 5.181473e-003
1.371140e+003, 5.751719e-003
1.373068e+003, 6.335322e-003
1.374997e+003, 6.949742e-003
1.376925e+003, 7.493964e-003
1.378854e+003, 8.347482e-003
1.380782e+003, 9.559336e-003
1.382711e+003, 1.106421e-002
1.384639e+003, 1.276041e-002
1.386568e+003, 1.431618e-002
1.388496e+003, 1.595413e-002
1.390424e+003, 1.814756e-002
1.392353e+003, 2.054440e-002
1.394281e+003, 2.320074e-002
1.396210e+003, 2.613740e-002
1.398138e+003, 2.938327e-002
1.400067e+003, 3.295527e-002
1.401995e+003, 3.670593e-002
1.403924e+003, 4.063831e-002
1.405852e+003, 4.445910e-002
1.407781e+003, 4.814509e-002
1.409709e+003, 5.181137e-002
1.411638e+003, 5.536434e-002
1.413566e+003, 5.869321e-002
1.415495e+003, 6.181708e-002
1.417423e+003, 6.467568e-002
1.419351e+003, 6.716567e-002
1.421280e+003, 6.904792e-002
1.423208e+003, 7.039627e-002
1.425137e+003, 7.087716e-002
1.427065e+003, 6.984928e-002
1.428994e+003, 6.725657e-002
1.430922e+003, 6.394058e-002
1.432851e+003, 5.991928e-002
1.434779e+003, 5.558835e-002
1.436708e+003, 5.158064e-002
1.438636e+003, 4.790568e-002
1.440565e+003, 4.501949e-002
1.442493e+003, 4.329522e-002
1.444422e+003, 4.318867e-002
1.446350e+003, 4.480619e-002
1.448278e+003, 4.733758e-002
1.450207e+003, 5.023146e-002
1.452135e+003, 5.241508e-002
1.454064e+003, 5.252792e-002
1.455992e+003, 5.069165e-002
1.457921e+003, 4.770501e-002
1.459849e+003, 4.423207e-002
1.461778e+003, 4.054274e-002
1.463706e+003, 3.715637e-002
1.465635e+003, 3.397430e-002
1.467563e+003, 3.131562e-002
1.469492e+003, 2.960207e-002
1.471420e+003, 2.829999e-002
1.473349e+003, 2.681857e-002
1.475277e+003, 2.513040e-002
1.477205e+003, 2.362148e-002
1.479134e+003, 2.252263e-002
1.481062e+003, 2.137406e-002
1.482991e+003, 2.045402e-002
1.484919e+003, 1.984476e-002
1.486848e+003, 1.897564e-002
1.488776e+003, 1.809447e-002
1.490705e+003, 1.756254e-002
1.492633e+003, 1.727041e-002
1.494562e+003, 1.697872e-002
1.496490e+003, 1.642676e-002
1.498419e+003, 1.600560e-002
1.500347e+003, 1.553013e-002
1.502276e+003, 1.468522e-002
1.504204e+003, 1.400854e-002
1.506132e+003, 1.329215e-002
1.508061e+003, 1.214617e-002
1.509989e+003, 1.118757e-002
1.511918e+003, 1.014652e-002
1.513846e+003, 9.254227e-003
1.515775e+003, 8.479401e-003
1.517703e+003, 7.758033e-003
1.519632e+003, 7.249799e-003
1.521560e+003, 6.656420e-003
1.523489e+003, 6.052864e-003
1.525417e+003, 5.639691e-003
1.527346e+003, 5.310355e-003
1.529274e+003, 4.793216e-003
1.531203e+003, 4.243097e-003
1.533131e+003, 3.935747e-003
1.535059e+003, 3.861527e-003
1.536988e+003, 3.595639e-003
1.538916e+003, 3.320933e-003
1.540845e+003, 3.243779e-003
1.542773e+003, 3.097756e-003
1.544702e+003, 2.993683e-003
1.546630e+003, 2.913786e-003
1.548559e+003, 2.760237e-003
1.550487e+003, 2.832069e-003
1.552416e+003, 2.722725e-003
1.554344e+003, 2.526716e-003
1.556273e+003, 2.445804e-003
1.558201e+003, 2.387296e-003
1.560130e+003, 2.299583e-003
1.562058e+003, 2.171891e-003
1.563986e+003, 2.180915e-003
1.565915e+003, 2.022166e-003
1.567843e+003, 1.932629e-003
1.569772e+003, 2.112754e-003
1.571700e+003, 2.256515e-003
1.573629e+003, 2.271636e-003
1.575557e+003, 2.051528e-003
1.577486e+003, 1.708933e-003
1.579414e+003, 1.624249e-003
1.581343e+003, 1.738173e-003
1.583271e+003, 1.652752e-003
1.585200e+003, 1.565852e-003
1.587128e+003, 1.500945e-003
1.589057e+003, 1.602964e-003
1.590985e+003, 1.630369e-003
1.592913e+003, 1.649992e-003
1.594842e+003, 1.733449e-003
1.596770e+003, 1.752212e-003
1.598699e+003, 1.876685e-003
1.600627e+003, 2.046001e-003
1.602556e+003, 2.069671e-003
1.604484e+003, 1.986881e-003
1.606413e+003, 1.848833e-003
1.608341e+003, 1.875720e-003
1.610270e+003, 1.869664e-003
1.612198e+003, 1.767083e-003
1.614127e+003, 2.018804e-003
1.616055e+003, 2.280929e-003
1.617984e+003, 2.167395e-003
1.619912e+003, 1.964347e-003
1.621840e+003, 1.793533e-003
1.623769e+003, 1.765786e-003
1.625697e+003, 1.753277e-003
1.627626e+003, 1.863474e-003
1.629554e+003, 2.053392e-003
1.631483e+003, 2.064411e-003
1.633411e+003, 1.888200e-003
1.635340e+003, 1.845040e-003
1.637268e+003, 1.939684e-003
1.639197e+003, 2.075065e-003
1.641125e+003, 2.027659e-003
1.643054e+003, 2.125673e-003
1.644982e+003, 2.313440e-003
1.646911e+003, 2.167329e-003
1.648839e+003, 1.901378e-003
1.650767e+003, 1.815592e-003
1.652696e+003, 1.678962e-003
1.654624e+003, 1.619759e-003
1.656553e+003, 1.686413e-003
1.658481e+003, 1.665990e-003
1.660410e+003, 1.422352e-003
1.662338e+003, 1.308311e-003
1.664267e+003, 1.460483e-003
1.666195e+003, 1.574764e-003
1.668124e+003, 1.470790e-003
1.670052e+003, 1.269762e-003
1.671981e+003, 1.229421e-003
1.673909e+003, 1.166957e-003
1.675838e+003, 9.790871e-004
1.677766e+003, 9.586974e-004
1.679694e+003, 1.038336e-003
1.681623e+003, 1.115265e-003
1.683551e+003, 1.185164e-003
1.685480e+003, 8.990280e-004
1.687408e+003, 7.411779e-004
1.689337e+003, 5.975857e-004
1.691265e+003, 2.307736e-004
1.693194e+003, -1.282098e-004
1.695122e+003, -2.272069e-004
1.697051e+003, -3.696517e-004
1.698979e+003, -5.709879e-004
1.700908e+003, -1.044586e-003
1.702836e+003, -1.695435e-003
1.704765e+003, -2.241686e-003
1.706693e+003, -2.617900e-003
1.708621e+003, -3.069006e-003
1.710550e+003, -3.231373e-003
1.712478e+003, -3.597695e-003
1.714407e+003, -3.742783e-003
1.716335e+003, -3.411795e-003
1.718264e+003, -3.188715e-003
1.720192e+003, -3.287214e-003
1.722121e+003, -3.455154e-003
1.724049e+003, -3.801744e-003
1.725978e+003, -3.814324e-003
1.727906e+003, -3.833932e-003
1.729835e+003, -4.161054e-003
1.731763e+003, -4.611610e-003
1.733692e+003, -5.049056e-003
1.735620e+003, -5.235174e-003
1.737548e+003, -5.773985e-003
1.739477e+003, -6.431666e-003
1.741405e+003, -6.432744e-003
1.743334e+003, -6.119874e-003
1.745262e+003, -5.718398e-003
1.747191e+003, -5.049679e-003
1.749119e+003, -4.121605e-003
1.751048e+003, -3.321577e-003
1.752976e+003, -2.354341e-003
1.754905e+003, -1.425668e-003
1.756833e+003, -7.135514e-004
1.758762e+003, -1.360271e-004
1.760690e+003, 2.791777e-004
1.762619e+003, 7.741706e-004
1.764547e+003, 9.817106e-004
1.766475e+003, 1.136027e-003
1.768404e+003, 1.321140e-003
1.770332e+003, 1.327554e-003
1.772261e+003, 1.245703e-003
1.774189e+003, 1.385288e-003
1.776118e+003, 1.675769e-003
1.778046e+003, 1.653218e-003
1.779975e+003, 1.731087e-003
1.781903e+003, 1.941615e-003
1.783832e+003, 1.844441e-003
1.785760e+003, 1.609316e-003
1.787689e+003, 1.549923e-003
1.789617e+003, 1.790106e-003
1.791546e+003, 1.810468e-003
1.793474e+003, 1.519133e-003
1.795402e+003, 1.416834e-003
1.797331e+003, 1.409920e-003
1.799259e+003, 1.611112e-003
1.801188e+003, 1.764788e-003
1.803116e+003, 1.816757e-003
1.805045e+003, 1.699485e-003
1.806973e+003, 1.732751e-003
1.808902e+003, 1.816823e-003
1.810830e+003, 1.791936e-003
1.812759e+003, 1.964614e-003
1.814687e+003, 1.708068e-003
1.816616e+003, 1.535691e-003
1.818544e+003, 1.687444e-003
1.820473e+003, 1.757735e-003
1.822401e+003, 1.924441e-003
1.824329e+003, 1.880812e-003
1.826258e+003, 1.829035e-003
1.828186e+003, 1.618928e-003
1.830115e+003, 1.660236e-003
1.832043e+003, 1.809636e-003
1.833972e+003, 1.815958e-003
1.835900e+003, 1.639382e-003
1.837829e+003, 1.549591e-003
1.839757e+003, 1.975930e-003
1.841686e+003, 2.155674e-003
1.843614e+003, 1.663229e-003
1.845543e+003, 1.141110e-003
1.847471e+003, 1.243975e-003
1.849400e+003, 1.597577e-003
1.851328e+003, 1.548926e-003
1.853256e+003, 1.350720e-003
1.855185e+003, 1.657043e-003
1.857113e+003, 2.099336e-003
1.859042e+003, 2.283561e-003
1.860970e+003, 2.013245e-003
1.862899e+003, 1.520995e-003
1.864827e+003, 1.306450e-003
1.866756e+003, 1.436314e-003
1.868684e+003, 1.523156e-003
1.870613e+003, 1.420092e-003
1.872541e+003, 1.771441e-003
1.874470e+003, 1.483457e-003
1.876398e+003, 8.211083e-004
1.878327e+003, 7.564459e-004
1.880255e+003, 1.291794e-003
1.882183e+003, 1.361422e-003
1.884112e+003, 1.209485e-003
1.886040e+003, 1.581514e-003
1.887969e+003, 1.738439e-003
1.889897e+003, 1.210548e-003
1.891826e+003, 9.748364e-004
1.893754e+003, 1.225301e-003
1.895683e+003, 1.420158e-003
1.897611e+003, 1.591956e-003
1.899540e+003, 1.459054e-003
1.901468e+003, 1.464838e-003
1.903397e+003, 1.485584e-003
1.905325e+003, 1.062084e-003
1.907254e+003, 9.374784e-004
1.909182e+003, 1.251950e-003
1.911110e+003, 1.000806e-003
1.913039e+003, 6.457653e-004
1.914967e+003, 4.941439e-004
1.916896e+003, 5.998088e-004
1.918824e+003, 9.823084e-004
1.920753e+003, 6.806756e-004
1.922681e+003, 4.145266e-005
1.924610e+003, 1.000660e-005
1.926538e+003, 5.430418e-004
1.928467e+003, 9.169911e-004
1.930395e+003, 4.315201e-004
1.932324e+003, 2.337241e-004
1.934252e+003, 5.544212e-004
1.936181e+003, 6.484816e-005
1.938109e+003, -4.300585e-005
1.940037e+003, 2.565664e-004
1.941966e+003, 1.706075e-004
1.943894e+003, 8.194821e-005
1.945823e+003, -1.069435e-004
1.947751e+003, -2.044883e-004
1.949680e+003, 9.722616e-005
1.951608e+003, -2.167750e-004
1.953537e+003, 3.823837e-005
1.955465e+003, -5.519780e-005
1.957394e+003, -1.148629e-003
1.959322e+003, -8.755784e-004
1.961251e+003, -7.288671e-004
1.963179e+003, -9.166460e-004
1.965108e+003, -1.487289e-003
1.967036e+003, -1.885073e-003
1.968964e+003, -9.655121e-004
1.970893e+003, -1.460938e-003
1.972821e+003, -1.968300e-003
1.974750e+003, -2.602750e-003
1.976678e+003, -2.076937e-003
1.978607e+003, 6.000079e-004
1.980535e+003, 1.675237e-003
1.982464e+003, 1.137057e-003
1.984392e+003, 3.279852e-004
1.986321e+003, -4.939794e-004
1.988249e+003, -9.499735e-004
1.990178e+003, -4.748162e-004
1.992106e+003, -1.171000e-003
1.994035e+003, -1.676292e-003
1.995963e+003, -1.669856e-003
1.997891e+003, -1.993698e-003
1.999820e+003, -2.507785e-003
2.001748e+003, -1.890847e-003
2.003677e+003, -1.422498e-003
2.005605e+003, -2.404298e-003
2.007534e+003, -2.570965e-003
2.009462e+003, -1.965563e-003
2.011391e+003, -1.800576e-003
2.013319e+003, -1.789984e-003
2.015248e+003, -1.956591e-003
2.017176e+003, -2.358427e-003
2.019105e+003, -2.407857e-003
2.021033e+003, -1.161087e-003
2.022962e+003, -8.455522e-004
2.024890e+003, -2.059096e-003
2.026818e+003, -2.300325e-003
2.028747e+003, -2.390194e-003
2.030675e+003, -2.652942e-003
2.032604e+003, -2.458202e-003
2.034532e+003, -1.704314e-003
2.036461e+003, -4.724663e-004
2.038389e+003, -4.621952e-005
2.040318e+003, -7.743476e-004
2.042246e+003, -1.239100e-003
2.044175e+003, -1.127214e-003
2.046103e+003, -6.625727e-004
2.048032e+003, -1.484380e-005
2.049960e+003, -5.901468e-004
2.051889e+003, -1.367573e-003
2.053817e+003, -1.353535e-003
2.055746e+003, -5.705577e-004
2.057674e+003, -2.507523e-004
2.059603e+003, -6.193304e-004
2.061531e+003, -8.938973e-004
2.063459e+003, -5.318731e-004
2.065388e+003, -2.299441e-005
2.067316e+003, -1.269842e-004
2.069245e+003, 4.576896e-004
2.071173e+003, 5.864375e-004
2.073102e+003, 4.290326e-004
2.075030e+003, 5.626490e-004
2.076959e+003, 4.043904e-004
2.078887e+003, -7.437955e-005
2.080816e+003, 1.671271e-004
2.082744e+003, 3.277862e-004
2.084673e+003, -9.369296e-005
2.086601e+003, -3.023091e-004
2.088530e+003, -1.541122e-004
2.090458e+003, 3.497712e-004
2.092386e+003, -1.853123e-004
2.094315e+003, -6.327966e-004
2.096243e+003, 2.186852e-006
2.098172e+003, 6.903992e-004
2.100100e+003, 9.154637e-004
2.102029e+003, 9.350877e-004
2.103957e+003, 6.760959e-004
2.105886e+003, 5.398238e-004
2.107814e+003, 7.085195e-004
2.109743e+003, 7.139624e-004
2.111671e+003, 7.785521e-004
2.113600e+003, 6.652775e-004
2.115528e+003, -2.981703e-004
2.117457e+003, -7.971356e-004
2.119385e+003, -5.328328e-004
2.121313e+003, -3.655134e-004
2.123242e+003, -3.527342e-004
2.125170e+003, -2.507192e-004
2.127099e+003, -2.402547e-004
2.129027e+003, -4.670381e-004
2.130956e+003, -3.163149e-004
2.132884e+003, -7.600589e-004
2.134813e+003, -1.380586e-003
2.136741e+003, -9.857116e-004
2.138670e+003, -7.001209e-004
2.140598e+003, -6.313738e-004
2.142527e+003, 3.577962e-004
2.144455e+003, 1.215858e-004
2.146384e+003, 1.703092e-004
2.148312e+003, 1.041225e-003
2.150240e+003, 1.284465e-004
2.152169e+003, -1.772309e-004
2.154097e+003, 7.478824e-004
2.156026e+003, -6.678660e-004
2.157954e+003, -2.553014e-003
2.159883e+003, -6.823893e-004
2.161811e+003, 1.175755e-004
2.163740e+003, 2.685018e-004
2.165668e+003, 8.597842e-004
2.167597e+003, 1.969606e-003
2.169525e+003, 5.293073e-004
2.171454e+003, -7.029989e-004
2.173382e+003, 3.239729e-004
2.175311e+003, 1.672243e-003
2.177239e+003, 9.604242e-004
2.179167e+003, 1.752150e-004
2.181096e+003, 1.182074e-003
2.183024e+003, 1.488809e-003
2.184953e+003, 1.340151e-003
2.186881e+003, 1.543506e-003
2.188810e+003, 1.878216e-003
2.190738e+003, 1.428369e-003
2.192667e+003, 4.187842e-004
2.194595e+003, 7.573752e-004
2.196524e+003, 1.382163e-003
2.198452e+003, 1.830965e-003
2.200381e+003, 1.734713e-003
2.202309e+003, 1.113869e-003
2.204238e+003, 1.380967e-003
2.206166e+003, 1.330180e-003
2.208094e+003, 1.463741e-003
2.210023e+003, 1.688176e-003
2.211951e+003, 1.113371e-003
2.213880e+003, 1.220084e-003
2.215808e+003, 1.029734e-003
2.217737e+003, 6.840606e-004
2.219665e+003, 3.474168e-004
2.221594e+003, 6.862509e-004
2.223522e+003, 1.721740e-003
2.225451e+003, 2.060450e-003
2.227379e+003, 1.803747e-003
2.229308e+003, 1.512017e-003
2.231236e+003, 1.513846e-003
2.233165e+003, 1.703610e-003
2.235093e+003, 1.742498e-003
2.237021e+003, 2.340356e-003
2.238950e+003, 3.249421e-003
2.240878e+003, 3.089146e-003
2.242807e+003, 2.769540e-003
2.244735e+003, 1.910663e-003
2.246664e+003, 1.840082e-003
2.248592e+003, 2.640010e-003
2.250521e+003, 3.542321e-003
2.252449e+003, 3.286344e-003
2.254378e+003, 3.257099e-003
2.256306e+003, 3.999213e-003
2.258235e+003, 3.544292e-003
2.260163e+003, 2.245291e-003
2.262092e+003, 2.236431e-003
2.264020e+003, 3.488608e-003
2.265948e+003, 3.970088e-003
2.267877e+003, 3.684117e-003
2.269805e+003, 3.345207e-003
2.271734e+003, 3.441615e-003
2.273662e+003, 3.850729e-003
2.275591e+003, 3.991221e-003
2.277519e+003, 3.410323e-003
2.279448e+003, 3.593768e-003
2.281376e+003, 4.286161e-003
2.283305e+003, 4.193278e-003
2.285233e+003, 4.103527e-003
2.287162e+003, 3.945745e-003
2.289090e+003, 3.795173e-003
2.291019e+003, 3.521176e-003
2.292947e+003, 3.190371e-003
2.294875e+003, 3.473812e-003
2.296804e+003, 3.388783e-003
2.298732e+003, 3.332452e-003
2.300661e+003, 3.468167e-003
2.302589e+003, 3.480893e-003
2.304518e+003, 3.481294e-003
2.306446e+003, 3.531665e-003
2.308375e+003, 3.469436e-003
2.310303e+003, 3.391655e-003
2.312232e+003, 3.456611e-003
2.314160e+003, 3.383474e-003
2.316089e+003, 3.561229e-003
2.318017e+003, 4.092555e-003
2.319946e+003, 4.384351e-003
2.321874e+003, 4.557829e-003
2.323802e+003, 4.426493e-003
2.325731e+003, 3.650702e-003
2.327659e+003, 3.495890e-003
2.329588e+003, 3.654778e-003
2.331516e+003, 3.562365e-003
2.333445e+003, 3.336960e-003
2.335373e+003, 3.476785e-003
2.337302e+003, 3.566039e-003
2.339230e+003, 3.664134e-003
2.341159e+003, 3.624038e-003
2.343087e+003, 3.424549e-003
2.345016e+003, 3.452069e-003
2.346944e+003, 3.494654e-003
2.348873e+003, 3.145713e-003
2.350801e+003, 2.975134e-003
2.352729e+003, 3.317494e-003
2.354658e+003, 3.660459e-003
2.356586e+003, 3.421678e-003
2.358515e+003, 3.290684e-003
2.360443e+003, 3.193108e-003
2.362372e+003, 3.098824e-003
2.364300e+003, 3.213603e-003
2.366229e+003, 3.107400e-003
2.368157e+003, 3.302336e-003
2.370086e+003, 3.217408e-003
2.372014e+003, 2.953282e-003
2.373942e+003, 2.980972e-003
2.375871e+003, 2.899075e-003
2.377799e+003, 3.012601e-003
2.379728e+003, 3.098490e-003
2.381656e+003, 2.613209e-003
2.383585e+003, 2.501754e-003
2.385513e+003, 3.221714e-003
2.387442e+003, 3.245682e-003
2.389370e+003, 2.860751e-003
2.391299e+003, 2.709822e-003
2.393227e+003, 2.891003e-003
2.395156e+003, 2.930665e-003
2.397084e+003, 2.668447e-003
2.399012e+003, 2.196767e-003
2.400941e+003, 2.614609e-003
2.402869e+003, 2.993617e-003
2.404798e+003, 2.901511e-003
2.406726e+003, 2.838172e-003
2.408655e+003, 3.140206e-003
2.410583e+003, 3.507781e-003
2.412512e+003, 3.244781e-003
2.414440e+003, 2.609276e-003
2.416369e+003, 2.697019e-003
2.418297e+003, 3.040661e-003
2.420226e+003, 2.858650e-003
2.422154e+003, 2.471296e-003
2.424083e+003, 2.827066e-003
2.426011e+003, 3.466464e-003
2.427939e+003, 3.595038e-003
2.429868e+003, 3.244247e-003
2.431796e+003, 3.072695e-003
2.433725e+003, 3.187300e-003
2.435653e+003, 3.284942e-003
2.437582e+003, 2.926261e-003
2.439510e+003, 3.118647e-003
2.441439e+003, 2.954817e-003
2.443367e+003, 2.961956e-003
2.445296e+003, 3.568545e-003
2.447224e+003, 3.814025e-003
2.449153e+003, 3.386479e-003
2.451081e+003, 3.068390e-003
2.453010e+003, 3.620196e-003
2.454938e+003, 3.974501e-003
2.456866e+003, 3.157628e-003
2.458795e+003, 2.746966e-003
2.460723e+003, 2.928630e-003
2.462652e+003, 3.080970e-003
2.464580e+003, 2.822097e-003
2.466509e+003, 2.802854e-003
2.468437e+003, 2.930565e-003
2.470366e+003, 2.829200e-003
2.472294e+003, 2.496722e-003
2.474223e+003, 2.450370e-003
2.476151e+003, 3.059414e-003
2.478080e+003, 3.362069e-003
2.480008e+003, 3.637403e-003
2.481937e+003, 3.442083e-003
2.483865e+003, 3.127924e-003
2.485793e+003, 3.555717e-003
2.487722e+003, 3.626912e-003
2.489650e+003, 3.599582e-003
2.491579e+003, 3.789825e-003
2.493507e+003, 3.711719e-003
2.495436e+003, 3.462456e-003
2.497364e+003, 3.745874e-003
2.499293e+003, 3.607800e-003
2.501221e+003, 2.792049e-003
2.503150e+003, 2.722625e-003
2.505078e+003, 3.178088e-003
2.507007e+003, 2.797152e-003
2.508935e+003, 2.440173e-003
2.510864e+003, 2.461666e-003
2.512792e+003, 2.864653e-003
2.514720e+003, 3.182393e-003
2.516649e+003, 2.950580e-003
2.518577e+003, 2.870557e-003
2.520506e+003, 3.082839e-003
2.522434e+003, 3.034822e-003
2.524363e+003, 3.422779e-003
2.526291e+003, 3.936249e-003
2.528220e+003, 3.747779e-003
2.530148e+003, 3.355358e-003
2.532077e+003, 3.297862e-003
2.534005e+003, 2.836971e-003
2.535934e+003, 2.621409e-003
2.537862e+003, 3.090848e-003
2.539791e+003, 3.362671e-003
2.541719e+003, 3.060415e-003
2.543647e+003, 2.803221e-003
2.545576e+003, 2.698519e-003
2.547504e+003, 2.742331e-003
2.549433e+003, 2.551645e-003
2.551361e+003, 2.173722e-003
2.553290e+003, 2.689517e-003
2.555218e+003, 3.284274e-003
2.557147e+003, 3.162701e-003
2.559075e+003, 2.863019e-003
2.561004e+003, 2.582476e-003
2.562932e+003, 2.516484e-003
2.564861e+003, 2.694151e-003
2.566789e+003, 2.935035e-003
2.568718e+003, 2.909950e-003
2.570646e+003, 3.016171e-003
2.572574e+003, 3.136435e-003
2.574503e+003, 3.286812e-003
2.576431e+003, 3.049804e-003
2.578360e+003, 2.840073e-003
2.580288e+003, 2.624143e-003
2.582217e+003, 2.969963e-003
2.584145e+003, 3.084474e-003
2.586074e+003, 3.105064e-003
2.588002e+003, 3.115443e-003
2.589931e+003, 2.872191e-003
2.591859e+003, 2.752367e-003
2.593788e+003, 2.848211e-003
2.595716e+003, 2.889703e-003
2.597645e+003, 2.856249e-003
2.599573e+003, 3.076098e-003
2.601501e+003, 2.960688e-003
2.603430e+003, 2.758003e-003
2.605358e+003, 2.855381e-003
2.607287e+003, 2.887401e-003
2.609215e+003, 2.708521e-003
2.611144e+003, 2.646077e-003
2.613072e+003, 2.592609e-003
2.615001e+003, 2.543346e-003
2.616929e+003, 2.384198e-003
2.618858e+003, 2.799886e-003
2.620786e+003, 3.073729e-003
2.622715e+003, 2.823231e-003
2.624643e+003, 2.721758e-003
2.626572e+003, 2.768006e-003
2.628500e+003, 2.830601e-003
2.630428e+003, 2.800253e-003
2.632357e+003, 2.915287e-003
2.634285e+003, 3.148917e-003
2.636214e+003, 3.301001e-003
2.638142e+003, 3.118380e-003
2.640071e+003, 2.993650e-003
2.641999e+003, 3.126957e-003
2.643928e+003, 3.197714e-003
2.645856e+003, 2.967861e-003
2.647785e+003, 2.540980e-003
2.649713e+003, 2.692651e-003
2.651642e+003, 2.967360e-003
2.653570e+003, 3.023544e-003
2.655499e+003, 2.754502e-003
2.657427e+003, 2.867422e-003
2.659355e+003, 2.913252e-003
2.661284e+003, 2.444805e-003
2.663212e+003, 2.493856e-003
2.665141e+003, 2.536281e-003
2.667069e+003, 2.713556e-003
2.668998e+003, 2.820496e-003
2.670926e+003, 2.896907e-003
2.672855e+003, 2.740230e-003
2.674783e+003, 2.194369e-003
2.676712e+003, 2.055323e-003
2.678640e+003, 2.024629e-003
2.680569e+003, 2.366074e-003
2.682497e+003, 2.445538e-003
2.684426e+003, 2.279897e-003
2.686354e+003, 2.223942e-003
2.688282e+003, 2.095474e-003
2.690211e+003, 2.283194e-003
2.692139e+003, 2.709688e-003
2.694068e+003, 2.669947e-003
2.695996e+003, 2.483192e-003
2.697925e+003, 2.470829e-003
2.699853e+003, 2.508453e-003
2.701782e+003, 2.420714e-003
2.703710e+003, 2.354650e-003
2.705639e+003, 2.880426e-003
2.707567e+003, 2.995037e-003
2.709496e+003, 3.095140e-003
2.711424e+003, 2.826717e-003
2.713353e+003, 3.184344e-003
2.715281e+003, 3.700722e-003
2.717209e+003, 3.129330e-003
2.719138e+003, 2.355803e-003
2.721066e+003, 2.453144e-003
2.722995e+003, 3.183130e-003
2.724923e+003, 3.474626e-003
2.726852e+003, 3.407332e-003
2.728780e+003, 3.276818e-003
2.730709e+003, 3.221130e-003
2.732637e+003, 3.089203e-003
2.734566e+003, 2.713735e-003
2.736494e+003, 3.440592e-003
2.738423e+003, 3.900317e-003
2.740351e+003, 2.802145e-003
2.742280e+003, 2.213696e-003
2.744208e+003, 2.271043e-003
2.746136e+003, 2.808790e-003
2.748065e+003, 3.471989e-003
2.749993e+003, 3.556981e-003
2.751922e+003, 3.247038e-003
2.753850e+003, 3.532513e-003
2.755779e+003, 3.394608e-003
2.757707e+003, 3.439057e-003
2.759636e+003, 2.968896e-003
2.761564e+003, 2.742463e-003
2.763493e+003, 2.994271e-003
2.765421e+003, 2.925080e-003
2.767350e+003, 2.857529e-003
2.769278e+003, 2.956734e-003
2.771207e+003, 2.862933e-003
2.773135e+003, 2.628725e-003
2.775063e+003, 2.862642e-003
2.776992e+003, 2.805327e-003
2.778920e+003, 2.916580e-003
2.780849e+003, 3.342453e-003
2.782777e+003, 2.854217e-003
2.784706e+003, 2.760861e-003
2.786634e+003, 3.392479e-003
2.788563e+003, 2.951331e-003
2.790491e+003, 2.301366e-003
2.792420e+003, 2.467561e-003
2.794348e+003, 2.660386e-003
2.796277e+003, 2.711109e-003
2.798205e+003, 2.746973e-003
2.800134e+003, 2.886693e-003
2.802062e+003, 2.524830e-003
2.803990e+003, 2.058688e-003
2.805919e+003, 2.230683e-003
2.807847e+003, 2.741004e-003
2.809776e+003, 2.837358e-003
2.811704e+003, 2.442045e-003
2.813633e+003, 2.284422e-003
2.815561e+003, 1.587629e-003
2.817490e+003, 1.735442e-003
2.819418e+003, 2.331414e-003
2.821347e+003, 2.387344e-003
2.823275e+003, 2.830546e-003
2.825204e+003, 3.248503e-003
2.827132e+003, 2.281537e-003
2.829061e+003, 1.712004e-003
2.830989e+003, 2.265217e-003
2.832917e+003, 2.194243e-003
2.834846e+003, 1.505671e-003
2.836774e+003, 1.544969e-003
2.838703e+003, 1.762267e-003
2.840631e+003, 5.716928e-004
2.842560e+003, 3.009113e-004
2.844488e+003, 8.240547e-004
2.846417e+003, 8.500200e-004
2.848345e+003, 1.321327e-003
2.850274e+003, 1.911588e-003
2.852202e+003, 2.107294e-003
2.854131e+003, 1.880764e-003
2.856059e+003, 1.452586e-003
2.857988e+003, 2.473747e-003
2.859916e+003, 3.120906e-003
2.861844e+003, 2.845383e-003
2.863773e+003, 2.390072e-003
2.865701e+003, 2.154826e-003
2.867630e+003, 1.854795e-003
2.869558e+003, 1.153777e-003
2.871487e+003, 1.340865e-003
2.873415e+003, 2.127745e-003
2.875344e+003, 2.185663e-003
2.877272e+003, 2.157339e-003
2.879201e+003, 2.116099e-003
2.881129e+003, 2.435832e-003
2.883058e+003, 2.109582e-003
2.884986e+003, 1.876148e-003
2.886915e+003, 1.766003e-003
2.888843e+003, 2.230735e-003
2.890771e+003, 2.197291e-003
2.892700e+003, 1.479960e-003
2.894628e+003, 1.655444e-003
2.896557e+003, 2.167371e-003
2.898485e+003, 2.531602e-003
2.900414e+003, 2.088884e-003
2.902342e+003, 9.812256e-004
2.904271e+003, 7.098988e-004
2.906199e+003, 1.427465e-003
2.908128e+003, 2.257791e-003
2.910056e+003, 2.774984e-003
2.911985e+003, 2.656364e-003
2.913913e+003, 2.480268e-003
2.915842e+003, 1.953512e-003
2.917770e+003, 2.505329e-003
2.919698e+003, 4.278639e-003
2.921627e+003, 3.776720e-003
2.923555e+003, 2.529304e-003
2.925484e+003, 3.328638e-003
2.927412e+003, 3.255311e-003
2.929341e+003, 3.411846e-003
2.931269e+003, 3.582243e-003
2.933198e+003, 4.323691e-003
2.935126e+003, 4.923935e-003
2.937055e+003, 3.828036e-003
2.938983e+003, 3.136763e-003
2.940912e+003, 3.552783e-003
2.942840e+003, 3.443250e-003
2.944769e+003, 2.827788e-003
2.946697e+003, 2.270237e-003
2.948625e+003, 2.064114e-003
2.950554e+003, 2.263094e-003
2.952482e+003, 2.186571e-003
2.954411e+003, 1.712517e-003
2.956339e+003, 3.054613e-003
2.958268e+003, 4.328591e-003
2.960196e+003, 3.899762e-003
2.962125e+003, 3.692249e-003
2.964053e+003, 4.028881e-003
2.965982e+003, 3.735818e-003
2.967910e+003, 3.749464e-003
2.969839e+003, 3.801173e-003
2.971767e+003, 3.338606e-003
2.973696e+003, 2.489253e-003
2.975624e+003, 2.902140e-003
2.977552e+003, 3.605301e-003
2.979481e+003, 4.091443e-003
2.981409e+003, 3.909042e-003
2.983338e+003, 4.224933e-003
2.985266e+003, 4.940294e-003
2.987195e+003, 5.184541e-003
2.989123e+003, 4.741203e-003
2.991052e+003, 4.664459e-003
2.992980e+003, 4.706082e-003
2.994909e+003, 3.549827e-003
2.996837e+003, 3.468987e-003
2.998766e+003, 4.589268e-003
3.000694e+003, 5.544579e-003
3.002623e+003, 5.262366e-003
3.004551e+003, 5.563272e-003
3.006479e+003, 5.232680e-003
3.008408e+003, 3.986511e-003
3.010336e+003, 4.128376e-003
3.012265e+003, 3.927896e-003
3.014193e+003, 4.020703e-003
3.016122e+003, 4.616822e-003
3.018050e+003, 4.917959e-003
3.019979e+003, 4.935183e-003
3.021907e+003, 5.326448e-003
3.023836e+003, 5.467757e-003
3.025764e+003, 5.629212e-003
3.027693e+003, 5.129891e-003
3.029621e+003, 4.874763e-003
3.031550e+003, 3.568870e-003
3.033478e+003, 2.935344e-003
3.035406e+003, 3.905012e-003
3.037335e+003, 3.793203e-003
3.039263e+003, 3.633045e-003
3.041192e+003, 3.986086e-003
3.043120e+003, 4.078484e-003
3.045049e+003, 3.661529e-003
3.046977e+003, 3.578091e-003
3.048906e+003, 3.630998e-003
3.050834e+003, 3.677477e-003
3.052763e+003, 3.914083e-003
3.054691e+003, 4.112279e-003
3.056620e+003, 4.829251e-003
3.058548e+003, 4.526365e-003
3.060477e+003, 3.613496e-003
3.062405e+003, 3.711353e-003
3.064333e+003, 3.683000e-003
3.066262e+003, 3.580558e-003
3.068190e+003, 3.491717e-003
3.070119e+003, 2.402370e-003
3.072047e+003, 1.960120e-003
3.073976e+003, 2.342740e-003
3.075904e+003, 3.020456e-003
3.077833e+003, 4.342852e-003
3.079761e+003, 4.542453e-003
3.081690e+003, 3.996500e-003
3.083618e+003, 4.047039e-003
3.085547e+003, 4.603415e-003
3.087475e+003, 5.312850e-003
3.089404e+003, 5.239297e-003
3.091332e+003, 4.608368e-003
3.093260e+003, 4.689516e-003
3.095189e+003, 4.048478e-003
3.097117e+003, 3.661805e-003
3.099046e+003, 4.002330e-003
3.100974e+003, 4.759673e-003
3.102903e+003, 5.778118e-003
3.104831e+003, 4.944692e-003
3.106760e+003, 3.684670e-003
3.108688e+003, 3.400608e-003
3.110617e+003, 3.849949e-003
3.112545e+003, 5.118384e-003
3.114474e+003, 5.281232e-003
3.116402e+003, 4.498281e-003
3.118331e+003, 3.466117e-003
3.120259e+003, 3.088580e-003
3.122188e+003, 3.318718e-003
3.124116e+003, 3.567808e-003
3.126044e+003, 4.605646e-003
3.127973e+003, 4.642006e-003
3.129901e+003, 4.063645e-003
3.131830e+003, 4.752611e-003
3.133758e+003, 4.481930e-003
3.135687e+003, 4.130727e-003
3.137615e+003, 3.983848e-003
3.139544e+003, 3.737621e-003
3.141472e+003, 3.855719e-003
3.143401e+003, 4.142202e-003
3.145329e+003, 4.339608e-003
3.147258e+003, 4.320992e-003
3.149186e+003, 3.318996e-003
3.151115e+003, 2.790949e-003
3.153043e+003, 3.117679e-003
3.154971e+003, 3.565805e-003
3.156900e+003, 3.968449e-003
3.158828e+003, 3.643351e-003
3.160757e+003, 3.421110e-003
3.162685e+003, 3.849759e-003
3.164614e+003, 3.827396e-003
3.166542e+003, 3.723249e-003
3.168471e+003, 3.612445e-003
3.170399e+003, 3.811518e-003
3.172328e+003, 4.122860e-003
3.174256e+003, 4.002992e-003
3.176185e+003, 4.063624e-003
3.178113e+003, 3.936918e-003
3.180042e+003, 3.794572e-003
3.181970e+003, 3.904052e-003
3.183898e+003, 4.035498e-003
3.185827e+003, 4.210074e-003
3.187755e+003, 3.779698e-003
3.189684e+003, 3.157261e-003
3.191612e+003, 2.948312e-003
3.193541e+003, 3.285843e-003
3.195469e+003, 3.742700e-003
3.197398e+003, 4.105099e-003
3.199326e+003, 3.993428e-003
3.201255e+003, 3.724786e-003
3.203183e+003, 3.441716e-003
3.205112e+003, 3.483832e-003
3.207040e+003, 3.307979e-003
3.208969e+003, 3.203689e-003
3.210897e+003, 4.050113e-003
3.212825e+003, 4.112959e-003
3.214754e+003, 3.653809e-003
3.216682e+003, 3.631456e-003
3.218611e+003, 3.469036e-003
3.220539e+003, 3.233665e-003
3.222468e+003, 3.124053e-003
3.224396e+003, 3.283640e-003
3.226325e+003, 3.507213e-003
3.228253e+003, 3.938188e-003
3.230182e+003, 4.138750e-003
3.232110e+003, 3.612745e-003
3.234039e+003, 3.211032e-003
3.235967e+003, 3.528425e-003
3.237896e+003, 3.389585e-003
3.239824e+003, 3.091515e-003
3.241752e+003, 3.330983e-003
3.243681e+003, 3.902614e-003
3.245609e+003, 3.883892e-003
3.247538e+003, 3.953402e-003
3.249466e+003, 3.924948e-003
3.251395e+003, 3.832544e-003
3.253323e+003, 4.150826e-003
3.255252e+003, 3.476684e-003
3.257180e+003, 3.892417e-003
3.259109e+003, 4.844912e-003
3.261037e+003, 4.416015e-003
3.262966e+003, 4.053491e-003
3.264894e+003, 3.750420e-003
3.266823e+003, 3.398434e-003
3.268751e+003, 3.419373e-003
3.270679e+003, 3.455342e-003
3.272608e+003, 3.574592e-003
3.274536e+003, 3.530963e-003
3.276465e+003, 3.238739e-003
3.278393e+003, 3.296093e-003
3.280322e+003, 3.171112e-003
3.282250e+003, 3.591062e-003
3.284179e+003, 3.914282e-003
3.286107e+003, 3.746108e-003
3.288036e+003, 3.385043e-003
3.289964e+003, 3.498796e-003
3.291893e+003, 3.843642e-003
3.293821e+003, 3.843709e-003
3.295750e+003, 3.338930e-003
3.297678e+003, 3.227823e-003
3.299606e+003, 3.568545e-003
3.301535e+003, 3.744070e-003
3.303463e+003, 3.732807e-003
3.305392e+003, 3.760914e-003
3.307320e+003, 3.943939e-003
3.309249e+003, 3.743568e-003
3.311177e+003, 3.281336e-003
3.313106e+003, 3.615117e-003
3.315034e+003, 3.600383e-003
3.316963e+003, 2.989780e-003
3.318891e+003, 3.527857e-003
3.320820e+003, 3.723349e-003
3.322748e+003, 3.523180e-003
3.324677e+003, 3.999982e-003
3.326605e+003, 3.815563e-003
3.328533e+003, 3.316993e-003
3.330462e+003, 3.420642e-003
3.332390e+003, 3.286378e-003
3.334319e+003, 3.341067e-003
3.336247e+003, 3.557888e-003
3.338176e+003, 4.104597e-003
3.340104e+003, 4.252666e-003
3.342033e+003, 3.662397e-003
3.343961e+003, 3.425518e-003
3.345890e+003, 3.557454e-003
3.347818e+003, 3.814761e-003
3.349747e+003, 4.243465e-003
3.351675e+003, 3.805401e-003
3.353604e+003, 3.381871e-003
3.355532e+003, 3.541720e-003
3.357460e+003, 3.889241e-003
3.359389e+003, 3.615552e-003
3.361317e+003, 3.440146e-003
3.363246e+003, 2.959521e-003
3.365174e+003, 2.639977e-003
3.367103e+003, 3.415566e-003
3.369031e+003, 3.613748e-003
3.370960e+003, 3.398034e-003
3.372888e+003, 2.824598e-003
3.374817e+003, 2.978470e-003
3.376745e+003, 3.628315e-003
3.378674e+003, 3.473778e-003
3.380602e+003, 3.191138e-003
3.382531e+003, 3.197347e-003
3.384459e+003, 3.290617e-003
3.386387e+003, 3.511756e-003
3.388316e+003, 3.635833e-003
3.390244e+003, 3.824020e-003
3.392173e+003, 4.032622e-003
3.394101e+003, 3.953603e-003
3.396030e+003, 3.917793e-003
3.397958e+003, 4.171934e-003
3.399887e+003, 4.142095e-003
3.401815e+003, 3.791864e-003
3.403744e+003, 3.131796e-003
3.405672e+003, 2.662479e-003
3.407601e+003, 3.569881e-003
3.409529e+003, 4.335186e-003
3.411458e+003, 3.546062e-003
3.413386e+003, 2.886734e-003
3.415314e+003, 3.202020e-003
3.417243e+003, 3.269318e-003
3.419171e+003, 3.561997e-003
3.421100e+003, 3.696381e-003
3.423028e+003, 3.846149e-003
3.424957e+003, 3.959788e-003
3.426885e+003, 3.384910e-003
3.428814e+003, 3.026647e-003
3.430742e+003, 2.853647e-003
3.432671e+003, 2.544480e-003
3.434599e+003, 2.631043e-003
3.436528e+003, 2.859350e-003
3.438456e+003, 3.886265e-003
3.440385e+003, 4.387029e-003
3.442313e+003, 4.250592e-003
3.444241e+003, 3.778862e-003
3.446170e+003, 2.579143e-003
3.448098e+003, 2.513652e-003
3.450027e+003, 3.556919e-003
3.451955e+003, 3.615151e-003
3.453884e+003, 3.241543e-003
3.455812e+003, 3.118914e-003
3.457741e+003, 2.971464e-003
3.459669e+003, 2.944542e-003
3.461598e+003, 3.382305e-003
3.463526e+003, 3.300466e-003
3.465455e+003, 3.336425e-003
3.467383e+003, 3.192607e-003
3.469312e+003, 2.420015e-003
3.471240e+003, 2.429877e-003
3.473168e+003, 3.309781e-003
3.475097e+003, 3.442617e-003
3.477025e+003, 3.449297e-003
3.478954e+003, 3.668445e-003
3.480882e+003, 3.567843e-003
3.482811e+003, 3.485469e-003
3.484739e+003, 3.603223e-003
3.486668e+003, 3.729030e-003
3.488596e+003, 3.873361e-003
3.490525e+003, 3.822148e-003
3.492453e+003, 2.942807e-003
3.494382e+003, 2.215117e-003
3.496310e+003, 2.354481e-003
3.498239e+003, 2.897575e-003
3.500167e+003, 3.189837e-003
3.502095e+003, 3.575728e-003
3.504024e+003, 3.262240e-003
3.505952e+003, 3.245716e-003
3.507881e+003, 3.141174e-003
3.509809e+003, 3.488141e-003
3.511738e+003, 3.898736e-003
3.513666e+003, 3.315991e-003
3.515595e+003, 2.278897e-003
3.517523e+003, 2.421214e-003
3.519452e+003, 2.904579e-003
3.521380e+003, 2.665113e-003
3.523309e+003, 3.038993e-003
3.525237e+003, 3.691101e-003
3.527166e+003, 3.029116e-003
3.529094e+003, 3.053040e-003
3.531022e+003, 3.869182e-003
3.532951e+003, 4.134301e-003
3.534879e+003, 3.416100e-003
3.536808e+003, 2.916821e-003
3.538736e+003, 2.956185e-003
3.540665e+003, 2.314039e-003
3.542593e+003, 1.990543e-003
3.544522e+003, 2.699819e-003
3.546450e+003, 3.254028e-003
3.548379e+003, 2.788048e-003
3.550307e+003, 2.468997e-003
3.552236e+003, 2.299116e-003
3.554164e+003, 3.138738e-003
3.556093e+003, 3.990485e-003
3.558021e+003, 3.459083e-003
3.559949e+003, 2.555578e-003
3.561878e+003, 2.308443e-003
3.563806e+003, 2.702253e-003
3.565735e+003, 2.502954e-003
3.567663e+003, 2.512952e-003
3.569592e+003, 2.400223e-003
3.571520e+003, 2.639044e-003
3.573449e+003, 3.414898e-003
3.575377e+003, 3.486237e-003
3.577306e+003, 2.588909e-003
3.579234e+003, 2.588376e-003
3.581163e+003, 2.440773e-003
3.583091e+003, 1.874789e-003
3.585020e+003, 2.151079e-003
3.586948e+003, 2.951648e-003
3.588876e+003, 2.273002e-003
3.590805e+003, 1.270592e-003
3.592733e+003, 1.428868e-003
3.594662e+003, 1.912460e-003
3.596590e+003, 1.847369e-003
3.598519e+003, 1.366574e-003
3.600447e+003, 1.605891e-003
3.602376e+003, 2.483226e-003
3.604304e+003, 2.406654e-003
3.606233e+003, 2.966193e-003
3.608161e+003, 2.900543e-003
3.610090e+003, 2.241061e-003
3.612018e+003, 1.985716e-003
3.613947e+003, 1.596612e-003
3.615875e+003, 1.622320e-003
3.617803e+003, 2.039643e-003
3.619732e+003, 2.146750e-003
3.621660e+003, 1.864107e-003
3.623589e+003, 1.565818e-003
3.625517e+003, 1.568246e-003
3.627446e+003, 2.594909e-003
3.629374e+003, 2.800487e-003
3.631303e+003, 2.048198e-003
3.633231e+003, 2.099669e-003
3.635160e+003, 2.536681e-003
3.637088e+003, 2.302114e-003
3.639017e+003, 1.483955e-003
3.640945e+003, 1.885205e-003
3.642874e+003, 2.607109e-003
3.644802e+003, 2.664880e-003
3.646730e+003, 2.884099e-003
3.648659e+003, 3.134733e-003
3.650587e+003, 2.868856e-003
3.652516e+003, 2.534748e-003
3.654444e+003, 2.354081e-003
3.656373e+003, 1.721939e-003
3.658301e+003, 2.007053e-003
3.660230e+003, 2.963224e-003
3.662158e+003, 2.328996e-003
3.664087e+003, 9.088893e-004
3.666015e+003, 7.161528e-004
3.667944e+003, 1.125363e-003
3.669872e+003, 1.867601e-003
3.671801e+003, 2.095840e-003
3.673729e+003, 3.056044e-003
3.675657e+003, 3.949858e-003
3.677586e+003, 3.033654e-003
3.679514e+003, 2.255815e-003
3.681443e+003, 2.013245e-003
3.683371e+003, 2.369772e-003
3.685300e+003, 2.621043e-003
3.687228e+003, 2.486525e-003
3.689157e+003, 2.541214e-003
3.691085e+003, 2.724326e-003
3.693014e+003, 2.425412e-003
3.694942e+003, 2.660912e-003
3.696871e+003, 2.503454e-003
3.698799e+003, 2.135962e-003
3.700728e+003, 1.514577e-003
3.702656e+003, 1.240121e-003
3.704584e+003, 1.774702e-003
3.706513e+003, 2.476761e-003
3.708441e+003, 3.507247e-003
3.710370e+003, 2.879229e-003
3.712298e+003, 2.046401e-003
3.714227e+003, 2.102133e-003
3.716155e+003, 1.845140e-003
3.718084e+003, 1.603995e-003
3.720012e+003, 2.479660e-003
3.721941e+003, 3.085375e-003
3.723869e+003, 1.864806e-003
3.725798e+003, 1.699186e-003
3.727726e+003, 1.885970e-003
3.729655e+003, 2.153776e-003
3.731583e+003, 2.766406e-003
3.733511e+003, 2.928063e-003
3.735440e+003, 2.781845e-003
3.737368e+003, 2.264975e-003
3.739297e+003, 1.294486e-003
3.741225e+003, 1.168884e-003
3.743154e+003, 1.636555e-003
3.745082e+003, 2.071736e-003
3.747011e+003, 2.033151e-003
3.748939e+003, 1.556341e-003
3.750868e+003, 1.283054e-003
3.752796e+003, 1.474646e-003
3.754725e+003, 2.711189e-003
3.756653e+003, 3.201085e-003
3.758582e+003, 2.522283e-003
3.760510e+003, 1.979359e-003
3.762438e+003, 1.794697e-003
3.764367e+003, 2.024629e-003
3.766295e+003, 1.546498e-003
3.768224e+003, 1.217559e-003
3.770152e+003, 2.005522e-003
3.772081e+003, 2.063845e-003
3.774009e+003, 1.519465e-003
3.775938e+003, 2.102166e-003
3.777866e+003, 3.062984e-003
3.779795e+003, 3.097055e-003
3.781723e+003, 2.697919e-003
3.783652e+003, 2.418415e-003
3.785580e+003, 2.239262e-003
3.787509e+003, 3.173315e-003
3.789437e+003, 4.210542e-003
3.791365e+003, 3.616821e-003
3.793294e+003, 2.634743e-003
3.795222e+003, 2.551879e-003
3.797151e+003, 2.613809e-003
3.799079e+003, 2.219613e-003
3.801008e+003, 1.666988e-003
3.802936e+003, 1.282589e-003
3.804865e+003, 1.205232e-003
3.806793e+003, 1.713756e-003
3.808722e+003, 2.833503e-003
3.810650e+003, 3.479924e-003
3.812579e+003, 2.819062e-003
3.814507e+003, 2.045102e-003
3.816436e+003, 2.198232e-003
3.818364e+003, 2.097305e-003
3.820292e+003, 2.176253e-003
3.822221e+003, 2.354447e-003
3.824149e+003, 2.044570e-003
3.826078e+003, 2.298850e-003
3.828006e+003, 3.261406e-003
3.829935e+003, 2.681816e-003
3.831863e+003, 1.541477e-003
3.833792e+003, 1.559700e-003
3.835720e+003, 2.113220e-003
3.837649e+003, 2.767673e-003
3.839577e+003, 2.896941e-003
3.841506e+003, 2.688917e-003
3.843434e+003, 2.803355e-003
3.845363e+003, 3.076833e-003
3.847291e+003, 3.062350e-003
3.849219e+003, 3.277631e-003
3.851148e+003, 2.923793e-003
3.853076e+003, 2.467964e-003
3.855005e+003, 2.513418e-003
3.856933e+003, 2.594076e-003
3.858862e+003, 2.330862e-003
3.860790e+003, 2.414184e-003
3.862719e+003, 3.178789e-003
3.864647e+003, 2.367440e-003
3.866576e+003, 1.104037e-003
3.868504e+003, 1.251717e-003
3.870433e+003, 2.062880e-003
3.872361e+003, 2.243692e-003
3.874290e+003, 2.388929e-003
3.876218e+003, 3.098957e-003
3.878146e+003, 3.275293e-003
3.880075e+003, 2.564377e-003
3.882003e+003, 2.237397e-003
3.883932e+003, 2.426079e-003
3.885860e+003, 2.289023e-003
3.887789e+003, 2.376935e-003
3.889717e+003, 2.881898e-003
3.891646e+003, 2.622009e-003
3.893574e+003, 2.299516e-003
3.895503e+003, 2.882264e-003
3.897431e+003, 2.338590e-003
3.899360e+003, 1.761061e-003
3.901288e+003, 2.596242e-003
3.903217e+003, 2.222044e-003
3.905145e+003, 1.452105e-003
3.907073e+003, 1.844474e-003
3.909002e+003, 2.121078e-003
3.910930e+003, 1.863042e-003
3.912859e+003, 2.503021e-003
3.914787e+003, 3.136435e-003
3.916716e+003, 3.699388e-003
3.918644e+003, 3.314322e-003
3.920573e+003, 2.492723e-003
3.922501e+003, 1.998898e-003
3.924430e+003, 2.159004e-003
3.926358e+003, 2.338923e-003
3.928287e+003, 2.068440e-003
3.930215e+003, 1.862143e-003
3.932144e+003, 2.298916e-003
3.934072e+003, 2.320002e-003
3.936000e+003, 2.219979e-003
3.937929e+003, 2.030621e-003
3.939857e+003, 2.374303e-003
3.941786e+003, 2.563244e-003
3.943714e+003, 2.591942e-003
3.945643e+003, 3.066855e-003
3.947571e+003, 2.880330e-003
3.949500e+003, 2.306744e-003
3.951428e+003, 2.006387e-003
3.953357e+003, 2.027659e-003
3.955285e+003, 2.637943e-003
3.957214e+003, 2.193736e-003
3.959142e+003, 1.800387e-003
3.961071e+003, 1.470158e-003
3.962999e+003, 1.176725e-003
3.964927e+003, 1.366142e-003
3.966856e+003, 2.269838e-003
3.968784e+003, 2.518451e-003
3.970713e+003, 2.091345e-003
3.972641e+003, 1.633096e-003
3.974570e+003, 8.019542e-004
3.976498e+003, 9.712167e-004
3.978427e+003, 2.042839e-003
3.980355e+003, 2.579910e-003
3.982284e+003, 1.880945e-003
3.984212e+003, 1.146060e-003
3.986141e+003, 8.233989e-004
3.988069e+003, 1.290531e-003
3.989998e+003, 1.774602e-003
3.991926e+003, 2.176686e-003
3.993854e+003, 2.211820e-003
3.995783e+003, 2.096572e-003
3.997711e+003, 1.779825e-003
3.999640e+003, 1.779825e-003
4.001568e+003, 0.000000e+000
##END=



