##NAMES=Foitite
##RRUFFID=R050356
##IDEAL CHEMISTRY=[box](Fe^2+^_2_Al)Al_6_(Si_6_O_18_)(BO_3_)_3_(OH)_3_OH
##LOCALITY=Fano mine, Cahuilla Mountain, Riverside County, California, USA
##OWNER=RRUFF
##SOURCE=George Rossman
##DESCRIPTION=Black prismatic, elongated and striated fragment
##STATUS=The identification of this mineral has been confirmed by X-ray diffraction and chemical analysis
##URL=rruff.info/R050356
##MEASURED CHEMISTRY=(Na_0.50_[box]_0.50_)_Σ=1_(Fe^2+^_1.94_Al_0.77_Li_0.15_Mn_0.10_Mg_0.04_)_Σ=3.00_Al_6.00_(BO_3_)_3_(Si_5.88_Al_0.12_)_Σ=6_O_18_(OH)_4_ ; B and Li not measured but estimated by charge balance
399.1926, 0.3452177
401.1211, 0.3543094
403.0496, 0.3560128
404.9780, 0.3785522
406.9065, 0.3720568
408.8350, 0.3582269
410.7634, 0.3559995
412.6919, 0.3585400
414.6204, 0.3624416
416.5488, 0.3623635
418.4773, 0.3594067
420.4058, 0.3532115
422.3342, 0.3473126
424.2627, 0.3420907
426.1912, 0.3338802
428.1196, 0.3278877
430.0481, 0.3292402
431.9766, 0.3280212
433.9050, 0.3241102
435.8335, 0.3235077
437.7620, 0.3258817
439.6904, 0.3177493
441.6189, 0.3145116
443.5474, 0.3207147
445.4758, 0.3227443
447.4043, 0.3188728
449.3328, 0.3155451
451.2612, 0.3115180
453.1897, 0.3088152
455.1182, 0.3086867
457.0466, 0.3119613
458.9751, 0.3165847
460.9036, 0.3228150
462.8320, 0.3265629
464.7605, 0.3276043
466.6890, 0.3334764
468.6174, 0.3387167
470.5459, 0.3404837
472.4744, 0.3441495
474.4028, 0.3481218
476.3313, 0.3488123
478.2598, 0.3520445
480.1882, 0.3506125
482.1167, 0.3467608
484.0452, 0.3468631
485.9736, 0.3487926
487.9021, 0.3476321
489.8306, 0.3443019
491.7590, 0.3408642
493.6875, 0.3384888
495.6160, 0.3341422
497.5444, 0.3305877
499.4729, 0.3273418
501.4014, 0.3204632
503.3298, 0.3140428
505.2583, 0.3098865
507.1868, 0.3042466
509.1152, 0.2982889
511.0437, 0.2904298
512.9722, 0.2836543
514.9006, 0.2766313
516.8291, 0.2691043
518.7576, 0.2622728
520.6860, 0.2539087
522.6145, 0.2446636
524.5430, 0.2359571
526.4714, 0.2282733
528.3999, 0.2223480
530.3284, 0.2167956
532.2568, 0.2115517
534.1853, 0.2080648
536.1138, 0.2056512
538.0422, 0.2024082
539.9707, 0.1992232
541.8992, 0.1980783
543.8276, 0.1975477
545.7561, 0.1973617
547.6846, 0.1979244
549.6130, 0.1978489
551.5415, 0.1970795
553.4700, 0.1958450
555.3984, 0.1940307
557.3269, 0.1910748
559.2554, 0.1876251
561.1838, 0.1845482
563.1123, 0.1812927
565.0408, 0.1777679
566.9692, 0.1758829
568.8977, 0.1748915
570.8262, 0.1740434
572.7546, 0.1741676
574.6831, 0.1760453
576.6116, 0.1784687
578.5400, 0.1801545
580.4685, 0.1803059
582.3970, 0.1797531
584.3254, 0.1787465
586.2539, 0.1773254
588.1824, 0.1748317
590.1108, 0.1720636
592.0393, 0.1684274
593.9678, 0.1652371
595.8962, 0.1627650
597.8247, 0.1600130
599.7532, 0.1587946
601.6816, 0.1583727
603.6101, 0.1587260
605.5386, 0.1593677
607.4670, 0.1598503
609.3955, 0.1609183
611.3240, 0.1603120
613.2524, 0.1583044
615.1809, 0.1551793
617.1094, 0.1510733
619.0378, 0.1465317
620.9663, 0.1416409
622.8948, 0.1374532
624.8232, 0.1338084
626.7517, 0.1318390
628.6802, 0.1307629
630.6086, 0.1302446
632.5371, 0.1305411
634.4656, 0.1304093
636.3940, 0.1295081
638.3225, 0.1285461
640.2510, 0.1286602
642.1794, 0.1290943
644.1079, 0.1295042
646.0364, 0.1296796
647.9648, 0.1294263
649.8933, 0.1288672
651.8218, 0.1285891
653.7502, 0.1277795
655.6787, 0.1263612
657.6072, 0.1245188
659.5356, 0.1225574
661.4641, 0.1209972
663.3926, 0.1204334
665.3210, 0.1198915
667.2495, 0.1188777
669.1780, 0.1176133
671.1064, 0.1154613
673.0349, 0.1130924
674.9634, 0.1107202
676.8918, 0.1085885
678.8203, 0.1063645
680.7488, 0.1052335
682.6772, 0.1051352
684.6057, 0.1059807
686.5342, 0.1083090
688.4626, 0.1118076
690.3911, 0.1161380
692.3196, 0.1213962
694.2480, 0.1272632
696.1765, 0.1327538
698.1050, 0.1377869
700.0334, 0.1411655
701.9619, 0.1419964
703.8904, 0.1406026
705.8188, 0.1369355
707.7473, 0.1317369
709.6758, 0.1263286
711.6042, 0.1208327
713.5327, 0.1152882
715.4612, 0.1101572
717.3896, 0.1066543
719.3181, 0.1038788
721.2466, 0.1009955
723.1750, 9.8551728E-02
725.1035, 9.6253313E-02
727.0320, 9.4066963E-02
728.9604, 9.1958366E-02
730.8889, 8.9795180E-02
732.8174, 8.8530160E-02
734.7458, 8.8408008E-02
736.6743, 8.9423209E-02
738.6028, 9.1338970E-02
740.5313, 9.3754180E-02
742.4597, 9.6957266E-02
744.3882, 0.1011853
746.3167, 0.1052827
748.2451, 0.1072221
750.1736, 0.1059047
752.1021, 0.1029190
754.0305, 9.9384762E-02
755.9590, 9.5361613E-02
757.8875, 9.1036141E-02
759.8159, 8.6807773E-02
761.7444, 8.3510950E-02
763.6729, 8.2440183E-02
765.6013, 8.4163107E-02
767.5298, 8.7871857E-02
769.4583, 9.2429660E-02
771.3867, 9.7241729E-02
773.3152, 0.1021998
775.2437, 0.1066137
777.1721, 0.1094559
779.1006, 0.1100576
781.0291, 0.1089163
782.9575, 0.1061312
784.8860, 0.1015113
786.8145, 9.4817378E-02
788.7429, 8.7066650E-02
790.6714, 7.8990437E-02
792.5999, 7.1305297E-02
794.5283, 6.4515390E-02
796.4568, 5.9047099E-02
798.3853, 5.5102531E-02
800.3137, 5.2506719E-02
802.2422, 5.1009689E-02
804.1707, 5.0619669E-02
806.0991, 5.0697811E-02
808.0276, 5.1023610E-02
809.9561, 5.1379621E-02
811.8845, 5.1864851E-02
813.8130, 5.2345712E-02
815.7415, 5.2447271E-02
817.6699, 5.2407749E-02
819.5984, 5.2668508E-02
821.5269, 5.2716490E-02
823.4553, 5.2716739E-02
825.3838, 5.2500300E-02
827.3123, 5.2433770E-02
829.2407, 5.2566200E-02
831.1692, 5.3024441E-02
833.0977, 5.3732350E-02
835.0261, 5.4406811E-02
836.9546, 5.5135809E-02
838.8831, 5.5885989E-02
840.8115, 5.7280909E-02
842.7400, 5.8672749E-02
844.6685, 6.0206871E-02
846.5969, 6.2106211E-02
848.5254, 6.3749932E-02
850.4539, 6.4898171E-02
852.3823, 6.5543383E-02
854.3108, 6.5629117E-02
856.2393, 6.4933747E-02
858.1677, 6.3689239E-02
860.0962, 6.2454831E-02
862.0247, 6.1109900E-02
863.9531, 5.9797671E-02
865.8816, 5.9031181E-02
867.8101, 5.8468930E-02
869.7385, 5.7978220E-02
871.6670, 5.7856269E-02
873.5955, 5.8773089E-02
875.5239, 5.9890710E-02
877.4524, 6.1170630E-02
879.3809, 6.3301012E-02
881.3093, 6.6164307E-02
883.2378, 6.9132812E-02
885.1663, 7.2317779E-02
887.0947, 7.5520031E-02
889.0232, 7.8845263E-02
890.9517, 8.2245387E-02
892.8801, 8.5689083E-02
894.8085, 8.9119911E-02
896.7370, 9.2741139E-02
898.6655, 9.6560009E-02
900.5939, 0.1004879
902.5224, 0.1047063
904.4509, 0.1093195
906.3793, 0.1143793
908.3078, 0.1201964
910.2363, 0.1268660
912.1647, 0.1343319
914.0932, 0.1420632
916.0217, 0.1503397
917.9501, 0.1590964
919.8786, 0.1677463
921.8071, 0.1769891
923.7355, 0.1868894
925.6640, 0.1967106
927.5925, 0.2066974
929.5209, 0.2168161
931.4494, 0.2272680
933.3779, 0.2379153
935.3063, 0.2486526
937.2348, 0.2595524
939.1633, 0.2709721
941.0917, 0.2823483
943.0202, 0.2942296
944.9487, 0.3064477
946.8771, 0.3176793
948.8056, 0.3284031
950.7341, 0.3382146
952.6625, 0.3472140
954.5910, 0.3559469
956.5195, 0.3635416
958.4479, 0.3697608
960.3764, 0.3749678
962.3049, 0.3783542
964.2333, 0.3802747
966.1618, 0.3813763
968.0903, 0.3820705
970.0187, 0.3828578
971.9472, 0.3832813
973.8757, 0.3819519
975.8041, 0.3795904
977.7326, 0.3767966
979.6611, 0.3730838
981.5895, 0.3681853
983.5180, 0.3626467
985.4465, 0.3565684
987.3749, 0.3491720
989.3034, 0.3421007
991.2319, 0.3355778
993.1603, 0.3291573
995.0888, 0.3235221
997.0173, 0.3181237
998.9457, 0.3128591
1000.874, 0.3083875
1002.803, 0.3042026
1004.731, 0.3006001
1006.660, 0.2974328
1008.588, 0.2949893
1010.517, 0.2928975
1012.445, 0.2903357
1014.373, 0.2878942
1016.302, 0.2850620
1018.230, 0.2815901
1020.159, 0.2781993
1022.087, 0.2743997
1024.016, 0.2698800
1025.944, 0.2647812
1027.873, 0.2590076
1029.801, 0.2527618
1031.730, 0.2465024
1033.658, 0.2400009
1035.587, 0.2332702
1037.515, 0.2269849
1039.444, 0.2208364
1041.372, 0.2150067
1043.301, 0.2094662
1045.229, 0.2041422
1047.157, 0.1992444
1049.086, 0.1945206
1051.014, 0.1900305
1052.943, 0.1859157
1054.871, 0.1820409
1056.800, 0.1782536
1058.728, 0.1739778
1060.657, 0.1695862
1062.585, 0.1654634
1064.514, 0.1612136
1066.442, 0.1565839
1068.371, 0.1510918
1070.299, 0.1448106
1072.228, 0.1374843
1074.156, 0.1299621
1076.084, 0.1230432
1078.013, 0.1165776
1079.941, 0.1111870
1081.870, 0.1066334
1083.798, 0.1027642
1085.727, 0.1004743
1087.655, 9.9543422E-02
1089.584, 9.9410340E-02
1091.512, 0.1000156
1093.441, 0.1013301
1095.369, 0.1029154
1097.298, 0.1047718
1099.226, 0.1069273
1101.155, 0.1088832
1103.083, 0.1100925
1105.011, 0.1104088
1106.940, 0.1098661
1108.868, 0.1089729
1110.797, 0.1074108
1112.725, 0.1047151
1114.654, 0.1009959
1116.582, 9.6492983E-02
1118.511, 9.1385387E-02
1120.439, 8.5658863E-02
1122.368, 7.9555713E-02
1124.296, 7.3278211E-02
1126.225, 6.6850021E-02
1128.153, 6.0538340E-02
1130.082, 5.4411139E-02
1132.010, 4.8801359E-02
1133.938, 4.3818671E-02
1135.867, 3.9512280E-02
1137.795, 3.5828739E-02
1139.724, 3.2796029E-02
1141.652, 3.0129369E-02
1143.581, 2.8164281E-02
1145.509, 2.6531460E-02
1147.438, 2.5043661E-02
1149.366, 2.4060270E-02
1151.295, 2.3327520E-02
1153.223, 2.2935109E-02
1155.152, 2.2581071E-02
1157.080, 2.2019301E-02
1159.009, 2.1515191E-02
1160.937, 2.1170739E-02
1162.865, 2.0807210E-02
1164.794, 2.0592749E-02
1166.722, 2.0286649E-02
1168.651, 1.9872600E-02
1170.579, 1.9561689E-02
1172.508, 1.9814650E-02
1174.436, 2.0020310E-02
1176.365, 1.9653920E-02
1178.293, 1.9347589E-02
1180.222, 1.9550020E-02
1182.150, 1.9654641E-02
1184.079, 1.9520540E-02
1186.007, 1.9646261E-02
1187.936, 1.9916210E-02
1189.864, 2.0226849E-02
1191.792, 2.0390110E-02
1193.721, 2.0619759E-02
1195.649, 2.0999679E-02
1197.578, 2.1462601E-02
1199.506, 2.2107709E-02
1201.435, 2.2582119E-02
1203.363, 2.3059640E-02
1205.292, 2.3795670E-02
1207.220, 2.4824429E-02
1209.149, 2.5975371E-02
1211.077, 2.7353531E-02
1213.006, 2.8701119E-02
1214.934, 3.0162860E-02
1216.863, 3.2192189E-02
1218.791, 3.4302209E-02
1220.719, 3.6838450E-02
1222.648, 3.9859541E-02
1224.576, 4.3546639E-02
1226.505, 4.7767509E-02
1228.433, 5.2055150E-02
1230.362, 5.6828961E-02
1232.290, 6.2403731E-02
1234.219, 6.8171501E-02
1236.147, 7.4208707E-02
1238.076, 8.0528587E-02
1240.004, 8.6927138E-02
1241.933, 9.3457393E-02
1243.861, 0.1002757
1245.790, 0.1076804
1247.718, 0.1158161
1249.646, 0.1241137
1251.575, 0.1327269
1253.503, 0.1411437
1255.432, 0.1496121
1257.360, 0.1581986
1259.289, 0.1663852
1261.217, 0.1737926
1263.146, 0.1798226
1265.074, 0.1843301
1267.003, 0.1877199
1268.931, 0.1897980
1270.860, 0.1900561
1272.788, 0.1892623
1274.717, 0.1872678
1276.645, 0.1839563
1278.573, 0.1800342
1280.502, 0.1756217
1282.430, 0.1711944
1284.359, 0.1665213
1286.287, 0.1620626
1288.216, 0.1583686
1290.144, 0.1550599
1292.073, 0.1521490
1294.001, 0.1495912
1295.930, 0.1476762
1297.858, 0.1463253
1299.787, 0.1452333
1301.715, 0.1446495
1303.644, 0.1442915
1305.572, 0.1442011
1307.500, 0.1444563
1309.429, 0.1451857
1311.357, 0.1462564
1313.286, 0.1476369
1315.214, 0.1491205
1317.143, 0.1506823
1319.071, 0.1519230
1321.000, 0.1528448
1322.928, 0.1533861
1324.857, 0.1531741
1326.785, 0.1524120
1328.714, 0.1509303
1330.642, 0.1483483
1332.571, 0.1454853
1334.499, 0.1422698
1336.427, 0.1385137
1338.356, 0.1344588
1340.284, 0.1303896
1342.213, 0.1263564
1344.141, 0.1224339
1346.070, 0.1183546
1347.998, 0.1141279
1349.927, 0.1100758
1351.855, 0.1058474
1353.784, 0.1013368
1355.712, 9.7162686E-02
1357.641, 9.3203656E-02
1359.569, 8.8875391E-02
1361.498, 8.4494121E-02
1363.426, 8.0373898E-02
1365.354, 7.6439261E-02
1367.283, 7.2761051E-02
1369.211, 6.9460310E-02
1371.140, 6.6078477E-02
1373.068, 6.3010268E-02
1374.997, 6.0203802E-02
1376.925, 5.7484262E-02
1378.854, 5.5152532E-02
1380.782, 5.2597828E-02
1382.711, 5.0046209E-02
1384.639, 4.7704980E-02
1386.568, 4.5055281E-02
1388.496, 4.2423211E-02
1390.424, 4.0328179E-02
1392.353, 3.8496111E-02
1394.281, 3.6676388E-02
1396.210, 3.5094660E-02
1398.138, 3.3910841E-02
1400.067, 3.2782920E-02
1401.995, 3.1657550E-02
1403.924, 3.0637359E-02
1405.852, 2.9521720E-02
1407.781, 2.8342610E-02
1409.709, 2.7336640E-02
1411.638, 2.6178051E-02
1413.566, 2.5134310E-02
1415.495, 2.4043189E-02
1417.423, 2.2880759E-02
1419.351, 2.1756530E-02
1421.280, 2.0607021E-02
1423.208, 1.9577069E-02
1425.137, 1.8565379E-02
1427.065, 1.7626360E-02
1428.994, 1.6547540E-02
1430.922, 1.5263440E-02
1432.851, 1.3958840E-02
1434.779, 1.2980340E-02
1436.708, 1.2308940E-02
1438.636, 1.1588510E-02
1440.565, 1.0779510E-02
1442.493, 1.0415840E-02
1444.422, 1.0005340E-02
1446.350, 9.4506470E-03
1448.278, 8.9668455E-03
1450.207, 8.3442992E-03
1452.135, 8.1720473E-03
1454.064, 7.9542315E-03
1455.992, 7.7371602E-03
1457.921, 7.6740589E-03
1459.849, 7.2857961E-03
1461.778, 6.9428571E-03
1463.706, 6.7842030E-03
1465.635, 6.7016562E-03
1467.563, 6.5090768E-03
1469.492, 6.5367171E-03
1471.420, 6.8930378E-03
1473.349, 6.9475230E-03
1475.277, 6.6277431E-03
1477.205, 6.5801288E-03
1479.134, 6.4869751E-03
1481.062, 6.3245799E-03
1482.991, 6.4256168E-03
1484.919, 6.3218731E-03
1486.848, 6.0174260E-03
1488.776, 5.8394871E-03
1490.705, 5.5114580E-03
1492.633, 5.3471732E-03
1494.562, 5.5898479E-03
1496.490, 5.5943620E-03
1498.419, 5.1168972E-03
1500.347, 4.9822009E-03
1502.276, 5.0772908E-03
1504.204, 5.0689909E-03
1506.132, 5.4014712E-03
1508.061, 5.4947478E-03
1509.989, 5.1694200E-03
1511.918, 4.8933760E-03
1513.846, 4.8438292E-03
1515.775, 4.8442320E-03
1517.703, 4.9041458E-03
1519.632, 4.9417792E-03
1521.560, 4.9887369E-03
1523.489, 5.2621388E-03
1525.417, 5.5223089E-03
1527.346, 5.1704878E-03
1529.274, 4.9181548E-03
1531.203, 5.0485712E-03
1533.131, 5.1313541E-03
1535.059, 4.8801410E-03
1536.988, 4.9279300E-03
1538.916, 5.1937280E-03
1540.845, 5.4069539E-03
1542.773, 5.5079809E-03
1544.702, 5.3371121E-03
1546.630, 5.0202841E-03
1548.559, 5.1966929E-03
1550.487, 5.4812389E-03
1552.416, 5.5221282E-03
1554.344, 5.9249820E-03
1556.273, 6.1368570E-03
1558.201, 6.2958300E-03
1560.130, 6.4751990E-03
1562.058, 6.4782910E-03
1563.986, 6.4435988E-03
1565.915, 6.5720291E-03
1567.843, 6.6528260E-03
1569.772, 6.9107520E-03
1571.700, 7.0102061E-03
1573.629, 6.8050702E-03
1575.557, 7.0571569E-03
1577.486, 7.4409042E-03
1579.414, 7.2158878E-03
1581.343, 6.9380850E-03
1583.271, 6.8284352E-03
1585.200, 6.7895399E-03
1587.128, 6.8104938E-03
1589.057, 6.8541309E-03
1590.985, 7.3115840E-03
1592.913, 7.5951540E-03
1594.842, 7.6235300E-03
1596.770, 7.6758121E-03
1598.699, 7.7673569E-03
1600.627, 7.5851800E-03
1602.556, 7.7826590E-03
1604.484, 7.7728322E-03
1606.413, 7.7500972E-03
1608.341, 8.3947377E-03
1610.270, 8.6954357E-03
1612.198, 8.6291051E-03
1614.127, 8.3255060E-03
1616.055, 8.2308259E-03
1617.984, 8.2787815E-03
1619.912, 8.2166381E-03
1621.840, 8.1123617E-03
1623.769, 7.9020010E-03
1625.697, 7.8255963E-03
1627.626, 8.0018183E-03
1629.554, 8.0340710E-03
1631.483, 8.0594346E-03
1633.411, 8.3252490E-03
1635.340, 8.5136099E-03
1637.268, 8.4743490E-03
1639.197, 8.1948368E-03
1641.125, 8.1364922E-03
1643.054, 8.4467782E-03
1644.982, 8.6427489E-03
1646.911, 8.5481144E-03
1648.839, 8.4950402E-03
1650.767, 8.3481334E-03
1652.696, 8.3405441E-03
1654.624, 8.3122281E-03
1656.553, 7.9747355E-03
1658.481, 7.5630168E-03
1660.410, 7.5133261E-03
1662.338, 7.5833891E-03
1664.267, 7.7147940E-03
1666.195, 7.4079172E-03
1668.124, 7.1757478E-03
1670.052, 7.0479731E-03
1671.981, 6.9915592E-03
1673.909, 7.1493820E-03
1675.838, 7.0257960E-03
1677.766, 6.7977230E-03
1679.694, 6.8086260E-03
1681.623, 7.1017551E-03
1683.551, 7.2087049E-03
1685.480, 6.7904210E-03
1687.408, 6.3637928E-03
1689.337, 6.1921580E-03
1691.265, 6.0791462E-03
1693.194, 5.9266840E-03
1695.122, 6.2387972E-03
1697.051, 6.3520600E-03
1698.979, 6.3272561E-03
1700.908, 5.7832059E-03
1702.836, 5.1556458E-03
1704.765, 5.1370258E-03
1706.693, 5.3537851E-03
1708.621, 5.0606341E-03
1710.550, 4.5432411E-03
1712.478, 4.4425838E-03
1714.407, 4.5186221E-03
1716.335, 4.7817910E-03
1718.264, 4.9909479E-03
1720.192, 4.9166242E-03
1722.121, 4.5881541E-03
1724.049, 4.2548911E-03
1725.978, 4.1948920E-03
1727.906, 3.9233901E-03
1729.835, 3.7404799E-03
1731.763, 3.5012211E-03
1733.692, 3.1245460E-03
1735.620, 2.9078049E-03
1737.548, 2.9868090E-03
1739.477, 2.8962740E-03
1741.405, 2.8939240E-03
1743.334, 2.8964910E-03
1745.262, 2.2537080E-03
1747.191, 2.0866711E-03
1749.119, 2.8395511E-03
1751.048, 3.4996411E-03
1752.976, 3.3503389E-03
1754.905, 2.9057341E-03
1756.833, 3.4074089E-03
1758.762, 3.7078671E-03
1760.690, 4.0549510E-03
1762.619, 4.2505278E-03
1764.547, 4.2804009E-03
1766.475, 4.1344170E-03
1768.404, 4.0036822E-03
1770.332, 4.3815640E-03
1772.261, 4.6941480E-03
1774.189, 4.5229038E-03
1776.118, 4.2757429E-03
1778.046, 4.2254711E-03
1779.975, 4.3747039E-03
1781.903, 4.4816970E-03
1783.832, 4.4618170E-03
1785.760, 4.3858881E-03
1787.689, 4.3860371E-03
1789.617, 4.4445000E-03
1791.546, 4.8821871E-03
1793.474, 5.0291191E-03
1795.402, 4.9614240E-03
1797.331, 4.7473679E-03
1799.259, 4.4480022E-03
1801.188, 4.3316549E-03
1803.116, 4.5938222E-03
1805.045, 4.5726262E-03
1806.973, 4.4429861E-03
1808.902, 4.2805378E-03
1810.830, 4.2655561E-03
1812.759, 3.8072190E-03
1814.687, 3.3355500E-03
1816.616, 3.9004851E-03
1818.544, 4.5349449E-03
1820.473, 4.2144642E-03
1822.401, 4.3657911E-03
1824.329, 4.9321731E-03
1826.258, 4.8279762E-03
1828.186, 4.9856948E-03
1830.115, 4.5411121E-03
1832.043, 3.8523569E-03
1833.972, 3.9875228E-03
1835.900, 3.8464700E-03
1837.829, 3.7296091E-03
1839.757, 3.8442600E-03
1841.686, 3.5886550E-03
1843.614, 2.9382650E-03
1845.543, 2.8896620E-03
1847.471, 2.9924579E-03
1849.400, 3.1983340E-03
1851.328, 3.9383378E-03
1853.256, 4.0069269E-03
1855.185, 3.2275950E-03
1857.113, 3.5043140E-03
1859.042, 3.6488341E-03
1860.970, 3.1938921E-03
1862.899, 2.4987941E-03
1864.827, 2.4311601E-03
1866.756, 2.8977969E-03
1868.684, 3.4484800E-03
1870.613, 3.7953930E-03
1872.541, 3.2982831E-03
1874.470, 2.2261620E-03
1876.398, 2.1728440E-03
1878.327, 2.5321611E-03
1880.255, 3.2177949E-03
1882.183, 3.0128160E-03
1884.112, 2.1869091E-03
1886.040, 2.1866420E-03
1887.969, 2.5493640E-03
1889.897, 1.7268060E-03
1891.826, 1.1506780E-03
1893.754, 1.2887809E-03
1895.683, 1.8332500E-03
1897.611, 2.5171640E-03
1899.540, 1.8728731E-03
1901.468, 2.8028639E-04
1903.397, 3.4101171E-04
1905.325, 1.3179010E-03
1907.254, 1.8463390E-03
1909.182, 2.1508699E-03
1911.110, 2.6992131E-03
1913.039, 2.3633090E-03
1914.967, -2.8044689E-05
1916.896, -6.6790462E-04
1918.824, 3.0930270E-04
1920.753, -3.1038941E-04
1922.681, -4.2366609E-04
1924.610, 1.4623759E-04
1926.538, 3.4758449E-04
1928.467, 6.7899859E-04
1930.395, -4.1190378E-05
1932.324, -2.8537799E-04
1934.252, -3.7785131E-04
1936.181, -1.0417200E-03
1938.109, -2.6485501E-04
1940.037, 1.6361169E-04
1941.966, -1.3415590E-03
1943.894, -2.5469470E-03
1945.823, -2.4139630E-03
1947.751, -1.9577181E-03
1949.680, -2.0487870E-03
1951.608, -1.1962280E-03
1953.537, -8.0031483E-04
1955.465, -2.6547990E-03
1957.394, -5.9965630E-03
1959.322, -6.6739190E-03
1961.251, -6.2234211E-03
1963.179, -6.6136732E-03
1965.108, -5.6619989E-03
1967.036, -5.6887921E-03
1968.964, -6.0263090E-03
1970.893, -5.7972460E-03
1972.821, -5.2753589E-03
1974.750, -5.2701109E-03
1976.678, -5.3164619E-03
1978.607, -5.0872560E-03
1980.535, -2.4371990E-03
1982.464, 4.7033202E-05
1984.392, 8.0707599E-04
1986.321, 8.4152393E-04
1988.249, -1.1073500E-04
1990.178, -3.4377330E-03
1992.106, -4.5693591E-03
1994.035, -3.7553490E-03
1995.963, -2.3476940E-03
1997.891, -3.4569260E-03
1999.820, -3.4274610E-03
2001.748, -3.0838570E-03
2003.677, -4.5336871E-03
2005.605, -6.3335560E-03
2007.534, -5.3851050E-03
2009.462, -3.0878449E-03
2011.391, -4.0609199E-03
2013.319, -6.0073109E-03
2015.248, -6.5603340E-03
2017.176, -7.0949011E-03
2019.105, -4.8261862E-03
2021.033, -3.1956381E-03
2022.962, -4.6153958E-03
2024.890, -6.4083771E-03
2026.818, -7.0651290E-03
2028.747, -3.8575330E-03
2030.675, -1.5458510E-03
2032.604, -4.1953819E-03
2034.532, -3.7178420E-03
2036.461, -2.2735861E-03
2038.389, -5.3189122E-03
2040.318, -6.7813662E-03
2042.246, -4.3821540E-03
2044.175, -3.5542799E-03
2046.103, -1.6069980E-03
2048.032, -4.5804030E-05
2049.960, 1.1140150E-04
2051.889, -1.4750561E-03
2053.817, -2.4677960E-03
2055.746, 6.1303660E-07
2057.674, 4.4572941E-04
2059.603, 2.1581030E-04
2061.531, 1.2471949E-03
2063.459, 1.3570921E-03
2065.388, 1.4219671E-03
2067.316, 1.3841890E-03
2069.245, 2.7360581E-04
2071.173, 1.1263140E-03
2073.102, 3.5727210E-03
2075.030, 2.0564429E-03
2076.959, 6.2825199E-04
2078.887, 1.2240350E-03
2080.816, 9.1634091E-04
2082.744, -8.1496808E-05
2084.673, -9.3939652E-06
2086.601, 1.7714759E-04
2088.530, 4.2568860E-04
2090.458, 3.3655329E-04
2092.386, -6.0504262E-04
2094.315, -5.8132852E-04
2096.243, 1.0062930E-03
2098.172, 2.5579941E-03
2100.100, 1.8775900E-03
2102.029, 1.8359740E-03
2103.957, 2.8238150E-03
2105.886, 2.3777920E-03
2107.814, 1.4489380E-03
2109.743, 7.2617398E-04
2111.671, 4.6757670E-04
2113.600, 1.5736390E-03
2115.528, 2.5348000E-03
2117.457, 1.4997669E-03
2119.385, 6.7812012E-04
2121.313, 6.2387390E-04
2123.242, -1.7980111E-04
2125.170, -5.9622648E-04
2127.099, -1.0026590E-03
2129.027, -1.9511420E-03
2130.956, -2.4351419E-03
2132.884, -2.6590661E-03
2134.813, -4.0265331E-03
2136.741, -5.2235369E-03
2138.670, -3.2380919E-03
2140.598, -1.7437270E-03
2142.527, -2.4238650E-03
2144.455, -4.9238261E-03
2146.384, -4.9412688E-03
2148.312, -5.6584519E-03
2150.240, -6.8567870E-03
2152.169, -5.3508780E-03
2154.097, -5.4167020E-03
2156.026, -7.6246518E-03
2157.954, -6.3182842E-03
2159.883, -3.8021530E-03
2161.811, -1.8080500E-03
2163.740, -5.0874229E-04
2165.668, 3.8412370E-04
2167.597, 2.9628300E-03
2169.525, 4.6273768E-03
2171.454, 3.3671751E-03
2173.382, 2.8995851E-03
2175.311, 4.6092230E-03
2177.239, 3.2011019E-03
2179.167, 1.9521870E-03
2181.096, 2.0698621E-03
2183.024, 2.4516630E-04
2184.953, 1.3597000E-04
2186.881, 2.1857391E-03
2188.810, 4.6994099E-03
2190.738, 3.9827358E-03
2192.667, 2.7329409E-03
2194.595, 5.9019630E-03
2196.524, 7.8458786E-03
2198.452, 6.8167970E-03
2200.381, 5.5614961E-03
2202.309, 3.7491659E-03
2204.238, 1.7974050E-03
2206.166, 1.9072270E-03
2208.094, 2.4604830E-03
2210.023, 2.0778670E-03
2211.951, 1.8368120E-03
2213.880, 1.4137790E-03
2215.808, 2.5608710E-03
2217.737, 4.7263671E-03
2219.665, 4.2088260E-03
2221.594, 3.5077201E-03
2223.522, 3.7611669E-03
2225.451, 3.9854958E-03
2227.379, 3.2938530E-03
2229.308, 3.3383600E-03
2231.236, 3.0834139E-03
2233.165, 4.3158028E-03
2235.093, 5.4237782E-03
2237.021, 4.9470691E-03
2238.950, 4.4561299E-03
2240.878, 5.7005989E-03
2242.807, 6.4835139E-03
2244.735, 6.6107670E-03
2246.664, 6.4055650E-03
2248.592, 6.0777650E-03
2250.521, 5.4968349E-03
2252.449, 5.5646668E-03
2254.378, 5.5242088E-03
2256.306, 6.6052512E-03
2258.235, 7.3891440E-03
2260.163, 6.9902702E-03
2262.092, 5.9021190E-03
2264.020, 5.5081551E-03
2265.948, 5.9195841E-03
2267.877, 7.2823782E-03
2269.805, 9.3085133E-03
2271.734, 1.0342160E-02
2273.662, 1.0247480E-02
2275.591, 1.0259140E-02
2277.519, 9.3300166E-03
2279.448, 9.0980846E-03
2281.376, 9.4502093E-03
2283.305, 9.8004416E-03
2285.233, 9.8887114E-03
2287.162, 1.0084290E-02
2289.090, 1.0405080E-02
2291.019, 1.0458720E-02
2292.947, 9.7506009E-03
2294.875, 8.8716215E-03
2296.804, 8.8905916E-03
2298.732, 9.0498440E-03
2300.661, 9.4275884E-03
2302.589, 1.0014370E-02
2304.518, 1.0096100E-02
2306.446, 1.0146240E-02
2308.375, 1.0324100E-02
2310.303, 1.0537320E-02
2312.232, 1.0724820E-02
2314.160, 1.0711910E-02
2316.089, 1.0816240E-02
2318.017, 1.0896130E-02
2319.946, 1.0909160E-02
2321.874, 1.1792280E-02
2323.802, 1.1823660E-02
2325.731, 1.0233410E-02
2327.659, 9.6822651E-03
2329.588, 9.9350996E-03
2331.516, 9.5462287E-03
2333.445, 8.5460786E-03
2335.373, 8.1411190E-03
2337.302, 8.2964161E-03
2339.230, 9.0883682E-03
2341.159, 9.2793386E-03
2343.087, 9.5915645E-03
2345.016, 9.7668562E-03
2346.944, 9.5005985E-03
2348.873, 9.2873732E-03
2350.801, 9.3390951E-03
2352.729, 9.1500962E-03
2354.658, 8.7384926E-03
2356.586, 8.1618596E-03
2358.515, 7.3545878E-03
2360.443, 7.3186941E-03
2362.372, 8.3812224E-03
2364.300, 7.9123117E-03
2366.229, 7.7598901E-03
2368.157, 8.3956551E-03
2370.086, 8.4773153E-03
2372.014, 8.8521307E-03
2373.942, 9.0792719E-03
2375.871, 9.1384295E-03
2377.799, 8.5215867E-03
2379.728, 7.8534968E-03
2381.656, 8.3757304E-03
2383.585, 7.6470841E-03
2385.513, 7.3766019E-03
2387.442, 8.3522936E-03
2389.370, 7.7008191E-03
2391.299, 7.0921760E-03
2393.227, 7.6229800E-03
2395.156, 8.2108872E-03
2397.084, 8.0983844E-03
2399.012, 8.9534475E-03
2400.941, 9.0409666E-03
2402.869, 9.4022164E-03
2404.798, 1.0327310E-02
2406.726, 1.0590040E-02
2408.655, 9.4184112E-03
2410.583, 9.7072665E-03
2412.512, 1.0054590E-02
2414.440, 8.1643583E-03
2416.369, 7.3520350E-03
2418.297, 8.0396421E-03
2420.226, 9.1116438E-03
2422.154, 8.5885441E-03
2424.083, 8.2711140E-03
2426.011, 9.0753706E-03
2427.939, 9.1878315E-03
2429.868, 9.2403693E-03
2431.796, 8.7376069E-03
2433.725, 8.3774077E-03
2435.653, 8.4095886E-03
2437.582, 7.8506693E-03
2439.510, 8.0609694E-03
2441.439, 9.8435208E-03
2443.367, 9.6394327E-03
2445.296, 8.6461753E-03
2447.224, 8.6918259E-03
2449.153, 8.8772140E-03
2451.081, 9.5475959E-03
2453.010, 9.7635984E-03
2454.938, 8.6847804E-03
2456.866, 7.7522942E-03
2458.795, 7.5291991E-03
2460.723, 8.3775623E-03
2462.652, 8.1124427E-03
2464.580, 8.4716016E-03
2466.509, 8.0925385E-03
2468.437, 7.1663139E-03
2470.366, 7.2880229E-03
2472.294, 6.9464650E-03
2474.223, 6.3340380E-03
2476.151, 6.4971959E-03
2478.080, 6.8499199E-03
2480.008, 6.1470978E-03
2481.937, 6.3130860E-03
2483.865, 7.1004182E-03
2485.793, 6.7213052E-03
2487.722, 7.0684641E-03
2489.650, 6.9841049E-03
2491.579, 7.3427092E-03
2493.507, 7.6360758E-03
2495.436, 6.3300412E-03
2497.364, 6.1845421E-03
2499.293, 7.1876999E-03
2501.221, 6.5685641E-03
2503.150, 6.4241099E-03
2505.078, 6.2706801E-03
2507.007, 6.2978142E-03
2508.935, 6.3422089E-03
2510.864, 6.4489278E-03
2512.792, 6.2750001E-03
2514.720, 5.9673581E-03
2516.649, 6.3821739E-03
2518.577, 6.1575980E-03
2520.506, 5.2794721E-03
2522.434, 4.9928031E-03
2524.363, 5.1519922E-03
2526.291, 5.3699012E-03
2528.220, 5.4587731E-03
2530.148, 4.4304100E-03
2532.077, 4.7787060E-03
2534.005, 5.4669608E-03
2535.934, 6.9043962E-03
2537.862, 7.7314279E-03
2539.791, 6.3428450E-03
2541.719, 4.5386991E-03
2543.647, 3.3635569E-03
2545.576, 3.7699880E-03
2547.504, 3.9002369E-03
2549.433, 3.5971231E-03
2551.361, 4.0638619E-03
2553.290, 4.5783049E-03
2555.218, 4.9026562E-03
2557.147, 5.7767122E-03
2559.075, 6.3003548E-03
2561.004, 6.0503101E-03
2562.932, 5.6642201E-03
2564.861, 5.9943981E-03
2566.789, 6.4902520E-03
2568.718, 6.2017851E-03
2570.646, 6.6932142E-03
2572.574, 7.1713449E-03
2574.503, 6.9821952E-03
2576.431, 6.9675818E-03
2578.360, 7.5489981E-03
2580.288, 8.8989744E-03
2582.217, 8.9867814E-03
2584.145, 7.2723702E-03
2586.074, 6.9813291E-03
2588.002, 7.7027609E-03
2589.931, 7.7745160E-03
2591.859, 7.9853544E-03
2593.788, 7.9032741E-03
2595.716, 7.0333220E-03
2597.645, 7.4006310E-03
2599.573, 8.4626414E-03
2601.501, 8.0174059E-03
2603.430, 8.8199396E-03
2605.358, 9.3728034E-03
2607.287, 9.1664325E-03
2609.215, 8.6934306E-03
2611.144, 7.9779401E-03
2613.072, 8.8361129E-03
2615.001, 9.6612321E-03
2616.929, 9.4160913E-03
2618.858, 9.2720240E-03
2620.786, 8.5629327E-03
2622.715, 8.3862534E-03
2624.643, 9.0108346E-03
2626.572, 9.4670206E-03
2628.500, 9.3871215E-03
2630.428, 9.8240692E-03
2632.357, 9.5158396E-03
2634.285, 9.0288948E-03
2636.214, 8.7568909E-03
2638.142, 9.1175344E-03
2640.071, 8.8716941E-03
2641.999, 8.7934854E-03
2643.928, 8.9348014E-03
2645.856, 8.8026132E-03
2647.785, 8.3189197E-03
2649.713, 9.0555800E-03
2651.642, 9.5418766E-03
2653.570, 9.6406667E-03
2655.499, 9.7405734E-03
2657.427, 9.3694292E-03
2659.355, 8.7420437E-03
2661.284, 8.7720174E-03
2663.212, 9.5421411E-03
2665.141, 9.7143166E-03
2667.069, 8.8269720E-03
2668.998, 8.2077840E-03
2670.926, 8.2525751E-03
2672.855, 9.1531444E-03
2674.783, 9.7924527E-03
2676.712, 8.5984031E-03
2678.640, 8.1365248E-03
2680.569, 9.1549428E-03
2682.497, 9.7435201E-03
2684.426, 9.4869481E-03
2686.354, 8.8244276E-03
2688.282, 9.4015310E-03
2690.211, 9.8036285E-03
2692.139, 9.3394872E-03
2694.068, 9.1044232E-03
2695.996, 1.0096700E-02
2697.925, 1.0695660E-02
2699.853, 1.0406870E-02
2701.782, 9.8870518E-03
2703.710, 9.4066299E-03
2705.639, 1.0086880E-02
2707.567, 1.0781870E-02
2709.496, 1.0481000E-02
2711.424, 1.0069940E-02
2713.353, 1.0125520E-02
2715.281, 1.0487940E-02
2717.209, 1.0579510E-02
2719.138, 1.0273520E-02
2721.066, 1.0280170E-02
2722.995, 9.7386893E-03
2724.923, 9.4202748E-03
2726.852, 1.0279240E-02
2728.780, 1.0539450E-02
2730.709, 1.0343520E-02
2732.637, 1.1251930E-02
2734.566, 1.1912240E-02
2736.494, 1.2117380E-02
2738.423, 1.1673270E-02
2740.351, 1.1954680E-02
2742.280, 1.1921700E-02
2744.208, 1.1145560E-02
2746.136, 1.1515220E-02
2748.065, 1.2419670E-02
2749.993, 1.2062740E-02
2751.922, 1.1761660E-02
2753.850, 1.1853670E-02
2755.779, 1.2145860E-02
2757.707, 1.1775040E-02
2759.636, 1.1125700E-02
2761.564, 1.0985810E-02
2763.493, 1.0696430E-02
2765.421, 1.0637980E-02
2767.350, 1.0911850E-02
2769.278, 1.0861310E-02
2771.207, 1.1674030E-02
2773.135, 1.2391580E-02
2775.063, 1.1315060E-02
2776.992, 1.1042820E-02
2778.920, 1.1900110E-02
2780.849, 1.3255700E-02
2782.777, 1.3774090E-02
2784.706, 1.3397050E-02
2786.634, 1.3044610E-02
2788.563, 1.2847800E-02
2790.491, 1.2329200E-02
2792.420, 1.3249680E-02
2794.348, 1.3763100E-02
2796.277, 1.3079070E-02
2798.205, 1.3232610E-02
2800.134, 1.3905890E-02
2802.062, 1.4170090E-02
2803.990, 1.3969680E-02
2805.919, 1.3313080E-02
2807.847, 1.2555900E-02
2809.776, 1.2030830E-02
2811.704, 1.2369940E-02
2813.633, 1.2499920E-02
2815.561, 1.1973550E-02
2817.490, 1.2346170E-02
2819.418, 1.2283750E-02
2821.347, 1.1720450E-02
2823.275, 1.1920200E-02
2825.204, 1.2952290E-02
2827.132, 1.3817320E-02
2829.061, 1.3135480E-02
2830.989, 1.2175000E-02
2832.917, 1.2341620E-02
2834.846, 1.3082400E-02
2836.774, 1.2731410E-02
2838.703, 1.1464980E-02
2840.631, 1.1175160E-02
2842.560, 1.1352790E-02
2844.488, 1.0348260E-02
2846.417, 8.9929588E-03
2848.345, 8.1938189E-03
2850.274, 7.7061518E-03
2852.202, 7.3115560E-03
2854.131, 7.3738629E-03
2856.059, 7.6873228E-03
2857.988, 8.7991757E-03
2859.916, 9.9751204E-03
2861.844, 1.0492110E-02
2863.773, 1.0512960E-02
2865.701, 1.0362620E-02
2867.630, 1.1256350E-02
2869.558, 1.2046110E-02
2871.487, 1.2562500E-02
2873.415, 1.2756570E-02
2875.344, 1.2300520E-02
2877.272, 1.2106210E-02
2879.201, 1.3117410E-02
2881.129, 1.4379000E-02
2883.058, 1.3764260E-02
2884.986, 1.3125800E-02
2886.915, 1.3620590E-02
2888.843, 1.3363030E-02
2890.771, 1.3218620E-02
2892.700, 1.3443360E-02
2894.628, 1.2372850E-02
2896.557, 1.1752310E-02
2898.485, 1.1140930E-02
2900.414, 1.0593880E-02
2902.342, 1.0741060E-02
2904.271, 1.1428440E-02
2906.199, 1.2325350E-02
2908.128, 1.1947200E-02
2910.056, 1.0478870E-02
2911.985, 9.2652347E-03
2913.913, 8.3110034E-03
2915.842, 8.5428245E-03
2917.770, 8.1486022E-03
2919.698, 7.7791852E-03
2921.627, 7.0999740E-03
2923.555, 6.1245789E-03
2925.484, 5.5855252E-03
2927.412, 5.9644440E-03
2929.341, 6.9290861E-03
2931.269, 7.9283621E-03
2933.198, 8.5939690E-03
2935.126, 8.8427551E-03
2937.055, 1.0572760E-02
2938.983, 1.1980380E-02
2940.912, 1.2034170E-02
2942.840, 1.2549870E-02
2944.769, 1.2950820E-02
2946.697, 1.3388710E-02
2948.625, 1.3141590E-02
2950.554, 1.1808870E-02
2952.482, 1.1276040E-02
2954.411, 1.1484190E-02
2956.339, 1.0909380E-02
2958.268, 1.0608500E-02
2960.196, 1.2688370E-02
2962.125, 1.4620320E-02
2964.053, 1.5405970E-02
2965.982, 1.5856070E-02
2967.910, 1.5453690E-02
2969.839, 1.4816360E-02
2971.767, 1.5854800E-02
2973.696, 1.7768299E-02
2975.624, 1.8168019E-02
2977.552, 1.7813951E-02
2979.481, 1.7658340E-02
2981.409, 1.7226510E-02
2983.338, 1.7187269E-02
2985.266, 1.7611921E-02
2987.195, 1.7429659E-02
2989.123, 1.6117360E-02
2991.052, 1.6168600E-02
2992.980, 1.6241580E-02
2994.909, 1.6436750E-02
2996.837, 1.7457649E-02
2998.766, 1.8009869E-02
3000.694, 1.7258439E-02
3002.623, 1.7244840E-02
3004.551, 1.6196720E-02
3006.479, 1.6375661E-02
3008.408, 1.6993560E-02
3010.336, 1.7438941E-02
3012.265, 1.7662840E-02
3014.193, 1.6063159E-02
3016.122, 1.4849740E-02
3018.050, 1.6393419E-02
3019.979, 1.6588829E-02
3021.907, 1.5935401E-02
3023.836, 1.6766790E-02
3025.764, 1.7172551E-02
3027.693, 1.6341170E-02
3029.621, 1.6664259E-02
3031.550, 1.6560121E-02
3033.478, 1.5866200E-02
3035.406, 1.6516520E-02
3037.335, 1.7552910E-02
3039.263, 1.7899441E-02
3041.192, 1.7205080E-02
3043.120, 1.7732579E-02
3045.049, 1.7900379E-02
3046.977, 1.8649040E-02
3048.906, 1.8921310E-02
3050.834, 1.7751910E-02
3052.763, 1.8766420E-02
3054.691, 1.9500250E-02
3056.620, 1.8642729E-02
3058.548, 1.8048249E-02
3060.477, 1.8630570E-02
3062.405, 1.8953210E-02
3064.333, 1.9054960E-02
3066.262, 1.9232370E-02
3068.190, 1.8551029E-02
3070.119, 1.8907780E-02
3072.047, 1.9368010E-02
3073.976, 1.9931620E-02
3075.904, 1.9882159E-02
3077.833, 1.8743770E-02
3079.761, 1.8980101E-02
3081.690, 2.1383330E-02
3083.618, 2.1245459E-02
3085.547, 1.8701280E-02
3087.475, 1.6594751E-02
3089.404, 1.8489040E-02
3091.332, 1.9906610E-02
3093.260, 1.9114651E-02
3095.189, 1.8583560E-02
3097.117, 1.8960290E-02
3099.046, 1.7997891E-02
3100.974, 1.6857481E-02
3102.903, 1.6950419E-02
3104.831, 1.8607130E-02
3106.760, 1.8834230E-02
3108.688, 2.0007821E-02
3110.617, 2.1534409E-02
3112.545, 2.0915300E-02
3114.474, 1.9280281E-02
3116.402, 1.9496789E-02
3118.331, 2.0177679E-02
3120.259, 2.0276841E-02
3122.188, 2.0577030E-02
3124.116, 1.8089149E-02
3126.044, 1.7309500E-02
3127.973, 1.9720281E-02
3129.901, 2.0506790E-02
3131.830, 1.9143960E-02
3133.758, 1.9441480E-02
3135.687, 2.0203089E-02
3137.615, 2.0212350E-02
3139.544, 1.8851761E-02
3141.472, 2.0249350E-02
3143.401, 2.2315171E-02
3145.329, 2.1777689E-02
3147.258, 1.9430131E-02
3149.186, 2.0295789E-02
3151.115, 2.0297199E-02
3153.043, 1.8052420E-02
3154.971, 2.0015020E-02
3156.900, 2.2141179E-02
3158.828, 1.9035369E-02
3160.757, 1.7603749E-02
3162.685, 1.8891061E-02
3164.614, 1.9403910E-02
3166.542, 1.9594520E-02
3168.471, 2.0784849E-02
3170.399, 2.1190770E-02
3172.328, 2.0425091E-02
3174.256, 2.0478919E-02
3176.185, 2.1332150E-02
3178.113, 2.1699131E-02
3180.042, 2.2192979E-02
3181.970, 2.1242630E-02
3183.898, 2.0037759E-02
3185.827, 2.1471949E-02
3187.755, 2.3471709E-02
3189.684, 2.5081400E-02
3191.612, 2.3237370E-02
3193.541, 2.1104440E-02
3195.469, 2.1807630E-02
3197.398, 2.2272550E-02
3199.326, 2.2095980E-02
3201.255, 2.3488151E-02
3203.183, 2.3884259E-02
3205.112, 2.3379499E-02
3207.040, 2.3810750E-02
3208.969, 2.3278870E-02
3210.897, 2.1497650E-02
3212.825, 2.2282770E-02
3214.754, 2.2516090E-02
3216.682, 2.2547470E-02
3218.611, 2.2149850E-02
3220.539, 2.2567781E-02
3222.468, 2.3669099E-02
3224.396, 2.3440970E-02
3226.325, 2.2613650E-02
3228.253, 2.2351300E-02
3230.182, 2.0429380E-02
3232.110, 1.9983960E-02
3234.039, 2.1510251E-02
3235.967, 2.2847081E-02
3237.896, 2.3328019E-02
3239.824, 2.4094559E-02
3241.752, 2.4599159E-02
3243.681, 2.5224330E-02
3245.609, 2.4288131E-02
3247.538, 2.1618290E-02
3249.466, 2.1844881E-02
3251.395, 2.4777250E-02
3253.323, 2.5762940E-02
3255.252, 2.4254400E-02
3257.180, 2.2025749E-02
3259.109, 2.2735011E-02
3261.037, 2.3166651E-02
3262.966, 2.2111110E-02
3264.894, 2.2631690E-02
3266.823, 2.4390930E-02
3268.751, 2.3902539E-02
3270.679, 2.3876080E-02
3272.608, 2.4577430E-02
3274.536, 2.5270980E-02
3276.465, 2.6265530E-02
3278.393, 2.6022321E-02
3280.322, 2.4246151E-02
3282.250, 2.4127120E-02
3284.179, 2.3758519E-02
3286.107, 2.3309330E-02
3288.036, 2.3738669E-02
3289.964, 2.3445280E-02
3291.893, 2.4086950E-02
3293.821, 2.5414919E-02
3295.750, 2.4423171E-02
3297.678, 2.3854841E-02
3299.606, 2.4615020E-02
3301.535, 2.4562970E-02
3303.463, 2.5570219E-02
3305.392, 2.6327301E-02
3307.320, 2.4162609E-02
3309.249, 2.4794601E-02
3311.177, 2.4539500E-02
3313.106, 2.4192380E-02
3315.034, 2.4679150E-02
3316.963, 2.3710079E-02
3318.891, 2.2619210E-02
3320.820, 2.5096690E-02
3322.748, 2.7589111E-02
3324.677, 2.7266510E-02
3326.605, 2.5795121E-02
3328.533, 2.5138600E-02
3330.462, 2.5985910E-02
3332.390, 2.6216811E-02
3334.319, 2.5735719E-02
3336.247, 2.3681950E-02
3338.176, 2.4854239E-02
3340.104, 2.7382551E-02
3342.033, 2.6333610E-02
3343.961, 2.5723189E-02
3345.890, 2.7881160E-02
3347.818, 2.9545341E-02
3349.747, 2.7340241E-02
3351.675, 2.5780160E-02
3353.604, 2.5543470E-02
3355.532, 2.5963740E-02
3357.460, 2.6629180E-02
3359.389, 2.6841400E-02
3361.317, 2.4794299E-02
3363.246, 2.4667870E-02
3365.174, 2.5390601E-02
3367.103, 2.6182290E-02
3369.031, 2.5659731E-02
3370.960, 2.6980501E-02
3372.888, 2.7557820E-02
3374.817, 2.6873199E-02
3376.745, 2.8053880E-02
3378.674, 2.7302360E-02
3380.602, 2.7114149E-02
3382.531, 2.7840471E-02
3384.459, 2.7361801E-02
3386.387, 2.6992431E-02
3388.316, 2.6575061E-02
3390.244, 2.6356980E-02
3392.173, 2.6891790E-02
3394.101, 2.6088521E-02
3396.030, 2.6876871E-02
3397.958, 2.8858460E-02
3399.887, 2.7652031E-02
3401.815, 2.6060499E-02
3403.744, 2.8266801E-02
3405.672, 2.8035309E-02
3407.601, 2.7324131E-02
3409.529, 2.7945140E-02
3411.458, 2.6783491E-02
3413.386, 2.5444251E-02
3415.314, 2.6367789E-02
3417.243, 2.9159080E-02
3419.171, 2.9234340E-02
3421.100, 2.8403079E-02
3423.028, 2.8617840E-02
3424.957, 3.0223440E-02
3426.885, 3.0390181E-02
3428.814, 3.0022129E-02
3430.742, 3.0152580E-02
3432.671, 2.9297560E-02
3434.599, 2.8270191E-02
3436.528, 2.8611250E-02
3438.456, 2.9385630E-02
3440.385, 2.9361309E-02
3442.313, 2.9528061E-02
3444.241, 3.2006700E-02
3446.170, 3.4546260E-02
3448.098, 3.3291269E-02
3450.027, 3.1670451E-02
3451.955, 3.3892188E-02
3453.884, 3.5322919E-02
3455.812, 3.5458710E-02
3457.741, 3.7171271E-02
3459.669, 3.7588980E-02
3461.598, 3.8896699E-02
3463.526, 4.0372461E-02
3465.455, 4.0519610E-02
3467.383, 4.0407971E-02
3469.312, 4.1306380E-02
3471.240, 4.3299109E-02
3473.168, 4.3755978E-02
3475.097, 4.2764548E-02
3477.025, 4.1869558E-02
3478.954, 4.2832289E-02
3480.882, 4.3977361E-02
3482.811, 4.3114379E-02
3484.739, 4.1614439E-02
3486.668, 3.9153509E-02
3488.596, 3.7596460E-02
3490.525, 3.8233999E-02
3492.453, 3.9870791E-02
3494.382, 4.0900782E-02
3496.310, 4.0502232E-02
3498.239, 3.9511010E-02
3500.167, 3.9196089E-02
3502.095, 3.9298061E-02
3504.024, 3.9677639E-02
3505.952, 3.6806129E-02
3507.881, 3.6030810E-02
3509.809, 3.7047740E-02
3511.738, 3.4316581E-02
3513.666, 3.5771620E-02
3515.595, 3.7119068E-02
3517.523, 3.6116961E-02
3519.452, 3.4960970E-02
3521.380, 3.6391221E-02
3523.309, 3.7301838E-02
3525.237, 3.6610391E-02
3527.166, 3.3715930E-02
3529.094, 3.4935329E-02
3531.022, 3.7808791E-02
3532.951, 3.9110310E-02
3534.879, 3.8004961E-02
3536.808, 3.8948301E-02
3538.736, 4.2642452E-02
3540.665, 4.4473119E-02
3542.593, 4.7374330E-02
3544.522, 4.7428459E-02
3546.450, 4.5977730E-02
3548.379, 4.4575211E-02
3550.307, 4.6290640E-02
3552.236, 4.5564469E-02
3554.164, 4.3362640E-02
3556.093, 4.3550860E-02
3558.021, 4.2239830E-02
3559.949, 4.0369760E-02
3561.878, 3.9731059E-02
3563.806, 3.8426731E-02
3565.735, 3.8767420E-02
3567.663, 3.5214461E-02
3569.592, 2.8903211E-02
3571.520, 2.6525270E-02
3573.449, 2.7984889E-02
3575.377, 2.9510910E-02
3577.306, 2.4857379E-02
3579.234, 2.1968059E-02
3581.163, 2.1382010E-02
3583.091, 2.0386990E-02
3585.020, 2.1362280E-02
3586.948, 1.9611010E-02
3588.876, 2.0212330E-02
3590.805, 2.1573599E-02
3592.733, 1.9572601E-02
3594.662, 1.6599439E-02
3596.590, 1.3907570E-02
3598.519, 1.5006890E-02
3600.447, 1.7365441E-02
3602.376, 1.7077381E-02
3604.304, 1.6232191E-02
3606.233, 1.5383530E-02
3608.161, 1.5423140E-02
3610.090, 1.5480670E-02
3612.018, 1.4375170E-02
3613.947, 1.6200960E-02
3615.875, 1.6995421E-02
3617.803, 1.4916550E-02
3619.732, 1.4940600E-02
3621.660, 1.6988650E-02
3623.589, 1.6765660E-02
3625.517, 1.9157451E-02
3627.446, 2.1092059E-02
3629.374, 2.2099569E-02
3631.303, 1.9632140E-02
3633.231, 1.6511720E-02
3635.160, 1.7437261E-02
3637.088, 1.6712660E-02
3639.017, 1.4462420E-02
3640.945, 1.5458260E-02
3642.874, 1.5206480E-02
3644.802, 1.7325999E-02
3646.730, 1.6431920E-02
3648.659, 1.1887450E-02
3650.587, 1.0732620E-02
3652.516, 1.1283640E-02
3654.444, 1.1751370E-02
3656.373, 1.2113760E-02
3658.301, 1.1841320E-02
3660.230, 1.4816510E-02
3662.158, 1.6685480E-02
3664.087, 1.2807040E-02
3666.015, 1.0112840E-02
3667.944, 1.2363480E-02
3669.872, 1.5654020E-02
3671.801, 1.7871730E-02
3673.729, 1.4615490E-02
3675.657, 1.3203440E-02
3677.586, 1.0851260E-02
3679.514, 1.0387870E-02
3681.443, 1.4699730E-02
3683.371, 1.3419810E-02
3685.300, 1.2744430E-02
3687.228, 1.5889689E-02
3689.157, 1.5013800E-02
3691.085, 1.1291940E-02
3693.014, 9.1830166E-03
3694.942, 1.2440540E-02
3696.871, 1.5044080E-02
3698.799, 1.3580580E-02
3700.728, 1.0866580E-02
3702.656, 1.3209510E-02
3704.584, 1.1683600E-02
3706.513, 1.3721740E-02
3708.441, 1.6455980E-02
3710.370, 1.5039580E-02
3712.298, 1.2726090E-02
3714.227, 8.3106961E-03
3716.155, 7.5675058E-03
3718.084, 9.0811932E-03
3720.012, 1.1479620E-02
3721.941, 1.1596240E-02
3723.869, 1.3241520E-02
3725.798, 1.4868860E-02
3727.726, 1.1873920E-02
3729.655, 9.2347283E-03
3731.583, 9.5364768E-03
3733.511, 1.0899570E-02
3735.440, 1.1298510E-02
3737.368, 1.2078160E-02
3739.297, 1.1052180E-02
3741.225, 1.2766530E-02
3743.154, 1.7480580E-02
3745.082, 1.6766131E-02
3747.011, 1.4242720E-02
3748.939, 1.2880120E-02
3750.868, 1.3652570E-02
3752.796, 1.6016649E-02
3754.725, 1.6783779E-02
3756.653, 1.5726430E-02
3758.582, 1.3592360E-02
3760.510, 1.3049990E-02
3762.438, 1.1455870E-02
3764.367, 9.7231446E-03
3766.295, 1.1914560E-02
3768.224, 1.3401760E-02
3770.152, 1.3852140E-02
3772.081, 1.0442400E-02
3774.009, 8.5246563E-03
3775.938, 1.1432090E-02
3777.866, 1.3216970E-02
3779.795, 1.4400190E-02
3781.723, 1.3789890E-02
3783.652, 1.1549870E-02
3785.580, 1.2084610E-02
3787.509, 1.2431630E-02
3789.437, 1.0212860E-02
3791.365, 6.9182650E-03
3793.294, 1.0312030E-02
3795.222, 1.4151110E-02
3797.151, 1.3746050E-02
3799.079, 1.1530040E-02
3801.008, 1.4766260E-02
3802.936, 1.7245909E-02
3804.865, 1.3637580E-02
3806.793, 1.4019840E-02
3808.722, 1.6319189E-02
3810.650, 1.5363470E-02
3812.579, 1.4224740E-02
3814.507, 1.5276200E-02
3816.436, 1.6062370E-02
3818.364, 1.4378410E-02
3820.292, 1.2144670E-02
3822.221, 1.2961360E-02
3824.149, 1.3099820E-02
3826.078, 1.2007780E-02
3828.006, 1.1984190E-02
3829.935, 1.4366550E-02
3831.863, 1.5314570E-02
3833.792, 1.4764940E-02
3835.720, 1.4542990E-02
3837.649, 1.3279610E-02
3839.577, 1.1078840E-02
3841.506, 1.0861730E-02
3843.434, 1.0914350E-02
3845.363, 1.4823390E-02
3847.291, 1.6629800E-02
3849.219, 1.5064870E-02
3851.148, 1.2699780E-02
3853.076, 1.3040640E-02
3855.005, 1.1688710E-02
3856.933, 1.1947970E-02
3858.862, 1.4011610E-02
3860.790, 1.6684789E-02
3862.719, 1.6645420E-02
3864.647, 1.5374390E-02
3866.576, 1.5299570E-02
3868.504, 1.4214270E-02
3870.433, 1.4382900E-02
3872.361, 1.2558890E-02
3874.290, 1.0774700E-02
3876.218, 1.2245350E-02
3878.146, 1.2843590E-02
3880.075, 1.3974420E-02
3882.003, 1.7150780E-02
3883.932, 1.6083460E-02
3885.860, 8.9821965E-03
3887.789, 5.7844291E-03
3889.717, 9.5560011E-03
3891.646, 1.3644800E-02
3893.574, 1.4050620E-02
3895.503, 1.3236400E-02
3897.431, 1.3713260E-02
3899.360, 1.4748440E-02
3901.288, 1.6833831E-02
3903.217, 1.4562130E-02
3905.145, 1.2961030E-02
3907.073, 1.2486270E-02
3909.002, 1.0377400E-02
3910.930, 1.1021370E-02
3912.859, 1.2756720E-02
3914.787, 1.3784260E-02
3916.716, 1.5368060E-02
3918.644, 1.4649940E-02
3920.573, 1.4977540E-02
3922.501, 1.8030981E-02
3924.430, 1.7020360E-02
3926.358, 1.4162240E-02
3928.287, 1.1118630E-02
3930.215, 1.0867850E-02
3932.144, 1.3333460E-02
3934.072, 1.3564260E-02
3936.000, 1.4210820E-02
3937.929, 1.4318310E-02
3939.857, 1.2719660E-02
3941.786, 1.3155290E-02
3943.714, 1.2582830E-02
3945.643, 1.1221700E-02
3947.571, 1.3265020E-02
3949.500, 1.6671561E-02
3951.428, 1.7464651E-02
3953.357, 1.5001820E-02
3955.285, 1.1000480E-02
3957.214, 1.0607640E-02
3959.142, 1.5409970E-02
3961.071, 1.3837810E-02
3962.999, 9.5313611E-03
3964.927, 9.8571731E-03
3966.856, 1.3948920E-02
3968.784, 1.7371191E-02
3970.713, 1.6902991E-02
3972.641, 1.4206150E-02
3974.570, 1.1047890E-02
3976.498, 1.1976020E-02
3978.427, 1.3405110E-02
3980.355, 1.1825090E-02
3982.284, 1.1226300E-02
3984.212, 1.1276520E-02
3986.141, 1.1019570E-02
3988.069, 1.5250590E-02
3989.998, 1.6061859E-02
3991.926, 1.2737190E-02
3993.854, 1.3089450E-02
3995.783, 1.0937370E-02
3997.711, 9.6605346E-03
3999.640, 9.6651949E-03
##END=



