##NAMES=Foitite
##RRUFFID=R050495
##IDEAL CHEMISTRY=[box](Fe^2+^_2_Al)Al_6_(Si_6_O_18_)(BO_3_)_3_(OH)_3_OH
##LOCALITY=Coahuila Mountain, California, USA
##OWNER=RRUFF
##SOURCE=California Institute of Technology
##DESCRIPTION=Bluish black prismatic fragment
##STATUS=The identification of this mineral has been confirmed by X-ray diffraction and chemical analysis
##URL=rruff.info/R050495
##MEASURED CHEMISTRY=([box]_0.54_Na_0.46_)_Σ=1_(Fe^2+^_1.75_Al_0.85_Mg_0.18_Li_0.14_Mn_0.08_)_Σ=3_Al_6.00_(BO_3_)_3_(Si_5.83_Al_0.17_)_Σ=6_O_18_(OH)_4_ ; B and Li not measured but estimated by charge balance
5.014013e+001, 1.505828e-002
5.206860e+001, 8.254380e-003
5.399707e+001, 1.280223e-002
5.592553e+001, 1.508811e-002
5.785400e+001, 1.851379e-002
5.978246e+001, 1.948500e-002
6.171093e+001, 1.975267e-002
6.363940e+001, 1.998024e-002
6.556786e+001, 1.740484e-002
6.749633e+001, 1.779369e-002
6.942480e+001, 2.142294e-002
7.135326e+001, 2.258219e-002
7.328172e+001, 2.401387e-002
7.521019e+001, 2.382976e-002
7.713866e+001, 2.393408e-002
7.906712e+001, 2.561586e-002
8.099559e+001, 2.770432e-002
8.292406e+001, 2.826281e-002
8.485252e+001, 2.812014e-002
8.678099e+001, 2.758811e-002
8.870946e+001, 2.922108e-002
9.063792e+001, 2.966953e-002
9.256638e+001, 2.948984e-002
9.449485e+001, 3.173749e-002
9.642332e+001, 3.374778e-002
9.835178e+001, 3.358817e-002
1.002803e+002, 3.378373e-002
1.022087e+002, 3.460877e-002
1.041372e+002, 3.586055e-002
1.060657e+002, 3.670438e-002
1.079941e+002, 3.749305e-002
1.099226e+002, 3.814895e-002
1.118510e+002, 3.886669e-002
1.137795e+002, 4.090232e-002
1.157080e+002, 4.337095e-002
1.176364e+002, 4.502909e-002
1.195649e+002, 4.627541e-002
1.214934e+002, 4.745876e-002
1.234218e+002, 4.865942e-002
1.253503e+002, 4.973068e-002
1.272788e+002, 5.108143e-002
1.292072e+002, 5.193610e-002
1.311357e+002, 5.288349e-002
1.330642e+002, 5.274195e-002
1.349926e+002, 5.219079e-002
1.369211e+002, 5.293624e-002
1.388496e+002, 5.348387e-002
1.407780e+002, 5.333701e-002
1.427065e+002, 5.360376e-002
1.446350e+002, 5.353761e-002
1.465634e+002, 5.391790e-002
1.484919e+002, 5.365525e-002
1.504204e+002, 5.323020e-002
1.523488e+002, 5.476797e-002
1.542773e+002, 5.663001e-002
1.562058e+002, 5.734076e-002
1.581342e+002, 5.775295e-002
1.600627e+002, 5.786154e-002
1.619912e+002, 5.816777e-002
1.639196e+002, 5.938883e-002
1.658481e+002, 6.076621e-002
1.677766e+002, 6.161927e-002
1.697050e+002, 6.252652e-002
1.716335e+002, 6.302550e-002
1.735620e+002, 6.418460e-002
1.754904e+002, 6.527574e-002
1.774189e+002, 6.599844e-002
1.793474e+002, 6.647935e-002
1.812758e+002, 6.727916e-002
1.832043e+002, 6.853598e-002
1.851328e+002, 6.952485e-002
1.870612e+002, 6.985738e-002
1.889897e+002, 7.034524e-002
1.909182e+002, 7.137278e-002
1.928466e+002, 7.204892e-002
1.947751e+002, 7.242444e-002
1.967036e+002, 7.268339e-002
1.986320e+002, 7.301382e-002
2.005605e+002, 7.427014e-002
2.024890e+002, 7.496822e-002
2.044174e+002, 7.507715e-002
2.063459e+002, 7.579293e-002
2.082744e+002, 7.660430e-002
2.102028e+002, 7.767573e-002
2.121313e+002, 7.876606e-002
2.140598e+002, 7.955264e-002
2.159882e+002, 8.017752e-002
2.179167e+002, 8.126278e-002
2.198452e+002, 8.254986e-002
2.217736e+002, 8.312704e-002
2.237021e+002, 8.379111e-002
2.256305e+002, 8.468296e-002
2.275590e+002, 8.497709e-002
2.294875e+002, 8.420085e-002
2.314159e+002, 8.339892e-002
2.333444e+002, 8.209414e-002
2.352729e+002, 8.123337e-002
2.372013e+002, 8.072362e-002
2.391298e+002, 8.121044e-002
2.410583e+002, 8.176190e-002
2.429867e+002, 8.243147e-002
2.449152e+002, 8.330065e-002
2.468437e+002, 8.458878e-002
2.487721e+002, 8.593930e-002
2.507006e+002, 8.716515e-002
2.526291e+002, 8.817171e-002
2.545575e+002, 8.921537e-002
2.564860e+002, 9.048568e-002
2.584145e+002, 9.163101e-002
2.603429e+002, 9.288634e-002
2.622714e+002, 9.384425e-002
2.641999e+002, 9.438007e-002
2.661283e+002, 9.436517e-002
2.680568e+002, 9.395919e-002
2.699853e+002, 9.355624e-002
2.719137e+002, 9.292243e-002
2.738422e+002, 9.226963e-002
2.757707e+002, 9.205059e-002
2.776991e+002, 9.254772e-002
2.796276e+002, 9.331673e-002
2.815561e+002, 9.437189e-002
2.834845e+002, 9.510854e-002
2.854130e+002, 9.564196e-002
2.873415e+002, 9.668408e-002
2.892699e+002, 9.834214e-002
2.911984e+002, 9.979244e-002
2.931269e+002, 1.014288e-001
2.950553e+002, 1.027736e-001
2.969838e+002, 1.034656e-001
2.989123e+002, 1.038221e-001
3.008407e+002, 1.040230e-001
3.027692e+002, 1.035453e-001
3.046977e+002, 1.031769e-001
3.066261e+002, 1.030069e-001
3.085546e+002, 1.030799e-001
3.104831e+002, 1.031261e-001
3.124115e+002, 1.031919e-001
3.143400e+002, 1.034714e-001
3.162685e+002, 1.045611e-001
3.181969e+002, 1.062218e-001
3.201254e+002, 1.079940e-001
3.220539e+002, 1.098291e-001
3.239823e+002, 1.117351e-001
3.259108e+002, 1.136085e-001
3.278392e+002, 1.149665e-001
3.297677e+002, 1.150027e-001
3.316962e+002, 1.135910e-001
3.336246e+002, 1.112103e-001
3.355531e+002, 1.098590e-001
3.374816e+002, 1.098350e-001
3.394100e+002, 1.106376e-001
3.413385e+002, 1.115295e-001
3.432670e+002, 1.125224e-001
3.451954e+002, 1.135949e-001
3.471239e+002, 1.143607e-001
3.490524e+002, 1.154504e-001
3.509808e+002, 1.169247e-001
3.529093e+002, 1.185828e-001
3.548378e+002, 1.200429e-001
3.567662e+002, 1.212834e-001
3.586947e+002, 1.228131e-001
3.606232e+002, 1.238487e-001
3.625516e+002, 1.245253e-001
3.644801e+002, 1.248818e-001
3.664086e+002, 1.249313e-001
3.683370e+002, 1.246675e-001
3.702655e+002, 1.242177e-001
3.721940e+002, 1.238644e-001
3.741224e+002, 1.239368e-001
3.760509e+002, 1.243033e-001
3.779794e+002, 1.249952e-001
3.799078e+002, 1.257611e-001
3.818363e+002, 1.266767e-001
3.837648e+002, 1.271647e-001
3.856932e+002, 1.275877e-001
3.876217e+002, 1.286970e-001
3.895502e+002, 1.297485e-001
3.914786e+002, 1.307332e-001
3.934071e+002, 1.316615e-001
3.953356e+002, 1.327967e-001
3.972640e+002, 1.342583e-001
3.991925e+002, 1.356530e-001
4.011210e+002, 1.373991e-001
4.030494e+002, 1.389072e-001
4.049779e+002, 1.404646e-001
4.069064e+002, 1.416850e-001
4.088348e+002, 1.427750e-001
4.107633e+002, 1.444153e-001
4.126917e+002, 1.458055e-001
4.146202e+002, 1.472522e-001
4.165487e+002, 1.492670e-001
4.184771e+002, 1.507279e-001
4.204056e+002, 1.510122e-001
4.223341e+002, 1.509547e-001
4.242625e+002, 1.506161e-001
4.261910e+002, 1.497329e-001
4.281195e+002, 1.484618e-001
4.300479e+002, 1.470799e-001
4.319764e+002, 1.465635e-001
4.339049e+002, 1.463215e-001
4.358333e+002, 1.462782e-001
4.377618e+002, 1.465968e-001
4.396903e+002, 1.472857e-001
4.416187e+002, 1.477182e-001
4.435472e+002, 1.477892e-001
4.454757e+002, 1.472870e-001
4.474041e+002, 1.464718e-001
4.493326e+002, 1.455091e-001
4.512611e+002, 1.443394e-001
4.531895e+002, 1.437025e-001
4.551180e+002, 1.433711e-001
4.570465e+002, 1.437959e-001
4.589749e+002, 1.449185e-001
4.609034e+002, 1.462167e-001
4.628319e+002, 1.480640e-001
4.647603e+002, 1.497240e-001
4.666888e+002, 1.514729e-001
4.686173e+002, 1.531624e-001
4.705457e+002, 1.542130e-001
4.724742e+002, 1.564171e-001
4.744027e+002, 1.587989e-001
4.763311e+002, 1.606060e-001
4.782596e+002, 1.615514e-001
4.801881e+002, 1.624796e-001
4.821165e+002, 1.639023e-001
4.840450e+002, 1.650504e-001
4.859735e+002, 1.663938e-001
4.879019e+002, 1.675599e-001
4.898304e+002, 1.680443e-001
4.917589e+002, 1.686198e-001
4.936873e+002, 1.695554e-001
4.956158e+002, 1.693445e-001
4.975443e+002, 1.685089e-001
4.994727e+002, 1.679808e-001
5.014012e+002, 1.672262e-001
5.033297e+002, 1.661170e-001
5.052581e+002, 1.654044e-001
5.071866e+002, 1.647537e-001
5.091151e+002, 1.630755e-001
5.110435e+002, 1.614291e-001
5.129720e+002, 1.602275e-001
5.149005e+002, 1.582821e-001
5.168289e+002, 1.562040e-001
5.187574e+002, 1.545828e-001
5.206859e+002, 1.522827e-001
5.226143e+002, 1.492867e-001
5.245428e+002, 1.465897e-001
5.264713e+002, 1.434153e-001
5.283997e+002, 1.404935e-001
5.303282e+002, 1.382352e-001
5.322567e+002, 1.362741e-001
5.341851e+002, 1.344062e-001
5.361136e+002, 1.326881e-001
5.380421e+002, 1.311575e-001
5.399705e+002, 1.296269e-001
5.418990e+002, 1.281179e-001
5.438275e+002, 1.266650e-001
5.457559e+002, 1.254916e-001
5.476844e+002, 1.252676e-001
5.496129e+002, 1.256467e-001
5.515413e+002, 1.261584e-001
5.534698e+002, 1.256112e-001
5.553983e+002, 1.251699e-001
5.573267e+002, 1.242117e-001
5.592552e+002, 1.230836e-001
5.611837e+002, 1.213452e-001
5.631121e+002, 1.193451e-001
5.650406e+002, 1.182085e-001
5.669691e+002, 1.174867e-001
5.688975e+002, 1.165262e-001
5.708260e+002, 1.168054e-001
5.727545e+002, 1.176148e-001
5.746829e+002, 1.186001e-001
5.766114e+002, 1.195742e-001
5.785399e+002, 1.201313e-001
5.804683e+002, 1.202187e-001
5.823968e+002, 1.203144e-001
5.843253e+002, 1.199619e-001
5.862537e+002, 1.191751e-001
5.881822e+002, 1.181561e-001
5.901107e+002, 1.170594e-001
5.920391e+002, 1.153514e-001
5.939676e+002, 1.135334e-001
5.958961e+002, 1.119457e-001
5.978245e+002, 1.100175e-001
5.997530e+002, 1.083842e-001
6.016815e+002, 1.075676e-001
6.036099e+002, 1.074091e-001
6.055384e+002, 1.071671e-001
6.074669e+002, 1.068722e-001
6.093953e+002, 1.070912e-001
6.113238e+002, 1.060791e-001
6.132523e+002, 1.044849e-001
6.151807e+002, 1.032307e-001
6.171091e+002, 1.017765e-001
6.190376e+002, 9.874893e-002
6.209661e+002, 9.564016e-002
6.228945e+002, 9.360096e-002
6.248230e+002, 9.231540e-002
6.267515e+002, 9.152425e-002
6.286799e+002, 9.208966e-002
6.306084e+002, 9.330335e-002
6.325369e+002, 9.398608e-002
6.344653e+002, 9.416116e-002
6.363938e+002, 9.432969e-002
6.383223e+002, 9.479382e-002
6.402507e+002, 9.567664e-002
6.421792e+002, 9.644277e-002
6.441077e+002, 9.711313e-002
6.460361e+002, 9.718021e-002
6.479646e+002, 9.761017e-002
6.498931e+002, 9.803209e-002
6.518215e+002, 9.777781e-002
6.537500e+002, 9.681311e-002
6.556785e+002, 9.592985e-002
6.576069e+002, 9.532753e-002
6.595354e+002, 9.474694e-002
6.614639e+002, 9.415764e-002
6.633923e+002, 9.388554e-002
6.653208e+002, 9.367078e-002
6.672493e+002, 9.373598e-002
6.691777e+002, 9.337693e-002
6.711062e+002, 9.235939e-002
6.730347e+002, 9.064117e-002
6.749631e+002, 8.948191e-002
6.768916e+002, 8.873694e-002
6.788201e+002, 8.787034e-002
6.807485e+002, 8.717076e-002
6.826770e+002, 8.706690e-002
6.846055e+002, 8.703602e-002
6.865339e+002, 8.699804e-002
6.884624e+002, 8.827898e-002
6.903909e+002, 9.071189e-002
6.923193e+002, 9.414910e-002
6.942478e+002, 9.766094e-002
6.961763e+002, 1.010822e-001
6.981047e+002, 1.048507e-001
7.000332e+002, 1.071862e-001
##END=



