##NAMES=Foitite
##RRUFFID=R050495
##IDEAL CHEMISTRY=[box](Fe^2+^_2_Al)Al_6_(Si_6_O_18_)(BO_3_)_3_(OH)_3_OH
##LOCALITY=Coahuila Mountain, California, USA
##OWNER=RRUFF
##SOURCE=California Institute of Technology
##DESCRIPTION=Bluish black prismatic fragment
##STATUS=The identification of this mineral has been confirmed by X-ray diffraction and chemical analysis
##URL=rruff.info/R050495
##MEASURED CHEMISTRY=([box]_0.54_Na_0.46_)_Σ=1_(Fe^2+^_1.75_Al_0.85_Mg_0.18_Li_0.14_Mn_0.08_)_Σ=3_Al_6.00_(BO_3_)_3_(Si_5.83_Al_0.17_)_Σ=6_O_18_(OH)_4_ ; B and Li not measured but estimated by charge balance
3.991926e+002, 2.517148e-001
4.011211e+002, 2.473588e-001
4.030495e+002, 2.475463e-001
4.049780e+002, 2.568539e-001
4.069065e+002, 2.599181e-001
4.088349e+002, 2.580657e-001
4.107634e+002, 2.572187e-001
4.126919e+002, 2.625072e-001
4.146203e+002, 2.699041e-001
4.165488e+002, 2.719355e-001
4.184773e+002, 2.688546e-001
4.204057e+002, 2.725476e-001
4.223342e+002, 2.753586e-001
4.242627e+002, 2.708647e-001
4.261911e+002, 2.657684e-001
4.281196e+002, 2.601301e-001
4.300481e+002, 2.563694e-001
4.319765e+002, 2.539845e-001
4.339050e+002, 2.522848e-001
4.358335e+002, 2.508007e-001
4.377619e+002, 2.499025e-001
4.396904e+002, 2.520562e-001
4.416189e+002, 2.537903e-001
4.435473e+002, 2.535963e-001
4.454758e+002, 2.516675e-001
4.474043e+002, 2.499578e-001
4.493327e+002, 2.461054e-001
4.512612e+002, 2.426978e-001
4.531897e+002, 2.409327e-001
4.551181e+002, 2.412349e-001
4.570466e+002, 2.426286e-001
4.589751e+002, 2.448085e-001
4.609035e+002, 2.476004e-001
4.628320e+002, 2.516001e-001
4.647605e+002, 2.554451e-001
4.666889e+002, 2.592016e-001
4.686174e+002, 2.633298e-001
4.705459e+002, 2.669524e-001
4.724743e+002, 2.696788e-001
4.744028e+002, 2.723933e-001
4.763313e+002, 2.734455e-001
4.782597e+002, 2.761472e-001
4.801882e+002, 2.797089e-001
4.821167e+002, 2.801747e-001
4.840451e+002, 2.800077e-001
4.859736e+002, 2.808098e-001
4.879021e+002, 2.807220e-001
4.898305e+002, 2.804145e-001
4.917590e+002, 2.791016e-001
4.936875e+002, 2.772270e-001
4.956159e+002, 2.746290e-001
4.975444e+002, 2.722034e-001
4.994729e+002, 2.695551e-001
5.014013e+002, 2.665054e-001
5.033298e+002, 2.629494e-001
5.052583e+002, 2.589969e-001
5.071867e+002, 2.550126e-001
5.091152e+002, 2.506184e-001
5.110437e+002, 2.462546e-001
5.129721e+002, 2.410492e-001
5.149006e+002, 2.358344e-001
5.168290e+002, 2.309766e-001
5.187575e+002, 2.239589e-001
5.206860e+002, 2.170484e-001
5.226144e+002, 2.107276e-001
5.245429e+002, 2.045284e-001
5.264714e+002, 1.990260e-001
5.283998e+002, 1.939670e-001
5.303283e+002, 1.891257e-001
5.322568e+002, 1.841406e-001
5.341852e+002, 1.803866e-001
5.361137e+002, 1.772285e-001
5.380422e+002, 1.738157e-001
5.399706e+002, 1.713695e-001
5.418991e+002, 1.699814e-001
5.438276e+002, 1.679556e-001
5.457560e+002, 1.662997e-001
5.476845e+002, 1.657126e-001
5.496130e+002, 1.660227e-001
5.515414e+002, 1.655690e-001
5.534699e+002, 1.641964e-001
5.553984e+002, 1.628140e-001
5.573268e+002, 1.606120e-001
5.592553e+002, 1.578745e-001
5.611838e+002, 1.554145e-001
5.631122e+002, 1.527154e-001
5.650407e+002, 1.499346e-001
5.669692e+002, 1.481752e-001
5.688976e+002, 1.471968e-001
5.708261e+002, 1.468601e-001
5.727546e+002, 1.474531e-001
5.746830e+002, 1.487070e-001
5.766115e+002, 1.496571e-001
5.785400e+002, 1.506249e-001
5.804684e+002, 1.508146e-001
5.823969e+002, 1.505069e-001
5.843254e+002, 1.496051e-001
5.862538e+002, 1.478220e-001
5.881823e+002, 1.455875e-001
5.901108e+002, 1.429000e-001
5.920392e+002, 1.400244e-001
5.939677e+002, 1.372665e-001
5.958962e+002, 1.346390e-001
5.978246e+002, 1.320028e-001
5.997531e+002, 1.304112e-001
6.016816e+002, 1.295056e-001
6.036100e+002, 1.290397e-001
6.055385e+002, 1.294291e-001
6.074670e+002, 1.298955e-001
6.093954e+002, 1.296001e-001
6.113239e+002, 1.286947e-001
6.132524e+002, 1.264866e-001
6.151808e+002, 1.235032e-001
6.171093e+002, 1.198843e-001
6.190378e+002, 1.157647e-001
6.209662e+002, 1.115413e-001
6.228947e+002, 1.075125e-001
6.248232e+002, 1.042049e-001
6.267516e+002, 1.020428e-001
6.286801e+002, 1.010416e-001
6.306086e+002, 1.009159e-001
6.325370e+002, 1.007011e-001
6.344655e+002, 1.005690e-001
6.363940e+002, 1.005170e-001
6.383224e+002, 1.004833e-001
6.402509e+002, 1.007043e-001
6.421794e+002, 1.011347e-001
6.441078e+002, 1.017413e-001
6.460363e+002, 1.020328e-001
6.479648e+002, 1.019637e-001
6.498932e+002, 1.016475e-001
6.518217e+002, 1.009545e-001
6.537502e+002, 9.958757e-002
6.556786e+002, 9.785500e-002
6.576071e+002, 9.584052e-002
6.595356e+002, 9.395406e-002
6.614641e+002, 9.274990e-002
6.633925e+002, 9.215266e-002
6.653210e+002, 9.165742e-002
6.672495e+002, 9.093755e-002
6.691779e+002, 8.964817e-002
6.711064e+002, 8.781343e-002
6.730349e+002, 8.586749e-002
6.749633e+002, 8.371887e-002
6.768918e+002, 8.160929e-002
6.788203e+002, 7.988887e-002
6.807487e+002, 7.913005e-002
6.826772e+002, 7.903326e-002
6.846057e+002, 7.944530e-002
6.865341e+002, 8.099313e-002
6.884626e+002, 8.337387e-002
6.903911e+002, 8.680956e-002
6.923195e+002, 9.123170e-002
6.942480e+002, 9.617683e-002
6.961765e+002, 1.013485e-001
6.981049e+002, 1.057802e-001
7.000334e+002, 1.092427e-001
7.019619e+002, 1.109344e-001
7.038903e+002, 1.110672e-001
7.058188e+002, 1.096233e-001
7.077473e+002, 1.065332e-001
7.096757e+002, 1.025945e-001
7.116042e+002, 9.849919e-002
7.135327e+002, 9.409323e-002
7.154611e+002, 8.995654e-002
7.173896e+002, 8.674003e-002
7.193181e+002, 8.400991e-002
7.212465e+002, 8.142858e-002
7.231750e+002, 7.950691e-002
7.251035e+002, 7.764415e-002
7.270319e+002, 7.521802e-002
7.289604e+002, 7.287936e-002
7.308889e+002, 7.107440e-002
7.328173e+002, 6.984534e-002
7.347458e+002, 6.925195e-002
7.366743e+002, 6.948644e-002
7.386027e+002, 7.038705e-002
7.405312e+002, 7.177221e-002
7.424597e+002, 7.399090e-002
7.443881e+002, 7.728965e-002
7.463166e+002, 8.060301e-002
7.482451e+002, 8.258358e-002
7.501735e+002, 8.263549e-002
7.521020e+002, 8.104753e-002
7.540305e+002, 7.870887e-002
7.559589e+002, 7.583692e-002
7.578874e+002, 7.233268e-002
7.598159e+002, 6.872928e-002
7.617443e+002, 6.590071e-002
7.636728e+002, 6.452090e-002
7.656013e+002, 6.507696e-002
7.675297e+002, 6.760663e-002
7.694582e+002, 7.137186e-002
7.713867e+002, 7.572004e-002
7.733151e+002, 8.024537e-002
7.752436e+002, 8.461921e-002
7.771721e+002, 8.805978e-002
7.791005e+002, 9.009666e-002
7.810290e+002, 9.015892e-002
7.829575e+002, 8.807644e-002
7.848859e+002, 8.399950e-002
7.868144e+002, 7.836002e-002
7.887429e+002, 7.171407e-002
7.906713e+002, 6.476875e-002
7.925998e+002, 5.798182e-002
7.945283e+002, 5.189836e-002
7.964567e+002, 4.710644e-002
7.983852e+002, 4.348736e-002
8.003137e+002, 4.126689e-002
8.022421e+002, 4.033310e-002
8.041706e+002, 4.012994e-002
8.060991e+002, 4.016864e-002
8.080275e+002, 4.036028e-002
8.099560e+002, 4.089016e-002
8.118845e+002, 4.143414e-002
8.138129e+002, 4.165550e-002
8.157414e+002, 4.185047e-002
8.176699e+002, 4.191016e-002
8.195983e+002, 4.198325e-002
8.215268e+002, 4.199299e-002
8.234553e+002, 4.183996e-002
8.253837e+002, 4.163625e-002
8.273122e+002, 4.159798e-002
8.292407e+002, 4.145191e-002
8.311691e+002, 4.142947e-002
8.330976e+002, 4.154939e-002
8.350261e+002, 4.181847e-002
8.369545e+002, 4.208761e-002
8.388830e+002, 4.270744e-002
8.408115e+002, 4.359361e-002
8.427399e+002, 4.479090e-002
8.446684e+002, 4.597499e-002
8.465969e+002, 4.712807e-002
8.485253e+002, 4.817650e-002
8.504538e+002, 4.920563e-002
8.523823e+002, 4.988043e-002
8.543107e+002, 4.997994e-002
8.562392e+002, 4.958617e-002
8.581677e+002, 4.929498e-002
8.600961e+002, 4.878062e-002
8.620246e+002, 4.791588e-002
8.639531e+002, 4.707983e-002
8.658815e+002, 4.664360e-002
8.678100e+002, 4.652311e-002
8.697385e+002, 4.660025e-002
8.716669e+002, 4.682569e-002
8.735954e+002, 4.748028e-002
8.755239e+002, 4.862738e-002
8.774523e+002, 4.997342e-002
8.793808e+002, 5.130564e-002
8.813093e+002, 5.286968e-002
8.832377e+002, 5.480474e-002
8.851662e+002, 5.703653e-002
8.870947e+002, 5.941813e-002
8.890231e+002, 6.193586e-002
8.909516e+002, 6.452661e-002
8.928801e+002, 6.738219e-002
8.948085e+002, 7.032823e-002
8.967370e+002, 7.320704e-002
8.986655e+002, 7.620284e-002
9.005939e+002, 7.941452e-002
9.025224e+002, 8.296107e-002
9.044509e+002, 8.686773e-002
9.063793e+002, 9.100757e-002
9.083078e+002, 9.558786e-002
9.102363e+002, 1.004764e-001
9.121647e+002, 1.057152e-001
9.140932e+002, 1.114587e-001
9.160217e+002, 1.175042e-001
9.179501e+002, 1.236013e-001
9.198786e+002, 1.297763e-001
9.218071e+002, 1.361498e-001
9.237355e+002, 1.427555e-001
9.256640e+002, 1.492577e-001
9.275925e+002, 1.559730e-001
9.295209e+002, 1.629253e-001
9.314494e+002, 1.701194e-001
9.333779e+002, 1.777123e-001
9.353063e+002, 1.854479e-001
9.372348e+002, 1.933787e-001
9.391633e+002, 2.017087e-001
9.410917e+002, 2.102161e-001
9.430202e+002, 2.188072e-001
9.449487e+002, 2.274195e-001
9.468771e+002, 2.359722e-001
9.488056e+002, 2.442215e-001
9.507341e+002, 2.522649e-001
9.526625e+002, 2.601090e-001
9.545910e+002, 2.671606e-001
9.565195e+002, 2.733678e-001
9.584479e+002, 2.788500e-001
9.603764e+002, 2.836072e-001
9.623049e+002, 2.876675e-001
9.642333e+002, 2.906392e-001
9.661618e+002, 2.928112e-001
9.680903e+002, 2.944731e-001
9.700187e+002, 2.957523e-001
9.719472e+002, 2.964602e-001
9.738757e+002, 2.966609e-001
9.758041e+002, 2.962706e-001
9.777326e+002, 2.950987e-001
9.796611e+002, 2.931640e-001
9.815895e+002, 2.904672e-001
9.835180e+002, 2.868787e-001
9.854465e+002, 2.828541e-001
9.873749e+002, 2.783260e-001
9.893034e+002, 2.737094e-001
9.912319e+002, 2.690072e-001
9.931603e+002, 2.642340e-001
9.950888e+002, 2.598247e-001
9.970173e+002, 2.558898e-001
9.989457e+002, 2.521462e-001
1.000874e+003, 2.487676e-001
1.002803e+003, 2.457600e-001
1.004731e+003, 2.431002e-001
1.006660e+003, 2.409521e-001
1.008588e+003, 2.392466e-001
1.010517e+003, 2.379760e-001
1.012445e+003, 2.367878e-001
1.014373e+003, 2.353883e-001
1.016302e+003, 2.338621e-001
1.018230e+003, 2.321838e-001
1.020159e+003, 2.302600e-001
1.022087e+003, 2.279191e-001
1.024016e+003, 2.252793e-001
1.025944e+003, 2.222434e-001
1.027873e+003, 2.188620e-001
1.029801e+003, 2.151205e-001
1.031730e+003, 2.108087e-001
1.033658e+003, 2.061943e-001
1.035587e+003, 2.015349e-001
1.037515e+003, 1.966261e-001
1.039443e+003, 1.917062e-001
1.041372e+003, 1.867884e-001
1.043300e+003, 1.821167e-001
1.045229e+003, 1.778203e-001
1.047157e+003, 1.736858e-001
1.049086e+003, 1.697559e-001
1.051014e+003, 1.659698e-001
1.052943e+003, 1.621072e-001
1.054871e+003, 1.583782e-001
1.056800e+003, 1.548371e-001
1.058728e+003, 1.512327e-001
1.060657e+003, 1.476892e-001
1.062585e+003, 1.443926e-001
1.064514e+003, 1.410010e-001
1.066442e+003, 1.371801e-001
1.068370e+003, 1.329491e-001
1.070299e+003, 1.280490e-001
1.072227e+003, 1.223382e-001
1.074156e+003, 1.162469e-001
1.076084e+003, 1.102916e-001
1.078013e+003, 1.048394e-001
1.079941e+003, 1.000139e-001
1.081870e+003, 9.593128e-002
1.083798e+003, 9.270579e-002
1.085727e+003, 9.043239e-002
1.087655e+003, 8.903605e-002
1.089584e+003, 8.815333e-002
1.091512e+003, 8.798520e-002
1.093441e+003, 8.845053e-002
1.095369e+003, 8.917266e-002
1.097297e+003, 8.985029e-002
1.099226e+003, 9.050045e-002
1.101154e+003, 9.125028e-002
1.103083e+003, 9.152841e-002
1.105011e+003, 9.128282e-002
1.106940e+003, 9.072257e-002
1.108868e+003, 8.986775e-002
1.110797e+003, 8.854575e-002
1.112725e+003, 8.666381e-002
1.114654e+003, 8.411387e-002
1.116582e+003, 8.080621e-002
1.118511e+003, 7.688203e-002
1.120439e+003, 7.254950e-002
1.122368e+003, 6.780947e-002
1.124296e+003, 6.294418e-002
1.126224e+003, 5.785961e-002
1.128153e+003, 5.281077e-002
1.130081e+003, 4.810016e-002
1.132010e+003, 4.369010e-002
1.133938e+003, 3.964040e-002
1.135867e+003, 3.608769e-002
1.137795e+003, 3.310461e-002
1.139724e+003, 3.054845e-002
1.141652e+003, 2.846611e-002
1.143581e+003, 2.676847e-002
1.145509e+003, 2.520346e-002
1.147438e+003, 2.382532e-002
1.149366e+003, 2.268757e-002
1.151295e+003, 2.192015e-002
1.153223e+003, 2.124547e-002
1.155151e+003, 2.067020e-002
1.157080e+003, 2.014713e-002
1.159008e+003, 1.965960e-002
1.160937e+003, 1.919262e-002
1.162865e+003, 1.863655e-002
1.164794e+003, 1.816045e-002
1.166722e+003, 1.775397e-002
1.168651e+003, 1.732602e-002
1.170579e+003, 1.698049e-002
1.172508e+003, 1.682747e-002
1.174436e+003, 1.675219e-002
1.176365e+003, 1.665465e-002
1.178293e+003, 1.642708e-002
1.180222e+003, 1.631896e-002
1.182150e+003, 1.629735e-002
1.184078e+003, 1.621043e-002
1.186007e+003, 1.619989e-002
1.187935e+003, 1.633704e-002
1.189864e+003, 1.652573e-002
1.191792e+003, 1.654914e-002
1.193721e+003, 1.669611e-002
1.195649e+003, 1.690120e-002
1.197578e+003, 1.719103e-002
1.199506e+003, 1.757979e-002
1.201435e+003, 1.799538e-002
1.203363e+003, 1.849241e-002
1.205292e+003, 1.911757e-002
1.207220e+003, 1.971195e-002
1.209149e+003, 2.039645e-002
1.211077e+003, 2.134520e-002
1.213005e+003, 2.240988e-002
1.214934e+003, 2.366540e-002
1.216862e+003, 2.518990e-002
1.218791e+003, 2.692212e-002
1.220719e+003, 2.896226e-002
1.222648e+003, 3.133021e-002
1.224576e+003, 3.412584e-002
1.226505e+003, 3.744412e-002
1.228433e+003, 4.109259e-002
1.230362e+003, 4.519927e-002
1.232290e+003, 4.968862e-002
1.234219e+003, 5.448855e-002
1.236147e+003, 5.962827e-002
1.238076e+003, 6.475192e-002
1.240004e+003, 6.988963e-002
1.241932e+003, 7.509611e-002
1.243861e+003, 8.039972e-002
1.245789e+003, 8.567886e-002
1.247718e+003, 9.113625e-002
1.249646e+003, 9.670913e-002
1.251575e+003, 1.022683e-001
1.253503e+003, 1.077540e-001
1.255432e+003, 1.131881e-001
1.257360e+003, 1.185318e-001
1.259289e+003, 1.236123e-001
1.261217e+003, 1.284620e-001
1.263146e+003, 1.329007e-001
1.265074e+003, 1.365600e-001
1.267003e+003, 1.393535e-001
1.268931e+003, 1.411599e-001
1.270859e+003, 1.420855e-001
1.272788e+003, 1.420290e-001
1.274716e+003, 1.409914e-001
1.276645e+003, 1.390102e-001
1.278573e+003, 1.365062e-001
1.280502e+003, 1.335601e-001
1.282430e+003, 1.304025e-001
1.284359e+003, 1.272147e-001
1.286287e+003, 1.241326e-001
1.288216e+003, 1.213065e-001
1.290144e+003, 1.187395e-001
1.292073e+003, 1.164340e-001
1.294001e+003, 1.144899e-001
1.295930e+003, 1.128058e-001
1.297858e+003, 1.113171e-001
1.299786e+003, 1.101496e-001
1.301715e+003, 1.092192e-001
1.303643e+003, 1.085685e-001
1.305572e+003, 1.083291e-001
1.307500e+003, 1.083846e-001
1.309429e+003, 1.086961e-001
1.311357e+003, 1.091686e-001
1.313286e+003, 1.098714e-001
1.315214e+003, 1.108881e-001
1.317143e+003, 1.120259e-001
1.319071e+003, 1.132013e-001
1.321000e+003, 1.141041e-001
1.322928e+003, 1.146763e-001
1.324857e+003, 1.148496e-001
1.326785e+003, 1.145351e-001
1.328714e+003, 1.137407e-001
1.330642e+003, 1.123113e-001
1.332570e+003, 1.105624e-001
1.334499e+003, 1.085382e-001
1.336427e+003, 1.061340e-001
1.338356e+003, 1.035464e-001
1.340284e+003, 1.009508e-001
1.342213e+003, 9.840433e-002
1.344141e+003, 9.582271e-002
1.346070e+003, 9.314752e-002
1.347998e+003, 9.044402e-002
1.349927e+003, 8.760285e-002
1.351855e+003, 8.470681e-002
1.353784e+003, 8.168446e-002
1.355712e+003, 7.867969e-002
1.357641e+003, 7.572415e-002
1.359569e+003, 7.271710e-002
1.361497e+003, 6.968480e-002
1.363426e+003, 6.650195e-002
1.365354e+003, 6.342347e-002
1.367283e+003, 6.062536e-002
1.369211e+003, 5.787779e-002
1.371140e+003, 5.528926e-002
1.373068e+003, 5.286853e-002
1.374997e+003, 5.065435e-002
1.376925e+003, 4.834105e-002
1.378854e+003, 4.599320e-002
1.380782e+003, 4.386248e-002
1.382711e+003, 4.169275e-002
1.384639e+003, 3.939132e-002
1.386568e+003, 3.730679e-002
1.388496e+003, 3.542399e-002
1.390424e+003, 3.359051e-002
1.392353e+003, 3.166331e-002
1.394281e+003, 2.998366e-002
1.396210e+003, 2.872486e-002
1.398138e+003, 2.764712e-002
1.400067e+003, 2.665235e-002
1.401995e+003, 2.570219e-002
1.403924e+003, 2.472488e-002
1.405852e+003, 2.374725e-002
1.407781e+003, 2.283142e-002
1.409709e+003, 2.191818e-002
1.411638e+003, 2.104883e-002
1.413566e+003, 2.017505e-002
1.415495e+003, 1.932492e-002
1.417423e+003, 1.854900e-002
1.419351e+003, 1.780234e-002
1.421280e+003, 1.705223e-002
1.423208e+003, 1.625906e-002
1.425137e+003, 1.536764e-002
1.427065e+003, 1.447065e-002
1.428994e+003, 1.374910e-002
1.430922e+003, 1.282487e-002
1.432851e+003, 1.198920e-002
1.434779e+003, 1.135847e-002
1.436708e+003, 1.060682e-002
1.438636e+003, 9.747727e-003
1.440565e+003, 9.124829e-003
1.442493e+003, 8.647783e-003
1.444422e+003, 8.242486e-003
1.446350e+003, 7.797447e-003
1.448278e+003, 7.430713e-003
1.450207e+003, 7.131760e-003
1.452135e+003, 6.810354e-003
1.454064e+003, 6.572844e-003
1.455992e+003, 6.446908e-003
1.457921e+003, 6.264874e-003
1.459849e+003, 6.029075e-003
1.461778e+003, 5.787006e-003
1.463706e+003, 5.667761e-003
1.465635e+003, 5.550320e-003
1.467563e+003, 5.414774e-003
1.469492e+003, 5.329305e-003
1.471420e+003, 5.191450e-003
1.473349e+003, 5.114708e-003
1.475277e+003, 5.075112e-003
1.477205e+003, 4.924747e-003
1.479134e+003, 4.802412e-003
1.481062e+003, 4.772406e-003
1.482991e+003, 4.755424e-003
1.484919e+003, 4.654227e-003
1.486848e+003, 4.469630e-003
1.488776e+003, 4.400651e-003
1.490705e+003, 4.417357e-003
1.492633e+003, 4.385152e-003
1.494562e+003, 4.342831e-003
1.496490e+003, 4.303586e-003
1.498419e+003, 4.308799e-003
1.500347e+003, 4.299456e-003
1.502276e+003, 4.276347e-003
1.504204e+003, 4.147781e-003
1.506132e+003, 4.100243e-003
1.508061e+003, 4.230666e-003
1.509989e+003, 4.201157e-003
1.511918e+003, 3.948116e-003
1.513846e+003, 3.834959e-003
1.515775e+003, 3.871545e-003
1.517703e+003, 3.875132e-003
1.519632e+003, 3.818550e-003
1.521560e+003, 3.818341e-003
1.523489e+003, 3.810211e-003
1.525417e+003, 3.807590e-003
1.527346e+003, 3.862720e-003
1.529274e+003, 3.808101e-003
1.531203e+003, 3.729767e-003
1.533131e+003, 3.707216e-003
1.535059e+003, 3.642344e-003
1.536988e+003, 3.695647e-003
1.538916e+003, 3.763177e-003
1.540845e+003, 3.787433e-003
1.542773e+003, 3.810854e-003
1.544702e+003, 3.819675e-003
1.546630e+003, 3.811374e-003
1.548559e+003, 3.786942e-003
1.550487e+003, 3.903755e-003
1.552416e+003, 3.972332e-003
1.554344e+003, 3.945804e-003
1.556273e+003, 3.842860e-003
1.558201e+003, 3.823305e-003
1.560130e+003, 3.849530e-003
1.562058e+003, 3.857133e-003
1.563986e+003, 3.757291e-003
1.565915e+003, 3.690750e-003
1.567843e+003, 3.736123e-003
1.569772e+003, 3.840703e-003
1.571700e+003, 3.960523e-003
1.573629e+003, 4.080056e-003
1.575557e+003, 4.041087e-003
1.577486e+003, 3.926365e-003
1.579414e+003, 3.925676e-003
1.581343e+003, 3.966974e-003
1.583271e+003, 3.868021e-003
1.585200e+003, 3.887085e-003
1.587128e+003, 4.110828e-003
1.589057e+003, 4.228994e-003
1.590985e+003, 4.341842e-003
1.592913e+003, 4.476694e-003
1.594842e+003, 4.526619e-003
1.596770e+003, 4.539429e-003
1.598699e+003, 4.565960e-003
1.600627e+003, 4.690512e-003
1.602556e+003, 4.696354e-003
1.604484e+003, 4.600472e-003
1.606413e+003, 4.600740e-003
1.608341e+003, 4.604161e-003
1.610270e+003, 4.694532e-003
1.612198e+003, 4.605234e-003
1.614127e+003, 4.719755e-003
1.616055e+003, 4.835135e-003
1.617984e+003, 4.718858e-003
1.619912e+003, 4.589887e-003
1.621840e+003, 4.614923e-003
1.623769e+003, 4.809100e-003
1.625697e+003, 4.848646e-003
1.627626e+003, 4.846232e-003
1.629554e+003, 4.975818e-003
1.631483e+003, 5.098750e-003
1.633411e+003, 5.131209e-003
1.635340e+003, 5.130438e-003
1.637268e+003, 5.201617e-003
1.639197e+003, 5.108390e-003
1.641125e+003, 5.141273e-003
1.643054e+003, 5.272000e-003
1.644982e+003, 5.330676e-003
1.646911e+003, 5.353139e-003
1.648839e+003, 5.299904e-003
1.650767e+003, 5.311829e-003
1.652696e+003, 5.161596e-003
1.654624e+003, 5.164676e-003
1.656553e+003, 5.384391e-003
1.658481e+003, 5.348304e-003
1.660410e+003, 5.206661e-003
1.662338e+003, 5.059713e-003
1.664267e+003, 5.031986e-003
1.666195e+003, 5.135607e-003
1.668124e+003, 5.322301e-003
1.670052e+003, 5.196633e-003
1.671981e+003, 4.997888e-003
1.673909e+003, 4.935802e-003
1.675838e+003, 4.898275e-003
1.677766e+003, 4.852032e-003
1.679694e+003, 4.846179e-003
1.681623e+003, 4.911693e-003
1.683551e+003, 5.001792e-003
1.685480e+003, 4.850773e-003
1.687408e+003, 4.723737e-003
1.689337e+003, 4.741304e-003
1.691265e+003, 4.733858e-003
1.693194e+003, 4.699338e-003
1.695122e+003, 4.792638e-003
1.697051e+003, 4.787225e-003
1.698979e+003, 4.784905e-003
1.700908e+003, 4.822671e-003
1.702836e+003, 4.703157e-003
1.704765e+003, 4.681314e-003
1.706693e+003, 4.774653e-003
1.708621e+003, 4.726596e-003
1.710550e+003, 4.668225e-003
1.712478e+003, 4.590076e-003
1.714407e+003, 4.623256e-003
1.716335e+003, 4.636586e-003
1.718264e+003, 4.596201e-003
1.720192e+003, 4.513225e-003
1.722121e+003, 4.595780e-003
1.724049e+003, 4.517769e-003
1.725978e+003, 4.291981e-003
1.727906e+003, 4.163438e-003
1.729835e+003, 4.161865e-003
1.731763e+003, 4.110084e-003
1.733692e+003, 4.033695e-003
1.735620e+003, 3.840299e-003
1.737548e+003, 3.589304e-003
1.739477e+003, 3.527106e-003
1.741405e+003, 3.322017e-003
1.743334e+003, 3.136940e-003
1.745262e+003, 3.135946e-003
1.747191e+003, 3.065772e-003
1.749119e+003, 3.077997e-003
1.751048e+003, 3.150433e-003
1.752976e+003, 3.286141e-003
1.754905e+003, 3.357510e-003
1.756833e+003, 3.373779e-003
1.758762e+003, 3.348988e-003
1.760690e+003, 3.360052e-003
1.762619e+003, 3.333287e-003
1.764547e+003, 3.339704e-003
1.766475e+003, 3.540673e-003
1.768404e+003, 3.617427e-003
1.770332e+003, 3.580601e-003
1.772261e+003, 3.493665e-003
1.774189e+003, 3.303219e-003
1.776118e+003, 3.379981e-003
1.778046e+003, 3.595764e-003
1.779975e+003, 3.553638e-003
1.781903e+003, 3.490954e-003
1.783832e+003, 3.487442e-003
1.785760e+003, 3.420857e-003
1.787689e+003, 3.481431e-003
1.789617e+003, 3.461733e-003
1.791546e+003, 3.522481e-003
1.793474e+003, 3.603833e-003
1.795402e+003, 3.653742e-003
1.797331e+003, 3.590134e-003
1.799259e+003, 3.500157e-003
1.801188e+003, 3.522256e-003
1.803116e+003, 3.536785e-003
1.805045e+003, 3.474079e-003
1.806973e+003, 3.256230e-003
1.808902e+003, 3.196831e-003
1.810830e+003, 3.349614e-003
1.812759e+003, 3.271047e-003
1.814687e+003, 3.162840e-003
1.816616e+003, 3.189848e-003
1.818544e+003, 3.321943e-003
1.820473e+003, 3.549757e-003
1.822401e+003, 3.559418e-003
1.824329e+003, 3.379670e-003
1.826258e+003, 3.367886e-003
1.828186e+003, 3.142813e-003
1.830115e+003, 3.077539e-003
1.832043e+003, 3.020413e-003
1.833972e+003, 2.968339e-003
1.835900e+003, 3.098183e-003
1.837829e+003, 3.027247e-003
1.839757e+003, 2.965095e-003
1.841686e+003, 3.068482e-003
1.843614e+003, 3.118749e-003
1.845543e+003, 3.132406e-003
1.847471e+003, 2.985092e-003
1.849400e+003, 2.991857e-003
1.851328e+003, 3.171540e-003
1.853256e+003, 3.286887e-003
1.855185e+003, 3.146520e-003
1.857113e+003, 2.723994e-003
1.859042e+003, 2.484481e-003
1.860970e+003, 2.677480e-003
1.862899e+003, 2.873396e-003
1.864827e+003, 3.053323e-003
1.866756e+003, 2.953199e-003
1.868684e+003, 2.650577e-003
1.870613e+003, 2.392830e-003
1.872541e+003, 2.275666e-003
1.874470e+003, 2.423102e-003
1.876398e+003, 2.455646e-003
1.878327e+003, 2.156519e-003
1.880255e+003, 2.299924e-003
1.882183e+003, 2.582404e-003
1.884112e+003, 2.246479e-003
1.886040e+003, 1.856050e-003
1.887969e+003, 1.744126e-003
1.889897e+003, 2.119939e-003
1.891826e+003, 2.307309e-003
1.893754e+003, 2.295539e-003
1.895683e+003, 2.326482e-003
1.897611e+003, 2.370634e-003
1.899540e+003, 2.467070e-003
1.901468e+003, 2.354669e-003
1.903397e+003, 2.257349e-003
1.905325e+003, 2.259867e-003
1.907254e+003, 2.383047e-003
1.909182e+003, 1.969260e-003
1.911110e+003, 1.641515e-003
1.913039e+003, 2.104578e-003
1.914967e+003, 2.432713e-003
1.916896e+003, 2.279295e-003
1.918824e+003, 1.920917e-003
1.920753e+003, 1.742721e-003
1.922681e+003, 1.786402e-003
1.924610e+003, 1.714635e-003
1.926538e+003, 1.782663e-003
1.928467e+003, 1.518594e-003
1.930395e+003, 1.237609e-003
1.932324e+003, 1.348563e-003
1.934252e+003, 1.951832e-003
1.936181e+003, 1.768225e-003
1.938109e+003, 1.259136e-003
1.940037e+003, 1.334869e-003
1.941966e+003, 1.287713e-003
1.943894e+003, 7.466123e-004
1.945823e+003, 5.436989e-004
1.947751e+003, 8.263254e-004
1.949680e+003, 9.854157e-004
1.951608e+003, 9.724279e-004
1.953537e+003, 1.369918e-003
1.955465e+003, 1.315086e-003
1.957394e+003, 8.606674e-004
1.959322e+003, 5.157187e-004
1.961251e+003, 4.218644e-004
1.963179e+003, 5.220838e-004
1.965108e+003, 1.378964e-003
1.967036e+003, 1.166541e-003
1.968964e+003, 3.081744e-004
1.970893e+003, 1.771776e-003
1.972821e+003, 1.979923e-003
1.974750e+003, 9.812601e-004
1.976678e+003, 1.838423e-003
1.978607e+003, 2.999006e-003
1.980535e+003, 3.353384e-003
1.982464e+003, 3.237364e-003
1.984392e+003, 2.890580e-003
1.986321e+003, 1.995603e-003
1.988249e+003, 1.690686e-003
1.990178e+003, 1.806349e-003
1.992106e+003, 2.437257e-003
1.994035e+003, 2.214924e-003
1.995963e+003, 1.559898e-003
1.997891e+003, 1.209074e-003
1.999820e+003, 7.147742e-004
2.001748e+003, 2.334462e-004
2.003677e+003, 9.658979e-006
2.005605e+003, 4.298300e-004
2.007534e+003, 2.121558e-003
2.009462e+003, 2.335705e-003
2.011391e+003, 1.652884e-003
2.013319e+003, 2.248487e-003
2.015248e+003, 2.341288e-003
2.017176e+003, 1.989694e-003
2.019105e+003, 1.957599e-003
2.021033e+003, 2.012017e-003
2.022962e+003, 2.398131e-003
2.024890e+003, 2.416349e-003
2.026818e+003, 2.098206e-003
2.028747e+003, 2.699968e-003
2.030675e+003, 2.706544e-003
2.032604e+003, 2.317119e-003
2.034532e+003, 2.751338e-003
2.036461e+003, 2.392904e-003
2.038389e+003, 1.865186e-003
2.040318e+003, 2.327743e-003
2.042246e+003, 3.074819e-003
2.044175e+003, 2.838484e-003
2.046103e+003, 2.002852e-003
2.048031e+003, 2.560876e-003
2.049960e+003, 3.927888e-003
2.051888e+003, 2.943262e-003
2.053817e+003, 2.767815e-003
2.055745e+003, 3.736106e-003
2.057674e+003, 3.479903e-003
2.059602e+003, 2.522966e-003
2.061531e+003, 1.982695e-003
2.063459e+003, 1.742261e-003
2.065388e+003, 1.980913e-003
2.067316e+003, 2.493071e-003
2.069245e+003, 2.960680e-003
2.071173e+003, 3.150158e-003
2.073102e+003, 3.414116e-003
2.075030e+003, 3.801642e-003
2.076958e+003, 3.857111e-003
2.078887e+003, 3.650276e-003
2.080815e+003, 3.342928e-003
2.082744e+003, 2.749951e-003
2.084672e+003, 2.779474e-003
2.086601e+003, 3.173967e-003
2.088529e+003, 3.697894e-003
2.090458e+003, 3.698510e-003
2.092386e+003, 3.040442e-003
2.094315e+003, 3.112084e-003
2.096243e+003, 3.841963e-003
2.098172e+003, 4.338593e-003
2.100100e+003, 4.235828e-003
2.102029e+003, 3.775068e-003
2.103957e+003, 3.602106e-003
2.105885e+003, 3.479742e-003
2.107814e+003, 3.311714e-003
2.109742e+003, 3.246959e-003
2.111671e+003, 3.724177e-003
2.113599e+003, 4.178640e-003
2.115528e+003, 3.665060e-003
2.117456e+003, 3.112466e-003
2.119385e+003, 2.925542e-003
2.121313e+003, 2.414620e-003
2.123242e+003, 2.563578e-003
2.125170e+003, 2.649242e-003
2.127099e+003, 2.244070e-003
2.129027e+003, 2.003286e-003
2.130956e+003, 2.387922e-003
2.132884e+003, 2.491102e-003
2.134813e+003, 2.685946e-003
2.136741e+003, 3.767621e-003
2.138669e+003, 4.074971e-003
2.140598e+003, 3.438928e-003
2.142526e+003, 3.339543e-003
2.144455e+003, 2.598661e-003
2.146383e+003, 2.063008e-003
2.148312e+003, 2.794337e-003
2.150240e+003, 3.330193e-003
2.152169e+003, 2.747564e-003
2.154097e+003, 3.224542e-003
2.156026e+003, 3.264904e-003
2.157954e+003, 5.217770e-003
2.159883e+003, 8.524377e-003
2.161811e+003, 8.312938e-003
2.163740e+003, 6.970772e-003
2.165668e+003, 7.651894e-003
2.167596e+003, 8.336731e-003
2.169525e+003, 7.755793e-003
2.171453e+003, 6.214192e-003
2.173382e+003, 5.949980e-003
2.175310e+003, 6.149704e-003
2.177239e+003, 7.021178e-003
2.179167e+003, 6.991903e-003
2.181096e+003, 5.965491e-003
2.183024e+003, 6.144073e-003
2.184953e+003, 6.757439e-003
2.186881e+003, 6.090520e-003
2.188810e+003, 6.282718e-003
2.190738e+003, 6.670820e-003
2.192667e+003, 6.394228e-003
2.194595e+003, 6.908763e-003
2.196523e+003, 7.006322e-003
2.198452e+003, 5.802791e-003
2.200380e+003, 5.334479e-003
2.202309e+003, 5.485651e-003
2.204237e+003, 4.921952e-003
2.206166e+003, 4.994527e-003
2.208094e+003, 6.041071e-003
2.210023e+003, 6.560913e-003
2.211951e+003, 6.255364e-003
2.213880e+003, 6.683760e-003
2.215808e+003, 6.952245e-003
2.217737e+003, 6.935972e-003
2.219665e+003, 7.095083e-003
2.221594e+003, 6.702475e-003
2.223522e+003, 6.390513e-003
2.225450e+003, 6.203965e-003
2.227379e+003, 6.226026e-003
2.229307e+003, 6.412088e-003
2.231236e+003, 6.189201e-003
2.233164e+003, 5.952046e-003
2.235093e+003, 6.412090e-003
2.237021e+003, 6.826513e-003
2.238950e+003, 7.167193e-003
2.240878e+003, 7.006852e-003
2.242807e+003, 6.328910e-003
2.244735e+003, 6.049851e-003
2.246664e+003, 6.421676e-003
2.248592e+003, 7.104715e-003
2.250521e+003, 7.489978e-003
2.252449e+003, 7.904682e-003
2.254377e+003, 7.910375e-003
2.256306e+003, 7.441308e-003
2.258234e+003, 7.131194e-003
2.260163e+003, 7.172466e-003
2.262091e+003, 7.482860e-003
2.264020e+003, 7.442666e-003
2.265948e+003, 7.533760e-003
2.267877e+003, 7.936024e-003
2.269805e+003, 8.071691e-003
2.271734e+003, 8.152626e-003
2.273662e+003, 8.702414e-003
2.275591e+003, 9.005792e-003
2.277519e+003, 8.726275e-003
2.279448e+003, 8.354750e-003
2.281376e+003, 8.456274e-003
2.283304e+003, 8.647428e-003
2.285233e+003, 8.576465e-003
2.287161e+003, 8.435944e-003
2.289090e+003, 8.515369e-003
2.291018e+003, 8.310745e-003
2.292947e+003, 7.919298e-003
2.294875e+003, 7.518832e-003
2.296804e+003, 7.361931e-003
2.298732e+003, 7.314288e-003
2.300661e+003, 7.600085e-003
2.302589e+003, 7.571773e-003
2.304518e+003, 7.226192e-003
2.306446e+003, 7.056010e-003
2.308375e+003, 7.400949e-003
2.310303e+003, 7.530501e-003
2.312231e+003, 7.632548e-003
2.314160e+003, 7.541345e-003
2.316088e+003, 7.343764e-003
2.318017e+003, 7.727825e-003
2.319945e+003, 8.338358e-003
2.321874e+003, 8.782092e-003
2.323802e+003, 8.701625e-003
2.325731e+003, 7.390754e-003
2.327659e+003, 6.451459e-003
2.329588e+003, 6.391689e-003
2.331516e+003, 6.399589e-003
2.333445e+003, 6.555308e-003
2.335373e+003, 6.751344e-003
2.337302e+003, 6.527708e-003
2.339230e+003, 6.484870e-003
2.341158e+003, 6.365000e-003
2.343087e+003, 6.315157e-003
2.345015e+003, 6.569041e-003
2.346944e+003, 6.856502e-003
2.348872e+003, 6.835308e-003
2.350801e+003, 6.557195e-003
2.352729e+003, 6.364485e-003
2.354658e+003, 6.216706e-003
2.356586e+003, 6.082295e-003
2.358515e+003, 5.919136e-003
2.360443e+003, 6.018406e-003
2.362372e+003, 5.911186e-003
2.364300e+003, 5.915474e-003
2.366229e+003, 5.917570e-003
2.368157e+003, 6.127177e-003
2.370085e+003, 6.428719e-003
2.372014e+003, 6.233628e-003
2.373942e+003, 6.267063e-003
2.375871e+003, 6.332676e-003
2.377799e+003, 6.240039e-003
2.379728e+003, 6.388593e-003
2.381656e+003, 6.503690e-003
2.383585e+003, 6.572939e-003
2.385513e+003, 6.632440e-003
2.387442e+003, 6.561713e-003
2.389370e+003, 6.617850e-003
2.391299e+003, 6.350625e-003
2.393227e+003, 6.221285e-003
2.395156e+003, 6.346126e-003
2.397084e+003, 6.462982e-003
2.399012e+003, 6.560865e-003
2.400941e+003, 6.806765e-003
2.402869e+003, 6.658225e-003
2.404798e+003, 6.933274e-003
2.406726e+003, 7.014322e-003
2.408655e+003, 6.910934e-003
2.410583e+003, 7.062322e-003
2.412512e+003, 7.148585e-003
2.414440e+003, 7.103825e-003
2.416369e+003, 6.891708e-003
2.418297e+003, 6.436617e-003
2.420226e+003, 6.240677e-003
2.422154e+003, 6.507861e-003
2.424083e+003, 6.809374e-003
2.426011e+003, 6.753449e-003
2.427939e+003, 6.432419e-003
2.429868e+003, 6.304860e-003
2.431796e+003, 6.635439e-003
2.433725e+003, 6.533428e-003
2.435653e+003, 6.875484e-003
2.437582e+003, 7.099652e-003
2.439510e+003, 7.036696e-003
2.441439e+003, 6.650253e-003
2.443367e+003, 6.320598e-003
2.445296e+003, 6.036055e-003
2.447224e+003, 6.132741e-003
2.449153e+003, 6.392431e-003
2.451081e+003, 6.527712e-003
2.453010e+003, 6.424278e-003
2.454938e+003, 6.625257e-003
2.456866e+003, 6.605747e-003
2.458795e+003, 6.506432e-003
2.460723e+003, 5.998921e-003
2.462652e+003, 5.705515e-003
2.464580e+003, 5.758676e-003
2.466509e+003, 5.661080e-003
2.468437e+003, 5.509065e-003
2.470366e+003, 5.454158e-003
2.472294e+003, 5.316250e-003
2.474223e+003, 5.223786e-003
2.476151e+003, 5.189545e-003
2.478080e+003, 5.335181e-003
2.480008e+003, 5.566385e-003
2.481937e+003, 5.583206e-003
2.483865e+003, 5.353069e-003
2.485793e+003, 5.213474e-003
2.487722e+003, 5.224995e-003
2.489650e+003, 5.061576e-003
2.491579e+003, 4.901133e-003
2.493507e+003, 4.664302e-003
2.495436e+003, 4.842064e-003
2.497364e+003, 4.761803e-003
2.499293e+003, 4.552342e-003
2.501221e+003, 4.882568e-003
2.503150e+003, 5.085067e-003
2.505078e+003, 5.062397e-003
2.507007e+003, 4.939814e-003
2.508935e+003, 4.606398e-003
2.510864e+003, 4.441803e-003
2.512792e+003, 4.776816e-003
2.514720e+003, 4.994772e-003
2.516649e+003, 5.038070e-003
2.518577e+003, 4.672148e-003
2.520506e+003, 4.208200e-003
2.522434e+003, 4.204721e-003
2.524363e+003, 4.158425e-003
2.526291e+003, 3.855570e-003
2.528220e+003, 3.730688e-003
2.530148e+003, 3.732707e-003
2.532077e+003, 4.036393e-003
2.534005e+003, 4.116937e-003
2.535934e+003, 4.377933e-003
2.537862e+003, 4.366599e-003
2.539791e+003, 4.423000e-003
2.541719e+003, 4.749168e-003
2.543647e+003, 4.451504e-003
2.545576e+003, 4.516132e-003
2.547504e+003, 4.850583e-003
2.549433e+003, 4.681039e-003
2.551361e+003, 4.663128e-003
2.553290e+003, 4.700735e-003
2.555218e+003, 4.897412e-003
2.557147e+003, 4.885040e-003
2.559075e+003, 4.418240e-003
2.561004e+003, 4.491712e-003
2.562932e+003, 4.816929e-003
2.564861e+003, 4.979000e-003
2.566789e+003, 4.954582e-003
2.568718e+003, 4.953630e-003
2.570646e+003, 5.422605e-003
2.572574e+003, 5.272539e-003
2.574503e+003, 5.465501e-003
2.576431e+003, 5.650467e-003
2.578360e+003, 5.940161e-003
2.580288e+003, 6.077588e-003
2.582217e+003, 5.960532e-003
2.584145e+003, 5.707921e-003
2.586074e+003, 5.658643e-003
2.588002e+003, 5.800100e-003
2.589931e+003, 5.901924e-003
2.591859e+003, 5.862667e-003
2.593788e+003, 5.876290e-003
2.595716e+003, 6.148032e-003
2.597645e+003, 6.583571e-003
2.599573e+003, 6.519442e-003
2.601501e+003, 6.299607e-003
2.603430e+003, 6.277851e-003
2.605358e+003, 6.371508e-003
2.607287e+003, 6.520464e-003
2.609215e+003, 6.662271e-003
2.611144e+003, 6.762172e-003
2.613072e+003, 6.372111e-003
2.615001e+003, 6.365244e-003
2.616929e+003, 6.797297e-003
2.618858e+003, 7.049919e-003
2.620786e+003, 6.846675e-003
2.622715e+003, 6.956655e-003
2.624643e+003, 6.978764e-003
2.626572e+003, 7.160543e-003
2.628500e+003, 7.123505e-003
2.630428e+003, 6.925220e-003
2.632357e+003, 6.996843e-003
2.634285e+003, 7.185892e-003
2.636214e+003, 7.109709e-003
2.638142e+003, 7.284791e-003
2.640071e+003, 7.674555e-003
2.641999e+003, 7.644415e-003
2.643928e+003, 7.526826e-003
2.645856e+003, 7.767964e-003
2.647785e+003, 7.688782e-003
2.649713e+003, 7.480553e-003
2.651642e+003, 7.408733e-003
2.653570e+003, 7.446453e-003
2.655499e+003, 7.245129e-003
2.657427e+003, 7.107604e-003
2.659355e+003, 7.291362e-003
2.661284e+003, 7.067848e-003
2.663212e+003, 7.038391e-003
2.665141e+003, 7.073894e-003
2.667069e+003, 6.853061e-003
2.668998e+003, 6.747738e-003
2.670926e+003, 6.927746e-003
2.672855e+003, 7.154637e-003
2.674783e+003, 7.101058e-003
2.676712e+003, 7.151632e-003
2.678640e+003, 7.228604e-003
2.680569e+003, 7.079782e-003
2.682497e+003, 7.031425e-003
2.684426e+003, 7.100674e-003
2.686354e+003, 7.166795e-003
2.688282e+003, 7.165163e-003
2.690211e+003, 7.273389e-003
2.692139e+003, 7.174693e-003
2.694068e+003, 7.175916e-003
2.695996e+003, 7.078802e-003
2.697925e+003, 7.119964e-003
2.699853e+003, 7.277826e-003
2.701782e+003, 7.155689e-003
2.703710e+003, 7.140825e-003
2.705639e+003, 7.295038e-003
2.707567e+003, 7.443990e-003
2.709496e+003, 7.523761e-003
2.711424e+003, 7.576348e-003
2.713353e+003, 7.676782e-003
2.715281e+003, 7.861855e-003
2.717209e+003, 7.662394e-003
2.719138e+003, 7.591416e-003
2.721066e+003, 7.719793e-003
2.722995e+003, 7.890850e-003
2.724923e+003, 7.852304e-003
2.726852e+003, 7.692188e-003
2.728780e+003, 7.658535e-003
2.730709e+003, 7.963163e-003
2.732637e+003, 8.314868e-003
2.734566e+003, 8.010685e-003
2.736494e+003, 7.717815e-003
2.738423e+003, 7.979571e-003
2.740351e+003, 8.395899e-003
2.742280e+003, 8.504882e-003
2.744208e+003, 8.262026e-003
2.746136e+003, 7.996052e-003
2.748065e+003, 8.095205e-003
2.749993e+003, 8.326144e-003
2.751922e+003, 8.371042e-003
2.753850e+003, 8.383000e-003
2.755779e+003, 8.052238e-003
2.757707e+003, 7.992418e-003
2.759636e+003, 8.173766e-003
2.761564e+003, 8.383589e-003
2.763493e+003, 8.311192e-003
2.765421e+003, 8.226627e-003
2.767350e+003, 8.402919e-003
2.769278e+003, 8.702121e-003
2.771207e+003, 8.890706e-003
2.773135e+003, 8.965142e-003
2.775063e+003, 8.993741e-003
2.776992e+003, 8.744011e-003
2.778920e+003, 8.867729e-003
2.780849e+003, 9.228988e-003
2.782777e+003, 9.258654e-003
2.784706e+003, 9.140624e-003
2.786634e+003, 9.115539e-003
2.788563e+003, 9.021724e-003
2.790491e+003, 8.971930e-003
2.792420e+003, 9.018996e-003
2.794348e+003, 9.045961e-003
2.796277e+003, 8.997641e-003
2.798205e+003, 9.127732e-003
2.800134e+003, 9.514851e-003
2.802062e+003, 9.392981e-003
2.803990e+003, 9.216547e-003
2.805919e+003, 8.917866e-003
2.807847e+003, 9.045580e-003
2.809776e+003, 9.403031e-003
2.811704e+003, 9.404352e-003
2.813633e+003, 9.368381e-003
2.815561e+003, 9.438956e-003
2.817490e+003, 9.717277e-003
2.819418e+003, 9.958923e-003
2.821347e+003, 9.644910e-003
2.823275e+003, 9.362414e-003
2.825204e+003, 9.570817e-003
2.827132e+003, 9.900853e-003
2.829061e+003, 9.840277e-003
2.830989e+003, 9.914718e-003
2.832917e+003, 9.989833e-003
2.834846e+003, 9.765069e-003
2.836774e+003, 9.594038e-003
2.838703e+003, 9.915723e-003
2.840631e+003, 1.028403e-002
2.842560e+003, 1.018034e-002
2.844488e+003, 1.013967e-002
2.846417e+003, 1.020193e-002
2.848345e+003, 1.028985e-002
2.850274e+003, 1.053514e-002
2.852202e+003, 1.090235e-002
2.854131e+003, 1.077772e-002
2.856059e+003, 1.064521e-002
2.857988e+003, 1.061204e-002
2.859916e+003, 1.055311e-002
2.861844e+003, 1.051827e-002
2.863773e+003, 1.065249e-002
2.865701e+003, 1.101284e-002
2.867630e+003, 1.108741e-002
2.869558e+003, 1.057931e-002
2.871487e+003, 1.025939e-002
2.873415e+003, 1.043106e-002
2.875344e+003, 1.067704e-002
2.877272e+003, 1.058223e-002
2.879201e+003, 1.041629e-002
2.881129e+003, 1.042072e-002
2.883058e+003, 1.031360e-002
2.884986e+003, 1.024642e-002
2.886915e+003, 1.035168e-002
2.888843e+003, 1.044221e-002
2.890771e+003, 1.055296e-002
2.892700e+003, 1.061551e-002
2.894628e+003, 1.097090e-002
2.896557e+003, 1.111670e-002
2.898485e+003, 1.094462e-002
2.900414e+003, 1.099498e-002
2.902342e+003, 1.132676e-002
2.904271e+003, 1.138482e-002
2.906199e+003, 1.147472e-002
2.908128e+003, 1.156581e-002
2.910056e+003, 1.135033e-002
2.911985e+003, 1.168854e-002
2.913913e+003, 1.179952e-002
2.915842e+003, 1.176709e-002
2.917770e+003, 1.195615e-002
2.919698e+003, 1.211321e-002
2.921627e+003, 1.239650e-002
2.923555e+003, 1.243437e-002
2.925484e+003, 1.194458e-002
2.927412e+003, 1.206951e-002
2.929341e+003, 1.245782e-002
2.931269e+003, 1.204882e-002
2.933198e+003, 1.170227e-002
2.935126e+003, 1.154513e-002
2.937055e+003, 1.153753e-002
2.938983e+003, 1.169218e-002
2.940912e+003, 1.150275e-002
2.942840e+003, 1.111969e-002
2.944769e+003, 1.084665e-002
2.946697e+003, 1.074745e-002
2.948625e+003, 1.103111e-002
2.950554e+003, 1.151295e-002
2.952482e+003, 1.176346e-002
2.954411e+003, 1.162826e-002
2.956339e+003, 1.155029e-002
2.958268e+003, 1.142594e-002
2.960196e+003, 1.129549e-002
2.962125e+003, 1.135032e-002
2.964053e+003, 1.129514e-002
2.965982e+003, 1.115038e-002
2.967910e+003, 1.095326e-002
2.969839e+003, 1.105777e-002
2.971767e+003, 1.129980e-002
2.973696e+003, 1.106606e-002
2.975624e+003, 1.089580e-002
2.977552e+003, 1.086798e-002
2.979481e+003, 1.079493e-002
2.981409e+003, 1.081024e-002
2.983338e+003, 1.116010e-002
2.985266e+003, 1.098680e-002
2.987195e+003, 1.077705e-002
2.989123e+003, 1.029901e-002
2.991052e+003, 1.040110e-002
2.992980e+003, 1.095147e-002
2.994909e+003, 1.114503e-002
2.996837e+003, 1.104419e-002
2.998766e+003, 1.126550e-002
3.000694e+003, 1.139273e-002
3.002623e+003, 1.121887e-002
3.004551e+003, 1.110393e-002
3.006479e+003, 1.127245e-002
3.008408e+003, 1.125057e-002
3.010336e+003, 1.132383e-002
3.012265e+003, 1.095970e-002
3.014193e+003, 1.044489e-002
3.016122e+003, 9.845558e-003
3.018050e+003, 9.942169e-003
3.019979e+003, 1.079808e-002
3.021907e+003, 1.147531e-002
3.023836e+003, 1.182414e-002
3.025764e+003, 1.139126e-002
3.027693e+003, 1.084203e-002
3.029621e+003, 1.117433e-002
3.031550e+003, 1.166772e-002
3.033478e+003, 1.190874e-002
3.035406e+003, 1.228857e-002
3.037335e+003, 1.186924e-002
3.039263e+003, 1.127696e-002
3.041192e+003, 1.132694e-002
3.043120e+003, 1.178814e-002
3.045049e+003, 1.227011e-002
3.046977e+003, 1.221404e-002
3.048906e+003, 1.213180e-002
3.050834e+003, 1.229938e-002
3.052763e+003, 1.223432e-002
3.054691e+003, 1.229225e-002
3.056620e+003, 1.215891e-002
3.058548e+003, 1.233047e-002
3.060477e+003, 1.272442e-002
3.062405e+003, 1.257842e-002
3.064333e+003, 1.213292e-002
3.066262e+003, 1.153390e-002
3.068190e+003, 1.151189e-002
3.070119e+003, 1.192432e-002
3.072047e+003, 1.252652e-002
3.073976e+003, 1.245107e-002
3.075904e+003, 1.212321e-002
3.077833e+003, 1.248933e-002
3.079761e+003, 1.275566e-002
3.081690e+003, 1.270184e-002
3.083618e+003, 1.242984e-002
3.085547e+003, 1.214351e-002
3.087475e+003, 1.254399e-002
3.089404e+003, 1.304027e-002
3.091332e+003, 1.319618e-002
3.093260e+003, 1.289493e-002
3.095189e+003, 1.262627e-002
3.097117e+003, 1.302819e-002
3.099046e+003, 1.335582e-002
3.100974e+003, 1.303622e-002
3.102903e+003, 1.267641e-002
3.104831e+003, 1.250326e-002
3.106760e+003, 1.273884e-002
3.108688e+003, 1.332701e-002
3.110617e+003, 1.364929e-002
3.112545e+003, 1.319659e-002
3.114474e+003, 1.325338e-002
3.116402e+003, 1.379197e-002
3.118331e+003, 1.392573e-002
3.120259e+003, 1.371371e-002
3.122188e+003, 1.374982e-002
3.124116e+003, 1.394168e-002
3.126044e+003, 1.377318e-002
3.127973e+003, 1.373829e-002
3.129901e+003, 1.383533e-002
3.131830e+003, 1.358952e-002
3.133758e+003, 1.348667e-002
3.135687e+003, 1.333984e-002
3.137615e+003, 1.348175e-002
3.139544e+003, 1.383871e-002
3.141472e+003, 1.428328e-002
3.143401e+003, 1.435915e-002
3.145329e+003, 1.436244e-002
3.147258e+003, 1.417698e-002
3.149186e+003, 1.419627e-002
3.151115e+003, 1.442226e-002
3.153043e+003, 1.400045e-002
3.154971e+003, 1.387073e-002
3.156900e+003, 1.417831e-002
3.158828e+003, 1.419898e-002
3.160757e+003, 1.393557e-002
3.162685e+003, 1.438881e-002
3.164614e+003, 1.512725e-002
3.166542e+003, 1.480686e-002
3.168471e+003, 1.421758e-002
3.170399e+003, 1.401976e-002
3.172328e+003, 1.434460e-002
3.174256e+003, 1.473080e-002
3.176185e+003, 1.471375e-002
3.178113e+003, 1.511755e-002
3.180042e+003, 1.527911e-002
3.181970e+003, 1.486316e-002
3.183898e+003, 1.483671e-002
3.185827e+003, 1.468956e-002
3.187755e+003, 1.446421e-002
3.189684e+003, 1.431370e-002
3.191612e+003, 1.479401e-002
3.193541e+003, 1.535613e-002
3.195469e+003, 1.516701e-002
3.197398e+003, 1.477549e-002
3.199326e+003, 1.526688e-002
3.201255e+003, 1.543432e-002
3.203183e+003, 1.514677e-002
3.205112e+003, 1.516754e-002
3.207040e+003, 1.537826e-002
3.208969e+003, 1.553400e-002
3.210897e+003, 1.593234e-002
3.212825e+003, 1.585551e-002
3.214754e+003, 1.540773e-002
3.216682e+003, 1.557340e-002
3.218611e+003, 1.600472e-002
3.220539e+003, 1.590008e-002
3.222468e+003, 1.539615e-002
3.224396e+003, 1.506498e-002
3.226325e+003, 1.545003e-002
3.228253e+003, 1.630334e-002
3.230182e+003, 1.654824e-002
3.232110e+003, 1.595301e-002
3.234039e+003, 1.541580e-002
3.235967e+003, 1.561141e-002
3.237896e+003, 1.588212e-002
3.239824e+003, 1.597177e-002
3.241752e+003, 1.597503e-002
3.243681e+003, 1.615017e-002
3.245609e+003, 1.650579e-002
3.247538e+003, 1.657433e-002
3.249466e+003, 1.631900e-002
3.251395e+003, 1.629244e-002
3.253323e+003, 1.617688e-002
3.255252e+003, 1.636699e-002
3.257180e+003, 1.635076e-002
3.259109e+003, 1.617001e-002
3.261037e+003, 1.603723e-002
3.262966e+003, 1.601726e-002
3.264894e+003, 1.614045e-002
3.266823e+003, 1.636147e-002
3.268751e+003, 1.633592e-002
3.270679e+003, 1.687114e-002
3.272608e+003, 1.725108e-002
3.274536e+003, 1.705267e-002
3.276465e+003, 1.676088e-002
3.278393e+003, 1.640935e-002
3.280322e+003, 1.657532e-002
3.282250e+003, 1.680408e-002
3.284179e+003, 1.688581e-002
3.286107e+003, 1.701389e-002
3.288036e+003, 1.733433e-002
3.289964e+003, 1.712556e-002
3.291893e+003, 1.654576e-002
3.293821e+003, 1.633959e-002
3.295750e+003, 1.645172e-002
3.297678e+003, 1.672515e-002
3.299606e+003, 1.673631e-002
3.301535e+003, 1.668197e-002
3.303463e+003, 1.674095e-002
3.305392e+003, 1.681781e-002
3.307320e+003, 1.680252e-002
3.309249e+003, 1.709562e-002
3.311177e+003, 1.742699e-002
3.313106e+003, 1.708857e-002
3.315034e+003, 1.652638e-002
3.316963e+003, 1.662945e-002
3.318891e+003, 1.749154e-002
3.320820e+003, 1.785945e-002
3.322748e+003, 1.746687e-002
3.324677e+003, 1.715778e-002
3.326605e+003, 1.759661e-002
3.328533e+003, 1.779868e-002
3.330462e+003, 1.754689e-002
3.332390e+003, 1.748837e-002
3.334319e+003, 1.733789e-002
3.336247e+003, 1.756055e-002
3.338176e+003, 1.766962e-002
3.340104e+003, 1.782586e-002
3.342033e+003, 1.792412e-002
3.343961e+003, 1.792566e-002
3.345890e+003, 1.816124e-002
3.347818e+003, 1.838811e-002
3.349747e+003, 1.798890e-002
3.351675e+003, 1.780325e-002
3.353604e+003, 1.766879e-002
3.355532e+003, 1.771538e-002
3.357460e+003, 1.752993e-002
3.359389e+003, 1.755853e-002
3.361317e+003, 1.805176e-002
3.363246e+003, 1.829032e-002
3.365174e+003, 1.798038e-002
3.367103e+003, 1.803841e-002
3.369031e+003, 1.781286e-002
3.370960e+003, 1.756222e-002
3.372888e+003, 1.800410e-002
3.374817e+003, 1.798153e-002
3.376745e+003, 1.793342e-002
3.378674e+003, 1.807168e-002
3.380602e+003, 1.764497e-002
3.382531e+003, 1.781731e-002
3.384459e+003, 1.840766e-002
3.386387e+003, 1.834381e-002
3.388316e+003, 1.828896e-002
3.390244e+003, 1.850610e-002
3.392173e+003, 1.834371e-002
3.394101e+003, 1.874447e-002
3.396030e+003, 1.859919e-002
3.397958e+003, 1.799142e-002
3.399887e+003, 1.762385e-002
3.401815e+003, 1.815804e-002
3.403744e+003, 1.882708e-002
3.405672e+003, 1.900252e-002
3.407601e+003, 1.865393e-002
3.409529e+003, 1.866159e-002
3.411458e+003, 1.873586e-002
3.413386e+003, 1.862476e-002
3.415314e+003, 1.876898e-002
3.417243e+003, 1.866876e-002
3.419171e+003, 1.912479e-002
3.421100e+003, 1.956537e-002
3.423028e+003, 1.895649e-002
3.424957e+003, 1.912815e-002
3.426885e+003, 1.943185e-002
3.428814e+003, 1.923995e-002
3.430742e+003, 1.954369e-002
3.432671e+003, 2.026120e-002
3.434599e+003, 2.025650e-002
3.436528e+003, 1.999638e-002
3.438456e+003, 1.958744e-002
3.440385e+003, 1.953220e-002
3.442313e+003, 2.024088e-002
3.444241e+003, 2.097080e-002
3.446170e+003, 2.098563e-002
3.448098e+003, 2.094843e-002
3.450027e+003, 2.151710e-002
3.451955e+003, 2.236169e-002
3.453884e+003, 2.315040e-002
3.455812e+003, 2.337389e-002
3.457741e+003, 2.417301e-002
3.459669e+003, 2.510468e-002
3.461598e+003, 2.549315e-002
3.463526e+003, 2.565835e-002
3.465455e+003, 2.611321e-002
3.467383e+003, 2.698585e-002
3.469312e+003, 2.775209e-002
3.471240e+003, 2.853537e-002
3.473168e+003, 2.847460e-002
3.475097e+003, 2.839813e-002
3.477025e+003, 2.964065e-002
3.478954e+003, 2.981656e-002
3.480882e+003, 2.922983e-002
3.482811e+003, 2.909704e-002
3.484739e+003, 2.917738e-002
3.486668e+003, 2.866571e-002
3.488596e+003, 2.856819e-002
3.490525e+003, 2.859526e-002
3.492453e+003, 2.856384e-002
3.494382e+003, 2.838338e-002
3.496310e+003, 2.821819e-002
3.498239e+003, 2.787325e-002
3.500167e+003, 2.775664e-002
3.502095e+003, 2.704776e-002
3.504024e+003, 2.678692e-002
3.505952e+003, 2.645488e-002
3.507881e+003, 2.658305e-002
3.509809e+003, 2.650000e-002
3.511738e+003, 2.616196e-002
3.513666e+003, 2.604436e-002
3.515595e+003, 2.590789e-002
3.517523e+003, 2.607119e-002
3.519452e+003, 2.564542e-002
3.521380e+003, 2.597117e-002
3.523309e+003, 2.692438e-002
3.525237e+003, 2.658058e-002
3.527166e+003, 2.603368e-002
3.529094e+003, 2.703236e-002
3.531022e+003, 2.807983e-002
3.532951e+003, 2.858603e-002
3.534879e+003, 2.916622e-002
3.536808e+003, 2.938943e-002
3.538736e+003, 2.958087e-002
3.540665e+003, 3.018439e-002
3.542593e+003, 3.093786e-002
3.544522e+003, 3.153029e-002
3.546450e+003, 3.170285e-002
3.548379e+003, 3.137685e-002
3.550307e+003, 3.089499e-002
3.552236e+003, 3.011809e-002
3.554164e+003, 2.945332e-002
3.556093e+003, 2.883564e-002
3.558021e+003, 2.814370e-002
3.559949e+003, 2.760549e-002
3.561878e+003, 2.685684e-002
3.563806e+003, 2.605753e-002
3.565735e+003, 2.535422e-002
3.567663e+003, 2.438493e-002
3.569592e+003, 2.246775e-002
3.571520e+003, 2.080946e-002
3.573449e+003, 1.999816e-002
3.575377e+003, 1.906791e-002
3.577306e+003, 1.832033e-002
3.579234e+003, 1.770750e-002
3.581163e+003, 1.598937e-002
3.583091e+003, 1.465894e-002
3.585020e+003, 1.403141e-002
3.586948e+003, 1.373229e-002
3.588876e+003, 1.391179e-002
3.590805e+003, 1.344056e-002
3.592733e+003, 1.230401e-002
3.594662e+003, 1.208454e-002
3.596590e+003, 1.200740e-002
3.598519e+003, 1.200347e-002
3.600447e+003, 1.234156e-002
3.602376e+003, 1.188286e-002
3.604304e+003, 1.144990e-002
3.606233e+003, 1.212415e-002
3.608161e+003, 1.206805e-002
3.610090e+003, 1.134982e-002
3.612018e+003, 1.172199e-002
3.613947e+003, 1.204455e-002
3.615875e+003, 1.202390e-002
3.617803e+003, 1.222402e-002
3.619732e+003, 1.244614e-002
3.621660e+003, 1.332708e-002
3.623589e+003, 1.367928e-002
3.625517e+003, 1.354972e-002
3.627446e+003, 1.366223e-002
3.629374e+003, 1.408654e-002
3.631303e+003, 1.375397e-002
3.633231e+003, 1.305306e-002
3.635160e+003, 1.259548e-002
3.637088e+003, 1.219523e-002
3.639017e+003, 1.209668e-002
3.640945e+003, 1.292575e-002
3.642874e+003, 1.370086e-002
3.644802e+003, 1.306282e-002
3.646730e+003, 1.164687e-002
3.648659e+003, 1.086561e-002
3.650587e+003, 1.059938e-002
3.652516e+003, 1.068937e-002
3.654444e+003, 1.055295e-002
3.656373e+003, 1.063117e-002
3.658301e+003, 1.046419e-002
3.660230e+003, 9.903695e-003
3.662158e+003, 9.876505e-003
3.664087e+003, 1.042904e-002
3.666015e+003, 1.066241e-002
3.667944e+003, 1.025204e-002
3.669872e+003, 1.004874e-002
3.671801e+003, 1.021216e-002
3.673729e+003, 9.736490e-003
3.675657e+003, 9.580182e-003
3.677586e+003, 9.757533e-003
3.679514e+003, 9.694043e-003
3.681443e+003, 9.910659e-003
3.683371e+003, 1.011722e-002
3.685300e+003, 1.045059e-002
3.687228e+003, 9.995684e-003
3.689157e+003, 9.578166e-003
3.691085e+003, 8.833186e-003
3.693014e+003, 8.622459e-003
3.694942e+003, 9.473844e-003
3.696871e+003, 1.058067e-002
3.698799e+003, 1.043294e-002
3.700728e+003, 9.310339e-003
3.702656e+003, 9.418547e-003
3.704584e+003, 1.066795e-002
3.706513e+003, 1.056380e-002
3.708441e+003, 1.025748e-002
3.710370e+003, 1.021675e-002
3.712298e+003, 1.020320e-002
3.714227e+003, 1.029552e-002
3.716155e+003, 1.015919e-002
3.718084e+003, 1.055312e-002
3.720012e+003, 1.057046e-002
3.721941e+003, 9.642577e-003
3.723869e+003, 9.433449e-003
3.725798e+003, 1.073838e-002
3.727726e+003, 1.095615e-002
3.729655e+003, 1.055374e-002
3.731583e+003, 1.054995e-002
3.733511e+003, 1.109831e-002
3.735440e+003, 1.180139e-002
3.737368e+003, 1.190150e-002
3.739297e+003, 1.140195e-002
3.741225e+003, 1.101461e-002
3.743154e+003, 1.058800e-002
3.745082e+003, 1.058068e-002
3.747011e+003, 1.042876e-002
3.748939e+003, 1.013033e-002
3.750868e+003, 1.028433e-002
3.752796e+003, 1.071921e-002
3.754725e+003, 1.056953e-002
3.756653e+003, 1.015001e-002
3.758582e+003, 1.009278e-002
3.760510e+003, 9.706547e-003
3.762438e+003, 9.587842e-003
3.764367e+003, 9.369166e-003
3.766295e+003, 9.764546e-003
3.768224e+003, 1.033834e-002
3.770152e+003, 1.090171e-002
3.772081e+003, 1.134981e-002
3.774009e+003, 1.151096e-002
3.775938e+003, 1.125526e-002
3.777866e+003, 1.109336e-002
3.779795e+003, 1.058412e-002
3.781723e+003, 1.069076e-002
3.783652e+003, 1.183260e-002
3.785580e+003, 1.180147e-002
3.787509e+003, 1.075248e-002
3.789437e+003, 1.056938e-002
3.791365e+003, 1.041910e-002
3.793294e+003, 1.026891e-002
3.795222e+003, 1.039166e-002
3.797151e+003, 1.070940e-002
3.799079e+003, 1.087243e-002
3.801008e+003, 1.104197e-002
3.802936e+003, 1.103866e-002
3.804865e+003, 1.031882e-002
3.806793e+003, 1.049524e-002
3.808722e+003, 1.101319e-002
3.810650e+003, 1.090968e-002
3.812579e+003, 1.088389e-002
3.814507e+003, 1.058520e-002
3.816436e+003, 1.040918e-002
3.818364e+003, 1.069760e-002
3.820292e+003, 1.081470e-002
3.822221e+003, 1.059886e-002
3.824149e+003, 1.005988e-002
3.826078e+003, 1.002004e-002
3.828006e+003, 1.029751e-002
3.829935e+003, 1.096194e-002
3.831863e+003, 1.135818e-002
3.833792e+003, 1.185071e-002
3.835720e+003, 1.189403e-002
3.837649e+003, 1.124274e-002
3.839577e+003, 1.087569e-002
3.841506e+003, 1.135369e-002
3.843434e+003, 1.125603e-002
3.845363e+003, 1.062168e-002
3.847291e+003, 1.144260e-002
3.849219e+003, 1.213099e-002
3.851148e+003, 1.142898e-002
3.853076e+003, 1.029682e-002
3.855005e+003, 1.050348e-002
3.856933e+003, 1.098190e-002
3.858862e+003, 1.054354e-002
3.860790e+003, 9.568023e-003
3.862719e+003, 9.373412e-003
3.864647e+003, 1.006184e-002
3.866576e+003, 9.991836e-003
3.868504e+003, 1.037438e-002
3.870433e+003, 1.128627e-002
3.872361e+003, 1.157659e-002
3.874290e+003, 1.180442e-002
3.876218e+003, 1.145723e-002
3.878146e+003, 1.055868e-002
3.880075e+003, 1.098287e-002
3.882003e+003, 1.101796e-002
3.883932e+003, 1.046069e-002
3.885860e+003, 1.031106e-002
3.887789e+003, 1.022467e-002
3.889717e+003, 1.082993e-002
3.891646e+003, 1.117779e-002
3.893574e+003, 1.046103e-002
3.895503e+003, 1.070492e-002
3.897431e+003, 1.094727e-002
3.899360e+003, 1.060354e-002
3.901288e+003, 1.058107e-002
3.903217e+003, 1.099199e-002
3.905145e+003, 1.134100e-002
3.907073e+003, 1.092674e-002
3.909002e+003, 1.136287e-002
3.910930e+003, 1.182396e-002
3.912859e+003, 1.066079e-002
3.914787e+003, 1.035736e-002
3.916716e+003, 1.052477e-002
3.918644e+003, 1.067667e-002
3.920573e+003, 1.113977e-002
3.922501e+003, 1.085903e-002
3.924430e+003, 1.091200e-002
3.926358e+003, 1.066375e-002
3.928287e+003, 1.062393e-002
3.930215e+003, 1.078587e-002
3.932144e+003, 1.068325e-002
3.934072e+003, 1.014894e-002
3.936000e+003, 1.045383e-002
3.937929e+003, 1.046802e-002
3.939857e+003, 9.875479e-003
3.941786e+003, 1.009051e-002
3.943714e+003, 1.032023e-002
3.945643e+003, 1.010642e-002
3.947571e+003, 1.080780e-002
3.949500e+003, 1.173160e-002
3.951428e+003, 1.110772e-002
3.953357e+003, 1.077644e-002
3.955285e+003, 1.109086e-002
3.957214e+003, 1.107950e-002
3.959142e+003, 1.100291e-002
3.961071e+003, 1.084199e-002
3.962999e+003, 1.099711e-002
3.964927e+003, 1.080495e-002
3.966856e+003, 1.045140e-002
3.968784e+003, 1.038266e-002
3.970713e+003, 1.071361e-002
3.972641e+003, 1.116457e-002
3.974570e+003, 1.137984e-002
3.976498e+003, 1.112821e-002
3.978427e+003, 1.063682e-002
3.980355e+003, 1.064091e-002
3.982284e+003, 1.087272e-002
3.984212e+003, 1.072111e-002
3.986141e+003, 1.087117e-002
3.988069e+003, 1.112140e-002
3.989998e+003, 1.118360e-002
3.991926e+003, 1.130936e-002
3.993854e+003, 1.135878e-002
3.995783e+003, 1.028208e-002
3.997711e+003, 9.663546e-003
3.999640e+003, 1.079628e-002
4.001568e+003, 0.000000e+000
##END=



