##NAMES=Forsterite
##RRUFFID=R040018
##IDEAL CHEMISTRY=Mg_2_SiO_4_
##LOCALITY=Trudy's mine, San Carlos, Gila County, Arizona, USA
##OWNER=RRUFF
##SOURCE=Bob Downs
##DESCRIPTION=Green fragments from xenoliths in a basalt flow
##STATUS=The identification of this mineral has been confirmed by X-ray diffraction and chemical analysis
##URL=rruff.info/R040018
##MEASURED CHEMISTRY=(Mg_1.81_Fe_0.18_Ni_0.01_)_Î£=2_Si_1.00_O_4_; trace amounts of Mn and Ca
3.991926e+002, 0.000000e+000
4.011211e+002, 2.054871e-001
4.030496e+002, 2.064615e-001
4.049780e+002, 2.144776e-001
4.069065e+002, 2.170801e-001
4.088350e+002, 2.169690e-001
4.107634e+002, 2.198426e-001
4.126919e+002, 2.171917e-001
4.146204e+002, 2.129617e-001
4.165488e+002, 2.037424e-001
4.184773e+002, 1.974590e-001
4.204058e+002, 1.901251e-001
4.223342e+002, 1.825877e-001
4.242627e+002, 1.749195e-001
4.261912e+002, 1.656559e-001
4.281196e+002, 1.542539e-001
4.300481e+002, 1.429888e-001
4.319766e+002, 1.336429e-001
4.339050e+002, 1.270844e-001
4.358335e+002, 1.207732e-001
4.377620e+002, 1.161692e-001
4.396904e+002, 1.109456e-001
4.416189e+002, 1.064040e-001
4.435474e+002, 1.030928e-001
4.454758e+002, 1.007875e-001
4.474043e+002, 9.718789e-002
4.493328e+002, 9.244031e-002
4.512612e+002, 8.750762e-002
4.531897e+002, 8.520030e-002
4.551182e+002, 8.549939e-002
4.570466e+002, 8.661299e-002
4.589751e+002, 8.845748e-002
4.609036e+002, 9.166845e-002
4.628320e+002, 9.486162e-002
4.647605e+002, 9.756326e-002
4.666890e+002, 9.933284e-002
4.686174e+002, 1.003869e-001
4.705459e+002, 1.001804e-001
4.724744e+002, 9.840763e-002
4.744028e+002, 9.558238e-002
4.763313e+002, 9.250297e-002
4.782598e+002, 8.927901e-002
4.801882e+002, 8.706786e-002
4.821167e+002, 8.722755e-002
4.840452e+002, 9.132056e-002
4.859736e+002, 9.848949e-002
4.879021e+002, 1.078350e-001
4.898306e+002, 1.185119e-001
4.917590e+002, 1.296411e-001
4.936875e+002, 1.403155e-001
4.956160e+002, 1.502928e-001
4.975444e+002, 1.579015e-001
4.994729e+002, 1.632987e-001
5.014014e+002, 1.650635e-001
5.033298e+002, 1.628901e-001
5.052583e+002, 1.578796e-001
5.071868e+002, 1.509426e-001
5.091152e+002, 1.457373e-001
5.110437e+002, 1.430336e-001
5.129722e+002, 1.404029e-001
5.149006e+002, 1.384885e-001
5.168291e+002, 1.364564e-001
5.187576e+002, 1.348955e-001
5.206860e+002, 1.341115e-001
5.226145e+002, 1.321974e-001
5.245430e+002, 1.293768e-001
5.264714e+002, 1.245961e-001
5.283999e+002, 1.183207e-001
5.303284e+002, 1.116193e-001
5.322568e+002, 1.050452e-001
5.341853e+002, 9.924421e-002
5.361138e+002, 9.354522e-002
5.380422e+002, 8.862364e-002
5.399707e+002, 8.505215e-002
5.418992e+002, 8.216453e-002
5.438276e+002, 7.921476e-002
5.457561e+002, 7.505015e-002
5.476846e+002, 7.049964e-002
5.496130e+002, 6.529174e-002
5.515415e+002, 5.994853e-002
5.534700e+002, 5.581060e-002
5.553984e+002, 5.249809e-002
5.573269e+002, 4.877907e-002
5.592554e+002, 4.513148e-002
5.611838e+002, 4.198130e-002
5.631123e+002, 3.869685e-002
5.650408e+002, 3.573995e-002
5.669692e+002, 3.338717e-002
5.688977e+002, 3.152579e-002
5.708262e+002, 3.015401e-002
5.727546e+002, 2.890673e-002
5.746831e+002, 2.803986e-002
5.766116e+002, 2.749498e-002
5.785400e+002, 2.755644e-002
5.804685e+002, 2.784285e-002
5.823970e+002, 2.869715e-002
5.843254e+002, 3.059082e-002
5.862539e+002, 3.348560e-002
5.881824e+002, 3.738307e-002
5.901108e+002, 4.181498e-002
5.920393e+002, 4.698068e-002
5.939678e+002, 5.255320e-002
5.958962e+002, 5.765863e-002
5.978247e+002, 6.228653e-002
5.997532e+002, 6.591853e-002
6.016816e+002, 6.857274e-002
6.036101e+002, 6.998357e-002
6.055386e+002, 7.031291e-002
6.074670e+002, 6.996375e-002
6.093955e+002, 6.914975e-002
6.113240e+002, 6.759388e-002
6.132524e+002, 6.516388e-002
6.151809e+002, 6.238585e-002
6.171094e+002, 5.918704e-002
6.190378e+002, 5.586305e-002
6.209663e+002, 5.225375e-002
6.228948e+002, 4.850054e-002
6.248232e+002, 4.490870e-002
6.267517e+002, 4.117341e-002
6.286802e+002, 3.764275e-002
6.306086e+002, 3.435729e-002
6.325371e+002, 3.138664e-002
6.344656e+002, 2.882815e-002
6.363940e+002, 2.616587e-002
6.383225e+002, 2.362752e-002
6.402510e+002, 2.144002e-002
6.421794e+002, 1.971733e-002
6.441079e+002, 1.835438e-002
6.460364e+002, 1.728562e-002
6.479648e+002, 1.618836e-002
6.498933e+002, 1.532389e-002
6.518218e+002, 1.485702e-002
6.537502e+002, 1.404958e-002
6.556787e+002, 1.333443e-002
6.576072e+002, 1.296094e-002
6.595356e+002, 1.260518e-002
6.614641e+002, 1.249209e-002
6.633926e+002, 1.235774e-002
6.653210e+002, 1.222050e-002
6.672495e+002, 1.236580e-002
6.691780e+002, 1.224265e-002
6.711064e+002, 1.185812e-002
6.730349e+002, 1.177246e-002
6.749634e+002, 1.204079e-002
6.768918e+002, 1.218314e-002
6.788203e+002, 1.202311e-002
6.807488e+002, 1.176013e-002
6.826772e+002, 1.165529e-002
6.846057e+002, 1.168494e-002
6.865342e+002, 1.167568e-002
6.884626e+002, 1.181140e-002
6.903911e+002, 1.183653e-002
6.923196e+002, 1.183805e-002
6.942480e+002, 1.211663e-002
6.961765e+002, 1.220891e-002
6.981050e+002, 1.222926e-002
7.000334e+002, 1.233467e-002
7.019619e+002, 1.244441e-002
7.038904e+002, 1.255992e-002
7.058188e+002, 1.270045e-002
7.077473e+002, 1.294214e-002
7.096758e+002, 1.298199e-002
7.116042e+002, 1.312000e-002
7.135327e+002, 1.364019e-002
7.154612e+002, 1.387337e-002
7.173896e+002, 1.379276e-002
7.193181e+002, 1.418876e-002
7.212466e+002, 1.453888e-002
7.231750e+002, 1.486119e-002
7.251035e+002, 1.519741e-002
7.270320e+002, 1.540086e-002
7.289604e+002, 1.595388e-002
7.308889e+002, 1.623246e-002
7.328174e+002, 1.655793e-002
7.347458e+002, 1.701269e-002
7.366743e+002, 1.768660e-002
7.386028e+002, 1.825355e-002
7.405313e+002, 1.879552e-002
7.424597e+002, 1.953548e-002
7.443882e+002, 2.017937e-002
7.463167e+002, 2.079174e-002
7.482451e+002, 2.141380e-002
7.501736e+002, 2.193441e-002
7.521021e+002, 2.269222e-002
7.540305e+002, 2.358727e-002
7.559590e+002, 2.444940e-002
7.578875e+002, 2.510663e-002
7.598159e+002, 2.581264e-002
7.617444e+002, 2.681702e-002
7.636729e+002, 2.795022e-002
7.656013e+002, 2.900964e-002
7.675298e+002, 2.998473e-002
7.694583e+002, 3.112458e-002
7.713867e+002, 3.242770e-002
7.733152e+002, 3.382134e-002
7.752437e+002, 3.532747e-002
7.771721e+002, 3.695010e-002
7.791006e+002, 3.868625e-002
7.810291e+002, 4.034973e-002
7.829575e+002, 4.220432e-002
7.848860e+002, 4.428454e-002
7.868145e+002, 4.621306e-002
7.887429e+002, 4.830871e-002
7.906714e+002, 5.065061e-002
7.925999e+002, 5.319635e-002
7.945283e+002, 5.579986e-002
7.964568e+002, 5.859366e-002
7.983853e+002, 6.137912e-002
8.003137e+002, 6.433978e-002
8.022422e+002, 6.743279e-002
8.041707e+002, 7.067195e-002
8.060991e+002, 7.439126e-002
8.080276e+002, 7.843994e-002
8.099561e+002, 8.239533e-002
8.118845e+002, 8.621864e-002
8.138130e+002, 9.006101e-002
8.157415e+002, 9.442472e-002
8.176699e+002, 9.943663e-002
8.195984e+002, 1.043596e-001
8.215269e+002, 1.092381e-001
8.234553e+002, 1.148511e-001
8.253838e+002, 1.207991e-001
8.273123e+002, 1.269928e-001
8.292407e+002, 1.334067e-001
8.311692e+002, 1.393882e-001
8.330977e+002, 1.449506e-001
8.350261e+002, 1.496032e-001
8.369546e+002, 1.521839e-001
8.388831e+002, 1.511356e-001
8.408115e+002, 1.464046e-001
8.427400e+002, 1.398587e-001
8.446685e+002, 1.347242e-001
8.465969e+002, 1.335899e-001
8.485254e+002, 1.369826e-001
8.504539e+002, 1.432525e-001
8.523823e+002, 1.502609e-001
8.543108e+002, 1.573021e-001
8.562393e+002, 1.645826e-001
8.581677e+002, 1.718504e-001
8.600962e+002, 1.790273e-001
8.620247e+002, 1.861435e-001
8.639531e+002, 1.932389e-001
8.658816e+002, 1.997226e-001
8.678101e+002, 2.054240e-001
8.697385e+002, 2.103295e-001
8.716670e+002, 2.140408e-001
8.735955e+002, 2.168084e-001
8.755239e+002, 2.191410e-001
8.774524e+002, 2.203347e-001
8.793809e+002, 2.206976e-001
8.813093e+002, 2.202875e-001
8.832378e+002, 2.188331e-001
8.851663e+002, 2.157441e-001
8.870947e+002, 2.114930e-001
8.890232e+002, 2.068171e-001
8.909517e+002, 2.021582e-001
8.928801e+002, 1.972298e-001
8.948085e+002, 1.919478e-001
8.967370e+002, 1.867370e-001
8.986655e+002, 1.814603e-001
9.005939e+002, 1.762940e-001
9.025224e+002, 1.717937e-001
9.044509e+002, 1.673270e-001
9.063793e+002, 1.626430e-001
9.083078e+002, 1.581645e-001
9.102363e+002, 1.540206e-001
9.121647e+002, 1.502252e-001
9.140932e+002, 1.464442e-001
9.160217e+002, 1.428246e-001
9.179501e+002, 1.393447e-001
9.198786e+002, 1.360339e-001
9.218071e+002, 1.329286e-001
9.237355e+002, 1.300758e-001
9.256640e+002, 1.271238e-001
9.275925e+002, 1.241854e-001
9.295209e+002, 1.213962e-001
9.314494e+002, 1.185349e-001
9.333779e+002, 1.159815e-001
9.353063e+002, 1.136952e-001
9.372348e+002, 1.112710e-001
9.391633e+002, 1.091123e-001
9.410917e+002, 1.074297e-001
9.430202e+002, 1.055776e-001
9.449487e+002, 1.038822e-001
9.468771e+002, 1.026931e-001
9.488056e+002, 1.015493e-001
9.507341e+002, 9.997610e-002
9.526625e+002, 9.761595e-002
9.545910e+002, 9.302474e-002
9.565195e+002, 8.557964e-002
9.584479e+002, 7.671355e-002
9.603764e+002, 7.042810e-002
9.623049e+002, 6.884525e-002
9.642333e+002, 7.049941e-002
9.661618e+002, 7.364091e-002
9.680903e+002, 7.778715e-002
9.700187e+002, 8.253254e-002
9.719472e+002, 8.752510e-002
9.738757e+002, 9.240060e-002
9.758041e+002, 9.706373e-002
9.777326e+002, 1.007488e-001
9.796611e+002, 1.022276e-001
9.815895e+002, 1.005520e-001
9.835180e+002, 9.615686e-002
9.854465e+002, 9.083488e-002
9.873749e+002, 8.621696e-002
9.893034e+002, 8.334216e-002
9.912319e+002, 8.193941e-002
9.931603e+002, 8.089847e-002
9.950888e+002, 8.021955e-002
9.970173e+002, 7.946211e-002
9.989457e+002, 7.871976e-002
1.000874e+003, 7.792629e-002
1.002803e+003, 7.688981e-002
1.004731e+003, 7.538750e-002
1.006660e+003, 7.345861e-002
1.008588e+003, 7.144273e-002
1.010517e+003, 6.934956e-002
1.012445e+003, 6.734194e-002
1.014373e+003, 6.510271e-002
1.016302e+003, 6.246064e-002
1.018230e+003, 5.998880e-002
1.020159e+003, 5.769503e-002
1.022087e+003, 5.520752e-002
1.024016e+003, 5.246261e-002
1.025944e+003, 4.974511e-002
1.027873e+003, 4.709002e-002
1.029801e+003, 4.452889e-002
1.031730e+003, 4.208853e-002
1.033658e+003, 3.967307e-002
1.035587e+003, 3.708822e-002
1.037515e+003, 3.454429e-002
1.039444e+003, 3.212138e-002
1.041372e+003, 2.980464e-002
1.043301e+003, 2.768290e-002
1.045229e+003, 2.568330e-002
1.047157e+003, 2.366641e-002
1.049086e+003, 2.174046e-002
1.051014e+003, 1.994370e-002
1.052943e+003, 1.835631e-002
1.054871e+003, 1.683959e-002
1.056800e+003, 1.521878e-002
1.058728e+003, 1.375897e-002
1.060657e+003, 1.247618e-002
1.062585e+003, 1.112558e-002
1.064514e+003, 9.913258e-003
1.066442e+003, 8.941472e-003
1.068371e+003, 8.095396e-003
1.070299e+003, 7.196033e-003
1.072228e+003, 6.451109e-003
1.074156e+003, 5.871599e-003
1.076084e+003, 5.566336e-003
1.078013e+003, 5.218038e-003
1.079941e+003, 4.830355e-003
1.081870e+003, 4.649925e-003
1.083798e+003, 4.298516e-003
1.085727e+003, 4.017317e-003
1.087655e+003, 4.031172e-003
1.089584e+003, 3.908335e-003
1.091512e+003, 3.710056e-003
1.093441e+003, 3.513354e-003
1.095369e+003, 3.300567e-003
1.097298e+003, 3.252422e-003
1.099226e+003, 3.144997e-003
1.101155e+003, 2.892619e-003
1.103083e+003, 2.702889e-003
1.105011e+003, 2.609580e-003
1.106940e+003, 2.467393e-003
1.108868e+003, 2.407186e-003
1.110797e+003, 2.398807e-003
1.112725e+003, 2.239841e-003
1.114654e+003, 2.076004e-003
1.116582e+003, 2.040392e-003
1.118511e+003, 2.031853e-003
1.120439e+003, 2.007565e-003
1.122368e+003, 1.950120e-003
1.124296e+003, 1.852837e-003
1.126225e+003, 1.864022e-003
1.128153e+003, 1.750763e-003
1.130082e+003, 1.577711e-003
1.132010e+003, 1.528490e-003
1.133938e+003, 1.514532e-003
1.135867e+003, 1.542395e-003
1.137795e+003, 1.407520e-003
1.139724e+003, 1.201926e-003
1.141652e+003, 1.131141e-003
1.143581e+003, 1.104384e-003
1.145509e+003, 1.140231e-003
1.147438e+003, 1.024627e-003
1.149366e+003, 1.121569e-003
1.151295e+003, 1.291995e-003
1.153223e+003, 1.078077e-003
1.155152e+003, 9.261908e-004
1.157080e+003, 9.491224e-004
1.159009e+003, 1.013138e-003
1.160937e+003, 1.054460e-003
1.162865e+003, 9.610421e-004
1.164794e+003, 9.879518e-004
1.166722e+003, 1.039492e-003
1.168651e+003, 1.067552e-003
1.170579e+003, 1.120907e-003
1.172508e+003, 1.200230e-003
1.174436e+003, 1.058900e-003
1.176365e+003, 9.457782e-004
1.178293e+003, 8.564296e-004
1.180222e+003, 9.729735e-004
1.182150e+003, 1.150511e-003
1.184079e+003, 1.040356e-003
1.186007e+003, 9.682105e-004
1.187936e+003, 1.033474e-003
1.189864e+003, 1.091278e-003
1.191792e+003, 1.230367e-003
1.193721e+003, 1.243300e-003
1.195649e+003, 1.185168e-003
1.197578e+003, 1.230921e-003
1.199506e+003, 1.168426e-003
1.201435e+003, 1.171338e-003
1.203363e+003, 1.216028e-003
1.205292e+003, 1.211272e-003
1.207220e+003, 1.224866e-003
1.209149e+003, 1.089868e-003
1.211077e+003, 1.099162e-003
1.213006e+003, 1.121120e-003
1.214934e+003, 1.167636e-003
1.216863e+003, 1.251041e-003
1.218791e+003, 1.312594e-003
1.220719e+003, 1.311295e-003
1.222648e+003, 1.270512e-003
1.224576e+003, 1.174076e-003
1.226505e+003, 1.293449e-003
1.228433e+003, 1.478544e-003
1.230362e+003, 1.453440e-003
1.232290e+003, 1.328412e-003
1.234219e+003, 1.275049e-003
1.236147e+003, 1.391517e-003
1.238076e+003, 1.429094e-003
1.240004e+003, 1.350654e-003
1.241933e+003, 1.379512e-003
1.243861e+003, 1.455982e-003
1.245790e+003, 1.308779e-003
1.247718e+003, 1.211094e-003
1.249646e+003, 1.137633e-003
1.251575e+003, 1.116812e-003
1.253503e+003, 1.141676e-003
1.255432e+003, 1.219711e-003
1.257360e+003, 1.347044e-003
1.259289e+003, 1.297818e-003
1.261217e+003, 1.226024e-003
1.263146e+003, 1.222636e-003
1.265074e+003, 1.326418e-003
1.267003e+003, 1.473157e-003
1.268931e+003, 1.420815e-003
1.270860e+003, 1.509405e-003
1.272788e+003, 1.606179e-003
1.274717e+003, 1.548122e-003
1.276645e+003, 1.507619e-003
1.278573e+003, 1.652225e-003
1.280502e+003, 1.793220e-003
1.282430e+003, 1.732483e-003
1.284359e+003, 1.675504e-003
1.286287e+003, 1.690324e-003
1.288216e+003, 1.697417e-003
1.290144e+003, 1.779611e-003
1.292073e+003, 1.656104e-003
1.294001e+003, 1.533772e-003
1.295930e+003, 1.591932e-003
1.297858e+003, 1.527755e-003
1.299787e+003, 1.745263e-003
1.301715e+003, 1.950527e-003
1.303644e+003, 1.875257e-003
1.305572e+003, 1.794446e-003
1.307500e+003, 1.914725e-003
1.309429e+003, 1.979105e-003
1.311357e+003, 1.935111e-003
1.313286e+003, 1.930986e-003
1.315214e+003, 2.024563e-003
1.317143e+003, 2.042360e-003
1.319071e+003, 2.108892e-003
1.321000e+003, 2.155738e-003
1.322928e+003, 2.214025e-003
1.324857e+003, 2.295630e-003
1.326785e+003, 2.331144e-003
1.328714e+003, 2.296796e-003
1.330642e+003, 2.374608e-003
1.332571e+003, 2.495901e-003
1.334499e+003, 2.547357e-003
1.336427e+003, 2.479389e-003
1.338356e+003, 2.448466e-003
1.340284e+003, 2.521648e-003
1.342213e+003, 2.532524e-003
1.344141e+003, 2.459303e-003
1.346070e+003, 2.495080e-003
1.347998e+003, 2.679779e-003
1.349927e+003, 2.756153e-003
1.351855e+003, 2.748663e-003
1.353784e+003, 2.741972e-003
1.355712e+003, 2.691959e-003
1.357641e+003, 2.613232e-003
1.359569e+003, 2.556430e-003
1.361498e+003, 2.788509e-003
1.363426e+003, 3.068117e-003
1.365354e+003, 2.953716e-003
1.367283e+003, 2.791379e-003
1.369211e+003, 2.880896e-003
1.371140e+003, 3.002550e-003
1.373068e+003, 3.251131e-003
1.374997e+003, 3.420691e-003
1.376925e+003, 3.410981e-003
1.378854e+003, 3.294234e-003
1.380782e+003, 3.247800e-003
1.382711e+003, 3.335980e-003
1.384639e+003, 3.435032e-003
1.386568e+003, 3.625434e-003
1.388496e+003, 3.842482e-003
1.390424e+003, 3.821904e-003
1.392353e+003, 3.791588e-003
1.394281e+003, 3.810836e-003
1.396210e+003, 3.968989e-003
1.398138e+003, 4.114745e-003
1.400067e+003, 4.063106e-003
1.401995e+003, 4.095284e-003
1.403924e+003, 4.304375e-003
1.405852e+003, 4.497159e-003
1.407781e+003, 4.717282e-003
1.409709e+003, 5.012580e-003
1.411638e+003, 5.096345e-003
1.413566e+003, 5.132579e-003
1.415495e+003, 5.288481e-003
1.417423e+003, 5.303158e-003
1.419351e+003, 5.504935e-003
1.421280e+003, 5.657404e-003
1.423208e+003, 5.485771e-003
1.425137e+003, 5.512718e-003
1.427065e+003, 5.610215e-003
1.428994e+003, 5.847709e-003
1.430922e+003, 5.803667e-003
1.432851e+003, 5.708740e-003
1.434779e+003, 5.763984e-003
1.436708e+003, 5.835107e-003
1.438636e+003, 5.882115e-003
1.440565e+003, 5.964613e-003
1.442493e+003, 6.008342e-003
1.444422e+003, 6.160136e-003
1.446350e+003, 6.193765e-003
1.448278e+003, 6.153427e-003
1.450207e+003, 6.204008e-003
1.452135e+003, 6.195318e-003
1.454064e+003, 6.259463e-003
1.455992e+003, 6.257032e-003
1.457921e+003, 6.242756e-003
1.459849e+003, 6.111952e-003
1.461778e+003, 6.018256e-003
1.463706e+003, 6.076204e-003
1.465635e+003, 6.005880e-003
1.467563e+003, 5.978346e-003
1.469492e+003, 6.047785e-003
1.471420e+003, 5.963084e-003
1.473349e+003, 5.976152e-003
1.475277e+003, 5.960174e-003
1.477205e+003, 5.844458e-003
1.479134e+003, 5.692549e-003
1.481062e+003, 5.728167e-003
1.482991e+003, 5.761604e-003
1.484919e+003, 5.782024e-003
1.486848e+003, 5.669564e-003
1.488776e+003, 5.461768e-003
1.490705e+003, 5.250635e-003
1.492633e+003, 5.128691e-003
1.494562e+003, 5.064599e-003
1.496490e+003, 5.125924e-003
1.498419e+003, 5.123363e-003
1.500347e+003, 5.046033e-003
1.502276e+003, 5.031423e-003
1.504204e+003, 4.975249e-003
1.506132e+003, 4.817405e-003
1.508061e+003, 4.772383e-003
1.509989e+003, 4.698997e-003
1.511918e+003, 4.723947e-003
1.513846e+003, 4.703181e-003
1.515775e+003, 4.690408e-003
1.517703e+003, 4.745434e-003
1.519632e+003, 4.739724e-003
1.521560e+003, 4.648489e-003
1.523489e+003, 4.594231e-003
1.525417e+003, 4.478547e-003
1.527346e+003, 4.537270e-003
1.529274e+003, 4.551316e-003
1.531203e+003, 4.407045e-003
1.533131e+003, 4.315450e-003
1.535059e+003, 4.322420e-003
1.536988e+003, 4.429100e-003
1.538916e+003, 4.448506e-003
1.540845e+003, 4.644785e-003
1.542773e+003, 4.681555e-003
1.544702e+003, 4.590046e-003
1.546630e+003, 4.430890e-003
1.548559e+003, 4.511673e-003
1.550487e+003, 4.708154e-003
1.552416e+003, 4.599846e-003
1.554344e+003, 4.575471e-003
1.556273e+003, 4.624212e-003
1.558201e+003, 4.810774e-003
1.560130e+003, 4.963107e-003
1.562058e+003, 4.763594e-003
1.563986e+003, 4.682957e-003
1.565915e+003, 4.870028e-003
1.567843e+003, 4.941200e-003
1.569772e+003, 5.034236e-003
1.571700e+003, 5.221003e-003
1.573629e+003, 5.367984e-003
1.575557e+003, 5.291004e-003
1.577486e+003, 5.290784e-003
1.579414e+003, 5.310277e-003
1.581343e+003, 5.107354e-003
1.583271e+003, 4.872221e-003
1.585200e+003, 5.099171e-003
1.587128e+003, 5.337793e-003
1.589057e+003, 5.344762e-003
1.590985e+003, 5.324823e-003
1.592913e+003, 5.231061e-003
1.594842e+003, 5.293665e-003
1.596770e+003, 5.514359e-003
1.598699e+003, 5.455365e-003
1.600627e+003, 5.150201e-003
1.602556e+003, 5.142728e-003
1.604484e+003, 5.330052e-003
1.606413e+003, 5.250632e-003
1.608341e+003, 5.172247e-003
1.610270e+003, 5.478658e-003
1.612198e+003, 5.465470e-003
1.614127e+003, 5.323717e-003
1.616055e+003, 5.196224e-003
1.617984e+003, 4.934852e-003
1.619912e+003, 4.909482e-003
1.621840e+003, 4.967730e-003
1.623769e+003, 4.976805e-003
1.625697e+003, 4.858793e-003
1.627626e+003, 4.921546e-003
1.629554e+003, 5.060490e-003
1.631483e+003, 5.127515e-003
1.633411e+003, 4.918442e-003
1.635340e+003, 4.681034e-003
1.637268e+003, 4.783482e-003
1.639197e+003, 4.737601e-003
1.641125e+003, 4.627429e-003
1.643054e+003, 4.762017e-003
1.644982e+003, 4.747281e-003
1.646911e+003, 4.651390e-003
1.648839e+003, 4.502256e-003
1.650767e+003, 4.521076e-003
1.652696e+003, 4.668336e-003
1.654624e+003, 4.796802e-003
1.656553e+003, 4.622182e-003
1.658481e+003, 4.222909e-003
1.660410e+003, 4.151746e-003
1.662338e+003, 4.368179e-003
1.664267e+003, 4.480356e-003
1.666195e+003, 4.531186e-003
1.668124e+003, 4.659517e-003
1.670052e+003, 4.552722e-003
1.671981e+003, 4.457323e-003
1.673909e+003, 4.394414e-003
1.675838e+003, 4.211059e-003
1.677766e+003, 4.138634e-003
1.679694e+003, 4.444398e-003
1.681623e+003, 4.380943e-003
1.683551e+003, 4.229802e-003
1.685480e+003, 4.086257e-003
1.687408e+003, 3.939467e-003
1.689337e+003, 4.158976e-003
1.691265e+003, 4.131202e-003
1.693194e+003, 4.042651e-003
1.695122e+003, 4.132833e-003
1.697051e+003, 4.266133e-003
1.698979e+003, 4.339352e-003
1.700908e+003, 4.512576e-003
1.702836e+003, 4.291987e-003
1.704765e+003, 3.960334e-003
1.706693e+003, 3.971339e-003
1.708621e+003, 4.220488e-003
1.710550e+003, 4.031670e-003
1.712478e+003, 3.655516e-003
1.714407e+003, 3.814067e-003
1.716335e+003, 3.876949e-003
1.718264e+003, 3.834259e-003
1.720192e+003, 3.844058e-003
1.722121e+003, 3.929546e-003
1.724049e+003, 4.088684e-003
1.725978e+003, 4.062354e-003
1.727906e+003, 3.646389e-003
1.729835e+003, 3.317121e-003
1.731763e+003, 3.313291e-003
1.733692e+003, 3.625107e-003
1.735620e+003, 3.640026e-003
1.737548e+003, 3.382846e-003
1.739477e+003, 3.247216e-003
1.741405e+003, 3.223221e-003
1.743334e+003, 3.240804e-003
1.745262e+003, 3.149098e-003
1.747191e+003, 3.332515e-003
1.749119e+003, 3.752033e-003
1.751048e+003, 3.603628e-003
1.752976e+003, 3.227561e-003
1.754905e+003, 3.348274e-003
1.756833e+003, 3.660314e-003
1.758762e+003, 3.730977e-003
1.760690e+003, 3.690937e-003
1.762619e+003, 3.941208e-003
1.764547e+003, 4.104396e-003
1.766475e+003, 3.942942e-003
1.768404e+003, 4.011420e-003
1.770332e+003, 4.199100e-003
1.772261e+003, 4.237534e-003
1.774189e+003, 4.222244e-003
1.776118e+003, 4.054201e-003
1.778046e+003, 4.201793e-003
1.779975e+003, 4.320722e-003
1.781903e+003, 4.393531e-003
1.783832e+003, 4.156244e-003
1.785760e+003, 4.058633e-003
1.787689e+003, 4.125037e-003
1.789617e+003, 3.977337e-003
1.791546e+003, 3.593017e-003
1.793474e+003, 3.230437e-003
1.795402e+003, 3.100462e-003
1.797331e+003, 3.198016e-003
1.799259e+003, 3.217545e-003
1.801188e+003, 3.349918e-003
1.803116e+003, 3.484006e-003
1.805045e+003, 3.296016e-003
1.806973e+003, 3.510633e-003
1.808902e+003, 3.739749e-003
1.810830e+003, 3.448551e-003
1.812759e+003, 3.301648e-003
1.814687e+003, 3.309066e-003
1.816616e+003, 3.357065e-003
1.818544e+003, 3.560847e-003
1.820473e+003, 3.643923e-003
1.822401e+003, 3.827762e-003
1.824329e+003, 3.674432e-003
1.826258e+003, 3.578607e-003
1.828186e+003, 3.840387e-003
1.830115e+003, 3.848233e-003
1.832043e+003, 3.642839e-003
1.833972e+003, 3.744100e-003
1.835900e+003, 3.691127e-003
1.837829e+003, 3.633575e-003
1.839757e+003, 3.868977e-003
1.841686e+003, 3.683252e-003
1.843614e+003, 3.493271e-003
1.845543e+003, 3.658353e-003
1.847471e+003, 3.423694e-003
1.849400e+003, 3.112698e-003
1.851328e+003, 3.488080e-003
1.853256e+003, 3.697528e-003
1.855185e+003, 3.199849e-003
1.857113e+003, 3.331361e-003
1.859042e+003, 3.546054e-003
1.860970e+003, 3.398744e-003
1.862899e+003, 3.528746e-003
1.864827e+003, 3.054454e-003
1.866756e+003, 2.797455e-003
1.868684e+003, 3.181023e-003
1.870613e+003, 3.565130e-003
1.872541e+003, 3.185010e-003
1.874470e+003, 2.957550e-003
1.876398e+003, 3.253111e-003
1.878327e+003, 3.301495e-003
1.880255e+003, 3.352666e-003
1.882183e+003, 3.914895e-003
1.884112e+003, 3.489794e-003
1.886040e+003, 3.080452e-003
1.887969e+003, 3.396587e-003
1.889897e+003, 3.520204e-003
1.891826e+003, 3.860048e-003
1.893754e+003, 3.615730e-003
1.895683e+003, 3.055592e-003
1.897611e+003, 2.984057e-003
1.899540e+003, 3.028228e-003
1.901468e+003, 2.868591e-003
1.903397e+003, 3.048905e-003
1.905325e+003, 3.327567e-003
1.907254e+003, 3.556298e-003
1.909182e+003, 3.782102e-003
1.911110e+003, 3.911080e-003
1.913039e+003, 4.025210e-003
1.914967e+003, 3.979072e-003
1.916896e+003, 4.148212e-003
1.918824e+003, 3.889342e-003
1.920753e+003, 3.284355e-003
1.922681e+003, 3.012228e-003
1.924610e+003, 3.626255e-003
1.926538e+003, 3.269989e-003
1.928467e+003, 2.532794e-003
1.930395e+003, 1.902520e-003
1.932324e+003, 1.945734e-003
1.934252e+003, 2.717098e-003
1.936181e+003, 2.351261e-003
1.938109e+003, 1.632637e-003
1.940037e+003, 1.452705e-003
1.941966e+003, 9.157535e-004
1.943894e+003, 1.165665e-003
1.945823e+003, 1.344170e-003
1.947751e+003, 1.224832e-003
1.949680e+003, 1.257870e-003
1.951608e+003, 1.945395e-003
1.953537e+003, 1.425800e-003
1.955465e+003, 8.363537e-004
1.957394e+003, 3.477351e-004
1.959322e+003, -7.001460e-004
1.961251e+003, 7.060045e-005
1.963179e+003, 1.193470e-003
1.965108e+003, 1.774141e-003
1.967036e+003, 1.556984e-003
1.968964e+003, 1.115751e-003
1.970893e+003, 7.317385e-004
1.972821e+003, 1.369796e-003
1.974750e+003, 1.154038e-003
1.976678e+003, 4.768283e-004
1.978607e+003, 2.006467e-003
1.980535e+003, 2.726540e-003
1.982464e+003, 1.742127e-003
1.984392e+003, 9.948314e-004
1.986321e+003, 1.380786e-003
1.988249e+003, 2.915757e-003
1.990178e+003, 2.635830e-003
1.992106e+003, 2.122281e-003
1.994035e+003, 1.161092e-003
1.995963e+003, 6.991246e-004
1.997891e+003, 8.005285e-004
1.999820e+003, 7.467464e-004
2.001748e+003, 7.355167e-004
2.003677e+003, 1.188787e-003
2.005605e+003, 3.304205e-004
2.007534e+003, 6.902483e-004
2.009462e+003, 1.386096e-003
2.011391e+003, 2.305721e-003
2.013319e+003, 2.427853e-003
2.015248e+003, 1.114416e-003
2.017176e+003, 1.532242e-003
2.019105e+003, 3.279330e-003
2.021033e+003, 3.769592e-003
2.022962e+003, 1.818891e-003
2.024890e+003, -2.968580e-004
2.026818e+003, 2.266856e-004
2.028747e+003, -2.519693e-004
2.030675e+003, 8.978980e-005
2.032604e+003, 1.278054e-003
2.034532e+003, 2.303347e-003
2.036461e+003, 2.784094e-003
2.038389e+003, 3.338922e-003
2.040318e+003, 2.773135e-003
2.042246e+003, 1.839250e-003
2.044175e+003, 2.934883e-003
2.046103e+003, 3.637515e-003
2.048032e+003, 3.422598e-003
2.049960e+003, 3.936775e-003
2.051889e+003, 3.204543e-003
2.053817e+003, 2.245971e-003
2.055746e+003, 2.896083e-003
2.057674e+003, 2.985302e-003
2.059603e+003, 2.871732e-003
2.061531e+003, 3.363269e-003
2.063459e+003, 3.313522e-003
2.065388e+003, 3.509966e-003
2.067316e+003, 4.546301e-003
2.069245e+003, 4.605752e-003
2.071173e+003, 4.610006e-003
2.073102e+003, 4.142726e-003
2.075030e+003, 3.385769e-003
2.076959e+003, 3.021784e-003
2.078887e+003, 3.488337e-003
2.080816e+003, 4.950614e-003
2.082744e+003, 5.649561e-003
2.084673e+003, 5.537330e-003
2.086601e+003, 5.522022e-003
2.088530e+003, 4.545295e-003
2.090458e+003, 4.037760e-003
2.092386e+003, 4.223186e-003
2.094315e+003, 4.211882e-003
2.096243e+003, 3.138247e-003
2.098172e+003, 2.800547e-003
2.100100e+003, 3.917969e-003
2.102029e+003, 4.981744e-003
2.103957e+003, 5.412445e-003
2.105886e+003, 5.665268e-003
2.107814e+003, 5.540723e-003
2.109743e+003, 5.446803e-003
2.111671e+003, 5.427401e-003
2.113600e+003, 5.147957e-003
2.115528e+003, 5.462848e-003
2.117457e+003, 5.770527e-003
2.119385e+003, 4.550931e-003
2.121313e+003, 3.891500e-003
2.123242e+003, 4.187587e-003
2.125170e+003, 4.819245e-003
2.127099e+003, 4.419553e-003
2.129027e+003, 3.812577e-003
2.130956e+003, 4.103675e-003
2.132884e+003, 4.761097e-003
2.134813e+003, 5.495577e-003
2.136741e+003, 5.533999e-003
2.138670e+003, 4.678660e-003
2.140598e+003, 4.025999e-003
2.142527e+003, 2.798205e-003
2.144455e+003, 1.569453e-003
2.146384e+003, 8.998724e-004
2.148312e+003, 1.705986e-003
2.150240e+003, 2.083476e-003
2.152169e+003, 1.410198e-003
2.154097e+003, 2.716586e-004
2.156026e+003, 2.348437e-004
2.157954e+003, 2.448680e-003
2.159883e+003, 5.760070e-003
2.161811e+003, 4.705864e-003
2.163740e+003, 2.326344e-003
2.165668e+003, 1.842247e-003
2.167597e+003, 4.774917e-003
2.169525e+003, 5.360883e-003
2.171454e+003, 4.342239e-003
2.173382e+003, 4.575718e-003
2.175311e+003, 4.593167e-003
2.177239e+003, 4.485895e-003
2.179167e+003, 5.789056e-003
2.181096e+003, 6.144151e-003
2.183024e+003, 4.603246e-003
2.184953e+003, 4.462110e-003
2.186881e+003, 5.234106e-003
2.188810e+003, 5.033090e-003
2.190738e+003, 5.433134e-003
2.192667e+003, 5.120370e-003
2.194595e+003, 5.815887e-003
2.196524e+003, 6.289168e-003
2.198452e+003, 5.356969e-003
2.200381e+003, 4.735583e-003
2.202309e+003, 4.535546e-003
2.204238e+003, 4.938137e-003
2.206166e+003, 5.308978e-003
2.208094e+003, 5.847560e-003
2.210023e+003, 5.325456e-003
2.211951e+003, 4.302479e-003
2.213880e+003, 4.767585e-003
2.215808e+003, 4.894923e-003
2.217737e+003, 4.729735e-003
2.219665e+003, 5.123946e-003
2.221594e+003, 4.622900e-003
2.223522e+003, 4.660105e-003
2.225451e+003, 6.080742e-003
2.227379e+003, 7.150545e-003
2.229308e+003, 5.968766e-003
2.231236e+003, 4.137678e-003
2.233165e+003, 5.255187e-003
2.235093e+003, 6.981662e-003
2.237021e+003, 7.179565e-003
2.238950e+003, 5.798726e-003
2.240878e+003, 5.333892e-003
2.242807e+003, 5.701821e-003
2.244735e+003, 4.992467e-003
2.246664e+003, 4.437974e-003
2.248592e+003, 5.001061e-003
2.250521e+003, 5.271606e-003
2.252449e+003, 5.612889e-003
2.254378e+003, 6.668740e-003
2.256306e+003, 6.645535e-003
2.258235e+003, 6.431955e-003
2.260163e+003, 5.913028e-003
2.262092e+003, 5.616355e-003
2.264020e+003, 6.441847e-003
2.265948e+003, 7.233286e-003
2.267877e+003, 6.367758e-003
2.269805e+003, 6.007572e-003
2.271734e+003, 5.340640e-003
2.273662e+003, 5.010506e-003
2.275591e+003, 6.479064e-003
2.277519e+003, 7.734353e-003
2.279448e+003, 7.615586e-003
2.281376e+003, 6.367443e-003
2.283305e+003, 6.130759e-003
2.285233e+003, 6.567978e-003
2.287162e+003, 6.622755e-003
2.289090e+003, 7.068067e-003
2.291019e+003, 7.456537e-003
2.292947e+003, 6.331659e-003
2.294875e+003, 5.737658e-003
2.296804e+003, 6.490203e-003
2.298732e+003, 7.022737e-003
2.300661e+003, 6.736118e-003
2.302589e+003, 6.410558e-003
2.304518e+003, 6.723969e-003
2.306446e+003, 7.192247e-003
2.308375e+003, 7.444600e-003
2.310303e+003, 7.380923e-003
2.312232e+003, 7.065213e-003
2.314160e+003, 7.112312e-003
2.316089e+003, 7.564563e-003
2.318017e+003, 7.451297e-003
2.319946e+003, 7.958337e-003
2.321874e+003, 8.785107e-003
2.323802e+003, 8.320251e-003
2.325731e+003, 7.227354e-003
2.327659e+003, 6.876935e-003
2.329588e+003, 6.818908e-003
2.331516e+003, 6.871840e-003
2.333445e+003, 6.577921e-003
2.335373e+003, 6.221900e-003
2.337302e+003, 6.381880e-003
2.339230e+003, 6.422899e-003
2.341159e+003, 6.721169e-003
2.343087e+003, 6.954098e-003
2.345016e+003, 6.488853e-003
2.346944e+003, 6.592435e-003
2.348873e+003, 6.621693e-003
2.350801e+003, 6.546927e-003
2.352729e+003, 6.523357e-003
2.354658e+003, 6.894272e-003
2.356586e+003, 6.797771e-003
2.358515e+003, 6.154416e-003
2.360443e+003, 6.137529e-003
2.362372e+003, 6.294898e-003
2.364300e+003, 6.320499e-003
2.366229e+003, 6.049219e-003
2.368157e+003, 5.757176e-003
2.370086e+003, 5.918680e-003
2.372014e+003, 5.758491e-003
2.373942e+003, 5.842268e-003
2.375871e+003, 6.934801e-003
2.377799e+003, 6.733266e-003
2.379728e+003, 5.918652e-003
2.381656e+003, 6.437440e-003
2.383585e+003, 7.235292e-003
2.385513e+003, 6.992220e-003
2.387442e+003, 6.572911e-003
2.389370e+003, 6.382982e-003
2.391299e+003, 6.932531e-003
2.393227e+003, 6.850784e-003
2.395156e+003, 6.401787e-003
2.397084e+003, 5.994832e-003
2.399012e+003, 5.664654e-003
2.400941e+003, 5.804356e-003
2.402869e+003, 6.097848e-003
2.404798e+003, 6.146075e-003
2.406726e+003, 6.610239e-003
2.408655e+003, 6.758229e-003
2.410583e+003, 6.340003e-003
2.412512e+003, 6.613510e-003
2.414440e+003, 6.662599e-003
2.416369e+003, 6.096691e-003
2.418297e+003, 6.172728e-003
2.420226e+003, 6.784477e-003
2.422154e+003, 6.469995e-003
2.424083e+003, 6.205641e-003
2.426011e+003, 6.111132e-003
2.427939e+003, 6.109177e-003
2.429868e+003, 6.382578e-003
2.431796e+003, 6.655085e-003
2.433725e+003, 6.797482e-003
2.435653e+003, 6.820607e-003
2.437582e+003, 7.164655e-003
2.439510e+003, 7.981150e-003
2.441439e+003, 8.353191e-003
2.443367e+003, 7.379165e-003
2.445296e+003, 6.336487e-003
2.447224e+003, 6.125323e-003
2.449153e+003, 6.901787e-003
2.451081e+003, 7.243705e-003
2.453010e+003, 6.525357e-003
2.454938e+003, 6.263835e-003
2.456866e+003, 6.722057e-003
2.458795e+003, 6.484704e-003
2.460723e+003, 6.327896e-003
2.462652e+003, 6.241744e-003
2.464580e+003, 6.435093e-003
2.466509e+003, 6.513985e-003
2.468437e+003, 6.339990e-003
2.470366e+003, 6.139521e-003
2.472294e+003, 5.987202e-003
2.474223e+003, 6.309369e-003
2.476151e+003, 6.355890e-003
2.478080e+003, 6.232548e-003
2.480008e+003, 6.281015e-003
2.481937e+003, 6.578216e-003
2.483865e+003, 7.191109e-003
2.485793e+003, 6.948855e-003
2.487722e+003, 6.046010e-003
2.489650e+003, 6.233279e-003
2.491579e+003, 7.274102e-003
2.493507e+003, 6.922579e-003
2.495436e+003, 6.091844e-003
2.497364e+003, 5.939467e-003
2.499293e+003, 6.543566e-003
2.501221e+003, 6.457239e-003
2.503150e+003, 5.739322e-003
2.505078e+003, 5.967208e-003
2.507007e+003, 6.730521e-003
2.508935e+003, 6.968917e-003
2.510864e+003, 6.429297e-003
2.512792e+003, 5.884699e-003
2.514720e+003, 5.316044e-003
2.516649e+003, 5.707034e-003
2.518577e+003, 6.708081e-003
2.520506e+003, 6.651308e-003
2.522434e+003, 6.072232e-003
2.524363e+003, 5.890501e-003
2.526291e+003, 5.907971e-003
2.528220e+003, 6.716562e-003
2.530148e+003, 6.867918e-003
2.532077e+003, 5.388343e-003
2.534005e+003, 4.740287e-003
2.535934e+003, 5.378759e-003
2.537862e+003, 5.777043e-003
2.539791e+003, 6.407286e-003
2.541719e+003, 6.967781e-003
2.543647e+003, 7.040455e-003
2.545576e+003, 6.374593e-003
2.547504e+003, 5.796393e-003
2.549433e+003, 6.170212e-003
2.551361e+003, 6.149238e-003
2.553290e+003, 6.456893e-003
2.555218e+003, 6.657310e-003
2.557147e+003, 6.112831e-003
2.559075e+003, 5.836856e-003
2.561004e+003, 5.910397e-003
2.562932e+003, 6.416882e-003
2.564861e+003, 6.712318e-003
2.566789e+003, 6.867000e-003
2.568718e+003, 7.466722e-003
2.570646e+003, 7.282815e-003
2.572574e+003, 6.954696e-003
2.574503e+003, 6.014606e-003
2.576431e+003, 5.570356e-003
2.578360e+003, 6.225463e-003
2.580288e+003, 6.998513e-003
2.582217e+003, 7.423158e-003
2.584145e+003, 7.465687e-003
2.586074e+003, 7.508543e-003
2.588002e+003, 6.985306e-003
2.589931e+003, 7.603586e-003
2.591859e+003, 7.053695e-003
2.593788e+003, 5.820176e-003
2.595716e+003, 6.280507e-003
2.597645e+003, 7.302349e-003
2.599573e+003, 7.452027e-003
2.601501e+003, 7.245930e-003
2.603430e+003, 7.400296e-003
2.605358e+003, 7.421521e-003
2.607287e+003, 7.044925e-003
2.609215e+003, 6.524206e-003
2.611144e+003, 6.785325e-003
2.613072e+003, 7.456274e-003
2.615001e+003, 7.526677e-003
2.616929e+003, 7.491383e-003
2.618858e+003, 7.332951e-003
2.620786e+003, 7.167844e-003
2.622715e+003, 7.116748e-003
2.624643e+003, 7.436965e-003
2.626572e+003, 7.819340e-003
2.628500e+003, 7.671278e-003
2.630428e+003, 6.976111e-003
2.632357e+003, 6.965461e-003
2.634285e+003, 7.094629e-003
2.636214e+003, 6.998606e-003
2.638142e+003, 7.286888e-003
2.640071e+003, 7.377371e-003
2.641999e+003, 7.079164e-003
2.643928e+003, 7.177012e-003
2.645856e+003, 7.352613e-003
2.647785e+003, 7.199575e-003
2.649713e+003, 6.925245e-003
2.651642e+003, 6.596229e-003
2.653570e+003, 6.584314e-003
2.655499e+003, 7.021993e-003
2.657427e+003, 7.221417e-003
2.659355e+003, 7.298929e-003
2.661284e+003, 7.409776e-003
2.663212e+003, 7.323246e-003
2.665141e+003, 6.653429e-003
2.667069e+003, 6.701923e-003
2.668998e+003, 7.196398e-003
2.670926e+003, 6.766257e-003
2.672855e+003, 6.439312e-003
2.674783e+003, 6.135897e-003
2.676712e+003, 6.087711e-003
2.678640e+003, 6.339968e-003
2.680569e+003, 6.355124e-003
2.682497e+003, 6.822822e-003
2.684426e+003, 6.886857e-003
2.686354e+003, 6.812489e-003
2.688282e+003, 6.733344e-003
2.690211e+003, 6.886369e-003
2.692139e+003, 7.252261e-003
2.694068e+003, 7.460721e-003
2.695996e+003, 6.929560e-003
2.697925e+003, 6.334430e-003
2.699853e+003, 6.169359e-003
2.701782e+003, 6.076674e-003
2.703710e+003, 6.601780e-003
2.705639e+003, 6.907993e-003
2.707567e+003, 6.790634e-003
2.709496e+003, 6.423768e-003
2.711424e+003, 6.268658e-003
2.713353e+003, 6.580126e-003
2.715281e+003, 7.020542e-003
2.717209e+003, 7.109968e-003
2.719138e+003, 6.925167e-003
2.721066e+003, 6.966807e-003
2.722995e+003, 6.910855e-003
2.724923e+003, 6.920522e-003
2.726852e+003, 6.930000e-003
2.728780e+003, 6.643763e-003
2.730709e+003, 6.359692e-003
2.732637e+003, 6.615337e-003
2.734566e+003, 6.507552e-003
2.736494e+003, 6.344045e-003
2.738423e+003, 6.560476e-003
2.740351e+003, 6.396432e-003
2.742280e+003, 6.643417e-003
2.744208e+003, 7.501708e-003
2.746136e+003, 7.653032e-003
2.748065e+003, 7.275326e-003
2.749993e+003, 7.239041e-003
2.751922e+003, 7.277348e-003
2.753850e+003, 6.866361e-003
2.755779e+003, 7.204276e-003
2.757707e+003, 7.812316e-003
2.759636e+003, 7.636733e-003
2.761564e+003, 7.257195e-003
2.763493e+003, 6.669741e-003
2.765421e+003, 6.611639e-003
2.767350e+003, 6.926355e-003
2.769278e+003, 6.739398e-003
2.771207e+003, 6.455441e-003
2.773135e+003, 6.765226e-003
2.775063e+003, 6.873091e-003
2.776992e+003, 7.090480e-003
2.778920e+003, 7.164505e-003
2.780849e+003, 7.006869e-003
2.782777e+003, 6.907173e-003
2.784706e+003, 6.770775e-003
2.786634e+003, 7.173419e-003
2.788563e+003, 7.876927e-003
2.790491e+003, 7.469751e-003
2.792420e+003, 7.118075e-003
2.794348e+003, 7.318079e-003
2.796277e+003, 7.090263e-003
2.798205e+003, 7.326473e-003
2.800134e+003, 7.574555e-003
2.802062e+003, 7.341585e-003
2.803990e+003, 7.056554e-003
2.805919e+003, 6.713221e-003
2.807847e+003, 6.357512e-003
2.809776e+003, 6.295805e-003
2.811704e+003, 6.583369e-003
2.813633e+003, 6.691237e-003
2.815561e+003, 6.471001e-003
2.817490e+003, 6.596649e-003
2.819418e+003, 6.993173e-003
2.821347e+003, 6.857639e-003
2.823275e+003, 6.861702e-003
2.825204e+003, 7.038488e-003
2.827132e+003, 7.219860e-003
2.829061e+003, 7.289021e-003
2.830989e+003, 7.481826e-003
2.832917e+003, 6.867036e-003
2.834846e+003, 6.861113e-003
2.836774e+003, 7.123545e-003
2.838703e+003, 7.092974e-003
2.840631e+003, 7.100551e-003
2.842560e+003, 7.544656e-003
2.844488e+003, 7.499738e-003
2.846417e+003, 6.347934e-003
2.848345e+003, 6.531531e-003
2.850274e+003, 6.825221e-003
2.852202e+003, 6.780653e-003
2.854131e+003, 6.199247e-003
2.856059e+003, 5.943538e-003
2.857988e+003, 6.374105e-003
2.859916e+003, 6.937681e-003
2.861844e+003, 7.149665e-003
2.863773e+003, 7.112439e-003
2.865701e+003, 7.172242e-003
2.867630e+003, 6.252518e-003
2.869558e+003, 6.565758e-003
2.871487e+003, 6.514301e-003
2.873415e+003, 5.802506e-003
2.875344e+003, 6.115242e-003
2.877272e+003, 6.887331e-003
2.879201e+003, 7.396333e-003
2.881129e+003, 7.587253e-003
2.883058e+003, 7.091447e-003
2.884986e+003, 7.172382e-003
2.886915e+003, 7.408354e-003
2.888843e+003, 7.209644e-003
2.890771e+003, 7.505042e-003
2.892700e+003, 6.971574e-003
2.894628e+003, 6.663796e-003
2.896557e+003, 6.958021e-003
2.898485e+003, 6.866060e-003
2.900414e+003, 6.641611e-003
2.902342e+003, 6.125198e-003
2.904271e+003, 6.692622e-003
2.906199e+003, 6.983140e-003
2.908128e+003, 6.738034e-003
2.910056e+003, 6.630613e-003
2.911985e+003, 6.196323e-003
2.913913e+003, 6.032886e-003
2.915842e+003, 5.783972e-003
2.917770e+003, 5.525216e-003
2.919698e+003, 6.107733e-003
2.921627e+003, 6.435656e-003
2.923555e+003, 5.460873e-003
2.925484e+003, 5.088870e-003
2.927412e+003, 5.782434e-003
2.929341e+003, 5.861850e-003
2.931269e+003, 5.593359e-003
2.933198e+003, 6.767399e-003
2.935126e+003, 7.173213e-003
2.937055e+003, 6.253728e-003
2.938983e+003, 6.063392e-003
2.940912e+003, 6.399071e-003
2.942840e+003, 6.839848e-003
2.944769e+003, 6.543670e-003
2.946697e+003, 6.428654e-003
2.948625e+003, 6.655634e-003
2.950554e+003, 6.475735e-003
2.952482e+003, 6.028640e-003
2.954411e+003, 5.780888e-003
2.956339e+003, 6.558490e-003
2.958268e+003, 6.994901e-003
2.960196e+003, 6.696374e-003
2.962125e+003, 7.270535e-003
2.964053e+003, 7.380812e-003
2.965982e+003, 6.428771e-003
2.967910e+003, 6.276826e-003
2.969839e+003, 6.898325e-003
2.971767e+003, 7.087547e-003
2.973696e+003, 7.661050e-003
2.975624e+003, 7.582671e-003
2.977552e+003, 7.493514e-003
2.979481e+003, 7.157178e-003
2.981409e+003, 6.909679e-003
2.983338e+003, 6.506576e-003
2.985266e+003, 6.201058e-003
2.987195e+003, 6.434601e-003
2.989123e+003, 6.698011e-003
2.991052e+003, 7.487847e-003
2.992980e+003, 7.804946e-003
2.994909e+003, 7.944188e-003
2.996837e+003, 7.422685e-003
2.998766e+003, 6.579406e-003
3.000694e+003, 6.371417e-003
3.002623e+003, 6.673000e-003
3.004551e+003, 7.457435e-003
3.006479e+003, 7.699941e-003
3.008408e+003, 7.114728e-003
3.010336e+003, 6.806232e-003
3.012265e+003, 6.790202e-003
3.014193e+003, 7.018305e-003
3.016122e+003, 7.215419e-003
3.018050e+003, 7.366798e-003
3.019979e+003, 7.578064e-003
3.021907e+003, 7.553779e-003
3.023836e+003, 7.239834e-003
3.025764e+003, 6.854926e-003
3.027693e+003, 6.771435e-003
3.029621e+003, 7.101621e-003
3.031550e+003, 7.071689e-003
3.033478e+003, 6.748101e-003
3.035406e+003, 6.906173e-003
3.037335e+003, 7.206506e-003
3.039263e+003, 7.590224e-003
3.041192e+003, 8.111196e-003
3.043120e+003, 7.399499e-003
3.045049e+003, 6.435608e-003
3.046977e+003, 6.850372e-003
3.048906e+003, 7.709336e-003
3.050834e+003, 6.858412e-003
3.052763e+003, 6.613284e-003
3.054691e+003, 7.192366e-003
3.056620e+003, 7.424242e-003
3.058548e+003, 6.680691e-003
3.060477e+003, 6.477677e-003
3.062405e+003, 7.373507e-003
3.064333e+003, 7.350141e-003
3.066262e+003, 6.829938e-003
3.068190e+003, 6.449126e-003
3.070119e+003, 6.377688e-003
3.072047e+003, 7.042840e-003
3.073976e+003, 7.667000e-003
3.075904e+003, 7.020531e-003
3.077833e+003, 6.598551e-003
3.079761e+003, 7.211689e-003
3.081690e+003, 7.047722e-003
3.083618e+003, 7.362456e-003
3.085547e+003, 6.696946e-003
3.087475e+003, 6.930202e-003
3.089404e+003, 7.973162e-003
3.091332e+003, 7.144409e-003
3.093260e+003, 6.562355e-003
3.095189e+003, 7.255791e-003
3.097117e+003, 7.652775e-003
3.099046e+003, 7.717813e-003
3.100974e+003, 7.991584e-003
3.102903e+003, 7.607016e-003
3.104831e+003, 8.041493e-003
3.106760e+003, 7.970228e-003
3.108688e+003, 8.212664e-003
3.110617e+003, 7.808238e-003
3.112545e+003, 7.464958e-003
3.114474e+003, 7.467987e-003
3.116402e+003, 7.837315e-003
3.118331e+003, 7.051659e-003
3.120259e+003, 6.446248e-003
3.122188e+003, 7.971824e-003
3.124116e+003, 8.659806e-003
3.126044e+003, 8.242509e-003
3.127973e+003, 7.045860e-003
3.129901e+003, 6.054845e-003
3.131830e+003, 6.562500e-003
3.133758e+003, 6.721291e-003
3.135687e+003, 7.546713e-003
3.137615e+003, 8.553071e-003
3.139544e+003, 7.398219e-003
3.141472e+003, 6.751151e-003
3.143401e+003, 6.802017e-003
3.145329e+003, 6.965203e-003
3.147258e+003, 7.020677e-003
3.149186e+003, 6.888809e-003
3.151115e+003, 6.960696e-003
3.153043e+003, 7.002749e-003
3.154971e+003, 7.769421e-003
3.156900e+003, 8.262536e-003
3.158828e+003, 7.523958e-003
3.160757e+003, 7.345289e-003
3.162685e+003, 8.322457e-003
3.164614e+003, 8.902988e-003
3.166542e+003, 8.175581e-003
3.168471e+003, 7.381205e-003
3.170399e+003, 7.537266e-003
3.172328e+003, 7.750868e-003
3.174256e+003, 7.751489e-003
3.176185e+003, 6.907889e-003
3.178113e+003, 6.776268e-003
3.180042e+003, 7.516469e-003
3.181970e+003, 7.560292e-003
3.183898e+003, 7.031969e-003
3.185827e+003, 6.491554e-003
3.187755e+003, 6.305276e-003
3.189684e+003, 5.983583e-003
3.191612e+003, 6.265348e-003
3.193541e+003, 6.807790e-003
3.195469e+003, 6.385429e-003
3.197398e+003, 7.060113e-003
3.199326e+003, 8.074258e-003
3.201255e+003, 7.726941e-003
3.203183e+003, 7.620808e-003
3.205112e+003, 8.102746e-003
3.207040e+003, 8.164942e-003
3.208969e+003, 7.386798e-003
3.210897e+003, 7.488850e-003
3.212825e+003, 9.182588e-003
3.214754e+003, 1.034015e-002
3.216682e+003, 9.820658e-003
3.218611e+003, 8.439925e-003
3.220539e+003, 7.082623e-003
3.222468e+003, 6.850096e-003
3.224396e+003, 7.697894e-003
3.226325e+003, 8.098854e-003
3.228253e+003, 9.389695e-003
3.230182e+003, 9.323493e-003
3.232110e+003, 7.723704e-003
3.234039e+003, 7.311373e-003
3.235967e+003, 8.362707e-003
3.237896e+003, 8.356549e-003
3.239824e+003, 7.019143e-003
3.241752e+003, 7.372366e-003
3.243681e+003, 7.486717e-003
3.245609e+003, 7.244525e-003
3.247538e+003, 7.397904e-003
3.249466e+003, 7.296619e-003
3.251395e+003, 7.645930e-003
3.253323e+003, 8.281183e-003
3.255252e+003, 7.301189e-003
3.257180e+003, 7.284373e-003
3.259109e+003, 8.341448e-003
3.261037e+003, 8.283140e-003
3.262966e+003, 8.300423e-003
3.264894e+003, 8.697390e-003
3.266823e+003, 8.344634e-003
3.268751e+003, 8.634351e-003
3.270679e+003, 8.615448e-003
3.272608e+003, 8.069565e-003
3.274536e+003, 7.948198e-003
3.276465e+003, 8.080998e-003
3.278393e+003, 7.489503e-003
3.280322e+003, 7.095806e-003
3.282250e+003, 6.945966e-003
3.284179e+003, 7.679672e-003
3.286107e+003, 7.943810e-003
3.288036e+003, 7.915902e-003
3.289964e+003, 8.441890e-003
3.291893e+003, 8.355568e-003
3.293821e+003, 7.947578e-003
3.295750e+003, 8.011538e-003
3.297678e+003, 8.073818e-003
3.299606e+003, 7.801673e-003
3.301535e+003, 7.873665e-003
3.303463e+003, 8.334449e-003
3.305392e+003, 8.520145e-003
3.307320e+003, 8.448426e-003
3.309249e+003, 7.823156e-003
3.311177e+003, 7.221152e-003
3.313106e+003, 6.518076e-003
3.315034e+003, 7.430150e-003
3.316963e+003, 7.781819e-003
3.318891e+003, 7.661845e-003
3.320820e+003, 7.739401e-003
3.322748e+003, 8.148363e-003
3.324677e+003, 8.079408e-003
3.326605e+003, 7.267154e-003
3.328533e+003, 6.300436e-003
3.330462e+003, 6.293233e-003
3.332390e+003, 7.560694e-003
3.334319e+003, 7.212890e-003
3.336247e+003, 7.319100e-003
3.338176e+003, 8.782534e-003
3.340104e+003, 9.256406e-003
3.342033e+003, 8.119181e-003
3.343961e+003, 7.672756e-003
3.345890e+003, 8.397899e-003
3.347818e+003, 7.749341e-003
3.349747e+003, 6.390920e-003
3.351675e+003, 7.181213e-003
3.353604e+003, 8.539984e-003
3.355532e+003, 8.917321e-003
3.357460e+003, 9.156215e-003
3.359389e+003, 7.967285e-003
3.361317e+003, 7.231783e-003
3.363246e+003, 7.443904e-003
3.365174e+003, 7.166190e-003
3.367103e+003, 7.392381e-003
3.369031e+003, 8.364256e-003
3.370960e+003, 8.521880e-003
3.372888e+003, 7.973119e-003
3.374817e+003, 7.241741e-003
3.376745e+003, 7.388880e-003
3.378674e+003, 8.245322e-003
3.380602e+003, 8.041833e-003
3.382531e+003, 8.348037e-003
3.384459e+003, 8.733066e-003
3.386387e+003, 8.716512e-003
3.388316e+003, 9.232173e-003
3.390244e+003, 8.245797e-003
3.392173e+003, 7.408451e-003
3.394101e+003, 8.452937e-003
3.396030e+003, 8.787911e-003
3.397958e+003, 8.717361e-003
3.399887e+003, 9.035964e-003
3.401815e+003, 9.093503e-003
3.403744e+003, 8.009044e-003
3.405672e+003, 8.413339e-003
3.407601e+003, 9.272555e-003
3.409529e+003, 8.877327e-003
3.411458e+003, 8.492409e-003
3.413386e+003, 8.244819e-003
3.415314e+003, 7.698916e-003
3.417243e+003, 7.581742e-003
3.419171e+003, 7.197100e-003
3.421100e+003, 7.567057e-003
3.423028e+003, 8.761625e-003
3.424957e+003, 9.018410e-003
3.426885e+003, 8.808734e-003
3.428814e+003, 9.964419e-003
3.430742e+003, 1.111310e-002
3.432671e+003, 1.065837e-002
3.434599e+003, 8.813599e-003
3.436528e+003, 7.617035e-003
3.438456e+003, 7.468845e-003
3.440385e+003, 7.106807e-003
3.442313e+003, 6.155445e-003
3.444241e+003, 5.514284e-003
3.446170e+003, 5.719273e-003
3.448098e+003, 6.189227e-003
3.450027e+003, 7.597902e-003
3.451955e+003, 8.891743e-003
3.453884e+003, 8.543939e-003
3.455812e+003, 7.860623e-003
3.457741e+003, 7.860295e-003
3.459669e+003, 7.861705e-003
3.461598e+003, 7.673032e-003
3.463526e+003, 7.578733e-003
3.465455e+003, 8.087811e-003
3.467383e+003, 8.804390e-003
3.469312e+003, 7.550841e-003
3.471240e+003, 7.856306e-003
3.473168e+003, 8.295408e-003
3.475097e+003, 6.667590e-003
3.477025e+003, 6.338684e-003
3.478954e+003, 5.823941e-003
3.480882e+003, 6.607153e-003
3.482811e+003, 8.556374e-003
3.484739e+003, 8.470315e-003
3.486668e+003, 8.402659e-003
3.488596e+003, 9.325002e-003
3.490525e+003, 9.450248e-003
3.492453e+003, 8.720062e-003
3.494382e+003, 7.317548e-003
3.496310e+003, 6.932074e-003
3.498239e+003, 8.610869e-003
3.500167e+003, 8.726623e-003
3.502095e+003, 7.285846e-003
3.504024e+003, 7.520907e-003
3.505952e+003, 9.174951e-003
3.507881e+003, 8.231348e-003
3.509809e+003, 5.927296e-003
3.511738e+003, 6.286563e-003
3.513666e+003, 7.865594e-003
3.515595e+003, 8.214416e-003
3.517523e+003, 7.024192e-003
3.519452e+003, 7.832881e-003
3.521380e+003, 9.751572e-003
3.523309e+003, 8.952983e-003
3.525237e+003, 6.839556e-003
3.527166e+003, 7.692976e-003
3.529094e+003, 8.339104e-003
3.531022e+003, 8.189686e-003
3.532951e+003, 8.915629e-003
3.534879e+003, 8.855128e-003
3.536808e+003, 9.359292e-003
3.538736e+003, 8.835806e-003
3.540665e+003, 8.364866e-003
3.542593e+003, 8.787457e-003
3.544522e+003, 7.892994e-003
3.546450e+003, 7.508777e-003
3.548379e+003, 7.374193e-003
3.550307e+003, 7.250951e-003
3.552236e+003, 6.329473e-003
3.554164e+003, 5.821172e-003
3.556093e+003, 6.105469e-003
3.558021e+003, 7.103341e-003
3.559949e+003, 9.695323e-003
3.561878e+003, 1.051722e-002
3.563806e+003, 8.173428e-003
3.565735e+003, 6.335401e-003
3.567663e+003, 6.530556e-003
3.569592e+003, 7.565808e-003
3.571520e+003, 6.640681e-003
3.573449e+003, 6.388081e-003
3.575377e+003, 7.573425e-003
3.577306e+003, 8.585343e-003
3.579234e+003, 7.916909e-003
3.581163e+003, 7.154646e-003
3.583091e+003, 7.954551e-003
3.585020e+003, 8.024573e-003
3.586948e+003, 6.670822e-003
3.588876e+003, 5.862763e-003
3.590805e+003, 6.574729e-003
3.592733e+003, 8.087290e-003
3.594662e+003, 8.218610e-003
3.596590e+003, 8.414443e-003
3.598519e+003, 7.582176e-003
3.600447e+003, 6.907949e-003
3.602376e+003, 7.353498e-003
3.604304e+003, 7.404318e-003
3.606233e+003, 7.353732e-003
3.608161e+003, 7.461712e-003
3.610090e+003, 7.214275e-003
3.612018e+003, 6.139330e-003
3.613947e+003, 5.566848e-003
3.615875e+003, 6.325526e-003
3.617803e+003, 6.099514e-003
3.619732e+003, 6.019906e-003
3.621660e+003, 6.925997e-003
3.623589e+003, 7.019982e-003
3.625517e+003, 7.179265e-003
3.627446e+003, 7.668270e-003
3.629374e+003, 7.600828e-003
3.631303e+003, 8.612324e-003
3.633231e+003, 8.723492e-003
3.635160e+003, 6.885534e-003
3.637088e+003, 4.851409e-003
3.639017e+003, 6.045589e-003
3.640945e+003, 7.777633e-003
3.642874e+003, 7.693174e-003
3.644802e+003, 6.334614e-003
3.646730e+003, 5.415507e-003
3.648659e+003, 5.910256e-003
3.650587e+003, 8.281490e-003
3.652516e+003, 8.455421e-003
3.654444e+003, 6.532871e-003
3.656373e+003, 6.149969e-003
3.658301e+003, 6.138333e-003
3.660230e+003, 6.351733e-003
3.662158e+003, 6.249113e-003
3.664087e+003, 4.966902e-003
3.666015e+003, 5.956112e-003
3.667944e+003, 8.995226e-003
3.669872e+003, 1.011584e-002
3.671801e+003, 9.102631e-003
3.673729e+003, 8.771601e-003
3.675657e+003, 8.551516e-003
3.677586e+003, 7.789694e-003
3.679514e+003, 6.574903e-003
3.681443e+003, 5.267487e-003
3.683371e+003, 5.376785e-003
3.685300e+003, 6.421707e-003
3.687228e+003, 5.975823e-003
3.689157e+003, 5.625837e-003
3.691085e+003, 5.982216e-003
3.693014e+003, 5.871882e-003
3.694942e+003, 6.705652e-003
3.696871e+003, 7.710236e-003
3.698799e+003, 7.303823e-003
3.700728e+003, 6.621034e-003
3.702656e+003, 6.869575e-003
3.704584e+003, 7.738987e-003
3.706513e+003, 8.235235e-003
3.708441e+003, 9.241817e-003
3.710370e+003, 7.317346e-003
3.712298e+003, 5.815022e-003
3.714227e+003, 6.564518e-003
3.716155e+003, 7.779055e-003
3.718084e+003, 7.789695e-003
3.720012e+003, 9.044992e-003
3.721941e+003, 9.201912e-003
3.723869e+003, 7.648693e-003
3.725798e+003, 5.332455e-003
3.727726e+003, 5.046004e-003
3.729655e+003, 5.127858e-003
3.731583e+003, 6.088589e-003
3.733511e+003, 6.531549e-003
3.735440e+003, 6.397660e-003
3.737368e+003, 6.884260e-003
3.739297e+003, 7.536729e-003
3.741225e+003, 8.265470e-003
3.743154e+003, 8.004879e-003
3.745082e+003, 7.967474e-003
3.747011e+003, 5.754233e-003
3.748939e+003, 4.705176e-003
3.750868e+003, 6.267326e-003
3.752796e+003, 6.851616e-003
3.754725e+003, 6.840890e-003
3.756653e+003, 7.208478e-003
3.758582e+003, 7.527348e-003
3.760510e+003, 8.243456e-003
3.762438e+003, 8.759890e-003
3.764367e+003, 8.265506e-003
3.766295e+003, 8.106047e-003
3.768224e+003, 8.667840e-003
3.770152e+003, 7.505723e-003
3.772081e+003, 7.097951e-003
3.774009e+003, 8.927500e-003
3.775938e+003, 8.553147e-003
3.777866e+003, 7.648429e-003
3.779795e+003, 6.144354e-003
3.781723e+003, 5.152359e-003
3.783652e+003, 5.746541e-003
3.785580e+003, 7.460558e-003
3.787509e+003, 8.322896e-003
3.789437e+003, 7.954559e-003
3.791365e+003, 8.031404e-003
3.793294e+003, 6.480963e-003
3.795222e+003, 6.784298e-003
3.797151e+003, 8.874671e-003
3.799079e+003, 8.731553e-003
3.801008e+003, 9.398286e-003
3.802936e+003, 9.275655e-003
3.804865e+003, 9.118013e-003
3.806793e+003, 9.012202e-003
3.808722e+003, 9.210869e-003
3.810650e+003, 8.231907e-003
3.812579e+003, 7.164777e-003
3.814507e+003, 6.946202e-003
3.816436e+003, 6.570565e-003
3.818364e+003, 7.023369e-003
3.820292e+003, 7.692208e-003
3.822221e+003, 8.023757e-003
3.824149e+003, 7.148786e-003
3.826078e+003, 7.157989e-003
3.828006e+003, 7.783373e-003
3.829935e+003, 6.770565e-003
3.831863e+003, 5.829037e-003
3.833792e+003, 6.400376e-003
3.835720e+003, 6.839002e-003
3.837649e+003, 7.244833e-003
3.839577e+003, 8.143883e-003
3.841506e+003, 7.972558e-003
3.843434e+003, 7.084890e-003
3.845363e+003, 6.891816e-003
3.847291e+003, 6.884836e-003
3.849219e+003, 6.994278e-003
3.851148e+003, 8.124600e-003
3.853076e+003, 9.185132e-003
3.855005e+003, 9.895502e-003
3.856933e+003, 9.505277e-003
3.858862e+003, 7.098211e-003
3.860790e+003, 5.641253e-003
3.862719e+003, 7.442759e-003
3.864647e+003, 9.014058e-003
3.866576e+003, 8.745712e-003
3.868504e+003, 7.800892e-003
3.870433e+003, 8.303744e-003
3.872361e+003, 1.048291e-002
3.874290e+003, 1.134636e-002
3.876218e+003, 9.580843e-003
3.878146e+003, 8.508713e-003
3.880075e+003, 8.641620e-003
3.882003e+003, 8.862345e-003
3.883932e+003, 7.923713e-003
3.885860e+003, 8.559308e-003
3.887789e+003, 1.022615e-002
3.889717e+003, 9.548750e-003
3.891646e+003, 7.996365e-003
3.893574e+003, 7.886927e-003
3.895503e+003, 8.991571e-003
3.897431e+003, 9.921134e-003
3.899360e+003, 8.795190e-003
3.901288e+003, 8.692610e-003
3.903217e+003, 7.154995e-003
3.905145e+003, 5.383071e-003
3.907073e+003, 4.271347e-003
3.909002e+003, 5.417440e-003
3.910930e+003, 7.050131e-003
3.912859e+003, 7.179874e-003
3.914787e+003, 7.213996e-003
3.916716e+003, 7.916969e-003
3.918644e+003, 7.753697e-003
3.920573e+003, 6.412633e-003
3.922501e+003, 6.539060e-003
3.924430e+003, 7.165338e-003
3.926358e+003, 6.500821e-003
3.928287e+003, 5.996344e-003
3.930215e+003, 5.391707e-003
3.932144e+003, 6.644460e-003
3.934072e+003, 6.234997e-003
3.936000e+003, 5.531792e-003
3.937929e+003, 6.443164e-003
3.939857e+003, 5.118526e-003
3.941786e+003, 5.273980e-003
3.943714e+003, 8.503954e-003
3.945643e+003, 8.848207e-003
3.947571e+003, 7.067943e-003
3.949500e+003, 7.412794e-003
3.951428e+003, 8.002041e-003
3.953357e+003, 7.914802e-003
3.955285e+003, 7.727200e-003
3.957214e+003, 7.160789e-003
3.959142e+003, 6.110833e-003
3.961071e+003, 6.524284e-003
3.962999e+003, 7.617163e-003
3.964927e+003, 6.744823e-003
3.966856e+003, 7.794916e-003
3.968784e+003, 8.765867e-003
3.970713e+003, 7.763075e-003
3.972641e+003, 7.657202e-003
3.974570e+003, 6.924857e-003
3.976498e+003, 5.790992e-003
3.978427e+003, 5.480017e-003
3.980355e+003, 7.669802e-003
3.982284e+003, 6.931344e-003
3.984212e+003, 5.531664e-003
3.986141e+003, 5.833215e-003
3.988069e+003, 5.779357e-003
3.989998e+003, 6.682305e-003
3.991926e+003, 7.869385e-003
3.993854e+003, 7.012702e-003
3.995783e+003, 6.623548e-003
3.997711e+003, 7.666825e-003
3.999640e+003, 7.669665e-003
##END=



