##NAMES=Franklinite
##RRUFFID=R070137
##IDEAL CHEMISTRY=Zn^2+^Fe^3+^_2_O_4_
##LOCALITY=Franklin mine, Franklin, Sussex County, New Jersey, USA
##OWNER=RRUFF
##SOURCE=Michael Scott
##DESCRIPTION=Gray semi-metallic octahedral crystals associated with calcite
##STATUS=The identification of this mineral has been confirmed by X-ray diffraction and chemical analysis
##URL=rruff.info/R070137
##MEASURED CHEMISTRY=(Zn_0.63_Mn_0.36_Mg_0.01_)_Σ=1_(Fe^3+^_1.96_Al_0.04_)_Σ=2_O_4_
3.741225e+002, 3.430128e-001
3.760510e+002, 3.279603e-001
3.779795e+002, 3.342301e-001
3.799079e+002, 3.515212e-001
3.818364e+002, 3.405895e-001
3.837649e+002, 3.238944e-001
3.856933e+002, 3.143523e-001
3.876218e+002, 3.199647e-001
3.895503e+002, 3.048512e-001
3.914787e+002, 2.997360e-001
3.934072e+002, 3.054625e-001
3.953357e+002, 3.035511e-001
3.972641e+002, 2.900276e-001
3.991926e+002, 2.934314e-001
4.011211e+002, 2.953331e-001
4.030495e+002, 2.853051e-001
4.049780e+002, 2.779123e-001
4.069065e+002, 2.756271e-001
4.088349e+002, 2.624343e-001
4.107634e+002, 2.501578e-001
4.126919e+002, 2.480530e-001
4.146203e+002, 2.470082e-001
4.165488e+002, 2.425708e-001
4.184773e+002, 2.353398e-001
4.204057e+002, 2.295836e-001
4.223342e+002, 2.256621e-001
4.242627e+002, 2.212155e-001
4.261911e+002, 2.158259e-001
4.281196e+002, 2.112270e-001
4.300481e+002, 2.086987e-001
4.319765e+002, 2.034577e-001
4.339050e+002, 1.991571e-001
4.358335e+002, 1.964808e-001
4.377619e+002, 1.930502e-001
4.396904e+002, 1.885580e-001
4.416189e+002, 1.856561e-001
4.435473e+002, 1.837346e-001
4.454758e+002, 1.798387e-001
4.474043e+002, 1.760882e-001
4.493327e+002, 1.737855e-001
4.512612e+002, 1.706711e-001
4.531897e+002, 1.669453e-001
4.551181e+002, 1.629894e-001
4.570466e+002, 1.594297e-001
4.589751e+002, 1.558609e-001
4.609035e+002, 1.520843e-001
4.628320e+002, 1.480360e-001
4.647605e+002, 1.443358e-001
4.666889e+002, 1.402121e-001
4.686174e+002, 1.367671e-001
4.705459e+002, 1.338626e-001
4.724743e+002, 1.306807e-001
4.744028e+002, 1.286133e-001
4.763313e+002, 1.271425e-001
4.782597e+002, 1.258797e-001
4.801882e+002, 1.258957e-001
4.821167e+002, 1.261123e-001
4.840451e+002, 1.262358e-001
4.859736e+002, 1.269887e-001
4.879021e+002, 1.277060e-001
4.898305e+002, 1.287712e-001
4.917590e+002, 1.302635e-001
4.936875e+002, 1.311639e-001
4.956159e+002, 1.331186e-001
4.975444e+002, 1.364620e-001
4.994729e+002, 1.413554e-001
5.014013e+002, 1.475034e-001
5.033298e+002, 1.553001e-001
5.052583e+002, 1.652088e-001
5.071867e+002, 1.773306e-001
5.091152e+002, 1.914112e-001
5.110437e+002, 2.063132e-001
5.129721e+002, 2.205659e-001
5.149006e+002, 2.341729e-001
5.168290e+002, 2.459166e-001
5.187575e+002, 2.560169e-001
5.206860e+002, 2.648478e-001
5.226144e+002, 2.724672e-001
5.245429e+002, 2.782812e-001
5.264714e+002, 2.827752e-001
5.283998e+002, 2.861588e-001
5.303283e+002, 2.879448e-001
5.322568e+002, 2.881764e-001
5.341852e+002, 2.867619e-001
5.361137e+002, 2.842713e-001
5.380422e+002, 2.810503e-001
5.399706e+002, 2.768875e-001
5.418991e+002, 2.711124e-001
5.438276e+002, 2.646966e-001
5.457560e+002, 2.576451e-001
5.476845e+002, 2.493443e-001
5.496130e+002, 2.411568e-001
5.515414e+002, 2.337562e-001
5.534699e+002, 2.263085e-001
5.553984e+002, 2.187856e-001
5.573268e+002, 2.104845e-001
5.592553e+002, 2.025533e-001
5.611838e+002, 1.951727e-001
5.631122e+002, 1.880434e-001
5.650407e+002, 1.818586e-001
5.669692e+002, 1.759211e-001
5.688976e+002, 1.695123e-001
5.708261e+002, 1.630547e-001
5.727546e+002, 1.573660e-001
5.746830e+002, 1.520535e-001
5.766115e+002, 1.466137e-001
5.785400e+002, 1.411907e-001
5.804684e+002, 1.359899e-001
5.823969e+002, 1.306979e-001
5.843254e+002, 1.256028e-001
5.862538e+002, 1.211145e-001
5.881823e+002, 1.168687e-001
5.901108e+002, 1.127494e-001
5.920392e+002, 1.085999e-001
5.939677e+002, 1.046233e-001
5.958962e+002, 1.008412e-001
5.978246e+002, 9.719820e-002
5.997531e+002, 9.389795e-002
6.016816e+002, 9.061043e-002
6.036100e+002, 8.760770e-002
6.055385e+002, 8.472628e-002
6.074670e+002, 8.194971e-002
6.093954e+002, 7.919348e-002
6.113239e+002, 7.667083e-002
6.132524e+002, 7.438371e-002
6.151808e+002, 7.204558e-002
6.171093e+002, 6.983037e-002
6.190378e+002, 6.771730e-002
6.209662e+002, 6.590297e-002
6.228947e+002, 6.416591e-002
6.248232e+002, 6.223589e-002
6.267516e+002, 6.064274e-002
6.286801e+002, 5.940953e-002
6.306086e+002, 5.834927e-002
6.325370e+002, 5.757650e-002
6.344655e+002, 5.712434e-002
6.363940e+002, 5.657139e-002
6.383224e+002, 5.583560e-002
6.402509e+002, 5.532448e-002
6.421794e+002, 5.513254e-002
6.441078e+002, 5.507822e-002
6.460363e+002, 5.492553e-002
6.479648e+002, 5.486820e-002
6.498932e+002, 5.512539e-002
6.518217e+002, 5.533142e-002
6.537502e+002, 5.540504e-002
6.556786e+002, 5.564421e-002
6.576071e+002, 5.579365e-002
6.595356e+002, 5.562182e-002
6.614641e+002, 5.536169e-002
6.633925e+002, 5.515277e-002
6.653210e+002, 5.468455e-002
6.672495e+002, 5.422701e-002
6.691779e+002, 5.379350e-002
6.711064e+002, 5.315559e-002
6.730349e+002, 5.244289e-002
6.749633e+002, 5.165042e-002
6.768918e+002, 5.082618e-002
6.788203e+002, 5.008870e-002
6.807487e+002, 4.940328e-002
6.826772e+002, 4.871659e-002
6.846057e+002, 4.787994e-002
6.865341e+002, 4.706783e-002
6.884626e+002, 4.618724e-002
6.903911e+002, 4.516763e-002
6.923195e+002, 4.413306e-002
6.942480e+002, 4.310202e-002
6.961765e+002, 4.197240e-002
6.981049e+002, 4.080889e-002
7.000334e+002, 3.971401e-002
7.019619e+002, 3.856719e-002
7.038903e+002, 3.746156e-002
7.058188e+002, 3.641286e-002
7.077473e+002, 3.548744e-002
7.096757e+002, 3.480195e-002
7.116042e+002, 3.411176e-002
7.135327e+002, 3.328242e-002
7.154611e+002, 3.234525e-002
7.173896e+002, 3.137778e-002
7.193181e+002, 3.051976e-002
7.212465e+002, 2.985693e-002
7.231750e+002, 2.937913e-002
7.251035e+002, 2.873717e-002
7.270319e+002, 2.812424e-002
7.289604e+002, 2.766252e-002
7.308889e+002, 2.714478e-002
7.328173e+002, 2.658110e-002
7.347458e+002, 2.619920e-002
7.366743e+002, 2.582752e-002
7.386027e+002, 2.537306e-002
7.405312e+002, 2.503958e-002
7.424597e+002, 2.465377e-002
7.443881e+002, 2.438836e-002
7.463166e+002, 2.429447e-002
7.482451e+002, 2.413914e-002
7.501735e+002, 2.387995e-002
7.521020e+002, 2.372091e-002
7.540305e+002, 2.350661e-002
7.559589e+002, 2.328403e-002
7.578874e+002, 2.324707e-002
7.598159e+002, 2.319731e-002
7.617443e+002, 2.306389e-002
7.636728e+002, 2.305210e-002
7.656013e+002, 2.305694e-002
7.675297e+002, 2.297590e-002
7.694582e+002, 2.283939e-002
7.713867e+002, 2.270100e-002
7.733151e+002, 2.258436e-002
7.752436e+002, 2.256685e-002
7.771721e+002, 2.248338e-002
7.791005e+002, 2.244740e-002
7.810290e+002, 2.246305e-002
7.829575e+002, 2.240104e-002
7.848859e+002, 2.228905e-002
7.868144e+002, 2.205685e-002
7.887429e+002, 2.191207e-002
7.906713e+002, 2.193051e-002
7.925998e+002, 2.177427e-002
7.945283e+002, 2.144051e-002
7.964567e+002, 2.131851e-002
7.983852e+002, 2.134690e-002
8.003137e+002, 2.119579e-002
8.022421e+002, 2.112887e-002
8.041706e+002, 2.107247e-002
8.060991e+002, 2.098712e-002
8.080275e+002, 2.110182e-002
8.099560e+002, 2.119726e-002
8.118845e+002, 2.104739e-002
8.138129e+002, 2.094668e-002
8.157414e+002, 2.094668e-002
8.176699e+002, 2.098498e-002
8.195983e+002, 2.113585e-002
8.215268e+002, 2.127477e-002
8.234553e+002, 2.136995e-002
8.253837e+002, 2.136504e-002
8.273122e+002, 2.135320e-002
8.292407e+002, 2.153131e-002
8.311691e+002, 2.167064e-002
8.330976e+002, 2.175563e-002
8.350261e+002, 2.192062e-002
8.369545e+002, 2.220495e-002
8.388830e+002, 2.240384e-002
8.408115e+002, 2.257113e-002
8.427399e+002, 2.277754e-002
8.446684e+002, 2.292415e-002
8.465969e+002, 2.297757e-002
8.485253e+002, 2.307142e-002
8.504538e+002, 2.323881e-002
8.523823e+002, 2.341320e-002
8.543107e+002, 2.357558e-002
8.562392e+002, 2.373832e-002
8.581677e+002, 2.380273e-002
8.600961e+002, 2.381750e-002
8.620246e+002, 2.389375e-002
8.639531e+002, 2.404468e-002
8.658815e+002, 2.420469e-002
8.678100e+002, 2.429320e-002
8.697385e+002, 2.450019e-002
8.716669e+002, 2.489924e-002
8.735954e+002, 2.514960e-002
8.755239e+002, 2.535766e-002
8.774523e+002, 2.545377e-002
8.793808e+002, 2.537825e-002
8.813093e+002, 2.521321e-002
8.832377e+002, 2.493729e-002
8.851662e+002, 2.471234e-002
8.870947e+002, 2.464218e-002
8.890231e+002, 2.460820e-002
8.909516e+002, 2.476898e-002
8.928801e+002, 2.502227e-002
8.948085e+002, 2.518594e-002
8.967370e+002, 2.547281e-002
8.986655e+002, 2.590412e-002
9.005939e+002, 2.614936e-002
9.025224e+002, 2.632732e-002
9.044509e+002, 2.659693e-002
9.063793e+002, 2.701983e-002
9.083078e+002, 2.739562e-002
9.102363e+002, 2.765606e-002
9.121647e+002, 2.784968e-002
9.140932e+002, 2.809997e-002
9.160217e+002, 2.848469e-002
9.179501e+002, 2.879870e-002
9.198786e+002, 2.919066e-002
9.218071e+002, 2.970576e-002
9.237355e+002, 3.019031e-002
9.256640e+002, 3.066650e-002
9.275925e+002, 3.118917e-002
9.295209e+002, 3.174353e-002
9.314494e+002, 3.217684e-002
9.333779e+002, 3.268157e-002
9.353063e+002, 3.320081e-002
9.372348e+002, 3.354260e-002
9.391633e+002, 3.401340e-002
9.410917e+002, 3.454792e-002
9.430202e+002, 3.507938e-002
9.449487e+002, 3.562993e-002
9.468771e+002, 3.612549e-002
9.488056e+002, 3.659123e-002
9.507341e+002, 3.701964e-002
9.526625e+002, 3.749076e-002
9.545910e+002, 3.791298e-002
9.565195e+002, 3.842022e-002
9.584479e+002, 3.894848e-002
9.603764e+002, 3.932124e-002
9.623049e+002, 3.963495e-002
9.642333e+002, 4.013631e-002
9.661618e+002, 4.061986e-002
9.680903e+002, 4.099938e-002
9.700187e+002, 4.131942e-002
9.719472e+002, 4.173841e-002
9.738757e+002, 4.224817e-002
9.758041e+002, 4.258525e-002
9.777326e+002, 4.283138e-002
9.796611e+002, 4.326849e-002
9.815895e+002, 4.363973e-002
9.835180e+002, 4.389163e-002
9.854465e+002, 4.413651e-002
9.873749e+002, 4.454536e-002
9.893034e+002, 4.485188e-002
9.912319e+002, 4.505917e-002
9.931603e+002, 4.524468e-002
9.950888e+002, 4.532288e-002
9.970173e+002, 4.534065e-002
9.989457e+002, 4.532180e-002
1.000874e+003, 4.527535e-002
1.002803e+003, 4.528217e-002
1.004731e+003, 4.545715e-002
1.006660e+003, 4.566699e-002
1.008588e+003, 4.579048e-002
1.010517e+003, 4.595027e-002
1.012445e+003, 4.593980e-002
1.014373e+003, 4.597414e-002
1.016302e+003, 4.616962e-002
1.018230e+003, 4.636034e-002
1.020159e+003, 4.640005e-002
1.022087e+003, 4.644757e-002
1.024016e+003, 4.660488e-002
1.025944e+003, 4.678304e-002
1.027873e+003, 4.697011e-002
1.029801e+003, 4.719409e-002
1.031730e+003, 4.739473e-002
1.033658e+003, 4.748392e-002
1.035587e+003, 4.762239e-002
1.037515e+003, 4.774326e-002
1.039443e+003, 4.785809e-002
1.041372e+003, 4.810369e-002
1.043300e+003, 4.834151e-002
1.045229e+003, 4.843029e-002
1.047157e+003, 4.864783e-002
1.049086e+003, 4.894235e-002
1.051014e+003, 4.925113e-002
1.052943e+003, 4.965101e-002
1.054871e+003, 5.010868e-002
1.056800e+003, 5.053092e-002
1.058728e+003, 5.081121e-002
1.060657e+003, 5.110173e-002
1.062585e+003, 5.144791e-002
1.064514e+003, 5.171902e-002
1.066442e+003, 5.202970e-002
1.068370e+003, 5.238472e-002
1.070299e+003, 5.261505e-002
1.072227e+003, 5.301906e-002
1.074156e+003, 5.337692e-002
1.076084e+003, 5.360803e-002
1.078013e+003, 5.392103e-002
1.079941e+003, 5.410190e-002
1.081870e+003, 5.419864e-002
1.083798e+003, 5.432104e-002
1.085727e+003, 5.450931e-002
1.087655e+003, 5.475225e-002
1.089584e+003, 5.489084e-002
1.091512e+003, 5.480640e-002
1.093441e+003, 5.478631e-002
1.095369e+003, 5.484694e-002
1.097297e+003, 5.497135e-002
1.099226e+003, 5.504687e-002
1.101154e+003, 5.495631e-002
1.103083e+003, 5.492235e-002
1.105011e+003, 5.494338e-002
1.106940e+003, 5.501229e-002
1.108868e+003, 5.501504e-002
1.110797e+003, 5.508345e-002
1.112725e+003, 5.516892e-002
1.114654e+003, 5.526411e-002
1.116582e+003, 5.533513e-002
1.118511e+003, 5.529952e-002
1.120439e+003, 5.538210e-002
1.122368e+003, 5.553734e-002
1.124296e+003, 5.563028e-002
1.126224e+003, 5.591010e-002
1.128153e+003, 5.621997e-002
1.130081e+003, 5.632659e-002
1.132010e+003, 5.652987e-002
1.133938e+003, 5.677432e-002
1.135867e+003, 5.690658e-002
1.137795e+003, 5.705112e-002
1.139724e+003, 5.734667e-002
1.141652e+003, 5.767109e-002
1.143581e+003, 5.772688e-002
1.145509e+003, 5.775487e-002
1.147438e+003, 5.797861e-002
1.149366e+003, 5.820576e-002
1.151295e+003, 5.832451e-002
1.153223e+003, 5.860187e-002
1.155151e+003, 5.880475e-002
1.157080e+003, 5.891135e-002
1.159008e+003, 5.906961e-002
1.160937e+003, 5.934522e-002
1.162865e+003, 5.943982e-002
1.164794e+003, 5.955654e-002
1.166722e+003, 5.979069e-002
1.168651e+003, 6.000615e-002
1.170579e+003, 6.015453e-002
1.172508e+003, 6.029230e-002
1.174436e+003, 6.061329e-002
1.176365e+003, 6.098556e-002
1.178293e+003, 6.139208e-002
1.180222e+003, 6.171510e-002
1.182150e+003, 6.196487e-002
1.184078e+003, 6.228840e-002
1.186007e+003, 6.259997e-002
1.187935e+003, 6.299809e-002
1.189864e+003, 6.333654e-002
1.191792e+003, 6.358577e-002
1.193721e+003, 6.376611e-002
1.195649e+003, 6.408097e-002
1.197578e+003, 6.443509e-002
1.199506e+003, 6.474007e-002
1.201435e+003, 6.493763e-002
1.203363e+003, 6.512387e-002
1.205292e+003, 6.527925e-002
1.207220e+003, 6.546719e-002
1.209149e+003, 6.575549e-002
1.211077e+003, 6.599620e-002
1.213005e+003, 6.620193e-002
1.214934e+003, 6.649521e-002
1.216862e+003, 6.667349e-002
1.218791e+003, 6.692539e-002
1.220719e+003, 6.720199e-002
1.222648e+003, 6.741404e-002
1.224576e+003, 6.766470e-002
1.226505e+003, 6.796715e-002
1.228433e+003, 6.833778e-002
1.230362e+003, 6.859194e-002
1.232290e+003, 6.872687e-002
1.234219e+003, 6.895153e-002
1.236147e+003, 6.909758e-002
1.238076e+003, 6.927294e-002
1.240004e+003, 6.947369e-002
1.241932e+003, 6.966358e-002
1.243861e+003, 6.995834e-002
1.245789e+003, 7.024473e-002
1.247718e+003, 7.040965e-002
1.249646e+003, 7.064476e-002
1.251575e+003, 7.095558e-002
1.253503e+003, 7.123948e-002
1.255432e+003, 7.142324e-002
1.257360e+003, 7.168753e-002
1.259289e+003, 7.202459e-002
1.261217e+003, 7.233214e-002
1.263146e+003, 7.258861e-002
1.265074e+003, 7.287405e-002
1.267003e+003, 7.310850e-002
1.268931e+003, 7.335193e-002
1.270859e+003, 7.368150e-002
1.272788e+003, 7.405591e-002
1.274716e+003, 7.443930e-002
1.276645e+003, 7.481566e-002
1.278573e+003, 7.501512e-002
1.280502e+003, 7.526749e-002
1.282430e+003, 7.565736e-002
1.284359e+003, 7.596876e-002
1.286287e+003, 7.619816e-002
1.288216e+003, 7.651552e-002
1.290144e+003, 7.696282e-002
1.292073e+003, 7.733753e-002
1.294001e+003, 7.764133e-002
1.295930e+003, 7.791020e-002
1.297858e+003, 7.818935e-002
1.299786e+003, 7.859059e-002
1.301715e+003, 7.884666e-002
1.303643e+003, 7.909697e-002
1.305572e+003, 7.949881e-002
1.307500e+003, 7.993566e-002
1.309429e+003, 8.023307e-002
1.311357e+003, 8.052740e-002
1.313286e+003, 8.082887e-002
1.315214e+003, 8.113655e-002
1.317143e+003, 8.144497e-002
1.319071e+003, 8.170781e-002
1.321000e+003, 8.199747e-002
1.322928e+003, 8.227011e-002
1.324857e+003, 8.260238e-002
1.326785e+003, 8.294205e-002
1.328714e+003, 8.324376e-002
1.330642e+003, 8.358614e-002
1.332570e+003, 8.393129e-002
1.334499e+003, 8.429854e-002
1.336427e+003, 8.461989e-002
1.338356e+003, 8.489855e-002
1.340284e+003, 8.531040e-002
1.342213e+003, 8.565362e-002
1.344141e+003, 8.604193e-002
1.346070e+003, 8.645300e-002
1.347998e+003, 8.681850e-002
1.349927e+003, 8.713049e-002
1.351855e+003, 8.732636e-002
1.353784e+003, 8.758106e-002
1.355712e+003, 8.793371e-002
1.357641e+003, 8.825907e-002
1.359569e+003, 8.859509e-002
1.361497e+003, 8.891905e-002
1.363426e+003, 8.914664e-002
1.365354e+003, 8.945525e-002
1.367283e+003, 8.981355e-002
1.369211e+003, 9.022095e-002
1.371140e+003, 9.056208e-002
1.373068e+003, 9.081260e-002
1.374997e+003, 9.131370e-002
1.376925e+003, 9.170027e-002
1.378854e+003, 9.197508e-002
1.380782e+003, 9.239119e-002
1.382711e+003, 9.275658e-002
1.384639e+003, 9.321717e-002
1.386568e+003, 9.362620e-002
1.388496e+003, 9.405609e-002
1.390424e+003, 9.463113e-002
1.392353e+003, 9.515118e-002
1.394281e+003, 9.561883e-002
1.396210e+003, 9.611467e-002
1.398138e+003, 9.653958e-002
1.400067e+003, 9.697124e-002
1.401995e+003, 9.749385e-002
1.403924e+003, 9.812048e-002
1.405852e+003, 9.862535e-002
1.407781e+003, 9.916193e-002
1.409709e+003, 9.962104e-002
1.411638e+003, 1.000297e-001
1.413566e+003, 1.004054e-001
1.415495e+003, 1.008094e-001
1.417423e+003, 1.011827e-001
1.419351e+003, 1.015642e-001
1.421280e+003, 1.019638e-001
1.423208e+003, 1.023156e-001
1.425137e+003, 1.026321e-001
1.427065e+003, 1.029328e-001
1.428994e+003, 1.032613e-001
1.430922e+003, 1.036333e-001
1.432851e+003, 1.038508e-001
1.434779e+003, 1.040889e-001
1.436708e+003, 1.045061e-001
1.438636e+003, 1.046768e-001
1.440565e+003, 1.047431e-001
1.442493e+003, 1.050011e-001
1.444422e+003, 1.052043e-001
1.446350e+003, 1.053797e-001
1.448278e+003, 1.056302e-001
1.450207e+003, 1.059083e-001
1.452135e+003, 1.061484e-001
1.454064e+003, 1.062865e-001
1.455992e+003, 1.063872e-001
1.457921e+003, 1.065293e-001
1.459849e+003, 1.067289e-001
1.461778e+003, 1.068421e-001
1.463706e+003, 1.068709e-001
1.465635e+003, 1.070106e-001
1.467563e+003, 1.070536e-001
1.469492e+003, 1.070474e-001
1.471420e+003, 1.070536e-001
1.473349e+003, 1.071364e-001
1.475277e+003, 1.074124e-001
1.477205e+003, 1.076810e-001
1.479134e+003, 1.078143e-001
1.481062e+003, 1.078841e-001
1.482991e+003, 1.079642e-001
1.484919e+003, 1.080263e-001
1.486848e+003, 1.081525e-001
1.488776e+003, 1.083574e-001
1.490705e+003, 1.084729e-001
1.492633e+003, 1.085090e-001
1.494562e+003, 1.085411e-001
1.496490e+003, 1.087333e-001
1.498419e+003, 1.089729e-001
1.500347e+003, 1.091658e-001
1.502276e+003, 1.092977e-001
1.504204e+003, 1.093687e-001
1.506132e+003, 1.094034e-001
1.508061e+003, 1.095846e-001
1.509989e+003, 1.097735e-001
1.511918e+003, 1.099364e-001
1.513846e+003, 1.100511e-001
1.515775e+003, 1.102241e-001
1.517703e+003, 1.103491e-001
1.519632e+003, 1.104961e-001
1.521560e+003, 1.106303e-001
1.523489e+003, 1.109595e-001
1.525417e+003, 1.111728e-001
1.527346e+003, 1.113451e-001
1.529274e+003, 1.115870e-001
1.531203e+003, 1.118530e-001
1.533131e+003, 1.119868e-001
1.535059e+003, 1.120958e-001
1.536988e+003, 1.123335e-001
1.538916e+003, 1.126106e-001
1.540845e+003, 1.128728e-001
1.542773e+003, 1.131713e-001
1.544702e+003, 1.134812e-001
1.546630e+003, 1.137269e-001
1.548559e+003, 1.139488e-001
1.550487e+003, 1.141397e-001
1.552416e+003, 1.143964e-001
1.554344e+003, 1.147629e-001
1.556273e+003, 1.149771e-001
1.558201e+003, 1.151134e-001
1.560130e+003, 1.154045e-001
1.562058e+003, 1.157940e-001
1.563986e+003, 1.162337e-001
1.565915e+003, 1.165138e-001
1.567843e+003, 1.165783e-001
1.569772e+003, 1.168023e-001
1.571700e+003, 1.170980e-001
1.573629e+003, 1.174086e-001
1.575557e+003, 1.175861e-001
1.577486e+003, 1.177417e-001
1.579414e+003, 1.181045e-001
1.581343e+003, 1.184102e-001
1.583271e+003, 1.185979e-001
1.585200e+003, 1.188424e-001
1.587128e+003, 1.190548e-001
1.589057e+003, 1.192699e-001
1.590985e+003, 1.196288e-001
1.592913e+003, 1.199508e-001
1.594842e+003, 1.202368e-001
1.596770e+003, 1.204506e-001
1.598699e+003, 1.205427e-001
1.600627e+003, 1.207184e-001
1.602556e+003, 1.209427e-001
1.604484e+003, 1.211653e-001
1.606413e+003, 1.213460e-001
1.608341e+003, 1.215400e-001
1.610270e+003, 1.217392e-001
1.612198e+003, 1.220739e-001
1.614127e+003, 1.222225e-001
1.616055e+003, 1.223220e-001
1.617984e+003, 1.225694e-001
1.619912e+003, 1.229433e-001
1.621840e+003, 1.231944e-001
1.623769e+003, 1.232057e-001
1.625697e+003, 1.233304e-001
1.627626e+003, 1.236068e-001
1.629554e+003, 1.238846e-001
1.631483e+003, 1.240891e-001
1.633411e+003, 1.241818e-001
1.635340e+003, 1.242745e-001
1.637268e+003, 1.243611e-001
1.639197e+003, 1.244593e-001
1.641125e+003, 1.245284e-001
1.643054e+003, 1.246900e-001
1.644982e+003, 1.248216e-001
1.646911e+003, 1.249842e-001
1.648839e+003, 1.251774e-001
1.650767e+003, 1.252433e-001
1.652696e+003, 1.252325e-001
1.654624e+003, 1.253838e-001
1.656553e+003, 1.255460e-001
1.658481e+003, 1.256818e-001
1.660410e+003, 1.257136e-001
1.662338e+003, 1.257408e-001
1.664267e+003, 1.258879e-001
1.666195e+003, 1.261805e-001
1.668124e+003, 1.262340e-001
1.670052e+003, 1.262049e-001
1.671981e+003, 1.262332e-001
1.673909e+003, 1.263473e-001
1.675838e+003, 1.266113e-001
1.677766e+003, 1.268925e-001
1.679694e+003, 1.269304e-001
1.681623e+003, 1.269304e-001
1.683551e+003, 1.269595e-001
1.685480e+003, 1.271685e-001
1.687408e+003, 1.274254e-001
1.689337e+003, 1.276185e-001
1.691265e+003, 1.277054e-001
1.693194e+003, 1.277036e-001
1.695122e+003, 1.277563e-001
1.697051e+003, 1.280280e-001
1.698979e+003, 1.283595e-001
1.700908e+003, 1.286100e-001
1.702836e+003, 1.287806e-001
1.704765e+003, 1.287958e-001
1.706693e+003, 1.289952e-001
1.708621e+003, 1.291874e-001
1.710550e+003, 1.292626e-001
1.712478e+003, 1.294763e-001
1.714407e+003, 1.297085e-001
1.716335e+003, 1.298906e-001
1.718264e+003, 1.301358e-001
1.720192e+003, 1.303044e-001
1.722121e+003, 1.305216e-001
1.724049e+003, 1.306984e-001
1.725978e+003, 1.307129e-001
1.727906e+003, 1.306623e-001
1.729835e+003, 1.306820e-001
1.731763e+003, 1.307185e-001
1.733692e+003, 1.307206e-001
1.735620e+003, 1.307995e-001
1.737548e+003, 1.309651e-001
1.739477e+003, 1.311382e-001
1.741405e+003, 1.313428e-001
1.743334e+003, 1.316263e-001
1.745262e+003, 1.316351e-001
1.747191e+003, 1.316815e-001
1.749119e+003, 1.317340e-001
1.751048e+003, 1.317183e-001
1.752976e+003, 1.318863e-001
1.754905e+003, 1.322096e-001
1.756833e+003, 1.326075e-001
1.758762e+003, 1.329524e-001
1.760690e+003, 1.330013e-001
1.762619e+003, 1.331162e-001
1.764547e+003, 1.333484e-001
1.766475e+003, 1.334949e-001
1.768404e+003, 1.337331e-001
1.770332e+003, 1.339591e-001
1.772261e+003, 1.339759e-001
1.774189e+003, 1.342309e-001
1.776118e+003, 1.346559e-001
1.778046e+003, 1.347309e-001
1.779975e+003, 1.346834e-001
1.781903e+003, 1.349358e-001
1.783832e+003, 1.352867e-001
1.785760e+003, 1.356725e-001
1.787689e+003, 1.357810e-001
1.789617e+003, 1.358339e-001
1.791546e+003, 1.360323e-001
1.793474e+003, 1.362492e-001
1.795402e+003, 1.363202e-001
1.797331e+003, 1.364158e-001
1.799259e+003, 1.366439e-001
1.801188e+003, 1.369376e-001
1.803116e+003, 1.371648e-001
1.805045e+003, 1.373467e-001
1.806973e+003, 1.374231e-001
1.808902e+003, 1.375640e-001
1.810830e+003, 1.377335e-001
1.812759e+003, 1.378317e-001
1.814687e+003, 1.379737e-001
1.816616e+003, 1.381430e-001
1.818544e+003, 1.385388e-001
1.820473e+003, 1.389375e-001
1.822401e+003, 1.391650e-001
1.824329e+003, 1.393304e-001
1.826258e+003, 1.394793e-001
1.828186e+003, 1.394533e-001
1.830115e+003, 1.396186e-001
1.832043e+003, 1.399296e-001
1.833972e+003, 1.400751e-001
1.835900e+003, 1.401579e-001
1.837829e+003, 1.402610e-001
1.839757e+003, 1.405542e-001
1.841686e+003, 1.408010e-001
1.843614e+003, 1.414360e-001
1.845543e+003, 1.416887e-001
1.847471e+003, 1.416078e-001
1.849400e+003, 1.418783e-001
1.851328e+003, 1.421199e-001
1.853256e+003, 1.421344e-001
1.855185e+003, 1.420125e-001
1.857113e+003, 1.419337e-001
1.859042e+003, 1.422543e-001
1.860970e+003, 1.426207e-001
1.862899e+003, 1.427695e-001
1.864827e+003, 1.431061e-001
1.866756e+003, 1.432618e-001
1.868684e+003, 1.434281e-001
1.870613e+003, 1.435974e-001
1.872541e+003, 1.437345e-001
1.874470e+003, 1.441762e-001
1.876398e+003, 1.446757e-001
1.878327e+003, 1.443165e-001
1.880255e+003, 1.443269e-001
1.882183e+003, 1.445592e-001
1.884112e+003, 1.445068e-001
1.886040e+003, 1.445673e-001
1.887969e+003, 1.451024e-001
1.889897e+003, 1.457026e-001
1.891826e+003, 1.456957e-001
1.893754e+003, 1.456370e-001
1.895683e+003, 1.457170e-001
1.897611e+003, 1.457280e-001
1.899540e+003, 1.458994e-001
1.901468e+003, 1.462420e-001
1.903397e+003, 1.466144e-001
1.905325e+003, 1.470470e-001
1.907254e+003, 1.472048e-001
1.909182e+003, 1.471861e-001
1.911110e+003, 1.469859e-001
1.913039e+003, 1.467394e-001
1.914967e+003, 1.468771e-001
1.916896e+003, 1.471885e-001
1.918824e+003, 1.476261e-001
1.920753e+003, 1.479754e-001
1.922681e+003, 1.484091e-001
1.924610e+003, 1.483247e-001
1.926538e+003, 1.481991e-001
1.928467e+003, 1.484742e-001
1.930395e+003, 1.487723e-001
1.932324e+003, 1.488045e-001
1.934252e+003, 1.488602e-001
1.936181e+003, 1.485938e-001
1.938109e+003, 1.485028e-001
1.940037e+003, 1.492456e-001
1.941966e+003, 1.497398e-001
1.943894e+003, 1.499809e-001
1.945823e+003, 1.502246e-001
1.947751e+003, 1.495454e-001
1.949680e+003, 1.488784e-001
1.951608e+003, 1.495511e-001
1.953537e+003, 1.497809e-001
1.955465e+003, 1.494860e-001
1.957394e+003, 1.487343e-001
1.959322e+003, 1.486502e-001
1.961251e+003, 1.497211e-001
1.963179e+003, 1.498002e-001
1.965108e+003, 1.495163e-001
1.967036e+003, 1.497029e-001
1.968964e+003, 1.505993e-001
1.970893e+003, 1.514862e-001
1.972821e+003, 1.514409e-001
1.974750e+003, 1.511661e-001
1.976678e+003, 1.523309e-001
1.978607e+003, 1.542637e-001
1.980535e+003, 1.546543e-001
1.982464e+003, 1.540346e-001
1.984392e+003, 1.538156e-001
1.986321e+003, 1.541606e-001
1.988249e+003, 1.539930e-001
1.990178e+003, 1.536279e-001
1.992106e+003, 1.541818e-001
1.994035e+003, 1.541556e-001
1.995963e+003, 1.539639e-001
1.997891e+003, 1.538247e-001
1.999820e+003, 1.535215e-001
2.001748e+003, 1.538440e-001
2.003677e+003, 1.533740e-001
2.005605e+003, 1.526577e-001
2.007534e+003, 1.528683e-001
2.009462e+003, 1.543441e-001
2.011391e+003, 1.543689e-001
2.013319e+003, 1.538779e-001
2.015248e+003, 1.539257e-001
2.017176e+003, 1.534248e-001
2.019105e+003, 1.527807e-001
2.021033e+003, 1.531503e-001
2.022962e+003, 1.537012e-001
2.024890e+003, 1.541536e-001
2.026818e+003, 1.538520e-001
2.028747e+003, 1.539568e-001
2.030675e+003, 1.542279e-001
2.032604e+003, 1.549693e-001
2.034532e+003, 1.558713e-001
2.036461e+003, 1.560997e-001
2.038389e+003, 1.565915e-001
2.040318e+003, 1.566727e-001
2.042246e+003, 1.563734e-001
2.044175e+003, 1.565531e-001
2.046103e+003, 1.567228e-001
2.048031e+003, 1.572419e-001
2.049960e+003, 1.579649e-001
2.051888e+003, 1.571997e-001
2.053817e+003, 1.565276e-001
2.055745e+003, 1.577044e-001
2.057674e+003, 1.583178e-001
2.059602e+003, 1.577399e-001
2.061531e+003, 1.572891e-001
2.063459e+003, 1.575420e-001
2.065388e+003, 1.577797e-001
2.067316e+003, 1.582476e-001
2.069245e+003, 1.586929e-001
2.071173e+003, 1.588087e-001
2.073102e+003, 1.584207e-001
2.075030e+003, 1.584755e-001
2.076958e+003, 1.589510e-001
2.078887e+003, 1.591538e-001
2.080815e+003, 1.596753e-001
2.082744e+003, 1.600005e-001
2.084672e+003, 1.598859e-001
2.086601e+003, 1.600538e-001
2.088529e+003, 1.597757e-001
2.090458e+003, 1.594280e-001
2.092386e+003, 1.590420e-001
2.094315e+003, 1.594820e-001
2.096243e+003, 1.602986e-001
2.098172e+003, 1.603075e-001
2.100100e+003, 1.602585e-001
2.102029e+003, 1.603563e-001
2.103957e+003, 1.609759e-001
2.105885e+003, 1.614148e-001
2.107814e+003, 1.611683e-001
2.109742e+003, 1.611969e-001
2.111671e+003, 1.614987e-001
2.113599e+003, 1.616767e-001
2.115528e+003, 1.615429e-001
2.117456e+003, 1.610787e-001
2.119385e+003, 1.612270e-001
2.121313e+003, 1.612479e-001
2.123242e+003, 1.610365e-001
2.125170e+003, 1.604580e-001
2.127099e+003, 1.601834e-001
2.129027e+003, 1.600581e-001
2.130956e+003, 1.599384e-001
2.132884e+003, 1.601114e-001
2.134813e+003, 1.605168e-001
2.136741e+003, 1.608821e-001
2.138669e+003, 1.600780e-001
2.140598e+003, 1.597728e-001
2.142526e+003, 1.607382e-001
2.144455e+003, 1.606133e-001
2.146383e+003, 1.601629e-001
2.148312e+003, 1.607278e-001
2.150240e+003, 1.608998e-001
2.152169e+003, 1.601558e-001
2.154097e+003, 1.598996e-001
2.156026e+003, 1.590711e-001
2.157954e+003, 1.609956e-001
2.159883e+003, 1.660456e-001
2.161811e+003, 1.667773e-001
2.163740e+003, 1.658860e-001
2.165668e+003, 1.658418e-001
2.167596e+003, 1.661733e-001
2.169525e+003, 1.653950e-001
2.171453e+003, 1.651193e-001
2.173382e+003, 1.653083e-001
2.175310e+003, 1.648798e-001
2.177239e+003, 1.655025e-001
2.179167e+003, 1.658030e-001
2.181096e+003, 1.660408e-001
2.183024e+003, 1.657526e-001
2.184953e+003, 1.658662e-001
2.186881e+003, 1.661737e-001
2.188810e+003, 1.662480e-001
2.190738e+003, 1.665164e-001
2.192667e+003, 1.666819e-001
2.194595e+003, 1.670315e-001
2.196523e+003, 1.672494e-001
2.198452e+003, 1.675380e-001
2.200380e+003, 1.680946e-001
2.202309e+003, 1.675094e-001
2.204237e+003, 1.668488e-001
2.206166e+003, 1.674834e-001
2.208094e+003, 1.678087e-001
2.210023e+003, 1.678135e-001
2.211951e+003, 1.678799e-001
2.213880e+003, 1.685681e-001
2.215808e+003, 1.685039e-001
2.217737e+003, 1.686784e-001
2.219665e+003, 1.686007e-001
2.221594e+003, 1.687523e-001
2.223522e+003, 1.690955e-001
2.225450e+003, 1.692471e-001
2.227379e+003, 1.691131e-001
2.229307e+003, 1.692894e-001
2.231236e+003, 1.693927e-001
2.233164e+003, 1.696328e-001
2.235093e+003, 1.697102e-001
2.237021e+003, 1.696997e-001
2.238950e+003, 1.701638e-001
2.240878e+003, 1.705363e-001
2.242807e+003, 1.702834e-001
2.244735e+003, 1.704840e-001
2.246664e+003, 1.712369e-001
2.248592e+003, 1.713230e-001
2.250521e+003, 1.708726e-001
2.252449e+003, 1.704165e-001
2.254377e+003, 1.708050e-001
2.256306e+003, 1.719067e-001
2.258234e+003, 1.720077e-001
2.260163e+003, 1.715476e-001
2.262091e+003, 1.715247e-001
2.264020e+003, 1.712872e-001
2.265948e+003, 1.713409e-001
2.267877e+003, 1.718549e-001
2.269805e+003, 1.723665e-001
2.271734e+003, 1.725487e-001
2.273662e+003, 1.726728e-001
2.275591e+003, 1.726790e-001
2.277519e+003, 1.725239e-001
2.279448e+003, 1.729679e-001
2.281376e+003, 1.737715e-001
2.283304e+003, 1.742483e-001
2.285233e+003, 1.745306e-001
2.287161e+003, 1.743165e-001
2.289090e+003, 1.739599e-001
2.291018e+003, 1.738465e-001
2.292947e+003, 1.738589e-001
2.294875e+003, 1.737726e-001
2.296804e+003, 1.737161e-001
2.298732e+003, 1.739041e-001
2.300661e+003, 1.741032e-001
2.302589e+003, 1.741810e-001
2.304518e+003, 1.742122e-001
2.306446e+003, 1.743652e-001
2.308375e+003, 1.746398e-001
2.310303e+003, 1.749091e-001
2.312231e+003, 1.750837e-001
2.314160e+003, 1.752306e-001
2.316088e+003, 1.755930e-001
2.318017e+003, 1.758204e-001
2.319945e+003, 1.762174e-001
2.321874e+003, 1.770527e-001
2.323802e+003, 1.775073e-001
2.325731e+003, 1.764318e-001
2.327659e+003, 1.754610e-001
2.329588e+003, 1.754162e-001
2.331516e+003, 1.753321e-001
2.333445e+003, 1.753662e-001
2.335373e+003, 1.754171e-001
2.337302e+003, 1.754858e-001
2.339230e+003, 1.756731e-001
2.341158e+003, 1.759874e-001
2.343087e+003, 1.762046e-001
2.345015e+003, 1.762764e-001
2.346944e+003, 1.763764e-001
2.348872e+003, 1.766267e-001
2.350801e+003, 1.767222e-001
2.352729e+003, 1.765400e-001
2.354658e+003, 1.766447e-001
2.356586e+003, 1.769594e-001
2.358515e+003, 1.768877e-001
2.360443e+003, 1.767682e-001
2.362372e+003, 1.767497e-001
2.364300e+003, 1.765228e-001
2.366229e+003, 1.763898e-001
2.368157e+003, 1.766620e-001
2.370085e+003, 1.770426e-001
2.372014e+003, 1.771853e-001
2.373942e+003, 1.771766e-001
2.375871e+003, 1.773957e-001
2.377799e+003, 1.776334e-001
2.379728e+003, 1.781053e-001
2.381656e+003, 1.784925e-001
2.383585e+003, 1.786473e-001
2.385513e+003, 1.786288e-001
2.387442e+003, 1.784066e-001
2.389370e+003, 1.783496e-001
2.391299e+003, 1.784957e-001
2.393227e+003, 1.788309e-001
2.395156e+003, 1.790572e-001
2.397084e+003, 1.792031e-001
2.399012e+003, 1.791418e-001
2.400941e+003, 1.791058e-001
2.402869e+003, 1.793150e-001
2.404798e+003, 1.797278e-001
2.406726e+003, 1.802510e-001
2.408655e+003, 1.806686e-001
2.410583e+003, 1.805382e-001
2.412512e+003, 1.806382e-001
2.414440e+003, 1.809224e-001
2.416369e+003, 1.809397e-001
2.418297e+003, 1.808489e-001
2.420226e+003, 1.811319e-001
2.422154e+003, 1.813009e-001
2.424083e+003, 1.811033e-001
2.426011e+003, 1.809645e-001
2.427939e+003, 1.812885e-001
2.429868e+003, 1.817781e-001
2.431796e+003, 1.819692e-001
2.433725e+003, 1.818556e-001
2.435653e+003, 1.820852e-001
2.437582e+003, 1.823552e-001
2.439510e+003, 1.825177e-001
2.441439e+003, 1.828907e-001
2.443367e+003, 1.833888e-001
2.445296e+003, 1.832130e-001
2.447224e+003, 1.831064e-001
2.449153e+003, 1.830521e-001
2.451081e+003, 1.828911e-001
2.453010e+003, 1.829215e-001
2.454938e+003, 1.835939e-001
2.456866e+003, 1.840414e-001
2.458795e+003, 1.839579e-001
2.460723e+003, 1.840353e-001
2.462652e+003, 1.839574e-001
2.464580e+003, 1.841187e-001
2.466509e+003, 1.841531e-001
2.468437e+003, 1.839963e-001
2.470366e+003, 1.841754e-001
2.472294e+003, 1.844836e-001
2.474223e+003, 1.848013e-001
2.476151e+003, 1.848898e-001
2.478080e+003, 1.847644e-001
2.480008e+003, 1.844392e-001
2.481937e+003, 1.842334e-001
2.483865e+003, 1.845428e-001
2.485793e+003, 1.847082e-001
2.487722e+003, 1.849576e-001
2.489650e+003, 1.852561e-001
2.491579e+003, 1.856780e-001
2.493507e+003, 1.859647e-001
2.495436e+003, 1.856135e-001
2.497364e+003, 1.855200e-001
2.499293e+003, 1.858748e-001
2.501221e+003, 1.860859e-001
2.503150e+003, 1.858593e-001
2.505078e+003, 1.861101e-001
2.507007e+003, 1.864262e-001
2.508935e+003, 1.863120e-001
2.510864e+003, 1.865207e-001
2.512792e+003, 1.868357e-001
2.514720e+003, 1.865767e-001
2.516649e+003, 1.865008e-001
2.518577e+003, 1.870415e-001
2.520506e+003, 1.870681e-001
2.522434e+003, 1.868737e-001
2.524363e+003, 1.869280e-001
2.526291e+003, 1.871165e-001
2.528220e+003, 1.872166e-001
2.530148e+003, 1.874495e-001
2.532077e+003, 1.875812e-001
2.534005e+003, 1.875809e-001
2.535934e+003, 1.876459e-001
2.537862e+003, 1.880093e-001
2.539791e+003, 1.880238e-001
2.541719e+003, 1.878532e-001
2.543647e+003, 1.879598e-001
2.545576e+003, 1.880619e-001
2.547504e+003, 1.878257e-001
2.549433e+003, 1.880059e-001
2.551361e+003, 1.885726e-001
2.553290e+003, 1.887492e-001
2.555218e+003, 1.886423e-001
2.557147e+003, 1.886097e-001
2.559075e+003, 1.885512e-001
2.561004e+003, 1.882565e-001
2.562932e+003, 1.884304e-001
2.564861e+003, 1.888818e-001
2.566789e+003, 1.890937e-001
2.568718e+003, 1.890597e-001
2.570646e+003, 1.891184e-001
2.572574e+003, 1.893555e-001
2.574503e+003, 1.897649e-001
2.576431e+003, 1.900827e-001
2.578360e+003, 1.901111e-001
2.580288e+003, 1.900671e-001
2.582217e+003, 1.900156e-001
2.584145e+003, 1.903938e-001
2.586074e+003, 1.906858e-001
2.588002e+003, 1.904471e-001
2.589931e+003, 1.902672e-001
2.591859e+003, 1.903903e-001
2.593788e+003, 1.905117e-001
2.595716e+003, 1.908059e-001
2.597645e+003, 1.912155e-001
2.599573e+003, 1.913479e-001
2.601501e+003, 1.909720e-001
2.603430e+003, 1.909159e-001
2.605358e+003, 1.911701e-001
2.607287e+003, 1.914351e-001
2.609215e+003, 1.916532e-001
2.611144e+003, 1.917249e-001
2.613072e+003, 1.916136e-001
2.615001e+003, 1.916618e-001
2.616929e+003, 1.920083e-001
2.618858e+003, 1.923382e-001
2.620786e+003, 1.923537e-001
2.622715e+003, 1.924473e-001
2.624643e+003, 1.923684e-001
2.626572e+003, 1.924900e-001
2.628500e+003, 1.927281e-001
2.630428e+003, 1.930128e-001
2.632357e+003, 1.931850e-001
2.634285e+003, 1.931613e-001
2.636214e+003, 1.930349e-001
2.638142e+003, 1.930689e-001
2.640071e+003, 1.933721e-001
2.641999e+003, 1.937411e-001
2.643928e+003, 1.937719e-001
2.645856e+003, 1.938368e-001
2.647785e+003, 1.941922e-001
2.649713e+003, 1.942655e-001
2.651642e+003, 1.941240e-001
2.653570e+003, 1.942634e-001
2.655499e+003, 1.944218e-001
2.657427e+003, 1.944118e-001
2.659355e+003, 1.943431e-001
2.661284e+003, 1.942740e-001
2.663212e+003, 1.940963e-001
2.665141e+003, 1.939483e-001
2.667069e+003, 1.939876e-001
2.668998e+003, 1.942648e-001
2.670926e+003, 1.943382e-001
2.672855e+003, 1.942428e-001
2.674783e+003, 1.947162e-001
2.676712e+003, 1.950725e-001
2.678640e+003, 1.948138e-001
2.680569e+003, 1.949492e-001
2.682497e+003, 1.951636e-001
2.684426e+003, 1.950656e-001
2.686354e+003, 1.950007e-001
2.688282e+003, 1.953401e-001
2.690211e+003, 1.956643e-001
2.692139e+003, 1.960070e-001
2.694068e+003, 1.960013e-001
2.695996e+003, 1.956030e-001
2.697925e+003, 1.954492e-001
2.699853e+003, 1.959023e-001
2.701782e+003, 1.962123e-001
2.703710e+003, 1.960715e-001
2.705639e+003, 1.964393e-001
2.707567e+003, 1.967986e-001
2.709496e+003, 1.967769e-001
2.711424e+003, 1.969555e-001
2.713353e+003, 1.970244e-001
2.715281e+003, 1.968069e-001
2.717209e+003, 1.968613e-001
2.719138e+003, 1.972479e-001
2.721066e+003, 1.973896e-001
2.722995e+003, 1.973836e-001
2.724923e+003, 1.975773e-001
2.726852e+003, 1.979926e-001
2.728780e+003, 1.982096e-001
2.730709e+003, 1.982089e-001
2.732637e+003, 1.982196e-001
2.734566e+003, 1.985212e-001
2.736494e+003, 1.988267e-001
2.738423e+003, 1.988071e-001
2.740351e+003, 1.986200e-001
2.742280e+003, 1.987271e-001
2.744208e+003, 1.989706e-001
2.746136e+003, 1.993424e-001
2.748065e+003, 1.993762e-001
2.749993e+003, 1.994629e-001
2.751922e+003, 1.996298e-001
2.753850e+003, 1.998809e-001
2.755779e+003, 1.999266e-001
2.757707e+003, 1.998128e-001
2.759636e+003, 1.999054e-001
2.761564e+003, 2.000396e-001
2.763493e+003, 2.003065e-001
2.765421e+003, 2.005153e-001
2.767350e+003, 2.004874e-001
2.769278e+003, 2.005395e-001
2.771207e+003, 2.007748e-001
2.773135e+003, 2.008614e-001
2.775063e+003, 2.005946e-001
2.776992e+003, 2.007254e-001
2.778920e+003, 2.012536e-001
2.780849e+003, 2.014615e-001
2.782777e+003, 2.016167e-001
2.784706e+003, 2.018339e-001
2.786634e+003, 2.018245e-001
2.788563e+003, 2.019950e-001
2.790491e+003, 2.019516e-001
2.792420e+003, 2.021652e-001
2.794348e+003, 2.025624e-001
2.796277e+003, 2.026777e-001
2.798205e+003, 2.027442e-001
2.800134e+003, 2.028318e-001
2.802062e+003, 2.026246e-001
2.803990e+003, 2.028299e-001
2.805919e+003, 2.034139e-001
2.807847e+003, 2.035866e-001
2.809776e+003, 2.033132e-001
2.811704e+003, 2.033496e-001
2.813633e+003, 2.034878e-001
2.815561e+003, 2.037208e-001
2.817490e+003, 2.040343e-001
2.819418e+003, 2.041148e-001
2.821347e+003, 2.040915e-001
2.823275e+003, 2.039429e-001
2.825204e+003, 2.040621e-001
2.827132e+003, 2.044766e-001
2.829061e+003, 2.048975e-001
2.830989e+003, 2.051969e-001
2.832917e+003, 2.053119e-001
2.834846e+003, 2.054762e-001
2.836774e+003, 2.053743e-001
2.838703e+003, 2.056398e-001
2.840631e+003, 2.059294e-001
2.842560e+003, 2.060730e-001
2.844488e+003, 2.060212e-001
2.846417e+003, 2.058854e-001
2.848345e+003, 2.059851e-001
2.850274e+003, 2.060750e-001
2.852202e+003, 2.061058e-001
2.854131e+003, 2.061053e-001
2.856059e+003, 2.061711e-001
2.857988e+003, 2.059983e-001
2.859916e+003, 2.060911e-001
2.861844e+003, 2.062263e-001
2.863773e+003, 2.063324e-001
2.865701e+003, 2.064419e-001
2.867630e+003, 2.067329e-001
2.869558e+003, 2.070411e-001
2.871487e+003, 2.071021e-001
2.873415e+003, 2.069876e-001
2.875344e+003, 2.070723e-001
2.877272e+003, 2.073856e-001
2.879201e+003, 2.075997e-001
2.881129e+003, 2.076961e-001
2.883058e+003, 2.076662e-001
2.884986e+003, 2.077938e-001
2.886915e+003, 2.079576e-001
2.888843e+003, 2.080132e-001
2.890771e+003, 2.080896e-001
2.892700e+003, 2.080519e-001
2.894628e+003, 2.081218e-001
2.896557e+003, 2.085330e-001
2.898485e+003, 2.089470e-001
2.900414e+003, 2.092781e-001
2.902342e+003, 2.094276e-001
2.904271e+003, 2.092950e-001
2.906199e+003, 2.091047e-001
2.908128e+003, 2.094179e-001
2.910056e+003, 2.100900e-001
2.911985e+003, 2.101339e-001
2.913913e+003, 2.096359e-001
2.915842e+003, 2.093269e-001
2.917770e+003, 2.095666e-001
2.919698e+003, 2.099926e-001
2.921627e+003, 2.103076e-001
2.923555e+003, 2.103947e-001
2.925484e+003, 2.100726e-001
2.927412e+003, 2.099257e-001
2.929341e+003, 2.098748e-001
2.931269e+003, 2.097803e-001
2.933198e+003, 2.096343e-001
2.935126e+003, 2.098718e-001
2.937055e+003, 2.100722e-001
2.938983e+003, 2.099771e-001
2.940912e+003, 2.101509e-001
2.942840e+003, 2.104159e-001
2.944769e+003, 2.100866e-001
2.946697e+003, 2.099175e-001
2.948625e+003, 2.105701e-001
2.950554e+003, 2.110719e-001
2.952482e+003, 2.110125e-001
2.954411e+003, 2.108704e-001
2.956339e+003, 2.108072e-001
2.958268e+003, 2.105500e-001
2.960196e+003, 2.109825e-001
2.962125e+003, 2.113934e-001
2.964053e+003, 2.111102e-001
2.965982e+003, 2.109540e-001
2.967910e+003, 2.109611e-001
2.969839e+003, 2.114047e-001
2.971767e+003, 2.118536e-001
2.973696e+003, 2.118447e-001
2.975624e+003, 2.118280e-001
2.977552e+003, 2.116662e-001
2.979481e+003, 2.115619e-001
2.981409e+003, 2.117060e-001
2.983338e+003, 2.117072e-001
2.985266e+003, 2.117287e-001
2.987195e+003, 2.120068e-001
2.989123e+003, 2.121122e-001
2.991052e+003, 2.122044e-001
2.992980e+003, 2.124328e-001
2.994909e+003, 2.122962e-001
2.996837e+003, 2.123401e-001
2.998766e+003, 2.125104e-001
3.000694e+003, 2.127361e-001
3.002623e+003, 2.126394e-001
3.004551e+003, 2.123952e-001
3.006479e+003, 2.125019e-001
3.008408e+003, 2.128568e-001
3.010336e+003, 2.131233e-001
3.012265e+003, 2.130177e-001
3.014193e+003, 2.132206e-001
3.016122e+003, 2.138607e-001
3.018050e+003, 2.138538e-001
3.019979e+003, 2.136635e-001
3.021907e+003, 2.137549e-001
3.023836e+003, 2.140432e-001
3.025764e+003, 2.143525e-001
3.027693e+003, 2.143795e-001
3.029621e+003, 2.141351e-001
3.031550e+003, 2.140629e-001
3.033478e+003, 2.143860e-001
3.035406e+003, 2.146488e-001
3.037335e+003, 2.147755e-001
3.039263e+003, 2.148132e-001
3.041192e+003, 2.148840e-001
3.043120e+003, 2.150550e-001
3.045049e+003, 2.152113e-001
3.046977e+003, 2.153024e-001
3.048906e+003, 2.153952e-001
3.050834e+003, 2.156383e-001
3.052763e+003, 2.159033e-001
3.054691e+003, 2.162454e-001
3.056620e+003, 2.162702e-001
3.058548e+003, 2.162308e-001
3.060477e+003, 2.163800e-001
3.062405e+003, 2.165504e-001
3.064333e+003, 2.165207e-001
3.066262e+003, 2.165874e-001
3.068190e+003, 2.169261e-001
3.070119e+003, 2.171012e-001
3.072047e+003, 2.167625e-001
3.073976e+003, 2.169077e-001
3.075904e+003, 2.174475e-001
3.077833e+003, 2.179378e-001
3.079761e+003, 2.180158e-001
3.081690e+003, 2.176482e-001
3.083618e+003, 2.176718e-001
3.085547e+003, 2.181187e-001
3.087475e+003, 2.184311e-001
3.089404e+003, 2.183543e-001
3.091332e+003, 2.182903e-001
3.093260e+003, 2.182737e-001
3.095189e+003, 2.183879e-001
3.097117e+003, 2.186280e-001
3.099046e+003, 2.185766e-001
3.100974e+003, 2.186938e-001
3.102903e+003, 2.187643e-001
3.104831e+003, 2.185976e-001
3.106760e+003, 2.188746e-001
3.108688e+003, 2.189934e-001
3.110617e+003, 2.189802e-001
3.112545e+003, 2.186964e-001
3.114474e+003, 2.186224e-001
3.116402e+003, 2.189614e-001
3.118331e+003, 2.197346e-001
3.120259e+003, 2.198862e-001
3.122188e+003, 2.194472e-001
3.124116e+003, 2.194728e-001
3.126044e+003, 2.196670e-001
3.127973e+003, 2.197980e-001
3.129901e+003, 2.196639e-001
3.131830e+003, 2.200779e-001
3.133758e+003, 2.201609e-001
3.135687e+003, 2.200086e-001
3.137615e+003, 2.201633e-001
3.139544e+003, 2.203009e-001
3.141472e+003, 2.201988e-001
3.143401e+003, 2.201121e-001
3.145329e+003, 2.205541e-001
3.147258e+003, 2.207003e-001
3.149186e+003, 2.205226e-001
3.151115e+003, 2.203701e-001
3.153043e+003, 2.202210e-001
3.154971e+003, 2.204662e-001
3.156900e+003, 2.210035e-001
3.158828e+003, 2.208010e-001
3.160757e+003, 2.206694e-001
3.162685e+003, 2.210203e-001
3.164614e+003, 2.212657e-001
3.166542e+003, 2.217343e-001
3.168471e+003, 2.217905e-001
3.170399e+003, 2.214804e-001
3.172328e+003, 2.210865e-001
3.174256e+003, 2.209506e-001
3.176185e+003, 2.213627e-001
3.178113e+003, 2.215077e-001
3.180042e+003, 2.215272e-001
3.181970e+003, 2.215260e-001
3.183898e+003, 2.216691e-001
3.185827e+003, 2.217252e-001
3.187755e+003, 2.219944e-001
3.189684e+003, 2.222286e-001
3.191612e+003, 2.215998e-001
3.193541e+003, 2.211792e-001
3.195469e+003, 2.213727e-001
3.197398e+003, 2.219353e-001
3.199326e+003, 2.222108e-001
3.201255e+003, 2.223565e-001
3.203183e+003, 2.224106e-001
3.205112e+003, 2.223619e-001
3.207040e+003, 2.227593e-001
3.208969e+003, 2.228070e-001
3.210897e+003, 2.224794e-001
3.212825e+003, 2.221243e-001
3.214754e+003, 2.223298e-001
3.216682e+003, 2.227392e-001
3.218611e+003, 2.226072e-001
3.220539e+003, 2.226284e-001
3.222468e+003, 2.226724e-001
3.224396e+003, 2.228083e-001
3.226325e+003, 2.227577e-001
3.228253e+003, 2.227005e-001
3.230182e+003, 2.226359e-001
3.232110e+003, 2.226788e-001
3.234039e+003, 2.229580e-001
3.235967e+003, 2.234671e-001
3.237896e+003, 2.236061e-001
3.239824e+003, 2.233751e-001
3.241752e+003, 2.232088e-001
3.243681e+003, 2.228527e-001
3.245609e+003, 2.228860e-001
3.247538e+003, 2.232843e-001
3.249466e+003, 2.232422e-001
3.251395e+003, 2.233286e-001
3.253323e+003, 2.236327e-001
3.255252e+003, 2.236610e-001
3.257180e+003, 2.233399e-001
3.259109e+003, 2.230227e-001
3.261037e+003, 2.231211e-001
3.262966e+003, 2.230857e-001
3.264894e+003, 2.228289e-001
3.266823e+003, 2.233752e-001
3.268751e+003, 2.238053e-001
3.270679e+003, 2.236109e-001
3.272608e+003, 2.235610e-001
3.274536e+003, 2.238052e-001
3.276465e+003, 2.239272e-001
3.278393e+003, 2.238978e-001
3.280322e+003, 2.238789e-001
3.282250e+003, 2.238331e-001
3.284179e+003, 2.236984e-001
3.286107e+003, 2.241450e-001
3.288036e+003, 2.241108e-001
3.289964e+003, 2.241927e-001
3.291893e+003, 2.248403e-001
3.293821e+003, 2.249001e-001
3.295750e+003, 2.244787e-001
3.297678e+003, 2.241417e-001
3.299606e+003, 2.238157e-001
3.301535e+003, 2.238481e-001
3.303463e+003, 2.242408e-001
3.305392e+003, 2.247725e-001
3.307320e+003, 2.249543e-001
3.309249e+003, 2.248486e-001
3.311177e+003, 2.247433e-001
3.313106e+003, 2.245623e-001
3.315034e+003, 2.241808e-001
3.316963e+003, 2.243803e-001
3.318891e+003, 2.247748e-001
3.320820e+003, 2.251369e-001
3.322748e+003, 2.251803e-001
3.324677e+003, 2.249522e-001
3.326605e+003, 2.250264e-001
3.328533e+003, 2.250894e-001
3.330462e+003, 2.250487e-001
3.332390e+003, 2.251218e-001
3.334319e+003, 2.252752e-001
3.336247e+003, 2.254352e-001
3.338176e+003, 2.255780e-001
3.340104e+003, 2.254163e-001
3.342033e+003, 2.251363e-001
3.343961e+003, 2.254052e-001
3.345890e+003, 2.254229e-001
3.347818e+003, 2.248770e-001
3.349747e+003, 2.247947e-001
3.351675e+003, 2.252184e-001
3.353604e+003, 2.256479e-001
3.355532e+003, 2.255801e-001
3.357460e+003, 2.253392e-001
3.359389e+003, 2.252985e-001
3.361317e+003, 2.254411e-001
3.363246e+003, 2.259015e-001
3.365174e+003, 2.260768e-001
3.367103e+003, 2.257086e-001
3.369031e+003, 2.256931e-001
3.370960e+003, 2.254347e-001
3.372888e+003, 2.252242e-001
3.374817e+003, 2.251651e-001
3.376745e+003, 2.249040e-001
3.378674e+003, 2.248402e-001
3.380602e+003, 2.253296e-001
3.382531e+003, 2.260167e-001
3.384459e+003, 2.257810e-001
3.386387e+003, 2.256614e-001
3.388316e+003, 2.256382e-001
3.390244e+003, 2.254600e-001
3.392173e+003, 2.258658e-001
3.394101e+003, 2.258949e-001
3.396030e+003, 2.258580e-001
3.397958e+003, 2.261219e-001
3.399887e+003, 2.259731e-001
3.401815e+003, 2.257980e-001
3.403744e+003, 2.258997e-001
3.405672e+003, 2.261213e-001
3.407601e+003, 2.259245e-001
3.409529e+003, 2.257743e-001
3.411458e+003, 2.259197e-001
3.413386e+003, 2.258670e-001
3.415314e+003, 2.260059e-001
3.417243e+003, 2.261623e-001
3.419171e+003, 2.258950e-001
3.421100e+003, 2.255831e-001
3.423028e+003, 2.255987e-001
3.424957e+003, 2.260334e-001
3.426885e+003, 2.262339e-001
3.428814e+003, 2.260844e-001
3.430742e+003, 2.261281e-001
3.432671e+003, 2.263272e-001
3.434599e+003, 2.260034e-001
3.436528e+003, 2.255306e-001
3.438456e+003, 2.259167e-001
3.440385e+003, 2.263222e-001
3.442313e+003, 2.264212e-001
3.444241e+003, 2.269076e-001
3.446170e+003, 2.268467e-001
3.448098e+003, 2.262691e-001
3.450027e+003, 2.262245e-001
3.451955e+003, 2.264044e-001
3.453884e+003, 2.264734e-001
3.455812e+003, 2.265813e-001
3.457741e+003, 2.261120e-001
3.459669e+003, 2.258566e-001
3.461598e+003, 2.257296e-001
3.463526e+003, 2.258469e-001
3.465455e+003, 2.265524e-001
3.467383e+003, 2.268863e-001
3.469312e+003, 2.268484e-001
3.471240e+003, 2.269070e-001
3.473168e+003, 2.263387e-001
3.475097e+003, 2.262580e-001
3.477025e+003, 2.272111e-001
3.478954e+003, 2.269076e-001
3.480882e+003, 2.263215e-001
3.482811e+003, 2.261804e-001
3.484739e+003, 2.262098e-001
3.486668e+003, 2.264863e-001
3.488596e+003, 2.264488e-001
3.490525e+003, 2.262940e-001
3.492453e+003, 2.262060e-001
3.494382e+003, 2.264569e-001
3.496310e+003, 2.268585e-001
3.498239e+003, 2.268477e-001
3.500167e+003, 2.268694e-001
3.502095e+003, 2.267173e-001
3.504024e+003, 2.265806e-001
3.505952e+003, 2.269219e-001
3.507881e+003, 2.268962e-001
3.509809e+003, 2.272540e-001
3.511738e+003, 2.278169e-001
3.513666e+003, 2.272269e-001
3.515595e+003, 2.268062e-001
3.517523e+003, 2.272822e-001
3.519452e+003, 2.275188e-001
3.521380e+003, 2.268798e-001
3.523309e+003, 2.264985e-001
3.525237e+003, 2.268230e-001
3.527166e+003, 2.268528e-001
3.529094e+003, 2.266806e-001
3.531022e+003, 2.268045e-001
3.532951e+003, 2.264035e-001
3.534879e+003, 2.259158e-001
3.536808e+003, 2.266721e-001
3.538736e+003, 2.267050e-001
3.540665e+003, 2.264641e-001
3.542593e+003, 2.267522e-001
3.544522e+003, 2.266897e-001
3.546450e+003, 2.261767e-001
3.548379e+003, 2.264632e-001
3.550307e+003, 2.273586e-001
3.552236e+003, 2.275580e-001
3.554164e+003, 2.271168e-001
3.556093e+003, 2.273354e-001
3.558021e+003, 2.274802e-001
3.559949e+003, 2.270166e-001
3.561878e+003, 2.264030e-001
3.563806e+003, 2.267534e-001
3.565735e+003, 2.272521e-001
3.567663e+003, 2.269534e-001
3.569592e+003, 2.266199e-001
3.571520e+003, 2.262696e-001
3.573449e+003, 2.253227e-001
3.575377e+003, 2.253822e-001
3.577306e+003, 2.263486e-001
3.579234e+003, 2.266321e-001
3.581163e+003, 2.269177e-001
3.583091e+003, 2.269222e-001
3.585020e+003, 2.269777e-001
3.586948e+003, 2.272092e-001
3.588876e+003, 2.271603e-001
3.590805e+003, 2.269553e-001
3.592733e+003, 2.272514e-001
3.594662e+003, 2.274687e-001
3.596590e+003, 2.267943e-001
3.598519e+003, 2.265402e-001
3.600447e+003, 2.266339e-001
3.602376e+003, 2.264416e-001
3.604304e+003, 2.264595e-001
3.606233e+003, 2.267420e-001
3.608161e+003, 2.268496e-001
3.610090e+003, 2.267183e-001
3.612018e+003, 2.270370e-001
3.613947e+003, 2.268551e-001
3.615875e+003, 2.266477e-001
3.617803e+003, 2.264938e-001
3.619732e+003, 2.269024e-001
3.621660e+003, 2.275670e-001
3.623589e+003, 2.272016e-001
3.625517e+003, 2.272688e-001
3.627446e+003, 2.267305e-001
3.629374e+003, 2.263930e-001
3.631303e+003, 2.272376e-001
3.633231e+003, 2.281120e-001
3.635160e+003, 2.275115e-001
3.637088e+003, 2.268782e-001
3.639017e+003, 2.272370e-001
3.640945e+003, 2.279321e-001
3.642874e+003, 2.277872e-001
3.644802e+003, 2.283638e-001
3.646730e+003, 2.285937e-001
3.648659e+003, 2.282816e-001
3.650587e+003, 2.281571e-001
3.652516e+003, 2.283856e-001
3.654444e+003, 2.285047e-001
3.656373e+003, 2.287859e-001
3.658301e+003, 2.289239e-001
3.660230e+003, 2.288577e-001
3.662158e+003, 2.284963e-001
3.664087e+003, 2.288486e-001
3.666015e+003, 2.286111e-001
3.667944e+003, 2.275116e-001
3.669872e+003, 2.283436e-001
3.671801e+003, 2.295216e-001
3.673729e+003, 2.295373e-001
3.675657e+003, 2.290837e-001
3.677586e+003, 2.294340e-001
3.679514e+003, 2.303651e-001
3.681443e+003, 2.311744e-001
3.683371e+003, 2.313830e-001
3.685300e+003, 2.312968e-001
3.687228e+003, 2.302287e-001
3.689157e+003, 2.296674e-001
3.691085e+003, 2.294154e-001
3.693014e+003, 2.292891e-001
3.694942e+003, 2.291805e-001
3.696871e+003, 2.286600e-001
3.698799e+003, 2.287426e-001
3.700728e+003, 2.286881e-001
3.702656e+003, 2.287240e-001
3.704584e+003, 2.287907e-001
3.706513e+003, 2.283404e-001
3.708441e+003, 2.285319e-001
3.710370e+003, 2.289285e-001
3.712298e+003, 2.284673e-001
3.714227e+003, 2.281544e-001
3.716155e+003, 2.278997e-001
3.718084e+003, 2.282220e-001
3.720012e+003, 2.283783e-001
3.721941e+003, 2.284642e-001
3.723869e+003, 2.287136e-001
3.725798e+003, 2.291002e-001
3.727726e+003, 2.293209e-001
3.729655e+003, 2.293830e-001
3.731583e+003, 2.295564e-001
3.733511e+003, 2.296250e-001
3.735440e+003, 2.292846e-001
3.737368e+003, 2.289031e-001
3.739297e+003, 2.288980e-001
3.741225e+003, 2.296922e-001
3.743154e+003, 2.300715e-001
3.745082e+003, 2.299034e-001
3.747011e+003, 2.298280e-001
3.748939e+003, 2.299351e-001
3.750868e+003, 2.299296e-001
3.752796e+003, 2.298343e-001
3.754725e+003, 2.298127e-001
3.756653e+003, 2.301000e-001
3.758582e+003, 2.302888e-001
3.760510e+003, 2.300041e-001
3.762438e+003, 2.298920e-001
3.764367e+003, 2.299934e-001
3.766295e+003, 2.302047e-001
3.768224e+003, 2.300164e-001
3.770152e+003, 2.303132e-001
3.772081e+003, 2.308433e-001
3.774009e+003, 2.309498e-001
3.775938e+003, 2.309638e-001
3.777866e+003, 2.305553e-001
3.779795e+003, 2.306527e-001
3.781723e+003, 2.308487e-001
3.783652e+003, 2.315137e-001
3.785580e+003, 2.317895e-001
3.787509e+003, 2.319955e-001
3.789437e+003, 2.318524e-001
3.791365e+003, 2.311991e-001
3.793294e+003, 2.312846e-001
3.795222e+003, 2.318702e-001
3.797151e+003, 2.318458e-001
3.799079e+003, 2.314321e-001
3.801008e+003, 2.311759e-001
3.802936e+003, 2.312569e-001
3.804865e+003, 2.314771e-001
3.806793e+003, 2.314485e-001
3.808722e+003, 2.311925e-001
3.810650e+003, 2.317343e-001
3.812579e+003, 2.327503e-001
3.814507e+003, 2.329823e-001
3.816436e+003, 2.323973e-001
3.818364e+003, 2.322155e-001
3.820292e+003, 2.326330e-001
3.822221e+003, 2.328633e-001
3.824149e+003, 2.329920e-001
3.826078e+003, 2.327271e-001
3.828006e+003, 2.319028e-001
3.829935e+003, 2.315243e-001
3.831863e+003, 2.326191e-001
3.833792e+003, 2.329555e-001
3.835720e+003, 2.326197e-001
3.837649e+003, 2.331679e-001
3.839577e+003, 2.333779e-001
3.841506e+003, 2.328981e-001
3.843434e+003, 2.325812e-001
3.845363e+003, 2.323799e-001
3.847291e+003, 2.321496e-001
3.849219e+003, 2.321030e-001
3.851148e+003, 2.333692e-001
3.853076e+003, 2.337270e-001
3.855005e+003, 2.336852e-001
3.856933e+003, 2.335776e-001
3.858862e+003, 2.335904e-001
3.860790e+003, 2.339379e-001
3.862719e+003, 2.332726e-001
3.864647e+003, 2.329419e-001
3.866576e+003, 2.335744e-001
3.868504e+003, 2.340967e-001
3.870433e+003, 2.337490e-001
3.872361e+003, 2.334091e-001
3.874290e+003, 2.337638e-001
3.876218e+003, 2.343515e-001
3.878146e+003, 2.340797e-001
3.880075e+003, 2.338943e-001
3.882003e+003, 2.342199e-001
3.883932e+003, 2.344666e-001
3.885860e+003, 2.343394e-001
3.887789e+003, 2.343062e-001
3.889717e+003, 2.345125e-001
3.891646e+003, 2.346297e-001
3.893574e+003, 2.343930e-001
3.895503e+003, 2.346928e-001
3.897431e+003, 2.347584e-001
3.899360e+003, 2.342693e-001
3.901288e+003, 2.341000e-001
3.903217e+003, 2.342696e-001
3.905145e+003, 2.347052e-001
3.907073e+003, 2.350429e-001
3.909002e+003, 2.351240e-001
3.910930e+003, 2.353968e-001
3.912859e+003, 2.352543e-001
3.914787e+003, 2.351795e-001
3.916716e+003, 2.346754e-001
3.918644e+003, 2.343718e-001
3.920573e+003, 2.348212e-001
3.922501e+003, 2.350899e-001
3.924430e+003, 2.353571e-001
3.926358e+003, 2.349097e-001
3.928287e+003, 2.338919e-001
3.930215e+003, 2.344430e-001
3.932144e+003, 2.352197e-001
3.934072e+003, 2.354237e-001
3.936000e+003, 2.353019e-001
3.937929e+003, 2.351395e-001
3.939857e+003, 2.349185e-001
3.941786e+003, 2.350935e-001
3.943714e+003, 2.354318e-001
3.945643e+003, 2.357557e-001
3.947571e+003, 2.360294e-001
3.949500e+003, 2.362475e-001
3.951428e+003, 2.357659e-001
3.953357e+003, 2.355123e-001
3.955285e+003, 2.364514e-001
3.957214e+003, 2.369860e-001
3.959142e+003, 2.369348e-001
3.961071e+003, 2.367783e-001
3.962999e+003, 2.362737e-001
3.964927e+003, 2.364270e-001
3.966856e+003, 2.369718e-001
3.968784e+003, 2.362071e-001
3.970713e+003, 2.353695e-001
3.972641e+003, 2.357318e-001
3.974570e+003, 2.357709e-001
3.976498e+003, 2.364727e-001
3.978427e+003, 2.369609e-001
3.980355e+003, 2.375544e-001
3.982284e+003, 2.377848e-001
3.984212e+003, 2.374933e-001
3.986141e+003, 2.367084e-001
3.988069e+003, 2.365519e-001
3.989998e+003, 2.370225e-001
3.991926e+003, 2.371917e-001
3.993854e+003, 2.376607e-001
3.995783e+003, 2.371999e-001
3.997711e+003, 2.364724e-001
3.999640e+003, 2.368051e-001
##END=



