##NAMES=Ganomalite
##RRUFFID=R050387
##IDEAL CHEMISTRY=Pb^2+^_3_Ca_2_(SiO_4_)(Si_2_O_7_)
##LOCALITY=Sells, Pima County, Arizona, USA
##OWNER=RRUFF
##SOURCE=University of Arizona Mineral Museum
##DESCRIPTION=Yellowish-red massive
##STATUS=The identification of this mineral has been confirmed by single-crystal X-ray diffraction.
##URL=rruff.info/R050387
399.1926, 0.2594956
401.1211, 0.2705009
403.0496, 0.2718014
404.9780, 0.2696721
406.9065, 0.2672400
408.8350, 0.2701351
410.7634, 0.2747180
412.6919, 0.2733822
414.6204, 0.2802990
416.5488, 0.2825687
418.4773, 0.2797465
420.4058, 0.2813734
422.3342, 0.2831838
424.2627, 0.2860121
426.1912, 0.2883982
428.1196, 0.2896619
430.0481, 0.2817018
431.9766, 0.2755767
433.9050, 0.2681589
435.8335, 0.2627580
437.7620, 0.2605728
439.6904, 0.2586658
441.6189, 0.2527144
443.5474, 0.2503531
445.4758, 0.2486811
447.4043, 0.2469488
449.3328, 0.2431967
451.2612, 0.2415530
453.1897, 0.2444434
455.1182, 0.2476213
457.0466, 0.2493747
458.9751, 0.2499540
460.9036, 0.2490818
462.8320, 0.2459107
464.7605, 0.2405877
466.6890, 0.2381896
468.6174, 0.2341884
470.5459, 0.2288654
472.4744, 0.2239319
474.4028, 0.2181451
476.3313, 0.2124451
478.2598, 0.2073297
480.1882, 0.2019188
482.1167, 0.1962470
484.0452, 0.1912907
485.9736, 0.1874231
487.9021, 0.1833652
489.8306, 0.1796437
491.7590, 0.1775534
493.6875, 0.1762801
495.6160, 0.1744434
497.5444, 0.1724842
499.4729, 0.1707368
501.4014, 0.1697870
503.3298, 0.1688609
505.2583, 0.1680294
507.1868, 0.1642868
509.1152, 0.1603903
511.0437, 0.1578282
512.9722, 0.1549591
514.9006, 0.1529001
516.8291, 0.1516227
518.7576, 0.1508679
520.6860, 0.1492547
522.6145, 0.1443271
524.5430, 0.1368850
526.4714, 0.1283406
528.3999, 0.1190982
530.3284, 0.1105405
532.2568, 0.1036510
534.1853, 9.8361157E-02
536.1138, 9.3892217E-02
538.0422, 9.0607367E-02
539.9707, 8.7577812E-02
541.8992, 8.3982900E-02
543.8276, 8.0124572E-02
545.7561, 7.6947853E-02
547.6846, 7.5980738E-02
549.6130, 7.4655958E-02
551.5415, 7.2888300E-02
553.4700, 7.2086386E-02
555.3984, 7.1184583E-02
557.3269, 7.0421576E-02
559.2554, 6.9427177E-02
561.1838, 6.7188449E-02
563.1123, 6.5137327E-02
565.0408, 6.3391186E-02
566.9692, 6.2462829E-02
568.8977, 6.2627457E-02
570.8262, 6.2114149E-02
572.7546, 6.1417561E-02
574.6831, 6.0986631E-02
576.6116, 6.0283400E-02
578.5400, 5.9082162E-02
580.4685, 5.7364341E-02
582.3970, 5.5837300E-02
584.3254, 5.4796621E-02
586.2539, 5.4130081E-02
588.1824, 5.3204190E-02
590.1108, 5.2869450E-02
592.0393, 5.3626109E-02
593.9678, 5.4457359E-02
595.8962, 5.5288229E-02
597.8247, 5.6702569E-02
599.7532, 5.9181370E-02
601.6816, 6.1446302E-02
603.6101, 6.2671833E-02
605.5386, 6.3355193E-02
607.4670, 6.3584208E-02
609.3955, 6.3165434E-02
611.3240, 6.1743040E-02
613.2524, 5.9061751E-02
615.1809, 5.7759561E-02
617.1094, 5.8016479E-02
619.0378, 5.8379419E-02
620.9663, 5.8368631E-02
622.8948, 5.8411311E-02
624.8232, 5.8682270E-02
626.7517, 5.9194028E-02
628.6802, 6.0472932E-02
630.6086, 6.1566290E-02
632.5371, 6.2681749E-02
634.4656, 6.4415947E-02
636.3940, 6.5872163E-02
638.3225, 6.7230798E-02
640.2510, 6.8937413E-02
642.1794, 7.0594251E-02
644.1079, 7.2170220E-02
646.0364, 7.4048847E-02
647.9648, 7.5751707E-02
649.8933, 7.7422477E-02
651.8218, 7.8850687E-02
653.7502, 8.0453753E-02
655.6787, 8.1683993E-02
657.6072, 8.3623223E-02
659.5356, 8.6705931E-02
661.4641, 8.9504957E-02
663.3926, 9.2235222E-02
665.3210, 9.5626317E-02
667.2495, 9.9422187E-02
669.1780, 0.1027095
671.1064, 0.1054302
673.0349, 0.1086136
674.9634, 0.1122372
676.8918, 0.1166884
678.8203, 0.1212564
680.7488, 0.1245419
682.6772, 0.1247796
684.6057, 0.1222778
686.5342, 0.1195533
688.4626, 0.1194497
690.3911, 0.1204718
692.3196, 0.1207956
694.2480, 0.1203078
696.1765, 0.1200706
698.1050, 0.1220242
700.0334, 0.1266390
701.9619, 0.1318292
703.8904, 0.1352131
705.8188, 0.1357776
707.7473, 0.1339075
709.6758, 0.1304655
711.6042, 0.1265889
713.5327, 0.1236559
715.4612, 0.1219718
717.3896, 0.1202263
719.3181, 0.1179895
721.2466, 0.1164604
723.1750, 0.1150806
725.1035, 0.1142553
727.0320, 0.1147422
728.9604, 0.1159267
730.8889, 0.1176166
732.8174, 0.1199089
734.7458, 0.1227663
736.6743, 0.1262103
738.6028, 0.1299476
740.5313, 0.1336833
742.4597, 0.1375523
744.3882, 0.1413889
746.3167, 0.1454630
748.2451, 0.1499939
750.1736, 0.1549074
752.1021, 0.1598267
754.0305, 0.1646202
755.9590, 0.1699539
757.8875, 0.1757400
759.8159, 0.1813157
761.7444, 0.1872701
763.6729, 0.1933898
765.6013, 0.1993421
767.5298, 0.2041781
769.4583, 0.2088985
771.3867, 0.2143658
773.3152, 0.2201948
775.2437, 0.2263278
777.1721, 0.2327269
779.1006, 0.2392704
781.0291, 0.2464762
782.9575, 0.2537497
784.8860, 0.2606364
786.8145, 0.2673293
788.7429, 0.2747191
790.6714, 0.2822113
792.5999, 0.2897790
794.5283, 0.2969094
796.4568, 0.3026263
798.3853, 0.3061364
800.3137, 0.3082273
802.2422, 0.3083400
804.1707, 0.3056779
806.0991, 0.3009819
808.0276, 0.2967192
809.9561, 0.2938725
811.8845, 0.2927063
813.8130, 0.2937350
815.7415, 0.2964014
817.6699, 0.2996026
819.5984, 0.3032538
821.5269, 0.3070132
823.4553, 0.3102898
825.3838, 0.3130175
827.3123, 0.3160238
829.2407, 0.3185229
831.1692, 0.3198491
833.0977, 0.3203362
835.0261, 0.3203261
836.9546, 0.3191000
838.8831, 0.3174632
840.8115, 0.3159408
842.7400, 0.3138203
844.6685, 0.3121574
846.5969, 0.3113963
848.5254, 0.3116835
850.4539, 0.3122218
852.3823, 0.3132406
854.3108, 0.3155613
856.2393, 0.3185582
858.1677, 0.3210278
860.0962, 0.3233176
862.0247, 0.3258765
863.9531, 0.3280228
865.8816, 0.3297832
867.8101, 0.3300363
869.7385, 0.3296165
871.6670, 0.3291689
873.5955, 0.3286147
875.5239, 0.3279949
877.4524, 0.3268938
879.3809, 0.3255313
881.3093, 0.3238963
883.2378, 0.3219441
885.1663, 0.3196841
887.0947, 0.3164576
889.0232, 0.3136211
890.9517, 0.3107039
892.8801, 0.3069857
894.8085, 0.3029632
896.7370, 0.2985528
898.6655, 0.2938648
900.5939, 0.2883407
902.5224, 0.2818437
904.4509, 0.2756826
906.3793, 0.2689895
908.3078, 0.2614041
910.2363, 0.2536207
912.1647, 0.2460670
914.0932, 0.2384804
916.0217, 0.2311482
917.9501, 0.2239811
919.8786, 0.2175892
921.8071, 0.2130232
923.7355, 0.2101936
925.6640, 0.2084478
927.5925, 0.2068839
929.5209, 0.2054814
931.4494, 0.2041679
933.3779, 0.2028362
935.3063, 0.2015459
937.2348, 0.1996496
939.1633, 0.1969239
941.0917, 0.1940770
943.0202, 0.1907201
944.9487, 0.1863904
946.8771, 0.1820924
948.8056, 0.1781431
950.7341, 0.1745588
952.6625, 0.1710137
954.5910, 0.1676167
956.5195, 0.1642685
958.4479, 0.1615394
960.3764, 0.1592092
962.3049, 0.1572218
964.2333, 0.1553868
966.1618, 0.1533635
968.0903, 0.1512490
970.0187, 0.1491039
971.9472, 0.1464718
973.8757, 0.1433397
975.8041, 0.1400833
977.7326, 0.1365990
979.6611, 0.1327100
981.5895, 0.1288958
983.5180, 0.1252114
985.4465, 0.1215827
987.3749, 0.1180609
989.3034, 0.1147739
991.2319, 0.1115901
993.1603, 0.1086977
995.0888, 0.1064917
997.0173, 0.1047562
998.9457, 0.1034487
1000.874, 0.1020756
1002.803, 0.1007469
1004.731, 0.1002295
1006.660, 9.9716917E-02
1008.588, 9.9234708E-02
1010.517, 9.9408567E-02
1012.445, 9.9831648E-02
1014.373, 9.9958837E-02
1016.302, 0.1003206
1018.230, 0.1006968
1020.159, 0.1012893
1022.087, 0.1017475
1024.016, 0.1019252
1025.944, 0.1023832
1027.873, 0.1026956
1029.801, 0.1021292
1031.730, 0.1010631
1033.658, 9.9472754E-02
1035.587, 9.6933320E-02
1037.515, 9.3862452E-02
1039.444, 9.0806209E-02
1041.372, 8.7800562E-02
1043.301, 8.4980063E-02
1045.229, 8.2018062E-02
1047.157, 7.8938119E-02
1049.086, 7.6383993E-02
1051.014, 7.4234411E-02
1052.943, 7.2237812E-02
1054.871, 7.0474409E-02
1056.800, 6.9207698E-02
1058.728, 6.8268009E-02
1060.657, 6.7450941E-02
1062.585, 6.6902667E-02
1064.514, 6.6690482E-02
1066.442, 6.6406600E-02
1068.371, 6.6304661E-02
1070.299, 6.6423163E-02
1072.228, 6.6334277E-02
1074.156, 6.5908574E-02
1076.084, 6.5403111E-02
1078.013, 6.4920671E-02
1079.941, 6.4393252E-02
1081.870, 6.4127311E-02
1083.798, 6.3256212E-02
1085.727, 6.2299069E-02
1087.655, 6.1857238E-02
1089.584, 6.1225459E-02
1091.512, 6.0400158E-02
1093.441, 5.9413619E-02
1095.369, 5.8520541E-02
1097.298, 5.7640981E-02
1099.226, 5.6694690E-02
1101.155, 5.5941001E-02
1103.083, 5.5278230E-02
1105.011, 5.4562651E-02
1106.940, 5.3463649E-02
1108.868, 5.2320771E-02
1110.797, 5.1374432E-02
1112.725, 5.0618280E-02
1114.654, 4.9901471E-02
1116.582, 4.9092840E-02
1118.511, 4.8047408E-02
1120.439, 4.7021531E-02
1122.368, 4.6097200E-02
1124.296, 4.5417748E-02
1126.225, 4.5088209E-02
1128.153, 4.4745281E-02
1130.082, 4.4484451E-02
1132.010, 4.3818071E-02
1133.938, 4.3207821E-02
1135.867, 4.2939909E-02
1137.795, 4.2819221E-02
1139.724, 4.2687450E-02
1141.652, 4.2372551E-02
1143.581, 4.2288810E-02
1145.509, 4.2189419E-02
1147.438, 4.1941270E-02
1149.366, 4.1878261E-02
1151.295, 4.2061958E-02
1153.223, 4.2186070E-02
1155.152, 4.2210411E-02
1157.080, 4.1856050E-02
1159.009, 4.1858159E-02
1160.937, 4.2340260E-02
1162.865, 4.2676091E-02
1164.794, 4.2657681E-02
1166.722, 4.2541139E-02
1168.651, 4.2703770E-02
1170.579, 4.3252010E-02
1172.508, 4.3410420E-02
1174.436, 4.3309540E-02
1176.365, 4.3473721E-02
1178.293, 4.3897759E-02
1180.222, 4.4121701E-02
1182.150, 4.4484850E-02
1184.079, 4.4612531E-02
1186.007, 4.4957329E-02
1187.936, 4.5234360E-02
1189.864, 4.5459270E-02
1191.792, 4.5788970E-02
1193.721, 4.6047091E-02
1195.649, 4.6332810E-02
1197.578, 4.6612181E-02
1199.506, 4.6880499E-02
1201.435, 4.7139060E-02
1203.363, 4.7384471E-02
1205.292, 4.7529120E-02
1207.220, 4.7766291E-02
1209.149, 4.8319720E-02
1211.077, 4.8570111E-02
1213.006, 4.8631050E-02
1214.934, 4.8837818E-02
1216.863, 4.9217969E-02
1218.791, 4.9472939E-02
1220.719, 4.9387760E-02
1222.648, 4.9597379E-02
1224.576, 4.9934361E-02
1226.505, 5.0027382E-02
1228.433, 5.0385509E-02
1230.362, 5.0926689E-02
1232.290, 5.1364869E-02
1234.219, 5.1728010E-02
1236.147, 5.2041691E-02
1238.076, 5.2308369E-02
1240.004, 5.2728351E-02
1241.933, 5.3188719E-02
1243.861, 5.3462651E-02
1245.790, 5.3765889E-02
1247.718, 5.4053720E-02
1249.646, 5.4384999E-02
1251.575, 5.4856420E-02
1253.503, 5.5376992E-02
1255.432, 5.5971429E-02
1257.360, 5.6218561E-02
1259.289, 5.6568239E-02
1261.217, 5.6925438E-02
1263.146, 5.7338599E-02
1265.074, 5.8184780E-02
1267.003, 5.8846202E-02
1268.931, 5.9317000E-02
1270.860, 5.9853941E-02
1272.788, 6.0312688E-02
1274.717, 6.0803581E-02
1276.645, 6.1448321E-02
1278.573, 6.1993498E-02
1280.502, 6.2606148E-02
1282.430, 6.3152581E-02
1284.359, 6.3450448E-02
1286.287, 6.3748822E-02
1288.216, 6.4472973E-02
1290.144, 6.5338530E-02
1292.073, 6.6033423E-02
1294.001, 6.6513121E-02
1295.930, 6.6814907E-02
1297.858, 6.7337088E-02
1299.787, 6.8230473E-02
1301.715, 6.9158770E-02
1303.644, 7.0017941E-02
1305.572, 7.0823543E-02
1307.500, 7.1542293E-02
1309.429, 7.2282299E-02
1311.357, 7.3243961E-02
1313.286, 7.4441813E-02
1315.214, 7.5428382E-02
1317.143, 7.5982757E-02
1319.071, 7.6510608E-02
1321.000, 7.7536471E-02
1322.928, 7.8545980E-02
1324.857, 7.9506621E-02
1326.785, 8.0403604E-02
1328.714, 8.1230372E-02
1330.642, 8.2103968E-02
1332.571, 8.3342440E-02
1334.499, 8.4550351E-02
1336.427, 8.5434914E-02
1338.356, 8.6099572E-02
1340.284, 8.7288544E-02
1342.213, 8.8423200E-02
1344.141, 8.9583032E-02
1346.070, 9.0726659E-02
1347.998, 9.1931313E-02
1349.927, 9.2912041E-02
1351.855, 9.4192043E-02
1353.784, 9.5599853E-02
1355.712, 9.6553840E-02
1357.641, 9.7276881E-02
1359.569, 9.8236188E-02
1361.498, 9.9472307E-02
1363.426, 0.1007911
1365.354, 0.1017307
1367.283, 0.1027969
1369.211, 0.1039296
1371.140, 0.1050699
1373.068, 0.1062399
1374.997, 0.1073657
1376.925, 0.1086168
1378.854, 0.1103715
1380.782, 0.1121667
1382.711, 0.1140641
1384.639, 0.1165207
1386.568, 0.1188828
1388.496, 0.1212105
1390.424, 0.1237886
1392.353, 0.1262166
1394.281, 0.1284786
1396.210, 0.1303583
1398.138, 0.1317363
1400.067, 0.1326324
1401.995, 0.1328308
1403.924, 0.1326685
1405.852, 0.1329646
1407.781, 0.1331036
1409.709, 0.1324075
1411.638, 0.1318951
1413.566, 0.1314403
1415.495, 0.1307821
1417.423, 0.1302298
1419.351, 0.1295778
1421.280, 0.1288316
1423.208, 0.1280563
1425.137, 0.1271708
1427.065, 0.1265426
1428.994, 0.1259282
1430.922, 0.1249145
1432.851, 0.1237558
1434.779, 0.1228478
1436.708, 0.1220371
1438.636, 0.1210895
1440.565, 0.1195810
1442.493, 0.1179940
1444.422, 0.1165878
1446.350, 0.1150764
1448.278, 0.1136726
1450.207, 0.1122554
1452.135, 0.1109661
1454.064, 0.1096927
1455.992, 0.1084137
1457.921, 0.1068380
1459.849, 0.1049400
1461.778, 0.1036946
1463.706, 0.1028275
1465.635, 0.1013952
1467.563, 9.9966653E-02
1469.492, 9.8922387E-02
1471.420, 9.8260313E-02
1473.349, 9.7433232E-02
1475.277, 9.6249267E-02
1477.205, 9.4906479E-02
1479.134, 9.4005808E-02
1481.062, 9.3716197E-02
1482.991, 9.3208648E-02
1484.919, 9.2407517E-02
1486.848, 9.1712452E-02
1488.776, 9.1115907E-02
1490.705, 9.0794601E-02
1492.633, 9.0463012E-02
1494.562, 9.0091102E-02
1496.490, 8.9905567E-02
1498.419, 9.0000838E-02
1500.347, 9.0220049E-02
1502.276, 8.9997843E-02
1504.204, 8.9493081E-02
1506.132, 8.9253493E-02
1508.061, 8.9498132E-02
1509.989, 8.9605004E-02
1511.918, 8.9582652E-02
1513.846, 8.9505501E-02
1515.775, 8.9409679E-02
1517.703, 8.9729160E-02
1519.632, 9.0372853E-02
1521.560, 9.0715997E-02
1523.489, 9.0704463E-02
1525.417, 9.0813257E-02
1527.346, 9.0813197E-02
1529.274, 9.0749621E-02
1531.203, 9.0888143E-02
1533.131, 9.1177747E-02
1535.059, 9.1195911E-02
1536.988, 9.1525123E-02
1538.916, 9.1938868E-02
1540.845, 9.2019401E-02
1542.773, 9.2091039E-02
1544.702, 9.2483558E-02
1546.630, 9.2574097E-02
1548.559, 9.2807896E-02
1550.487, 9.2855424E-02
1552.416, 9.3026832E-02
1554.344, 9.3212686E-02
1556.273, 9.3466192E-02
1558.201, 9.4040141E-02
1560.130, 9.4109707E-02
1562.058, 9.4118290E-02
1563.986, 9.4228953E-02
1565.915, 9.4175771E-02
1567.843, 9.4183341E-02
1569.772, 9.4522253E-02
1571.700, 9.4770469E-02
1573.629, 9.4898857E-02
1575.557, 9.5133737E-02
1577.486, 9.5150791E-02
1579.414, 9.5121130E-02
1581.343, 9.5388547E-02
1583.271, 9.5877297E-02
1585.200, 9.6099883E-02
1587.128, 9.6246190E-02
1589.057, 9.6413814E-02
1590.985, 9.6709237E-02
1592.913, 9.7103707E-02
1594.842, 9.7191527E-02
1596.770, 9.7304747E-02
1598.699, 9.7491883E-02
1600.627, 9.7963780E-02
1602.556, 9.8580301E-02
1604.484, 9.8905072E-02
1606.413, 9.8998807E-02
1608.341, 9.8822057E-02
1610.270, 9.9095203E-02
1612.198, 9.9575579E-02
1614.127, 9.9961087E-02
1616.055, 0.1000158
1617.984, 0.1000812
1619.912, 0.1001191
1621.840, 0.1004739
1623.769, 0.1008884
1625.697, 0.1009975
1627.626, 0.1013106
1629.554, 0.1013976
1631.483, 0.1013051
1633.411, 0.1018720
1635.340, 0.1022256
1637.268, 0.1024059
1639.197, 0.1029417
1641.125, 0.1032995
1643.054, 0.1033974
1644.982, 0.1033697
1646.911, 0.1033265
1648.839, 0.1035662
1650.767, 0.1036296
1652.696, 0.1037654
1654.624, 0.1041891
1656.553, 0.1047236
1658.481, 0.1050501
1660.410, 0.1053895
1662.338, 0.1053384
1664.267, 0.1051929
1666.195, 0.1049663
1668.124, 0.1049527
1670.052, 0.1055443
1671.981, 0.1059785
1673.909, 0.1059854
1675.838, 0.1060719
1677.766, 0.1060899
1679.694, 0.1064586
1681.623, 0.1071046
1683.551, 0.1072088
1685.480, 0.1069874
1687.408, 0.1071809
1689.337, 0.1072097
1691.265, 0.1072694
1693.194, 0.1075276
1695.122, 0.1077853
1697.051, 0.1077666
1698.979, 0.1081048
1700.908, 0.1087354
1702.836, 0.1087842
1704.765, 0.1086933
1706.693, 0.1082945
1708.621, 0.1081846
1710.550, 0.1084157
1712.478, 0.1089728
1714.407, 0.1094014
1716.335, 0.1097397
1718.264, 0.1102764
1720.192, 0.1106331
1722.121, 0.1110768
1724.049, 0.1109263
1725.978, 0.1110088
1727.906, 0.1116555
1729.835, 0.1114645
1731.763, 0.1108266
1733.692, 0.1108139
1735.620, 0.1111195
1737.548, 0.1113371
1739.477, 0.1114961
1741.405, 0.1110475
1743.334, 0.1111810
1745.262, 0.1111529
1747.191, 0.1109921
1749.119, 0.1115072
1751.048, 0.1121435
1752.976, 0.1125361
1754.905, 0.1128384
1756.833, 0.1131846
1758.762, 0.1130891
1760.690, 0.1130524
1762.619, 0.1135041
1764.547, 0.1141569
1766.475, 0.1142749
1768.404, 0.1145848
1770.332, 0.1146972
1772.261, 0.1142983
1774.189, 0.1143081
1776.118, 0.1143252
1778.046, 0.1145454
1779.975, 0.1155912
1781.903, 0.1165677
1783.832, 0.1160289
1785.760, 0.1157895
1787.689, 0.1161506
1789.617, 0.1163101
1791.546, 0.1165065
1793.474, 0.1166792
1795.402, 0.1165844
1797.331, 0.1166827
1799.259, 0.1169460
1801.188, 0.1174077
1803.116, 0.1182435
1805.045, 0.1185129
1806.973, 0.1182849
1808.902, 0.1179096
1810.830, 0.1177280
1812.759, 0.1178920
1814.687, 0.1179821
1816.616, 0.1181574
1818.544, 0.1191304
1820.473, 0.1193482
1822.401, 0.1195312
1824.329, 0.1194457
1826.258, 0.1195818
1828.186, 0.1204531
1830.115, 0.1205506
1832.043, 0.1205454
1833.972, 0.1209042
1835.900, 0.1209388
1837.829, 0.1212083
1839.757, 0.1219174
1841.686, 0.1224336
1843.614, 0.1228508
1845.543, 0.1228117
1847.471, 0.1219617
1849.400, 0.1224467
1851.328, 0.1232866
1853.256, 0.1240970
1855.185, 0.1239443
1857.113, 0.1236980
1859.042, 0.1231581
1860.970, 0.1228902
1862.899, 0.1229061
1864.827, 0.1235455
1866.756, 0.1244769
1868.684, 0.1246829
1870.613, 0.1247236
1872.541, 0.1249627
1874.470, 0.1247503
1876.398, 0.1242061
1878.327, 0.1239982
1880.255, 0.1245751
1882.183, 0.1250277
1884.112, 0.1252925
1886.040, 0.1255521
1887.969, 0.1263584
1889.897, 0.1261735
1891.826, 0.1268897
1893.754, 0.1270863
1895.683, 0.1259671
1897.611, 0.1253961
1899.540, 0.1256839
1901.468, 0.1270888
1903.397, 0.1280201
1905.325, 0.1281868
1907.254, 0.1282416
1909.182, 0.1275403
1911.110, 0.1268950
1913.039, 0.1272276
1914.967, 0.1271052
1916.896, 0.1280167
1918.824, 0.1293239
1920.753, 0.1293806
1922.681, 0.1291523
1924.610, 0.1289212
1926.538, 0.1288463
1928.467, 0.1282667
1930.395, 0.1284638
1932.324, 0.1293115
1934.252, 0.1297624
1936.181, 0.1293404
1938.109, 0.1289982
1940.037, 0.1289481
1941.966, 0.1291384
1943.894, 0.1302876
1945.823, 0.1305190
1947.751, 0.1304330
1949.680, 0.1289563
1951.608, 0.1303625
1953.537, 0.1304836
1955.465, 0.1283077
1957.394, 0.1288212
1959.322, 0.1303930
1961.251, 0.1318024
1963.179, 0.1308907
1965.108, 0.1303815
1967.036, 0.1292661
1968.964, 0.1310183
1970.893, 0.1340836
1972.821, 0.1341571
1974.750, 0.1344294
1976.678, 0.1365799
1978.607, 0.1380450
1980.535, 0.1384284
1982.464, 0.1375905
1984.392, 0.1387273
1986.321, 0.1388092
1988.249, 0.1372269
1990.178, 0.1359826
1992.106, 0.1350970
1994.035, 0.1344920
1995.963, 0.1366108
1997.891, 0.1377456
1999.820, 0.1367234
2001.748, 0.1348579
2003.677, 0.1315458
2005.605, 0.1312617
2007.534, 0.1320937
2009.462, 0.1337103
2011.391, 0.1362704
2013.319, 0.1396562
2015.248, 0.1419877
2017.176, 0.1389703
2019.105, 0.1361609
2021.033, 0.1339687
2022.962, 0.1350931
2024.890, 0.1361595
2026.818, 0.1372447
2028.747, 0.1389951
2030.675, 0.1398797
2032.604, 0.1387299
2034.532, 0.1370728
2036.461, 0.1371971
2038.389, 0.1373589
2040.318, 0.1387300
2042.246, 0.1405713
2044.175, 0.1396093
2046.103, 0.1405897
2048.032, 0.1424403
2049.960, 0.1431386
2051.889, 0.1430064
2053.817, 0.1430492
2055.746, 0.1420805
2057.674, 0.1416932
2059.603, 0.1431135
2061.531, 0.1437098
2063.459, 0.1435898
2065.388, 0.1442863
2067.316, 0.1447828
2069.245, 0.1440392
2071.173, 0.1443105
2073.102, 0.1466350
2075.030, 0.1483978
2076.959, 0.1473966
2078.887, 0.1473000
2080.816, 0.1483602
2082.744, 0.1465061
2084.673, 0.1448489
2086.601, 0.1454928
2088.530, 0.1466532
2090.458, 0.1472404
2092.386, 0.1462616
2094.315, 0.1466776
2096.243, 0.1483867
2098.172, 0.1486166
2100.100, 0.1484616
2102.029, 0.1490119
2103.957, 0.1501938
2105.886, 0.1501836
2107.814, 0.1501057
2109.743, 0.1500278
2111.671, 0.1495967
2113.600, 0.1512125
2115.528, 0.1520626
2117.457, 0.1511439
2119.385, 0.1497400
2121.313, 0.1490914
2123.242, 0.1499923
2125.170, 0.1496783
2127.099, 0.1502453
2129.027, 0.1491400
2130.956, 0.1482493
2132.884, 0.1481164
2134.813, 0.1471962
2136.741, 0.1485098
2138.670, 0.1492806
2140.598, 0.1493515
2142.527, 0.1490011
2144.455, 0.1484222
2146.384, 0.1477963
2148.312, 0.1474019
2150.240, 0.1480531
2152.169, 0.1468155
2154.097, 0.1445581
2156.026, 0.1463977
2157.954, 0.1491824
2159.883, 0.1514359
2161.811, 0.1527287
2163.740, 0.1520551
2165.668, 0.1558905
2167.597, 0.1601027
2169.525, 0.1571180
2171.454, 0.1545864
2173.382, 0.1549978
2175.311, 0.1558830
2177.239, 0.1574552
2179.167, 0.1541595
2181.096, 0.1531335
2183.024, 0.1546888
2184.953, 0.1555806
2186.881, 0.1541174
2188.810, 0.1540979
2190.738, 0.1549605
2192.667, 0.1553266
2194.595, 0.1571341
2196.524, 0.1589894
2198.452, 0.1588849
2200.381, 0.1594978
2202.309, 0.1579987
2204.238, 0.1576426
2206.166, 0.1585170
2208.094, 0.1577593
2210.023, 0.1580222
2211.951, 0.1605149
2213.880, 0.1615987
2215.808, 0.1607658
2217.737, 0.1608779
2219.665, 0.1606939
2221.594, 0.1606897
2223.522, 0.1607720
2225.451, 0.1603657
2227.379, 0.1606178
2229.308, 0.1603195
2231.236, 0.1601989
2233.165, 0.1605900
2235.093, 0.1603583
2237.021, 0.1607408
2238.950, 0.1628816
2240.878, 0.1641576
2242.807, 0.1637329
2244.735, 0.1633267
2246.664, 0.1630939
2248.592, 0.1628187
2250.521, 0.1630375
2252.449, 0.1631435
2254.378, 0.1638141
2256.306, 0.1646858
2258.235, 0.1649905
2260.163, 0.1645806
2262.092, 0.1645678
2264.020, 0.1650881
2265.948, 0.1657363
2267.877, 0.1669416
2269.805, 0.1671812
2271.734, 0.1668310
2273.662, 0.1663918
2275.591, 0.1663814
2277.519, 0.1680709
2279.448, 0.1693636
2281.376, 0.1689617
2283.305, 0.1682340
2285.233, 0.1685744
2287.162, 0.1693684
2289.090, 0.1698577
2291.019, 0.1704951
2292.947, 0.1699390
2294.875, 0.1692460
2296.804, 0.1695141
2298.732, 0.1696663
2300.661, 0.1702839
2302.589, 0.1706672
2304.518, 0.1706288
2306.446, 0.1706208
2308.375, 0.1705922
2310.303, 0.1706208
2312.232, 0.1710147
2314.160, 0.1718688
2316.089, 0.1715903
2318.017, 0.1717809
2319.946, 0.1734006
2321.874, 0.1738931
2323.802, 0.1736814
2325.731, 0.1726588
2327.659, 0.1719181
2329.588, 0.1713612
2331.516, 0.1712723
2333.445, 0.1720399
2335.373, 0.1724838
2337.302, 0.1724942
2339.230, 0.1724541
2341.159, 0.1723943
2343.087, 0.1724542
2345.016, 0.1716850
2346.944, 0.1717661
2348.873, 0.1722987
2350.801, 0.1724253
2352.729, 0.1734962
2354.658, 0.1739350
2356.586, 0.1740590
2358.515, 0.1739011
2360.443, 0.1739748
2362.372, 0.1740725
2364.300, 0.1746645
2366.229, 0.1752709
2368.157, 0.1746947
2370.086, 0.1742853
2372.014, 0.1742996
2373.942, 0.1751494
2375.871, 0.1752906
2377.799, 0.1749961
2379.728, 0.1745676
2381.656, 0.1752948
2383.585, 0.1766503
2385.513, 0.1766783
2387.442, 0.1772866
2389.370, 0.1774555
2391.299, 0.1765873
2393.227, 0.1763239
2395.156, 0.1762738
2397.084, 0.1764599
2399.012, 0.1762313
2400.941, 0.1755482
2402.869, 0.1761517
2404.798, 0.1774595
2406.726, 0.1781071
2408.655, 0.1783124
2410.583, 0.1795270
2412.512, 0.1799583
2414.440, 0.1795642
2416.369, 0.1792859
2418.297, 0.1800738
2420.226, 0.1799454
2422.154, 0.1793263
2424.083, 0.1806117
2426.011, 0.1814872
2427.939, 0.1815977
2429.868, 0.1812164
2431.796, 0.1806928
2433.725, 0.1798164
2435.653, 0.1797009
2437.582, 0.1819812
2439.510, 0.1833164
2441.439, 0.1826802
2443.367, 0.1827664
2445.296, 0.1827103
2447.224, 0.1824118
2449.153, 0.1825666
2451.081, 0.1828623
2453.010, 0.1825249
2454.938, 0.1824876
2456.866, 0.1823499
2458.795, 0.1822426
2460.723, 0.1837196
2462.652, 0.1841394
2464.580, 0.1838774
2466.509, 0.1840541
2468.437, 0.1835231
2470.366, 0.1836055
2472.294, 0.1838837
2474.223, 0.1838508
2476.151, 0.1842818
2478.080, 0.1855012
2480.008, 0.1864214
2481.937, 0.1867315
2483.865, 0.1858790
2485.793, 0.1853045
2487.722, 0.1861398
2489.650, 0.1866475
2491.579, 0.1861019
2493.507, 0.1861779
2495.436, 0.1860700
2497.364, 0.1859001
2499.293, 0.1863868
2501.221, 0.1865592
2503.150, 0.1869304
2505.078, 0.1871402
2507.007, 0.1879582
2508.935, 0.1872419
2510.864, 0.1870495
2512.792, 0.1871341
2514.720, 0.1866414
2516.649, 0.1875799
2518.577, 0.1881596
2520.506, 0.1891607
2522.434, 0.1896302
2524.363, 0.1895622
2526.291, 0.1901876
2528.220, 0.1894878
2530.148, 0.1883262
2532.077, 0.1884126
2534.005, 0.1897105
2535.934, 0.1909319
2537.862, 0.1902392
2539.791, 0.1901196
2541.719, 0.1904684
2543.647, 0.1897372
2545.576, 0.1897742
2547.504, 0.1897243
2549.433, 0.1893888
2551.361, 0.1909795
2553.290, 0.1912429
2555.218, 0.1898138
2557.147, 0.1895801
2559.075, 0.1912058
2561.004, 0.1925164
2562.932, 0.1919111
2564.861, 0.1918488
2566.789, 0.1919078
2568.718, 0.1916189
2570.646, 0.1913125
2572.574, 0.1915702
2574.503, 0.1936271
2576.431, 0.1940738
2578.360, 0.1936091
2580.288, 0.1932192
2582.217, 0.1929762
2584.145, 0.1934554
2586.074, 0.1946101
2588.002, 0.1957448
2589.931, 0.1959443
2591.859, 0.1950318
2593.788, 0.1946918
2595.716, 0.1947675
2597.645, 0.1943931
2599.573, 0.1933468
2601.501, 0.1945431
2603.430, 0.1964635
2605.358, 0.1967118
2607.287, 0.1966219
2609.215, 0.1963923
2611.144, 0.1962495
2613.072, 0.1965860
2615.001, 0.1972182
2616.929, 0.1981147
2618.858, 0.1989716
2620.786, 0.2000816
2622.715, 0.1997213
2624.643, 0.1998117
2626.572, 0.1991931
2628.500, 0.1982793
2630.428, 0.1992331
2632.357, 0.1995194
2634.285, 0.1985822
2636.214, 0.1981770
2638.142, 0.1989673
2640.071, 0.1995562
2641.999, 0.1996833
2643.928, 0.1993590
2645.856, 0.2003619
2647.785, 0.2007040
2649.713, 0.2003083
2651.642, 0.2002103
2653.570, 0.1997234
2655.499, 0.1993181
2657.427, 0.1994177
2659.355, 0.1997169
2661.284, 0.2011260
2663.212, 0.2020355
2665.141, 0.2013171
2667.069, 0.2007470
2668.998, 0.2011390
2670.926, 0.2023045
2672.855, 0.2014695
2674.783, 0.2008020
2676.712, 0.2020810
2678.640, 0.2018648
2680.569, 0.2014664
2682.497, 0.2019226
2684.426, 0.2016126
2686.354, 0.2017796
2688.282, 0.2021336
2690.211, 0.2028272
2692.139, 0.2030853
2694.068, 0.2026328
2695.996, 0.2029193
2697.925, 0.2033022
2699.853, 0.2029182
2701.782, 0.2032878
2703.710, 0.2040219
2705.639, 0.2040540
2707.567, 0.2041190
2709.496, 0.2046131
2711.424, 0.2048921
2713.353, 0.2054594
2715.281, 0.2062414
2717.209, 0.2062792
2719.138, 0.2062644
2721.066, 0.2063950
2722.995, 0.2057323
2724.923, 0.2053117
2726.852, 0.2058196
2728.780, 0.2061106
2730.709, 0.2070417
2732.637, 0.2072907
2734.566, 0.2067892
2736.494, 0.2069755
2738.423, 0.2073469
2740.351, 0.2076245
2742.280, 0.2072688
2744.208, 0.2075063
2746.136, 0.2084444
2748.065, 0.2088735
2749.993, 0.2093774
2751.922, 0.2095164
2753.850, 0.2090385
2755.779, 0.2090755
2757.707, 0.2087349
2759.636, 0.2085570
2761.564, 0.2096763
2763.493, 0.2102158
2765.421, 0.2106336
2767.350, 0.2107395
2769.278, 0.2095907
2771.207, 0.2099568
2773.135, 0.2103393
2775.063, 0.2101256
2776.992, 0.2106266
2778.920, 0.2104651
2780.849, 0.2104673
2782.777, 0.2111623
2784.706, 0.2111234
2786.634, 0.2114557
2788.563, 0.2113945
2790.491, 0.2113031
2792.420, 0.2113546
2794.348, 0.2116456
2796.277, 0.2115974
2798.205, 0.2121652
2800.134, 0.2124757
2802.062, 0.2123263
2803.990, 0.2125084
2805.919, 0.2127066
2807.847, 0.2127529
2809.776, 0.2125337
2811.704, 0.2135724
2813.633, 0.2141960
2815.561, 0.2137346
2817.490, 0.2135894
2819.418, 0.2143419
2821.347, 0.2144916
2823.275, 0.2149493
2825.204, 0.2151917
2827.132, 0.2152335
2829.061, 0.2153227
2830.989, 0.2150995
2832.917, 0.2154003
2834.846, 0.2160808
2836.774, 0.2164339
2838.703, 0.2162976
2840.631, 0.2165965
2842.560, 0.2167640
2844.488, 0.2168242
2846.417, 0.2168528
2848.345, 0.2170988
2850.274, 0.2172170
2852.202, 0.2152500
2854.131, 0.2125257
2856.059, 0.2131619
2857.988, 0.2150465
2859.916, 0.2165053
2861.844, 0.2160712
2863.773, 0.2157322
2865.701, 0.2160082
2867.630, 0.2167787
2869.558, 0.2173179
2871.487, 0.2167737
2873.415, 0.2161547
2875.344, 0.2158820
2877.272, 0.2170959
2879.201, 0.2182853
2881.129, 0.2184782
2883.058, 0.2175751
2884.986, 0.2179916
2886.915, 0.2194641
2888.843, 0.2193642
2890.771, 0.2181598
2892.700, 0.2186070
2894.628, 0.2190457
2896.557, 0.2188213
2898.485, 0.2194339
2900.414, 0.2187034
2902.342, 0.2186644
2904.271, 0.2192912
2906.199, 0.2192192
2908.128, 0.2188736
2910.056, 0.2197626
2911.985, 0.2218304
2913.913, 0.2231096
2915.842, 0.2224538
2917.770, 0.2216442
2919.698, 0.2220009
2921.627, 0.2223692
2923.555, 0.2211257
2925.484, 0.2206263
2927.412, 0.2199378
2929.341, 0.2197054
2931.269, 0.2202966
2933.198, 0.2194690
2935.126, 0.2189781
2937.055, 0.2202764
2938.983, 0.2220046
2940.912, 0.2236573
2942.840, 0.2229698
2944.769, 0.2221338
2946.697, 0.2237879
2948.625, 0.2249815
2950.554, 0.2238772
2952.482, 0.2228777
2954.411, 0.2231397
2956.339, 0.2227813
2958.268, 0.2228305
2960.196, 0.2231314
2962.125, 0.2237699
2964.053, 0.2238294
2965.982, 0.2229863
2967.910, 0.2228666
2969.839, 0.2229562
2971.767, 0.2238540
2973.696, 0.2244129
2975.624, 0.2246165
2977.552, 0.2246629
2979.481, 0.2236873
2981.409, 0.2239901
2983.338, 0.2250929
2985.266, 0.2264197
2987.195, 0.2264777
2989.123, 0.2255473
2991.052, 0.2253895
2992.980, 0.2254373
2994.909, 0.2266053
2996.837, 0.2270837
2998.766, 0.2260378
3000.694, 0.2261865
3002.623, 0.2271202
3004.551, 0.2277754
3006.479, 0.2289585
3008.408, 0.2299891
3010.336, 0.2288716
3012.265, 0.2291963
3014.193, 0.2304904
3016.122, 0.2293424
3018.050, 0.2294866
3019.979, 0.2300199
3021.907, 0.2303014
3023.836, 0.2319057
3025.764, 0.2321933
3027.693, 0.2319235
3029.621, 0.2316785
3031.550, 0.2307977
3033.478, 0.2307921
3035.406, 0.2332982
3037.335, 0.2355558
3039.263, 0.2351049
3041.192, 0.2337592
3043.120, 0.2333089
3045.049, 0.2339067
3046.977, 0.2334304
3048.906, 0.2334429
3050.834, 0.2332909
3052.763, 0.2325214
3054.691, 0.2347223
3056.620, 0.2363856
3058.548, 0.2353457
3060.477, 0.2362220
3062.405, 0.2372440
3064.333, 0.2355086
3066.262, 0.2346736
3068.190, 0.2362326
3070.119, 0.2368207
3072.047, 0.2367804
3073.976, 0.2359664
3075.904, 0.2366288
3077.833, 0.2384300
3079.761, 0.2366465
3081.690, 0.2351713
3083.618, 0.2356223
3085.547, 0.2361664
3087.475, 0.2380709
3089.404, 0.2392371
3091.332, 0.2384367
3093.260, 0.2389448
3095.189, 0.2384685
3097.117, 0.2376832
3099.046, 0.2369611
3100.974, 0.2371195
3102.903, 0.2389351
3104.831, 0.2408429
3106.760, 0.2401235
3108.688, 0.2400395
3110.617, 0.2400834
3112.545, 0.2417613
3114.474, 0.2428677
3116.402, 0.2405088
3118.331, 0.2398667
3120.259, 0.2398102
3122.188, 0.2395050
3124.116, 0.2406003
3126.044, 0.2419878
3127.973, 0.2418011
3129.901, 0.2415410
3131.830, 0.2425168
3133.758, 0.2429424
3135.687, 0.2423972
3137.615, 0.2423774
3139.544, 0.2428427
3141.472, 0.2433110
3143.401, 0.2424948
3145.329, 0.2428318
3147.258, 0.2434605
3149.186, 0.2440054
3151.115, 0.2447020
3153.043, 0.2449750
3154.971, 0.2440839
3156.900, 0.2430753
3158.828, 0.2437112
3160.757, 0.2447860
3162.685, 0.2456404
3164.614, 0.2478264
3166.542, 0.2484283
3168.471, 0.2476191
3170.399, 0.2458545
3172.328, 0.2445599
3174.256, 0.2457486
3176.185, 0.2471516
3178.113, 0.2463303
3180.042, 0.2443771
3181.970, 0.2433730
3183.898, 0.2450853
3185.827, 0.2470979
3187.755, 0.2480557
3189.684, 0.2475516
3191.612, 0.2463538
3193.541, 0.2457279
3195.469, 0.2459437
3197.398, 0.2472354
3199.326, 0.2476385
3201.255, 0.2456268
3203.183, 0.2462446
3205.112, 0.2466303
3207.040, 0.2478278
3208.969, 0.2482328
3210.897, 0.2497894
3212.825, 0.2507763
3214.754, 0.2496991
3216.682, 0.2477288
3218.611, 0.2472001
3220.539, 0.2475675
3222.468, 0.2471161
3224.396, 0.2480984
3226.325, 0.2498698
3228.253, 0.2503866
3230.182, 0.2484061
3232.110, 0.2481658
3234.039, 0.2500254
3235.967, 0.2512780
3237.896, 0.2501323
3239.824, 0.2505921
3241.752, 0.2500495
3243.681, 0.2496527
3245.609, 0.2518468
3247.538, 0.2535696
3249.466, 0.2521573
3251.395, 0.2511420
3253.323, 0.2506494
3255.252, 0.2488623
3257.180, 0.2503350
3259.109, 0.2518396
3261.037, 0.2494132
3262.966, 0.2489496
3264.894, 0.2512940
3266.823, 0.2522709
3268.751, 0.2506897
3270.679, 0.2509361
3272.608, 0.2531603
3274.536, 0.2543172
3276.465, 0.2534948
3278.393, 0.2541420
3280.322, 0.2526534
3282.250, 0.2525038
3284.179, 0.2538442
3286.107, 0.2531497
3288.036, 0.2526211
3289.964, 0.2534281
3291.893, 0.2528816
3293.821, 0.2521687
3295.750, 0.2517006
3297.678, 0.2535558
3299.606, 0.2557682
3301.535, 0.2557783
3303.463, 0.2533326
3305.392, 0.2537653
3307.320, 0.2549035
3309.249, 0.2552212
3311.177, 0.2561785
3313.106, 0.2563462
3315.034, 0.2556224
3316.963, 0.2569476
3318.891, 0.2577319
3320.820, 0.2557966
3322.748, 0.2565562
3324.677, 0.2568007
3326.605, 0.2562525
3328.533, 0.2570896
3330.462, 0.2595757
3332.390, 0.2575131
3334.319, 0.2548504
3336.247, 0.2557012
3338.176, 0.2556568
3340.104, 0.2561931
3342.033, 0.2578327
3343.961, 0.2558281
3345.890, 0.2547674
3347.818, 0.2555960
3349.747, 0.2566893
3351.675, 0.2575114
3353.604, 0.2585529
3355.532, 0.2584755
3357.460, 0.2585441
3359.389, 0.2600108
3361.317, 0.2595671
3363.246, 0.2581021
3365.174, 0.2591956
3367.103, 0.2610751
3369.031, 0.2601008
3370.960, 0.2583320
3372.888, 0.2573891
3374.817, 0.2598018
3376.745, 0.2611107
3378.674, 0.2605566
3380.602, 0.2598564
3382.531, 0.2598371
3384.459, 0.2590591
3386.387, 0.2589422
3388.316, 0.2572535
3390.244, 0.2570951
3392.173, 0.2582175
3394.101, 0.2579513
3396.030, 0.2587745
3397.958, 0.2600782
3399.887, 0.2596097
3401.815, 0.2590464
3403.744, 0.2598023
3405.672, 0.2581708
3407.601, 0.2573861
3409.529, 0.2588158
3411.458, 0.2623934
3413.386, 0.2626216
3415.314, 0.2604626
3417.243, 0.2605706
3419.171, 0.2613030
3421.100, 0.2624082
3423.028, 0.2627220
3424.957, 0.2616670
3426.885, 0.2599457
3428.814, 0.2595221
3430.742, 0.2602731
3432.671, 0.2608681
3434.599, 0.2623554
3436.528, 0.2640172
3438.456, 0.2639000
3440.385, 0.2630768
3442.313, 0.2612282
3444.241, 0.2622993
3446.170, 0.2629273
3448.098, 0.2604285
3450.027, 0.2581108
3451.955, 0.2614632
3453.884, 0.2629709
3455.812, 0.2618907
3457.741, 0.2605304
3459.669, 0.2601284
3461.598, 0.2605718
3463.526, 0.2618376
3465.455, 0.2610619
3467.383, 0.2618554
3469.312, 0.2629740
3471.240, 0.2627830
3473.168, 0.2631170
3475.097, 0.2617511
3477.025, 0.2610614
3478.954, 0.2610967
3480.882, 0.2610783
3482.811, 0.2628502
3484.739, 0.2672724
3486.668, 0.2674740
3488.596, 0.2649982
3490.525, 0.2632312
3492.453, 0.2632214
3494.382, 0.2655631
3496.310, 0.2649345
3498.239, 0.2622302
3500.167, 0.2628324
3502.095, 0.2645844
3504.024, 0.2663093
3505.952, 0.2648972
3507.881, 0.2648737
3509.809, 0.2651445
3511.738, 0.2654071
3513.666, 0.2643526
3515.595, 0.2654299
3517.523, 0.2655889
3519.452, 0.2631190
3521.380, 0.2620976
3523.309, 0.2628371
3525.237, 0.2648403
3527.166, 0.2669226
3529.094, 0.2667623
3531.022, 0.2660869
3532.951, 0.2641460
3534.879, 0.2654662
3536.808, 0.2666456
3538.736, 0.2657498
3540.665, 0.2650613
3542.593, 0.2651312
3544.522, 0.2678220
3546.450, 0.2699518
3548.379, 0.2676894
3550.307, 0.2667965
3552.236, 0.2668109
3554.164, 0.2653222
3556.093, 0.2669056
3558.021, 0.2674255
3559.949, 0.2657219
3561.878, 0.2653324
3563.806, 0.2648607
3565.735, 0.2645307
3567.663, 0.2674650
3569.592, 0.2671944
3571.520, 0.2659426
3573.449, 0.2664056
3575.377, 0.2659911
3577.306, 0.2625417
3579.234, 0.2622063
3581.163, 0.2638521
3583.091, 0.2618436
3585.020, 0.2636788
3586.948, 0.2670989
3588.876, 0.2659841
3590.805, 0.2638048
3592.733, 0.2633291
3594.662, 0.2639397
3596.590, 0.2622618
3598.519, 0.2629706
3600.447, 0.2638422
3602.376, 0.2652471
3604.304, 0.2650755
3606.233, 0.2663740
3608.161, 0.2669632
3610.090, 0.2662905
3612.018, 0.2642256
3613.947, 0.2646745
3615.875, 0.2682770
3617.803, 0.2691733
3619.732, 0.2657564
3621.660, 0.2639386
3623.589, 0.2664683
3625.517, 0.2687313
3627.446, 0.2667163
3629.374, 0.2662736
3631.303, 0.2667282
3633.231, 0.2680688
3635.160, 0.2707826
3637.088, 0.2721936
3639.017, 0.2697643
3640.945, 0.2696234
3642.874, 0.2716143
3644.802, 0.2719570
3646.730, 0.2697254
3648.659, 0.2684259
3650.587, 0.2681341
3652.516, 0.2695541
3654.444, 0.2671757
3656.373, 0.2654081
3658.301, 0.2662437
3660.230, 0.2668479
3662.158, 0.2664899
3664.087, 0.2674972
3666.015, 0.2697342
3667.944, 0.2708721
3669.872, 0.2714479
3671.801, 0.2689852
3673.729, 0.2681377
3675.657, 0.2686929
3677.586, 0.2702822
3679.514, 0.2704808
3681.443, 0.2703940
3683.371, 0.2722715
3685.300, 0.2733163
3687.228, 0.2743739
3689.157, 0.2753078
3691.085, 0.2740859
3693.014, 0.2703532
3694.942, 0.2705984
3696.871, 0.2700372
3698.799, 0.2696134
3700.728, 0.2720689
3702.656, 0.2684166
3704.584, 0.2675933
3706.513, 0.2731507
3708.441, 0.2762810
3710.370, 0.2759472
3712.298, 0.2768965
3714.227, 0.2769287
3716.155, 0.2781076
3718.084, 0.2770829
3720.012, 0.2729666
3721.941, 0.2703034
3723.869, 0.2709307
3725.798, 0.2744257
3727.726, 0.2758448
3729.655, 0.2750053
3731.583, 0.2729486
3733.511, 0.2738675
3735.440, 0.2763558
3737.368, 0.2756078
3739.297, 0.2737032
3741.225, 0.2781527
3743.154, 0.2828897
3745.082, 0.2843122
3747.011, 0.2823528
3748.939, 0.2802292
3750.868, 0.2780318
3752.796, 0.2774376
3754.725, 0.2771025
3756.653, 0.2770669
3758.582, 0.2789405
3760.510, 0.2782422
3762.438, 0.2758880
3764.367, 0.2765078
3766.295, 0.2813411
3768.224, 0.2864648
3770.152, 0.2853718
3772.081, 0.2831737
3774.009, 0.2821599
3775.938, 0.2811381
3777.866, 0.2797956
3779.795, 0.2795752
3781.723, 0.2807277
3783.652, 0.2819061
3785.580, 0.2814004
3787.509, 0.2805114
3789.437, 0.2796218
3791.365, 0.2802412
3793.294, 0.2812650
3795.222, 0.2829176
3797.151, 0.2793338
3799.079, 0.2804447
3801.008, 0.2838100
3802.936, 0.2835108
3804.865, 0.2817531
3806.793, 0.2805733
3808.722, 0.2787678
3810.650, 0.2794239
3812.579, 0.2794754
3814.507, 0.2817347
3816.436, 0.2829176
3818.364, 0.2826010
3820.292, 0.2834363
3822.221, 0.2864379
3824.149, 0.2866063
3826.078, 0.2847030
3828.006, 0.2854746
3829.935, 0.2843549
3831.863, 0.2833920
3833.792, 0.2867554
3835.720, 0.2887555
3837.649, 0.2875884
3839.577, 0.2863324
3841.506, 0.2833521
3843.434, 0.2810660
3845.363, 0.2835291
3847.291, 0.2826653
3849.219, 0.2808171
3851.148, 0.2819983
3853.076, 0.2831814
3855.005, 0.2824813
3856.933, 0.2809391
3858.862, 0.2827461
3860.790, 0.2841999
3862.719, 0.2870669
3864.647, 0.2867337
3866.576, 0.2834088
3868.504, 0.2843838
3870.433, 0.2852716
3872.361, 0.2887266
3874.290, 0.2901822
3876.218, 0.2895071
3878.146, 0.2880242
3880.075, 0.2859959
3882.003, 0.2821400
3883.932, 0.2801504
3885.860, 0.2803175
3887.789, 0.2801357
3889.717, 0.2832431
3891.646, 0.2827902
3893.574, 0.2839548
3895.503, 0.2908730
3897.431, 0.2883950
3899.360, 0.2859837
3901.288, 0.2880384
3903.217, 0.2877585
3905.145, 0.2856309
3907.073, 0.2857764
3909.002, 0.2864112
3910.930, 0.2846042
3912.859, 0.2834204
3914.787, 0.2859721
3916.716, 0.2877795
3918.644, 0.2891224
3920.573, 0.2937988
3922.501, 0.2936774
3924.430, 0.2909407
3926.358, 0.2915534
3928.287, 0.2906278
3930.215, 0.2898124
3932.144, 0.2914719
3934.072, 0.2909883
3936.000, 0.2882151
3937.929, 0.2867834
3939.857, 0.2905676
3941.786, 0.2959548
3943.714, 0.2959877
3945.643, 0.2872968
3947.571, 0.2864355
3949.500, 0.2898946
3951.428, 0.2909239
3953.357, 0.2923351
3955.285, 0.2917211
3957.214, 0.2915753
3959.142, 0.2927644
3961.071, 0.2920954
3962.999, 0.2906780
3964.927, 0.2886867
3966.856, 0.2881258
3968.784, 0.2959171
3970.713, 0.2995839
3972.641, 0.2923769
3974.570, 0.2904954
3976.498, 0.2929929
3978.427, 0.2952396
3980.355, 0.2940663
3982.284, 0.2897507
3984.212, 0.2865816
3986.141, 0.2910037
3988.069, 0.3001399
3989.998, 0.3000880
3991.926, 0.2940355
3993.854, 0.2936710
3995.783, 0.2939198
3997.711, 0.2940368
3999.640, 0.2941787
##END=



