##NAMES=Gearksutite
##RRUFFID=R050657
##IDEAL CHEMISTRY=CaAlF_4_(OH)&#183;H_2_O
##LOCALITY=Jamestown, Colorado, USA
##OWNER=RRUFF
##SOURCE=University of Arizona Mineral Museum
##DESCRIPTION=White fragment
##STATUS=The identification of this mineral has been confirmed by X-ray diffraction and chemical analysis
##URL=rruff.info/R050657
##MEASURED CHEMISTRY=(Ca_0.98_Sr_0.02_)Al_1.00_F_4.00_(OH)Â·H_2_O
3.991926e+002, 8.765335e-002
4.011211e+002, 8.177119e-002
4.030495e+002, 7.469952e-002
4.049780e+002, 6.947468e-002
4.069065e+002, 6.878217e-002
4.088349e+002, 6.969395e-002
4.107634e+002, 6.952380e-002
4.126919e+002, 7.106201e-002
4.146203e+002, 7.332251e-002
4.165488e+002, 7.576722e-002
4.184773e+002, 8.018003e-002
4.204057e+002, 8.348962e-002
4.223342e+002, 8.301032e-002
4.242627e+002, 8.092486e-002
4.261911e+002, 7.691165e-002
4.281196e+002, 7.155162e-002
4.300481e+002, 6.483195e-002
4.319765e+002, 5.973841e-002
4.339050e+002, 5.580961e-002
4.358335e+002, 5.145819e-002
4.377619e+002, 4.782645e-002
4.396904e+002, 4.690516e-002
4.416189e+002, 4.799865e-002
4.435473e+002, 5.032840e-002
4.454758e+002, 5.268604e-002
4.474043e+002, 5.615535e-002
4.493327e+002, 6.125592e-002
4.512612e+002, 6.631447e-002
4.531897e+002, 7.137454e-002
4.551181e+002, 7.652581e-002
4.570466e+002, 8.121581e-002
4.589751e+002, 8.626358e-002
4.609035e+002, 9.143434e-002
4.628320e+002, 9.486745e-002
4.647605e+002, 9.544615e-002
4.666889e+002, 9.386843e-002
4.686174e+002, 8.955289e-002
4.705459e+002, 8.424638e-002
4.724743e+002, 7.919868e-002
4.744028e+002, 7.586639e-002
4.763313e+002, 7.425991e-002
4.782597e+002, 7.425441e-002
4.801882e+002, 7.480917e-002
4.821167e+002, 7.666286e-002
4.840451e+002, 8.014296e-002
4.859736e+002, 8.415413e-002
4.879021e+002, 8.933635e-002
4.898305e+002, 9.608487e-002
4.917590e+002, 1.040772e-001
4.936875e+002, 1.131642e-001
4.956159e+002, 1.241930e-001
4.975444e+002, 1.356660e-001
4.994729e+002, 1.478329e-001
5.014013e+002, 1.613484e-001
5.033298e+002, 1.751400e-001
5.052583e+002, 1.901515e-001
5.071867e+002, 2.049739e-001
5.091152e+002, 2.198682e-001
5.110437e+002, 2.359418e-001
5.129721e+002, 2.513661e-001
5.149006e+002, 2.647282e-001
5.168290e+002, 2.780008e-001
5.187575e+002, 2.897483e-001
5.206860e+002, 3.001706e-001
5.226144e+002, 3.096755e-001
5.245429e+002, 3.170892e-001
5.264714e+002, 3.222926e-001
5.283998e+002, 3.255651e-001
5.303283e+002, 3.269154e-001
5.322568e+002, 3.256649e-001
5.341852e+002, 3.230155e-001
5.361137e+002, 3.190322e-001
5.380422e+002, 3.136493e-001
5.399706e+002, 3.072372e-001
5.418991e+002, 2.999081e-001
5.438276e+002, 2.913865e-001
5.457560e+002, 2.817735e-001
5.476845e+002, 2.725152e-001
5.496130e+002, 2.632313e-001
5.515414e+002, 2.542191e-001
5.534699e+002, 2.455684e-001
5.553984e+002, 2.374610e-001
5.573268e+002, 2.295163e-001
5.592553e+002, 2.221866e-001
5.611838e+002, 2.166047e-001
5.631122e+002, 2.119732e-001
5.650407e+002, 2.083575e-001
5.669692e+002, 2.048168e-001
5.688976e+002, 2.003874e-001
5.708261e+002, 1.965329e-001
5.727546e+002, 1.927290e-001
5.746830e+002, 1.883225e-001
5.766115e+002, 1.830215e-001
5.785400e+002, 1.777119e-001
5.804684e+002, 1.730073e-001
5.823969e+002, 1.680737e-001
5.843254e+002, 1.632501e-001
5.862538e+002, 1.585496e-001
5.881823e+002, 1.542126e-001
5.901108e+002, 1.498358e-001
5.920392e+002, 1.454584e-001
5.939677e+002, 1.412819e-001
5.958962e+002, 1.372030e-001
5.978246e+002, 1.335708e-001
5.997531e+002, 1.302278e-001
6.016816e+002, 1.272295e-001
6.036100e+002, 1.245870e-001
6.055385e+002, 1.225828e-001
6.074670e+002, 1.212997e-001
6.093954e+002, 1.202357e-001
6.113239e+002, 1.195146e-001
6.132524e+002, 1.192806e-001
6.151808e+002, 1.192781e-001
6.171093e+002, 1.195761e-001
6.190378e+002, 1.197753e-001
6.209662e+002, 1.197007e-001
6.228947e+002, 1.193252e-001
6.248232e+002, 1.186403e-001
6.267516e+002, 1.179429e-001
6.286801e+002, 1.167593e-001
6.306086e+002, 1.153890e-001
6.325370e+002, 1.139605e-001
6.344655e+002, 1.120214e-001
6.363940e+002, 1.099988e-001
6.383224e+002, 1.077847e-001
6.402509e+002, 1.051299e-001
6.421794e+002, 1.022433e-001
6.441078e+002, 9.934653e-002
6.460363e+002, 9.624551e-002
6.479648e+002, 9.288204e-002
6.498932e+002, 8.970726e-002
6.518217e+002, 8.658759e-002
6.537502e+002, 8.330046e-002
6.556786e+002, 8.035559e-002
6.576071e+002, 7.780965e-002
6.595356e+002, 7.550970e-002
6.614641e+002, 7.347515e-002
6.633925e+002, 7.191923e-002
6.653210e+002, 7.067695e-002
6.672495e+002, 6.936678e-002
6.691779e+002, 6.814546e-002
6.711064e+002, 6.729087e-002
6.730349e+002, 6.693678e-002
6.749633e+002, 6.721731e-002
6.768918e+002, 6.811899e-002
6.788203e+002, 6.981213e-002
6.807487e+002, 7.206641e-002
6.826772e+002, 7.490998e-002
6.846057e+002, 7.842369e-002
6.865341e+002, 8.253493e-002
6.884626e+002, 8.669592e-002
6.903911e+002, 9.034474e-002
6.923195e+002, 9.388750e-002
6.942480e+002, 9.683131e-002
6.961765e+002, 9.936105e-002
6.981049e+002, 1.013191e-001
7.000334e+002, 1.025297e-001
7.019619e+002, 1.031576e-001
7.038903e+002, 1.031892e-001
7.058188e+002, 1.027149e-001
7.077473e+002, 1.018125e-001
7.096757e+002, 1.006867e-001
7.116042e+002, 9.893650e-002
7.135327e+002, 9.683502e-002
7.154611e+002, 9.489509e-002
7.173896e+002, 9.273665e-002
7.193181e+002, 9.041553e-002
7.212465e+002, 8.819789e-002
7.231750e+002, 8.633135e-002
7.251035e+002, 8.468737e-002
7.270319e+002, 8.314241e-002
7.289604e+002, 8.176649e-002
7.308889e+002, 8.073464e-002
7.328173e+002, 8.032313e-002
7.347458e+002, 8.061507e-002
7.366743e+002, 8.129548e-002
7.386027e+002, 8.244280e-002
7.405312e+002, 8.404282e-002
7.424597e+002, 8.629294e-002
7.443881e+002, 8.882631e-002
7.463166e+002, 9.150782e-002
7.482451e+002, 9.425201e-002
7.501735e+002, 9.707292e-002
7.521020e+002, 9.913068e-002
7.540305e+002, 1.004749e-001
7.559589e+002, 1.011107e-001
7.578874e+002, 1.006009e-001
7.598159e+002, 9.918821e-002
7.617443e+002, 9.714222e-002
7.636728e+002, 9.442798e-002
7.656013e+002, 9.115861e-002
7.675297e+002, 8.752757e-002
7.694582e+002, 8.374730e-002
7.713867e+002, 7.960271e-002
7.733151e+002, 7.534055e-002
7.752436e+002, 7.116350e-002
7.771721e+002, 6.714896e-002
7.791005e+002, 6.319472e-002
7.810290e+002, 5.917098e-002
7.829575e+002, 5.537733e-002
7.848859e+002, 5.191927e-002
7.868144e+002, 4.849245e-002
7.887429e+002, 4.539006e-002
7.906713e+002, 4.254009e-002
7.925998e+002, 3.976044e-002
7.945283e+002, 3.714167e-002
7.964567e+002, 3.491327e-002
7.983852e+002, 3.280553e-002
8.003137e+002, 3.090018e-002
8.022421e+002, 2.920320e-002
8.041706e+002, 2.754901e-002
8.060991e+002, 2.608753e-002
8.080275e+002, 2.481005e-002
8.099560e+002, 2.377141e-002
8.118845e+002, 2.281020e-002
8.138129e+002, 2.184985e-002
8.157414e+002, 2.125288e-002
8.176699e+002, 2.075038e-002
8.195983e+002, 2.038989e-002
8.215268e+002, 2.000678e-002
8.234553e+002, 1.973979e-002
8.253837e+002, 1.953878e-002
8.273122e+002, 1.932897e-002
8.292407e+002, 1.935228e-002
8.311691e+002, 1.936817e-002
8.330976e+002, 1.934971e-002
8.350261e+002, 1.953106e-002
8.369545e+002, 1.968315e-002
8.388830e+002, 1.992171e-002
8.408115e+002, 2.021073e-002
8.427399e+002, 2.051698e-002
8.446684e+002, 2.092503e-002
8.465969e+002, 2.150353e-002
8.485253e+002, 2.208922e-002
8.504538e+002, 2.278847e-002
8.523823e+002, 2.374228e-002
8.543107e+002, 2.483688e-002
8.562392e+002, 2.599367e-002
8.581677e+002, 2.726128e-002
8.600961e+002, 2.871737e-002
8.620246e+002, 3.053984e-002
8.639531e+002, 3.269218e-002
8.658815e+002, 3.508801e-002
8.678100e+002, 3.790037e-002
8.697385e+002, 4.130065e-002
8.716669e+002, 4.528521e-002
8.735954e+002, 4.991005e-002
8.755239e+002, 5.509138e-002
8.774523e+002, 6.080749e-002
8.793808e+002, 6.722848e-002
8.813093e+002, 7.434408e-002
8.832377e+002, 8.192933e-002
8.851662e+002, 8.962650e-002
8.870947e+002, 9.718110e-002
8.890231e+002, 1.041604e-001
8.909516e+002, 1.100734e-001
8.928801e+002, 1.147517e-001
8.948085e+002, 1.179247e-001
8.967370e+002, 1.197028e-001
8.986655e+002, 1.201604e-001
9.005939e+002, 1.196745e-001
9.025224e+002, 1.181297e-001
9.044509e+002, 1.155959e-001
9.063793e+002, 1.123394e-001
9.083078e+002, 1.085005e-001
9.102363e+002, 1.042570e-001
9.121647e+002, 9.965932e-002
9.140932e+002, 9.477808e-002
9.160217e+002, 9.005532e-002
9.179501e+002, 8.564989e-002
9.198786e+002, 8.154702e-002
9.218071e+002, 7.783043e-002
9.237355e+002, 7.461483e-002
9.256640e+002, 7.202519e-002
9.275925e+002, 7.001667e-002
9.295209e+002, 6.866239e-002
9.314494e+002, 6.794115e-002
9.333779e+002, 6.778345e-002
9.353063e+002, 6.803513e-002
9.372348e+002, 6.853392e-002
9.391633e+002, 6.934031e-002
9.410917e+002, 7.014149e-002
9.430202e+002, 7.072861e-002
9.449487e+002, 7.105812e-002
9.468771e+002, 7.093102e-002
9.488056e+002, 7.037747e-002
9.507341e+002, 6.942393e-002
9.526625e+002, 6.800442e-002
9.545910e+002, 6.607214e-002
9.565195e+002, 6.381337e-002
9.584479e+002, 6.114091e-002
9.603764e+002, 5.818165e-002
9.623049e+002, 5.506747e-002
9.642333e+002, 5.177706e-002
9.661618e+002, 4.849352e-002
9.680903e+002, 4.514921e-002
9.700187e+002, 4.196906e-002
9.719472e+002, 3.880309e-002
9.738757e+002, 3.571685e-002
9.758041e+002, 3.288313e-002
9.777326e+002, 3.042222e-002
9.796611e+002, 2.809874e-002
9.815895e+002, 2.597151e-002
9.835180e+002, 2.417960e-002
9.854465e+002, 2.251593e-002
9.873749e+002, 2.092129e-002
9.893034e+002, 1.966591e-002
9.912319e+002, 1.841887e-002
9.931603e+002, 1.735022e-002
9.950888e+002, 1.649623e-002
9.970173e+002, 1.576160e-002
9.989457e+002, 1.506725e-002
1.000874e+003, 1.426444e-002
1.002803e+003, 1.347140e-002
1.004731e+003, 1.293389e-002
1.006660e+003, 1.248864e-002
1.008588e+003, 1.213678e-002
1.010517e+003, 1.176863e-002
1.012445e+003, 1.145824e-002
1.014373e+003, 1.109959e-002
1.016302e+003, 1.068595e-002
1.018230e+003, 1.036379e-002
1.020159e+003, 1.014122e-002
1.022087e+003, 9.674798e-003
1.024016e+003, 9.264438e-003
1.025944e+003, 9.074857e-003
1.027873e+003, 8.933897e-003
1.029801e+003, 8.674900e-003
1.031730e+003, 8.464784e-003
1.033658e+003, 8.241518e-003
1.035587e+003, 8.079004e-003
1.037515e+003, 8.043162e-003
1.039443e+003, 8.064177e-003
1.041372e+003, 8.072604e-003
1.043300e+003, 7.914130e-003
1.045229e+003, 7.831604e-003
1.047157e+003, 7.675726e-003
1.049086e+003, 7.400562e-003
1.051014e+003, 7.238147e-003
1.052943e+003, 7.208895e-003
1.054871e+003, 7.200830e-003
1.056800e+003, 7.122835e-003
1.058728e+003, 7.079792e-003
1.060657e+003, 6.926978e-003
1.062585e+003, 6.906191e-003
1.064514e+003, 6.852027e-003
1.066442e+003, 6.753995e-003
1.068370e+003, 6.731871e-003
1.070299e+003, 6.576090e-003
1.072227e+003, 6.253021e-003
1.074156e+003, 6.124472e-003
1.076084e+003, 5.928582e-003
1.078013e+003, 5.797169e-003
1.079941e+003, 5.700750e-003
1.081870e+003, 5.442642e-003
1.083798e+003, 5.303419e-003
1.085727e+003, 5.184444e-003
1.087655e+003, 5.110730e-003
1.089584e+003, 5.085634e-003
1.091512e+003, 4.970540e-003
1.093441e+003, 5.056140e-003
1.095369e+003, 5.107391e-003
1.097297e+003, 4.976201e-003
1.099226e+003, 4.867850e-003
1.101154e+003, 4.705318e-003
1.103083e+003, 4.623578e-003
1.105011e+003, 4.692811e-003
1.106940e+003, 4.507295e-003
1.108868e+003, 4.438271e-003
1.110797e+003, 4.462817e-003
1.112725e+003, 4.401952e-003
1.114654e+003, 4.270766e-003
1.116582e+003, 4.157313e-003
1.118511e+003, 4.090898e-003
1.120439e+003, 4.025737e-003
1.122368e+003, 3.813618e-003
1.124296e+003, 3.729132e-003
1.126224e+003, 3.694544e-003
1.128153e+003, 3.518273e-003
1.130081e+003, 3.380580e-003
1.132010e+003, 3.438282e-003
1.133938e+003, 3.317784e-003
1.135867e+003, 3.232536e-003
1.137795e+003, 3.175567e-003
1.139724e+003, 3.097834e-003
1.141652e+003, 3.040349e-003
1.143581e+003, 2.924339e-003
1.145509e+003, 2.750470e-003
1.147438e+003, 2.590739e-003
1.149366e+003, 2.507627e-003
1.151295e+003, 2.557000e-003
1.153223e+003, 2.548801e-003
1.155151e+003, 2.413359e-003
1.157080e+003, 2.285809e-003
1.159008e+003, 2.311183e-003
1.160937e+003, 2.289255e-003
1.162865e+003, 2.177263e-003
1.164794e+003, 1.959868e-003
1.166722e+003, 1.862338e-003
1.168651e+003, 1.896820e-003
1.170579e+003, 1.889010e-003
1.172508e+003, 1.808564e-003
1.174436e+003, 1.729379e-003
1.176365e+003, 1.693188e-003
1.178293e+003, 1.732708e-003
1.180222e+003, 1.636124e-003
1.182150e+003, 1.558328e-003
1.184078e+003, 1.390974e-003
1.186007e+003, 1.329134e-003
1.187935e+003, 1.372338e-003
1.189864e+003, 1.346856e-003
1.191792e+003, 1.211831e-003
1.193721e+003, 1.203167e-003
1.195649e+003, 1.218691e-003
1.197578e+003, 1.208367e-003
1.199506e+003, 1.210114e-003
1.201435e+003, 1.192349e-003
1.203363e+003, 1.040426e-003
1.205292e+003, 9.775516e-004
1.207220e+003, 1.010495e-003
1.209149e+003, 9.959729e-004
1.211077e+003, 9.467860e-004
1.213005e+003, 9.034010e-004
1.214934e+003, 9.027001e-004
1.216862e+003, 8.960553e-004
1.218791e+003, 9.522096e-004
1.220719e+003, 9.116175e-004
1.222648e+003, 8.449671e-004
1.224576e+003, 8.715378e-004
1.226505e+003, 8.092910e-004
1.228433e+003, 7.621779e-004
1.230362e+003, 6.783423e-004
1.232290e+003, 7.567201e-004
1.234219e+003, 7.583548e-004
1.236147e+003, 7.951435e-004
1.238076e+003, 8.167616e-004
1.240004e+003, 8.916951e-004
1.241932e+003, 9.735876e-004
1.243861e+003, 9.165553e-004
1.245789e+003, 8.576115e-004
1.247718e+003, 8.166636e-004
1.249646e+003, 7.464392e-004
1.251575e+003, 7.739197e-004
1.253503e+003, 8.240275e-004
1.255432e+003, 7.833447e-004
1.257360e+003, 7.002357e-004
1.259289e+003, 7.192749e-004
1.261217e+003, 7.210040e-004
1.263146e+003, 7.526585e-004
1.265074e+003, 9.509974e-004
1.267003e+003, 1.066382e-003
1.268931e+003, 1.035400e-003
1.270859e+003, 1.012379e-003
1.272788e+003, 9.881012e-004
1.274716e+003, 1.013378e-003
1.276645e+003, 1.049366e-003
1.278573e+003, 1.038048e-003
1.280502e+003, 1.083951e-003
1.282430e+003, 1.203656e-003
1.284359e+003, 1.269783e-003
1.286287e+003, 1.145432e-003
1.288216e+003, 1.128972e-003
1.290144e+003, 1.173112e-003
1.292073e+003, 1.249133e-003
1.294001e+003, 1.407348e-003
1.295930e+003, 1.423952e-003
1.297858e+003, 1.296965e-003
1.299786e+003, 1.214810e-003
1.301715e+003, 1.264247e-003
1.303643e+003, 1.272657e-003
1.305572e+003, 1.294831e-003
1.307500e+003, 1.313027e-003
1.309429e+003, 1.345884e-003
1.311357e+003, 1.517924e-003
1.313286e+003, 1.594464e-003
1.315214e+003, 1.434045e-003
1.317143e+003, 1.431466e-003
1.319071e+003, 1.536407e-003
1.321000e+003, 1.522985e-003
1.322928e+003, 1.380674e-003
1.324857e+003, 1.272908e-003
1.326785e+003, 1.347948e-003
1.328714e+003, 1.477012e-003
1.330642e+003, 1.564473e-003
1.332570e+003, 1.621022e-003
1.334499e+003, 1.582220e-003
1.336427e+003, 1.625092e-003
1.338356e+003, 1.643312e-003
1.340284e+003, 1.590683e-003
1.342213e+003, 1.505349e-003
1.344141e+003, 1.516086e-003
1.346070e+003, 1.550234e-003
1.347998e+003, 1.504136e-003
1.349927e+003, 1.524764e-003
1.351855e+003, 1.547286e-003
1.353784e+003, 1.418452e-003
1.355712e+003, 1.474374e-003
1.357641e+003, 1.655127e-003
1.359569e+003, 1.760350e-003
1.361497e+003, 1.871358e-003
1.363426e+003, 2.025167e-003
1.365354e+003, 1.967660e-003
1.367283e+003, 1.954757e-003
1.369211e+003, 2.001759e-003
1.371140e+003, 2.071773e-003
1.373068e+003, 2.133173e-003
1.374997e+003, 2.068366e-003
1.376925e+003, 2.044211e-003
1.378854e+003, 2.229513e-003
1.380782e+003, 2.303722e-003
1.382711e+003, 2.330625e-003
1.384639e+003, 2.524997e-003
1.386568e+003, 2.803778e-003
1.388496e+003, 2.852883e-003
1.390424e+003, 2.784546e-003
1.392353e+003, 2.797956e-003
1.394281e+003, 2.985235e-003
1.396210e+003, 3.050688e-003
1.398138e+003, 3.114687e-003
1.400067e+003, 3.234913e-003
1.401995e+003, 3.325539e-003
1.403924e+003, 3.444436e-003
1.405852e+003, 3.555797e-003
1.407781e+003, 3.682297e-003
1.409709e+003, 3.800367e-003
1.411638e+003, 3.910858e-003
1.413566e+003, 4.026652e-003
1.415495e+003, 4.300355e-003
1.417423e+003, 4.630409e-003
1.419351e+003, 4.861397e-003
1.421280e+003, 4.835537e-003
1.423208e+003, 4.987265e-003
1.425137e+003, 5.232417e-003
1.427065e+003, 5.268634e-003
1.428994e+003, 5.391039e-003
1.430922e+003, 5.566398e-003
1.432851e+003, 5.660994e-003
1.434779e+003, 6.106582e-003
1.436708e+003, 6.563036e-003
1.438636e+003, 6.629462e-003
1.440565e+003, 6.672794e-003
1.442493e+003, 6.917998e-003
1.444422e+003, 7.077325e-003
1.446350e+003, 7.213189e-003
1.448278e+003, 7.364369e-003
1.450207e+003, 7.551361e-003
1.452135e+003, 7.686514e-003
1.454064e+003, 7.837584e-003
1.455992e+003, 8.467153e-003
1.457921e+003, 8.618207e-003
1.459849e+003, 8.293965e-003
1.461778e+003, 8.164834e-003
1.463706e+003, 8.318923e-003
1.465635e+003, 8.507183e-003
1.467563e+003, 8.478609e-003
1.469492e+003, 8.502431e-003
1.471420e+003, 8.794486e-003
1.473349e+003, 8.793490e-003
1.475277e+003, 8.635582e-003
1.477205e+003, 8.555298e-003
1.479134e+003, 8.489138e-003
1.481062e+003, 8.485388e-003
1.482991e+003, 8.534079e-003
1.484919e+003, 8.493825e-003
1.486848e+003, 8.553429e-003
1.488776e+003, 8.558924e-003
1.490705e+003, 8.370687e-003
1.492633e+003, 8.249013e-003
1.494562e+003, 8.479989e-003
1.496490e+003, 8.775737e-003
1.498419e+003, 8.635539e-003
1.500347e+003, 8.398243e-003
1.502276e+003, 8.283548e-003
1.504204e+003, 8.561614e-003
1.506132e+003, 9.156292e-003
1.508061e+003, 8.988660e-003
1.509989e+003, 8.541978e-003
1.511918e+003, 8.549385e-003
1.513846e+003, 8.640027e-003
1.515775e+003, 8.664417e-003
1.517703e+003, 8.764004e-003
1.519632e+003, 9.087695e-003
1.521560e+003, 9.320896e-003
1.523489e+003, 9.206165e-003
1.525417e+003, 9.270352e-003
1.527346e+003, 9.365217e-003
1.529274e+003, 9.531130e-003
1.531203e+003, 9.712656e-003
1.533131e+003, 1.008684e-002
1.535059e+003, 1.031800e-002
1.536988e+003, 1.073948e-002
1.538916e+003, 1.158312e-002
1.540845e+003, 1.191931e-002
1.542773e+003, 1.189141e-002
1.544702e+003, 1.211152e-002
1.546630e+003, 1.228852e-002
1.548559e+003, 1.262776e-002
1.550487e+003, 1.305129e-002
1.552416e+003, 1.315564e-002
1.554344e+003, 1.332350e-002
1.556273e+003, 1.371303e-002
1.558201e+003, 1.430931e-002
1.560130e+003, 1.417846e-002
1.562058e+003, 1.331921e-002
1.563986e+003, 1.292324e-002
1.565915e+003, 1.281053e-002
1.567843e+003, 1.267185e-002
1.569772e+003, 1.239934e-002
1.571700e+003, 1.181382e-002
1.573629e+003, 1.145955e-002
1.575557e+003, 1.141127e-002
1.577486e+003, 1.093237e-002
1.579414e+003, 1.020818e-002
1.581343e+003, 9.834705e-003
1.583271e+003, 9.312290e-003
1.585200e+003, 8.701588e-003
1.587128e+003, 8.304560e-003
1.589057e+003, 8.115853e-003
1.590985e+003, 7.974928e-003
1.592913e+003, 7.767696e-003
1.594842e+003, 7.473840e-003
1.596770e+003, 7.135976e-003
1.598699e+003, 7.030340e-003
1.600627e+003, 7.036624e-003
1.602556e+003, 6.863717e-003
1.604484e+003, 6.723486e-003
1.606413e+003, 6.637577e-003
1.608341e+003, 6.510252e-003
1.610270e+003, 6.492585e-003
1.612198e+003, 6.428224e-003
1.614127e+003, 6.543711e-003
1.616055e+003, 6.841235e-003
1.617984e+003, 6.674401e-003
1.619912e+003, 6.276399e-003
1.621840e+003, 6.324917e-003
1.623769e+003, 6.339169e-003
1.625697e+003, 6.183279e-003
1.627626e+003, 6.194531e-003
1.629554e+003, 6.290225e-003
1.631483e+003, 6.267454e-003
1.633411e+003, 6.441857e-003
1.635340e+003, 6.744849e-003
1.637268e+003, 6.478363e-003
1.639197e+003, 6.155291e-003
1.641125e+003, 6.200269e-003
1.643054e+003, 6.538944e-003
1.644982e+003, 6.975084e-003
1.646911e+003, 6.936315e-003
1.648839e+003, 6.676881e-003
1.650767e+003, 7.110036e-003
1.652696e+003, 7.941163e-003
1.654624e+003, 7.436626e-003
1.656553e+003, 6.835499e-003
1.658481e+003, 6.841959e-003
1.660410e+003, 7.011446e-003
1.662338e+003, 7.124938e-003
1.664267e+003, 7.070276e-003
1.666195e+003, 7.001648e-003
1.668124e+003, 7.201928e-003
1.670052e+003, 7.178566e-003
1.671981e+003, 6.978862e-003
1.673909e+003, 7.107318e-003
1.675838e+003, 7.131656e-003
1.677766e+003, 6.675464e-003
1.679694e+003, 6.535713e-003
1.681623e+003, 6.522921e-003
1.683551e+003, 6.760018e-003
1.685480e+003, 6.611420e-003
1.687408e+003, 6.073175e-003
1.689337e+003, 5.940552e-003
1.691265e+003, 5.748615e-003
1.693194e+003, 5.581715e-003
1.695122e+003, 5.939040e-003
1.697051e+003, 5.736090e-003
1.698979e+003, 5.744877e-003
1.700908e+003, 5.866026e-003
1.702836e+003, 5.203543e-003
1.704765e+003, 5.010367e-003
1.706693e+003, 4.967074e-003
1.708621e+003, 4.744289e-003
1.710550e+003, 4.653137e-003
1.712478e+003, 4.721135e-003
1.714407e+003, 4.762297e-003
1.716335e+003, 5.081248e-003
1.718264e+003, 5.103237e-003
1.720192e+003, 4.646502e-003
1.722121e+003, 4.378171e-003
1.724049e+003, 4.272758e-003
1.725978e+003, 4.121341e-003
1.727906e+003, 4.064523e-003
1.729835e+003, 3.990689e-003
1.731763e+003, 4.070018e-003
1.733692e+003, 4.245643e-003
1.735620e+003, 3.877028e-003
1.737548e+003, 3.544383e-003
1.739477e+003, 3.485722e-003
1.741405e+003, 3.415451e-003
1.743334e+003, 3.440992e-003
1.745262e+003, 3.415289e-003
1.747191e+003, 3.427961e-003
1.749119e+003, 3.555060e-003
1.751048e+003, 3.668225e-003
1.752976e+003, 3.483422e-003
1.754905e+003, 3.519266e-003
1.756833e+003, 3.769668e-003
1.758762e+003, 3.661665e-003
1.760690e+003, 3.683911e-003
1.762619e+003, 3.855392e-003
1.764547e+003, 3.789334e-003
1.766475e+003, 3.821416e-003
1.768404e+003, 3.864159e-003
1.770332e+003, 3.697720e-003
1.772261e+003, 3.670417e-003
1.774189e+003, 3.434931e-003
1.776118e+003, 3.349291e-003
1.778046e+003, 3.160471e-003
1.779975e+003, 3.081529e-003
1.781903e+003, 3.011189e-003
1.783832e+003, 2.982288e-003
1.785760e+003, 2.835132e-003
1.787689e+003, 2.497618e-003
1.789617e+003, 2.337154e-003
1.791546e+003, 2.458940e-003
1.793474e+003, 2.471005e-003
1.795402e+003, 2.257181e-003
1.797331e+003, 2.030174e-003
1.799259e+003, 1.942102e-003
1.801188e+003, 1.894407e-003
1.803116e+003, 1.918594e-003
1.805045e+003, 1.903979e-003
1.806973e+003, 1.808430e-003
1.808902e+003, 1.835892e-003
1.810830e+003, 1.838752e-003
1.812759e+003, 1.704960e-003
1.814687e+003, 1.489332e-003
1.816616e+003, 1.295006e-003
1.818544e+003, 1.627073e-003
1.820473e+003, 2.094475e-003
1.822401e+003, 2.322312e-003
1.824329e+003, 2.200861e-003
1.826258e+003, 1.760592e-003
1.828186e+003, 1.731005e-003
1.830115e+003, 2.116513e-003
1.832043e+003, 2.277555e-003
1.833972e+003, 1.997419e-003
1.835900e+003, 1.591766e-003
1.837829e+003, 1.563235e-003
1.839757e+003, 1.838186e-003
1.841686e+003, 2.070425e-003
1.843614e+003, 2.093110e-003
1.845543e+003, 1.958773e-003
1.847471e+003, 2.004266e-003
1.849400e+003, 2.274858e-003
1.851328e+003, 2.096824e-003
1.853256e+003, 1.899928e-003
1.855185e+003, 2.067358e-003
1.857113e+003, 2.029285e-003
1.859042e+003, 1.798309e-003
1.860970e+003, 1.747400e-003
1.862899e+003, 1.785771e-003
1.864827e+003, 1.603163e-003
1.866756e+003, 1.487262e-003
1.868684e+003, 2.041060e-003
1.870613e+003, 2.356273e-003
1.872541e+003, 2.049813e-003
1.874470e+003, 1.628567e-003
1.876398e+003, 1.514129e-003
1.878327e+003, 1.766504e-003
1.880255e+003, 1.686656e-003
1.882183e+003, 1.326005e-003
1.884112e+003, 1.288472e-003
1.886040e+003, 1.330037e-003
1.887969e+003, 1.472640e-003
1.889897e+003, 1.351699e-003
1.891826e+003, 1.260410e-003
1.893754e+003, 1.554663e-003
1.895683e+003, 1.890916e-003
1.897611e+003, 1.713692e-003
1.899540e+003, 1.321590e-003
1.901468e+003, 1.481339e-003
1.903397e+003, 1.488717e-003
1.905325e+003, 1.452595e-003
1.907254e+003, 1.244423e-003
1.909182e+003, 1.101373e-003
1.911110e+003, 1.087141e-003
1.913039e+003, 1.563509e-003
1.914967e+003, 2.099436e-003
1.916896e+003, 2.075508e-003
1.918824e+003, 1.784266e-003
1.920753e+003, 1.314485e-003
1.922681e+003, 1.153815e-003
1.924610e+003, 9.029620e-004
1.926538e+003, 7.846322e-004
1.928467e+003, 1.004758e-003
1.930395e+003, 1.245301e-003
1.932324e+003, 1.710973e-003
1.934252e+003, 1.631638e-003
1.936181e+003, 1.139624e-003
1.938109e+003, 1.405993e-003
1.940037e+003, 2.128210e-003
1.941966e+003, 2.234770e-003
1.943894e+003, 1.919897e-003
1.945823e+003, 1.650378e-003
1.947751e+003, 1.267097e-003
1.949680e+003, 1.089676e-003
1.951608e+003, 1.240529e-003
1.953537e+003, 1.750836e-003
1.955465e+003, 1.870609e-003
1.957394e+003, 1.316500e-003
1.959322e+003, 1.498640e-003
1.961251e+003, 1.680978e-003
1.963179e+003, 1.350556e-003
1.965108e+003, 1.540832e-003
1.967036e+003, 1.901926e-003
1.968964e+003, 1.780680e-003
1.970893e+003, 1.932032e-003
1.972821e+003, 2.483182e-003
1.974750e+003, 3.743245e-003
1.976678e+003, 4.222109e-003
1.978607e+003, 4.550826e-003
1.980535e+003, 4.555129e-003
1.982464e+003, 3.561616e-003
1.984392e+003, 3.807421e-003
1.986321e+003, 3.611966e-003
1.988249e+003, 3.123353e-003
1.990178e+003, 2.934742e-003
1.992106e+003, 3.206128e-003
1.994035e+003, 3.515797e-003
1.995963e+003, 3.133214e-003
1.997891e+003, 2.159954e-003
1.999820e+003, 1.747100e-003
2.001748e+003, 1.355300e-003
2.003677e+003, 6.331253e-004
2.005605e+003, 2.045024e-004
2.007534e+003, 2.755599e-004
2.009462e+003, 3.266439e-004
2.011391e+003, 3.801620e-004
2.013319e+003, 2.020893e-003
2.015248e+003, 3.144588e-003
2.017176e+003, 2.876243e-003
2.019105e+003, 2.306503e-003
2.021033e+003, 1.455351e-003
2.022962e+003, 1.401888e-003
2.024890e+003, 1.773170e-003
2.026818e+003, 2.194930e-003
2.028747e+003, 2.462164e-003
2.030675e+003, 2.339891e-003
2.032604e+003, 1.333562e-003
2.034532e+003, 2.199837e-003
2.036461e+003, 3.461613e-003
2.038389e+003, 3.028064e-003
2.040318e+003, 3.115795e-003
2.042246e+003, 3.237380e-003
2.044175e+003, 2.443261e-003
2.046103e+003, 2.549925e-003
2.048031e+003, 2.841062e-003
2.049960e+003, 3.482036e-003
2.051888e+003, 3.371608e-003
2.053817e+003, 3.465087e-003
2.055745e+003, 3.022475e-003
2.057674e+003, 2.796918e-003
2.059602e+003, 3.456966e-003
2.061531e+003, 3.443747e-003
2.063459e+003, 3.286721e-003
2.065388e+003, 2.934550e-003
2.067316e+003, 2.490084e-003
2.069245e+003, 2.878950e-003
2.071173e+003, 3.189154e-003
2.073102e+003, 3.000162e-003
2.075030e+003, 3.156799e-003
2.076958e+003, 3.634919e-003
2.078887e+003, 3.013510e-003
2.080815e+003, 2.503094e-003
2.082744e+003, 2.709857e-003
2.084672e+003, 2.976850e-003
2.086601e+003, 2.572938e-003
2.088529e+003, 2.550263e-003
2.090458e+003, 2.363914e-003
2.092386e+003, 1.766074e-003
2.094315e+003, 1.897172e-003
2.096243e+003, 2.467885e-003
2.098172e+003, 2.528225e-003
2.100100e+003, 2.617427e-003
2.102029e+003, 2.692686e-003
2.103957e+003, 2.747666e-003
2.105885e+003, 2.983550e-003
2.107814e+003, 2.993009e-003
2.109742e+003, 2.333228e-003
2.111671e+003, 2.269705e-003
2.113599e+003, 2.991879e-003
2.115528e+003, 2.737186e-003
2.117456e+003, 2.018820e-003
2.119385e+003, 1.779152e-003
2.121313e+003, 1.759152e-003
2.123242e+003, 1.626978e-003
2.125170e+003, 7.998438e-004
2.127099e+003, 1.110117e-004
2.129027e+003, 9.608492e-005
2.130956e+003, -2.217038e-005
2.132884e+003, -5.575779e-005
2.134813e+003, -1.870044e-004
2.136741e+003, -2.861249e-004
2.138669e+003, -8.821766e-004
2.140598e+003, -5.585214e-004
2.142526e+003, 4.884012e-004
2.144455e+003, 4.462326e-005
2.146383e+003, -7.377031e-004
2.148312e+003, -5.904122e-004
2.150240e+003, -6.742438e-004
2.152169e+003, -1.336962e-003
2.154097e+003, -2.705582e-003
2.156026e+003, -2.839915e-003
2.157954e+003, -4.912312e-004
2.159883e+003, 2.506354e-003
2.161811e+003, 2.738160e-003
2.163740e+003, 2.225129e-003
2.165668e+003, 3.072927e-003
2.167596e+003, 3.215031e-003
2.169525e+003, 2.530012e-003
2.171453e+003, 1.463355e-003
2.173382e+003, 5.247599e-004
2.175310e+003, 1.171253e-003
2.177239e+003, 1.546735e-003
2.179167e+003, 1.532700e-003
2.181096e+003, 2.222115e-003
2.183024e+003, 3.126945e-003
2.184953e+003, 2.755709e-003
2.186881e+003, 2.264470e-003
2.188810e+003, 2.685514e-003
2.190738e+003, 2.402427e-003
2.192667e+003, 1.953869e-003
2.194595e+003, 1.234131e-003
2.196523e+003, 1.646751e-003
2.198452e+003, 1.938513e-003
2.200380e+003, 1.441593e-003
2.202309e+003, 1.406243e-003
2.204237e+003, 2.273291e-003
2.206166e+003, 2.490360e-003
2.208094e+003, 1.542127e-003
2.210023e+003, 1.773878e-003
2.211951e+003, 1.880284e-003
2.213880e+003, 9.421901e-004
2.215808e+003, 1.106909e-003
2.217737e+003, 1.297327e-003
2.219665e+003, 2.204353e-003
2.221594e+003, 2.254225e-003
2.223522e+003, 1.943345e-003
2.225450e+003, 2.187483e-003
2.227379e+003, 1.758751e-003
2.229307e+003, 1.037412e-003
2.231236e+003, 9.256741e-004
2.233164e+003, 1.514502e-003
2.235093e+003, 1.841931e-003
2.237021e+003, 1.826366e-003
2.238950e+003, 1.564494e-003
2.240878e+003, 1.475562e-003
2.242807e+003, 1.712269e-003
2.244735e+003, 1.361680e-003
2.246664e+003, 8.768627e-004
2.248592e+003, 9.750111e-004
2.250521e+003, 1.423138e-003
2.252449e+003, 8.043491e-004
2.254377e+003, 5.825829e-004
2.256306e+003, 8.786057e-004
2.258234e+003, 1.448023e-003
2.260163e+003, 1.432235e-003
2.262091e+003, 1.277642e-003
2.264020e+003, 1.309152e-003
2.265948e+003, 1.302298e-003
2.267877e+003, 1.576729e-003
2.269805e+003, 1.360621e-003
2.271734e+003, 9.761546e-004
2.273662e+003, 1.455200e-003
2.275591e+003, 1.813815e-003
2.277519e+003, 1.940936e-003
2.279448e+003, 1.765287e-003
2.281376e+003, 1.786848e-003
2.283304e+003, 2.314492e-003
2.285233e+003, 2.615066e-003
2.287161e+003, 2.428550e-003
2.289090e+003, 2.205795e-003
2.291018e+003, 2.307018e-003
2.292947e+003, 2.460130e-003
2.294875e+003, 2.288571e-003
2.296804e+003, 1.842160e-003
2.298732e+003, 1.562479e-003
2.300661e+003, 1.546153e-003
2.302589e+003, 1.408999e-003
2.304518e+003, 1.495060e-003
2.306446e+003, 1.613954e-003
2.308375e+003, 1.743632e-003
2.310303e+003, 2.081093e-003
2.312231e+003, 1.997846e-003
2.314160e+003, 2.100396e-003
2.316088e+003, 2.382723e-003
2.318017e+003, 2.510051e-003
2.319945e+003, 2.569165e-003
2.321874e+003, 3.114979e-003
2.323802e+003, 3.545849e-003
2.325731e+003, 2.709082e-003
2.327659e+003, 1.761212e-003
2.329588e+003, 1.534902e-003
2.331516e+003, 1.411615e-003
2.333445e+003, 1.407595e-003
2.335373e+003, 1.659075e-003
2.337302e+003, 1.797833e-003
2.339230e+003, 1.789455e-003
2.341158e+003, 1.581915e-003
2.343087e+003, 1.482062e-003
2.345015e+003, 1.547012e-003
2.346944e+003, 1.322842e-003
2.348872e+003, 1.144396e-003
2.350801e+003, 1.190175e-003
2.352729e+003, 1.213473e-003
2.354658e+003, 1.411876e-003
2.356586e+003, 1.588664e-003
2.358515e+003, 1.477812e-003
2.360443e+003, 1.697332e-003
2.362372e+003, 1.904787e-003
2.364300e+003, 1.862627e-003
2.366229e+003, 1.511775e-003
2.368157e+003, 1.163376e-003
2.370085e+003, 9.066412e-004
2.372014e+003, 5.326934e-004
2.373942e+003, 4.711922e-004
2.375871e+003, 4.141619e-004
2.377799e+003, 2.601845e-004
2.379728e+003, 3.085072e-004
2.381656e+003, 1.142736e-004
2.383585e+003, 3.554007e-006
2.385513e+003, 5.169456e-005
2.387442e+003, 1.265767e-004
2.389370e+003, 1.162273e-004
2.391299e+003, 1.431053e-004
2.393227e+003, 2.669489e-004
2.395156e+003, 3.427381e-004
2.397084e+003, 4.323210e-004
2.399012e+003, 4.924711e-004
2.400941e+003, 3.751593e-004
2.402869e+003, 9.777398e-005
2.404798e+003, 5.322804e-005
2.406726e+003, -1.706520e-005
2.408655e+003, 8.787282e-005
2.410583e+003, 4.991615e-004
2.412512e+003, 5.041194e-004
2.414440e+003, 5.803217e-004
2.416369e+003, 8.217789e-004
2.418297e+003, 5.322646e-004
2.420226e+003, 4.288733e-004
2.422154e+003, 6.771751e-004
2.424083e+003, 8.654785e-004
2.426011e+003, 5.701540e-004
2.427939e+003, 4.182488e-004
2.429868e+003, 6.904496e-004
2.431796e+003, 1.017027e-003
2.433725e+003, 7.896714e-004
2.435653e+003, 5.175137e-004
2.437582e+003, 4.664510e-004
2.439510e+003, 6.626967e-004
2.441439e+003, 8.281191e-004
2.443367e+003, 7.449999e-004
2.445296e+003, 8.112643e-004
2.447224e+003, 7.524239e-004
2.449153e+003, 8.021487e-004
2.451081e+003, 1.202324e-003
2.453010e+003, 1.344131e-003
2.454938e+003, 9.947072e-004
2.456866e+003, 1.000133e-003
2.458795e+003, 1.327479e-003
2.460723e+003, 1.347460e-003
2.462652e+003, 1.140445e-003
2.464580e+003, 9.339616e-004
2.466509e+003, 1.127750e-003
2.468437e+003, 1.153686e-003
2.470366e+003, 9.813774e-004
2.472294e+003, 6.245537e-004
2.474223e+003, 8.550957e-005
2.476151e+003, 2.537948e-004
2.478080e+003, 9.269968e-004
2.480008e+003, 1.281917e-003
2.481937e+003, 1.112824e-003
2.483865e+003, 9.087331e-004
2.485793e+003, 7.608208e-004
2.487722e+003, 6.441217e-004
2.489650e+003, 1.145433e-003
2.491579e+003, 1.034344e-003
2.493507e+003, 9.007669e-004
2.495436e+003, 7.501195e-004
2.497364e+003, 6.118440e-004
2.499293e+003, 8.380463e-004
2.501221e+003, 8.085032e-004
2.503150e+003, 9.203540e-004
2.505078e+003, 1.418289e-003
2.507007e+003, 1.042162e-003
2.508935e+003, 5.896425e-004
2.510864e+003, 6.526941e-004
2.512792e+003, 7.019322e-004
2.514720e+003, 8.662345e-004
2.516649e+003, 9.088764e-004
2.518577e+003, 8.233000e-004
2.520506e+003, 6.462593e-004
2.522434e+003, 5.305173e-004
2.524363e+003, 9.380318e-004
2.526291e+003, 1.065763e-003
2.528220e+003, 9.501968e-004
2.530148e+003, 8.561952e-004
2.532077e+003, 7.831303e-004
2.534005e+003, 5.486594e-004
2.535934e+003, 2.861448e-004
2.537862e+003, 3.653459e-004
2.539791e+003, 7.666525e-004
2.541719e+003, 8.596892e-004
2.543647e+003, 7.146838e-004
2.545576e+003, 6.206175e-004
2.547504e+003, 8.487214e-004
2.549433e+003, 1.054725e-003
2.551361e+003, 1.085817e-003
2.553290e+003, 8.583535e-004
2.555218e+003, 7.000593e-004
2.557147e+003, 8.690623e-004
2.559075e+003, 1.086299e-003
2.561004e+003, 1.199498e-003
2.562932e+003, 1.049090e-003
2.564861e+003, 8.646247e-004
2.566789e+003, 7.261219e-004
2.568718e+003, 8.242736e-004
2.570646e+003, 1.169822e-003
2.572574e+003, 1.362963e-003
2.574503e+003, 1.383628e-003
2.576431e+003, 1.392529e-003
2.578360e+003, 1.361238e-003
2.580288e+003, 1.685954e-003
2.582217e+003, 1.597674e-003
2.584145e+003, 1.454995e-003
2.586074e+003, 1.864383e-003
2.588002e+003, 2.066525e-003
2.589931e+003, 1.916505e-003
2.591859e+003, 1.698933e-003
2.593788e+003, 1.702693e-003
2.595716e+003, 1.926558e-003
2.597645e+003, 2.059996e-003
2.599573e+003, 1.884987e-003
2.601501e+003, 1.973594e-003
2.603430e+003, 2.047819e-003
2.605358e+003, 2.090502e-003
2.607287e+003, 1.786657e-003
2.609215e+003, 1.550313e-003
2.611144e+003, 1.922236e-003
2.613072e+003, 2.174068e-003
2.615001e+003, 2.316664e-003
2.616929e+003, 2.484424e-003
2.618858e+003, 2.226004e-003
2.620786e+003, 1.986658e-003
2.622715e+003, 2.168508e-003
2.624643e+003, 2.195109e-003
2.626572e+003, 1.937516e-003
2.628500e+003, 1.802938e-003
2.630428e+003, 2.093941e-003
2.632357e+003, 2.332214e-003
2.634285e+003, 2.614188e-003
2.636214e+003, 2.626170e-003
2.638142e+003, 2.390509e-003
2.640071e+003, 2.248856e-003
2.641999e+003, 2.163579e-003
2.643928e+003, 2.553779e-003
2.645856e+003, 2.675054e-003
2.647785e+003, 2.116107e-003
2.649713e+003, 2.008498e-003
2.651642e+003, 2.447116e-003
2.653570e+003, 2.570847e-003
2.655499e+003, 2.302287e-003
2.657427e+003, 2.254200e-003
2.659355e+003, 2.300951e-003
2.661284e+003, 2.094386e-003
2.663212e+003, 1.904262e-003
2.665141e+003, 1.941022e-003
2.667069e+003, 2.229441e-003
2.668998e+003, 2.187461e-003
2.670926e+003, 2.059596e-003
2.672855e+003, 2.107130e-003
2.674783e+003, 2.047477e-003
2.676712e+003, 1.896325e-003
2.678640e+003, 2.060743e-003
2.680569e+003, 2.258969e-003
2.682497e+003, 2.325249e-003
2.684426e+003, 2.341805e-003
2.686354e+003, 2.272584e-003
2.688282e+003, 2.247263e-003
2.690211e+003, 2.169750e-003
2.692139e+003, 2.115541e-003
2.694068e+003, 2.266946e-003
2.695996e+003, 2.498702e-003
2.697925e+003, 2.544297e-003
2.699853e+003, 2.417652e-003
2.701782e+003, 2.502539e-003
2.703710e+003, 2.709212e-003
2.705639e+003, 2.677719e-003
2.707567e+003, 2.696262e-003
2.709496e+003, 2.886442e-003
2.711424e+003, 2.994232e-003
2.713353e+003, 2.958687e-003
2.715281e+003, 2.963856e-003
2.717209e+003, 3.132049e-003
2.719138e+003, 3.208620e-003
2.721066e+003, 3.087047e-003
2.722995e+003, 3.098553e-003
2.724923e+003, 3.107174e-003
2.726852e+003, 3.267281e-003
2.728780e+003, 3.152004e-003
2.730709e+003, 3.097170e-003
2.732637e+003, 3.402510e-003
2.734566e+003, 3.562850e-003
2.736494e+003, 3.619111e-003
2.738423e+003, 3.691379e-003
2.740351e+003, 3.754731e-003
2.742280e+003, 3.848618e-003
2.744208e+003, 3.928408e-003
2.746136e+003, 4.016255e-003
2.748065e+003, 4.097924e-003
2.749993e+003, 4.175136e-003
2.751922e+003, 4.237541e-003
2.753850e+003, 4.120285e-003
2.755779e+003, 4.004980e-003
2.757707e+003, 3.986329e-003
2.759636e+003, 4.149769e-003
2.761564e+003, 4.539198e-003
2.763493e+003, 4.781365e-003
2.765421e+003, 4.825272e-003
2.767350e+003, 4.436515e-003
2.769278e+003, 4.590930e-003
2.771207e+003, 4.961491e-003
2.773135e+003, 4.966697e-003
2.775063e+003, 5.030720e-003
2.776992e+003, 5.100190e-003
2.778920e+003, 5.140626e-003
2.780849e+003, 5.142529e-003
2.782777e+003, 5.354921e-003
2.784706e+003, 5.530655e-003
2.786634e+003, 5.548399e-003
2.788563e+003, 5.531447e-003
2.790491e+003, 5.867748e-003
2.792420e+003, 6.102306e-003
2.794348e+003, 6.333130e-003
2.796277e+003, 6.202740e-003
2.798205e+003, 6.074135e-003
2.800134e+003, 6.234330e-003
2.802062e+003, 6.254488e-003
2.803990e+003, 6.289144e-003
2.805919e+003, 6.293562e-003
2.807847e+003, 6.152571e-003
2.809776e+003, 6.252241e-003
2.811704e+003, 6.454414e-003
2.813633e+003, 6.350128e-003
2.815561e+003, 6.716233e-003
2.817490e+003, 7.309063e-003
2.819418e+003, 7.269145e-003
2.821347e+003, 7.595209e-003
2.823275e+003, 7.793473e-003
2.825204e+003, 7.721078e-003
2.827132e+003, 8.055757e-003
2.829061e+003, 8.394559e-003
2.830989e+003, 8.247762e-003
2.832917e+003, 8.083863e-003
2.834846e+003, 8.405201e-003
2.836774e+003, 8.610242e-003
2.838703e+003, 8.768694e-003
2.840631e+003, 8.940835e-003
2.842560e+003, 9.173287e-003
2.844488e+003, 9.374653e-003
2.846417e+003, 9.486117e-003
2.848345e+003, 9.552748e-003
2.850274e+003, 9.585007e-003
2.852202e+003, 9.779033e-003
2.854131e+003, 9.845411e-003
2.856059e+003, 1.006050e-002
2.857988e+003, 1.021843e-002
2.859916e+003, 1.040639e-002
2.861844e+003, 1.047480e-002
2.863773e+003, 1.043526e-002
2.865701e+003, 1.052033e-002
2.867630e+003, 1.075290e-002
2.869558e+003, 1.078718e-002
2.871487e+003, 1.105569e-002
2.873415e+003, 1.132883e-002
2.875344e+003, 1.134864e-002
2.877272e+003, 1.137155e-002
2.879201e+003, 1.151059e-002
2.881129e+003, 1.181604e-002
2.883058e+003, 1.206169e-002
2.884986e+003, 1.212294e-002
2.886915e+003, 1.228974e-002
2.888843e+003, 1.259502e-002
2.890771e+003, 1.275698e-002
2.892700e+003, 1.266635e-002
2.894628e+003, 1.294415e-002
2.896557e+003, 1.344402e-002
2.898485e+003, 1.388180e-002
2.900414e+003, 1.414321e-002
2.902342e+003, 1.422721e-002
2.904271e+003, 1.446218e-002
2.906199e+003, 1.492392e-002
2.908128e+003, 1.497487e-002
2.910056e+003, 1.484050e-002
2.911985e+003, 1.503711e-002
2.913913e+003, 1.530161e-002
2.915842e+003, 1.563791e-002
2.917770e+003, 1.618993e-002
2.919698e+003, 1.627128e-002
2.921627e+003, 1.609436e-002
2.923555e+003, 1.617925e-002
2.925484e+003, 1.665920e-002
2.927412e+003, 1.689634e-002
2.929341e+003, 1.712673e-002
2.931269e+003, 1.691397e-002
2.933198e+003, 1.674714e-002
2.935126e+003, 1.681590e-002
2.937055e+003, 1.692921e-002
2.938983e+003, 1.709822e-002
2.940912e+003, 1.703597e-002
2.942840e+003, 1.675536e-002
2.944769e+003, 1.699532e-002
2.946697e+003, 1.743772e-002
2.948625e+003, 1.795731e-002
2.950554e+003, 1.817866e-002
2.952482e+003, 1.836866e-002
2.954411e+003, 1.868546e-002
2.956339e+003, 1.882001e-002
2.958268e+003, 1.868927e-002
2.960196e+003, 1.879411e-002
2.962125e+003, 1.891640e-002
2.964053e+003, 1.920064e-002
2.965982e+003, 1.971927e-002
2.967910e+003, 1.986790e-002
2.969839e+003, 1.936237e-002
2.971767e+003, 1.971724e-002
2.973696e+003, 2.031224e-002
2.975624e+003, 2.024689e-002
2.977552e+003, 2.072691e-002
2.979481e+003, 2.092553e-002
2.981409e+003, 2.107492e-002
2.983338e+003, 2.167423e-002
2.985266e+003, 2.219045e-002
2.987195e+003, 2.214256e-002
2.989123e+003, 2.259669e-002
2.991052e+003, 2.340497e-002
2.992980e+003, 2.346095e-002
2.994909e+003, 2.371192e-002
2.996837e+003, 2.423938e-002
2.998766e+003, 2.481277e-002
3.000694e+003, 2.521893e-002
3.002623e+003, 2.545030e-002
3.004551e+003, 2.612260e-002
3.006479e+003, 2.668279e-002
3.008408e+003, 2.711802e-002
3.010336e+003, 2.775951e-002
3.012265e+003, 2.827011e-002
3.014193e+003, 2.929291e-002
3.016122e+003, 3.031418e-002
3.018050e+003, 3.092554e-002
3.019979e+003, 3.136040e-002
3.021907e+003, 3.195248e-002
3.023836e+003, 3.278261e-002
3.025764e+003, 3.365283e-002
3.027693e+003, 3.453530e-002
3.029621e+003, 3.557361e-002
3.031550e+003, 3.674011e-002
3.033478e+003, 3.774520e-002
3.035406e+003, 3.901487e-002
3.037335e+003, 3.972287e-002
3.039263e+003, 3.997653e-002
3.041192e+003, 4.082612e-002
3.043120e+003, 4.179518e-002
3.045049e+003, 4.285938e-002
3.046977e+003, 4.425982e-002
3.048906e+003, 4.526519e-002
3.050834e+003, 4.621642e-002
3.052763e+003, 4.727595e-002
3.054691e+003, 4.848361e-002
3.056620e+003, 4.927782e-002
3.058548e+003, 4.997094e-002
3.060477e+003, 5.128090e-002
3.062405e+003, 5.281784e-002
3.064333e+003, 5.390006e-002
3.066262e+003, 5.492196e-002
3.068190e+003, 5.608463e-002
3.070119e+003, 5.726549e-002
3.072047e+003, 5.856992e-002
3.073976e+003, 5.960414e-002
3.075904e+003, 6.051186e-002
3.077833e+003, 6.149278e-002
3.079761e+003, 6.287518e-002
3.081690e+003, 6.407369e-002
3.083618e+003, 6.482428e-002
3.085547e+003, 6.588055e-002
3.087475e+003, 6.719739e-002
3.089404e+003, 6.812359e-002
3.091332e+003, 6.895236e-002
3.093260e+003, 6.936205e-002
3.095189e+003, 6.966093e-002
3.097117e+003, 7.010785e-002
3.099046e+003, 7.010715e-002
3.100974e+003, 6.999449e-002
3.102903e+003, 7.014968e-002
3.104831e+003, 6.985974e-002
3.106760e+003, 6.941341e-002
3.108688e+003, 6.925330e-002
3.110617e+003, 6.879435e-002
3.112545e+003, 6.749930e-002
3.114474e+003, 6.661286e-002
3.116402e+003, 6.605906e-002
3.118331e+003, 6.504375e-002
3.120259e+003, 6.398223e-002
3.122188e+003, 6.272747e-002
3.124116e+003, 6.149054e-002
3.126044e+003, 6.043982e-002
3.127973e+003, 5.880873e-002
3.129901e+003, 5.736421e-002
3.131830e+003, 5.659284e-002
3.133758e+003, 5.568217e-002
3.135687e+003, 5.356174e-002
3.137615e+003, 5.167711e-002
3.139544e+003, 5.085719e-002
3.141472e+003, 5.012509e-002
3.143401e+003, 4.903474e-002
3.145329e+003, 4.789031e-002
3.147258e+003, 4.670259e-002
3.149186e+003, 4.556647e-002
3.151115e+003, 4.422187e-002
3.153043e+003, 4.324105e-002
3.154971e+003, 4.305939e-002
3.156900e+003, 4.217241e-002
3.158828e+003, 4.082659e-002
3.160757e+003, 4.042238e-002
3.162685e+003, 3.984949e-002
3.164614e+003, 3.878378e-002
3.166542e+003, 3.788606e-002
3.168471e+003, 3.720440e-002
3.170399e+003, 3.672538e-002
3.172328e+003, 3.593270e-002
3.174256e+003, 3.522431e-002
3.176185e+003, 3.434311e-002
3.178113e+003, 3.361342e-002
3.180042e+003, 3.352651e-002
3.181970e+003, 3.331807e-002
3.183898e+003, 3.256426e-002
3.185827e+003, 3.192370e-002
3.187755e+003, 3.176901e-002
3.189684e+003, 3.107771e-002
3.191612e+003, 3.018725e-002
3.193541e+003, 2.958683e-002
3.195469e+003, 2.977928e-002
3.197398e+003, 2.963425e-002
3.199326e+003, 2.917420e-002
3.201255e+003, 2.872197e-002
3.203183e+003, 2.831461e-002
3.205112e+003, 2.830651e-002
3.207040e+003, 2.833200e-002
3.208969e+003, 2.825648e-002
3.210897e+003, 2.788755e-002
3.212825e+003, 2.741338e-002
3.214754e+003, 2.683966e-002
3.216682e+003, 2.645479e-002
3.218611e+003, 2.644674e-002
3.220539e+003, 2.591178e-002
3.222468e+003, 2.552175e-002
3.224396e+003, 2.568403e-002
3.226325e+003, 2.545704e-002
3.228253e+003, 2.513572e-002
3.230182e+003, 2.439232e-002
3.232110e+003, 2.392161e-002
3.234039e+003, 2.420808e-002
3.235967e+003, 2.432582e-002
3.237896e+003, 2.392012e-002
3.239824e+003, 2.356961e-002
3.241752e+003, 2.352641e-002
3.243681e+003, 2.331420e-002
3.245609e+003, 2.307443e-002
3.247538e+003, 2.318155e-002
3.249466e+003, 2.361053e-002
3.251395e+003, 2.384486e-002
3.253323e+003, 2.334778e-002
3.255252e+003, 2.262886e-002
3.257180e+003, 2.219918e-002
3.259109e+003, 2.186628e-002
3.261037e+003, 2.193485e-002
3.262966e+003, 2.221972e-002
3.264894e+003, 2.218747e-002
3.266823e+003, 2.168082e-002
3.268751e+003, 2.109384e-002
3.270679e+003, 2.093228e-002
3.272608e+003, 2.098732e-002
3.274536e+003, 2.047917e-002
3.276465e+003, 2.024609e-002
3.278393e+003, 2.018771e-002
3.280322e+003, 1.931649e-002
3.282250e+003, 1.950567e-002
3.284179e+003, 2.025722e-002
3.286107e+003, 2.015018e-002
3.288036e+003, 1.983431e-002
3.289964e+003, 1.972536e-002
3.291893e+003, 1.928910e-002
3.293821e+003, 1.904279e-002
3.295750e+003, 1.922382e-002
3.297678e+003, 1.939765e-002
3.299606e+003, 1.929773e-002
3.301535e+003, 1.943276e-002
3.303463e+003, 1.925151e-002
3.305392e+003, 1.873637e-002
3.307320e+003, 1.845090e-002
3.309249e+003, 1.840812e-002
3.311177e+003, 1.852920e-002
3.313106e+003, 1.853543e-002
3.315034e+003, 1.850483e-002
3.316963e+003, 1.840528e-002
3.318891e+003, 1.837633e-002
3.320820e+003, 1.822464e-002
3.322748e+003, 1.820189e-002
3.324677e+003, 1.856200e-002
3.326605e+003, 1.804298e-002
3.328533e+003, 1.756316e-002
3.330462e+003, 1.739407e-002
3.332390e+003, 1.757345e-002
3.334319e+003, 1.748734e-002
3.336247e+003, 1.673448e-002
3.338176e+003, 1.663193e-002
3.340104e+003, 1.690520e-002
3.342033e+003, 1.686298e-002
3.343961e+003, 1.674907e-002
3.345890e+003, 1.653490e-002
3.347818e+003, 1.638187e-002
3.349747e+003, 1.609017e-002
3.351675e+003, 1.615873e-002
3.353604e+003, 1.657875e-002
3.355532e+003, 1.690893e-002
3.357460e+003, 1.667231e-002
3.359389e+003, 1.637523e-002
3.361317e+003, 1.609587e-002
3.363246e+003, 1.615288e-002
3.365174e+003, 1.615413e-002
3.367103e+003, 1.593013e-002
3.369031e+003, 1.582189e-002
3.370960e+003, 1.630094e-002
3.372888e+003, 1.684953e-002
3.374817e+003, 1.723973e-002
3.376745e+003, 1.685069e-002
3.378674e+003, 1.633451e-002
3.380602e+003, 1.637702e-002
3.382531e+003, 1.647556e-002
3.384459e+003, 1.666721e-002
3.386387e+003, 1.653054e-002
3.388316e+003, 1.685358e-002
3.390244e+003, 1.693794e-002
3.392173e+003, 1.663665e-002
3.394101e+003, 1.668546e-002
3.396030e+003, 1.762548e-002
3.397958e+003, 1.781199e-002
3.399887e+003, 1.727570e-002
3.401815e+003, 1.742088e-002
3.403744e+003, 1.778387e-002
3.405672e+003, 1.794643e-002
3.407601e+003, 1.797499e-002
3.409529e+003, 1.823710e-002
3.411458e+003, 1.878433e-002
3.413386e+003, 1.940570e-002
3.415314e+003, 2.009867e-002
3.417243e+003, 2.034888e-002
3.419171e+003, 2.014158e-002
3.421100e+003, 2.020488e-002
3.423028e+003, 2.074052e-002
3.424957e+003, 2.165698e-002
3.426885e+003, 2.286740e-002
3.428814e+003, 2.373702e-002
3.430742e+003, 2.401408e-002
3.432671e+003, 2.498795e-002
3.434599e+003, 2.634605e-002
3.436528e+003, 2.810191e-002
3.438456e+003, 2.948266e-002
3.440385e+003, 3.063602e-002
3.442313e+003, 3.199694e-002
3.444241e+003, 3.363238e-002
3.446170e+003, 3.498791e-002
3.448098e+003, 3.656586e-002
3.450027e+003, 3.906668e-002
3.451955e+003, 4.147278e-002
3.453884e+003, 4.317448e-002
3.455812e+003, 4.571016e-002
3.457741e+003, 4.906562e-002
3.459669e+003, 5.163485e-002
3.461598e+003, 5.419825e-002
3.463526e+003, 5.727237e-002
3.465455e+003, 6.124723e-002
3.467383e+003, 6.474744e-002
3.469312e+003, 6.857333e-002
3.471240e+003, 7.320895e-002
3.473168e+003, 7.744975e-002
3.475097e+003, 8.231360e-002
3.477025e+003, 8.761697e-002
3.478954e+003, 9.239545e-002
3.480882e+003, 9.815250e-002
3.482811e+003, 1.048629e-001
3.484739e+003, 1.118980e-001
3.486668e+003, 1.184175e-001
3.488596e+003, 1.247184e-001
3.490525e+003, 1.314781e-001
3.492453e+003, 1.371713e-001
3.494382e+003, 1.404763e-001
3.496310e+003, 1.418896e-001
3.498239e+003, 1.414603e-001
3.500167e+003, 1.385089e-001
3.502095e+003, 1.334322e-001
3.504024e+003, 1.282855e-001
3.505952e+003, 1.232504e-001
3.507881e+003, 1.185097e-001
3.509809e+003, 1.145889e-001
3.511738e+003, 1.112111e-001
3.513666e+003, 1.088214e-001
3.515595e+003, 1.070041e-001
3.517523e+003, 1.051316e-001
3.519452e+003, 1.036246e-001
3.521380e+003, 1.032886e-001
3.523309e+003, 1.053358e-001
3.525237e+003, 1.087385e-001
3.527166e+003, 1.134702e-001
3.529094e+003, 1.204198e-001
3.531022e+003, 1.281473e-001
3.532951e+003, 1.360816e-001
3.534879e+003, 1.429154e-001
3.536808e+003, 1.471282e-001
3.538736e+003, 1.482558e-001
3.540665e+003, 1.459377e-001
3.542593e+003, 1.398332e-001
3.544522e+003, 1.308467e-001
3.546450e+003, 1.194966e-001
3.548379e+003, 1.061588e-001
3.550307e+003, 9.261342e-002
3.552236e+003, 7.967772e-002
3.554164e+003, 6.723168e-002
3.556093e+003, 5.565345e-002
3.558021e+003, 4.570061e-002
3.559949e+003, 3.756648e-002
3.561878e+003, 3.067599e-002
3.563806e+003, 2.469363e-002
3.565735e+003, 1.961133e-002
3.567663e+003, 1.572835e-002
3.569592e+003, 1.286168e-002
3.571520e+003, 1.085347e-002
3.573449e+003, 9.257171e-003
3.575377e+003, 8.233427e-003
3.577306e+003, 7.226642e-003
3.579234e+003, 5.969397e-003
3.581163e+003, 5.270232e-003
3.583091e+003, 4.952061e-003
3.585020e+003, 5.511325e-003
3.586948e+003, 6.104438e-003
3.588876e+003, 6.121448e-003
3.590805e+003, 5.707091e-003
3.592733e+003, 6.273597e-003
3.594662e+003, 7.964391e-003
3.596590e+003, 9.779576e-003
3.598519e+003, 1.090934e-002
3.600447e+003, 1.170286e-002
3.602376e+003, 1.201076e-002
3.604304e+003, 1.123093e-002
3.606233e+003, 1.047495e-002
3.608161e+003, 9.987293e-003
3.610090e+003, 7.751162e-003
3.612018e+003, 6.102168e-003
3.613947e+003, 5.222481e-003
3.615875e+003, 3.917950e-003
3.617803e+003, 3.210105e-003
3.619732e+003, 2.550115e-003
3.621660e+003, 8.168137e-004
3.623589e+003, -4.642196e-004
3.625517e+003, -1.133841e-003
3.627446e+003, -6.316022e-004
3.629374e+003, -2.115158e-004
3.631303e+003, -1.136612e-003
3.633231e+003, -2.649825e-003
3.635160e+003, -3.260758e-003
3.637088e+003, -3.570210e-003
3.639017e+003, -3.779131e-003
3.640945e+003, -3.588200e-003
3.642874e+003, -3.543975e-003
3.644802e+003, -3.485963e-003
3.646730e+003, -3.194687e-003
3.648659e+003, -2.726853e-003
3.650587e+003, -3.090746e-003
3.652516e+003, -3.662149e-003
3.654444e+003, -4.027067e-003
3.656373e+003, -3.882723e-003
3.658301e+003, -3.981019e-003
3.660230e+003, -4.823186e-003
3.662158e+003, -4.810364e-003
3.664087e+003, -4.590532e-003
3.666015e+003, -4.864839e-003
3.667944e+003, -4.914530e-003
3.669872e+003, -4.008651e-003
3.671801e+003, -3.646648e-003
3.673729e+003, -3.448527e-003
3.675657e+003, -3.521185e-003
3.677586e+003, -4.867074e-003
3.679514e+003, -5.216238e-003
3.681443e+003, -4.929820e-003
3.683371e+003, -4.843703e-003
3.685300e+003, -5.070224e-003
3.687228e+003, -4.584805e-003
3.689157e+003, -4.433739e-003
3.691085e+003, -5.412802e-003
3.693014e+003, -6.488083e-003
3.694942e+003, -5.917913e-003
3.696871e+003, -5.166731e-003
3.698799e+003, -5.476146e-003
3.700728e+003, -5.253888e-003
3.702656e+003, -4.744543e-003
3.704584e+003, -5.478840e-003
3.706513e+003, -6.059534e-003
3.708441e+003, -5.332934e-003
3.710370e+003, -4.951275e-003
3.712298e+003, -5.377956e-003
3.714227e+003, -6.148158e-003
3.716155e+003, -6.350297e-003
3.718084e+003, -5.765085e-003
3.720012e+003, -5.568603e-003
3.721941e+003, -6.359078e-003
3.723869e+003, -5.648152e-003
3.725798e+003, -4.888417e-003
3.727726e+003, -4.784303e-003
3.729655e+003, -4.740572e-003
3.731583e+003, -4.542556e-003
3.733511e+003, -4.554155e-003
3.735440e+003, -4.449620e-003
3.737368e+003, -5.176547e-003
3.739297e+003, -5.661798e-003
3.741225e+003, -4.657015e-003
3.743154e+003, -4.245436e-003
3.745082e+003, -4.374479e-003
3.747011e+003, -4.318535e-003
3.748939e+003, -4.134914e-003
3.750868e+003, -4.400944e-003
3.752796e+003, -4.827513e-003
3.754725e+003, -5.352124e-003
3.756653e+003, -5.344699e-003
3.758582e+003, -5.927274e-003
3.760510e+003, -6.224771e-003
3.762438e+003, -6.429387e-003
3.764367e+003, -6.337513e-003
3.766295e+003, -6.541880e-003
3.768224e+003, -6.351096e-003
3.770152e+003, -6.015719e-003
3.772081e+003, -5.938848e-003
3.774009e+003, -5.876346e-003
3.775938e+003, -5.987055e-003
3.777866e+003, -5.694251e-003
3.779795e+003, -5.646361e-003
3.781723e+003, -6.499410e-003
3.783652e+003, -6.981666e-003
3.785580e+003, -6.297757e-003
3.787509e+003, -6.111056e-003
3.789437e+003, -7.059480e-003
3.791365e+003, -7.466673e-003
3.793294e+003, -6.973801e-003
3.795222e+003, -6.098820e-003
3.797151e+003, -6.143410e-003
3.799079e+003, -6.318459e-003
3.801008e+003, -5.507849e-003
3.802936e+003, -5.193380e-003
3.804865e+003, -5.692481e-003
3.806793e+003, -6.031957e-003
3.808722e+003, -6.544554e-003
3.810650e+003, -6.690352e-003
3.812579e+003, -7.390111e-003
3.814507e+003, -7.368306e-003
3.816436e+003, -6.593831e-003
3.818364e+003, -6.539573e-003
3.820292e+003, -6.138729e-003
3.822221e+003, -6.134383e-003
3.824149e+003, -6.544055e-003
3.826078e+003, -6.725898e-003
3.828006e+003, -6.832997e-003
3.829935e+003, -6.424387e-003
3.831863e+003, -6.231827e-003
3.833792e+003, -6.755525e-003
3.835720e+003, -6.452196e-003
3.837649e+003, -5.802480e-003
3.839577e+003, -6.000116e-003
3.841506e+003, -6.719804e-003
3.843434e+003, -7.237801e-003
3.845363e+003, -7.110380e-003
3.847291e+003, -6.806482e-003
3.849219e+003, -6.294614e-003
3.851148e+003, -5.225765e-003
3.853076e+003, -3.272248e-003
3.855005e+003, -3.602376e-003
3.856933e+003, -4.963256e-003
3.858862e+003, -6.634403e-003
3.860790e+003, -7.256093e-003
3.862719e+003, -6.856847e-003
3.864647e+003, -6.545245e-003
3.866576e+003, -6.775270e-003
3.868504e+003, -6.282605e-003
3.870433e+003, -5.922975e-003
3.872361e+003, -6.674738e-003
3.874290e+003, -6.926224e-003
3.876218e+003, -6.625225e-003
3.878146e+003, -6.228108e-003
3.880075e+003, -5.476854e-003
3.882003e+003, -5.919020e-003
3.883932e+003, -6.671480e-003
3.885860e+003, -6.809831e-003
3.887789e+003, -6.981147e-003
3.889717e+003, -6.551243e-003
3.891646e+003, -6.512360e-003
3.893574e+003, -6.827590e-003
3.895503e+003, -6.975973e-003
3.897431e+003, -6.714735e-003
3.899360e+003, -6.398876e-003
3.901288e+003, -6.011283e-003
3.903217e+003, -6.315271e-003
3.905145e+003, -7.261766e-003
3.907073e+003, -6.781119e-003
3.909002e+003, -5.631936e-003
3.910930e+003, -6.116785e-003
3.912859e+003, -6.582471e-003
3.914787e+003, -6.753164e-003
3.916716e+003, -6.828100e-003
3.918644e+003, -6.804435e-003
3.920573e+003, -7.190981e-003
3.922501e+003, -6.820452e-003
3.924430e+003, -6.501548e-003
3.926358e+003, -7.015034e-003
3.928287e+003, -7.050885e-003
3.930215e+003, -6.819857e-003
3.932144e+003, -6.866805e-003
3.934072e+003, -7.147593e-003
3.936000e+003, -6.815217e-003
3.937929e+003, -6.741619e-003
3.939857e+003, -7.117805e-003
3.941786e+003, -7.159788e-003
3.943714e+003, -6.864235e-003
3.945643e+003, -6.524969e-003
3.947571e+003, -6.415965e-003
3.949500e+003, -6.530304e-003
3.951428e+003, -6.365753e-003
3.953357e+003, -6.683219e-003
3.955285e+003, -6.903563e-003
3.957214e+003, -6.900529e-003
3.959142e+003, -6.733899e-003
3.961071e+003, -7.282904e-003
3.962999e+003, -7.513034e-003
3.964927e+003, -6.585915e-003
3.966856e+003, -5.895933e-003
3.968784e+003, -6.187746e-003
3.970713e+003, -6.797612e-003
3.972641e+003, -7.392389e-003
3.974570e+003, -6.916760e-003
3.976498e+003, -6.477550e-003
3.978427e+003, -6.346207e-003
3.980355e+003, -6.918947e-003
3.982284e+003, -7.622768e-003
3.984212e+003, -7.375800e-003
3.986141e+003, -6.990699e-003
3.988069e+003, -6.058752e-003
3.989998e+003, -5.946007e-003
3.991926e+003, -6.785971e-003
3.993854e+003, -6.638841e-003
3.995783e+003, -6.484563e-003
3.997711e+003, -7.028142e-003
3.999640e+003, -6.835782e-003
##END=



