##NAMES=Gedrite
##RRUFFID=R050339
##IDEAL CHEMISTRY=[box]Mg_2_(Mg_3_Al_2_)(Si_6_Al_2_)O_22_(OH)_2_
##LOCALITY=Bamble, Telemark, Norway
##OWNER=RRUFF
##SOURCE=California Institute of Technology
##DESCRIPTION=Dark gray cleavage fragment
##STATUS=The identification of this mineral has been confirmed by X-ray diffraction and chemical analysis
##URL=rruff.info/R050339
##MEASURED CHEMISTRY=([box]_0.61_Na_0.39_)(Mg_4.55_Fe^2+^_1.40_Al_0.91_Ti_0.07_Ca_0.07_)_Σ7_(Si_6.56_Al_1.44_)_Σ8_O_22_(OH)_2_
399.1926, 0.2405257
401.1211, 0.2152501
403.0496, 0.2162849
404.9780, 0.2358830
406.9065, 0.2343482
408.8350, 0.2324952
410.7634, 0.2436540
412.6919, 0.2445744
414.6204, 0.2409413
416.5488, 0.2427281
418.4773, 0.2455407
420.4058, 0.2489578
422.3342, 0.2540730
424.2627, 0.2512349
426.1912, 0.2486254
428.1196, 0.2504018
430.0481, 0.2529159
431.9766, 0.2533371
433.9050, 0.2529466
435.8335, 0.2534480
437.7620, 0.2531962
439.6904, 0.2566671
441.6189, 0.2586989
443.5474, 0.2579272
445.4758, 0.2578786
447.4043, 0.2563068
449.3328, 0.2530987
451.2612, 0.2509735
453.1897, 0.2520033
455.1182, 0.2518514
457.0466, 0.2494248
458.9751, 0.2477559
460.9036, 0.2452154
462.8320, 0.2421719
464.7605, 0.2397165
466.6890, 0.2369151
468.6174, 0.2327361
470.5459, 0.2264598
472.4744, 0.2199963
474.4028, 0.2175417
476.3313, 0.2170570
478.2598, 0.2157390
480.1882, 0.2125283
482.1167, 0.2094583
484.0452, 0.2066748
485.9736, 0.2049410
487.9021, 0.2044335
489.8306, 0.2043861
491.7590, 0.2029263
493.6875, 0.2000196
495.6160, 0.1973582
497.5444, 0.1937268
499.4729, 0.1885008
501.4014, 0.1842659
503.3298, 0.1808859
505.2583, 0.1774462
507.1868, 0.1727924
509.1152, 0.1692287
511.0437, 0.1663170
512.9722, 0.1615989
514.9006, 0.1569981
516.8291, 0.1541169
518.7576, 0.1524519
520.6860, 0.1501095
522.6145, 0.1484762
524.5430, 0.1466993
526.4714, 0.1447459
528.3999, 0.1423643
530.3284, 0.1399540
532.2568, 0.1372495
534.1853, 0.1343391
536.1138, 0.1319395
538.0422, 0.1295835
539.9707, 0.1274903
541.8992, 0.1242585
543.8276, 0.1206749
545.7561, 0.1171307
547.6846, 0.1129470
549.6130, 0.1086239
551.5415, 0.1050959
553.4700, 0.1022015
555.3984, 9.8735623E-02
557.3269, 9.4976187E-02
559.2554, 9.1253787E-02
561.1838, 8.7250561E-02
563.1123, 8.3538502E-02
565.0408, 8.0729254E-02
566.9692, 7.8387707E-02
568.8977, 7.5410761E-02
570.8262, 7.2707362E-02
572.7546, 7.0989273E-02
574.6831, 6.8938702E-02
576.6116, 6.6865653E-02
578.5400, 6.5325521E-02
580.4685, 6.4298347E-02
582.3970, 6.2805213E-02
584.3254, 6.1988611E-02
586.2539, 6.1250959E-02
588.1824, 5.9439149E-02
590.1108, 5.8341961E-02
592.0393, 5.7298850E-02
593.9678, 5.5435121E-02
595.8962, 5.3298939E-02
597.8247, 5.2102491E-02
599.7532, 5.1135920E-02
601.6816, 4.9963150E-02
603.6101, 4.9369689E-02
605.5386, 4.8836641E-02
607.4670, 4.8119441E-02
609.3955, 4.8192710E-02
611.3240, 4.8595831E-02
613.2524, 4.9165949E-02
615.1809, 5.0161351E-02
617.1094, 5.0970100E-02
619.0378, 5.2242011E-02
620.9663, 5.3287528E-02
622.8948, 5.4121740E-02
624.8232, 5.5205699E-02
626.7517, 5.6076221E-02
628.6802, 5.6807179E-02
630.6086, 5.8024850E-02
632.5371, 5.9208240E-02
634.4656, 6.0391240E-02
636.3940, 6.1448649E-02
638.3225, 6.2803827E-02
640.2510, 6.4394310E-02
642.1794, 6.5788761E-02
644.1079, 6.7300603E-02
646.0364, 6.8891093E-02
647.9648, 7.0355393E-02
649.8933, 7.2001949E-02
651.8218, 7.3944896E-02
653.7502, 7.5555257E-02
655.6787, 7.6773092E-02
657.6072, 7.7822663E-02
659.5356, 7.8619972E-02
661.4641, 7.8856863E-02
663.3926, 7.9015903E-02
665.3210, 7.9600900E-02
667.2495, 8.0301873E-02
669.1780, 8.0648758E-02
671.1064, 8.1086859E-02
673.0349, 8.2138672E-02
674.9634, 8.3167657E-02
676.8918, 8.4048510E-02
678.8203, 8.5581407E-02
680.7488, 8.7303773E-02
682.6772, 8.8837363E-02
684.6057, 9.0784431E-02
686.5342, 9.3343571E-02
688.4626, 9.5957413E-02
690.3911, 9.8599777E-02
692.3196, 0.1007315
694.2480, 0.1015200
696.1765, 9.9503092E-02
698.1050, 9.4993763E-02
700.0334, 9.1009483E-02
701.9619, 8.8979341E-02
703.8904, 8.8007309E-02
705.8188, 8.8088743E-02
707.7473, 8.8354699E-02
709.6758, 8.8449813E-02
711.6042, 8.8627957E-02
713.5327, 8.8710837E-02
715.4612, 8.8011131E-02
717.3896, 8.6512253E-02
719.3181, 8.4841929E-02
721.2466, 8.3593510E-02
723.1750, 8.2493097E-02
725.1035, 8.1855834E-02
727.0320, 8.1360273E-02
728.9604, 8.0848508E-02
730.8889, 8.0859303E-02
732.8174, 8.1294820E-02
734.7458, 8.1659682E-02
736.6743, 8.2125001E-02
738.6028, 8.2604058E-02
740.5313, 8.3252072E-02
742.4597, 8.3947003E-02
744.3882, 8.5360557E-02
746.3167, 8.6429283E-02
748.2451, 8.7206326E-02
750.1736, 8.8488042E-02
752.1021, 9.0147696E-02
754.0305, 9.1936067E-02
755.9590, 9.3934610E-02
757.8875, 9.5118880E-02
759.8159, 9.5567480E-02
761.7444, 9.6115753E-02
763.6729, 9.7434387E-02
765.6013, 9.9362217E-02
767.5298, 0.1014164
769.4583, 0.1043206
771.3867, 0.1086301
773.3152, 0.1136723
775.2437, 0.1183706
777.1721, 0.1223924
779.1006, 0.1245986
781.0291, 0.1233349
782.9575, 0.1191156
784.8860, 0.1142800
786.8145, 0.1111615
788.7429, 0.1100627
790.6714, 0.1099691
792.5999, 0.1108117
794.5283, 0.1123562
796.4568, 0.1132032
798.3853, 0.1117366
800.3137, 0.1070162
802.2422, 0.1000127
804.1707, 9.2286848E-02
806.0991, 8.4663123E-02
808.0276, 7.8399867E-02
809.9561, 7.4586093E-02
811.8845, 7.2950892E-02
813.8130, 7.2273627E-02
815.7415, 7.2111063E-02
817.6699, 7.2889373E-02
819.5984, 7.4649550E-02
821.5269, 7.6655000E-02
823.4553, 7.8572817E-02
825.3838, 8.0639809E-02
827.3123, 8.3040193E-02
829.2407, 8.5454881E-02
831.1692, 8.7456033E-02
833.0977, 8.9472622E-02
835.0261, 9.1586582E-02
836.9546, 9.3463987E-02
838.8831, 9.4880320E-02
840.8115, 9.6187674E-02
842.7400, 9.7485751E-02
844.6685, 9.8977514E-02
846.5969, 0.1008314
848.5254, 0.1026383
850.4539, 0.1049332
852.3823, 0.1076635
854.3108, 0.1102943
856.2393, 0.1130848
858.1677, 0.1159446
860.0962, 0.1190794
862.0247, 0.1223801
863.9531, 0.1257759
865.8816, 0.1294024
867.8101, 0.1335092
869.7385, 0.1375165
871.6670, 0.1412951
873.5955, 0.1451808
875.5239, 0.1491518
877.4524, 0.1528427
879.3809, 0.1560161
881.3093, 0.1593895
883.2378, 0.1631622
885.1663, 0.1668150
887.0947, 0.1704999
889.0232, 0.1742507
890.9517, 0.1779255
892.8801, 0.1817429
894.8085, 0.1856016
896.7370, 0.1887196
898.6655, 0.1911423
900.5939, 0.1932622
902.5224, 0.1955635
904.4509, 0.1980948
906.3793, 0.2007284
908.3078, 0.2030511
910.2363, 0.2053242
912.1647, 0.2067950
914.0932, 0.2078203
916.0217, 0.2093489
917.9501, 0.2108732
919.8786, 0.2130725
921.8071, 0.2159230
923.7355, 0.2184764
925.6640, 0.2213761
927.5925, 0.2245653
929.5209, 0.2276191
931.4494, 0.2312654
933.3779, 0.2346217
935.3063, 0.2378011
937.2348, 0.2413751
939.1633, 0.2447801
941.0917, 0.2480228
943.0202, 0.2511284
944.9487, 0.2543489
946.8771, 0.2575289
948.8056, 0.2602673
950.7341, 0.2629873
952.6625, 0.2658643
954.5910, 0.2679641
956.5195, 0.2695827
958.4479, 0.2711599
960.3764, 0.2727304
962.3049, 0.2737884
964.2333, 0.2745702
966.1618, 0.2753029
968.0903, 0.2755481
970.0187, 0.2746638
971.9472, 0.2733152
973.8757, 0.2717482
975.8041, 0.2695726
977.7326, 0.2666206
979.6611, 0.2626049
981.5895, 0.2585391
983.5180, 0.2546123
985.4465, 0.2506299
987.3749, 0.2463057
989.3034, 0.2422700
991.2319, 0.2386322
993.1603, 0.2350009
995.0888, 0.2311974
997.0173, 0.2276304
998.9457, 0.2247785
1000.874, 0.2223257
1002.803, 0.2203524
1004.731, 0.2186241
1006.660, 0.2170929
1008.588, 0.2159462
1010.517, 0.2145849
1012.445, 0.2127507
1014.373, 0.2105589
1016.302, 0.2083012
1018.230, 0.2061367
1020.159, 0.2041100
1022.087, 0.2019981
1024.016, 0.1998075
1025.944, 0.1977867
1027.873, 0.1956330
1029.801, 0.1929298
1031.730, 0.1906577
1033.658, 0.1892019
1035.587, 0.1876677
1037.515, 0.1867017
1039.444, 0.1859901
1041.372, 0.1849559
1043.301, 0.1841412
1045.229, 0.1835674
1047.157, 0.1834155
1049.086, 0.1830001
1051.014, 0.1824432
1052.943, 0.1821694
1054.871, 0.1813406
1056.800, 0.1803966
1058.728, 0.1791006
1060.657, 0.1770076
1062.585, 0.1743995
1064.514, 0.1712626
1066.442, 0.1683772
1068.371, 0.1660131
1070.299, 0.1645087
1072.228, 0.1641873
1074.156, 0.1649207
1076.084, 0.1660945
1078.013, 0.1670763
1079.941, 0.1680201
1081.870, 0.1688727
1083.798, 0.1695164
1085.727, 0.1699075
1087.655, 0.1696089
1089.584, 0.1687086
1091.512, 0.1675491
1093.441, 0.1655452
1095.369, 0.1628382
1097.298, 0.1602755
1099.226, 0.1578314
1101.155, 0.1550068
1103.083, 0.1523067
1105.011, 0.1493807
1106.940, 0.1461185
1108.868, 0.1423306
1110.797, 0.1378204
1112.725, 0.1332623
1114.654, 0.1289517
1116.582, 0.1246850
1118.511, 0.1206849
1120.439, 0.1167756
1122.368, 0.1129055
1124.296, 0.1090923
1126.225, 0.1055016
1128.153, 0.1019267
1130.082, 9.8110840E-02
1132.010, 9.4667450E-02
1133.938, 9.1290541E-02
1135.867, 8.7752707E-02
1137.795, 8.4501088E-02
1139.724, 8.1054457E-02
1141.652, 7.7627867E-02
1143.581, 7.4149497E-02
1145.509, 7.0577323E-02
1147.438, 6.7515053E-02
1149.366, 6.4496793E-02
1151.295, 6.1042160E-02
1153.223, 5.7841182E-02
1155.152, 5.5271320E-02
1157.080, 5.3483911E-02
1159.009, 5.3125411E-02
1160.937, 5.3357031E-02
1162.865, 5.3157229E-02
1164.794, 5.1942639E-02
1166.722, 4.9838450E-02
1168.651, 4.7375411E-02
1170.579, 4.5047641E-02
1172.508, 4.3123350E-02
1174.436, 4.1514538E-02
1176.365, 3.9974820E-02
1178.293, 3.8602401E-02
1180.222, 3.7566550E-02
1182.150, 3.7012361E-02
1184.079, 3.6272541E-02
1186.007, 3.5428468E-02
1187.936, 3.4397289E-02
1189.864, 3.3476550E-02
1191.792, 3.2575380E-02
1193.721, 3.1474221E-02
1195.649, 3.0354589E-02
1197.578, 2.9066540E-02
1199.506, 2.7646840E-02
1201.435, 2.6134580E-02
1203.363, 2.4832871E-02
1205.292, 2.3505701E-02
1207.220, 2.1980640E-02
1209.149, 2.0328410E-02
1211.077, 1.8576341E-02
1213.006, 1.6818419E-02
1214.934, 1.5365850E-02
1216.863, 1.4161530E-02
1218.791, 1.3007330E-02
1220.719, 1.1885520E-02
1222.648, 1.1263390E-02
1224.576, 1.0656610E-02
1226.505, 1.0233260E-02
1228.433, 9.8668402E-03
1230.362, 9.3113361E-03
1232.290, 8.8894339E-03
1234.219, 8.5538579E-03
1236.147, 8.2882522E-03
1238.076, 8.1615951E-03
1240.004, 7.9372535E-03
1241.933, 7.6827672E-03
1243.861, 7.5979261E-03
1245.790, 7.3314742E-03
1247.718, 7.0063812E-03
1249.646, 6.8439650E-03
1251.575, 6.8615391E-03
1253.503, 6.6196760E-03
1255.432, 6.3080089E-03
1257.360, 6.2269238E-03
1259.289, 6.2504448E-03
1261.217, 6.3274819E-03
1263.146, 6.0347249E-03
1265.074, 5.5480972E-03
1267.003, 5.6054951E-03
1268.931, 5.9726350E-03
1270.860, 5.9113940E-03
1272.788, 5.8603492E-03
1274.717, 5.9244251E-03
1276.645, 5.8006919E-03
1278.573, 5.7499078E-03
1280.502, 5.6362860E-03
1282.430, 5.4379581E-03
1284.359, 5.3156400E-03
1286.287, 5.2655800E-03
1288.216, 5.0432160E-03
1290.144, 4.6754461E-03
1292.073, 4.4964878E-03
1294.001, 4.5920671E-03
1295.930, 4.5808149E-03
1297.858, 4.4165370E-03
1299.787, 4.2456398E-03
1301.715, 4.3884530E-03
1303.644, 4.4160238E-03
1305.572, 4.0781088E-03
1307.500, 3.9071320E-03
1309.429, 4.1416381E-03
1311.357, 4.0627471E-03
1313.286, 3.9362940E-03
1315.214, 3.9115781E-03
1317.143, 3.5951331E-03
1319.071, 3.5430039E-03
1321.000, 3.7967199E-03
1322.928, 3.7127400E-03
1324.857, 3.6165409E-03
1326.785, 3.7206879E-03
1328.714, 3.7122271E-03
1330.642, 3.6786550E-03
1332.571, 3.4808191E-03
1334.499, 3.3956501E-03
1336.427, 3.5221679E-03
1338.356, 3.4496260E-03
1340.284, 3.1250000E-03
1342.213, 3.1438940E-03
1344.141, 3.6077870E-03
1346.070, 3.8276950E-03
1347.998, 3.6882069E-03
1349.927, 3.8008899E-03
1351.855, 3.8624071E-03
1353.784, 3.6001790E-03
1355.712, 3.6352731E-03
1357.641, 3.8838719E-03
1359.569, 3.8087701E-03
1361.498, 3.6076210E-03
1363.426, 3.7052331E-03
1365.354, 3.8477441E-03
1367.283, 3.7660459E-03
1369.211, 3.9112200E-03
1371.140, 4.1555390E-03
1373.068, 4.1255578E-03
1374.997, 4.2435741E-03
1376.925, 4.3135351E-03
1378.854, 4.3964782E-03
1380.782, 4.5622038E-03
1382.711, 4.6396269E-03
1384.639, 4.7079632E-03
1386.568, 4.8133871E-03
1388.496, 4.9260589E-03
1390.424, 4.7727679E-03
1392.353, 4.9851872E-03
1394.281, 5.1344601E-03
1396.210, 4.9136430E-03
1398.138, 5.1642200E-03
1400.067, 5.3281900E-03
1401.995, 5.2965879E-03
1403.924, 5.6019151E-03
1405.852, 5.7881861E-03
1407.781, 6.0081598E-03
1409.709, 6.2581869E-03
1411.638, 6.4403829E-03
1413.566, 6.4696288E-03
1415.495, 6.5355729E-03
1417.423, 6.6214730E-03
1419.351, 6.7710192E-03
1421.280, 6.8763089E-03
1423.208, 6.9132489E-03
1425.137, 7.0552370E-03
1427.065, 7.2701378E-03
1428.994, 7.3167561E-03
1430.922, 7.2904578E-03
1432.851, 7.5446921E-03
1434.779, 7.8522032E-03
1436.708, 7.9209954E-03
1438.636, 7.6687671E-03
1440.565, 7.5207660E-03
1442.493, 7.7157449E-03
1444.422, 7.6177311E-03
1446.350, 7.6800501E-03
1448.278, 7.8446893E-03
1450.207, 7.7055390E-03
1452.135, 7.5282911E-03
1454.064, 7.5840731E-03
1455.992, 7.5485799E-03
1457.921, 7.6356279E-03
1459.849, 7.7172099E-03
1461.778, 7.4252691E-03
1463.706, 7.1267900E-03
1465.635, 7.2508119E-03
1467.563, 7.4663172E-03
1469.492, 7.3246602E-03
1471.420, 7.2493539E-03
1473.349, 7.1312338E-03
1475.277, 6.9131330E-03
1477.205, 6.8356409E-03
1479.134, 6.8878089E-03
1481.062, 6.9099842E-03
1482.991, 6.9571780E-03
1484.919, 7.0238709E-03
1486.848, 6.6189002E-03
1488.776, 6.2464401E-03
1490.705, 6.4994521E-03
1492.633, 6.7139100E-03
1494.562, 6.7108260E-03
1496.490, 6.7595178E-03
1498.419, 6.6030468E-03
1500.347, 6.3572321E-03
1502.276, 6.2017632E-03
1504.204, 6.3282801E-03
1506.132, 6.5757912E-03
1508.061, 6.3229632E-03
1509.989, 5.8683711E-03
1511.918, 6.0623572E-03
1513.846, 6.2045129E-03
1515.775, 6.0533909E-03
1517.703, 5.7902830E-03
1519.632, 5.6918920E-03
1521.560, 5.9302789E-03
1523.489, 5.8577312E-03
1525.417, 5.3435429E-03
1527.346, 5.1635010E-03
1529.274, 5.1955041E-03
1531.203, 5.1896810E-03
1533.131, 5.1690829E-03
1535.059, 5.2345349E-03
1536.988, 5.2448590E-03
1538.916, 5.4332921E-03
1540.845, 5.3793672E-03
1542.773, 5.0623580E-03
1544.702, 4.8862030E-03
1546.630, 4.9199220E-03
1548.559, 4.7985562E-03
1550.487, 4.7773672E-03
1552.416, 4.8052738E-03
1554.344, 4.6329889E-03
1556.273, 4.6462668E-03
1558.201, 5.3002839E-03
1560.130, 5.5406028E-03
1562.058, 4.9069561E-03
1563.986, 4.5039100E-03
1565.915, 4.6771439E-03
1567.843, 4.7463560E-03
1569.772, 4.5295758E-03
1571.700, 4.6117888E-03
1573.629, 4.6311491E-03
1575.557, 4.6136458E-03
1577.486, 4.6813898E-03
1579.414, 4.7447071E-03
1581.343, 4.8425719E-03
1583.271, 4.4771209E-03
1585.200, 4.7501861E-03
1587.128, 5.0504948E-03
1589.057, 5.2530640E-03
1590.985, 5.4203528E-03
1592.913, 5.5502411E-03
1594.842, 5.5177552E-03
1596.770, 5.4394780E-03
1598.699, 5.7731820E-03
1600.627, 6.0115838E-03
1602.556, 5.9511289E-03
1604.484, 5.9588798E-03
1606.413, 6.0082939E-03
1608.341, 5.8576022E-03
1610.270, 5.9011048E-03
1612.198, 6.0331640E-03
1614.127, 5.9670731E-03
1616.055, 6.0332320E-03
1617.984, 5.8080088E-03
1619.912, 5.7627079E-03
1621.840, 5.8531188E-03
1623.769, 6.0340292E-03
1625.697, 6.1521428E-03
1627.626, 5.9795580E-03
1629.554, 5.8604330E-03
1631.483, 6.0432302E-03
1633.411, 6.0105822E-03
1635.340, 5.8008740E-03
1637.268, 5.7429061E-03
1639.197, 5.9129088E-03
1641.125, 6.0749981E-03
1643.054, 6.1123362E-03
1644.982, 5.9563662E-03
1646.911, 6.0977349E-03
1648.839, 6.2167929E-03
1650.767, 6.1209518E-03
1652.696, 6.1962041E-03
1654.624, 5.9866919E-03
1656.553, 5.8001452E-03
1658.481, 5.4083718E-03
1660.410, 5.0341170E-03
1662.338, 5.4183961E-03
1664.267, 5.7867412E-03
1666.195, 5.6280140E-03
1668.124, 5.6324112E-03
1670.052, 5.5612428E-03
1671.981, 5.3129201E-03
1673.909, 5.2984869E-03
1675.838, 5.4683271E-03
1677.766, 5.5121481E-03
1679.694, 5.4633059E-03
1681.623, 5.3393501E-03
1683.551, 5.6095668E-03
1685.480, 5.5867862E-03
1687.408, 5.0891172E-03
1689.337, 4.7956989E-03
1691.265, 4.8910901E-03
1693.194, 5.1372992E-03
1695.122, 5.2638589E-03
1697.051, 5.2537629E-03
1698.979, 5.2538370E-03
1700.908, 5.1530991E-03
1702.836, 5.1648500E-03
1704.765, 5.0133821E-03
1706.693, 4.9022911E-03
1708.621, 5.3577819E-03
1710.550, 5.4339371E-03
1712.478, 5.2788951E-03
1714.407, 5.3773541E-03
1716.335, 5.4801572E-03
1718.264, 5.2737952E-03
1720.192, 4.9169110E-03
1722.121, 4.6263342E-03
1724.049, 4.4320310E-03
1725.978, 4.4948058E-03
1727.906, 4.4148779E-03
1729.835, 4.4176150E-03
1731.763, 4.3884860E-03
1733.692, 4.3903100E-03
1735.620, 4.1441331E-03
1737.548, 4.0745270E-03
1739.477, 3.9306022E-03
1741.405, 3.2742710E-03
1743.334, 3.1423301E-03
1745.262, 3.1412761E-03
1747.191, 3.1234131E-03
1749.119, 3.1035841E-03
1751.048, 3.3957809E-03
1752.976, 3.4924671E-03
1754.905, 3.1812279E-03
1756.833, 3.3173100E-03
1758.762, 3.7769100E-03
1760.690, 3.9893258E-03
1762.619, 3.5934111E-03
1764.547, 3.0348031E-03
1766.475, 3.3399260E-03
1768.404, 3.7007569E-03
1770.332, 3.9283321E-03
1772.261, 3.9081760E-03
1774.189, 3.8115180E-03
1776.118, 3.6737930E-03
1778.046, 3.0539981E-03
1779.975, 3.3873669E-03
1781.903, 4.0588761E-03
1783.832, 3.9722482E-03
1785.760, 3.5705031E-03
1787.689, 3.3958000E-03
1789.617, 3.3597390E-03
1791.546, 3.5304280E-03
1793.474, 3.9381720E-03
1795.402, 3.7781200E-03
1797.331, 3.2702170E-03
1799.259, 3.0348930E-03
1801.188, 3.0521059E-03
1803.116, 3.1736591E-03
1805.045, 3.5718100E-03
1806.973, 3.5540939E-03
1808.902, 2.9244500E-03
1810.830, 2.7051331E-03
1812.759, 3.0078581E-03
1814.687, 3.1405969E-03
1816.616, 2.9765549E-03
1818.544, 3.0508470E-03
1820.473, 3.4749780E-03
1822.401, 4.0651141E-03
1824.329, 3.7435731E-03
1826.258, 2.9758329E-03
1828.186, 2.6916731E-03
1830.115, 2.5701551E-03
1832.043, 2.6133021E-03
1833.972, 2.5365560E-03
1835.900, 2.4049799E-03
1837.829, 2.6437929E-03
1839.757, 2.7548911E-03
1841.686, 2.9612819E-03
1843.614, 3.2747481E-03
1845.543, 2.3576890E-03
1847.471, 1.6897590E-03
1849.400, 1.9424720E-03
1851.328, 2.0150309E-03
1853.256, 1.8508730E-03
1855.185, 1.8306810E-03
1857.113, 2.7251251E-03
1859.042, 2.8800741E-03
1860.970, 2.9201920E-03
1862.899, 3.3526369E-03
1864.827, 2.5397481E-03
1866.756, 2.6621339E-03
1868.684, 3.2935410E-03
1870.613, 2.8240450E-03
1872.541, 2.5763940E-03
1874.470, 2.5779260E-03
1876.398, 2.2067570E-03
1878.327, 2.0930839E-03
1880.255, 2.4258411E-03
1882.183, 2.0097899E-03
1884.112, 1.7472950E-03
1886.040, 1.6304170E-03
1887.969, 1.4163650E-03
1889.897, 1.6829440E-03
1891.826, 1.9595751E-03
1893.754, 2.2652349E-03
1895.683, 2.1182180E-03
1897.611, 2.5738629E-03
1899.540, 1.6262570E-03
1901.468, 9.6489239E-04
1903.397, 1.6433980E-03
1905.325, 2.3244671E-03
1907.254, 1.8594500E-03
1909.182, 9.1313903E-04
1911.110, 1.0822590E-03
1913.039, 2.1433320E-03
1914.967, 2.8780811E-03
1916.896, 1.3006490E-03
1918.824, -1.0335250E-03
1920.753, -1.7924040E-03
1922.681, -9.5135591E-04
1924.610, -2.1621640E-04
1926.538, -2.0494590E-04
1928.467, -7.8168139E-04
1930.395, -8.7888580E-04
1932.324, 4.3241281E-04
1934.252, -5.0757419E-05
1936.181, -8.2909572E-04
1938.109, 1.2170070E-04
1940.037, 1.2806200E-03
1941.966, -1.9430010E-04
1943.894, -1.6379430E-03
1945.823, -9.0128407E-05
1947.751, 1.2057620E-03
1949.680, -1.5306870E-03
1951.608, -3.9722100E-03
1953.537, -3.5991599E-03
1955.465, -1.8988220E-03
1957.394, -1.6250430E-03
1959.322, -4.1765058E-03
1961.251, -5.6360392E-03
1963.179, -4.2379992E-03
1965.108, -3.4194619E-03
1967.036, -3.6386331E-03
1968.964, -5.3445352E-03
1970.893, -5.7841432E-03
1972.821, -4.4620498E-03
1974.750, -2.5693700E-03
1976.678, -1.9794740E-03
1978.607, -1.2453130E-03
1980.535, -3.0996951E-03
1982.464, -5.2660201E-03
1984.392, -3.9816722E-03
1986.321, -2.6446600E-03
1988.249, -2.2856649E-03
1990.178, -2.8442340E-03
1992.106, -1.4138920E-03
1994.035, -1.2483590E-03
1995.963, -2.9901920E-03
1997.891, -4.3720831E-03
1999.820, -5.3276648E-03
2001.748, -7.1489899E-03
2003.677, -6.9386228E-03
2005.605, -5.6169340E-03
2007.534, -3.5546341E-03
2009.462, -3.0354301E-03
2011.391, -5.6462470E-03
2013.319, -8.4367963E-03
2015.248, -6.5592071E-03
2017.176, -5.3039519E-03
2019.105, -7.7825538E-03
2021.033, -9.0762870E-03
2022.962, -6.9626458E-03
2024.890, -4.2374860E-03
2026.818, -3.6286421E-03
2028.747, -3.1983911E-03
2030.675, -3.4592990E-03
2032.604, -4.7691660E-03
2034.532, -5.9235711E-03
2036.461, -5.0643370E-03
2038.389, -6.0002762E-03
2040.318, -4.6959491E-03
2042.246, -3.9873519E-03
2044.175, -1.8371510E-03
2046.103, -6.7031413E-04
2048.032, 9.7363879E-04
2049.960, 2.6439710E-03
2051.889, 1.9178780E-03
2053.817, -1.6579560E-03
2055.746, -2.1915690E-03
2057.674, -1.6313980E-03
2059.603, -1.0847460E-03
2061.531, -1.2000980E-03
2063.459, -2.4086749E-03
2065.388, -7.3878991E-04
2067.316, 1.6468450E-03
2069.245, 1.3023270E-03
2071.173, -4.5089930E-04
2073.102, -1.3215230E-03
2075.030, -1.1180730E-03
2076.959, -1.1781520E-03
2078.887, -1.8582430E-03
2080.816, -3.5637969E-04
2082.744, 1.2421299E-03
2084.673, 1.0676100E-03
2086.601, 2.8623390E-05
2088.530, -3.1418921E-04
2090.458, -8.6346641E-04
2092.386, -1.1954890E-03
2094.315, 1.9543200E-04
2096.243, 6.2101852E-04
2098.172, 6.5838693E-05
2100.100, -8.2580652E-04
2102.029, -7.1995333E-04
2103.957, -3.4020390E-04
2105.886, -2.6514690E-05
2107.814, -3.6770571E-04
2109.743, -5.3929281E-04
2111.671, 2.2210590E-04
2113.600, 9.5208967E-04
2115.528, 1.2724920E-03
2117.457, 1.1015380E-03
2119.385, -6.9691788E-04
2121.313, -2.3314420E-03
2123.242, -1.2320880E-03
2125.170, -8.1371458E-04
2127.099, -1.9699810E-03
2129.027, -3.6924710E-03
2130.956, -3.0725200E-03
2132.884, -1.5286250E-03
2134.813, -1.9299040E-03
2136.741, -4.2523341E-03
2138.670, -6.5020202E-03
2140.598, -6.4465348E-03
2142.527, -5.0994512E-03
2144.455, -5.9632980E-03
2146.384, -7.7100419E-03
2148.312, -7.3032570E-03
2150.240, -6.6358880E-03
2152.169, -7.3477109E-03
2154.097, -1.0068100E-02
2156.026, -1.1938410E-02
2157.954, -1.0323840E-02
2159.883, -3.2207160E-03
2161.811, -1.3057580E-03
2163.740, -2.1236669E-03
2165.668, -5.1022898E-03
2167.597, -4.7442419E-03
2169.525, -3.5193849E-03
2171.454, -3.9643929E-03
2173.382, -4.6653310E-03
2175.311, -4.1865902E-03
2177.239, -4.5214142E-03
2179.167, -6.1116242E-03
2181.096, -7.4578002E-03
2183.024, -5.7658418E-03
2184.953, -2.4595149E-03
2186.881, -8.6174050E-04
2188.810, -1.8037030E-03
2190.738, -3.3721901E-03
2192.667, -3.1744591E-03
2194.595, -3.5867849E-03
2196.524, -3.0298780E-03
2198.452, -3.8857181E-03
2200.381, -4.0951031E-03
2202.309, -3.4839420E-03
2204.238, -2.5681979E-03
2206.166, -2.6172469E-03
2208.094, -3.1864401E-03
2210.023, -3.0754339E-03
2211.951, -2.5572299E-03
2213.880, -2.0670420E-03
2215.808, -8.6433702E-04
2217.737, -1.5284730E-03
2219.665, -4.9123878E-04
2221.594, 1.5780240E-03
2223.522, 9.4046787E-04
2225.451, -1.1592060E-03
2227.379, 3.1440199E-05
2229.308, 2.4468710E-03
2231.236, 1.0360150E-03
2233.165, -1.9894879E-04
2235.093, 1.6072700E-03
2237.021, 1.3455710E-03
2238.950, -1.0827270E-03
2240.878, 2.0910861E-04
2242.807, -2.1749060E-04
2244.735, -8.8431512E-04
2246.664, 1.3711250E-03
2248.592, 3.8043971E-03
2250.521, 3.8973449E-03
2252.449, 2.9277420E-03
2254.378, 2.5639550E-03
2256.306, 2.8621219E-03
2258.235, 2.4699951E-03
2260.163, 2.0358521E-03
2262.092, 1.9077370E-03
2264.020, 2.8677690E-03
2265.948, 3.2158210E-03
2267.877, 2.8817740E-03
2269.805, 2.4445001E-03
2271.734, 2.2958219E-03
2273.662, 2.9713330E-03
2275.591, 3.6575289E-03
2277.519, 4.9072392E-03
2279.448, 5.5702231E-03
2281.376, 4.9141049E-03
2283.305, 5.0532240E-03
2285.233, 6.3304170E-03
2287.162, 6.0022199E-03
2289.090, 5.7903649E-03
2291.019, 6.5816189E-03
2292.947, 5.8177742E-03
2294.875, 5.7757841E-03
2296.804, 6.5224781E-03
2298.732, 6.3252700E-03
2300.661, 5.3497232E-03
2302.589, 5.4927440E-03
2304.518, 6.5612160E-03
2306.446, 6.6220169E-03
2308.375, 6.0909009E-03
2310.303, 6.1953450E-03
2312.232, 7.3270202E-03
2314.160, 7.4163992E-03
2316.089, 6.8562119E-03
2318.017, 6.8623079E-03
2319.946, 6.9482792E-03
2321.874, 7.7089281E-03
2323.802, 8.7107299E-03
2325.731, 7.6533239E-03
2327.659, 6.2945820E-03
2329.588, 6.2255459E-03
2331.516, 6.2920302E-03
2333.445, 6.6268421E-03
2335.373, 6.7087300E-03
2337.302, 6.7251050E-03
2339.230, 6.3128481E-03
2341.159, 6.1792000E-03
2343.087, 6.0437042E-03
2345.016, 5.9874011E-03
2346.944, 6.0786060E-03
2348.873, 6.5319282E-03
2350.801, 6.5671578E-03
2352.729, 6.0546161E-03
2354.658, 6.2768431E-03
2356.586, 6.7994581E-03
2358.515, 6.9649671E-03
2360.443, 7.3820278E-03
2362.372, 7.2031948E-03
2364.300, 6.4326101E-03
2366.229, 5.9869890E-03
2368.157, 6.1693070E-03
2370.086, 6.5408922E-03
2372.014, 6.2195230E-03
2373.942, 5.6667500E-03
2375.871, 5.1802290E-03
2377.799, 5.6199501E-03
2379.728, 5.2988762E-03
2381.656, 4.4483799E-03
2383.585, 4.9697412E-03
2385.513, 5.7979352E-03
2387.442, 5.8980058E-03
2389.370, 5.6870198E-03
2391.299, 5.2856971E-03
2393.227, 4.8201429E-03
2395.156, 4.2298888E-03
2397.084, 4.5354259E-03
2399.012, 5.4657450E-03
2400.941, 5.7531958E-03
2402.869, 5.3487238E-03
2404.798, 5.0742598E-03
2406.726, 5.3464090E-03
2408.655, 5.9353220E-03
2410.583, 5.8286670E-03
2412.512, 5.0808182E-03
2414.440, 5.2519408E-03
2416.369, 5.7334891E-03
2418.297, 6.2155318E-03
2420.226, 6.7259129E-03
2422.154, 6.9053490E-03
2424.083, 6.8907151E-03
2426.011, 6.3543110E-03
2427.939, 5.7014921E-03
2429.868, 5.3172191E-03
2431.796, 5.0141560E-03
2433.725, 4.5435261E-03
2435.653, 5.0820340E-03
2437.582, 5.7579982E-03
2439.510, 5.9629069E-03
2441.439, 6.1765518E-03
2443.367, 7.2929841E-03
2445.296, 7.4664839E-03
2447.224, 6.2671229E-03
2449.153, 5.5973572E-03
2451.081, 6.2671159E-03
2453.010, 6.2269992E-03
2454.938, 5.7970332E-03
2456.866, 5.5433828E-03
2458.795, 5.9590042E-03
2460.723, 6.3626328E-03
2462.652, 6.6288458E-03
2464.580, 6.2174369E-03
2466.509, 5.4429048E-03
2468.437, 5.4285820E-03
2470.366, 5.1038810E-03
2472.294, 5.4755150E-03
2474.223, 6.5742871E-03
2476.151, 6.5764398E-03
2478.080, 6.1143241E-03
2480.008, 6.9280271E-03
2481.937, 7.2373790E-03
2483.865, 7.0030801E-03
2485.793, 5.7754922E-03
2487.722, 5.9271599E-03
2489.650, 6.5338621E-03
2491.579, 6.6556232E-03
2493.507, 7.4134441E-03
2495.436, 6.9910968E-03
2497.364, 6.2063462E-03
2499.293, 5.0530699E-03
2501.221, 4.8120380E-03
2503.150, 6.2339869E-03
2505.078, 6.7428788E-03
2507.007, 6.4957598E-03
2508.935, 6.2331790E-03
2510.864, 6.3539450E-03
2512.792, 5.5441190E-03
2514.720, 4.7810161E-03
2516.649, 6.0574580E-03
2518.577, 6.4720139E-03
2520.506, 6.4526908E-03
2522.434, 6.8912772E-03
2524.363, 6.8111150E-03
2526.291, 5.9474311E-03
2528.220, 5.1304898E-03
2530.148, 6.8239411E-03
2532.077, 7.5993282E-03
2534.005, 7.6299720E-03
2535.934, 8.1924861E-03
2537.862, 7.8244125E-03
2539.791, 6.9798511E-03
2541.719, 6.7184679E-03
2543.647, 6.7466302E-03
2545.576, 7.5195869E-03
2547.504, 8.7266071E-03
2549.433, 7.5510531E-03
2551.361, 5.9959972E-03
2553.290, 5.9196400E-03
2555.218, 6.8621649E-03
2557.147, 7.4713640E-03
2559.075, 6.6336580E-03
2561.004, 5.7243528E-03
2562.932, 6.2124101E-03
2564.861, 7.2863582E-03
2566.789, 7.9744132E-03
2568.718, 7.7193230E-03
2570.646, 7.0211911E-03
2572.574, 6.6978061E-03
2574.503, 6.3658762E-03
2576.431, 6.1013498E-03
2578.360, 5.7510398E-03
2580.288, 6.0978471E-03
2582.217, 6.0600801E-03
2584.145, 6.2742480E-03
2586.074, 6.7819161E-03
2588.002, 7.0219119E-03
2589.931, 7.9025840E-03
2591.859, 8.1381062E-03
2593.788, 6.5726088E-03
2595.716, 6.8964171E-03
2597.645, 8.5976357E-03
2599.573, 8.6933328E-03
2601.501, 7.1711312E-03
2603.430, 6.4762700E-03
2605.358, 6.8500331E-03
2607.287, 6.3605811E-03
2609.215, 6.5289200E-03
2611.144, 7.2686742E-03
2613.072, 8.8314014E-03
2615.001, 8.7948702E-03
2616.929, 7.7470392E-03
2618.858, 7.7229571E-03
2620.786, 8.1018507E-03
2622.715, 8.1429966E-03
2624.643, 7.9020094E-03
2626.572, 8.4048109E-03
2628.500, 8.7592639E-03
2630.428, 8.6792698E-03
2632.357, 7.7427430E-03
2634.285, 6.6557401E-03
2636.214, 6.9535691E-03
2638.142, 7.6058470E-03
2640.071, 7.3344079E-03
2641.999, 7.1185632E-03
2643.928, 7.9699503E-03
2645.856, 8.1814714E-03
2647.785, 8.3887326E-03
2649.713, 7.9304576E-03
2651.642, 7.7762031E-03
2653.570, 8.0094635E-03
2655.499, 8.8300817E-03
2657.427, 9.3123522E-03
2659.355, 8.4066633E-03
2661.284, 7.9785837E-03
2663.212, 7.8414083E-03
2665.141, 7.7678720E-03
2667.069, 7.5016450E-03
2668.998, 7.9908464E-03
2670.926, 7.8306189E-03
2672.855, 7.1079549E-03
2674.783, 7.6901619E-03
2676.712, 7.7672219E-03
2678.640, 7.4622808E-03
2680.569, 7.2397320E-03
2682.497, 7.5988942E-03
2684.426, 7.6106251E-03
2686.354, 7.0613758E-03
2688.282, 8.3986958E-03
2690.211, 9.2987446E-03
2692.139, 8.6399633E-03
2694.068, 7.8781554E-03
2695.996, 7.8632003E-03
2697.925, 7.7306889E-03
2699.853, 7.8927316E-03
2701.782, 7.9570422E-03
2703.710, 7.7863731E-03
2705.639, 7.5257071E-03
2707.567, 8.3380826E-03
2709.496, 8.4774448E-03
2711.424, 8.8190520E-03
2713.353, 8.7783178E-03
2715.281, 8.4613543E-03
2717.209, 8.6397184E-03
2719.138, 8.4056454E-03
2721.066, 8.0049029E-03
2722.995, 8.7649552E-03
2724.923, 8.9815492E-03
2726.852, 8.6922962E-03
2728.780, 8.4003042E-03
2730.709, 7.9480531E-03
2732.637, 8.0859624E-03
2734.566, 8.9156358E-03
2736.494, 8.5964575E-03
2738.423, 8.1132902E-03
2740.351, 8.6322213E-03
2742.280, 9.0377498E-03
2744.208, 8.7627498E-03
2746.136, 8.6537385E-03
2748.065, 8.9845005E-03
2749.993, 8.8081798E-03
2751.922, 8.7148221E-03
2753.850, 8.8262102E-03
2755.779, 8.6273346E-03
2757.707, 7.7147442E-03
2759.636, 8.0712009E-03
2761.564, 8.3985412E-03
2763.493, 8.1371404E-03
2765.421, 8.0002015E-03
2767.350, 8.4066410E-03
2769.278, 8.4617902E-03
2771.207, 8.6471494E-03
2773.135, 8.7960269E-03
2775.063, 8.7659052E-03
2776.992, 9.0244180E-03
2778.920, 8.8274525E-03
2780.849, 8.6786980E-03
2782.777, 8.6774733E-03
2784.706, 8.4362943E-03
2786.634, 8.3273146E-03
2788.563, 8.1172576E-03
2790.491, 8.0252821E-03
2792.420, 7.8784581E-03
2794.348, 7.9288557E-03
2796.277, 7.8479256E-03
2798.205, 7.3744790E-03
2800.134, 8.3344476E-03
2802.062, 9.5447088E-03
2803.990, 9.7506847E-03
2805.919, 8.9230584E-03
2807.847, 8.8067874E-03
2809.776, 9.7039938E-03
2811.704, 9.5211593E-03
2813.633, 8.7760091E-03
2815.561, 9.4048483E-03
2817.490, 9.0316851E-03
2819.418, 7.7822870E-03
2821.347, 7.3849228E-03
2823.275, 7.6862019E-03
2825.204, 8.7293219E-03
2827.132, 9.3740579E-03
2829.061, 8.7553626E-03
2830.989, 8.9369267E-03
2832.917, 9.9109514E-03
2834.846, 9.8825525E-03
2836.774, 9.1657760E-03
2838.703, 9.3342494E-03
2840.631, 1.0708490E-02
2842.560, 1.0246340E-02
2844.488, 9.4987014E-03
2846.417, 9.1208210E-03
2848.345, 9.1307582E-03
2850.274, 9.4626928E-03
2852.202, 9.3319425E-03
2854.131, 8.6061666E-03
2856.059, 8.7084193E-03
2857.988, 9.3972785E-03
2859.916, 9.4153890E-03
2861.844, 8.2386201E-03
2863.773, 7.8920042E-03
2865.701, 7.5392998E-03
2867.630, 7.1219830E-03
2869.558, 9.2941197E-03
2871.487, 1.0075100E-02
2873.415, 9.3581378E-03
2875.344, 8.7173292E-03
2877.272, 8.8615436E-03
2879.201, 9.1934670E-03
2881.129, 9.3993396E-03
2883.058, 9.8969368E-03
2884.986, 1.0264830E-02
2886.915, 1.0290900E-02
2888.843, 9.0801502E-03
2890.771, 9.5063839E-03
2892.700, 1.1419910E-02
2894.628, 1.1653090E-02
2896.557, 1.1348850E-02
2898.485, 1.0995460E-02
2900.414, 9.7542219E-03
2902.342, 9.9740773E-03
2904.271, 1.0201160E-02
2906.199, 1.0831020E-02
2908.128, 1.0535600E-02
2910.056, 9.5735174E-03
2911.985, 1.0190580E-02
2913.913, 1.0002920E-02
2915.842, 9.9237822E-03
2917.770, 9.9145649E-03
2919.698, 1.0357200E-02
2921.627, 1.0297820E-02
2923.555, 9.9353734E-03
2925.484, 9.8136617E-03
2927.412, 1.0907220E-02
2929.341, 1.1094500E-02
2931.269, 9.1516646E-03
2933.198, 7.5441911E-03
2935.126, 8.0554094E-03
2937.055, 9.0132412E-03
2938.983, 9.3834596E-03
2940.912, 1.0361970E-02
2942.840, 9.9623669E-03
2944.769, 9.5435688E-03
2946.697, 1.0252490E-02
2948.625, 9.1392659E-03
2950.554, 8.2883257E-03
2952.482, 7.9458710E-03
2954.411, 8.1264200E-03
2956.339, 1.0267500E-02
2958.268, 1.0986590E-02
2960.196, 9.9013196E-03
2962.125, 7.8305090E-03
2964.053, 6.8310159E-03
2965.982, 8.6687785E-03
2967.910, 1.0451510E-02
2969.839, 1.0327240E-02
2971.767, 8.7933699E-03
2973.696, 8.2092294E-03
2975.624, 8.6946804E-03
2977.552, 1.0092030E-02
2979.481, 1.0517530E-02
2981.409, 1.0628520E-02
2983.338, 1.0481740E-02
2985.266, 1.0212200E-02
2987.195, 1.1330350E-02
2989.123, 1.1370610E-02
2991.052, 9.5501682E-03
2992.980, 9.2941346E-03
2994.909, 1.0723190E-02
2996.837, 1.1360910E-02
2998.766, 1.1409980E-02
3000.694, 1.0678420E-02
3002.623, 9.3992837E-03
3004.551, 9.0446752E-03
3006.479, 9.9777570E-03
3008.408, 1.0490300E-02
3010.336, 1.0092610E-02
3012.265, 9.7994190E-03
3014.193, 1.0776450E-02
3016.122, 1.2922030E-02
3018.050, 1.3093810E-02
3019.979, 1.2546130E-02
3021.907, 1.2332690E-02
3023.836, 1.2849900E-02
3025.764, 1.2647770E-02
3027.693, 1.1672840E-02
3029.621, 1.1471380E-02
3031.550, 1.2292220E-02
3033.478, 1.2730260E-02
3035.406, 1.3254550E-02
3037.335, 1.3101260E-02
3039.263, 1.2438140E-02
3041.192, 1.1190320E-02
3043.120, 1.0910040E-02
3045.049, 1.2749420E-02
3046.977, 1.3559180E-02
3048.906, 1.3550420E-02
3050.834, 1.4095070E-02
3052.763, 1.3478900E-02
3054.691, 1.1395330E-02
3056.620, 1.0891250E-02
3058.548, 1.0631930E-02
3060.477, 1.0362870E-02
3062.405, 1.1625400E-02
3064.333, 1.2275530E-02
3066.262, 1.2086530E-02
3068.190, 1.2581480E-02
3070.119, 1.4034890E-02
3072.047, 1.3329810E-02
3073.976, 1.3012420E-02
3075.904, 1.2529040E-02
3077.833, 1.1732370E-02
3079.761, 1.2666400E-02
3081.690, 1.3853870E-02
3083.618, 1.2508120E-02
3085.547, 1.2032140E-02
3087.475, 1.1765310E-02
3089.404, 1.1200430E-02
3091.332, 1.2757590E-02
3093.260, 1.4295420E-02
3095.189, 1.4118350E-02
3097.117, 1.3598870E-02
3099.046, 1.3510060E-02
3100.974, 1.2129320E-02
3102.903, 1.0863060E-02
3104.831, 1.1854160E-02
3106.760, 1.3392100E-02
3108.688, 1.2649730E-02
3110.617, 1.1076660E-02
3112.545, 1.1291200E-02
3114.474, 1.3147410E-02
3116.402, 1.3863100E-02
3118.331, 1.3448320E-02
3120.259, 1.4106340E-02
3122.188, 1.4890910E-02
3124.116, 1.5283560E-02
3126.044, 1.4579750E-02
3127.973, 1.2888440E-02
3129.901, 1.2352790E-02
3131.830, 1.2888560E-02
3133.758, 1.3886530E-02
3135.687, 1.2867320E-02
3137.615, 1.1080960E-02
3139.544, 1.2603530E-02
3141.472, 1.4478090E-02
3143.401, 1.3239820E-02
3145.329, 1.2224380E-02
3147.258, 1.2442430E-02
3149.186, 1.3990770E-02
3151.115, 1.3485200E-02
3153.043, 1.3153440E-02
3154.971, 1.2714580E-02
3156.900, 1.3841590E-02
3158.828, 1.4702260E-02
3160.757, 1.4882100E-02
3162.685, 1.4843400E-02
3164.614, 1.3856670E-02
3166.542, 1.4267060E-02
3168.471, 1.6532520E-02
3170.399, 1.6443180E-02
3172.328, 1.4819060E-02
3174.256, 1.4534470E-02
3176.185, 1.2486540E-02
3178.113, 1.1579510E-02
3180.042, 1.3935390E-02
3181.970, 1.5036020E-02
3183.898, 1.5264840E-02
3185.827, 1.4532720E-02
3187.755, 1.5227480E-02
3189.684, 1.5999749E-02
3191.612, 1.5545530E-02
3193.541, 1.5369060E-02
3195.469, 1.6309209E-02
3197.398, 1.6797220E-02
3199.326, 1.5532610E-02
3201.255, 1.3259040E-02
3203.183, 1.4065970E-02
3205.112, 1.5541260E-02
3207.040, 1.5955130E-02
3208.969, 1.5366120E-02
3210.897, 1.4686540E-02
3212.825, 1.3199710E-02
3214.754, 1.3024090E-02
3216.682, 1.2523570E-02
3218.611, 1.4102690E-02
3220.539, 1.6032111E-02
3222.468, 1.7207351E-02
3224.396, 1.7456049E-02
3226.325, 1.5928460E-02
3228.253, 1.4633410E-02
3230.182, 1.3164380E-02
3232.110, 1.3115160E-02
3234.039, 1.4810690E-02
3235.967, 1.5504510E-02
3237.896, 1.3867420E-02
3239.824, 1.4138710E-02
3241.752, 1.6789770E-02
3243.681, 1.7775619E-02
3245.609, 1.5821589E-02
3247.538, 1.5419710E-02
3249.466, 1.5179620E-02
3251.395, 1.5950790E-02
3253.323, 1.5141200E-02
3255.252, 1.3602910E-02
3257.180, 1.4812520E-02
3259.109, 1.6352041E-02
3261.037, 1.6453199E-02
3262.966, 1.4955300E-02
3264.894, 1.3636320E-02
3266.823, 1.3969110E-02
3268.751, 1.5022860E-02
3270.679, 1.5243450E-02
3272.608, 1.4267650E-02
3274.536, 1.2508870E-02
3276.465, 1.5254060E-02
3278.393, 1.7906990E-02
3280.322, 1.7149800E-02
3282.250, 1.5780261E-02
3284.179, 1.4501120E-02
3286.107, 1.5410220E-02
3288.036, 1.5130980E-02
3289.964, 1.4501660E-02
3291.893, 1.5831690E-02
3293.821, 1.7081650E-02
3295.750, 1.7145140E-02
3297.678, 1.5641220E-02
3299.606, 1.3919300E-02
3301.535, 1.4237090E-02
3303.463, 1.5274990E-02
3305.392, 1.6477009E-02
3307.320, 1.6806791E-02
3309.249, 1.6318120E-02
3311.177, 1.6354371E-02
3313.106, 1.5596310E-02
3315.034, 1.5464710E-02
3316.963, 1.6150970E-02
3318.891, 1.6380349E-02
3320.820, 1.6786890E-02
3322.748, 1.6845539E-02
3324.677, 1.5605350E-02
3326.605, 1.8473960E-02
3328.533, 1.9546170E-02
3330.462, 1.8156311E-02
3332.390, 1.6943131E-02
3334.319, 1.5690921E-02
3336.247, 1.5261230E-02
3338.176, 1.5247920E-02
3340.104, 1.5774310E-02
3342.033, 1.5142000E-02
3343.961, 1.5880680E-02
3345.890, 1.5457940E-02
3347.818, 1.3906620E-02
3349.747, 1.4288400E-02
3351.675, 1.4912680E-02
3353.604, 1.5613190E-02
3355.532, 1.5727021E-02
3357.460, 1.6546961E-02
3359.389, 1.7455021E-02
3361.317, 1.5682541E-02
3363.246, 1.6171580E-02
3365.174, 1.6898081E-02
3367.103, 1.6497221E-02
3369.031, 1.6584011E-02
3370.960, 1.6216800E-02
3372.888, 1.6973780E-02
3374.817, 1.6602870E-02
3376.745, 1.5360780E-02
3378.674, 1.5976040E-02
3380.602, 1.8052440E-02
3382.531, 1.7725561E-02
3384.459, 1.7650200E-02
3386.387, 1.9492559E-02
3388.316, 1.9699350E-02
3390.244, 1.7336849E-02
3392.173, 1.7397091E-02
3394.101, 1.8316720E-02
3396.030, 1.9211840E-02
3397.958, 1.7987950E-02
3399.887, 1.6749110E-02
3401.815, 1.9032640E-02
3403.744, 2.1479480E-02
3405.672, 2.0011511E-02
3407.601, 1.8031791E-02
3409.529, 1.6396640E-02
3411.458, 1.5513890E-02
3413.386, 1.3902230E-02
3415.314, 1.2821080E-02
3417.243, 1.4802490E-02
3419.171, 1.7131859E-02
3421.100, 1.8621501E-02
3423.028, 1.7563829E-02
3424.957, 1.8068841E-02
3426.885, 1.8012010E-02
3428.814, 1.7791949E-02
3430.742, 1.7814031E-02
3432.671, 1.7232521E-02
3434.599, 1.7741350E-02
3436.528, 1.7747389E-02
3438.456, 1.5869590E-02
3440.385, 1.4814770E-02
3442.313, 1.6464340E-02
3444.241, 1.8066850E-02
3446.170, 1.7891141E-02
3448.098, 1.7792931E-02
3450.027, 2.0261589E-02
3451.955, 1.9846100E-02
3453.884, 1.6316401E-02
3455.812, 1.5936270E-02
3457.741, 1.9400431E-02
3459.669, 1.9048760E-02
3461.598, 1.6668379E-02
3463.526, 1.6573809E-02
3465.455, 1.5239120E-02
3467.383, 1.6144419E-02
3469.312, 1.9287899E-02
3471.240, 1.9536760E-02
3473.168, 1.9946840E-02
3475.097, 1.9529071E-02
3477.025, 1.7767331E-02
3478.954, 1.7277719E-02
3480.882, 1.7048040E-02
3482.811, 1.7401110E-02
3484.739, 1.5228750E-02
3486.668, 1.3337050E-02
3488.596, 1.5354550E-02
3490.525, 1.8486399E-02
3492.453, 1.8625241E-02
3494.382, 1.5590090E-02
3496.310, 1.2813400E-02
3498.239, 1.3486790E-02
3500.167, 1.5201170E-02
3502.095, 1.5460740E-02
3504.024, 1.4454920E-02
3505.952, 1.5299630E-02
3507.881, 1.6789230E-02
3509.809, 1.7162191E-02
3511.738, 1.7984740E-02
3513.666, 1.9591089E-02
3515.595, 1.5275820E-02
3517.523, 1.2967430E-02
3519.452, 1.5128510E-02
3521.380, 1.5946800E-02
3523.309, 1.6080230E-02
3525.237, 1.7185541E-02
3527.166, 1.7990321E-02
3529.094, 1.6864520E-02
3531.022, 1.7215390E-02
3532.951, 1.6411370E-02
3534.879, 1.5064240E-02
3536.808, 1.6016901E-02
3538.736, 1.6277431E-02
3540.665, 1.7899049E-02
3542.593, 1.7743260E-02
3544.522, 1.6211580E-02
3546.450, 1.6758321E-02
3548.379, 1.6175751E-02
3550.307, 1.6280839E-02
3552.236, 1.5127750E-02
3554.164, 1.5169140E-02
3556.093, 1.7855570E-02
3558.021, 1.8995561E-02
3559.949, 1.7784489E-02
3561.878, 1.5278580E-02
3563.806, 1.3553850E-02
3565.735, 1.4187760E-02
3567.663, 1.5686071E-02
3569.592, 1.3843980E-02
3571.520, 1.3257200E-02
3573.449, 1.4216900E-02
3575.377, 1.4609470E-02
3577.306, 1.5049230E-02
3579.234, 1.5529580E-02
3581.163, 1.5349560E-02
3583.091, 1.6442459E-02
3585.020, 1.6655760E-02
3586.948, 1.4851840E-02
3588.876, 1.4101150E-02
3590.805, 1.3605280E-02
3592.733, 1.4696250E-02
3594.662, 1.6386380E-02
3596.590, 1.5687220E-02
3598.519, 1.1750890E-02
3600.447, 1.0932000E-02
3602.376, 1.2779420E-02
3604.304, 1.4240100E-02
3606.233, 1.5376530E-02
3608.161, 1.5883939E-02
3610.090, 1.6606970E-02
3612.018, 1.6731121E-02
3613.947, 1.7173270E-02
3615.875, 1.5539850E-02
3617.803, 1.5276370E-02
3619.732, 1.4620610E-02
3621.660, 1.3761900E-02
3623.589, 1.3558130E-02
3625.517, 1.4479820E-02
3627.446, 1.5892589E-02
3629.374, 1.7849971E-02
3631.303, 1.9429799E-02
3633.231, 1.7367760E-02
3635.160, 1.6427010E-02
3637.088, 1.6195480E-02
3639.017, 1.4823620E-02
3640.945, 1.4683040E-02
3642.874, 1.7895730E-02
3644.802, 1.8795740E-02
3646.730, 1.5836110E-02
3648.659, 1.3691810E-02
3650.587, 1.5595090E-02
3652.516, 1.5097060E-02
3654.444, 1.4283390E-02
3656.373, 1.6019929E-02
3658.301, 1.4953450E-02
3660.230, 1.4058700E-02
3662.158, 1.5695250E-02
3664.087, 1.6138351E-02
3666.015, 1.4524240E-02
3667.944, 1.7231559E-02
3669.872, 1.8264379E-02
3671.801, 1.6332479E-02
3673.729, 1.4369450E-02
3675.657, 1.3931330E-02
3677.586, 1.1288320E-02
3679.514, 1.0600790E-02
3681.443, 1.1760040E-02
3683.371, 1.1848080E-02
3685.300, 1.2685970E-02
3687.228, 1.3286030E-02
3689.157, 1.4267480E-02
3691.085, 1.0608520E-02
3693.014, 8.1030969E-03
3694.942, 7.5052432E-03
3696.871, 7.8655994E-03
3698.799, 8.2188938E-03
3700.728, 8.0003608E-03
3702.656, 1.0476670E-02
3704.584, 9.3587041E-03
3706.513, 8.7775411E-03
3708.441, 1.1912510E-02
3710.370, 1.2173240E-02
3712.298, 9.0075647E-03
3714.227, 6.6750580E-03
3716.155, 6.4261900E-03
3718.084, 7.0391679E-03
3720.012, 8.4443185E-03
3721.941, 8.8425949E-03
3723.869, 7.0276912E-03
3725.798, 4.5102560E-03
3727.726, 4.5927302E-03
3729.655, 5.2965749E-03
3731.583, 7.8097428E-03
3733.511, 1.2097480E-02
3735.440, 1.1098730E-02
3737.368, 8.7003335E-03
3739.297, 7.9587316E-03
3741.225, 8.4992023E-03
3743.154, 8.2042627E-03
3745.082, 5.8260099E-03
3747.011, 7.3342398E-03
3748.939, 1.0081460E-02
3750.868, 9.7100306E-03
3752.796, 9.0060486E-03
3754.725, 1.0571150E-02
3756.653, 8.1106285E-03
3758.582, 4.8309569E-03
3760.510, 7.2836890E-03
3762.438, 9.5160184E-03
3764.367, 1.0697980E-02
3766.295, 9.0440921E-03
3768.224, 1.0318510E-02
3770.152, 1.4505480E-02
3772.081, 1.4877740E-02
3774.009, 1.4217570E-02
3775.938, 1.4580880E-02
3777.866, 1.2907840E-02
3779.795, 1.0380320E-02
3781.723, 1.0899550E-02
3783.652, 1.1009860E-02
3785.580, 7.7589131E-03
3787.509, 4.9547371E-03
3789.437, 3.6989891E-03
3791.365, 4.8869550E-03
3793.294, 7.3637269E-03
3795.222, 9.1689406E-03
3797.151, 1.1393440E-02
3799.079, 7.5876480E-03
3801.008, 6.0636802E-03
3802.936, 7.7615692E-03
3804.865, 8.1205834E-03
3806.793, 9.7067347E-03
3808.722, 1.2704720E-02
3810.650, 1.2687610E-02
3812.579, 8.5729184E-03
3814.507, 8.0147898E-03
3816.436, 1.1887720E-02
3818.364, 1.3572170E-02
3820.292, 1.1946650E-02
3822.221, 9.1752037E-03
3824.149, 8.2154786E-03
3826.078, 8.6602354E-03
3828.006, 9.0952246E-03
3829.935, 7.3678079E-03
3831.863, 7.6529980E-03
3833.792, 8.3122794E-03
3835.720, 7.4335760E-03
3837.649, 7.2877542E-03
3839.577, 8.1230756E-03
3841.506, 9.7902538E-03
3843.434, 1.3431470E-02
3845.363, 1.2859170E-02
3847.291, 1.0371210E-02
3849.219, 1.2035440E-02
3851.148, 1.3315140E-02
3853.076, 1.1880730E-02
3855.005, 7.7457968E-03
3856.933, 7.4289879E-03
3858.862, 1.0175730E-02
3860.790, 1.2248280E-02
3862.719, 1.0764160E-02
3864.647, 1.0373680E-02
3866.576, 8.2991552E-03
3868.504, 1.0442590E-02
3870.433, 1.0018390E-02
3872.361, 8.1456322E-03
3874.290, 8.9190574E-03
3876.218, 6.7871851E-03
3878.146, 4.9618250E-03
3880.075, 6.4249332E-03
3882.003, 7.7941008E-03
3883.932, 7.9023102E-03
3885.860, 7.7838651E-03
3887.789, 9.4429636E-03
3889.717, 1.1814070E-02
3891.646, 1.1865250E-02
3893.574, 1.1664050E-02
3895.503, 1.1432920E-02
3897.431, 9.7866533E-03
3899.360, 9.5321340E-03
3901.288, 8.6962488E-03
3903.217, 8.5598975E-03
3905.145, 1.0899060E-02
3907.073, 1.1692630E-02
3909.002, 1.1458450E-02
3910.930, 9.7400043E-03
3912.859, 7.2202920E-03
3914.787, 8.1048002E-03
3916.716, 1.1632240E-02
3918.644, 1.1129110E-02
3920.573, 1.0277430E-02
3922.501, 1.1564500E-02
3924.430, 1.2768240E-02
3926.358, 1.3680870E-02
3928.287, 1.2455590E-02
3930.215, 1.0802060E-02
3932.144, 8.6372178E-03
3934.072, 1.1184600E-02
3936.000, 1.2622200E-02
3937.929, 1.3168590E-02
3939.857, 1.0876780E-02
3941.786, 9.1214478E-03
3943.714, 6.5173260E-03
3945.643, 7.2115981E-03
3947.571, 9.3126288E-03
3949.500, 8.5139656E-03
3951.428, 8.6740507E-03
3953.357, 9.2289513E-03
3955.285, 1.0865160E-02
3957.214, 1.2548370E-02
3959.142, 1.1453420E-02
3961.071, 8.3782626E-03
3962.999, 7.8691281E-03
3964.927, 1.1493700E-02
3966.856, 1.2786300E-02
3968.784, 9.8007666E-03
3970.713, 9.2348121E-03
3972.641, 8.2272207E-03
3974.570, 7.4041290E-03
3976.498, 8.0755567E-03
3978.427, 7.8960545E-03
3980.355, 1.0285010E-02
3982.284, 1.0933750E-02
3984.212, 8.2672331E-03
3986.141, 6.1046490E-03
3988.069, 7.9644416E-03
3989.998, 1.1897130E-02
3991.926, 1.6918899E-02
3993.854, 1.5610380E-02
3995.783, 1.4088270E-02
3997.711, 1.4897430E-02
3999.640, 1.4904620E-02
##END=



