##NAMES=Glaucophane
##RRUFFID=R050333
##IDEAL CHEMISTRY=[box]Na_2_(Mg_3_Al_2_)Si_8_O_22_(OH)_2_
##LOCALITY=Cazadero, Sonoma County, California, USA
##OWNER=RRUFF
##SOURCE=California Institute of Technology
##DESCRIPTION=Blackish-blue fibrous aggregate
##STATUS=The identification of this mineral has been confirmed by X-ray diffraction and chemical analysis
##URL=rruff.info/R050333
##MEASURED CHEMISTRY=[box](Na_1.96_Ca_0.02_[box]_0.02_)_Σ=2_(Mg_1.89_Fe^2+^_1.08_Mn_0.03_)_Σ=3_(Al_1.52_Fe^3+^_0.48_)_Σ=2_Si_8.00_O_22_(OH)_2_
3.991926e+002, 4.189130e-001
4.011211e+002, 4.077841e-001
4.030496e+002, 4.097446e-001
4.049780e+002, 3.803121e-001
4.069065e+002, 3.759989e-001
4.088350e+002, 3.855066e-001
4.107634e+002, 3.738724e-001
4.126919e+002, 3.643468e-001
4.146204e+002, 3.923479e-001
4.165488e+002, 4.205531e-001
4.184773e+002, 4.192008e-001
4.204058e+002, 4.198127e-001
4.223342e+002, 4.298059e-001
4.242627e+002, 4.223223e-001
4.261912e+002, 4.059276e-001
4.281196e+002, 4.099959e-001
4.300481e+002, 4.179780e-001
4.319766e+002, 4.091295e-001
4.339050e+002, 4.098267e-001
4.358335e+002, 4.058454e-001
4.377620e+002, 3.975032e-001
4.396904e+002, 3.872458e-001
4.416189e+002, 3.862187e-001
4.435474e+002, 3.734339e-001
4.454758e+002, 3.531597e-001
4.474043e+002, 3.425021e-001
4.493328e+002, 3.383055e-001
4.512612e+002, 3.368647e-001
4.531897e+002, 3.388314e-001
4.551182e+002, 3.445018e-001
4.570466e+002, 3.530675e-001
4.589751e+002, 3.590850e-001
4.609036e+002, 3.642248e-001
4.628320e+002, 3.727188e-001
4.647605e+002, 3.800641e-001
4.666890e+002, 3.814547e-001
4.686174e+002, 3.805255e-001
4.705459e+002, 3.762485e-001
4.724744e+002, 3.669880e-001
4.744028e+002, 3.553385e-001
4.763313e+002, 3.436826e-001
4.782598e+002, 3.378635e-001
4.801882e+002, 3.328396e-001
4.821167e+002, 3.239692e-001
4.840452e+002, 3.154145e-001
4.859736e+002, 3.067165e-001
4.879021e+002, 2.979645e-001
4.898306e+002, 2.888081e-001
4.917590e+002, 2.815504e-001
4.936875e+002, 2.742293e-001
4.956160e+002, 2.651930e-001
4.975444e+002, 2.562583e-001
4.994729e+002, 2.478260e-001
5.014014e+002, 2.412288e-001
5.033298e+002, 2.365488e-001
5.052583e+002, 2.323896e-001
5.071868e+002, 2.284594e-001
5.091152e+002, 2.265538e-001
5.110437e+002, 2.251264e-001
5.129722e+002, 2.224208e-001
5.149006e+002, 2.193482e-001
5.168291e+002, 2.139778e-001
5.187576e+002, 2.059853e-001
5.206860e+002, 1.976851e-001
5.226145e+002, 1.898794e-001
5.245430e+002, 1.833451e-001
5.264714e+002, 1.763180e-001
5.283999e+002, 1.691235e-001
5.303284e+002, 1.635297e-001
5.322568e+002, 1.571954e-001
5.341853e+002, 1.502010e-001
5.361138e+002, 1.462397e-001
5.380422e+002, 1.442104e-001
5.399707e+002, 1.427332e-001
5.418992e+002, 1.434796e-001
5.438276e+002, 1.451022e-001
5.457561e+002, 1.485180e-001
5.476846e+002, 1.535818e-001
5.496130e+002, 1.590842e-001
5.515415e+002, 1.621476e-001
5.534700e+002, 1.631143e-001
5.553984e+002, 1.615310e-001
5.573269e+002, 1.570906e-001
5.592554e+002, 1.505533e-001
5.611838e+002, 1.433352e-001
5.631123e+002, 1.368187e-001
5.650408e+002, 1.311998e-001
5.669692e+002, 1.268803e-001
5.688977e+002, 1.225882e-001
5.708262e+002, 1.184263e-001
5.727546e+002, 1.146410e-001
5.746831e+002, 1.103763e-001
5.766116e+002, 1.058059e-001
5.785400e+002, 1.004998e-001
5.804685e+002, 9.552606e-002
5.823970e+002, 9.055537e-002
5.843254e+002, 8.515510e-002
5.862539e+002, 7.895237e-002
5.881824e+002, 7.273594e-002
5.901108e+002, 6.744281e-002
5.920393e+002, 6.295110e-002
5.939678e+002, 5.852301e-002
5.958962e+002, 5.453728e-002
5.978247e+002, 5.089775e-002
5.997532e+002, 4.815073e-002
6.016816e+002, 4.599352e-002
6.036101e+002, 4.379921e-002
6.055386e+002, 4.198494e-002
6.074670e+002, 4.125851e-002
6.093955e+002, 4.120339e-002
6.113240e+002, 4.066119e-002
6.132524e+002, 4.052569e-002
6.151809e+002, 4.103829e-002
6.171094e+002, 4.124403e-002
6.190378e+002, 4.148510e-002
6.209663e+002, 4.222703e-002
6.228948e+002, 4.288983e-002
6.248232e+002, 4.377104e-002
6.267517e+002, 4.521102e-002
6.286802e+002, 4.701453e-002
6.306086e+002, 4.890466e-002
6.325371e+002, 5.138286e-002
6.344656e+002, 5.461770e-002
6.363940e+002, 5.858447e-002
6.383225e+002, 6.263752e-002
6.402510e+002, 6.656814e-002
6.421794e+002, 7.007702e-002
6.441079e+002, 7.279383e-002
6.460364e+002, 7.449349e-002
6.479648e+002, 7.442102e-002
6.498933e+002, 7.271249e-002
6.518218e+002, 7.066273e-002
6.537502e+002, 6.973303e-002
6.556787e+002, 6.990007e-002
6.576072e+002, 7.129080e-002
6.595356e+002, 7.426666e-002
6.614641e+002, 7.802179e-002
6.633926e+002, 8.294006e-002
6.653210e+002, 8.952577e-002
6.672495e+002, 9.761346e-002
6.691780e+002, 1.060671e-001
6.711064e+002, 1.134237e-001
6.730349e+002, 1.179663e-001
6.749634e+002, 1.190457e-001
6.768918e+002, 1.165351e-001
6.788203e+002, 1.117489e-001
6.807488e+002, 1.078672e-001
6.826772e+002, 1.080073e-001
6.846057e+002, 1.113634e-001
6.865342e+002, 1.160017e-001
6.884626e+002, 1.217259e-001
6.903911e+002, 1.274769e-001
6.923196e+002, 1.308340e-001
6.942480e+002, 1.302829e-001
6.961765e+002, 1.265367e-001
6.981050e+002, 1.198171e-001
7.000334e+002, 1.103504e-001
7.019619e+002, 9.972791e-002
7.038904e+002, 8.943039e-002
7.058188e+002, 8.064354e-002
7.077473e+002, 7.307895e-002
7.096758e+002, 6.684303e-002
7.116042e+002, 6.300147e-002
7.135327e+002, 6.046338e-002
7.154612e+002, 5.887872e-002
7.173896e+002, 5.845032e-002
7.193181e+002, 5.839062e-002
7.212466e+002, 5.907330e-002
7.231750e+002, 6.132496e-002
7.251035e+002, 6.493222e-002
7.270320e+002, 6.916568e-002
7.289604e+002, 7.253110e-002
7.308889e+002, 7.412360e-002
7.328174e+002, 7.267325e-002
7.347458e+002, 6.848457e-002
7.366743e+002, 6.387510e-002
7.386028e+002, 6.002237e-002
7.405313e+002, 5.759317e-002
7.424597e+002, 5.555926e-002
7.443882e+002, 5.409488e-002
7.463167e+002, 5.386261e-002
7.482451e+002, 5.421342e-002
7.501736e+002, 5.443373e-002
7.521021e+002, 5.515440e-002
7.540305e+002, 5.650076e-002
7.559590e+002, 5.802879e-002
7.578875e+002, 5.985663e-002
7.598159e+002, 6.239453e-002
7.617444e+002, 6.535456e-002
7.636729e+002, 6.845655e-002
7.656013e+002, 7.098729e-002
7.675298e+002, 7.311052e-002
7.694583e+002, 7.543721e-002
7.713867e+002, 7.886586e-002
7.733152e+002, 8.432253e-002
7.752437e+002, 9.185006e-002
7.771721e+002, 1.012919e-001
7.791006e+002, 1.134011e-001
7.810291e+002, 1.290633e-001
7.829575e+002, 1.487637e-001
7.848860e+002, 1.712278e-001
7.868145e+002, 1.943969e-001
7.887429e+002, 2.140805e-001
7.906714e+002, 2.238023e-001
7.925999e+002, 2.190468e-001
7.945283e+002, 2.003198e-001
7.964568e+002, 1.721505e-001
7.983853e+002, 1.419370e-001
8.003137e+002, 1.148092e-001
8.022422e+002, 9.409306e-002
8.041707e+002, 8.037229e-002
8.060991e+002, 7.193083e-002
8.080276e+002, 6.680779e-002
8.099561e+002, 6.396652e-002
8.118845e+002, 6.233981e-002
8.138130e+002, 6.180254e-002
8.157415e+002, 6.205898e-002
8.176699e+002, 6.229899e-002
8.195984e+002, 6.319107e-002
8.215269e+002, 6.485368e-002
8.234553e+002, 6.646127e-002
8.253838e+002, 6.867053e-002
8.273123e+002, 7.142620e-002
8.292407e+002, 7.401957e-002
8.311692e+002, 7.687653e-002
8.330977e+002, 8.040493e-002
8.350261e+002, 8.437222e-002
8.369546e+002, 8.829644e-002
8.388831e+002, 9.287587e-002
8.408115e+002, 9.766407e-002
8.427400e+002, 1.023937e-001
8.446685e+002, 1.077388e-001
8.465969e+002, 1.137065e-001
8.485254e+002, 1.200806e-001
8.504539e+002, 1.270701e-001
8.523823e+002, 1.343108e-001
8.543108e+002, 1.421221e-001
8.562393e+002, 1.503898e-001
8.581677e+002, 1.592203e-001
8.600962e+002, 1.682802e-001
8.620247e+002, 1.777051e-001
8.639531e+002, 1.882256e-001
8.658816e+002, 1.998581e-001
8.678101e+002, 2.121414e-001
8.697385e+002, 2.259636e-001
8.716670e+002, 2.410326e-001
8.735955e+002, 2.565610e-001
8.755239e+002, 2.722119e-001
8.774524e+002, 2.859410e-001
8.793809e+002, 2.966185e-001
8.813093e+002, 3.034083e-001
8.832378e+002, 3.047760e-001
8.851663e+002, 3.020494e-001
8.870947e+002, 2.973108e-001
8.890232e+002, 2.917501e-001
8.909517e+002, 2.866054e-001
8.928801e+002, 2.842896e-001
8.948085e+002, 2.846750e-001
8.967370e+002, 2.875200e-001
8.986655e+002, 2.925049e-001
9.005939e+002, 2.992207e-001
9.025224e+002, 3.076678e-001
9.044509e+002, 3.168311e-001
9.063793e+002, 3.264583e-001
9.083078e+002, 3.361456e-001
9.102363e+002, 3.439583e-001
9.121647e+002, 3.496170e-001
9.140932e+002, 3.544848e-001
9.160217e+002, 3.596195e-001
9.179501e+002, 3.664884e-001
9.198786e+002, 3.768817e-001
9.218071e+002, 3.905039e-001
9.237355e+002, 4.061299e-001
9.256640e+002, 4.227821e-001
9.275925e+002, 4.396564e-001
9.295209e+002, 4.565288e-001
9.314494e+002, 4.728528e-001
9.333779e+002, 4.872591e-001
9.353063e+002, 4.999398e-001
9.372348e+002, 5.110232e-001
9.391633e+002, 5.214038e-001
9.410917e+002, 5.312771e-001
9.430202e+002, 5.390488e-001
9.449487e+002, 5.455239e-001
9.468771e+002, 5.512564e-001
9.488056e+002, 5.556892e-001
9.507341e+002, 5.584334e-001
9.526625e+002, 5.593576e-001
9.545910e+002, 5.585466e-001
9.565195e+002, 5.567750e-001
9.584479e+002, 5.551351e-001
9.603764e+002, 5.524459e-001
9.623049e+002, 5.482776e-001
9.642333e+002, 5.433611e-001
9.661618e+002, 5.374004e-001
9.680903e+002, 5.304599e-001
9.700187e+002, 5.228330e-001
9.719472e+002, 5.139545e-001
9.738757e+002, 5.037073e-001
9.758041e+002, 4.926086e-001
9.777326e+002, 4.805204e-001
9.796611e+002, 4.666483e-001
9.815895e+002, 4.519879e-001
9.835180e+002, 4.379545e-001
9.854465e+002, 4.244281e-001
9.873749e+002, 4.119405e-001
9.893034e+002, 4.018051e-001
9.912319e+002, 3.935521e-001
9.931603e+002, 3.874388e-001
9.950888e+002, 3.841109e-001
9.970173e+002, 3.834657e-001
9.989457e+002, 3.845744e-001
1.000874e+003, 3.851197e-001
1.002803e+003, 3.840118e-001
1.004731e+003, 3.809098e-001
1.006660e+003, 3.776022e-001
1.008588e+003, 3.756405e-001
1.010517e+003, 3.738266e-001
1.012445e+003, 3.718015e-001
1.014373e+003, 3.691244e-001
1.016302e+003, 3.656072e-001
1.018230e+003, 3.604969e-001
1.020159e+003, 3.545239e-001
1.022087e+003, 3.481392e-001
1.024016e+003, 3.416613e-001
1.025944e+003, 3.351108e-001
1.027873e+003, 3.279242e-001
1.029801e+003, 3.199162e-001
1.031730e+003, 3.119477e-001
1.033658e+003, 3.042384e-001
1.035587e+003, 2.961288e-001
1.037515e+003, 2.877786e-001
1.039444e+003, 2.797353e-001
1.041372e+003, 2.724293e-001
1.043301e+003, 2.660348e-001
1.045229e+003, 2.595733e-001
1.047157e+003, 2.530481e-001
1.049086e+003, 2.470278e-001
1.051014e+003, 2.411160e-001
1.052943e+003, 2.351969e-001
1.054871e+003, 2.287964e-001
1.056800e+003, 2.214805e-001
1.058728e+003, 2.128846e-001
1.060657e+003, 2.025223e-001
1.062585e+003, 1.904175e-001
1.064514e+003, 1.779591e-001
1.066442e+003, 1.662032e-001
1.068371e+003, 1.564179e-001
1.070299e+003, 1.496635e-001
1.072228e+003, 1.455222e-001
1.074156e+003, 1.434161e-001
1.076084e+003, 1.428080e-001
1.078013e+003, 1.436047e-001
1.079941e+003, 1.456043e-001
1.081870e+003, 1.473802e-001
1.083798e+003, 1.486418e-001
1.085727e+003, 1.494837e-001
1.087655e+003, 1.500228e-001
1.089584e+003, 1.510795e-001
1.091512e+003, 1.527290e-001
1.093441e+003, 1.555808e-001
1.095369e+003, 1.594226e-001
1.097298e+003, 1.632826e-001
1.099226e+003, 1.671875e-001
1.101155e+003, 1.707431e-001
1.103083e+003, 1.736977e-001
1.105011e+003, 1.760767e-001
1.106940e+003, 1.779019e-001
1.108868e+003, 1.789136e-001
1.110797e+003, 1.783968e-001
1.112725e+003, 1.763512e-001
1.114654e+003, 1.735120e-001
1.116582e+003, 1.700711e-001
1.118511e+003, 1.655959e-001
1.120439e+003, 1.607083e-001
1.122368e+003, 1.554785e-001
1.124296e+003, 1.494904e-001
1.126225e+003, 1.427402e-001
1.128153e+003, 1.358554e-001
1.130082e+003, 1.288314e-001
1.132010e+003, 1.216517e-001
1.133938e+003, 1.144165e-001
1.135867e+003, 1.073329e-001
1.137795e+003, 1.001397e-001
1.139724e+003, 9.334551e-002
1.141652e+003, 8.688086e-002
1.143581e+003, 8.095706e-002
1.145509e+003, 7.632250e-002
1.147438e+003, 7.318229e-002
1.149366e+003, 7.221755e-002
1.151295e+003, 7.351056e-002
1.153223e+003, 7.531787e-002
1.155152e+003, 7.575361e-002
1.157080e+003, 7.346143e-002
1.159009e+003, 6.805456e-002
1.160937e+003, 6.106309e-002
1.162865e+003, 5.428384e-002
1.164794e+003, 4.816715e-002
1.166722e+003, 4.263612e-002
1.168651e+003, 3.801725e-002
1.170579e+003, 3.381597e-002
1.172508e+003, 3.027981e-002
1.174436e+003, 2.721815e-002
1.176365e+003, 2.454393e-002
1.178293e+003, 2.233248e-002
1.180222e+003, 2.024954e-002
1.182150e+003, 1.856745e-002
1.184079e+003, 1.713812e-002
1.186007e+003, 1.583716e-002
1.187936e+003, 1.491255e-002
1.189864e+003, 1.398439e-002
1.191792e+003, 1.308490e-002
1.193721e+003, 1.251735e-002
1.195649e+003, 1.193050e-002
1.197578e+003, 1.124989e-002
1.199506e+003, 1.046574e-002
1.201435e+003, 9.708952e-003
1.203363e+003, 9.096097e-003
1.205292e+003, 8.782267e-003
1.207220e+003, 8.520805e-003
1.209149e+003, 7.864016e-003
1.211077e+003, 7.388189e-003
1.213006e+003, 7.160418e-003
1.214934e+003, 7.026509e-003
1.216863e+003, 6.517403e-003
1.218791e+003, 5.928417e-003
1.220719e+003, 5.649019e-003
1.222648e+003, 5.418345e-003
1.224576e+003, 5.371433e-003
1.226505e+003, 5.244152e-003
1.228433e+003, 5.098561e-003
1.230362e+003, 4.841489e-003
1.232290e+003, 4.346932e-003
1.234219e+003, 4.106835e-003
1.236147e+003, 3.971867e-003
1.238076e+003, 4.120496e-003
1.240004e+003, 4.198131e-003
1.241933e+003, 3.985067e-003
1.243861e+003, 3.679905e-003
1.245790e+003, 3.381267e-003
1.247718e+003, 3.426773e-003
1.249646e+003, 3.514871e-003
1.251575e+003, 3.567504e-003
1.253503e+003, 3.524005e-003
1.255432e+003, 3.181575e-003
1.257360e+003, 3.077688e-003
1.259289e+003, 3.254812e-003
1.261217e+003, 3.487441e-003
1.263146e+003, 3.337328e-003
1.265074e+003, 3.176793e-003
1.267003e+003, 3.245019e-003
1.268931e+003, 3.413997e-003
1.270860e+003, 3.599458e-003
1.272788e+003, 3.357628e-003
1.274717e+003, 3.286614e-003
1.276645e+003, 3.391125e-003
1.278573e+003, 3.587194e-003
1.280502e+003, 3.870672e-003
1.282430e+003, 3.842314e-003
1.284359e+003, 3.556398e-003
1.286287e+003, 3.193371e-003
1.288216e+003, 3.131709e-003
1.290144e+003, 3.084900e-003
1.292073e+003, 3.054256e-003
1.294001e+003, 3.181733e-003
1.295930e+003, 3.252722e-003
1.297858e+003, 3.196450e-003
1.299787e+003, 3.187253e-003
1.301715e+003, 3.148175e-003
1.303644e+003, 2.981595e-003
1.305572e+003, 2.890559e-003
1.307500e+003, 2.884248e-003
1.309429e+003, 3.030725e-003
1.311357e+003, 3.225983e-003
1.313286e+003, 3.196856e-003
1.315214e+003, 3.281402e-003
1.317143e+003, 3.444560e-003
1.319071e+003, 3.257838e-003
1.321000e+003, 3.210351e-003
1.322928e+003, 3.322250e-003
1.324857e+003, 3.370806e-003
1.326785e+003, 3.374916e-003
1.328714e+003, 3.268635e-003
1.330642e+003, 3.232853e-003
1.332571e+003, 3.353704e-003
1.334499e+003, 3.355399e-003
1.336427e+003, 3.249002e-003
1.338356e+003, 3.455648e-003
1.340284e+003, 3.754789e-003
1.342213e+003, 3.803253e-003
1.344141e+003, 3.797735e-003
1.346070e+003, 3.906354e-003
1.347998e+003, 3.897068e-003
1.349927e+003, 4.002882e-003
1.351855e+003, 3.998679e-003
1.353784e+003, 4.020913e-003
1.355712e+003, 4.094713e-003
1.357641e+003, 3.967468e-003
1.359569e+003, 3.769553e-003
1.361498e+003, 3.813855e-003
1.363426e+003, 3.893647e-003
1.365354e+003, 3.888908e-003
1.367283e+003, 4.177244e-003
1.369211e+003, 4.434564e-003
1.371140e+003, 4.524852e-003
1.373068e+003, 4.546390e-003
1.374997e+003, 4.451327e-003
1.376925e+003, 4.328975e-003
1.378854e+003, 4.428189e-003
1.380782e+003, 4.772781e-003
1.382711e+003, 5.021530e-003
1.384639e+003, 5.309144e-003
1.386568e+003, 5.957482e-003
1.388496e+003, 6.103038e-003
1.390424e+003, 5.962235e-003
1.392353e+003, 6.266856e-003
1.394281e+003, 6.522334e-003
1.396210e+003, 6.618856e-003
1.398138e+003, 6.637036e-003
1.400067e+003, 6.636670e-003
1.401995e+003, 6.606175e-003
1.403924e+003, 6.557378e-003
1.405852e+003, 6.499293e-003
1.407781e+003, 6.745344e-003
1.409709e+003, 7.182804e-003
1.411638e+003, 7.157326e-003
1.413566e+003, 6.868401e-003
1.415495e+003, 6.652811e-003
1.417423e+003, 6.909322e-003
1.419351e+003, 7.021174e-003
1.421280e+003, 7.016042e-003
1.423208e+003, 7.002240e-003
1.425137e+003, 6.765343e-003
1.427065e+003, 6.317754e-003
1.428994e+003, 6.207676e-003
1.430922e+003, 6.546191e-003
1.432851e+003, 6.567200e-003
1.434779e+003, 6.389030e-003
1.436708e+003, 6.238252e-003
1.438636e+003, 6.132433e-003
1.440565e+003, 5.990087e-003
1.442493e+003, 5.770622e-003
1.444422e+003, 5.664644e-003
1.446350e+003, 5.581154e-003
1.448278e+003, 5.317721e-003
1.450207e+003, 5.006117e-003
1.452135e+003, 4.823268e-003
1.454064e+003, 4.599982e-003
1.455992e+003, 4.625036e-003
1.457921e+003, 4.295486e-003
1.459849e+003, 3.810025e-003
1.461778e+003, 3.668164e-003
1.463706e+003, 3.879277e-003
1.465635e+003, 3.888102e-003
1.467563e+003, 3.616220e-003
1.469492e+003, 4.076186e-003
1.471420e+003, 5.188698e-003
1.473349e+003, 5.950770e-003
1.475277e+003, 5.983328e-003
1.477205e+003, 5.820477e-003
1.479134e+003, 5.560918e-003
1.481062e+003, 5.629849e-003
1.482991e+003, 5.859784e-003
1.484919e+003, 6.163989e-003
1.486848e+003, 6.088091e-003
1.488776e+003, 5.871743e-003
1.490705e+003, 5.824722e-003
1.492633e+003, 5.934119e-003
1.494562e+003, 6.308315e-003
1.496490e+003, 6.475144e-003
1.498419e+003, 6.400151e-003
1.500347e+003, 6.311100e-003
1.502276e+003, 6.161010e-003
1.504204e+003, 6.527197e-003
1.506132e+003, 7.056007e-003
1.508061e+003, 6.831069e-003
1.509989e+003, 6.251185e-003
1.511918e+003, 6.301805e-003
1.513846e+003, 6.375987e-003
1.515775e+003, 6.558536e-003
1.517703e+003, 6.402185e-003
1.519632e+003, 6.115699e-003
1.521560e+003, 6.223914e-003
1.523489e+003, 6.221866e-003
1.525417e+003, 6.457079e-003
1.527346e+003, 6.564133e-003
1.529274e+003, 6.480415e-003
1.531203e+003, 6.548942e-003
1.533131e+003, 6.505736e-003
1.535059e+003, 6.273741e-003
1.536988e+003, 6.540102e-003
1.538916e+003, 7.223459e-003
1.540845e+003, 7.240253e-003
1.542773e+003, 6.754146e-003
1.544702e+003, 6.685404e-003
1.546630e+003, 6.575750e-003
1.548559e+003, 6.767554e-003
1.550487e+003, 6.951145e-003
1.552416e+003, 6.936196e-003
1.554344e+003, 6.911199e-003
1.556273e+003, 7.301331e-003
1.558201e+003, 7.497872e-003
1.560130e+003, 7.099207e-003
1.562058e+003, 6.487540e-003
1.563986e+003, 6.177210e-003
1.565915e+003, 5.976785e-003
1.567843e+003, 5.865818e-003
1.569772e+003, 6.111676e-003
1.571700e+003, 5.963982e-003
1.573629e+003, 6.011960e-003
1.575557e+003, 6.228021e-003
1.577486e+003, 5.987201e-003
1.579414e+003, 5.878758e-003
1.581343e+003, 5.900046e-003
1.583271e+003, 5.917242e-003
1.585200e+003, 6.104756e-003
1.587128e+003, 6.327255e-003
1.589057e+003, 6.191327e-003
1.590985e+003, 6.221288e-003
1.592913e+003, 6.605938e-003
1.594842e+003, 6.730783e-003
1.596770e+003, 6.622040e-003
1.598699e+003, 6.641055e-003
1.600627e+003, 6.896541e-003
1.602556e+003, 7.063930e-003
1.604484e+003, 7.297599e-003
1.606413e+003, 7.356719e-003
1.608341e+003, 7.309004e-003
1.610270e+003, 7.111246e-003
1.612198e+003, 7.195802e-003
1.614127e+003, 7.538966e-003
1.616055e+003, 7.836413e-003
1.617984e+003, 7.802179e-003
1.619912e+003, 7.657847e-003
1.621840e+003, 7.833384e-003
1.623769e+003, 7.970667e-003
1.625697e+003, 8.130509e-003
1.627626e+003, 8.434593e-003
1.629554e+003, 8.773660e-003
1.631483e+003, 8.700363e-003
1.633411e+003, 8.792728e-003
1.635340e+003, 9.157601e-003
1.637268e+003, 9.110482e-003
1.639197e+003, 9.301845e-003
1.641125e+003, 9.372401e-003
1.643054e+003, 9.336527e-003
1.644982e+003, 9.505661e-003
1.646911e+003, 9.654129e-003
1.648839e+003, 9.419499e-003
1.650767e+003, 9.528118e-003
1.652696e+003, 9.879169e-003
1.654624e+003, 9.583770e-003
1.656553e+003, 8.918022e-003
1.658481e+003, 8.207258e-003
1.660410e+003, 7.993637e-003
1.662338e+003, 8.183504e-003
1.664267e+003, 7.753977e-003
1.666195e+003, 7.342161e-003
1.668124e+003, 7.013157e-003
1.670052e+003, 6.893939e-003
1.671981e+003, 6.862694e-003
1.673909e+003, 6.795924e-003
1.675838e+003, 6.584691e-003
1.677766e+003, 6.532360e-003
1.679694e+003, 6.346885e-003
1.681623e+003, 6.145734e-003
1.683551e+003, 6.201669e-003
1.685480e+003, 5.580877e-003
1.687408e+003, 4.694840e-003
1.689337e+003, 4.289981e-003
1.691265e+003, 3.800649e-003
1.693194e+003, 3.414844e-003
1.695122e+003, 3.637931e-003
1.697051e+003, 3.665973e-003
1.698979e+003, 3.310581e-003
1.700908e+003, 2.713767e-003
1.702836e+003, 2.158744e-003
1.704765e+003, 2.097743e-003
1.706693e+003, 1.561509e-003
1.708621e+003, 6.095251e-004
1.710550e+003, -1.458167e-004
1.712478e+003, -2.326391e-006
1.714407e+003, 8.037732e-004
1.716335e+003, 1.173508e-003
1.718264e+003, 9.374215e-004
1.720192e+003, 5.695022e-004
1.722121e+003, 2.850160e-004
1.724049e+003, 1.832214e-004
1.725978e+003, -6.930940e-005
1.727906e+003, -1.968655e-004
1.729835e+003, -6.504316e-004
1.731763e+003, -6.923763e-004
1.733692e+003, -1.108202e-003
1.735620e+003, -2.466909e-003
1.737548e+003, -3.483401e-003
1.739477e+003, -4.239422e-003
1.741405e+003, -5.321065e-003
1.743334e+003, -5.872414e-003
1.745262e+003, -5.293285e-003
1.747191e+003, -4.463479e-003
1.749119e+003, -4.099866e-003
1.751048e+003, -3.255273e-003
1.752976e+003, -2.293905e-003
1.754905e+003, -1.400058e-003
1.756833e+003, -5.720576e-004
1.758762e+003, -7.219917e-005
1.760690e+003, 4.409349e-004
1.762619e+003, 7.521870e-004
1.764547e+003, 4.280948e-004
1.766475e+003, 5.988833e-004
1.768404e+003, 1.469487e-003
1.770332e+003, 1.993914e-003
1.772261e+003, 2.419276e-003
1.774189e+003, 2.177040e-003
1.776118e+003, 1.712137e-003
1.778046e+003, 1.914125e-003
1.779975e+003, 2.125470e-003
1.781903e+003, 1.898627e-003
1.783832e+003, 1.802569e-003
1.785760e+003, 1.987976e-003
1.787689e+003, 1.642381e-003
1.789617e+003, 1.240599e-003
1.791546e+003, 1.609222e-003
1.793474e+003, 1.765974e-003
1.795402e+003, 1.144812e-003
1.797331e+003, 1.117713e-003
1.799259e+003, 1.295890e-003
1.801188e+003, 1.258124e-003
1.803116e+003, 1.080927e-003
1.805045e+003, 7.201849e-004
1.806973e+003, 1.076884e-003
1.808902e+003, 1.148438e-003
1.810830e+003, 1.030817e-003
1.812759e+003, 1.083098e-003
1.814687e+003, 5.265958e-004
1.816616e+003, -2.348937e-004
1.818544e+003, 1.626906e-006
1.820473e+003, 2.730537e-004
1.822401e+003, 5.978413e-004
1.824329e+003, 7.967951e-004
1.826258e+003, 7.697747e-004
1.828186e+003, 7.510029e-004
1.830115e+003, 7.292164e-004
1.832043e+003, 4.006499e-005
1.833972e+003, -3.534026e-004
1.835900e+003, -4.118397e-004
1.837829e+003, 1.737515e-004
1.839757e+003, 5.303329e-004
1.841686e+003, 5.013958e-004
1.843614e+003, 3.353713e-005
1.845543e+003, -6.961382e-004
1.847471e+003, -7.415731e-004
1.849400e+003, -3.925739e-004
1.851328e+003, 9.735562e-005
1.853256e+003, -1.941420e-004
1.855185e+003, -1.243802e-003
1.857113e+003, -1.707289e-003
1.859042e+003, -1.351920e-003
1.860970e+003, -1.222069e-003
1.862899e+003, -1.118308e-003
1.864827e+003, -9.165573e-004
1.866756e+003, -1.349008e-003
1.868684e+003, -1.894986e-003
1.870613e+003, -1.464158e-003
1.872541e+003, -8.380422e-004
1.874470e+003, -6.857023e-004
1.876398e+003, -8.556059e-004
1.878327e+003, -1.387690e-003
1.880255e+003, -1.485262e-003
1.882183e+003, -1.364826e-003
1.884112e+003, -1.533111e-003
1.886040e+003, -1.403121e-003
1.887969e+003, -1.510587e-003
1.889897e+003, -1.273452e-003
1.891826e+003, -1.380329e-003
1.893754e+003, -2.034211e-003
1.895683e+003, -2.017485e-003
1.897611e+003, -1.711077e-003
1.899540e+003, -1.946181e-003
1.901468e+003, -1.502836e-003
1.903397e+003, -2.224979e-003
1.905325e+003, -3.624552e-003
1.907254e+003, -3.271079e-003
1.909182e+003, -2.663661e-003
1.911110e+003, -3.017476e-003
1.913039e+003, -2.440477e-003
1.914967e+003, -2.734598e-003
1.916896e+003, -3.706319e-003
1.918824e+003, -3.909723e-003
1.920753e+003, -3.868044e-003
1.922681e+003, -4.516890e-003
1.924610e+003, -4.862963e-003
1.926538e+003, -5.365877e-003
1.928467e+003, -4.702820e-003
1.930395e+003, -4.045083e-003
1.932324e+003, -5.290252e-003
1.934252e+003, -5.995540e-003
1.936181e+003, -6.246525e-003
1.938109e+003, -6.575284e-003
1.940037e+003, -6.987121e-003
1.941966e+003, -6.581091e-003
1.943894e+003, -6.794025e-003
1.945823e+003, -6.025324e-003
1.947751e+003, -4.457221e-003
1.949680e+003, -5.565886e-003
1.951608e+003, -7.877330e-003
1.953537e+003, -7.987396e-003
1.955465e+003, -7.584909e-003
1.957394e+003, -7.776851e-003
1.959322e+003, -8.587539e-003
1.961251e+003, -9.054168e-003
1.963179e+003, -7.454478e-003
1.965108e+003, -7.974651e-003
1.967036e+003, -8.222061e-003
1.968964e+003, -8.226051e-003
1.970893e+003, -9.618465e-003
1.972821e+003, -1.236360e-002
1.974750e+003, -1.412852e-002
1.976678e+003, -1.305277e-002
1.978607e+003, -1.214082e-002
1.980535e+003, -1.003642e-002
1.982464e+003, -7.503872e-003
1.984392e+003, -4.978129e-003
1.986321e+003, -5.140194e-003
1.988249e+003, -7.694703e-003
1.990178e+003, -8.954230e-003
1.992106e+003, -9.131628e-003
1.994035e+003, -8.604671e-003
1.995963e+003, -7.523433e-003
1.997891e+003, -8.586444e-003
1.999820e+003, -1.049533e-002
2.001748e+003, -1.204442e-002
2.003677e+003, -1.181412e-002
2.005605e+003, -1.036758e-002
2.007534e+003, -9.470782e-003
2.009462e+003, -1.077147e-002
2.011391e+003, -1.179892e-002
2.013319e+003, -1.069587e-002
2.015248e+003, -1.116186e-002
2.017176e+003, -1.330578e-002
2.019105e+003, -1.133764e-002
2.021033e+003, -8.369831e-003
2.022962e+003, -9.932820e-003
2.024890e+003, -1.440271e-002
2.026818e+003, -1.529499e-002
2.028747e+003, -1.474968e-002
2.030675e+003, -1.413144e-002
2.032604e+003, -1.358484e-002
2.034532e+003, -1.056714e-002
2.036461e+003, -8.856759e-003
2.038389e+003, -1.101452e-002
2.040318e+003, -1.202276e-002
2.042246e+003, -1.184144e-002
2.044175e+003, -1.139818e-002
2.046103e+003, -1.052386e-002
2.048032e+003, -9.520256e-003
2.049960e+003, -8.972225e-003
2.051889e+003, -7.653015e-003
2.053817e+003, -7.477616e-003
2.055746e+003, -7.510575e-003
2.057674e+003, -8.005887e-003
2.059603e+003, -7.983157e-003
2.061531e+003, -7.188435e-003
2.063459e+003, -7.036573e-003
2.065388e+003, -7.427377e-003
2.067316e+003, -7.064405e-003
2.069245e+003, -7.117863e-003
2.071173e+003, -7.294149e-003
2.073102e+003, -6.961152e-003
2.075030e+003, -7.016612e-003
2.076959e+003, -5.763022e-003
2.078887e+003, -3.632953e-003
2.080816e+003, -4.580715e-003
2.082744e+003, -5.962825e-003
2.084673e+003, -5.978159e-003
2.086601e+003, -5.332276e-003
2.088530e+003, -5.025852e-003
2.090458e+003, -5.824430e-003
2.092386e+003, -6.339415e-003
2.094315e+003, -4.671257e-003
2.096243e+003, -2.837200e-003
2.098172e+003, -4.296467e-003
2.100100e+003, -5.694957e-003
2.102029e+003, -4.415341e-003
2.103957e+003, -3.989505e-003
2.105886e+003, -4.213849e-003
2.107814e+003, -5.089066e-003
2.109743e+003, -4.686542e-003
2.111671e+003, -2.666247e-003
2.113600e+003, -3.021389e-003
2.115528e+003, -4.271937e-003
2.117457e+003, -4.064208e-003
2.119385e+003, -4.013516e-003
2.121313e+003, -5.320567e-003
2.123242e+003, -5.759179e-003
2.125170e+003, -5.723473e-003
2.127099e+003, -6.864636e-003
2.129027e+003, -6.811901e-003
2.130956e+003, -5.704249e-003
2.132884e+003, -6.042975e-003
2.134813e+003, -6.533281e-003
2.136741e+003, -6.074090e-003
2.138670e+003, -6.051763e-003
2.140598e+003, -7.573048e-003
2.142527e+003, -9.482147e-003
2.144455e+003, -9.490541e-003
2.146384e+003, -8.468804e-003
2.148312e+003, -8.900465e-003
2.150240e+003, -8.857362e-003
2.152169e+003, -9.058547e-003
2.154097e+003, -9.281382e-003
2.156026e+003, -1.209590e-002
2.157954e+003, -1.078968e-002
2.159883e+003, -6.714248e-003
2.161811e+003, -7.421992e-003
2.163740e+003, -4.947993e-003
2.165668e+003, -1.408618e-003
2.167597e+003, -1.668580e-003
2.169525e+003, -3.745095e-003
2.171454e+003, -8.628679e-003
2.173382e+003, -1.149564e-002
2.175311e+003, -6.295359e-003
2.177239e+003, -4.892457e-003
2.179167e+003, -7.611734e-003
2.181096e+003, -8.202203e-003
2.183024e+003, -7.064434e-003
2.184953e+003, -6.509004e-003
2.186881e+003, -4.130295e-003
2.188810e+003, -2.299205e-003
2.190738e+003, -3.988036e-003
2.192667e+003, -4.729210e-003
2.194595e+003, -5.994705e-003
2.196524e+003, -4.814724e-003
2.198452e+003, -2.264206e-003
2.200381e+003, -2.368525e-003
2.202309e+003, -3.799071e-003
2.204238e+003, -2.818078e-003
2.206166e+003, -3.650773e-003
2.208094e+003, -3.989249e-003
2.210023e+003, -4.952358e-003
2.211951e+003, -7.793278e-003
2.213880e+003, -7.345710e-003
2.215808e+003, -5.786170e-003
2.217737e+003, -4.830954e-003
2.219665e+003, -4.391884e-003
2.221594e+003, -3.738119e-003
2.223522e+003, -4.075008e-003
2.225451e+003, -4.670481e-003
2.227379e+003, -5.235569e-003
2.229308e+003, -4.743262e-003
2.231236e+003, -4.767449e-003
2.233165e+003, -4.037858e-003
2.235093e+003, -3.641537e-003
2.237021e+003, -4.345502e-003
2.238950e+003, -4.682200e-003
2.240878e+003, -4.060530e-003
2.242807e+003, -4.697661e-003
2.244735e+003, -3.284460e-003
2.246664e+003, -1.830351e-003
2.248592e+003, -2.036777e-003
2.250521e+003, -1.921390e-003
2.252449e+003, -1.449637e-003
2.254378e+003, -1.355701e-003
2.256306e+003, -1.946400e-003
2.258235e+003, -1.279112e-003
2.260163e+003, -2.823249e-005
2.262092e+003, -5.853595e-005
2.264020e+003, 1.934106e-004
2.265948e+003, 5.343395e-004
2.267877e+003, 7.063782e-005
2.269805e+003, -5.847178e-004
2.271734e+003, -7.775263e-005
2.273662e+003, 6.404097e-004
2.275591e+003, 7.638267e-005
2.277519e+003, -7.124199e-004
2.279448e+003, 1.127687e-004
2.281376e+003, 1.999817e-003
2.283305e+003, 3.175558e-003
2.285233e+003, 3.603642e-003
2.287162e+003, 3.557322e-003
2.289090e+003, 3.604547e-003
2.291019e+003, 3.296868e-003
2.292947e+003, 2.023434e-003
2.294875e+003, 1.694589e-003
2.296804e+003, 2.215059e-003
2.298732e+003, 2.436636e-003
2.300661e+003, 2.894915e-003
2.302589e+003, 2.530058e-003
2.304518e+003, 1.557540e-003
2.306446e+003, 1.442049e-003
2.308375e+003, 2.195633e-003
2.310303e+003, 2.924321e-003
2.312232e+003, 3.015129e-003
2.314160e+003, 3.113169e-003
2.316089e+003, 2.938725e-003
2.318017e+003, 2.841577e-003
2.319946e+003, 3.104681e-003
2.321874e+003, 4.313696e-003
2.323802e+003, 4.767577e-003
2.325731e+003, 3.585216e-003
2.327659e+003, 3.132412e-003
2.329588e+003, 3.289100e-003
2.331516e+003, 2.661059e-003
2.333445e+003, 2.213047e-003
2.335373e+003, 2.528845e-003
2.337302e+003, 3.117654e-003
2.339230e+003, 3.932770e-003
2.341159e+003, 3.741660e-003
2.343087e+003, 2.920348e-003
2.345016e+003, 2.114931e-003
2.346944e+003, 2.384613e-003
2.348873e+003, 2.419181e-003
2.350801e+003, 1.859249e-003
2.352729e+003, 2.456754e-003
2.354658e+003, 3.430641e-003
2.356586e+003, 3.903789e-003
2.358515e+003, 3.688928e-003
2.360443e+003, 3.448330e-003
2.362372e+003, 3.280497e-003
2.364300e+003, 2.644675e-003
2.366229e+003, 2.406250e-003
2.368157e+003, 2.545780e-003
2.370086e+003, 2.752166e-003
2.372014e+003, 2.593892e-003
2.373942e+003, 2.364898e-003
2.375871e+003, 2.820532e-003
2.377799e+003, 2.389824e-003
2.379728e+003, 8.289670e-004
2.381656e+003, 6.030780e-004
2.383585e+003, 1.663661e-003
2.385513e+003, 2.071143e-003
2.387442e+003, 1.622221e-003
2.389370e+003, 1.783954e-003
2.391299e+003, 1.968993e-003
2.393227e+003, 1.313755e-003
2.395156e+003, 1.745028e-003
2.397084e+003, 3.159076e-003
2.399012e+003, 3.019707e-003
2.400941e+003, 2.613163e-003
2.402869e+003, 2.163279e-003
2.404798e+003, 2.176513e-003
2.406726e+003, 3.075643e-003
2.408655e+003, 3.154953e-003
2.410583e+003, 2.665216e-003
2.412512e+003, 2.385774e-003
2.414440e+003, 2.284892e-003
2.416369e+003, 2.217393e-003
2.418297e+003, 2.335360e-003
2.420226e+003, 2.666069e-003
2.422154e+003, 2.422418e-003
2.424083e+003, 1.476587e-003
2.426011e+003, 1.692468e-003
2.427939e+003, 2.477714e-003
2.429868e+003, 2.441833e-003
2.431796e+003, 3.315067e-003
2.433725e+003, 3.591391e-003
2.435653e+003, 2.791243e-003
2.437582e+003, 3.189116e-003
2.439510e+003, 3.441297e-003
2.441439e+003, 2.553441e-003
2.443367e+003, 2.195114e-003
2.445296e+003, 2.898238e-003
2.447224e+003, 3.589995e-003
2.449153e+003, 3.870764e-003
2.451081e+003, 3.916116e-003
2.453010e+003, 3.349611e-003
2.454938e+003, 3.207254e-003
2.456866e+003, 3.857709e-003
2.458795e+003, 3.266554e-003
2.460723e+003, 3.014554e-003
2.462652e+003, 4.562620e-003
2.464580e+003, 4.920865e-003
2.466509e+003, 4.260799e-003
2.468437e+003, 3.567773e-003
2.470366e+003, 2.714081e-003
2.472294e+003, 3.126983e-003
2.474223e+003, 3.163955e-003
2.476151e+003, 2.642300e-003
2.478080e+003, 3.208910e-003
2.480008e+003, 3.471056e-003
2.481937e+003, 3.313466e-003
2.483865e+003, 3.575455e-003
2.485793e+003, 3.345879e-003
2.487722e+003, 2.601929e-003
2.489650e+003, 2.271249e-003
2.491579e+003, 2.357065e-003
2.493507e+003, 2.673492e-003
2.495436e+003, 2.963137e-003
2.497364e+003, 3.597876e-003
2.499293e+003, 2.530193e-003
2.501221e+003, 1.876265e-003
2.503150e+003, 2.577743e-003
2.505078e+003, 3.599579e-003
2.507007e+003, 3.851656e-003
2.508935e+003, 4.070797e-003
2.510864e+003, 3.486782e-003
2.512792e+003, 3.070493e-003
2.514720e+003, 2.576379e-003
2.516649e+003, 2.727228e-003
2.518577e+003, 3.651044e-003
2.520506e+003, 4.140454e-003
2.522434e+003, 4.040939e-003
2.524363e+003, 3.297032e-003
2.526291e+003, 3.747140e-003
2.528220e+003, 3.642833e-003
2.530148e+003, 2.944504e-003
2.532077e+003, 3.052496e-003
2.534005e+003, 3.176406e-003
2.535934e+003, 2.692869e-003
2.537862e+003, 2.872120e-003
2.539791e+003, 1.508389e-003
2.541719e+003, 1.098826e-003
2.543647e+003, 2.210803e-003
2.545576e+003, 2.643162e-003
2.547504e+003, 2.676133e-003
2.549433e+003, 2.600427e-003
2.551361e+003, 3.142123e-003
2.553290e+003, 2.840300e-003
2.555218e+003, 3.169882e-003
2.557147e+003, 3.702875e-003
2.559075e+003, 3.534849e-003
2.561004e+003, 3.616853e-003
2.562932e+003, 3.760928e-003
2.564861e+003, 3.928174e-003
2.566789e+003, 3.208118e-003
2.568718e+003, 3.028818e-003
2.570646e+003, 3.555702e-003
2.572574e+003, 3.744886e-003
2.574503e+003, 3.270973e-003
2.576431e+003, 2.823250e-003
2.578360e+003, 2.631303e-003
2.580288e+003, 2.724970e-003
2.582217e+003, 2.379273e-003
2.584145e+003, 2.169647e-003
2.586074e+003, 3.154712e-003
2.588002e+003, 4.387339e-003
2.589931e+003, 3.895869e-003
2.591859e+003, 3.233854e-003
2.593788e+003, 2.878198e-003
2.595716e+003, 3.106792e-003
2.597645e+003, 3.801157e-003
2.599573e+003, 3.330642e-003
2.601501e+003, 2.764223e-003
2.603430e+003, 2.452849e-003
2.605358e+003, 2.013100e-003
2.607287e+003, 2.656322e-003
2.609215e+003, 4.263876e-003
2.611144e+003, 5.040375e-003
2.613072e+003, 4.638641e-003
2.615001e+003, 4.697746e-003
2.616929e+003, 4.902009e-003
2.618858e+003, 4.813510e-003
2.620786e+003, 4.057137e-003
2.622715e+003, 3.312007e-003
2.624643e+003, 3.075925e-003
2.626572e+003, 3.795111e-003
2.628500e+003, 3.647958e-003
2.630428e+003, 3.218084e-003
2.632357e+003, 3.824210e-003
2.634285e+003, 4.000427e-003
2.636214e+003, 4.214710e-003
2.638142e+003, 3.963654e-003
2.640071e+003, 4.162053e-003
2.641999e+003, 5.112334e-003
2.643928e+003, 5.333259e-003
2.645856e+003, 5.080172e-003
2.647785e+003, 4.028499e-003
2.649713e+003, 3.267210e-003
2.651642e+003, 3.217604e-003
2.653570e+003, 3.320021e-003
2.655499e+003, 4.212779e-003
2.657427e+003, 4.681042e-003
2.659355e+003, 4.013210e-003
2.661284e+003, 3.143004e-003
2.663212e+003, 2.690125e-003
2.665141e+003, 3.333612e-003
2.667069e+003, 3.899643e-003
2.668998e+003, 4.016491e-003
2.670926e+003, 4.059178e-003
2.672855e+003, 3.893263e-003
2.674783e+003, 3.467092e-003
2.676712e+003, 3.369255e-003
2.678640e+003, 3.075133e-003
2.680569e+003, 3.312738e-003
2.682497e+003, 3.173405e-003
2.684426e+003, 3.288158e-003
2.686354e+003, 3.582888e-003
2.688282e+003, 3.958366e-003
2.690211e+003, 3.342264e-003
2.692139e+003, 2.884584e-003
2.694068e+003, 3.105285e-003
2.695996e+003, 3.917739e-003
2.697925e+003, 4.309514e-003
2.699853e+003, 4.453389e-003
2.701782e+003, 4.756386e-003
2.703710e+003, 4.930078e-003
2.705639e+003, 4.474552e-003
2.707567e+003, 3.406621e-003
2.709496e+003, 3.195290e-003
2.711424e+003, 3.455669e-003
2.713353e+003, 3.871441e-003
2.715281e+003, 4.919445e-003
2.717209e+003, 4.720051e-003
2.719138e+003, 4.034291e-003
2.721066e+003, 4.044702e-003
2.722995e+003, 4.626626e-003
2.724923e+003, 5.212544e-003
2.726852e+003, 5.717443e-003
2.728780e+003, 5.771785e-003
2.730709e+003, 4.936074e-003
2.732637e+003, 4.079043e-003
2.734566e+003, 4.462838e-003
2.736494e+003, 6.164830e-003
2.738423e+003, 6.530865e-003
2.740351e+003, 4.923935e-003
2.742280e+003, 3.988315e-003
2.744208e+003, 3.815233e-003
2.746136e+003, 4.769776e-003
2.748065e+003, 5.611452e-003
2.749993e+003, 5.666901e-003
2.751922e+003, 5.221434e-003
2.753850e+003, 5.183649e-003
2.755779e+003, 5.046902e-003
2.757707e+003, 5.730548e-003
2.759636e+003, 5.690433e-003
2.761564e+003, 5.639389e-003
2.763493e+003, 5.734182e-003
2.765421e+003, 6.279932e-003
2.767350e+003, 6.336589e-003
2.769278e+003, 5.299122e-003
2.771207e+003, 5.868291e-003
2.773135e+003, 6.469059e-003
2.775063e+003, 6.300909e-003
2.776992e+003, 6.230282e-003
2.778920e+003, 6.353640e-003
2.780849e+003, 6.767846e-003
2.782777e+003, 6.281344e-003
2.784706e+003, 5.675115e-003
2.786634e+003, 6.133344e-003
2.788563e+003, 5.969988e-003
2.790491e+003, 5.989224e-003
2.792420e+003, 6.106351e-003
2.794348e+003, 6.197949e-003
2.796277e+003, 5.386917e-003
2.798205e+003, 5.867933e-003
2.800134e+003, 6.797126e-003
2.802062e+003, 6.769074e-003
2.803990e+003, 6.386016e-003
2.805919e+003, 6.597722e-003
2.807847e+003, 6.812206e-003
2.809776e+003, 7.073475e-003
2.811704e+003, 7.266079e-003
2.813633e+003, 7.551705e-003
2.815561e+003, 5.937552e-003
2.817490e+003, 4.998078e-003
2.819418e+003, 4.964549e-003
2.821347e+003, 4.684669e-003
2.823275e+003, 6.003764e-003
2.825204e+003, 7.302974e-003
2.827132e+003, 5.755675e-003
2.829061e+003, 5.778841e-003
2.830989e+003, 6.967478e-003
2.832917e+003, 6.010098e-003
2.834846e+003, 4.763291e-003
2.836774e+003, 5.261919e-003
2.838703e+003, 5.827015e-003
2.840631e+003, 3.628067e-003
2.842560e+003, 3.705368e-003
2.844488e+003, 5.268880e-003
2.846417e+003, 5.755622e-003
2.848345e+003, 5.801856e-003
2.850274e+003, 6.279449e-003
2.852202e+003, 7.150011e-003
2.854131e+003, 7.072506e-003
2.856059e+003, 5.983483e-003
2.857988e+003, 7.587515e-003
2.859916e+003, 9.457523e-003
2.861844e+003, 9.662183e-003
2.863773e+003, 9.147324e-003
2.865701e+003, 9.288000e-003
2.867630e+003, 9.956289e-003
2.869558e+003, 9.290218e-003
2.871487e+003, 8.720192e-003
2.873415e+003, 9.587399e-003
2.875344e+003, 1.008894e-002
2.877272e+003, 9.286974e-003
2.879201e+003, 7.862697e-003
2.881129e+003, 8.705338e-003
2.883058e+003, 8.790459e-003
2.884986e+003, 8.098766e-003
2.886915e+003, 8.477065e-003
2.888843e+003, 8.330086e-003
2.890771e+003, 7.319263e-003
2.892700e+003, 7.401986e-003
2.894628e+003, 7.421140e-003
2.896557e+003, 8.416453e-003
2.898485e+003, 9.872803e-003
2.900414e+003, 9.521990e-003
2.902342e+003, 8.142060e-003
2.904271e+003, 7.558337e-003
2.906199e+003, 6.988198e-003
2.908128e+003, 6.844084e-003
2.910056e+003, 7.922685e-003
2.911985e+003, 7.496647e-003
2.913913e+003, 7.476197e-003
2.915842e+003, 7.111896e-003
2.917770e+003, 7.830907e-003
2.919698e+003, 1.118427e-002
2.921627e+003, 1.190818e-002
2.923555e+003, 1.038668e-002
2.925484e+003, 1.068190e-002
2.927412e+003, 1.082450e-002
2.929341e+003, 1.135263e-002
2.931269e+003, 1.157800e-002
2.933198e+003, 1.208593e-002
2.935126e+003, 1.214548e-002
2.937055e+003, 1.061966e-002
2.938983e+003, 1.086167e-002
2.940912e+003, 1.239463e-002
2.942840e+003, 1.243090e-002
2.944769e+003, 1.200179e-002
2.946697e+003, 1.149050e-002
2.948625e+003, 1.112288e-002
2.950554e+003, 1.123672e-002
2.952482e+003, 1.067562e-002
2.954411e+003, 9.268550e-003
2.956339e+003, 9.821453e-003
2.958268e+003, 1.123915e-002
2.960196e+003, 1.210309e-002
2.962125e+003, 1.207012e-002
2.964053e+003, 1.266932e-002
2.965982e+003, 1.242883e-002
2.967910e+003, 1.156504e-002
2.969839e+003, 1.284961e-002
2.971767e+003, 1.329095e-002
2.973696e+003, 1.215653e-002
2.975624e+003, 1.231999e-002
2.977552e+003, 1.184652e-002
2.979481e+003, 1.202292e-002
2.981409e+003, 1.214109e-002
2.983338e+003, 1.187807e-002
2.985266e+003, 1.417745e-002
2.987195e+003, 1.489072e-002
2.989123e+003, 1.218103e-002
2.991052e+003, 1.178748e-002
2.992980e+003, 1.277530e-002
2.994909e+003, 1.177774e-002
2.996837e+003, 1.171721e-002
2.998766e+003, 1.152686e-002
3.000694e+003, 1.258044e-002
3.002623e+003, 1.447791e-002
3.004551e+003, 1.498024e-002
3.006479e+003, 1.269976e-002
3.008408e+003, 1.068814e-002
3.010336e+003, 1.178880e-002
3.012265e+003, 1.186118e-002
3.014193e+003, 1.232144e-002
3.016122e+003, 1.259298e-002
3.018050e+003, 1.178107e-002
3.019979e+003, 1.217416e-002
3.021907e+003, 1.354502e-002
3.023836e+003, 1.370884e-002
3.025764e+003, 1.356468e-002
3.027693e+003, 1.335416e-002
3.029621e+003, 1.361308e-002
3.031550e+003, 1.168783e-002
3.033478e+003, 9.689171e-003
3.035406e+003, 1.056621e-002
3.037335e+003, 1.215283e-002
3.039263e+003, 1.183864e-002
3.041192e+003, 1.233904e-002
3.043120e+003, 1.297323e-002
3.045049e+003, 1.137047e-002
3.046977e+003, 1.143149e-002
3.048906e+003, 1.291257e-002
3.050834e+003, 1.296081e-002
3.052763e+003, 1.232929e-002
3.054691e+003, 1.414678e-002
3.056620e+003, 1.569565e-002
3.058548e+003, 1.319043e-002
3.060477e+003, 1.260818e-002
3.062405e+003, 1.316273e-002
3.064333e+003, 1.216244e-002
3.066262e+003, 1.203204e-002
3.068190e+003, 1.267823e-002
3.070119e+003, 1.253156e-002
3.072047e+003, 1.250666e-002
3.073976e+003, 1.259033e-002
3.075904e+003, 1.375161e-002
3.077833e+003, 1.424911e-002
3.079761e+003, 1.411595e-002
3.081690e+003, 1.506087e-002
3.083618e+003, 1.299518e-002
3.085547e+003, 1.131371e-002
3.087475e+003, 1.292942e-002
3.089404e+003, 1.500320e-002
3.091332e+003, 1.630499e-002
3.093260e+003, 1.576928e-002
3.095189e+003, 1.505997e-002
3.097117e+003, 1.587331e-002
3.099046e+003, 1.665351e-002
3.100974e+003, 1.649586e-002
3.102903e+003, 1.579434e-002
3.104831e+003, 1.488610e-002
3.106760e+003, 1.532358e-002
3.108688e+003, 1.438683e-002
3.110617e+003, 1.466082e-002
3.112545e+003, 1.623689e-002
3.114474e+003, 1.650718e-002
3.116402e+003, 1.562509e-002
3.118331e+003, 1.322496e-002
3.120259e+003, 1.340260e-002
3.122188e+003, 1.421798e-002
3.124116e+003, 1.383401e-002
3.126044e+003, 1.581330e-002
3.127973e+003, 1.549281e-002
3.129901e+003, 1.437655e-002
3.131830e+003, 1.644085e-002
3.133758e+003, 1.796170e-002
3.135687e+003, 1.668504e-002
3.137615e+003, 1.619328e-002
3.139544e+003, 1.702663e-002
3.141472e+003, 1.718367e-002
3.143401e+003, 1.667390e-002
3.145329e+003, 1.644619e-002
3.147258e+003, 1.718899e-002
3.149186e+003, 1.474334e-002
3.151115e+003, 1.414406e-002
3.153043e+003, 1.620240e-002
3.154971e+003, 1.804355e-002
3.156900e+003, 1.813821e-002
3.158828e+003, 1.661537e-002
3.160757e+003, 1.514743e-002
3.162685e+003, 1.676952e-002
3.164614e+003, 1.794443e-002
3.166542e+003, 1.726513e-002
3.168471e+003, 1.686747e-002
3.170399e+003, 1.748073e-002
3.172328e+003, 1.715139e-002
3.174256e+003, 1.696386e-002
3.176185e+003, 1.660515e-002
3.178113e+003, 1.602715e-002
3.180042e+003, 1.667970e-002
3.181970e+003, 1.817243e-002
3.183898e+003, 1.892055e-002
3.185827e+003, 1.849749e-002
3.187755e+003, 1.743780e-002
3.189684e+003, 1.815523e-002
3.191612e+003, 1.895224e-002
3.193541e+003, 1.983222e-002
3.195469e+003, 1.839629e-002
3.197398e+003, 1.777832e-002
3.199326e+003, 1.912991e-002
3.201255e+003, 2.028399e-002
3.203183e+003, 2.025335e-002
3.205112e+003, 2.064619e-002
3.207040e+003, 2.101974e-002
3.208969e+003, 2.066478e-002
3.210897e+003, 2.064426e-002
3.212825e+003, 1.904378e-002
3.214754e+003, 1.800850e-002
3.216682e+003, 1.998663e-002
3.218611e+003, 2.103744e-002
3.220539e+003, 2.203346e-002
3.222468e+003, 2.313741e-002
3.224396e+003, 2.078635e-002
3.226325e+003, 1.854955e-002
3.228253e+003, 1.988341e-002
3.230182e+003, 2.020612e-002
3.232110e+003, 1.899275e-002
3.234039e+003, 1.953695e-002
3.235967e+003, 1.882969e-002
3.237896e+003, 1.853595e-002
3.239824e+003, 2.043863e-002
3.241752e+003, 2.123232e-002
3.243681e+003, 2.298981e-002
3.245609e+003, 2.324431e-002
3.247538e+003, 2.076278e-002
3.249466e+003, 2.047488e-002
3.251395e+003, 2.031903e-002
3.253323e+003, 2.097393e-002
3.255252e+003, 2.091674e-002
3.257180e+003, 2.124002e-002
3.259109e+003, 2.163665e-002
3.261037e+003, 2.214326e-002
3.262966e+003, 2.204478e-002
3.264894e+003, 2.060490e-002
3.266823e+003, 2.059852e-002
3.268751e+003, 2.124786e-002
3.270679e+003, 2.022430e-002
3.272608e+003, 2.125829e-002
3.274536e+003, 2.124791e-002
3.276465e+003, 1.852378e-002
3.278393e+003, 1.822339e-002
3.280322e+003, 2.179712e-002
3.282250e+003, 2.175285e-002
3.284179e+003, 2.022941e-002
3.286107e+003, 2.084263e-002
3.288036e+003, 2.229947e-002
3.289964e+003, 2.247322e-002
3.291893e+003, 2.412445e-002
3.293821e+003, 2.543459e-002
3.295750e+003, 2.419625e-002
3.297678e+003, 2.193497e-002
3.299606e+003, 2.115503e-002
3.301535e+003, 2.112232e-002
3.303463e+003, 2.186232e-002
3.305392e+003, 2.287581e-002
3.307320e+003, 2.298658e-002
3.309249e+003, 2.313247e-002
3.311177e+003, 2.349530e-002
3.313106e+003, 2.315173e-002
3.315034e+003, 2.370980e-002
3.316963e+003, 2.275098e-002
3.318891e+003, 2.166443e-002
3.320820e+003, 2.332741e-002
3.322748e+003, 2.311193e-002
3.324677e+003, 2.177812e-002
3.326605e+003, 2.385520e-002
3.328533e+003, 2.583141e-002
3.330462e+003, 2.549378e-002
3.332390e+003, 2.441517e-002
3.334319e+003, 2.434177e-002
3.336247e+003, 2.437373e-002
3.338176e+003, 2.416747e-002
3.340104e+003, 2.517453e-002
3.342033e+003, 2.366832e-002
3.343961e+003, 2.160122e-002
3.345890e+003, 2.287856e-002
3.347818e+003, 2.492559e-002
3.349747e+003, 2.542023e-002
3.351675e+003, 2.542300e-002
3.353604e+003, 2.638415e-002
3.355532e+003, 2.657301e-002
3.357460e+003, 2.602170e-002
3.359389e+003, 2.496474e-002
3.361317e+003, 2.589706e-002
3.363246e+003, 2.593302e-002
3.365174e+003, 2.508793e-002
3.367103e+003, 2.453380e-002
3.369031e+003, 2.396414e-002
3.370960e+003, 2.330689e-002
3.372888e+003, 2.339517e-002
3.374817e+003, 2.519360e-002
3.376745e+003, 2.564527e-002
3.378674e+003, 2.501410e-002
3.380602e+003, 2.415530e-002
3.382531e+003, 2.261115e-002
3.384459e+003, 2.273223e-002
3.386387e+003, 2.291179e-002
3.388316e+003, 2.173996e-002
3.390244e+003, 2.330852e-002
3.392173e+003, 2.453234e-002
3.394101e+003, 2.500455e-002
3.396030e+003, 2.438050e-002
3.397958e+003, 2.454430e-002
3.399887e+003, 2.471597e-002
3.401815e+003, 2.493803e-002
3.403744e+003, 2.475215e-002
3.405672e+003, 2.332643e-002
3.407601e+003, 2.172424e-002
3.409529e+003, 2.221983e-002
3.411458e+003, 2.342749e-002
3.413386e+003, 2.420733e-002
3.415314e+003, 2.393530e-002
3.417243e+003, 2.351519e-002
3.419171e+003, 2.286436e-002
3.421100e+003, 2.355117e-002
3.423028e+003, 2.392966e-002
3.424957e+003, 2.388663e-002
3.426885e+003, 2.379243e-002
3.428814e+003, 2.335105e-002
3.430742e+003, 2.304898e-002
3.432671e+003, 2.314719e-002
3.434599e+003, 2.309581e-002
3.436528e+003, 2.477821e-002
3.438456e+003, 2.353026e-002
3.440385e+003, 2.176240e-002
3.442313e+003, 2.323700e-002
3.444241e+003, 2.530349e-002
3.446170e+003, 2.494631e-002
3.448098e+003, 2.334324e-002
3.450027e+003, 2.447241e-002
3.451955e+003, 2.408818e-002
3.453884e+003, 2.275125e-002
3.455812e+003, 2.373732e-002
3.457741e+003, 2.361742e-002
3.459669e+003, 2.463950e-002
3.461598e+003, 2.551195e-002
3.463526e+003, 2.536428e-002
3.465455e+003, 2.394705e-002
3.467383e+003, 2.255453e-002
3.469312e+003, 2.208442e-002
3.471240e+003, 2.133953e-002
3.473168e+003, 2.075938e-002
3.475097e+003, 2.091975e-002
3.477025e+003, 2.286743e-002
3.478954e+003, 2.431746e-002
3.480882e+003, 2.439025e-002
3.482811e+003, 2.319231e-002
3.484739e+003, 2.344271e-002
3.486668e+003, 2.356211e-002
3.488596e+003, 2.400537e-002
3.490525e+003, 2.492627e-002
3.492453e+003, 2.276213e-002
3.494382e+003, 2.203912e-002
3.496310e+003, 2.439051e-002
3.498239e+003, 2.413402e-002
3.500167e+003, 2.257449e-002
3.502095e+003, 2.137893e-002
3.504024e+003, 1.905135e-002
3.505952e+003, 1.851649e-002
3.507881e+003, 1.971319e-002
3.509809e+003, 2.034394e-002
3.511738e+003, 2.109821e-002
3.513666e+003, 2.211515e-002
3.515595e+003, 2.301489e-002
3.517523e+003, 2.358123e-002
3.519452e+003, 2.019067e-002
3.521380e+003, 1.630962e-002
3.523309e+003, 1.642416e-002
3.525237e+003, 1.759253e-002
3.527166e+003, 1.840626e-002
3.529094e+003, 1.867872e-002
3.531022e+003, 1.936591e-002
3.532951e+003, 2.104763e-002
3.534879e+003, 1.970332e-002
3.536808e+003, 1.865691e-002
3.538736e+003, 2.140225e-002
3.540665e+003, 2.113057e-002
3.542593e+003, 1.686482e-002
3.544522e+003, 1.608067e-002
3.546450e+003, 1.611198e-002
3.548379e+003, 1.315695e-002
3.550307e+003, 1.327539e-002
3.552236e+003, 1.705043e-002
3.554164e+003, 2.010571e-002
3.556093e+003, 1.871379e-002
3.558021e+003, 1.604852e-002
3.559949e+003, 1.730883e-002
3.561878e+003, 1.875416e-002
3.563806e+003, 1.928205e-002
3.565735e+003, 2.171985e-002
3.567663e+003, 2.231901e-002
3.569592e+003, 1.975005e-002
3.571520e+003, 1.623043e-002
3.573449e+003, 1.567635e-002
3.575377e+003, 1.444182e-002
3.577306e+003, 1.655787e-002
3.579234e+003, 1.535962e-002
3.581163e+003, 1.358216e-002
3.583091e+003, 1.556035e-002
3.585020e+003, 1.796729e-002
3.586948e+003, 1.839457e-002
3.588876e+003, 1.660505e-002
3.590805e+003, 1.407703e-002
3.592733e+003, 1.502879e-002
3.594662e+003, 1.692389e-002
3.596590e+003, 1.578665e-002
3.598519e+003, 1.320013e-002
3.600447e+003, 1.372221e-002
3.602376e+003, 1.432500e-002
3.604304e+003, 1.350766e-002
3.606233e+003, 1.152111e-002
3.608161e+003, 9.477952e-003
3.610090e+003, 9.541024e-003
3.612018e+003, 1.156624e-002
3.613947e+003, 1.346830e-002
3.615875e+003, 1.322440e-002
3.617803e+003, 1.448361e-002
3.619732e+003, 1.615928e-002
3.621660e+003, 1.593961e-002
3.623589e+003, 1.410488e-002
3.625517e+003, 1.135898e-002
3.627446e+003, 1.433166e-002
3.629374e+003, 1.761513e-002
3.631303e+003, 2.054269e-002
3.633231e+003, 2.282947e-002
3.635160e+003, 2.000243e-002
3.637088e+003, 1.733027e-002
3.639017e+003, 1.491552e-002
3.640945e+003, 1.511877e-002
3.642874e+003, 1.676144e-002
3.644802e+003, 1.995545e-002
3.646730e+003, 2.305331e-002
3.648659e+003, 2.644332e-002
3.650587e+003, 2.450928e-002
3.652516e+003, 1.546083e-002
3.654444e+003, 1.054563e-002
3.656373e+003, 1.275773e-002
3.658301e+003, 1.396117e-002
3.660230e+003, 1.599702e-002
3.662158e+003, 1.932539e-002
3.664087e+003, 1.951340e-002
3.666015e+003, 1.723674e-002
3.667944e+003, 1.197453e-002
3.669872e+003, 7.988038e-003
3.671801e+003, 5.828618e-003
3.673729e+003, 4.754981e-003
3.675657e+003, 7.857549e-003
3.677586e+003, 7.984010e-003
3.679514e+003, 5.863990e-003
3.681443e+003, 5.383540e-003
3.683371e+003, 4.830013e-003
3.685300e+003, 4.366336e-003
3.687228e+003, 4.391408e-003
3.689157e+003, 4.819700e-003
3.691085e+003, 4.880243e-003
3.693014e+003, 2.857797e-003
3.694942e+003, 1.751559e-003
3.696871e+003, 2.621636e-003
3.698799e+003, 2.216118e-003
3.700728e+003, 4.032264e-003
3.702656e+003, 2.864398e-003
3.704584e+003, 9.513315e-004
3.706513e+003, 4.569550e-003
3.708441e+003, 7.102490e-003
3.710370e+003, 6.923563e-003
3.712298e+003, 4.578040e-003
3.714227e+003, 4.463299e-003
3.716155e+003, 4.843486e-003
3.718084e+003, 5.041245e-003
3.720012e+003, 4.604363e-003
3.721941e+003, 3.036100e-003
3.723869e+003, 6.138408e-003
3.725798e+003, 7.140072e-003
3.727726e+003, 5.219363e-003
3.729655e+003, 5.930874e-003
3.731583e+003, 5.835784e-003
3.733511e+003, 2.468954e-003
3.735440e+003, 3.062984e-003
3.737368e+003, 5.977072e-003
3.739297e+003, 3.797326e-003
3.741225e+003, 2.237813e-003
3.743154e+003, 4.324698e-003
3.745082e+003, 6.062270e-003
3.747011e+003, 6.039098e-003
3.748939e+003, 9.776517e-003
3.750868e+003, 8.564085e-003
3.752796e+003, 6.696677e-003
3.754725e+003, 4.108435e-003
3.756653e+003, 2.311609e-003
3.758582e+003, 3.063619e-003
3.760510e+003, 1.262820e-003
3.762438e+003, 2.459741e-003
3.764367e+003, 3.874795e-003
3.766295e+003, 1.251274e-003
3.768224e+003, 8.824738e-004
3.770152e+003, 1.890011e-003
3.772081e+003, 1.176650e-003
3.774009e+003, 8.117636e-004
3.775938e+003, 2.426341e-003
3.777866e+003, 4.395930e-003
3.779795e+003, 6.224812e-003
3.781723e+003, 4.301166e-003
3.783652e+003, 4.066313e-003
3.785580e+003, 1.419871e-003
3.787509e+003, 7.511363e-004
3.789437e+003, 2.974677e-003
3.791365e+003, 1.825312e-003
3.793294e+003, 4.309285e-003
3.795222e+003, 4.291177e-003
3.797151e+003, 2.670822e-003
3.799079e+003, 3.186551e-003
3.801008e+003, 4.133448e-003
3.802936e+003, 4.802031e-003
3.804865e+003, 4.006458e-003
3.806793e+003, 3.404213e-003
3.808722e+003, 7.661930e-003
3.810650e+003, 9.665769e-003
3.812579e+003, 4.315108e-003
3.814507e+003, 2.444796e-003
3.816436e+003, 2.857539e-003
3.818364e+003, 3.963856e-003
3.820292e+003, 2.925857e-003
3.822221e+003, 1.107886e-003
3.824149e+003, 4.160392e-003
3.826078e+003, 4.745179e-003
3.828006e+003, 2.436808e-003
3.829935e+003, 8.634061e-004
3.831863e+003, 5.625506e-004
3.833792e+003, -1.710202e-003
3.835720e+003, 8.182980e-004
3.837649e+003, 3.947932e-003
3.839577e+003, 3.265388e-003
3.841506e+003, 1.070043e-003
3.843434e+003, 4.172819e-003
3.845363e+003, 6.371802e-003
3.847291e+003, 4.002319e-003
3.849219e+003, 1.970126e-003
3.851148e+003, 3.768819e-003
3.853076e+003, 5.792993e-003
3.855005e+003, 4.873288e-003
3.856933e+003, 1.262459e-003
3.858862e+003, 1.018840e-003
3.860790e+003, 2.899591e-003
3.862719e+003, 4.564863e-003
3.864647e+003, 5.238425e-003
3.866576e+003, 4.102903e-003
3.868504e+003, 5.874198e-003
3.870433e+003, 5.750627e-003
3.872361e+003, 6.712799e-003
3.874290e+003, 6.342677e-003
3.876218e+003, 1.711364e-003
3.878146e+003, 2.036392e-003
3.880075e+003, 5.718770e-003
3.882003e+003, 7.636328e-003
3.883932e+003, 5.442980e-003
3.885860e+003, 1.988364e-003
3.887789e+003, 2.366630e-003
3.889717e+003, 5.062978e-003
3.891646e+003, 4.500397e-003
3.893574e+003, 3.331734e-003
3.895503e+003, 4.087148e-003
3.897431e+003, 3.788098e-003
3.899360e+003, 3.232864e-003
3.901288e+003, 4.819789e-003
3.903217e+003, 4.675490e-003
3.905145e+003, 2.840488e-003
3.907073e+003, 4.378317e-003
3.909002e+003, 6.969306e-003
3.910930e+003, 5.272953e-003
3.912859e+003, 7.353101e-003
3.914787e+003, 8.946827e-003
3.916716e+003, 9.199520e-003
3.918644e+003, 6.827187e-003
3.920573e+003, 7.000370e-003
3.922501e+003, 8.412662e-003
3.924430e+003, 6.878392e-003
3.926358e+003, 5.064480e-003
3.928287e+003, 1.168977e-003
3.930215e+003, -4.890509e-004
3.932144e+003, 3.129121e-003
3.934072e+003, 3.148546e-003
3.936000e+003, 2.930863e-003
3.937929e+003, 4.699799e-003
3.939857e+003, 4.274365e-003
3.941786e+003, 3.620080e-003
3.943714e+003, 3.159013e-003
3.945643e+003, 2.130737e-003
3.947571e+003, 2.916812e-003
3.949500e+003, 5.339656e-003
3.951428e+003, 4.758317e-003
3.953357e+003, 6.719199e-003
3.955285e+003, 8.558574e-003
3.957214e+003, 8.782690e-003
3.959142e+003, 9.945307e-003
3.961071e+003, 5.220885e-003
3.962999e+003, 2.430954e-003
3.964927e+003, 5.542781e-003
3.966856e+003, 6.285380e-003
3.968784e+003, 6.004301e-003
3.970713e+003, 6.071912e-003
3.972641e+003, 4.423552e-003
3.974570e+003, 2.537096e-003
3.976498e+003, 2.633599e-003
3.978427e+003, 1.152635e-003
3.980355e+003, 4.900232e-004
3.982284e+003, 5.631247e-003
3.984212e+003, 6.139850e-003
3.986141e+003, 3.210861e-003
3.988069e+003, 4.161618e-003
3.989998e+003, 5.140333e-003
3.991926e+003, 4.212712e-003
3.993854e+003, 3.289994e-003
3.995783e+003, 9.688828e-004
3.997711e+003, -1.353482e-003
3.999640e+003, -1.354135e-003
4.001568e+003, 0.000000e+000
##END=



