##NAMES=Goethite
##RRUFFID=R050142
##IDEAL CHEMISTRY=Fe^3+^O(OH)
##LOCALITY=Park County, Colorado, USA
##OWNER=RRUFF
##SOURCE=Dave Bunk Minerals
##DESCRIPTION=Radiating spray of black to brown platy crystals
##STATUS=The identification of this mineral has been confirmed by X-ray diffraction and chemical analysis
##URL=rruff.info/R050142
##MEASURED CHEMISTRY=FeO(OH)
3.741225e+002, 1.806250e-001
3.760510e+002, 1.801557e-001
3.779795e+002, 2.018567e-001
3.799079e+002, 2.207590e-001
3.818364e+002, 2.462908e-001
3.837649e+002, 2.268827e-001
3.856933e+002, 2.121967e-001
3.876218e+002, 2.172110e-001
3.895503e+002, 2.100865e-001
3.914787e+002, 2.186531e-001
3.934072e+002, 2.407307e-001
3.953357e+002, 2.553428e-001
3.972641e+002, 2.620267e-001
3.991926e+002, 2.512338e-001
4.011211e+002, 2.354483e-001
4.030495e+002, 2.211742e-001
4.049780e+002, 2.155649e-001
4.069065e+002, 2.099286e-001
4.088349e+002, 2.078618e-001
4.107634e+002, 2.046254e-001
4.126919e+002, 1.987564e-001
4.146203e+002, 1.954629e-001
4.165488e+002, 1.971449e-001
4.184773e+002, 1.981812e-001
4.204057e+002, 1.960360e-001
4.223342e+002, 1.977125e-001
4.242627e+002, 1.989031e-001
4.261911e+002, 1.980887e-001
4.281196e+002, 1.965383e-001
4.300481e+002, 1.913802e-001
4.319765e+002, 1.874077e-001
4.339050e+002, 1.846368e-001
4.358335e+002, 1.827716e-001
4.377619e+002, 1.805623e-001
4.396904e+002, 1.795478e-001
4.416189e+002, 1.826839e-001
4.435473e+002, 1.900378e-001
4.454758e+002, 1.955802e-001
4.474043e+002, 1.987885e-001
4.493327e+002, 2.004146e-001
4.512612e+002, 2.003399e-001
4.531897e+002, 2.008046e-001
4.551181e+002, 1.989620e-001
4.570466e+002, 1.949621e-001
4.589751e+002, 1.939755e-001
4.609035e+002, 1.902300e-001
4.628320e+002, 1.839068e-001
4.647605e+002, 1.802036e-001
4.666889e+002, 1.770686e-001
4.686174e+002, 1.731692e-001
4.705459e+002, 1.679637e-001
4.724743e+002, 1.628581e-001
4.744028e+002, 1.589456e-001
4.763313e+002, 1.548306e-001
4.782597e+002, 1.498917e-001
4.801882e+002, 1.445044e-001
4.821167e+002, 1.399880e-001
4.840451e+002, 1.360662e-001
4.859736e+002, 1.308762e-001
4.879021e+002, 1.249866e-001
4.898305e+002, 1.191830e-001
4.917590e+002, 1.135496e-001
4.936875e+002, 1.083758e-001
4.956159e+002, 1.033155e-001
4.975444e+002, 9.806030e-002
4.994729e+002, 9.330854e-002
5.014013e+002, 8.895160e-002
5.033298e+002, 8.523829e-002
5.052583e+002, 8.276477e-002
5.071867e+002, 8.151440e-002
5.091152e+002, 8.164007e-002
5.110437e+002, 8.259879e-002
5.129721e+002, 8.376731e-002
5.149006e+002, 8.476320e-002
5.168290e+002, 8.453297e-002
5.187575e+002, 8.449251e-002
5.206860e+002, 8.545018e-002
5.226144e+002, 8.598755e-002
5.245429e+002, 8.659352e-002
5.264714e+002, 8.740927e-002
5.283998e+002, 8.837796e-002
5.303283e+002, 8.964457e-002
5.322568e+002, 9.080365e-002
5.341852e+002, 9.232059e-002
5.361137e+002, 9.386076e-002
5.380422e+002, 9.580889e-002
5.399706e+002, 9.775251e-002
5.418991e+002, 9.911141e-002
5.438276e+002, 1.009508e-001
5.457560e+002, 1.032067e-001
5.476845e+002, 1.047368e-001
5.496130e+002, 1.065857e-001
5.515414e+002, 1.078053e-001
5.534699e+002, 1.080460e-001
5.553984e+002, 1.082370e-001
5.573268e+002, 1.091563e-001
5.592553e+002, 1.108633e-001
5.611838e+002, 1.114956e-001
5.631122e+002, 1.110618e-001
5.650407e+002, 1.105570e-001
5.669692e+002, 1.102452e-001
5.688976e+002, 1.100584e-001
5.708261e+002, 1.096765e-001
5.727546e+002, 1.086919e-001
5.746830e+002, 1.074813e-001
5.766115e+002, 1.064728e-001
5.785400e+002, 1.055998e-001
5.804684e+002, 1.044172e-001
5.823969e+002, 1.032252e-001
5.843254e+002, 1.021761e-001
5.862538e+002, 1.009473e-001
5.881823e+002, 9.957186e-002
5.901108e+002, 9.810687e-002
5.920392e+002, 9.718852e-002
5.939677e+002, 9.543181e-002
5.958962e+002, 9.300534e-002
5.978246e+002, 9.166953e-002
5.997531e+002, 9.034549e-002
6.016816e+002, 8.841641e-002
6.036100e+002, 8.665688e-002
6.055385e+002, 8.527836e-002
6.074670e+002, 8.411445e-002
6.093954e+002, 8.267482e-002
6.113239e+002, 8.105661e-002
6.132524e+002, 7.962669e-002
6.151808e+002, 7.810293e-002
6.171093e+002, 7.673223e-002
6.190378e+002, 7.505427e-002
6.209662e+002, 7.344588e-002
6.228947e+002, 7.243235e-002
6.248232e+002, 7.125887e-002
6.267516e+002, 6.992601e-002
6.286801e+002, 6.852812e-002
6.306086e+002, 6.692748e-002
6.325370e+002, 6.557148e-002
6.344655e+002, 6.419396e-002
6.363940e+002, 6.298568e-002
6.383224e+002, 6.208100e-002
6.402509e+002, 6.133913e-002
6.421794e+002, 6.076716e-002
6.441078e+002, 6.010872e-002
6.460363e+002, 5.965299e-002
6.479648e+002, 5.971525e-002
6.498932e+002, 6.007000e-002
6.518217e+002, 6.055484e-002
6.537502e+002, 6.121690e-002
6.556786e+002, 6.153050e-002
6.576071e+002, 6.171920e-002
6.595356e+002, 6.181799e-002
6.614641e+002, 6.171349e-002
6.633925e+002, 6.132522e-002
6.653210e+002, 6.056027e-002
6.672495e+002, 5.970085e-002
6.691779e+002, 5.801732e-002
6.711064e+002, 5.607636e-002
6.730349e+002, 5.386424e-002
6.749633e+002, 5.114202e-002
6.768918e+002, 4.802753e-002
6.788203e+002, 4.468444e-002
6.807487e+002, 4.150039e-002
6.826772e+002, 3.894185e-002
6.846057e+002, 3.672898e-002
6.865341e+002, 3.446748e-002
6.884626e+002, 3.276603e-002
6.903911e+002, 3.179814e-002
6.923195e+002, 3.102370e-002
6.942480e+002, 3.033187e-002
6.961765e+002, 3.006388e-002
6.981049e+002, 2.984130e-002
7.000334e+002, 2.980119e-002
7.019619e+002, 3.003352e-002
7.038903e+002, 3.037472e-002
7.058188e+002, 3.087271e-002
7.077473e+002, 3.140594e-002
7.096757e+002, 3.197864e-002
7.116042e+002, 3.261389e-002
7.135327e+002, 3.328444e-002
7.154611e+002, 3.400371e-002
7.173896e+002, 3.481876e-002
7.193181e+002, 3.603264e-002
7.212465e+002, 3.729777e-002
7.231750e+002, 3.837274e-002
7.251035e+002, 3.945767e-002
7.270319e+002, 4.079160e-002
7.289604e+002, 4.186506e-002
7.308889e+002, 4.282046e-002
7.328173e+002, 4.412363e-002
7.347458e+002, 4.557242e-002
7.366743e+002, 4.708200e-002
7.386027e+002, 4.869057e-002
7.405312e+002, 5.036432e-002
7.424597e+002, 5.251334e-002
7.443881e+002, 5.479956e-002
7.463166e+002, 5.700619e-002
7.482451e+002, 5.940377e-002
7.501735e+002, 6.209602e-002
7.521020e+002, 6.492317e-002
7.540305e+002, 6.820743e-002
7.559589e+002, 7.117633e-002
7.578874e+002, 7.413314e-002
7.598159e+002, 7.719826e-002
7.617443e+002, 8.059296e-002
7.636728e+002, 8.427520e-002
7.656013e+002, 8.792339e-002
7.675297e+002, 9.184461e-002
7.694582e+002, 9.598926e-002
7.713867e+002, 1.000579e-001
7.733151e+002, 1.043870e-001
7.752436e+002, 1.089638e-001
7.771721e+002, 1.137773e-001
7.791005e+002, 1.184072e-001
7.810290e+002, 1.226803e-001
7.829575e+002, 1.272443e-001
7.848859e+002, 1.321580e-001
7.868144e+002, 1.365159e-001
7.887429e+002, 1.404996e-001
7.906713e+002, 1.440266e-001
7.925998e+002, 1.473188e-001
7.945283e+002, 1.502408e-001
7.964567e+002, 1.521963e-001
7.983852e+002, 1.531999e-001
8.003137e+002, 1.533199e-001
8.022421e+002, 1.523520e-001
8.041706e+002, 1.504064e-001
8.060991e+002, 1.476056e-001
8.080275e+002, 1.443048e-001
8.099560e+002, 1.408859e-001
8.118845e+002, 1.372780e-001
8.138129e+002, 1.329977e-001
8.157414e+002, 1.283817e-001
8.176699e+002, 1.234604e-001
8.195983e+002, 1.185353e-001
8.215268e+002, 1.138039e-001
8.234553e+002, 1.092115e-001
8.253837e+002, 1.043714e-001
8.273122e+002, 9.962129e-002
8.292407e+002, 9.510087e-002
8.311691e+002, 9.097803e-002
8.330976e+002, 8.729385e-002
8.350261e+002, 8.395357e-002
8.369545e+002, 8.113925e-002
8.388830e+002, 7.887768e-002
8.408115e+002, 7.703755e-002
8.427399e+002, 7.583519e-002
8.446684e+002, 7.498886e-002
8.465969e+002, 7.458525e-002
8.485253e+002, 7.454541e-002
8.504538e+002, 7.473998e-002
8.523823e+002, 7.534350e-002
8.543107e+002, 7.614393e-002
8.562392e+002, 7.734380e-002
8.581677e+002, 7.856617e-002
8.600961e+002, 8.004296e-002
8.620246e+002, 8.194824e-002
8.639531e+002, 8.387198e-002
8.658815e+002, 8.585837e-002
8.678100e+002, 8.789324e-002
8.697385e+002, 9.017373e-002
8.716669e+002, 9.257336e-002
8.735954e+002, 9.518100e-002
8.755239e+002, 9.762172e-002
8.774523e+002, 1.000785e-001
8.793808e+002, 1.027761e-001
8.813093e+002, 1.054218e-001
8.832377e+002, 1.073351e-001
8.851662e+002, 1.089102e-001
8.870947e+002, 1.102878e-001
8.890231e+002, 1.113341e-001
8.909516e+002, 1.120039e-001
8.928801e+002, 1.122810e-001
8.948085e+002, 1.118810e-001
8.967370e+002, 1.112771e-001
8.986655e+002, 1.100642e-001
9.005939e+002, 1.080776e-001
9.025224e+002, 1.056932e-001
9.044509e+002, 1.032192e-001
9.063793e+002, 1.001409e-001
9.083078e+002, 9.665444e-002
9.102363e+002, 9.292275e-002
9.121647e+002, 8.898921e-002
9.140932e+002, 8.448618e-002
9.160217e+002, 7.968949e-002
9.179501e+002, 7.504214e-002
9.198786e+002, 7.008734e-002
9.218071e+002, 6.493670e-002
9.237355e+002, 5.997457e-002
9.256640e+002, 5.500657e-002
9.275925e+002, 5.024901e-002
9.295209e+002, 4.600554e-002
9.314494e+002, 4.235429e-002
9.333779e+002, 3.901834e-002
9.353063e+002, 3.621474e-002
9.372348e+002, 3.369436e-002
9.391633e+002, 3.149777e-002
9.410917e+002, 2.969508e-002
9.430202e+002, 2.831785e-002
9.449487e+002, 2.716012e-002
9.468771e+002, 2.637337e-002
9.488056e+002, 2.592475e-002
9.507341e+002, 2.539799e-002
9.526625e+002, 2.492543e-002
9.545910e+002, 2.476713e-002
9.565195e+002, 2.471940e-002
9.584479e+002, 2.474272e-002
9.603764e+002, 2.478365e-002
9.623049e+002, 2.491585e-002
9.642333e+002, 2.498586e-002
9.661618e+002, 2.507947e-002
9.680903e+002, 2.528078e-002
9.700187e+002, 2.560422e-002
9.719472e+002, 2.592338e-002
9.738757e+002, 2.624264e-002
9.758041e+002, 2.626192e-002
9.777326e+002, 2.630097e-002
9.796611e+002, 2.649646e-002
9.815895e+002, 2.662135e-002
9.835180e+002, 2.666460e-002
9.854465e+002, 2.689079e-002
9.873749e+002, 2.704348e-002
9.893034e+002, 2.707804e-002
9.912319e+002, 2.698701e-002
9.931603e+002, 2.715603e-002
9.950888e+002, 2.754753e-002
9.970173e+002, 2.798494e-002
9.989457e+002, 2.817348e-002
1.000874e+003, 2.832884e-002
1.002803e+003, 2.842255e-002
1.004731e+003, 2.869829e-002
1.006660e+003, 2.902893e-002
1.008588e+003, 2.936508e-002
1.010517e+003, 2.962898e-002
1.012445e+003, 2.992652e-002
1.014373e+003, 3.016891e-002
1.016302e+003, 3.045856e-002
1.018230e+003, 3.068687e-002
1.020159e+003, 3.089965e-002
1.022087e+003, 3.107787e-002
1.024016e+003, 3.130317e-002
1.025944e+003, 3.159962e-002
1.027873e+003, 3.200743e-002
1.029801e+003, 3.232071e-002
1.031730e+003, 3.268241e-002
1.033658e+003, 3.308522e-002
1.035587e+003, 3.342036e-002
1.037515e+003, 3.357373e-002
1.039443e+003, 3.376443e-002
1.041372e+003, 3.424306e-002
1.043300e+003, 3.460327e-002
1.045229e+003, 3.462006e-002
1.047157e+003, 3.491811e-002
1.049086e+003, 3.529125e-002
1.051014e+003, 3.548596e-002
1.052943e+003, 3.552882e-002
1.054871e+003, 3.562328e-002
1.056800e+003, 3.590022e-002
1.058728e+003, 3.610549e-002
1.060657e+003, 3.617514e-002
1.062585e+003, 3.646597e-002
1.064514e+003, 3.669173e-002
1.066442e+003, 3.694898e-002
1.068370e+003, 3.711752e-002
1.070299e+003, 3.704608e-002
1.072227e+003, 3.715296e-002
1.074156e+003, 3.763547e-002
1.076084e+003, 3.805276e-002
1.078013e+003, 3.840205e-002
1.079941e+003, 3.878298e-002
1.081870e+003, 3.915105e-002
1.083798e+003, 3.940047e-002
1.085727e+003, 3.978532e-002
1.087655e+003, 4.013137e-002
1.089584e+003, 4.039476e-002
1.091512e+003, 4.069670e-002
1.093441e+003, 4.113467e-002
1.095369e+003, 4.132169e-002
1.097297e+003, 4.166149e-002
1.099226e+003, 4.207711e-002
1.101154e+003, 4.224179e-002
1.103083e+003, 4.238308e-002
1.105011e+003, 4.285358e-002
1.106940e+003, 4.312877e-002
1.108868e+003, 4.337362e-002
1.110797e+003, 4.358914e-002
1.112725e+003, 4.375054e-002
1.114654e+003, 4.377445e-002
1.116582e+003, 4.389720e-002
1.118511e+003, 4.394348e-002
1.120439e+003, 4.392343e-002
1.122368e+003, 4.393343e-002
1.124296e+003, 4.397431e-002
1.126224e+003, 4.410241e-002
1.128153e+003, 4.419368e-002
1.130081e+003, 4.413951e-002
1.132010e+003, 4.425665e-002
1.133938e+003, 4.434207e-002
1.135867e+003, 4.424517e-002
1.137795e+003, 4.403282e-002
1.139724e+003, 4.406427e-002
1.141652e+003, 4.419862e-002
1.143581e+003, 4.431889e-002
1.145509e+003, 4.434662e-002
1.147438e+003, 4.439750e-002
1.149366e+003, 4.449060e-002
1.151295e+003, 4.468140e-002
1.153223e+003, 4.457941e-002
1.155151e+003, 4.448492e-002
1.157080e+003, 4.442322e-002
1.159008e+003, 4.454060e-002
1.160937e+003, 4.484641e-002
1.162865e+003, 4.499760e-002
1.164794e+003, 4.506003e-002
1.166722e+003, 4.523379e-002
1.168651e+003, 4.532460e-002
1.170579e+003, 4.544062e-002
1.172508e+003, 4.561774e-002
1.174436e+003, 4.570703e-002
1.176365e+003, 4.573966e-002
1.178293e+003, 4.588886e-002
1.180222e+003, 4.589322e-002
1.182150e+003, 4.599164e-002
1.184078e+003, 4.616859e-002
1.186007e+003, 4.635587e-002
1.187935e+003, 4.670018e-002
1.189864e+003, 4.699525e-002
1.191792e+003, 4.716363e-002
1.193721e+003, 4.724541e-002
1.195649e+003, 4.740385e-002
1.197578e+003, 4.758661e-002
1.199506e+003, 4.780328e-002
1.201435e+003, 4.794765e-002
1.203363e+003, 4.808790e-002
1.205292e+003, 4.841010e-002
1.207220e+003, 4.858045e-002
1.209149e+003, 4.873159e-002
1.211077e+003, 4.893362e-002
1.213005e+003, 4.908190e-002
1.214934e+003, 4.910536e-002
1.216862e+003, 4.928447e-002
1.218791e+003, 4.961577e-002
1.220719e+003, 4.982742e-002
1.222648e+003, 4.994633e-002
1.224576e+003, 5.017763e-002
1.226505e+003, 5.038305e-002
1.228433e+003, 5.055426e-002
1.230362e+003, 5.073013e-002
1.232290e+003, 5.094399e-002
1.234219e+003, 5.112979e-002
1.236147e+003, 5.125804e-002
1.238076e+003, 5.135357e-002
1.240004e+003, 5.167346e-002
1.241932e+003, 5.180868e-002
1.243861e+003, 5.206715e-002
1.245789e+003, 5.237778e-002
1.247718e+003, 5.257601e-002
1.249646e+003, 5.269076e-002
1.251575e+003, 5.274996e-002
1.253503e+003, 5.293761e-002
1.255432e+003, 5.329112e-002
1.257360e+003, 5.349441e-002
1.259289e+003, 5.361323e-002
1.261217e+003, 5.366948e-002
1.263146e+003, 5.395316e-002
1.265074e+003, 5.421135e-002
1.267003e+003, 5.445688e-002
1.268931e+003, 5.468378e-002
1.270859e+003, 5.482041e-002
1.272788e+003, 5.497842e-002
1.274716e+003, 5.534712e-002
1.276645e+003, 5.555040e-002
1.278573e+003, 5.575345e-002
1.280502e+003, 5.608833e-002
1.282430e+003, 5.635247e-002
1.284359e+003, 5.658085e-002
1.286287e+003, 5.691620e-002
1.288216e+003, 5.717410e-002
1.290144e+003, 5.729369e-002
1.292073e+003, 5.763138e-002
1.294001e+003, 5.804262e-002
1.295930e+003, 5.827860e-002
1.297858e+003, 5.843109e-002
1.299786e+003, 5.870703e-002
1.301715e+003, 5.903750e-002
1.303643e+003, 5.926849e-002
1.305572e+003, 5.943624e-002
1.307500e+003, 5.956632e-002
1.309429e+003, 5.988233e-002
1.311357e+003, 6.015348e-002
1.313286e+003, 6.037969e-002
1.315214e+003, 6.050226e-002
1.317143e+003, 6.080173e-002
1.319071e+003, 6.102284e-002
1.321000e+003, 6.133402e-002
1.322928e+003, 6.170866e-002
1.324857e+003, 6.198134e-002
1.326785e+003, 6.218633e-002
1.328714e+003, 6.239787e-002
1.330642e+003, 6.277931e-002
1.332570e+003, 6.319662e-002
1.334499e+003, 6.334011e-002
1.336427e+003, 6.356488e-002
1.338356e+003, 6.369440e-002
1.340284e+003, 6.383757e-002
1.342213e+003, 6.402700e-002
1.344141e+003, 6.430900e-002
1.346070e+003, 6.458335e-002
1.347998e+003, 6.471739e-002
1.349927e+003, 6.494627e-002
1.351855e+003, 6.528680e-002
1.353784e+003, 6.547790e-002
1.355712e+003, 6.577647e-002
1.357641e+003, 6.613836e-002
1.359569e+003, 6.634646e-002
1.361497e+003, 6.647323e-002
1.363426e+003, 6.666218e-002
1.365354e+003, 6.679884e-002
1.367283e+003, 6.701063e-002
1.369211e+003, 6.737144e-002
1.371140e+003, 6.767080e-002
1.373068e+003, 6.783953e-002
1.374997e+003, 6.810217e-002
1.376925e+003, 6.841781e-002
1.378854e+003, 6.867783e-002
1.380782e+003, 6.884819e-002
1.382711e+003, 6.913081e-002
1.384639e+003, 6.936850e-002
1.386568e+003, 6.965777e-002
1.388496e+003, 6.990998e-002
1.390424e+003, 7.007760e-002
1.392353e+003, 7.035155e-002
1.394281e+003, 7.067608e-002
1.396210e+003, 7.104970e-002
1.398138e+003, 7.149670e-002
1.400067e+003, 7.164484e-002
1.401995e+003, 7.169241e-002
1.403924e+003, 7.201505e-002
1.405852e+003, 7.234602e-002
1.407781e+003, 7.262862e-002
1.409709e+003, 7.290114e-002
1.411638e+003, 7.322209e-002
1.413566e+003, 7.357725e-002
1.415495e+003, 7.377191e-002
1.417423e+003, 7.420897e-002
1.419351e+003, 7.447772e-002
1.421280e+003, 7.441828e-002
1.423208e+003, 7.454209e-002
1.425137e+003, 7.483672e-002
1.427065e+003, 7.490362e-002
1.428994e+003, 7.516515e-002
1.430922e+003, 7.564700e-002
1.432851e+003, 7.592491e-002
1.434779e+003, 7.606345e-002
1.436708e+003, 7.641261e-002
1.438636e+003, 7.649066e-002
1.440565e+003, 7.655565e-002
1.442493e+003, 7.666451e-002
1.444422e+003, 7.710586e-002
1.446350e+003, 7.753425e-002
1.448278e+003, 7.762629e-002
1.450207e+003, 7.758848e-002
1.452135e+003, 7.770706e-002
1.454064e+003, 7.801688e-002
1.455992e+003, 7.876939e-002
1.457921e+003, 7.895367e-002
1.459849e+003, 7.875671e-002
1.461778e+003, 7.887215e-002
1.463706e+003, 7.917690e-002
1.465635e+003, 7.937670e-002
1.467563e+003, 7.938217e-002
1.469492e+003, 7.940228e-002
1.471420e+003, 7.974935e-002
1.473349e+003, 8.002634e-002
1.475277e+003, 8.017740e-002
1.477205e+003, 8.030712e-002
1.479134e+003, 8.042923e-002
1.481062e+003, 8.059645e-002
1.482991e+003, 8.086193e-002
1.484919e+003, 8.118378e-002
1.486848e+003, 8.147691e-002
1.488776e+003, 8.163480e-002
1.490705e+003, 8.170895e-002
1.492633e+003, 8.186896e-002
1.494562e+003, 8.220334e-002
1.496490e+003, 8.257107e-002
1.498419e+003, 8.277935e-002
1.500347e+003, 8.280968e-002
1.502276e+003, 8.293980e-002
1.504204e+003, 8.358800e-002
1.506132e+003, 8.423840e-002
1.508061e+003, 8.421242e-002
1.509989e+003, 8.417810e-002
1.511918e+003, 8.430913e-002
1.513846e+003, 8.446857e-002
1.515775e+003, 8.485350e-002
1.517703e+003, 8.512852e-002
1.519632e+003, 8.547881e-002
1.521560e+003, 8.594604e-002
1.523489e+003, 8.604341e-002
1.525417e+003, 8.630460e-002
1.527346e+003, 8.644864e-002
1.529274e+003, 8.670299e-002
1.531203e+003, 8.702353e-002
1.533131e+003, 8.750537e-002
1.535059e+003, 8.747474e-002
1.536988e+003, 8.772604e-002
1.538916e+003, 8.848838e-002
1.540845e+003, 8.877599e-002
1.542773e+003, 8.881339e-002
1.544702e+003, 8.884260e-002
1.546630e+003, 8.893923e-002
1.548559e+003, 8.945026e-002
1.550487e+003, 8.976460e-002
1.552416e+003, 8.992667e-002
1.554344e+003, 9.021232e-002
1.556273e+003, 9.063268e-002
1.558201e+003, 9.141942e-002
1.560130e+003, 9.185974e-002
1.562058e+003, 9.147055e-002
1.563986e+003, 9.154267e-002
1.565915e+003, 9.195538e-002
1.567843e+003, 9.219994e-002
1.569772e+003, 9.245951e-002
1.571700e+003, 9.258617e-002
1.573629e+003, 9.295081e-002
1.575557e+003, 9.357838e-002
1.577486e+003, 9.387435e-002
1.579414e+003, 9.402212e-002
1.581343e+003, 9.428242e-002
1.583271e+003, 9.458410e-002
1.585200e+003, 9.468575e-002
1.587128e+003, 9.489586e-002
1.589057e+003, 9.520720e-002
1.590985e+003, 9.563192e-002
1.592913e+003, 9.607893e-002
1.594842e+003, 9.635799e-002
1.596770e+003, 9.659309e-002
1.598699e+003, 9.695242e-002
1.600627e+003, 9.715829e-002
1.602556e+003, 9.763450e-002
1.604484e+003, 9.795724e-002
1.606413e+003, 9.822398e-002
1.608341e+003, 9.876712e-002
1.610270e+003, 9.941146e-002
1.612198e+003, 9.970954e-002
1.614127e+003, 1.000911e-001
1.616055e+003, 1.008475e-001
1.617984e+003, 1.013359e-001
1.619912e+003, 1.014393e-001
1.621840e+003, 1.016947e-001
1.623769e+003, 1.021492e-001
1.625697e+003, 1.028637e-001
1.627626e+003, 1.036834e-001
1.629554e+003, 1.041913e-001
1.631483e+003, 1.045858e-001
1.633411e+003, 1.052755e-001
1.635340e+003, 1.061402e-001
1.637268e+003, 1.064848e-001
1.639197e+003, 1.066977e-001
1.641125e+003, 1.073793e-001
1.643054e+003, 1.083757e-001
1.644982e+003, 1.095154e-001
1.646911e+003, 1.101898e-001
1.648839e+003, 1.104953e-001
1.650767e+003, 1.113020e-001
1.652696e+003, 1.123333e-001
1.654624e+003, 1.120667e-001
1.656553e+003, 1.115567e-001
1.658481e+003, 1.113295e-001
1.660410e+003, 1.106565e-001
1.662338e+003, 1.095923e-001
1.664267e+003, 1.084267e-001
1.666195e+003, 1.071846e-001
1.668124e+003, 1.059947e-001
1.670052e+003, 1.044792e-001
1.671981e+003, 1.030665e-001
1.673909e+003, 1.023816e-001
1.675838e+003, 1.019855e-001
1.677766e+003, 1.013773e-001
1.679694e+003, 1.009705e-001
1.681623e+003, 1.008594e-001
1.683551e+003, 1.013499e-001
1.685480e+003, 1.011382e-001
1.687408e+003, 1.007572e-001
1.689337e+003, 1.007020e-001
1.691265e+003, 1.009268e-001
1.693194e+003, 1.014808e-001
1.695122e+003, 1.019642e-001
1.697051e+003, 1.021218e-001
1.698979e+003, 1.025140e-001
1.700908e+003, 1.025413e-001
1.702836e+003, 1.023560e-001
1.704765e+003, 1.026572e-001
1.706693e+003, 1.029852e-001
1.708621e+003, 1.032468e-001
1.710550e+003, 1.035685e-001
1.712478e+003, 1.037670e-001
1.714407e+003, 1.042719e-001
1.716335e+003, 1.048630e-001
1.718264e+003, 1.050630e-001
1.720192e+003, 1.049109e-001
1.722121e+003, 1.051738e-001
1.724049e+003, 1.053244e-001
1.725978e+003, 1.055262e-001
1.727906e+003, 1.058380e-001
1.729835e+003, 1.061110e-001
1.731763e+003, 1.064548e-001
1.733692e+003, 1.071369e-001
1.735620e+003, 1.069305e-001
1.737548e+003, 1.068745e-001
1.739477e+003, 1.076405e-001
1.741405e+003, 1.078552e-001
1.743334e+003, 1.078201e-001
1.745262e+003, 1.078473e-001
1.747191e+003, 1.080875e-001
1.749119e+003, 1.085376e-001
1.751048e+003, 1.090007e-001
1.752976e+003, 1.092438e-001
1.754905e+003, 1.092808e-001
1.756833e+003, 1.094409e-001
1.758762e+003, 1.096339e-001
1.760690e+003, 1.101558e-001
1.762619e+003, 1.106696e-001
1.764547e+003, 1.109042e-001
1.766475e+003, 1.107976e-001
1.768404e+003, 1.107760e-001
1.770332e+003, 1.109176e-001
1.772261e+003, 1.112745e-001
1.774189e+003, 1.115092e-001
1.776118e+003, 1.115457e-001
1.778046e+003, 1.112776e-001
1.779975e+003, 1.110795e-001
1.781903e+003, 1.109800e-001
1.783832e+003, 1.111740e-001
1.785760e+003, 1.111751e-001
1.787689e+003, 1.108424e-001
1.789617e+003, 1.107639e-001
1.791546e+003, 1.107239e-001
1.793474e+003, 1.102885e-001
1.795402e+003, 1.098246e-001
1.797331e+003, 1.093341e-001
1.799259e+003, 1.088789e-001
1.801188e+003, 1.086881e-001
1.803116e+003, 1.084513e-001
1.805045e+003, 1.079488e-001
1.806973e+003, 1.072354e-001
1.808902e+003, 1.067304e-001
1.810830e+003, 1.064405e-001
1.812759e+003, 1.060050e-001
1.814687e+003, 1.057345e-001
1.816616e+003, 1.051717e-001
1.818544e+003, 1.048015e-001
1.820473e+003, 1.046615e-001
1.822401e+003, 1.047291e-001
1.824329e+003, 1.045837e-001
1.826258e+003, 1.041695e-001
1.828186e+003, 1.039501e-001
1.830115e+003, 1.039805e-001
1.832043e+003, 1.038534e-001
1.833972e+003, 1.039508e-001
1.835900e+003, 1.044121e-001
1.837829e+003, 1.045896e-001
1.839757e+003, 1.047557e-001
1.841686e+003, 1.049198e-001
1.843614e+003, 1.049363e-001
1.845543e+003, 1.049436e-001
1.847471e+003, 1.050590e-001
1.849400e+003, 1.047970e-001
1.851328e+003, 1.047647e-001
1.853256e+003, 1.054763e-001
1.855185e+003, 1.058065e-001
1.857113e+003, 1.060075e-001
1.859042e+003, 1.060977e-001
1.860970e+003, 1.062503e-001
1.862899e+003, 1.065895e-001
1.864827e+003, 1.074805e-001
1.866756e+003, 1.078751e-001
1.868684e+003, 1.079705e-001
1.870613e+003, 1.077987e-001
1.872541e+003, 1.082322e-001
1.874470e+003, 1.087053e-001
1.876398e+003, 1.087915e-001
1.878327e+003, 1.091427e-001
1.880255e+003, 1.095691e-001
1.882183e+003, 1.098481e-001
1.884112e+003, 1.102335e-001
1.886040e+003, 1.103124e-001
1.887969e+003, 1.100442e-001
1.889897e+003, 1.099795e-001
1.891826e+003, 1.102483e-001
1.893754e+003, 1.105083e-001
1.895683e+003, 1.109764e-001
1.897611e+003, 1.110662e-001
1.899540e+003, 1.112200e-001
1.901468e+003, 1.118408e-001
1.903397e+003, 1.121248e-001
1.905325e+003, 1.122547e-001
1.907254e+003, 1.127551e-001
1.909182e+003, 1.128022e-001
1.911110e+003, 1.131747e-001
1.913039e+003, 1.130145e-001
1.914967e+003, 1.129556e-001
1.916896e+003, 1.131703e-001
1.918824e+003, 1.141480e-001
1.920753e+003, 1.142664e-001
1.922681e+003, 1.135446e-001
1.924610e+003, 1.135312e-001
1.926538e+003, 1.140741e-001
1.928467e+003, 1.137338e-001
1.930395e+003, 1.140609e-001
1.932324e+003, 1.142772e-001
1.934252e+003, 1.145094e-001
1.936181e+003, 1.152000e-001
1.938109e+003, 1.154253e-001
1.940037e+003, 1.156121e-001
1.941966e+003, 1.163884e-001
1.943894e+003, 1.163077e-001
1.945823e+003, 1.158987e-001
1.947751e+003, 1.152994e-001
1.949680e+003, 1.150458e-001
1.951608e+003, 1.157753e-001
1.953537e+003, 1.161469e-001
1.955465e+003, 1.153868e-001
1.957394e+003, 1.153597e-001
1.959322e+003, 1.157377e-001
1.961251e+003, 1.157661e-001
1.963179e+003, 1.158793e-001
1.965108e+003, 1.158476e-001
1.967036e+003, 1.163426e-001
1.968964e+003, 1.181148e-001
1.970893e+003, 1.175249e-001
1.972821e+003, 1.171286e-001
1.974750e+003, 1.175927e-001
1.976678e+003, 1.178949e-001
1.978607e+003, 1.195213e-001
1.980535e+003, 1.197400e-001
1.982464e+003, 1.192536e-001
1.984392e+003, 1.192220e-001
1.986321e+003, 1.181257e-001
1.988249e+003, 1.189369e-001
1.990178e+003, 1.195352e-001
1.992106e+003, 1.177071e-001
1.994035e+003, 1.177135e-001
1.995963e+003, 1.185298e-001
1.997891e+003, 1.176836e-001
1.999820e+003, 1.173812e-001
2.001748e+003, 1.179152e-001
2.003677e+003, 1.182011e-001
2.005605e+003, 1.186903e-001
2.007534e+003, 1.193214e-001
2.009462e+003, 1.194070e-001
2.011391e+003, 1.201931e-001
2.013319e+003, 1.197135e-001
2.015248e+003, 1.186461e-001
2.017176e+003, 1.179354e-001
2.019105e+003, 1.173826e-001
2.021033e+003, 1.179252e-001
2.022962e+003, 1.191955e-001
2.024890e+003, 1.188023e-001
2.026818e+003, 1.193563e-001
2.028747e+003, 1.183400e-001
2.030675e+003, 1.180393e-001
2.032604e+003, 1.204471e-001
2.034532e+003, 1.225660e-001
2.036461e+003, 1.224647e-001
2.038389e+003, 1.211112e-001
2.040318e+003, 1.206049e-001
2.042246e+003, 1.207774e-001
2.044175e+003, 1.208969e-001
2.046103e+003, 1.205516e-001
2.048031e+003, 1.202166e-001
2.049960e+003, 1.203431e-001
2.051888e+003, 1.195574e-001
2.053817e+003, 1.196729e-001
2.055745e+003, 1.205463e-001
2.057674e+003, 1.204587e-001
2.059602e+003, 1.203173e-001
2.061531e+003, 1.213387e-001
2.063459e+003, 1.214099e-001
2.065388e+003, 1.213044e-001
2.067316e+003, 1.209154e-001
2.069245e+003, 1.205444e-001
2.071173e+003, 1.206054e-001
2.073102e+003, 1.211872e-001
2.075030e+003, 1.216242e-001
2.076958e+003, 1.226539e-001
2.078887e+003, 1.223722e-001
2.080815e+003, 1.220017e-001
2.082744e+003, 1.216328e-001
2.084672e+003, 1.214821e-001
2.086601e+003, 1.214124e-001
2.088529e+003, 1.219963e-001
2.090458e+003, 1.221582e-001
2.092386e+003, 1.218416e-001
2.094315e+003, 1.217074e-001
2.096243e+003, 1.223494e-001
2.098172e+003, 1.228244e-001
2.100100e+003, 1.231722e-001
2.102029e+003, 1.227358e-001
2.103957e+003, 1.220853e-001
2.105885e+003, 1.221604e-001
2.107814e+003, 1.225719e-001
2.109742e+003, 1.228670e-001
2.111671e+003, 1.233554e-001
2.113599e+003, 1.241630e-001
2.115528e+003, 1.240953e-001
2.117456e+003, 1.233085e-001
2.119385e+003, 1.231852e-001
2.121313e+003, 1.239735e-001
2.123242e+003, 1.240972e-001
2.125170e+003, 1.234234e-001
2.127099e+003, 1.237223e-001
2.129027e+003, 1.228898e-001
2.130956e+003, 1.222889e-001
2.132884e+003, 1.227383e-001
2.134813e+003, 1.234544e-001
2.136741e+003, 1.230693e-001
2.138669e+003, 1.239150e-001
2.140598e+003, 1.246916e-001
2.142526e+003, 1.258928e-001
2.144455e+003, 1.262933e-001
2.146383e+003, 1.256766e-001
2.148312e+003, 1.250263e-001
2.150240e+003, 1.266510e-001
2.152169e+003, 1.264997e-001
2.154097e+003, 1.258730e-001
2.156026e+003, 1.249839e-001
2.157954e+003, 1.273808e-001
2.159883e+003, 1.306327e-001
2.161811e+003, 1.304414e-001
2.163740e+003, 1.295295e-001
2.165668e+003, 1.290410e-001
2.167596e+003, 1.279248e-001
2.169525e+003, 1.276155e-001
2.171453e+003, 1.283472e-001
2.173382e+003, 1.281274e-001
2.175310e+003, 1.295015e-001
2.177239e+003, 1.296692e-001
2.179167e+003, 1.283918e-001
2.181096e+003, 1.301181e-001
2.183024e+003, 1.314164e-001
2.184953e+003, 1.315403e-001
2.186881e+003, 1.325606e-001
2.188810e+003, 1.330766e-001
2.190738e+003, 1.330754e-001
2.192667e+003, 1.328988e-001
2.194595e+003, 1.324014e-001
2.196523e+003, 1.313749e-001
2.198452e+003, 1.310119e-001
2.200380e+003, 1.314990e-001
2.202309e+003, 1.312110e-001
2.204237e+003, 1.313098e-001
2.206166e+003, 1.313248e-001
2.208094e+003, 1.308318e-001
2.210023e+003, 1.307717e-001
2.211951e+003, 1.315636e-001
2.213880e+003, 1.320912e-001
2.215808e+003, 1.327920e-001
2.217737e+003, 1.324125e-001
2.219665e+003, 1.307807e-001
2.221594e+003, 1.305637e-001
2.223522e+003, 1.315094e-001
2.225450e+003, 1.321335e-001
2.227379e+003, 1.322287e-001
2.229307e+003, 1.322091e-001
2.231236e+003, 1.330280e-001
2.233164e+003, 1.333374e-001
2.235093e+003, 1.333693e-001
2.237021e+003, 1.337701e-001
2.238950e+003, 1.336258e-001
2.240878e+003, 1.341073e-001
2.242807e+003, 1.345293e-001
2.244735e+003, 1.340039e-001
2.246664e+003, 1.341953e-001
2.248592e+003, 1.341983e-001
2.250521e+003, 1.338852e-001
2.252449e+003, 1.336402e-001
2.254377e+003, 1.341877e-001
2.256306e+003, 1.344217e-001
2.258234e+003, 1.352403e-001
2.260163e+003, 1.357187e-001
2.262091e+003, 1.354315e-001
2.264020e+003, 1.351335e-001
2.265948e+003, 1.355674e-001
2.267877e+003, 1.360160e-001
2.269805e+003, 1.358897e-001
2.271734e+003, 1.356590e-001
2.273662e+003, 1.362742e-001
2.275591e+003, 1.362546e-001
2.277519e+003, 1.355247e-001
2.279448e+003, 1.353121e-001
2.281376e+003, 1.355871e-001
2.283304e+003, 1.361611e-001
2.285233e+003, 1.370316e-001
2.287161e+003, 1.372284e-001
2.289090e+003, 1.373482e-001
2.291018e+003, 1.372959e-001
2.292947e+003, 1.369193e-001
2.294875e+003, 1.368057e-001
2.296804e+003, 1.374874e-001
2.298732e+003, 1.375327e-001
2.300661e+003, 1.366443e-001
2.302589e+003, 1.365559e-001
2.304518e+003, 1.371448e-001
2.306446e+003, 1.377908e-001
2.308375e+003, 1.382703e-001
2.310303e+003, 1.384117e-001
2.312231e+003, 1.384436e-001
2.314160e+003, 1.386524e-001
2.316088e+003, 1.389376e-001
2.318017e+003, 1.389391e-001
2.319945e+003, 1.390245e-001
2.321874e+003, 1.396943e-001
2.323802e+003, 1.405328e-001
2.325731e+003, 1.402996e-001
2.327659e+003, 1.399453e-001
2.329588e+003, 1.401053e-001
2.331516e+003, 1.402295e-001
2.333445e+003, 1.403932e-001
2.335373e+003, 1.407710e-001
2.337302e+003, 1.407282e-001
2.339230e+003, 1.407806e-001
2.341158e+003, 1.408866e-001
2.343087e+003, 1.409982e-001
2.345015e+003, 1.407489e-001
2.346944e+003, 1.404535e-001
2.348872e+003, 1.402770e-001
2.350801e+003, 1.409550e-001
2.352729e+003, 1.417254e-001
2.354658e+003, 1.422516e-001
2.356586e+003, 1.424670e-001
2.358515e+003, 1.431263e-001
2.360443e+003, 1.436000e-001
2.362372e+003, 1.438624e-001
2.364300e+003, 1.438999e-001
2.366229e+003, 1.434251e-001
2.368157e+003, 1.429888e-001
2.370085e+003, 1.432777e-001
2.372014e+003, 1.430081e-001
2.373942e+003, 1.427093e-001
2.375871e+003, 1.428218e-001
2.377799e+003, 1.428529e-001
2.379728e+003, 1.427804e-001
2.381656e+003, 1.429455e-001
2.383585e+003, 1.428508e-001
2.385513e+003, 1.430850e-001
2.387442e+003, 1.431550e-001
2.389370e+003, 1.428131e-001
2.391299e+003, 1.431975e-001
2.393227e+003, 1.435954e-001
2.395156e+003, 1.436566e-001
2.397084e+003, 1.441026e-001
2.399012e+003, 1.441135e-001
2.400941e+003, 1.441887e-001
2.402869e+003, 1.449909e-001
2.404798e+003, 1.449287e-001
2.406726e+003, 1.448084e-001
2.408655e+003, 1.452322e-001
2.410583e+003, 1.453726e-001
2.412512e+003, 1.461666e-001
2.414440e+003, 1.465373e-001
2.416369e+003, 1.464536e-001
2.418297e+003, 1.462676e-001
2.420226e+003, 1.463509e-001
2.422154e+003, 1.463338e-001
2.424083e+003, 1.460578e-001
2.426011e+003, 1.462668e-001
2.427939e+003, 1.467283e-001
2.429868e+003, 1.473394e-001
2.431796e+003, 1.479075e-001
2.433725e+003, 1.478440e-001
2.435653e+003, 1.476419e-001
2.437582e+003, 1.475844e-001
2.439510e+003, 1.483851e-001
2.441439e+003, 1.487197e-001
2.443367e+003, 1.489993e-001
2.445296e+003, 1.490494e-001
2.447224e+003, 1.494735e-001
2.449153e+003, 1.498979e-001
2.451081e+003, 1.497025e-001
2.453010e+003, 1.498662e-001
2.454938e+003, 1.504530e-001
2.456866e+003, 1.507430e-001
2.458795e+003, 1.506512e-001
2.460723e+003, 1.505248e-001
2.462652e+003, 1.504752e-001
2.464580e+003, 1.502198e-001
2.466509e+003, 1.502776e-001
2.468437e+003, 1.505256e-001
2.470366e+003, 1.507828e-001
2.472294e+003, 1.505736e-001
2.474223e+003, 1.508932e-001
2.476151e+003, 1.512328e-001
2.478080e+003, 1.514897e-001
2.480008e+003, 1.514897e-001
2.481937e+003, 1.518312e-001
2.483865e+003, 1.519752e-001
2.485793e+003, 1.516216e-001
2.487722e+003, 1.516871e-001
2.489650e+003, 1.522280e-001
2.491579e+003, 1.523436e-001
2.493507e+003, 1.528269e-001
2.495436e+003, 1.531029e-001
2.497364e+003, 1.531357e-001
2.499293e+003, 1.535295e-001
2.501221e+003, 1.535996e-001
2.503150e+003, 1.536286e-001
2.505078e+003, 1.535010e-001
2.507007e+003, 1.530773e-001
2.508935e+003, 1.533288e-001
2.510864e+003, 1.537396e-001
2.512792e+003, 1.543285e-001
2.514720e+003, 1.545925e-001
2.516649e+003, 1.544610e-001
2.518577e+003, 1.542225e-001
2.520506e+003, 1.544181e-001
2.522434e+003, 1.551745e-001
2.524363e+003, 1.553748e-001
2.526291e+003, 1.552159e-001
2.528220e+003, 1.554778e-001
2.530148e+003, 1.558683e-001
2.532077e+003, 1.562886e-001
2.534005e+003, 1.564998e-001
2.535934e+003, 1.565138e-001
2.537862e+003, 1.561871e-001
2.539791e+003, 1.560599e-001
2.541719e+003, 1.562955e-001
2.543647e+003, 1.563707e-001
2.545576e+003, 1.572226e-001
2.547504e+003, 1.578173e-001
2.549433e+003, 1.578959e-001
2.551361e+003, 1.581600e-001
2.553290e+003, 1.578009e-001
2.555218e+003, 1.570125e-001
2.557147e+003, 1.573202e-001
2.559075e+003, 1.582429e-001
2.561004e+003, 1.585142e-001
2.562932e+003, 1.584524e-001
2.564861e+003, 1.587824e-001
2.566789e+003, 1.592370e-001
2.568718e+003, 1.594293e-001
2.570646e+003, 1.597836e-001
2.572574e+003, 1.600914e-001
2.574503e+003, 1.606201e-001
2.576431e+003, 1.604484e-001
2.578360e+003, 1.600716e-001
2.580288e+003, 1.597241e-001
2.582217e+003, 1.598551e-001
2.584145e+003, 1.603032e-001
2.586074e+003, 1.608565e-001
2.588002e+003, 1.608179e-001
2.589931e+003, 1.607968e-001
2.591859e+003, 1.613221e-001
2.593788e+003, 1.616888e-001
2.595716e+003, 1.614011e-001
2.597645e+003, 1.617934e-001
2.599573e+003, 1.618637e-001
2.601501e+003, 1.619490e-001
2.603430e+003, 1.621868e-001
2.605358e+003, 1.620530e-001
2.607287e+003, 1.621122e-001
2.609215e+003, 1.622384e-001
2.611144e+003, 1.625784e-001
2.613072e+003, 1.637030e-001
2.615001e+003, 1.638739e-001
2.616929e+003, 1.633231e-001
2.618858e+003, 1.635149e-001
2.620786e+003, 1.636501e-001
2.622715e+003, 1.634636e-001
2.624643e+003, 1.632797e-001
2.626572e+003, 1.637155e-001
2.628500e+003, 1.641801e-001
2.630428e+003, 1.642187e-001
2.632357e+003, 1.644121e-001
2.634285e+003, 1.645120e-001
2.636214e+003, 1.652296e-001
2.638142e+003, 1.655570e-001
2.640071e+003, 1.652427e-001
2.641999e+003, 1.652240e-001
2.643928e+003, 1.654829e-001
2.645856e+003, 1.653209e-001
2.647785e+003, 1.656942e-001
2.649713e+003, 1.662504e-001
2.651642e+003, 1.663996e-001
2.653570e+003, 1.659510e-001
2.655499e+003, 1.663176e-001
2.657427e+003, 1.667169e-001
2.659355e+003, 1.668283e-001
2.661284e+003, 1.670802e-001
2.663212e+003, 1.673896e-001
2.665141e+003, 1.672927e-001
2.667069e+003, 1.675477e-001
2.668998e+003, 1.679849e-001
2.670926e+003, 1.679708e-001
2.672855e+003, 1.677346e-001
2.674783e+003, 1.679673e-001
2.676712e+003, 1.682032e-001
2.678640e+003, 1.682788e-001
2.680569e+003, 1.684907e-001
2.682497e+003, 1.685700e-001
2.684426e+003, 1.687703e-001
2.686354e+003, 1.693407e-001
2.688282e+003, 1.696096e-001
2.690211e+003, 1.697095e-001
2.692139e+003, 1.699096e-001
2.694068e+003, 1.699287e-001
2.695996e+003, 1.701342e-001
2.697925e+003, 1.705898e-001
2.699853e+003, 1.706004e-001
2.701782e+003, 1.706699e-001
2.703710e+003, 1.710122e-001
2.705639e+003, 1.712326e-001
2.707567e+003, 1.714267e-001
2.709496e+003, 1.718423e-001
2.711424e+003, 1.721684e-001
2.713353e+003, 1.724860e-001
2.715281e+003, 1.730283e-001
2.717209e+003, 1.730450e-001
2.719138e+003, 1.728953e-001
2.721066e+003, 1.733957e-001
2.722995e+003, 1.734435e-001
2.724923e+003, 1.733988e-001
2.726852e+003, 1.737704e-001
2.728780e+003, 1.741618e-001
2.730709e+003, 1.738416e-001
2.732637e+003, 1.738065e-001
2.734566e+003, 1.737270e-001
2.736494e+003, 1.740066e-001
2.738423e+003, 1.747465e-001
2.740351e+003, 1.748828e-001
2.742280e+003, 1.751019e-001
2.744208e+003, 1.755252e-001
2.746136e+003, 1.756044e-001
2.748065e+003, 1.758113e-001
2.749993e+003, 1.760690e-001
2.751922e+003, 1.764472e-001
2.753850e+003, 1.763621e-001
2.755779e+003, 1.764642e-001
2.757707e+003, 1.765702e-001
2.759636e+003, 1.764425e-001
2.761564e+003, 1.766696e-001
2.763493e+003, 1.772434e-001
2.765421e+003, 1.771139e-001
2.767350e+003, 1.771882e-001
2.769278e+003, 1.776575e-001
2.771207e+003, 1.778164e-001
2.773135e+003, 1.776970e-001
2.775063e+003, 1.778371e-001
2.776992e+003, 1.781420e-001
2.778920e+003, 1.785658e-001
2.780849e+003, 1.788199e-001
2.782777e+003, 1.790303e-001
2.784706e+003, 1.788786e-001
2.786634e+003, 1.787068e-001
2.788563e+003, 1.790230e-001
2.790491e+003, 1.793786e-001
2.792420e+003, 1.795097e-001
2.794348e+003, 1.795658e-001
2.796277e+003, 1.795422e-001
2.798205e+003, 1.798251e-001
2.800134e+003, 1.802065e-001
2.802062e+003, 1.802984e-001
2.803990e+003, 1.804526e-001
2.805919e+003, 1.810664e-001
2.807847e+003, 1.813151e-001
2.809776e+003, 1.813249e-001
2.811704e+003, 1.812814e-001
2.813633e+003, 1.815326e-001
2.815561e+003, 1.820085e-001
2.817490e+003, 1.823165e-001
2.819418e+003, 1.823289e-001
2.821347e+003, 1.824866e-001
2.823275e+003, 1.828504e-001
2.825204e+003, 1.830957e-001
2.827132e+003, 1.833030e-001
2.829061e+003, 1.835547e-001
2.830989e+003, 1.834871e-001
2.832917e+003, 1.833819e-001
2.834846e+003, 1.843658e-001
2.836774e+003, 1.849862e-001
2.838703e+003, 1.847602e-001
2.840631e+003, 1.847893e-001
2.842560e+003, 1.852555e-001
2.844488e+003, 1.860105e-001
2.846417e+003, 1.862525e-001
2.848345e+003, 1.863000e-001
2.850274e+003, 1.860677e-001
2.852202e+003, 1.865263e-001
2.854131e+003, 1.868040e-001
2.856059e+003, 1.864772e-001
2.857988e+003, 1.865543e-001
2.859916e+003, 1.870902e-001
2.861844e+003, 1.876487e-001
2.863773e+003, 1.879108e-001
2.865701e+003, 1.883358e-001
2.867630e+003, 1.884751e-001
2.869558e+003, 1.880651e-001
2.871487e+003, 1.883804e-001
2.873415e+003, 1.884516e-001
2.875344e+003, 1.880243e-001
2.877272e+003, 1.883403e-001
2.879201e+003, 1.891534e-001
2.881129e+003, 1.893596e-001
2.883058e+003, 1.895209e-001
2.884986e+003, 1.901835e-001
2.886915e+003, 1.902596e-001
2.888843e+003, 1.903135e-001
2.890771e+003, 1.911366e-001
2.892700e+003, 1.918478e-001
2.894628e+003, 1.918827e-001
2.896557e+003, 1.916412e-001
2.898485e+003, 1.921162e-001
2.900414e+003, 1.928021e-001
2.902342e+003, 1.934019e-001
2.904271e+003, 1.936267e-001
2.906199e+003, 1.936615e-001
2.908128e+003, 1.938477e-001
2.910056e+003, 1.943964e-001
2.911985e+003, 1.946431e-001
2.913913e+003, 1.946945e-001
2.915842e+003, 1.955386e-001
2.917770e+003, 1.962889e-001
2.919698e+003, 1.964965e-001
2.921627e+003, 1.969772e-001
2.923555e+003, 1.973226e-001
2.925484e+003, 1.966507e-001
2.927412e+003, 1.964727e-001
2.929341e+003, 1.972411e-001
2.931269e+003, 1.980429e-001
2.933198e+003, 1.980853e-001
2.935126e+003, 1.979987e-001
2.937055e+003, 1.982898e-001
2.938983e+003, 1.983943e-001
2.940912e+003, 1.988330e-001
2.942840e+003, 1.993221e-001
2.944769e+003, 1.995342e-001
2.946697e+003, 1.990108e-001
2.948625e+003, 1.992828e-001
2.950554e+003, 2.007160e-001
2.952482e+003, 2.015762e-001
2.954411e+003, 2.017270e-001
2.956339e+003, 2.026175e-001
2.958268e+003, 2.031235e-001
2.960196e+003, 2.028745e-001
2.962125e+003, 2.029448e-001
2.964053e+003, 2.030273e-001
2.965982e+003, 2.030408e-001
2.967910e+003, 2.043273e-001
2.969839e+003, 2.051860e-001
2.971767e+003, 2.057220e-001
2.973696e+003, 2.055558e-001
2.975624e+003, 2.055676e-001
2.977552e+003, 2.061611e-001
2.979481e+003, 2.063630e-001
2.981409e+003, 2.066437e-001
2.983338e+003, 2.071612e-001
2.985266e+003, 2.080058e-001
2.987195e+003, 2.091153e-001
2.989123e+003, 2.096275e-001
2.991052e+003, 2.098989e-001
2.992980e+003, 2.105820e-001
2.994909e+003, 2.114692e-001
2.996837e+003, 2.122619e-001
2.998766e+003, 2.129276e-001
3.000694e+003, 2.129716e-001
3.002623e+003, 2.137545e-001
3.004551e+003, 2.145034e-001
3.006479e+003, 2.147827e-001
3.008408e+003, 2.155576e-001
3.010336e+003, 2.165070e-001
3.012265e+003, 2.166726e-001
3.014193e+003, 2.172315e-001
3.016122e+003, 2.182839e-001
3.018050e+003, 2.188079e-001
3.019979e+003, 2.187922e-001
3.021907e+003, 2.197605e-001
3.023836e+003, 2.203681e-001
3.025764e+003, 2.213185e-001
3.027693e+003, 2.222333e-001
3.029621e+003, 2.228913e-001
3.031550e+003, 2.232276e-001
3.033478e+003, 2.240414e-001
3.035406e+003, 2.247546e-001
3.037335e+003, 2.253879e-001
3.039263e+003, 2.256901e-001
3.041192e+003, 2.262678e-001
3.043120e+003, 2.268006e-001
3.045049e+003, 2.277610e-001
3.046977e+003, 2.292072e-001
3.048906e+003, 2.298654e-001
3.050834e+003, 2.301940e-001
3.052763e+003, 2.308602e-001
3.054691e+003, 2.311024e-001
3.056620e+003, 2.312072e-001
3.058548e+003, 2.312063e-001
3.060477e+003, 2.314897e-001
3.062405e+003, 2.319952e-001
3.064333e+003, 2.325696e-001
3.066262e+003, 2.325791e-001
3.068190e+003, 2.328824e-001
3.070119e+003, 2.334095e-001
3.072047e+003, 2.340334e-001
3.073976e+003, 2.339459e-001
3.075904e+003, 2.333041e-001
3.077833e+003, 2.325475e-001
3.079761e+003, 2.323143e-001
3.081690e+003, 2.321489e-001
3.083618e+003, 2.320709e-001
3.085547e+003, 2.315441e-001
3.087475e+003, 2.311131e-001
3.089404e+003, 2.303221e-001
3.091332e+003, 2.295646e-001
3.093260e+003, 2.278380e-001
3.095189e+003, 2.264286e-001
3.097117e+003, 2.257333e-001
3.099046e+003, 2.242289e-001
3.100974e+003, 2.226677e-001
3.102903e+003, 2.216236e-001
3.104831e+003, 2.206604e-001
3.106760e+003, 2.199350e-001
3.108688e+003, 2.182368e-001
3.110617e+003, 2.166170e-001
3.112545e+003, 2.153956e-001
3.114474e+003, 2.142867e-001
3.116402e+003, 2.130855e-001
3.118331e+003, 2.119114e-001
3.120259e+003, 2.098298e-001
3.122188e+003, 2.080134e-001
3.124116e+003, 2.067803e-001
3.126044e+003, 2.057859e-001
3.127973e+003, 2.034072e-001
3.129901e+003, 2.013511e-001
3.131830e+003, 2.008562e-001
3.133758e+003, 2.000001e-001
3.135687e+003, 1.982690e-001
3.137615e+003, 1.968279e-001
3.139544e+003, 1.953160e-001
3.141472e+003, 1.932198e-001
3.143401e+003, 1.920037e-001
3.145329e+003, 1.915268e-001
3.147258e+003, 1.901517e-001
3.149186e+003, 1.892916e-001
3.151115e+003, 1.878236e-001
3.153043e+003, 1.860789e-001
3.154971e+003, 1.850787e-001
3.156900e+003, 1.840286e-001
3.158828e+003, 1.826688e-001
3.160757e+003, 1.820094e-001
3.162685e+003, 1.811625e-001
3.164614e+003, 1.799337e-001
3.166542e+003, 1.790186e-001
3.168471e+003, 1.784223e-001
3.170399e+003, 1.775745e-001
3.172328e+003, 1.762568e-001
3.174256e+003, 1.755830e-001
3.176185e+003, 1.745446e-001
3.178113e+003, 1.734986e-001
3.180042e+003, 1.727944e-001
3.181970e+003, 1.715596e-001
3.183898e+003, 1.707411e-001
3.185827e+003, 1.700051e-001
3.187755e+003, 1.688251e-001
3.189684e+003, 1.677396e-001
3.191612e+003, 1.673138e-001
3.193541e+003, 1.669726e-001
3.195469e+003, 1.658740e-001
3.197398e+003, 1.646838e-001
3.199326e+003, 1.647354e-001
3.201255e+003, 1.641806e-001
3.203183e+003, 1.632624e-001
3.205112e+003, 1.626340e-001
3.207040e+003, 1.611253e-001
3.208969e+003, 1.601619e-001
3.210897e+003, 1.604173e-001
3.212825e+003, 1.606407e-001
3.214754e+003, 1.594077e-001
3.216682e+003, 1.578986e-001
3.218611e+003, 1.580305e-001
3.220539e+003, 1.578747e-001
3.222468e+003, 1.568075e-001
3.224396e+003, 1.553211e-001
3.226325e+003, 1.553077e-001
3.228253e+003, 1.551922e-001
3.230182e+003, 1.537058e-001
3.232110e+003, 1.525610e-001
3.234039e+003, 1.519176e-001
3.235967e+003, 1.513800e-001
3.237896e+003, 1.509313e-001
3.239824e+003, 1.509456e-001
3.241752e+003, 1.506200e-001
3.243681e+003, 1.494119e-001
3.245609e+003, 1.487513e-001
3.247538e+003, 1.483835e-001
3.249466e+003, 1.480277e-001
3.251395e+003, 1.479378e-001
3.253323e+003, 1.472615e-001
3.255252e+003, 1.462256e-001
3.257180e+003, 1.459227e-001
3.259109e+003, 1.453816e-001
3.261037e+003, 1.444242e-001
3.262966e+003, 1.437124e-001
3.264894e+003, 1.437221e-001
3.266823e+003, 1.425290e-001
3.268751e+003, 1.417861e-001
3.270679e+003, 1.418654e-001
3.272608e+003, 1.418762e-001
3.274536e+003, 1.412373e-001
3.276465e+003, 1.415537e-001
3.278393e+003, 1.420725e-001
3.280322e+003, 1.418754e-001
3.282250e+003, 1.409874e-001
3.284179e+003, 1.398648e-001
3.286107e+003, 1.394225e-001
3.288036e+003, 1.397288e-001
3.289964e+003, 1.381953e-001
3.291893e+003, 1.371894e-001
3.293821e+003, 1.372145e-001
3.295750e+003, 1.371124e-001
3.297678e+003, 1.370937e-001
3.299606e+003, 1.374258e-001
3.301535e+003, 1.371387e-001
3.303463e+003, 1.365854e-001
3.305392e+003, 1.362114e-001
3.307320e+003, 1.355218e-001
3.309249e+003, 1.347604e-001
3.311177e+003, 1.349202e-001
3.313106e+003, 1.354195e-001
3.315034e+003, 1.356048e-001
3.316963e+003, 1.354703e-001
3.318891e+003, 1.352537e-001
3.320820e+003, 1.344887e-001
3.322748e+003, 1.343862e-001
3.324677e+003, 1.349325e-001
3.326605e+003, 1.350095e-001
3.328533e+003, 1.346859e-001
3.330462e+003, 1.347983e-001
3.332390e+003, 1.350308e-001
3.334319e+003, 1.348523e-001
3.336247e+003, 1.348943e-001
3.338176e+003, 1.346143e-001
3.340104e+003, 1.338020e-001
3.342033e+003, 1.334278e-001
3.343961e+003, 1.334019e-001
3.345890e+003, 1.325462e-001
3.347818e+003, 1.320325e-001
3.349747e+003, 1.323615e-001
3.351675e+003, 1.322351e-001
3.353604e+003, 1.332706e-001
3.355532e+003, 1.337800e-001
3.357460e+003, 1.334243e-001
3.359389e+003, 1.327708e-001
3.361317e+003, 1.325659e-001
3.363246e+003, 1.326609e-001
3.365174e+003, 1.327681e-001
3.367103e+003, 1.323730e-001
3.369031e+003, 1.320244e-001
3.370960e+003, 1.323450e-001
3.372888e+003, 1.324567e-001
3.374817e+003, 1.318432e-001
3.376745e+003, 1.314542e-001
3.378674e+003, 1.319036e-001
3.380602e+003, 1.324730e-001
3.382531e+003, 1.315941e-001
3.384459e+003, 1.310544e-001
3.386387e+003, 1.310383e-001
3.388316e+003, 1.315385e-001
3.390244e+003, 1.318604e-001
3.392173e+003, 1.310455e-001
3.394101e+003, 1.300391e-001
3.396030e+003, 1.300968e-001
3.397958e+003, 1.300976e-001
3.399887e+003, 1.308212e-001
3.401815e+003, 1.312598e-001
3.403744e+003, 1.308291e-001
3.405672e+003, 1.306795e-001
3.407601e+003, 1.312440e-001
3.409529e+003, 1.313515e-001
3.411458e+003, 1.305524e-001
3.413386e+003, 1.299566e-001
3.415314e+003, 1.301942e-001
3.417243e+003, 1.302195e-001
3.419171e+003, 1.306542e-001
3.421100e+003, 1.303744e-001
3.423028e+003, 1.304125e-001
3.424957e+003, 1.310039e-001
3.426885e+003, 1.311155e-001
3.428814e+003, 1.309286e-001
3.430742e+003, 1.308111e-001
3.432671e+003, 1.307567e-001
3.434599e+003, 1.315856e-001
3.436528e+003, 1.311826e-001
3.438456e+003, 1.303910e-001
3.440385e+003, 1.306753e-001
3.442313e+003, 1.316827e-001
3.444241e+003, 1.318880e-001
3.446170e+003, 1.318491e-001
3.448098e+003, 1.311269e-001
3.450027e+003, 1.311083e-001
3.451955e+003, 1.310906e-001
3.453884e+003, 1.310865e-001
3.455812e+003, 1.315237e-001
3.457741e+003, 1.316385e-001
3.459669e+003, 1.320684e-001
3.461598e+003, 1.317632e-001
3.463526e+003, 1.313885e-001
3.465455e+003, 1.316187e-001
3.467383e+003, 1.319402e-001
3.469312e+003, 1.313203e-001
3.471240e+003, 1.305005e-001
3.473168e+003, 1.315244e-001
3.475097e+003, 1.324361e-001
3.477025e+003, 1.324967e-001
3.478954e+003, 1.327298e-001
3.480882e+003, 1.325294e-001
3.482811e+003, 1.318062e-001
3.484739e+003, 1.316918e-001
3.486668e+003, 1.324235e-001
3.488596e+003, 1.334545e-001
3.490525e+003, 1.333499e-001
3.492453e+003, 1.329583e-001
3.494382e+003, 1.332384e-001
3.496310e+003, 1.336805e-001
3.498239e+003, 1.330925e-001
3.500167e+003, 1.328239e-001
3.502095e+003, 1.331198e-001
3.504024e+003, 1.328100e-001
3.505952e+003, 1.330074e-001
3.507881e+003, 1.343316e-001
3.509809e+003, 1.350461e-001
3.511738e+003, 1.345161e-001
3.513666e+003, 1.346268e-001
3.515595e+003, 1.345027e-001
3.517523e+003, 1.345410e-001
3.519452e+003, 1.357744e-001
3.521380e+003, 1.359896e-001
3.523309e+003, 1.358523e-001
3.525237e+003, 1.354956e-001
3.527166e+003, 1.353973e-001
3.529094e+003, 1.355216e-001
3.531022e+003, 1.358168e-001
3.532951e+003, 1.354857e-001
3.534879e+003, 1.352433e-001
3.536808e+003, 1.362305e-001
3.538736e+003, 1.369658e-001
3.540665e+003, 1.362338e-001
3.542593e+003, 1.358142e-001
3.544522e+003, 1.362166e-001
3.546450e+003, 1.366194e-001
3.548379e+003, 1.374656e-001
3.550307e+003, 1.374089e-001
3.552236e+003, 1.371753e-001
3.554164e+003, 1.375466e-001
3.556093e+003, 1.379330e-001
3.558021e+003, 1.377743e-001
3.559949e+003, 1.379237e-001
3.561878e+003, 1.381191e-001
3.563806e+003, 1.384512e-001
3.565735e+003, 1.393119e-001
3.567663e+003, 1.384674e-001
3.569592e+003, 1.372711e-001
3.571520e+003, 1.373074e-001
3.573449e+003, 1.376967e-001
3.575377e+003, 1.395145e-001
3.577306e+003, 1.406168e-001
3.579234e+003, 1.400967e-001
3.581163e+003, 1.403569e-001
3.583091e+003, 1.405906e-001
3.585020e+003, 1.413864e-001
3.586948e+003, 1.416973e-001
3.588876e+003, 1.408880e-001
3.590805e+003, 1.406341e-001
3.592733e+003, 1.413168e-001
3.594662e+003, 1.416120e-001
3.596590e+003, 1.416482e-001
3.598519e+003, 1.420311e-001
3.600447e+003, 1.426081e-001
3.602376e+003, 1.424711e-001
3.604304e+003, 1.419196e-001
3.606233e+003, 1.422763e-001
3.608161e+003, 1.428306e-001
3.610090e+003, 1.430782e-001
3.612018e+003, 1.439794e-001
3.613947e+003, 1.437341e-001
3.615875e+003, 1.431690e-001
3.617803e+003, 1.444199e-001
3.619732e+003, 1.453447e-001
3.621660e+003, 1.445327e-001
3.623589e+003, 1.446590e-001
3.625517e+003, 1.447662e-001
3.627446e+003, 1.450451e-001
3.629374e+003, 1.459558e-001
3.631303e+003, 1.456777e-001
3.633231e+003, 1.446543e-001
3.635160e+003, 1.449781e-001
3.637088e+003, 1.454560e-001
3.639017e+003, 1.453623e-001
3.640945e+003, 1.453690e-001
3.642874e+003, 1.458977e-001
3.644802e+003, 1.470510e-001
3.646730e+003, 1.483870e-001
3.648659e+003, 1.479975e-001
3.650587e+003, 1.478492e-001
3.652516e+003, 1.480425e-001
3.654444e+003, 1.470995e-001
3.656373e+003, 1.469994e-001
3.658301e+003, 1.481814e-001
3.660230e+003, 1.484925e-001
3.662158e+003, 1.482159e-001
3.664087e+003, 1.488570e-001
3.666015e+003, 1.486652e-001
3.667944e+003, 1.488483e-001
3.669872e+003, 1.492476e-001
3.671801e+003, 1.485657e-001
3.673729e+003, 1.479366e-001
3.675657e+003, 1.478422e-001
3.677586e+003, 1.489291e-001
3.679514e+003, 1.487062e-001
3.681443e+003, 1.474305e-001
3.683371e+003, 1.479667e-001
3.685300e+003, 1.491989e-001
3.687228e+003, 1.510329e-001
3.689157e+003, 1.526458e-001
3.691085e+003, 1.522702e-001
3.693014e+003, 1.512483e-001
3.694942e+003, 1.509649e-001
3.696871e+003, 1.511662e-001
3.698799e+003, 1.510170e-001
3.700728e+003, 1.513454e-001
3.702656e+003, 1.511109e-001
3.704584e+003, 1.507544e-001
3.706513e+003, 1.505335e-001
3.708441e+003, 1.517113e-001
3.710370e+003, 1.524248e-001
3.712298e+003, 1.526287e-001
3.714227e+003, 1.527358e-001
3.716155e+003, 1.528371e-001
3.718084e+003, 1.525838e-001
3.720012e+003, 1.532595e-001
3.721941e+003, 1.533432e-001
3.723869e+003, 1.536389e-001
3.725798e+003, 1.528306e-001
3.727726e+003, 1.522124e-001
3.729655e+003, 1.526069e-001
3.731583e+003, 1.541436e-001
3.733511e+003, 1.551601e-001
3.735440e+003, 1.551856e-001
3.737368e+003, 1.548160e-001
3.739297e+003, 1.547925e-001
3.741225e+003, 1.548324e-001
3.743154e+003, 1.560201e-001
3.745082e+003, 1.565814e-001
3.747011e+003, 1.559032e-001
3.748939e+003, 1.567403e-001
3.750868e+003, 1.571418e-001
3.752796e+003, 1.561955e-001
3.754725e+003, 1.548494e-001
3.756653e+003, 1.551312e-001
3.758582e+003, 1.541436e-001
3.760510e+003, 1.529356e-001
3.762438e+003, 1.545490e-001
3.764367e+003, 1.555572e-001
3.766295e+003, 1.555849e-001
3.768224e+003, 1.554212e-001
3.770152e+003, 1.550253e-001
3.772081e+003, 1.547055e-001
3.774009e+003, 1.549132e-001
3.775938e+003, 1.548202e-001
3.777866e+003, 1.564868e-001
3.779795e+003, 1.578705e-001
3.781723e+003, 1.568343e-001
3.783652e+003, 1.565444e-001
3.785580e+003, 1.559305e-001
3.787509e+003, 1.567745e-001
3.789437e+003, 1.577849e-001
3.791365e+003, 1.583498e-001
3.793294e+003, 1.591172e-001
3.795222e+003, 1.578330e-001
3.797151e+003, 1.567768e-001
3.799079e+003, 1.572056e-001
3.801008e+003, 1.593354e-001
3.802936e+003, 1.586192e-001
3.804865e+003, 1.583796e-001
3.806793e+003, 1.600418e-001
3.808722e+003, 1.595902e-001
3.810650e+003, 1.592649e-001
3.812579e+003, 1.592927e-001
3.814507e+003, 1.601193e-001
3.816436e+003, 1.604397e-001
3.818364e+003, 1.605616e-001
3.820292e+003, 1.616063e-001
3.822221e+003, 1.613902e-001
3.824149e+003, 1.600572e-001
3.826078e+003, 1.600318e-001
3.828006e+003, 1.600477e-001
3.829935e+003, 1.607588e-001
3.831863e+003, 1.617922e-001
3.833792e+003, 1.611493e-001
3.835720e+003, 1.603393e-001
3.837649e+003, 1.603367e-001
3.839577e+003, 1.604837e-001
3.841506e+003, 1.610545e-001
3.843434e+003, 1.610113e-001
3.845363e+003, 1.614794e-001
3.847291e+003, 1.618792e-001
3.849219e+003, 1.615690e-001
3.851148e+003, 1.615943e-001
3.853076e+003, 1.624131e-001
3.855005e+003, 1.629314e-001
3.856933e+003, 1.624652e-001
3.858862e+003, 1.625796e-001
3.860790e+003, 1.634318e-001
3.862719e+003, 1.640739e-001
3.864647e+003, 1.637858e-001
3.866576e+003, 1.635600e-001
3.868504e+003, 1.638762e-001
3.870433e+003, 1.641615e-001
3.872361e+003, 1.639898e-001
3.874290e+003, 1.636482e-001
3.876218e+003, 1.632739e-001
3.878146e+003, 1.627660e-001
3.880075e+003, 1.625442e-001
3.882003e+003, 1.631886e-001
3.883932e+003, 1.649391e-001
3.885860e+003, 1.655516e-001
3.887789e+003, 1.644057e-001
3.889717e+003, 1.640701e-001
3.891646e+003, 1.645809e-001
3.893574e+003, 1.647624e-001
3.895503e+003, 1.654319e-001
3.897431e+003, 1.663260e-001
3.899360e+003, 1.666409e-001
3.901288e+003, 1.665575e-001
3.903217e+003, 1.652308e-001
3.905145e+003, 1.650123e-001
3.907073e+003, 1.665712e-001
3.909002e+003, 1.662441e-001
3.910930e+003, 1.657383e-001
3.912859e+003, 1.667662e-001
3.914787e+003, 1.659642e-001
3.916716e+003, 1.654407e-001
3.918644e+003, 1.670011e-001
3.920573e+003, 1.669964e-001
3.922501e+003, 1.657208e-001
3.924430e+003, 1.660420e-001
3.926358e+003, 1.668224e-001
3.928287e+003, 1.667096e-001
3.930215e+003, 1.658789e-001
3.932144e+003, 1.667600e-001
3.934072e+003, 1.676453e-001
3.936000e+003, 1.674315e-001
3.937929e+003, 1.674667e-001
3.939857e+003, 1.679433e-001
3.941786e+003, 1.684409e-001
3.943714e+003, 1.683496e-001
3.945643e+003, 1.671090e-001
3.947571e+003, 1.670854e-001
3.949500e+003, 1.677472e-001
3.951428e+003, 1.688284e-001
3.953357e+003, 1.696165e-001
3.955285e+003, 1.696275e-001
3.957214e+003, 1.691179e-001
3.959142e+003, 1.687371e-001
3.961071e+003, 1.687699e-001
3.962999e+003, 1.696731e-001
3.964927e+003, 1.703508e-001
3.966856e+003, 1.701928e-001
3.968784e+003, 1.693001e-001
3.970713e+003, 1.698399e-001
3.972641e+003, 1.706494e-001
3.974570e+003, 1.704357e-001
3.976498e+003, 1.707477e-001
3.978427e+003, 1.706715e-001
3.980355e+003, 1.701935e-001
3.982284e+003, 1.703912e-001
3.984212e+003, 1.699570e-001
3.986141e+003, 1.708627e-001
3.988069e+003, 1.710914e-001
3.989998e+003, 1.701561e-001
3.991926e+003, 1.708877e-001
3.993854e+003, 1.722496e-001
3.995783e+003, 1.717955e-001
3.997711e+003, 1.727338e-001
3.999640e+003, 1.732896e-001
##END=



