##NAMES=Gormanite
##RRUFFID=R050093
##IDEAL CHEMISTRY=Fe^2+^_3_Al_4_(PO_4_)_4_(OH)_6_&#183;2H_2_O
##LOCALITY=Rapid Creek, Yukon Territory, Canada
##OWNER=RRUFF
##SOURCE=Rock Currier
##DESCRIPTION=Radial aggregates of blue bladed crystals
##STATUS=The identification of this mineral has been confirmed by X-ray diffraction and chemical analysis
##URL=rruff.info/R050093
##MEASURED CHEMISTRY=(Fe^2+^_1.85_Mg_1.09_Mn_0.06_)_Σ=3_(Al_3.76_Fe^3+^_0.24_)_Σ=4_(P_1.00_O_4_)_4_((OH_5.65_F_0.35_)_Σ=6_·2H_2_O ; (light phase) : (Fe^2+^_1.53_Mg_1.42_Mn_0.05_)_Σ=3_(Al_3.89_Fe^3+^_0.11_)_Σ=4_(P_1.00_O_4_)_4_((OH_5.60_F_0.40_)_Σ=6_·2H_2_O (dark phase
3.991926e+002, 0.000000e+000
4.011211e+002, 2.895542e-001
4.030496e+002, 2.910616e-001
4.049780e+002, 2.893349e-001
4.069065e+002, 2.914269e-001
4.088350e+002, 2.994701e-001
4.107634e+002, 3.076093e-001
4.126919e+002, 3.091793e-001
4.146204e+002, 3.120507e-001
4.165488e+002, 3.123383e-001
4.184773e+002, 3.108670e-001
4.204058e+002, 3.185807e-001
4.223342e+002, 3.208895e-001
4.242627e+002, 3.234052e-001
4.261912e+002, 3.204769e-001
4.281196e+002, 3.231658e-001
4.300481e+002, 3.309650e-001
4.319766e+002, 3.288174e-001
4.339050e+002, 3.276053e-001
4.358335e+002, 3.292800e-001
4.377620e+002, 3.282741e-001
4.396904e+002, 3.237213e-001
4.416189e+002, 3.235979e-001
4.435474e+002, 3.212498e-001
4.454758e+002, 3.151934e-001
4.474043e+002, 3.091148e-001
4.493328e+002, 3.043050e-001
4.512612e+002, 3.029454e-001
4.531897e+002, 2.997724e-001
4.551182e+002, 2.938584e-001
4.570466e+002, 2.875213e-001
4.589751e+002, 2.807317e-001
4.609036e+002, 2.715135e-001
4.628320e+002, 2.626052e-001
4.647605e+002, 2.540923e-001
4.666890e+002, 2.448395e-001
4.686174e+002, 2.358122e-001
4.705459e+002, 2.277089e-001
4.724744e+002, 2.205449e-001
4.744028e+002, 2.146010e-001
4.763313e+002, 2.116309e-001
4.782598e+002, 2.112997e-001
4.801882e+002, 2.127197e-001
4.821167e+002, 2.156181e-001
4.840452e+002, 2.181856e-001
4.859736e+002, 2.182240e-001
4.879021e+002, 2.178968e-001
4.898306e+002, 2.169349e-001
4.917590e+002, 2.145455e-001
4.936875e+002, 2.125428e-001
4.956160e+002, 2.103799e-001
4.975444e+002, 2.071257e-001
4.994729e+002, 2.046493e-001
5.014014e+002, 2.037812e-001
5.033298e+002, 2.039724e-001
5.052583e+002, 2.039701e-001
5.071868e+002, 2.048706e-001
5.091152e+002, 2.074497e-001
5.110437e+002, 2.119687e-001
5.129722e+002, 2.169024e-001
5.149006e+002, 2.208754e-001
5.168291e+002, 2.247451e-001
5.187576e+002, 2.281480e-001
5.206860e+002, 2.299027e-001
5.226145e+002, 2.333167e-001
5.245430e+002, 2.379444e-001
5.264714e+002, 2.423526e-001
5.283999e+002, 2.467079e-001
5.303284e+002, 2.522098e-001
5.322568e+002, 2.581873e-001
5.341853e+002, 2.646653e-001
5.361138e+002, 2.702608e-001
5.380422e+002, 2.768271e-001
5.399707e+002, 2.846706e-001
5.418992e+002, 2.918878e-001
5.438276e+002, 2.962590e-001
5.457561e+002, 2.995815e-001
5.476846e+002, 3.026088e-001
5.496130e+002, 3.042549e-001
5.515415e+002, 3.046532e-001
5.534700e+002, 3.043810e-001
5.553984e+002, 3.034841e-001
5.573269e+002, 3.018774e-001
5.592554e+002, 3.013123e-001
5.611838e+002, 3.009633e-001
5.631123e+002, 3.024737e-001
5.650408e+002, 3.035083e-001
5.669692e+002, 3.035817e-001
5.688977e+002, 3.023819e-001
5.708262e+002, 3.010381e-001
5.727546e+002, 2.994654e-001
5.746831e+002, 2.969491e-001
5.766116e+002, 2.932279e-001
5.785400e+002, 2.895019e-001
5.804685e+002, 2.855754e-001
5.823970e+002, 2.824611e-001
5.843254e+002, 2.801836e-001
5.862539e+002, 2.781270e-001
5.881824e+002, 2.774149e-001
5.901108e+002, 2.776878e-001
5.920393e+002, 2.780260e-001
5.939678e+002, 2.786614e-001
5.958962e+002, 2.794351e-001
5.978247e+002, 2.799242e-001
5.997532e+002, 2.809295e-001
6.016816e+002, 2.827690e-001
6.036101e+002, 2.841413e-001
6.055386e+002, 2.854816e-001
6.074670e+002, 2.880425e-001
6.093955e+002, 2.898015e-001
6.113240e+002, 2.902818e-001
6.132524e+002, 2.896450e-001
6.151809e+002, 2.884854e-001
6.171094e+002, 2.867749e-001
6.190378e+002, 2.841279e-001
6.209663e+002, 2.803070e-001
6.228948e+002, 2.764387e-001
6.248232e+002, 2.731375e-001
6.267517e+002, 2.706087e-001
6.286802e+002, 2.690273e-001
6.306086e+002, 2.682434e-001
6.325371e+002, 2.686076e-001
6.344656e+002, 2.683937e-001
6.363940e+002, 2.672059e-001
6.383225e+002, 2.653859e-001
6.402510e+002, 2.619827e-001
6.421794e+002, 2.582052e-001
6.441079e+002, 2.540593e-001
6.460364e+002, 2.489781e-001
6.479648e+002, 2.439499e-001
6.498933e+002, 2.387483e-001
6.518218e+002, 2.334540e-001
6.537502e+002, 2.282571e-001
6.556787e+002, 2.232102e-001
6.576072e+002, 2.181466e-001
6.595356e+002, 2.132108e-001
6.614641e+002, 2.086903e-001
6.633926e+002, 2.048156e-001
6.653210e+002, 2.011259e-001
6.672495e+002, 1.981187e-001
6.691780e+002, 1.956895e-001
6.711064e+002, 1.934578e-001
6.730349e+002, 1.917253e-001
6.749634e+002, 1.899892e-001
6.768918e+002, 1.879550e-001
6.788203e+002, 1.857557e-001
6.807488e+002, 1.836214e-001
6.826772e+002, 1.814457e-001
6.846057e+002, 1.790723e-001
6.865342e+002, 1.767964e-001
6.884626e+002, 1.750829e-001
6.903911e+002, 1.736786e-001
6.923196e+002, 1.724065e-001
6.942480e+002, 1.714606e-001
6.961765e+002, 1.704108e-001
6.981050e+002, 1.694359e-001
7.000334e+002, 1.686734e-001
7.019619e+002, 1.681366e-001
7.038904e+002, 1.676724e-001
7.058188e+002, 1.671282e-001
7.077473e+002, 1.669654e-001
7.096758e+002, 1.670090e-001
7.116042e+002, 1.666193e-001
7.135327e+002, 1.662021e-001
7.154612e+002, 1.657826e-001
7.173896e+002, 1.655977e-001
7.193181e+002, 1.654876e-001
7.212466e+002, 1.654000e-001
7.231750e+002, 1.650779e-001
7.251035e+002, 1.644153e-001
7.270320e+002, 1.636779e-001
7.289604e+002, 1.628728e-001
7.308889e+002, 1.618497e-001
7.328174e+002, 1.609244e-001
7.347458e+002, 1.605245e-001
7.366743e+002, 1.600092e-001
7.386028e+002, 1.589722e-001
7.405313e+002, 1.581280e-001
7.424597e+002, 1.575118e-001
7.443882e+002, 1.565370e-001
7.463167e+002, 1.550781e-001
7.482451e+002, 1.536806e-001
7.501736e+002, 1.525226e-001
7.521021e+002, 1.507823e-001
7.540305e+002, 1.485864e-001
7.559590e+002, 1.464860e-001
7.578875e+002, 1.442004e-001
7.598159e+002, 1.419293e-001
7.617444e+002, 1.395348e-001
7.636729e+002, 1.368782e-001
7.656013e+002, 1.344857e-001
7.675298e+002, 1.324238e-001
7.694583e+002, 1.305910e-001
7.713867e+002, 1.287584e-001
7.733152e+002, 1.270410e-001
7.752437e+002, 1.254949e-001
7.771721e+002, 1.241737e-001
7.791006e+002, 1.232657e-001
7.810291e+002, 1.224508e-001
7.829575e+002, 1.215020e-001
7.848860e+002, 1.210619e-001
7.868145e+002, 1.205664e-001
7.887429e+002, 1.199886e-001
7.906714e+002, 1.198072e-001
7.925999e+002, 1.195519e-001
7.945283e+002, 1.191474e-001
7.964568e+002, 1.187797e-001
7.983853e+002, 1.186991e-001
8.003137e+002, 1.186299e-001
8.022422e+002, 1.185720e-001
8.041707e+002, 1.184983e-001
8.060991e+002, 1.186127e-001
8.080276e+002, 1.187231e-001
8.099561e+002, 1.187115e-001
8.118845e+002, 1.189173e-001
8.138130e+002, 1.189686e-001
8.157415e+002, 1.187612e-001
8.176699e+002, 1.185201e-001
8.195984e+002, 1.184807e-001
8.215269e+002, 1.184840e-001
8.234553e+002, 1.181761e-001
8.253838e+002, 1.171984e-001
8.273123e+002, 1.158220e-001
8.292407e+002, 1.146474e-001
8.311692e+002, 1.131123e-001
8.330977e+002, 1.111078e-001
8.350261e+002, 1.089820e-001
8.369546e+002, 1.066522e-001
8.388831e+002, 1.042215e-001
8.408115e+002, 1.015593e-001
8.427400e+002, 9.908818e-002
8.446685e+002, 9.668354e-002
8.465969e+002, 9.452963e-002
8.485254e+002, 9.234225e-002
8.504539e+002, 9.024243e-002
8.523823e+002, 8.850586e-002
8.543108e+002, 8.681937e-002
8.562393e+002, 8.503067e-002
8.581677e+002, 8.345538e-002
8.600962e+002, 8.198349e-002
8.620247e+002, 8.033305e-002
8.639531e+002, 7.891800e-002
8.658816e+002, 7.784338e-002
8.678101e+002, 7.682449e-002
8.697385e+002, 7.567134e-002
8.716670e+002, 7.463016e-002
8.735955e+002, 7.381459e-002
8.755239e+002, 7.312608e-002
8.774524e+002, 7.255442e-002
8.793809e+002, 7.228432e-002
8.813093e+002, 7.211085e-002
8.832378e+002, 7.200629e-002
8.851663e+002, 7.234182e-002
8.870947e+002, 7.290737e-002
8.890232e+002, 7.377433e-002
8.909517e+002, 7.498088e-002
8.928801e+002, 7.614782e-002
8.948085e+002, 7.736411e-002
8.967370e+002, 7.900546e-002
8.986655e+002, 8.074410e-002
9.005939e+002, 8.263607e-002
9.025224e+002, 8.495720e-002
9.044509e+002, 8.724071e-002
9.063793e+002, 8.953019e-002
9.083078e+002, 9.216850e-002
9.102363e+002, 9.502915e-002
9.121647e+002, 9.817421e-002
9.140932e+002, 1.012535e-001
9.160217e+002, 1.043565e-001
9.179501e+002, 1.074484e-001
9.198786e+002, 1.106283e-001
9.218071e+002, 1.139346e-001
9.237355e+002, 1.171954e-001
9.256640e+002, 1.202387e-001
9.275925e+002, 1.231500e-001
9.295209e+002, 1.259682e-001
9.314494e+002, 1.285534e-001
9.333779e+002, 1.311682e-001
9.353063e+002, 1.335809e-001
9.372348e+002, 1.360427e-001
9.391633e+002, 1.387029e-001
9.410917e+002, 1.414249e-001
9.430202e+002, 1.440688e-001
9.449487e+002, 1.468425e-001
9.468771e+002, 1.501128e-001
9.488056e+002, 1.535532e-001
9.507341e+002, 1.571249e-001
9.526625e+002, 1.614426e-001
9.545910e+002, 1.662196e-001
9.565195e+002, 1.711044e-001
9.584479e+002, 1.761111e-001
9.603764e+002, 1.814884e-001
9.623049e+002, 1.871519e-001
9.642333e+002, 1.929692e-001
9.661618e+002, 1.989433e-001
9.680903e+002, 2.049617e-001
9.700187e+002, 2.104822e-001
9.719472e+002, 2.156876e-001
9.738757e+002, 2.203150e-001
9.758041e+002, 2.242317e-001
9.777326e+002, 2.273411e-001
9.796611e+002, 2.298293e-001
9.815895e+002, 2.314850e-001
9.835180e+002, 2.323612e-001
9.854465e+002, 2.329274e-001
9.873749e+002, 2.334461e-001
9.893034e+002, 2.334043e-001
9.912319e+002, 2.331727e-001
9.931603e+002, 2.328827e-001
9.950888e+002, 2.325716e-001
9.970173e+002, 2.322751e-001
9.989457e+002, 2.321059e-001
1.000874e+003, 2.315186e-001
1.002803e+003, 2.304500e-001
1.004731e+003, 2.290558e-001
1.006660e+003, 2.267996e-001
1.008588e+003, 2.237653e-001
1.010517e+003, 2.200682e-001
1.012445e+003, 2.161131e-001
1.014373e+003, 2.124960e-001
1.016302e+003, 2.093229e-001
1.018230e+003, 2.062233e-001
1.020159e+003, 2.035643e-001
1.022087e+003, 2.011558e-001
1.024016e+003, 1.988041e-001
1.025944e+003, 1.965641e-001
1.027873e+003, 1.949468e-001
1.029801e+003, 1.940100e-001
1.031730e+003, 1.944221e-001
1.033658e+003, 1.960462e-001
1.035587e+003, 1.982479e-001
1.037515e+003, 2.001807e-001
1.039444e+003, 2.010763e-001
1.041372e+003, 2.012386e-001
1.043301e+003, 2.011183e-001
1.045229e+003, 2.015876e-001
1.047157e+003, 2.031251e-001
1.049086e+003, 2.058208e-001
1.051014e+003, 2.097235e-001
1.052943e+003, 2.150180e-001
1.054871e+003, 2.212220e-001
1.056800e+003, 2.276985e-001
1.058728e+003, 2.337409e-001
1.060657e+003, 2.388192e-001
1.062585e+003, 2.427753e-001
1.064514e+003, 2.452322e-001
1.066442e+003, 2.461761e-001
1.068371e+003, 2.452616e-001
1.070299e+003, 2.427260e-001
1.072228e+003, 2.390906e-001
1.074156e+003, 2.350013e-001
1.076084e+003, 2.308084e-001
1.078013e+003, 2.267455e-001
1.079941e+003, 2.226257e-001
1.081870e+003, 2.189175e-001
1.083798e+003, 2.156187e-001
1.085727e+003, 2.124438e-001
1.087655e+003, 2.095307e-001
1.089584e+003, 2.070863e-001
1.091512e+003, 2.047335e-001
1.093441e+003, 2.023889e-001
1.095369e+003, 1.997977e-001
1.097298e+003, 1.973020e-001
1.099226e+003, 1.946409e-001
1.101155e+003, 1.917422e-001
1.103083e+003, 1.886854e-001
1.105011e+003, 1.855869e-001
1.106940e+003, 1.823401e-001
1.108868e+003, 1.787945e-001
1.110797e+003, 1.747493e-001
1.112725e+003, 1.706998e-001
1.114654e+003, 1.660578e-001
1.116582e+003, 1.609953e-001
1.118511e+003, 1.557309e-001
1.120439e+003, 1.502005e-001
1.122368e+003, 1.445682e-001
1.124296e+003, 1.392979e-001
1.126225e+003, 1.342768e-001
1.128153e+003, 1.294307e-001
1.130082e+003, 1.250592e-001
1.132010e+003, 1.212394e-001
1.133938e+003, 1.175096e-001
1.135867e+003, 1.137743e-001
1.137795e+003, 1.103923e-001
1.139724e+003, 1.069595e-001
1.141652e+003, 1.030307e-001
1.143581e+003, 9.885728e-002
1.145509e+003, 9.467115e-002
1.147438e+003, 9.033470e-002
1.149366e+003, 8.629344e-002
1.151295e+003, 8.248280e-002
1.153223e+003, 7.882344e-002
1.155152e+003, 7.590698e-002
1.157080e+003, 7.350121e-002
1.159009e+003, 7.157160e-002
1.160937e+003, 7.011935e-002
1.162865e+003, 6.904088e-002
1.164794e+003, 6.825322e-002
1.166722e+003, 6.802957e-002
1.168651e+003, 6.793967e-002
1.170579e+003, 6.806102e-002
1.172508e+003, 6.825876e-002
1.174436e+003, 6.863796e-002
1.176365e+003, 6.913700e-002
1.178293e+003, 6.951699e-002
1.180222e+003, 7.011026e-002
1.182150e+003, 7.081062e-002
1.184079e+003, 7.145966e-002
1.186007e+003, 7.211445e-002
1.187936e+003, 7.296751e-002
1.189864e+003, 7.378031e-002
1.191792e+003, 7.446299e-002
1.193721e+003, 7.486846e-002
1.195649e+003, 7.528516e-002
1.197578e+003, 7.581060e-002
1.199506e+003, 7.632917e-002
1.201435e+003, 7.659758e-002
1.203363e+003, 7.665583e-002
1.205292e+003, 7.651895e-002
1.207220e+003, 7.616220e-002
1.209149e+003, 7.582542e-002
1.211077e+003, 7.516193e-002
1.213006e+003, 7.415852e-002
1.214934e+003, 7.284273e-002
1.216863e+003, 7.105520e-002
1.218791e+003, 6.906307e-002
1.220719e+003, 6.668085e-002
1.222648e+003, 6.372449e-002
1.224576e+003, 6.022470e-002
1.226505e+003, 5.641011e-002
1.228433e+003, 5.261746e-002
1.230362e+003, 4.833163e-002
1.232290e+003, 4.372280e-002
1.234219e+003, 3.946489e-002
1.236147e+003, 3.554104e-002
1.238076e+003, 3.164330e-002
1.240004e+003, 2.807637e-002
1.241933e+003, 2.500492e-002
1.243861e+003, 2.265768e-002
1.245790e+003, 2.097128e-002
1.247718e+003, 1.959511e-002
1.249646e+003, 1.849620e-002
1.251575e+003, 1.769714e-002
1.253503e+003, 1.730848e-002
1.255432e+003, 1.721761e-002
1.257360e+003, 1.718038e-002
1.259289e+003, 1.719956e-002
1.261217e+003, 1.745570e-002
1.263146e+003, 1.768125e-002
1.265074e+003, 1.768957e-002
1.267003e+003, 1.775671e-002
1.268931e+003, 1.804373e-002
1.270860e+003, 1.819363e-002
1.272788e+003, 1.828327e-002
1.274717e+003, 1.854559e-002
1.276645e+003, 1.848830e-002
1.278573e+003, 1.847643e-002
1.280502e+003, 1.866934e-002
1.282430e+003, 1.865965e-002
1.284359e+003, 1.849673e-002
1.286287e+003, 1.829227e-002
1.288216e+003, 1.822010e-002
1.290144e+003, 1.823527e-002
1.292073e+003, 1.837140e-002
1.294001e+003, 1.826687e-002
1.295930e+003, 1.806916e-002
1.297858e+003, 1.813169e-002
1.299787e+003, 1.804888e-002
1.301715e+003, 1.796971e-002
1.303644e+003, 1.805511e-002
1.305572e+003, 1.814153e-002
1.307500e+003, 1.825559e-002
1.309429e+003, 1.819580e-002
1.311357e+003, 1.819010e-002
1.313286e+003, 1.841183e-002
1.315214e+003, 1.840254e-002
1.317143e+003, 1.832821e-002
1.319071e+003, 1.853907e-002
1.321000e+003, 1.864298e-002
1.322928e+003, 1.865837e-002
1.324857e+003, 1.877619e-002
1.326785e+003, 1.885557e-002
1.328714e+003, 1.885093e-002
1.330642e+003, 1.898717e-002
1.332571e+003, 1.917842e-002
1.334499e+003, 1.913491e-002
1.336427e+003, 1.897599e-002
1.338356e+003, 1.919158e-002
1.340284e+003, 1.949576e-002
1.342213e+003, 1.966215e-002
1.344141e+003, 1.978718e-002
1.346070e+003, 1.974194e-002
1.347998e+003, 1.966906e-002
1.349927e+003, 1.975129e-002
1.351855e+003, 1.996270e-002
1.353784e+003, 2.010109e-002
1.355712e+003, 2.021193e-002
1.357641e+003, 2.024965e-002
1.359569e+003, 2.020714e-002
1.361498e+003, 2.043040e-002
1.363426e+003, 2.064273e-002
1.365354e+003, 2.063968e-002
1.367283e+003, 2.062542e-002
1.369211e+003, 2.088753e-002
1.371140e+003, 2.120472e-002
1.373068e+003, 2.131485e-002
1.374997e+003, 2.149303e-002
1.376925e+003, 2.159602e-002
1.378854e+003, 2.137643e-002
1.380782e+003, 2.112901e-002
1.382711e+003, 2.102056e-002
1.384639e+003, 2.099418e-002
1.386568e+003, 2.099950e-002
1.388496e+003, 2.082847e-002
1.390424e+003, 2.091419e-002
1.392353e+003, 2.095109e-002
1.394281e+003, 2.093263e-002
1.396210e+003, 2.085993e-002
1.398138e+003, 2.111364e-002
1.400067e+003, 2.122873e-002
1.401995e+003, 2.131668e-002
1.403924e+003, 2.138272e-002
1.405852e+003, 2.150105e-002
1.407781e+003, 2.151542e-002
1.409709e+003, 2.131851e-002
1.411638e+003, 2.146252e-002
1.413566e+003, 2.157375e-002
1.415495e+003, 2.151243e-002
1.417423e+003, 2.148850e-002
1.419351e+003, 2.133691e-002
1.421280e+003, 2.140441e-002
1.423208e+003, 2.133851e-002
1.425137e+003, 2.134010e-002
1.427065e+003, 2.158293e-002
1.428994e+003, 2.153073e-002
1.430922e+003, 2.134883e-002
1.432851e+003, 2.141932e-002
1.434779e+003, 2.155160e-002
1.436708e+003, 2.156011e-002
1.438636e+003, 2.148800e-002
1.440565e+003, 2.132316e-002
1.442493e+003, 2.119548e-002
1.444422e+003, 2.120301e-002
1.446350e+003, 2.115157e-002
1.448278e+003, 2.111116e-002
1.450207e+003, 2.123312e-002
1.452135e+003, 2.122972e-002
1.454064e+003, 2.131549e-002
1.455992e+003, 2.134391e-002
1.457921e+003, 2.079074e-002
1.459849e+003, 2.095198e-002
1.461778e+003, 2.110972e-002
1.463706e+003, 2.118001e-002
1.465635e+003, 2.075427e-002
1.467563e+003, 2.064668e-002
1.469492e+003, 2.045113e-002
1.471420e+003, 2.042612e-002
1.473349e+003, 2.016801e-002
1.475277e+003, 2.017490e-002
1.477205e+003, 1.998927e-002
1.479134e+003, 2.013941e-002
1.481062e+003, 2.017584e-002
1.482991e+003, 2.012573e-002
1.484919e+003, 2.003161e-002
1.486848e+003, 1.998550e-002
1.488776e+003, 1.986645e-002
1.490705e+003, 1.976014e-002
1.492633e+003, 2.011813e-002
1.494562e+003, 2.031835e-002
1.496490e+003, 2.003491e-002
1.498419e+003, 2.005619e-002
1.500347e+003, 1.997097e-002
1.502276e+003, 1.992866e-002
1.504204e+003, 2.010773e-002
1.506132e+003, 2.012253e-002
1.508061e+003, 1.983587e-002
1.509989e+003, 1.995529e-002
1.511918e+003, 2.003068e-002
1.513846e+003, 1.986557e-002
1.515775e+003, 1.983425e-002
1.517703e+003, 1.965218e-002
1.519632e+003, 1.994361e-002
1.521560e+003, 1.970953e-002
1.523489e+003, 1.991973e-002
1.525417e+003, 2.004631e-002
1.527346e+003, 1.983067e-002
1.529274e+003, 1.982437e-002
1.531203e+003, 2.014475e-002
1.533131e+003, 2.020958e-002
1.535059e+003, 2.006126e-002
1.536988e+003, 2.058745e-002
1.538916e+003, 2.069126e-002
1.540845e+003, 2.009133e-002
1.542773e+003, 2.006225e-002
1.544702e+003, 2.062614e-002
1.546630e+003, 2.076836e-002
1.548559e+003, 2.105966e-002
1.550487e+003, 2.109533e-002
1.552416e+003, 2.135026e-002
1.554344e+003, 2.121419e-002
1.556273e+003, 2.147976e-002
1.558201e+003, 2.166745e-002
1.560130e+003, 2.143675e-002
1.562058e+003, 2.197347e-002
1.563986e+003, 2.241411e-002
1.565915e+003, 2.249087e-002
1.567843e+003, 2.273335e-002
1.569772e+003, 2.251760e-002
1.571700e+003, 2.265024e-002
1.573629e+003, 2.297958e-002
1.575557e+003, 2.314146e-002
1.577486e+003, 2.300135e-002
1.579414e+003, 2.355980e-002
1.581343e+003, 2.351787e-002
1.583271e+003, 2.336313e-002
1.585200e+003, 2.369559e-002
1.587128e+003, 2.416275e-002
1.589057e+003, 2.449255e-002
1.590985e+003, 2.465439e-002
1.592913e+003, 2.479728e-002
1.594842e+003, 2.486115e-002
1.596770e+003, 2.506778e-002
1.598699e+003, 2.547612e-002
1.600627e+003, 2.564713e-002
1.602556e+003, 2.555114e-002
1.604484e+003, 2.579322e-002
1.606413e+003, 2.603306e-002
1.608341e+003, 2.597689e-002
1.610270e+003, 2.599068e-002
1.612198e+003, 2.592556e-002
1.614127e+003, 2.599261e-002
1.616055e+003, 2.592739e-002
1.617984e+003, 2.512726e-002
1.619912e+003, 2.514593e-002
1.621840e+003, 2.501168e-002
1.623769e+003, 2.461989e-002
1.625697e+003, 2.443482e-002
1.627626e+003, 2.415091e-002
1.629554e+003, 2.381927e-002
1.631483e+003, 2.380191e-002
1.633411e+003, 2.379789e-002
1.635340e+003, 2.336528e-002
1.637268e+003, 2.280008e-002
1.639197e+003, 2.252678e-002
1.641125e+003, 2.223683e-002
1.643054e+003, 2.192767e-002
1.644982e+003, 2.172782e-002
1.646911e+003, 2.120819e-002
1.648839e+003, 2.105907e-002
1.650767e+003, 2.099220e-002
1.652696e+003, 2.047874e-002
1.654624e+003, 1.981595e-002
1.656553e+003, 1.989551e-002
1.658481e+003, 1.955429e-002
1.660410e+003, 1.954071e-002
1.662338e+003, 1.952259e-002
1.664267e+003, 1.906989e-002
1.666195e+003, 1.874685e-002
1.668124e+003, 1.854337e-002
1.670052e+003, 1.805871e-002
1.671981e+003, 1.804518e-002
1.673909e+003, 1.818582e-002
1.675838e+003, 1.776008e-002
1.677766e+003, 1.781133e-002
1.679694e+003, 1.758698e-002
1.681623e+003, 1.735123e-002
1.683551e+003, 1.717773e-002
1.685480e+003, 1.633498e-002
1.687408e+003, 1.655680e-002
1.689337e+003, 1.642754e-002
1.691265e+003, 1.621850e-002
1.693194e+003, 1.619081e-002
1.695122e+003, 1.645251e-002
1.697051e+003, 1.599224e-002
1.698979e+003, 1.632733e-002
1.700908e+003, 1.515234e-002
1.702836e+003, 1.545281e-002
1.704765e+003, 1.551317e-002
1.706693e+003, 1.539633e-002
1.708621e+003, 1.521299e-002
1.710550e+003, 1.480621e-002
1.712478e+003, 1.474383e-002
1.714407e+003, 1.483994e-002
1.716335e+003, 1.501113e-002
1.718264e+003, 1.460767e-002
1.720192e+003, 1.428395e-002
1.722121e+003, 1.411186e-002
1.724049e+003, 1.409324e-002
1.725978e+003, 1.412885e-002
1.727906e+003, 1.399749e-002
1.729835e+003, 1.377067e-002
1.731763e+003, 1.351517e-002
1.733692e+003, 1.308114e-002
1.735620e+003, 1.264256e-002
1.737548e+003, 1.270464e-002
1.739477e+003, 1.224205e-002
1.741405e+003, 1.202854e-002
1.743334e+003, 1.207713e-002
1.745262e+003, 1.172193e-002
1.747191e+003, 1.176870e-002
1.749119e+003, 1.186775e-002
1.751048e+003, 1.207177e-002
1.752976e+003, 1.213435e-002
1.754905e+003, 1.224006e-002
1.756833e+003, 1.220780e-002
1.758762e+003, 1.234946e-002
1.760690e+003, 1.259131e-002
1.762619e+003, 1.225712e-002
1.764547e+003, 1.245058e-002
1.766475e+003, 1.253331e-002
1.768404e+003, 1.232481e-002
1.770332e+003, 1.247915e-002
1.772261e+003, 1.242684e-002
1.774189e+003, 1.249903e-002
1.776118e+003, 1.241097e-002
1.778046e+003, 1.202780e-002
1.779975e+003, 1.230957e-002
1.781903e+003, 1.251639e-002
1.783832e+003, 1.225401e-002
1.785760e+003, 1.203430e-002
1.787689e+003, 1.222507e-002
1.789617e+003, 1.222759e-002
1.791546e+003, 1.223243e-002
1.793474e+003, 1.186494e-002
1.795402e+003, 1.168409e-002
1.797331e+003, 1.168930e-002
1.799259e+003, 1.185408e-002
1.801188e+003, 1.169823e-002
1.803116e+003, 1.173239e-002
1.805045e+003, 1.193595e-002
1.806973e+003, 1.195935e-002
1.808902e+003, 1.164699e-002
1.810830e+003, 1.131311e-002
1.812759e+003, 1.146150e-002
1.814687e+003, 1.134640e-002
1.816616e+003, 1.132944e-002
1.818544e+003, 1.170200e-002
1.820473e+003, 1.185075e-002
1.822401e+003, 1.136165e-002
1.824329e+003, 1.075733e-002
1.826258e+003, 1.067848e-002
1.828186e+003, 1.126748e-002
1.830115e+003, 1.140533e-002
1.832043e+003, 1.162109e-002
1.833972e+003, 1.180776e-002
1.835900e+003, 1.185097e-002
1.837829e+003, 1.136244e-002
1.839757e+003, 1.088919e-002
1.841686e+003, 1.110799e-002
1.843614e+003, 1.131823e-002
1.845543e+003, 1.086373e-002
1.847471e+003, 1.099679e-002
1.849400e+003, 1.111617e-002
1.851328e+003, 1.103765e-002
1.853256e+003, 1.101257e-002
1.855185e+003, 1.103843e-002
1.857113e+003, 1.068535e-002
1.859042e+003, 1.011497e-002
1.860970e+003, 1.019831e-002
1.862899e+003, 1.055865e-002
1.864827e+003, 1.067933e-002
1.866756e+003, 1.079057e-002
1.868684e+003, 1.089400e-002
1.870613e+003, 1.065089e-002
1.872541e+003, 1.074853e-002
1.874470e+003, 1.042613e-002
1.876398e+003, 1.024478e-002
1.878327e+003, 9.855814e-003
1.880255e+003, 9.999661e-003
1.882183e+003, 1.022396e-002
1.884112e+003, 9.848284e-003
1.886040e+003, 9.406020e-003
1.887969e+003, 9.301580e-003
1.889897e+003, 9.362985e-003
1.891826e+003, 9.140050e-003
1.893754e+003, 9.071374e-003
1.895683e+003, 9.571128e-003
1.897611e+003, 9.307448e-003
1.899540e+003, 9.150626e-003
1.901468e+003, 9.360846e-003
1.903397e+003, 9.393142e-003
1.905325e+003, 9.325068e-003
1.907254e+003, 9.173819e-003
1.909182e+003, 9.131427e-003
1.911110e+003, 8.915829e-003
1.913039e+003, 8.610602e-003
1.914967e+003, 9.051733e-003
1.916896e+003, 9.480031e-003
1.918824e+003, 9.172195e-003
1.920753e+003, 8.909718e-003
1.922681e+003, 8.556345e-003
1.924610e+003, 8.389179e-003
1.926538e+003, 8.735335e-003
1.928467e+003, 8.471188e-003
1.930395e+003, 8.558735e-003
1.932324e+003, 8.451740e-003
1.934252e+003, 7.322442e-003
1.936181e+003, 7.095812e-003
1.938109e+003, 7.362938e-003
1.940037e+003, 7.262270e-003
1.941966e+003, 7.133142e-003
1.943894e+003, 6.399666e-003
1.945823e+003, 5.522415e-003
1.947751e+003, 5.395081e-003
1.949680e+003, 6.493609e-003
1.951608e+003, 6.568355e-003
1.953537e+003, 6.218422e-003
1.955465e+003, 5.966688e-003
1.957394e+003, 6.008440e-003
1.959322e+003, 5.140322e-003
1.961251e+003, 4.385720e-003
1.963179e+003, 3.566179e-003
1.965108e+003, 3.125160e-003
1.967036e+003, 3.908634e-003
1.968964e+003, 4.786083e-003
1.970893e+003, 3.965884e-003
1.972821e+003, 3.199627e-003
1.974750e+003, 3.049541e-003
1.976678e+003, 2.243383e-003
1.978607e+003, 4.421744e-003
1.980535e+003, 5.857466e-003
1.982464e+003, 5.806945e-003
1.984392e+003, 5.259027e-003
1.986321e+003, 4.348511e-003
1.988249e+003, 4.446649e-003
1.990178e+003, 5.382567e-003
1.992106e+003, 5.844322e-003
1.994035e+003, 4.576160e-003
1.995963e+003, 3.021037e-003
1.997891e+003, 2.015588e-003
1.999820e+003, 1.891347e-003
2.001748e+003, 3.110519e-003
2.003677e+003, 3.525730e-003
2.005605e+003, 2.692238e-003
2.007534e+003, 3.848289e-003
2.009462e+003, 4.042090e-003
2.011391e+003, 3.281367e-003
2.013319e+003, 2.519001e-003
2.015248e+003, 1.984826e-003
2.017176e+003, 2.253511e-003
2.019105e+003, 1.842838e-003
2.021033e+003, 2.291878e-003
2.022962e+003, 3.472094e-003
2.024890e+003, 4.993743e-003
2.026818e+003, 4.326972e-003
2.028747e+003, 3.855839e-003
2.030675e+003, 2.483662e-003
2.032604e+003, 2.650847e-003
2.034532e+003, 3.688467e-003
2.036461e+003, 3.327375e-003
2.038389e+003, 5.052398e-003
2.040318e+003, 5.726438e-003
2.042246e+003, 3.910309e-003
2.044175e+003, 4.604177e-003
2.046103e+003, 6.046830e-003
2.048032e+003, 6.160112e-003
2.049960e+003, 6.823859e-003
2.051889e+003, 6.644313e-003
2.053817e+003, 6.106699e-003
2.055746e+003, 6.332623e-003
2.057674e+003, 6.852346e-003
2.059603e+003, 7.045709e-003
2.061531e+003, 7.739977e-003
2.063459e+003, 7.228439e-003
2.065388e+003, 6.069569e-003
2.067316e+003, 6.154984e-003
2.069245e+003, 5.981511e-003
2.071173e+003, 7.238601e-003
2.073102e+003, 7.085664e-003
2.075030e+003, 6.800562e-003
2.076959e+003, 7.795633e-003
2.078887e+003, 8.000001e-003
2.080816e+003, 7.219364e-003
2.082744e+003, 7.039513e-003
2.084673e+003, 6.730913e-003
2.086601e+003, 7.066436e-003
2.088530e+003, 7.303930e-003
2.090458e+003, 7.764808e-003
2.092386e+003, 7.333138e-003
2.094315e+003, 7.223788e-003
2.096243e+003, 7.255611e-003
2.098172e+003, 6.050874e-003
2.100100e+003, 5.757994e-003
2.102029e+003, 7.037324e-003
2.103957e+003, 7.943574e-003
2.105886e+003, 7.514000e-003
2.107814e+003, 6.911477e-003
2.109743e+003, 7.321179e-003
2.111671e+003, 7.605050e-003
2.113600e+003, 7.942543e-003
2.115528e+003, 7.385519e-003
2.117457e+003, 6.246695e-003
2.119385e+003, 4.466526e-003
2.121313e+003, 4.339720e-003
2.123242e+003, 4.752735e-003
2.125170e+003, 4.224180e-003
2.127099e+003, 3.676615e-003
2.129027e+003, 3.017464e-003
2.130956e+003, 2.353191e-003
2.132884e+003, 1.798330e-003
2.134813e+003, 1.320510e-003
2.136741e+003, 6.214672e-004
2.138670e+003, 1.239512e-003
2.140598e+003, 2.132026e-003
2.142527e+003, 1.625203e-003
2.144455e+003, 1.230825e-003
2.146384e+003, -6.769339e-005
2.148312e+003, -5.908749e-004
2.150240e+003, -1.306984e-003
2.152169e+003, -1.515110e-003
2.154097e+003, -2.022315e-003
2.156026e+003, -5.224733e-003
2.157954e+003, -4.047373e-003
2.159883e+003, 9.666586e-004
2.161811e+003, 1.895816e-003
2.163740e+003, 4.413880e-004
2.165668e+003, 7.876841e-004
2.167597e+003, 2.812614e-003
2.169525e+003, 2.906885e-003
2.171454e+003, 2.724178e-003
2.173382e+003, 1.229873e-003
2.175311e+003, 1.017457e-004
2.177239e+003, 1.505453e-003
2.179167e+003, 1.988388e-003
2.181096e+003, 1.787316e-003
2.183024e+003, 2.344539e-003
2.184953e+003, 3.427832e-003
2.186881e+003, 4.232910e-003
2.188810e+003, 4.230504e-003
2.190738e+003, 4.678003e-003
2.192667e+003, 5.081389e-003
2.194595e+003, 4.101634e-003
2.196524e+003, 4.608805e-003
2.198452e+003, 5.760601e-003
2.200381e+003, 5.237348e-003
2.202309e+003, 3.822443e-003
2.204238e+003, 4.258419e-003
2.206166e+003, 4.462138e-003
2.208094e+003, 3.127852e-003
2.210023e+003, 2.224152e-003
2.211951e+003, 1.968349e-003
2.213880e+003, 3.147498e-003
2.215808e+003, 4.039639e-003
2.217737e+003, 4.145741e-003
2.219665e+003, 3.451712e-003
2.221594e+003, 4.261144e-003
2.223522e+003, 5.580524e-003
2.225451e+003, 5.404420e-003
2.227379e+003, 4.301367e-003
2.229308e+003, 3.220597e-003
2.231236e+003, 4.061391e-003
2.233165e+003, 4.742264e-003
2.235093e+003, 4.153717e-003
2.237021e+003, 3.584993e-003
2.238950e+003, 4.130540e-003
2.240878e+003, 4.363224e-003
2.242807e+003, 4.600331e-003
2.244735e+003, 4.751858e-003
2.246664e+003, 5.643834e-003
2.248592e+003, 5.886882e-003
2.250521e+003, 4.661215e-003
2.252449e+003, 4.984968e-003
2.254378e+003, 5.662085e-003
2.256306e+003, 5.558529e-003
2.258235e+003, 5.642273e-003
2.260163e+003, 6.110998e-003
2.262092e+003, 6.502504e-003
2.264020e+003, 5.794287e-003
2.265948e+003, 5.593393e-003
2.267877e+003, 6.008595e-003
2.269805e+003, 5.844797e-003
2.271734e+003, 6.584246e-003
2.273662e+003, 6.563660e-003
2.275591e+003, 6.198805e-003
2.277519e+003, 6.361427e-003
2.279448e+003, 6.688283e-003
2.281376e+003, 8.034950e-003
2.283305e+003, 8.569119e-003
2.285233e+003, 7.602604e-003
2.287162e+003, 7.369041e-003
2.289090e+003, 7.677227e-003
2.291019e+003, 7.683706e-003
2.292947e+003, 7.321995e-003
2.294875e+003, 7.206211e-003
2.296804e+003, 7.154465e-003
2.298732e+003, 6.880326e-003
2.300661e+003, 7.242475e-003
2.302589e+003, 7.545610e-003
2.304518e+003, 7.530412e-003
2.306446e+003, 6.951373e-003
2.308375e+003, 6.484375e-003
2.310303e+003, 6.624996e-003
2.312232e+003, 6.654937e-003
2.314160e+003, 6.570690e-003
2.316089e+003, 6.524409e-003
2.318017e+003, 7.146094e-003
2.319946e+003, 7.886942e-003
2.321874e+003, 8.153685e-003
2.323802e+003, 7.609983e-003
2.325731e+003, 6.656840e-003
2.327659e+003, 6.410702e-003
2.329588e+003, 6.432547e-003
2.331516e+003, 6.333475e-003
2.333445e+003, 5.756820e-003
2.335373e+003, 5.528009e-003
2.337302e+003, 6.025018e-003
2.339230e+003, 6.257861e-003
2.341159e+003, 5.848682e-003
2.343087e+003, 5.750523e-003
2.345016e+003, 5.593927e-003
2.346944e+003, 4.982769e-003
2.348873e+003, 5.414838e-003
2.350801e+003, 5.943255e-003
2.352729e+003, 5.850481e-003
2.354658e+003, 5.825399e-003
2.356586e+003, 5.694748e-003
2.358515e+003, 5.396773e-003
2.360443e+003, 4.831629e-003
2.362372e+003, 4.796916e-003
2.364300e+003, 5.025221e-003
2.366229e+003, 5.030602e-003
2.368157e+003, 4.878436e-003
2.370086e+003, 4.850873e-003
2.372014e+003, 4.984624e-003
2.373942e+003, 5.068317e-003
2.375871e+003, 4.775919e-003
2.377799e+003, 4.862780e-003
2.379728e+003, 5.137785e-003
2.381656e+003, 5.357935e-003
2.383585e+003, 5.398163e-003
2.385513e+003, 5.289550e-003
2.387442e+003, 5.330884e-003
2.389370e+003, 5.583775e-003
2.391299e+003, 5.649365e-003
2.393227e+003, 5.754136e-003
2.395156e+003, 5.594523e-003
2.397084e+003, 5.925588e-003
2.399012e+003, 5.709597e-003
2.400941e+003, 4.956560e-003
2.402869e+003, 5.031466e-003
2.404798e+003, 5.032677e-003
2.406726e+003, 5.822035e-003
2.408655e+003, 6.629889e-003
2.410583e+003, 6.286926e-003
2.412512e+003, 5.750955e-003
2.414440e+003, 6.046152e-003
2.416369e+003, 6.468435e-003
2.418297e+003, 6.655666e-003
2.420226e+003, 6.242045e-003
2.422154e+003, 5.649895e-003
2.424083e+003, 5.735372e-003
2.426011e+003, 6.169749e-003
2.427939e+003, 5.679058e-003
2.429868e+003, 5.041978e-003
2.431796e+003, 5.737337e-003
2.433725e+003, 6.600513e-003
2.435653e+003, 6.723698e-003
2.437582e+003, 6.589381e-003
2.439510e+003, 6.802205e-003
2.441439e+003, 6.662652e-003
2.443367e+003, 6.474431e-003
2.445296e+003, 7.451169e-003
2.447224e+003, 7.612256e-003
2.449153e+003, 7.945538e-003
2.451081e+003, 8.619912e-003
2.453010e+003, 8.138771e-003
2.454938e+003, 7.289254e-003
2.456866e+003, 6.756133e-003
2.458795e+003, 6.859509e-003
2.460723e+003, 7.500967e-003
2.462652e+003, 7.349411e-003
2.464580e+003, 7.145522e-003
2.466509e+003, 6.966311e-003
2.468437e+003, 7.149219e-003
2.470366e+003, 7.142145e-003
2.472294e+003, 7.539401e-003
2.474223e+003, 7.414031e-003
2.476151e+003, 7.714130e-003
2.478080e+003, 8.446868e-003
2.480008e+003, 8.414077e-003
2.481937e+003, 8.145455e-003
2.483865e+003, 7.910531e-003
2.485793e+003, 7.975151e-003
2.487722e+003, 8.238303e-003
2.489650e+003, 8.185797e-003
2.491579e+003, 7.955668e-003
2.493507e+003, 7.910262e-003
2.495436e+003, 7.797200e-003
2.497364e+003, 7.825080e-003
2.499293e+003, 7.724505e-003
2.501221e+003, 8.108077e-003
2.503150e+003, 7.753915e-003
2.505078e+003, 7.392454e-003
2.507007e+003, 8.209474e-003
2.508935e+003, 8.895946e-003
2.510864e+003, 9.260497e-003
2.512792e+003, 8.257764e-003
2.514720e+003, 7.697714e-003
2.516649e+003, 8.519738e-003
2.518577e+003, 9.238194e-003
2.520506e+003, 9.097694e-003
2.522434e+003, 8.230143e-003
2.524363e+003, 7.800726e-003
2.526291e+003, 7.383838e-003
2.528220e+003, 7.453262e-003
2.530148e+003, 8.382512e-003
2.532077e+003, 9.059462e-003
2.534005e+003, 9.305425e-003
2.535934e+003, 9.599469e-003
2.537862e+003, 9.864236e-003
2.539791e+003, 9.590201e-003
2.541719e+003, 8.761072e-003
2.543647e+003, 8.238176e-003
2.545576e+003, 8.737602e-003
2.547504e+003, 8.660711e-003
2.549433e+003, 8.932403e-003
2.551361e+003, 9.095199e-003
2.553290e+003, 8.805374e-003
2.555218e+003, 9.522210e-003
2.557147e+003, 9.841268e-003
2.559075e+003, 9.809529e-003
2.561004e+003, 9.660195e-003
2.562932e+003, 8.776082e-003
2.564861e+003, 8.915120e-003
2.566789e+003, 9.110982e-003
2.568718e+003, 8.983796e-003
2.570646e+003, 9.301879e-003
2.572574e+003, 9.854411e-003
2.574503e+003, 9.962412e-003
2.576431e+003, 9.667903e-003
2.578360e+003, 9.576607e-003
2.580288e+003, 9.586958e-003
2.582217e+003, 9.781382e-003
2.584145e+003, 1.004801e-002
2.586074e+003, 1.030117e-002
2.588002e+003, 1.010796e-002
2.589931e+003, 1.000043e-002
2.591859e+003, 1.036879e-002
2.593788e+003, 1.061697e-002
2.595716e+003, 1.046930e-002
2.597645e+003, 1.037532e-002
2.599573e+003, 1.075063e-002
2.601501e+003, 1.098787e-002
2.603430e+003, 1.064010e-002
2.605358e+003, 1.046259e-002
2.607287e+003, 1.035885e-002
2.609215e+003, 1.099459e-002
2.611144e+003, 1.120364e-002
2.613072e+003, 1.058502e-002
2.615001e+003, 1.058226e-002
2.616929e+003, 1.040888e-002
2.618858e+003, 1.039031e-002
2.620786e+003, 1.034276e-002
2.622715e+003, 1.014788e-002
2.624643e+003, 1.043616e-002
2.626572e+003, 1.115858e-002
2.628500e+003, 1.131590e-002
2.630428e+003, 1.061584e-002
2.632357e+003, 1.052279e-002
2.634285e+003, 1.114652e-002
2.636214e+003, 1.086360e-002
2.638142e+003, 1.045812e-002
2.640071e+003, 1.100478e-002
2.641999e+003, 1.166573e-002
2.643928e+003, 1.162313e-002
2.645856e+003, 1.136773e-002
2.647785e+003, 1.124229e-002
2.649713e+003, 1.124400e-002
2.651642e+003, 1.153481e-002
2.653570e+003, 1.155001e-002
2.655499e+003, 1.137085e-002
2.657427e+003, 1.122236e-002
2.659355e+003, 1.101815e-002
2.661284e+003, 1.065351e-002
2.663212e+003, 1.012906e-002
2.665141e+003, 1.019359e-002
2.667069e+003, 1.024290e-002
2.668998e+003, 1.055529e-002
2.670926e+003, 1.073440e-002
2.672855e+003, 1.052730e-002
2.674783e+003, 1.000197e-002
2.676712e+003, 1.008809e-002
2.678640e+003, 1.039264e-002
2.680569e+003, 1.017844e-002
2.682497e+003, 1.043442e-002
2.684426e+003, 1.096323e-002
2.686354e+003, 1.073708e-002
2.688282e+003, 1.027234e-002
2.690211e+003, 1.000083e-002
2.692139e+003, 1.031757e-002
2.694068e+003, 1.052166e-002
2.695996e+003, 1.032806e-002
2.697925e+003, 1.027235e-002
2.699853e+003, 1.046504e-002
2.701782e+003, 1.093740e-002
2.703710e+003, 1.109378e-002
2.705639e+003, 1.080335e-002
2.707567e+003, 1.045407e-002
2.709496e+003, 1.048176e-002
2.711424e+003, 1.019169e-002
2.713353e+003, 1.002164e-002
2.715281e+003, 1.061321e-002
2.717209e+003, 1.090509e-002
2.719138e+003, 1.084579e-002
2.721066e+003, 1.104864e-002
2.722995e+003, 1.098130e-002
2.724923e+003, 1.146109e-002
2.726852e+003, 1.134037e-002
2.728780e+003, 1.078185e-002
2.730709e+003, 1.067915e-002
2.732637e+003, 1.071962e-002
2.734566e+003, 1.084279e-002
2.736494e+003, 1.090106e-002
2.738423e+003, 1.076801e-002
2.740351e+003, 1.065248e-002
2.742280e+003, 1.089356e-002
2.744208e+003, 1.140707e-002
2.746136e+003, 1.137010e-002
2.748065e+003, 1.119146e-002
2.749993e+003, 1.151214e-002
2.751922e+003, 1.145613e-002
2.753850e+003, 1.145939e-002
2.755779e+003, 1.183131e-002
2.757707e+003, 1.203815e-002
2.759636e+003, 1.195846e-002
2.761564e+003, 1.206962e-002
2.763493e+003, 1.261566e-002
2.765421e+003, 1.260662e-002
2.767350e+003, 1.238297e-002
2.769278e+003, 1.262381e-002
2.771207e+003, 1.252668e-002
2.773135e+003, 1.211627e-002
2.775063e+003, 1.223626e-002
2.776992e+003, 1.238895e-002
2.778920e+003, 1.200521e-002
2.780849e+003, 1.218864e-002
2.782777e+003, 1.252462e-002
2.784706e+003, 1.271365e-002
2.786634e+003, 1.240651e-002
2.788563e+003, 1.247001e-002
2.790491e+003, 1.294101e-002
2.792420e+003, 1.301851e-002
2.794348e+003, 1.273151e-002
2.796277e+003, 1.296857e-002
2.798205e+003, 1.320012e-002
2.800134e+003, 1.292915e-002
2.802062e+003, 1.322563e-002
2.803990e+003, 1.308059e-002
2.805919e+003, 1.325561e-002
2.807847e+003, 1.346133e-002
2.809776e+003, 1.306859e-002
2.811704e+003, 1.258475e-002
2.813633e+003, 1.268042e-002
2.815561e+003, 1.349707e-002
2.817490e+003, 1.354772e-002
2.819418e+003, 1.336305e-002
2.821347e+003, 1.367176e-002
2.823275e+003, 1.353373e-002
2.825204e+003, 1.371265e-002
2.827132e+003, 1.382124e-002
2.829061e+003, 1.403951e-002
2.830989e+003, 1.423583e-002
2.832917e+003, 1.470635e-002
2.834846e+003, 1.475875e-002
2.836774e+003, 1.480837e-002
2.838703e+003, 1.481880e-002
2.840631e+003, 1.451841e-002
2.842560e+003, 1.509958e-002
2.844488e+003, 1.566642e-002
2.846417e+003, 1.544544e-002
2.848345e+003, 1.521577e-002
2.850274e+003, 1.469277e-002
2.852202e+003, 1.454765e-002
2.854131e+003, 1.396221e-002
2.856059e+003, 1.344601e-002
2.857988e+003, 1.400457e-002
2.859916e+003, 1.454724e-002
2.861844e+003, 1.517612e-002
2.863773e+003, 1.608476e-002
2.865701e+003, 1.581374e-002
2.867630e+003, 1.511439e-002
2.869558e+003, 1.527175e-002
2.871487e+003, 1.595048e-002
2.873415e+003, 1.623040e-002
2.875344e+003, 1.660463e-002
2.877272e+003, 1.718425e-002
2.879201e+003, 1.710659e-002
2.881129e+003, 1.590132e-002
2.883058e+003, 1.571518e-002
2.884986e+003, 1.591864e-002
2.886915e+003, 1.626281e-002
2.888843e+003, 1.651817e-002
2.890771e+003, 1.723048e-002
2.892700e+003, 1.702656e-002
2.894628e+003, 1.667123e-002
2.896557e+003, 1.792852e-002
2.898485e+003, 1.844204e-002
2.900414e+003, 1.790763e-002
2.902342e+003, 1.716308e-002
2.904271e+003, 1.786201e-002
2.906199e+003, 1.832003e-002
2.908128e+003, 1.808683e-002
2.910056e+003, 1.783504e-002
2.911985e+003, 1.785298e-002
2.913913e+003, 1.850097e-002
2.915842e+003, 1.876562e-002
2.917770e+003, 1.900690e-002
2.919698e+003, 1.873348e-002
2.921627e+003, 1.814329e-002
2.923555e+003, 1.738328e-002
2.925484e+003, 1.767413e-002
2.927412e+003, 1.765854e-002
2.929341e+003, 1.757206e-002
2.931269e+003, 1.735377e-002
2.933198e+003, 1.719666e-002
2.935126e+003, 1.701730e-002
2.937055e+003, 1.628776e-002
2.938983e+003, 1.657460e-002
2.940912e+003, 1.762783e-002
2.942840e+003, 1.834235e-002
2.944769e+003, 1.808605e-002
2.946697e+003, 1.784640e-002
2.948625e+003, 1.880533e-002
2.950554e+003, 1.994073e-002
2.952482e+003, 2.037582e-002
2.954411e+003, 1.999590e-002
2.956339e+003, 1.925851e-002
2.958268e+003, 1.900556e-002
2.960196e+003, 1.960110e-002
2.962125e+003, 1.983592e-002
2.964053e+003, 1.994626e-002
2.965982e+003, 2.016403e-002
2.967910e+003, 2.019636e-002
2.969839e+003, 1.958128e-002
2.971767e+003, 2.002903e-002
2.973696e+003, 1.976372e-002
2.975624e+003, 1.953913e-002
2.977552e+003, 1.983865e-002
2.979481e+003, 2.029382e-002
2.981409e+003, 2.034525e-002
2.983338e+003, 2.012151e-002
2.985266e+003, 2.071686e-002
2.987195e+003, 2.132328e-002
2.989123e+003, 2.117564e-002
2.991052e+003, 2.071981e-002
2.992980e+003, 2.053270e-002
2.994909e+003, 2.071801e-002
2.996837e+003, 2.117475e-002
2.998766e+003, 2.211662e-002
3.000694e+003, 2.250400e-002
3.002623e+003, 2.197700e-002
3.004551e+003, 2.181633e-002
3.006479e+003, 2.230867e-002
3.008408e+003, 2.191621e-002
3.010336e+003, 2.113284e-002
3.012265e+003, 2.169177e-002
3.014193e+003, 2.265527e-002
3.016122e+003, 2.253454e-002
3.018050e+003, 2.281232e-002
3.019979e+003, 2.328270e-002
3.021907e+003, 2.317144e-002
3.023836e+003, 2.313424e-002
3.025764e+003, 2.385399e-002
3.027693e+003, 2.418029e-002
3.029621e+003, 2.505271e-002
3.031550e+003, 2.513998e-002
3.033478e+003, 2.421956e-002
3.035406e+003, 2.390903e-002
3.037335e+003, 2.399380e-002
3.039263e+003, 2.389117e-002
3.041192e+003, 2.383377e-002
3.043120e+003, 2.442343e-002
3.045049e+003, 2.512916e-002
3.046977e+003, 2.560197e-002
3.048906e+003, 2.549450e-002
3.050834e+003, 2.534714e-002
3.052763e+003, 2.583333e-002
3.054691e+003, 2.615749e-002
3.056620e+003, 2.593787e-002
3.058548e+003, 2.604612e-002
3.060477e+003, 2.657802e-002
3.062405e+003, 2.664421e-002
3.064333e+003, 2.643913e-002
3.066262e+003, 2.649041e-002
3.068190e+003, 2.634259e-002
3.070119e+003, 2.684004e-002
3.072047e+003, 2.693547e-002
3.073976e+003, 2.745913e-002
3.075904e+003, 2.785671e-002
3.077833e+003, 2.828272e-002
3.079761e+003, 2.842593e-002
3.081690e+003, 2.853481e-002
3.083618e+003, 2.804512e-002
3.085547e+003, 2.851538e-002
3.087475e+003, 2.956742e-002
3.089404e+003, 3.007226e-002
3.091332e+003, 3.002137e-002
3.093260e+003, 3.025281e-002
3.095189e+003, 3.069512e-002
3.097117e+003, 3.062077e-002
3.099046e+003, 2.993725e-002
3.100974e+003, 2.995226e-002
3.102903e+003, 3.043083e-002
3.104831e+003, 3.046443e-002
3.106760e+003, 3.040338e-002
3.108688e+003, 3.081899e-002
3.110617e+003, 3.084245e-002
3.112545e+003, 3.075486e-002
3.114474e+003, 3.090943e-002
3.116402e+003, 3.124932e-002
3.118331e+003, 3.155873e-002
3.120259e+003, 3.128946e-002
3.122188e+003, 3.170377e-002
3.124116e+003, 3.224042e-002
3.126044e+003, 3.212359e-002
3.127973e+003, 3.228772e-002
3.129901e+003, 3.304656e-002
3.131830e+003, 3.341091e-002
3.133758e+003, 3.293881e-002
3.135687e+003, 3.304443e-002
3.137615e+003, 3.320867e-002
3.139544e+003, 3.330405e-002
3.141472e+003, 3.366377e-002
3.143401e+003, 3.409871e-002
3.145329e+003, 3.424886e-002
3.147258e+003, 3.475586e-002
3.149186e+003, 3.577284e-002
3.151115e+003, 3.527753e-002
3.153043e+003, 3.491176e-002
3.154971e+003, 3.552559e-002
3.156900e+003, 3.650590e-002
3.158828e+003, 3.689473e-002
3.160757e+003, 3.667061e-002
3.162685e+003, 3.603848e-002
3.164614e+003, 3.592288e-002
3.166542e+003, 3.670097e-002
3.168471e+003, 3.778495e-002
3.170399e+003, 3.785858e-002
3.172328e+003, 3.697082e-002
3.174256e+003, 3.664022e-002
3.176185e+003, 3.723268e-002
3.178113e+003, 3.719328e-002
3.180042e+003, 3.770855e-002
3.181970e+003, 3.798070e-002
3.183898e+003, 3.780439e-002
3.185827e+003, 3.846554e-002
3.187755e+003, 3.918945e-002
3.189684e+003, 3.860784e-002
3.191612e+003, 3.754507e-002
3.193541e+003, 3.833812e-002
3.195469e+003, 3.938961e-002
3.197398e+003, 3.945963e-002
3.199326e+003, 3.981541e-002
3.201255e+003, 4.021490e-002
3.203183e+003, 4.029803e-002
3.205112e+003, 4.098465e-002
3.207040e+003, 4.169486e-002
3.208969e+003, 4.114711e-002
3.210897e+003, 4.025050e-002
3.212825e+003, 4.009965e-002
3.214754e+003, 4.045950e-002
3.216682e+003, 4.138703e-002
3.218611e+003, 4.182109e-002
3.220539e+003, 4.102178e-002
3.222468e+003, 4.196576e-002
3.224396e+003, 4.272157e-002
3.226325e+003, 4.155115e-002
3.228253e+003, 4.114529e-002
3.230182e+003, 4.173094e-002
3.232110e+003, 4.174069e-002
3.234039e+003, 4.177045e-002
3.235967e+003, 4.206764e-002
3.237896e+003, 4.356997e-002
3.239824e+003, 4.463905e-002
3.241752e+003, 4.382295e-002
3.243681e+003, 4.307471e-002
3.245609e+003, 4.323715e-002
3.247538e+003, 4.412335e-002
3.249466e+003, 4.423468e-002
3.251395e+003, 4.435837e-002
3.253323e+003, 4.466887e-002
3.255252e+003, 4.516586e-002
3.257180e+003, 4.522930e-002
3.259109e+003, 4.565404e-002
3.261037e+003, 4.495547e-002
3.262966e+003, 4.409127e-002
3.264894e+003, 4.447136e-002
3.266823e+003, 4.529015e-002
3.268751e+003, 4.592686e-002
3.270679e+003, 4.579229e-002
3.272608e+003, 4.432514e-002
3.274536e+003, 4.440825e-002
3.276465e+003, 4.626603e-002
3.278393e+003, 4.655553e-002
3.280322e+003, 4.631974e-002
3.282250e+003, 4.619629e-002
3.284179e+003, 4.654370e-002
3.286107e+003, 4.718693e-002
3.288036e+003, 4.651174e-002
3.289964e+003, 4.567909e-002
3.291893e+003, 4.522769e-002
3.293821e+003, 4.545734e-002
3.295750e+003, 4.531870e-002
3.297678e+003, 4.490562e-002
3.299606e+003, 4.593961e-002
3.301535e+003, 4.763957e-002
3.303463e+003, 4.822640e-002
3.305392e+003, 4.693907e-002
3.307320e+003, 4.647191e-002
3.309249e+003, 4.644931e-002
3.311177e+003, 4.631618e-002
3.313106e+003, 4.659792e-002
3.315034e+003, 4.697204e-002
3.316963e+003, 4.633239e-002
3.318891e+003, 4.482380e-002
3.320820e+003, 4.502720e-002
3.322748e+003, 4.579919e-002
3.324677e+003, 4.532755e-002
3.326605e+003, 4.595830e-002
3.328533e+003, 4.583077e-002
3.330462e+003, 4.505662e-002
3.332390e+003, 4.507307e-002
3.334319e+003, 4.449232e-002
3.336247e+003, 4.394883e-002
3.338176e+003, 4.420701e-002
3.340104e+003, 4.425423e-002
3.342033e+003, 4.373098e-002
3.343961e+003, 4.386575e-002
3.345890e+003, 4.354363e-002
3.347818e+003, 4.306712e-002
3.349747e+003, 4.320331e-002
3.351675e+003, 4.353426e-002
3.353604e+003, 4.349217e-002
3.355532e+003, 4.283516e-002
3.357460e+003, 4.263828e-002
3.359389e+003, 4.292514e-002
3.361317e+003, 4.283854e-002
3.363246e+003, 4.400332e-002
3.365174e+003, 4.485349e-002
3.367103e+003, 4.414519e-002
3.369031e+003, 4.242800e-002
3.370960e+003, 4.180865e-002
3.372888e+003, 4.301246e-002
3.374817e+003, 4.361420e-002
3.376745e+003, 4.398248e-002
3.378674e+003, 4.432173e-002
3.380602e+003, 4.322524e-002
3.382531e+003, 4.454516e-002
3.384459e+003, 4.614608e-002
3.386387e+003, 4.626838e-002
3.388316e+003, 4.543757e-002
3.390244e+003, 4.608190e-002
3.392173e+003, 4.762916e-002
3.394101e+003, 4.751808e-002
3.396030e+003, 4.784100e-002
3.397958e+003, 4.966484e-002
3.399887e+003, 4.962149e-002
3.401815e+003, 4.923746e-002
3.403744e+003, 5.030066e-002
3.405672e+003, 5.124034e-002
3.407601e+003, 5.153140e-002
3.409529e+003, 5.120244e-002
3.411458e+003, 5.131119e-002
3.413386e+003, 5.177553e-002
3.415314e+003, 5.186091e-002
3.417243e+003, 5.168914e-002
3.419171e+003, 5.165842e-002
3.421100e+003, 5.135249e-002
3.423028e+003, 5.059016e-002
3.424957e+003, 4.955476e-002
3.426885e+003, 4.909017e-002
3.428814e+003, 4.786349e-002
3.430742e+003, 4.643302e-002
3.432671e+003, 4.524712e-002
3.434599e+003, 4.451722e-002
3.436528e+003, 4.313185e-002
3.438456e+003, 4.133271e-002
3.440385e+003, 3.877860e-002
3.442313e+003, 3.624453e-002
3.444241e+003, 3.495939e-002
3.446170e+003, 3.423373e-002
3.448098e+003, 3.280021e-002
3.450027e+003, 3.178427e-002
3.451955e+003, 3.089729e-002
3.453884e+003, 2.939483e-002
3.455812e+003, 2.845259e-002
3.457741e+003, 2.720316e-002
3.459669e+003, 2.627791e-002
3.461598e+003, 2.624405e-002
3.463526e+003, 2.503245e-002
3.465455e+003, 2.427578e-002
3.467383e+003, 2.410486e-002
3.469312e+003, 2.378845e-002
3.471240e+003, 2.232840e-002
3.473168e+003, 2.212162e-002
3.475097e+003, 2.276586e-002
3.477025e+003, 2.177227e-002
3.478954e+003, 2.107791e-002
3.480882e+003, 2.070161e-002
3.482811e+003, 1.942615e-002
3.484739e+003, 1.899592e-002
3.486668e+003, 2.004502e-002
3.488596e+003, 2.113153e-002
3.490525e+003, 2.174280e-002
3.492453e+003, 2.135816e-002
3.494382e+003, 2.024230e-002
3.496310e+003, 1.888674e-002
3.498239e+003, 1.848562e-002
3.500167e+003, 1.837068e-002
3.502095e+003, 1.882208e-002
3.504024e+003, 1.859035e-002
3.505952e+003, 1.765110e-002
3.507881e+003, 1.747057e-002
3.509809e+003, 1.705373e-002
3.511738e+003, 1.612636e-002
3.513666e+003, 1.575129e-002
3.515595e+003, 1.606410e-002
3.517523e+003, 1.632187e-002
3.519452e+003, 1.648011e-002
3.521380e+003, 1.586278e-002
3.523309e+003, 1.519773e-002
3.525237e+003, 1.524149e-002
3.527166e+003, 1.590197e-002
3.529094e+003, 1.563877e-002
3.531022e+003, 1.561246e-002
3.532951e+003, 1.628752e-002
3.534879e+003, 1.632436e-002
3.536808e+003, 1.548345e-002
3.538736e+003, 1.476706e-002
3.540665e+003, 1.456357e-002
3.542593e+003, 1.428153e-002
3.544522e+003, 1.363779e-002
3.546450e+003, 1.339518e-002
3.548379e+003, 1.382171e-002
3.550307e+003, 1.396578e-002
3.552236e+003, 1.339893e-002
3.554164e+003, 1.390423e-002
3.556093e+003, 1.401647e-002
3.558021e+003, 1.359706e-002
3.559949e+003, 1.326581e-002
3.561878e+003, 1.348950e-002
3.563806e+003, 1.392272e-002
3.565735e+003, 1.312292e-002
3.567663e+003, 1.219113e-002
3.569592e+003, 1.232241e-002
3.571520e+003, 1.241423e-002
3.573449e+003, 1.199050e-002
3.575377e+003, 1.210613e-002
3.577306e+003, 1.117808e-002
3.579234e+003, 1.131323e-002
3.581163e+003, 1.125422e-002
3.583091e+003, 1.130244e-002
3.585020e+003, 1.263289e-002
3.586948e+003, 1.257837e-002
3.588876e+003, 1.161841e-002
3.590805e+003, 1.164372e-002
3.592733e+003, 1.209807e-002
3.594662e+003, 1.198092e-002
3.596590e+003, 1.169485e-002
3.598519e+003, 1.300568e-002
3.600447e+003, 1.478567e-002
3.602376e+003, 1.566122e-002
3.604304e+003, 1.726587e-002
3.606233e+003, 2.076119e-002
3.608161e+003, 2.496331e-002
3.610090e+003, 2.887213e-002
3.612018e+003, 3.368918e-002
3.613947e+003, 3.762018e-002
3.615875e+003, 3.802134e-002
3.617803e+003, 3.618266e-002
3.619732e+003, 3.233832e-002
3.621660e+003, 2.695668e-002
3.623589e+003, 2.125194e-002
3.625517e+003, 1.618943e-002
3.627446e+003, 1.337068e-002
3.629374e+003, 1.002595e-002
3.631303e+003, 8.635025e-003
3.633231e+003, 7.485881e-003
3.635160e+003, 5.984871e-003
3.637088e+003, 5.648071e-003
3.639017e+003, 6.158100e-003
3.640945e+003, 6.252097e-003
3.642874e+003, 5.337243e-003
3.644802e+003, 4.636488e-003
3.646730e+003, 3.087932e-003
3.648659e+003, 3.158737e-003
3.650587e+003, 3.102700e-003
3.652516e+003, 2.032120e-003
3.654444e+003, 3.428064e-003
3.656373e+003, 4.859672e-003
3.658301e+003, 4.243112e-003
3.660230e+003, 3.158906e-003
3.662158e+003, 2.986838e-003
3.664087e+003, 2.904415e-003
3.666015e+003, 1.518104e-003
3.667944e+003, 1.333163e-003
3.669872e+003, 3.053824e-003
3.671801e+003, 3.738758e-003
3.673729e+003, 3.587311e-003
3.675657e+003, 1.840180e-003
3.677586e+003, 3.943512e-003
3.679514e+003, 4.374798e-003
3.681443e+003, 2.963790e-003
3.683371e+003, 2.416715e-003
3.685300e+003, 1.209076e-003
3.687228e+003, 7.168166e-004
3.689157e+003, -1.590757e-004
3.691085e+003, 4.788536e-004
3.693014e+003, 2.037219e-003
3.694942e+003, 1.989751e-003
3.696871e+003, 3.303343e-004
3.698799e+003, 6.030747e-004
3.700728e+003, 1.121566e-003
3.702656e+003, 1.903125e-003
3.704584e+003, 3.538481e-003
3.706513e+003, 1.524796e-003
3.708441e+003, 1.240559e-003
3.710370e+003, 2.216409e-003
3.712298e+003, 1.395158e-005
3.714227e+003, 1.914202e-003
3.716155e+003, 3.804472e-003
3.718084e+003, 1.854056e-003
3.720012e+003, 1.487699e-003
3.721941e+003, 2.477284e-003
3.723869e+003, 4.024434e-003
3.725798e+003, 2.852559e-003
3.727726e+003, 1.464023e-003
3.729655e+003, 2.816410e-003
3.731583e+003, 3.765395e-003
3.733511e+003, 2.745848e-003
3.735440e+003, 1.168456e-003
3.737368e+003, 5.656113e-004
3.739297e+003, 5.515254e-004
3.741225e+003, 3.449406e-004
3.743154e+003, 1.885865e-003
3.745082e+003, -4.065572e-006
3.747011e+003, -5.329971e-004
3.748939e+003, -9.857048e-005
3.750868e+003, 9.046877e-004
3.752796e+003, 4.694264e-004
3.754725e+003, 1.156967e-003
3.756653e+003, 1.661698e-003
3.758582e+003, 3.191405e-003
3.760510e+003, 3.413178e-003
3.762438e+003, 3.501912e-003
3.764367e+003, 2.710775e-003
3.766295e+003, 2.586168e-003
3.768224e+003, 2.650732e-003
3.770152e+003, 2.107357e-003
3.772081e+003, 2.774063e-003
3.774009e+003, 1.859897e-003
3.775938e+003, 8.621081e-004
3.777866e+003, 1.715636e-003
3.779795e+003, 2.298058e-003
3.781723e+003, 1.282412e-003
3.783652e+003, 9.375945e-004
3.785580e+003, 2.658987e-003
3.787509e+003, 2.990756e-003
3.789437e+003, 1.982353e-003
3.791365e+003, 2.920466e-003
3.793294e+003, 3.362108e-003
3.795222e+003, 2.467835e-003
3.797151e+003, 1.783801e-003
3.799079e+003, 2.322335e-003
3.801008e+003, 1.701333e-003
3.802936e+003, 6.545846e-004
3.804865e+003, 7.850330e-004
3.806793e+003, 1.531141e-003
3.808722e+003, 2.937800e-003
3.810650e+003, 3.319465e-003
3.812579e+003, 3.370304e-003
3.814507e+003, 3.558467e-003
3.816436e+003, 2.181268e-003
3.818364e+003, 2.204106e-003
3.820292e+003, 1.361834e-003
3.822221e+003, 9.560150e-004
3.824149e+003, 2.981951e-003
3.826078e+003, 2.463734e-003
3.828006e+003, 1.449437e-003
3.829935e+003, 1.585251e-003
3.831863e+003, 1.679671e-003
3.833792e+003, 2.404182e-003
3.835720e+003, 2.644641e-003
3.837649e+003, 3.344423e-003
3.839577e+003, 2.176983e-003
3.841506e+003, 1.799189e-003
3.843434e+003, 3.090988e-003
3.845363e+003, 2.492715e-003
3.847291e+003, 1.566222e-003
3.849219e+003, 2.472956e-003
3.851148e+003, 2.282756e-003
3.853076e+003, 1.998212e-003
3.855005e+003, 1.641409e-003
3.856933e+003, 3.466631e-003
3.858862e+003, 3.718996e-003
3.860790e+003, 3.447811e-003
3.862719e+003, 2.446861e-003
3.864647e+003, 2.384222e-003
3.866576e+003, 3.044849e-003
3.868504e+003, 3.630114e-003
3.870433e+003, 1.557939e-003
3.872361e+003, 2.001456e-003
3.874290e+003, 2.001244e-003
3.876218e+003, 2.389244e-003
3.878146e+003, 2.760815e-003
3.880075e+003, 1.956355e-003
3.882003e+003, 1.851939e-003
3.883932e+003, 3.811941e-003
3.885860e+003, 3.584073e-003
3.887789e+003, 2.819285e-003
3.889717e+003, 2.897314e-003
3.891646e+003, 3.290773e-003
3.893574e+003, 3.162557e-003
3.895503e+003, 1.813421e-003
3.897431e+003, 2.203631e-003
3.899360e+003, 2.698823e-003
3.901288e+003, 4.119792e-003
3.903217e+003, 3.807544e-003
3.905145e+003, 2.929630e-003
3.907073e+003, 4.444521e-003
3.909002e+003, 4.692522e-003
3.910930e+003, 3.633420e-003
3.912859e+003, 3.411614e-003
3.914787e+003, 2.272790e-003
3.916716e+003, 2.420159e-003
3.918644e+003, 3.459794e-003
3.920573e+003, 1.708989e-003
3.922501e+003, 2.143843e-004
3.924430e+003, 6.052339e-004
3.926358e+003, 2.037141e-003
3.928287e+003, 3.618530e-003
3.930215e+003, 3.580932e-003
3.932144e+003, 3.403438e-003
3.934072e+003, 3.224935e-003
3.936000e+003, 3.654972e-003
3.937929e+003, 3.572749e-003
3.939857e+003, 2.399825e-003
3.941786e+003, 3.317628e-003
3.943714e+003, 3.989469e-003
3.945643e+003, 4.759041e-003
3.947571e+003, 4.843206e-003
3.949500e+003, 4.123985e-003
3.951428e+003, 2.995163e-003
3.953357e+003, 2.110373e-003
3.955285e+003, 2.302674e-003
3.957214e+003, 2.755092e-003
3.959142e+003, 2.900302e-003
3.961071e+003, 1.758265e-003
3.962999e+003, 7.589291e-004
3.964927e+003, -5.611111e-004
3.966856e+003, 3.529815e-004
3.968784e+003, 3.192660e-003
3.970713e+003, 4.171074e-003
3.972641e+003, 3.954951e-003
3.974570e+003, 3.133951e-003
3.976498e+003, 1.724711e-003
3.978427e+003, -1.969013e-004
3.980355e+003, 1.033198e-003
3.982284e+003, 2.568114e-003
3.984212e+003, 2.709134e-003
3.986141e+003, 1.805367e-003
3.988069e+003, 3.180654e-003
3.989998e+003, 4.144429e-003
3.991926e+003, 2.506754e-003
3.993854e+003, 1.748272e-003
3.995783e+003, 2.186476e-003
3.997711e+003, 2.989451e-003
3.999640e+003, 2.993534e-003
##END=



