##NAMES=Grossular
##RRUFFID=R050312
##IDEAL CHEMISTRY=Ca_3_Al_2_(SiO_4_)_3_
##LOCALITY=Eden Mills mine, Vermont, USA
##OWNER=RRUFF
##SOURCE=Eugene Schlepp
##DESCRIPTION=Red crystal
##STATUS=The identification of this mineral has been confirmed by X-ray diffraction and chemical analysis
##URL=rruff.info/R050312
##MEASURED CHEMISTRY=Ca_3.00_(Al_1.75_Fe^3+^_0.23_Ti_0.02_)_Σ=2_((Si_0.99_Al_0.01_)_Σ=1_O_4_)_3_
399.1926, 0.1904290
401.1211, 0.1813803
403.0496, 0.1822523
404.9780, 0.1861341
406.9065, 0.1891445
408.8350, 0.1943562
410.7634, 0.2113136
412.6919, 0.2251454
414.6204, 0.2341465
416.5488, 0.2412115
418.4773, 0.2332556
420.4058, 0.2288538
422.3342, 0.2360155
424.2627, 0.2492266
426.1912, 0.2444749
428.1196, 0.2267724
430.0481, 0.2189511
431.9766, 0.2161320
433.9050, 0.2183172
435.8335, 0.2270545
437.7620, 0.2308236
439.6904, 0.2277782
441.6189, 0.2254710
443.5474, 0.2150779
445.4758, 0.2094510
447.4043, 0.2088475
449.3328, 0.2052104
451.2612, 0.1983385
453.1897, 0.1894025
455.1182, 0.1854417
457.0466, 0.1820018
458.9751, 0.1774654
460.9036, 0.1723159
462.8320, 0.1686397
464.7605, 0.1714302
466.6890, 0.1768561
468.6174, 0.1788817
470.5459, 0.1746729
472.4744, 0.1674515
474.4028, 0.1594909
476.3313, 0.1528248
478.2598, 0.1482794
480.1882, 0.1441503
482.1167, 0.1406821
484.0452, 0.1361411
485.9736, 0.1314477
487.9021, 0.1269140
489.8306, 0.1238827
491.7590, 0.1220142
493.6875, 0.1191736
495.6160, 0.1159390
497.5444, 0.1129469
499.4729, 0.1112583
501.4014, 0.1100155
503.3298, 0.1076605
505.2583, 0.1046939
507.1868, 0.1007814
509.1152, 9.5749177E-02
511.0437, 8.9759506E-02
512.9722, 8.4910549E-02
514.9006, 8.0875099E-02
516.8291, 7.7990450E-02
518.7576, 7.4710831E-02
520.6860, 7.2209083E-02
522.6145, 7.1121119E-02
524.5430, 7.2026037E-02
526.4714, 7.6159872E-02
528.3999, 8.3846912E-02
530.3284, 9.3858548E-02
532.2568, 0.1049507
534.1853, 0.1154942
536.1138, 0.1242351
538.0422, 0.1281560
539.9707, 0.1271006
541.8992, 0.1216209
543.8276, 0.1148974
545.7561, 0.1068409
547.6846, 9.9212676E-02
549.6130, 9.2447311E-02
551.5415, 8.5363232E-02
553.4700, 7.8602500E-02
555.3984, 7.2623827E-02
557.3269, 6.7280456E-02
559.2554, 6.1681580E-02
561.1838, 5.7322230E-02
563.1123, 5.2804660E-02
565.0408, 4.8735280E-02
566.9692, 4.5658100E-02
568.8977, 4.3275371E-02
570.8262, 4.0935442E-02
572.7546, 3.7942950E-02
574.6831, 3.5934791E-02
576.6116, 3.4520641E-02
578.5400, 3.2873489E-02
580.4685, 3.1613398E-02
582.3970, 3.0918241E-02
584.3254, 3.0330980E-02
586.2539, 2.9400440E-02
588.1824, 2.9481610E-02
590.1108, 2.9870650E-02
592.0393, 3.0242210E-02
593.9678, 3.0893140E-02
595.8962, 3.1497620E-02
597.8247, 3.2840159E-02
599.7532, 3.4589339E-02
601.6816, 3.6508359E-02
603.6101, 3.8999408E-02
605.5386, 4.2771939E-02
607.4670, 4.8197180E-02
609.3955, 5.4760661E-02
611.3240, 6.2893189E-02
613.2524, 7.0966236E-02
615.1809, 7.4714437E-02
617.1094, 7.1677230E-02
619.0378, 6.4181209E-02
620.9663, 5.5180889E-02
622.8948, 4.7509260E-02
624.8232, 4.2218588E-02
626.7517, 3.8523499E-02
628.6802, 3.5871379E-02
630.6086, 3.3495959E-02
632.5371, 3.1776909E-02
634.4656, 3.0996989E-02
636.3940, 3.0673150E-02
638.3225, 3.0114369E-02
640.2510, 2.9936239E-02
642.1794, 2.9679939E-02
644.1079, 2.9152321E-02
646.0364, 2.9085459E-02
647.9648, 2.9191131E-02
649.8933, 2.9207570E-02
651.8218, 2.9259199E-02
653.7502, 2.9275270E-02
655.6787, 2.9314229E-02
657.6072, 2.9302601E-02
659.5356, 2.9460611E-02
661.4641, 3.0190559E-02
663.3926, 3.0656841E-02
665.3210, 3.0791540E-02
667.2495, 3.1310271E-02
669.1780, 3.1979501E-02
671.1064, 3.2186709E-02
673.0349, 3.2241080E-02
674.9634, 3.2321971E-02
676.8918, 3.2226380E-02
678.8203, 3.2215372E-02
680.7488, 3.2136571E-02
682.6772, 3.2278862E-02
684.6057, 3.2782670E-02
686.5342, 3.3016980E-02
688.4626, 3.3304229E-02
690.3911, 3.3753779E-02
692.3196, 3.4381580E-02
694.2480, 3.4741059E-02
696.1765, 3.4974858E-02
698.1050, 3.5455190E-02
700.0334, 3.5810061E-02
701.9619, 3.6296111E-02
703.8904, 3.6839791E-02
705.8188, 3.7640061E-02
707.7473, 3.8556740E-02
709.6758, 3.9243851E-02
711.6042, 4.0102430E-02
713.5327, 4.1321449E-02
715.4612, 4.2460110E-02
717.3896, 4.3486189E-02
719.3181, 4.4452488E-02
721.2466, 4.6022810E-02
723.1750, 4.7475729E-02
725.1035, 4.9222600E-02
727.0320, 5.1454611E-02
728.9604, 5.3488810E-02
730.8889, 5.6109019E-02
732.8174, 5.8785789E-02
734.7458, 6.1249461E-02
736.6743, 6.3615210E-02
738.6028, 6.6060103E-02
740.5313, 6.9139257E-02
742.4597, 7.2279908E-02
744.3882, 7.5495183E-02
746.3167, 7.9090327E-02
748.2451, 8.3019689E-02
750.1736, 8.7207139E-02
752.1021, 9.1823593E-02
754.0305, 9.6190616E-02
755.9590, 0.1007950
757.8875, 0.1050578
759.8159, 0.1090499
761.7444, 0.1129618
763.6729, 0.1165916
765.6013, 0.1205714
767.5298, 0.1250995
769.4583, 0.1295995
771.3867, 0.1342042
773.3152, 0.1391738
775.2437, 0.1447216
777.1721, 0.1505127
779.1006, 0.1557920
781.0291, 0.1607810
782.9575, 0.1665533
784.8860, 0.1725634
786.8145, 0.1782495
788.7429, 0.1839873
790.6714, 0.1901739
792.5999, 0.1964956
794.5283, 0.2026149
796.4568, 0.2090684
798.3853, 0.2153696
800.3137, 0.2208204
802.2422, 0.2258626
804.1707, 0.2306239
806.0991, 0.2351204
808.0276, 0.2394727
809.9561, 0.2440433
811.8845, 0.2485977
813.8130, 0.2530748
815.7415, 0.2572167
817.6699, 0.2607364
819.5984, 0.2636894
821.5269, 0.2662026
823.4553, 0.2688231
825.3838, 0.2709106
827.3123, 0.2722568
829.2407, 0.2725542
831.1692, 0.2723871
833.0977, 0.2710838
835.0261, 0.2685981
836.9546, 0.2655163
838.8831, 0.2615198
840.8115, 0.2555633
842.7400, 0.2487880
844.6685, 0.2421835
846.5969, 0.2368111
848.5254, 0.2340427
850.4539, 0.2339425
852.3823, 0.2349566
854.3108, 0.2353333
856.2393, 0.2328850
858.1677, 0.2276925
860.0962, 0.2202177
862.0247, 0.2112909
863.9531, 0.2015174
865.8816, 0.1911856
867.8101, 0.1808973
869.7385, 0.1716578
871.6670, 0.1630965
873.5955, 0.1546559
875.5239, 0.1466504
877.4524, 0.1395206
879.3809, 0.1329029
881.3093, 0.1273196
883.2378, 0.1236060
885.1663, 0.1220180
887.0947, 0.1228131
889.0232, 0.1266547
890.9517, 0.1343984
892.8801, 0.1458017
894.8085, 0.1608712
896.7370, 0.1786760
898.6655, 0.1969393
900.5939, 0.2134567
902.5224, 0.2265407
904.4509, 0.2344044
906.3793, 0.2374721
908.3078, 0.2364297
910.2363, 0.2321850
912.1647, 0.2256370
914.0932, 0.2173847
916.0217, 0.2082416
917.9501, 0.1989939
919.8786, 0.1900836
921.8071, 0.1813134
923.7355, 0.1726417
925.6640, 0.1647923
927.5925, 0.1581662
929.5209, 0.1519618
931.4494, 0.1461056
933.3779, 0.1407208
935.3063, 0.1354457
937.2348, 0.1300861
939.1633, 0.1254871
941.0917, 0.1214555
943.0202, 0.1173296
944.9487, 0.1132613
946.8771, 0.1093859
948.8056, 0.1055913
950.7341, 0.1016978
952.6625, 9.7799540E-02
954.5910, 9.4225220E-02
956.5195, 9.0134777E-02
958.4479, 8.5760489E-02
960.3764, 8.1833243E-02
962.3049, 7.8151770E-02
964.2333, 7.4422002E-02
966.1618, 7.0948847E-02
968.0903, 6.7667723E-02
970.0187, 6.4518377E-02
971.9472, 6.1251651E-02
973.8757, 5.7846341E-02
975.8041, 5.4342389E-02
977.7326, 5.0944660E-02
979.6611, 4.7618128E-02
981.5895, 4.4146031E-02
983.5180, 4.1049309E-02
985.4465, 3.8265679E-02
987.3749, 3.5442919E-02
989.3034, 3.3012189E-02
991.2319, 3.0700721E-02
993.1603, 2.8425859E-02
995.0888, 2.6439181E-02
997.0173, 2.4895821E-02
998.9457, 2.3686130E-02
1000.874, 2.2697400E-02
1002.803, 2.1685621E-02
1004.731, 2.0593990E-02
1006.660, 1.9722359E-02
1008.588, 1.9075381E-02
1010.517, 1.8679170E-02
1012.445, 1.8127270E-02
1014.373, 1.7567510E-02
1016.302, 1.7064750E-02
1018.230, 1.6658681E-02
1020.159, 1.6574310E-02
1022.087, 1.6503841E-02
1024.016, 1.6459661E-02
1025.944, 1.6480140E-02
1027.873, 1.6940329E-02
1029.801, 1.7299140E-02
1031.730, 1.7352540E-02
1033.658, 1.7561130E-02
1035.587, 1.7621331E-02
1037.515, 1.7767631E-02
1039.444, 1.8011620E-02
1041.372, 1.7698281E-02
1043.301, 1.7780060E-02
1045.229, 1.7782381E-02
1047.157, 1.7564770E-02
1049.086, 1.7667679E-02
1051.014, 1.7426020E-02
1052.943, 1.6976541E-02
1054.871, 1.6692299E-02
1056.800, 1.6196471E-02
1058.728, 1.5960420E-02
1060.657, 1.6041780E-02
1062.585, 1.6387271E-02
1064.514, 1.6577009E-02
1066.442, 1.6772071E-02
1068.371, 1.7025430E-02
1070.299, 1.7105751E-02
1072.228, 1.6931500E-02
1074.156, 1.6657330E-02
1076.084, 1.6570820E-02
1078.013, 1.6278950E-02
1079.941, 1.6086649E-02
1081.870, 1.5803261E-02
1083.798, 1.5530820E-02
1085.727, 1.5410940E-02
1087.655, 1.5191390E-02
1089.584, 1.4874000E-02
1091.512, 1.4478930E-02
1093.441, 1.3951140E-02
1095.369, 1.3564040E-02
1097.298, 1.3119560E-02
1099.226, 1.2701200E-02
1101.155, 1.2515980E-02
1103.083, 1.2321880E-02
1105.011, 1.2065240E-02
1106.940, 1.1414090E-02
1108.868, 1.0761280E-02
1110.797, 1.0370860E-02
1112.725, 9.7559700E-03
1114.654, 9.2166495E-03
1116.582, 8.6490754E-03
1118.511, 7.9151662E-03
1120.439, 7.3786899E-03
1122.368, 7.0548290E-03
1124.296, 6.6748299E-03
1126.225, 6.2443959E-03
1128.153, 5.9328880E-03
1130.082, 5.5295210E-03
1132.010, 5.0622560E-03
1133.938, 4.5176842E-03
1135.867, 4.0818150E-03
1137.795, 3.5690770E-03
1139.724, 2.9998780E-03
1141.652, 2.3164770E-03
1143.581, 1.8077530E-03
1145.509, 1.4663240E-03
1147.438, 1.1008460E-03
1149.366, 7.0633262E-04
1151.295, 2.8454341E-04
1153.223, -1.2096120E-04
1155.152, -2.3238930E-04
1157.080, -3.1768941E-04
1159.009, -5.3351378E-04
1160.937, -8.2155241E-04
1162.865, -1.0209871E-03
1164.794, -1.0806830E-03
1166.722, -1.2352470E-03
1168.651, -1.5608100E-03
1170.579, -1.6507650E-03
1172.508, -1.8416870E-03
1174.436, -1.8570070E-03
1176.365, -1.7841270E-03
1178.293, -1.7987230E-03
1180.222, -1.7977310E-03
1182.150, -1.5599390E-03
1184.079, -1.6445389E-03
1186.007, -1.6469820E-03
1187.936, -1.7817490E-03
1189.864, -1.9677349E-03
1191.792, -2.1109520E-03
1193.721, -2.0249800E-03
1195.649, -1.9504260E-03
1197.578, -1.9797019E-03
1199.506, -1.8920540E-03
1201.435, -1.5522860E-03
1203.363, -1.6076870E-03
1205.292, -1.7348250E-03
1207.220, -1.6437439E-03
1209.149, -1.6424160E-03
1211.077, -2.1333999E-03
1213.006, -2.3983619E-03
1214.934, -2.0432810E-03
1216.863, -1.8997460E-03
1218.791, -2.0155329E-03
1220.719, -2.3300201E-03
1222.648, -2.6400271E-03
1224.576, -2.6002219E-03
1226.505, -2.3573691E-03
1228.433, -2.3009351E-03
1230.362, -2.4584481E-03
1232.290, -2.6474399E-03
1234.219, -2.8701811E-03
1236.147, -2.7995771E-03
1238.076, -2.8554441E-03
1240.004, -2.9142851E-03
1241.933, -2.6898570E-03
1243.861, -2.5783351E-03
1245.790, -2.7140649E-03
1247.718, -2.9253010E-03
1249.646, -2.9509070E-03
1251.575, -3.0497380E-03
1253.503, -2.9499771E-03
1255.432, -2.7188051E-03
1257.360, -2.7194580E-03
1259.289, -2.6095670E-03
1261.217, -2.2939320E-03
1263.146, -2.2444220E-03
1265.074, -2.4225691E-03
1267.003, -2.3707950E-03
1268.931, -2.1370670E-03
1270.860, -2.1960160E-03
1272.788, -2.1448650E-03
1274.717, -1.8997031E-03
1276.645, -1.8775780E-03
1278.573, -1.8908430E-03
1280.502, -1.7554089E-03
1282.430, -1.5743150E-03
1284.359, -1.7607810E-03
1286.287, -1.8230290E-03
1288.216, -1.4279980E-03
1290.144, -1.0518880E-03
1292.073, -1.1081110E-03
1294.001, -1.1273510E-03
1295.930, -8.6983759E-04
1297.858, -6.6607120E-04
1299.787, -8.5724698E-04
1301.715, -8.4680488E-04
1303.644, -6.9906772E-04
1305.572, -6.6540658E-04
1307.500, -7.1506848E-04
1309.429, -5.6413730E-04
1311.357, -3.5640039E-04
1313.286, -2.8486160E-04
1315.214, -1.9458780E-04
1317.143, -1.3440241E-04
1319.071, -4.7550329E-05
1321.000, -6.2153140E-06
1322.928, 7.1278431E-05
1324.857, 6.1723687E-05
1326.785, 3.9303141E-05
1328.714, -1.4685090E-04
1330.642, -5.5814671E-05
1332.571, 4.0635429E-04
1334.499, 5.0876691E-04
1336.427, 1.5531509E-04
1338.356, -1.2193630E-04
1340.284, 5.7556961E-05
1342.213, 1.0985850E-04
1344.141, 1.0876910E-04
1346.070, -2.0292980E-05
1347.998, -1.2218970E-04
1349.927, -7.9029982E-05
1351.855, 1.5168671E-04
1353.784, 3.2395191E-04
1355.712, 3.7848460E-04
1357.641, 4.1188349E-04
1359.569, 1.8265290E-04
1361.498, 2.3760711E-04
1363.426, 5.6727330E-04
1365.354, 5.1029731E-04
1367.283, 3.2568630E-04
1369.211, 1.5871671E-04
1371.140, 7.6920340E-05
1373.068, 4.1584150E-05
1374.997, -1.5852500E-04
1376.925, -2.4316620E-05
1378.854, 1.5773230E-04
1380.782, 2.4193380E-04
1382.711, 3.8519691E-04
1384.639, 6.9569377E-04
1386.568, 1.3516770E-03
1388.496, 1.6435190E-03
1390.424, 1.6176220E-03
1392.353, 1.8220010E-03
1394.281, 1.9371361E-03
1396.210, 2.1337951E-03
1398.138, 2.1832329E-03
1400.067, 1.9787750E-03
1401.995, 1.9650960E-03
1403.924, 1.8348100E-03
1405.852, 1.7887880E-03
1407.781, 1.8722740E-03
1409.709, 1.9127900E-03
1411.638, 1.8502860E-03
1413.566, 1.8649810E-03
1415.495, 1.9850519E-03
1417.423, 2.3723501E-03
1419.351, 2.7470940E-03
1421.280, 2.6799710E-03
1423.208, 2.4732619E-03
1425.137, 2.4479779E-03
1427.065, 2.5153339E-03
1428.994, 2.5137891E-03
1430.922, 2.3381179E-03
1432.851, 2.1054689E-03
1434.779, 1.7503611E-03
1436.708, 1.5787811E-03
1438.636, 1.6271611E-03
1440.565, 1.6421680E-03
1442.493, 1.4538120E-03
1444.422, 1.0834220E-03
1446.350, 8.7689148E-04
1448.278, 9.6504512E-04
1450.207, 7.5745408E-04
1452.135, 4.1580349E-04
1454.064, 6.8851557E-05
1455.992, -3.1649080E-04
1457.921, -4.7390559E-04
1459.849, -4.8033259E-04
1461.778, -5.9536938E-04
1463.706, -8.1856392E-04
1465.635, -9.5484569E-04
1467.563, -6.0535292E-04
1469.492, 3.4569661E-04
1471.420, 1.5946870E-03
1473.349, 2.5383399E-03
1475.277, 2.8408519E-03
1477.205, 2.9446690E-03
1479.134, 2.8662961E-03
1481.062, 3.0262619E-03
1482.991, 3.2006970E-03
1484.919, 3.2016451E-03
1486.848, 3.2447190E-03
1488.776, 3.6161549E-03
1490.705, 3.8431010E-03
1492.633, 3.8324511E-03
1494.562, 3.8096560E-03
1496.490, 3.9863698E-03
1498.419, 4.0268749E-03
1500.347, 4.2381268E-03
1502.276, 4.3701432E-03
1504.204, 4.5592701E-03
1506.132, 4.6456768E-03
1508.061, 4.5586331E-03
1509.989, 4.6776789E-03
1511.918, 4.6731080E-03
1513.846, 4.5974869E-03
1515.775, 4.5428579E-03
1517.703, 4.4982559E-03
1519.632, 4.5362161E-03
1521.560, 4.5535970E-03
1523.489, 4.4398308E-03
1525.417, 4.4291178E-03
1527.346, 4.5025810E-03
1529.274, 4.7403802E-03
1531.203, 4.9609030E-03
1533.131, 4.8651071E-03
1535.059, 4.5699771E-03
1536.988, 4.3052882E-03
1538.916, 4.4209869E-03
1540.845, 4.5023360E-03
1542.773, 4.3187658E-03
1544.702, 4.3788231E-03
1546.630, 4.6622688E-03
1548.559, 4.4829319E-03
1550.487, 4.0308670E-03
1552.416, 4.2190370E-03
1554.344, 4.5385659E-03
1556.273, 4.7783670E-03
1558.201, 4.9450272E-03
1560.130, 4.8018708E-03
1562.058, 4.4825701E-03
1563.986, 4.3858159E-03
1565.915, 4.2946748E-03
1567.843, 4.2094770E-03
1569.772, 3.9134249E-03
1571.700, 3.7182360E-03
1573.629, 3.7679910E-03
1575.557, 4.0250942E-03
1577.486, 3.8760409E-03
1579.414, 3.4556140E-03
1581.343, 3.5201849E-03
1583.271, 3.6369599E-03
1585.200, 3.2798389E-03
1587.128, 3.2149840E-03
1589.057, 3.3805650E-03
1590.985, 3.4843211E-03
1592.913, 3.5627601E-03
1594.842, 3.2693660E-03
1596.770, 2.8253449E-03
1598.699, 2.7861020E-03
1600.627, 3.1499420E-03
1602.556, 3.0230649E-03
1604.484, 2.8562350E-03
1606.413, 3.3387591E-03
1608.341, 3.2869740E-03
1610.270, 2.6870850E-03
1612.198, 2.4970679E-03
1614.127, 2.8193779E-03
1616.055, 3.0983321E-03
1617.984, 3.0584680E-03
1619.912, 2.8026470E-03
1621.840, 2.5416650E-03
1623.769, 2.3005570E-03
1625.697, 2.4374879E-03
1627.626, 2.7005649E-03
1629.554, 2.6847939E-03
1631.483, 2.4302690E-03
1633.411, 2.2596510E-03
1635.340, 2.5025140E-03
1637.268, 2.8344181E-03
1639.197, 2.7199259E-03
1641.125, 2.3453331E-03
1643.054, 2.1609841E-03
1644.982, 2.3307761E-03
1646.911, 2.2113780E-03
1648.839, 2.0165979E-03
1650.767, 2.2156241E-03
1652.696, 2.5904051E-03
1654.624, 3.0385330E-03
1656.553, 2.9663970E-03
1658.481, 2.4527861E-03
1660.410, 2.5227140E-03
1662.338, 2.7598180E-03
1664.267, 2.7052870E-03
1666.195, 2.7979219E-03
1668.124, 2.7766360E-03
1670.052, 2.5346980E-03
1671.981, 2.4298930E-03
1673.909, 2.5904230E-03
1675.838, 3.1137911E-03
1677.766, 3.2132950E-03
1679.694, 2.9207731E-03
1681.623, 2.7777399E-03
1683.551, 3.0545141E-03
1685.480, 3.1332211E-03
1687.408, 3.0697091E-03
1689.337, 2.9621001E-03
1691.265, 2.8662360E-03
1693.194, 2.6666049E-03
1695.122, 2.5832320E-03
1697.051, 2.5595929E-03
1698.979, 2.4250189E-03
1700.908, 1.8377490E-03
1702.836, 5.2558689E-04
1704.765, -4.8606959E-04
1706.693, -9.8754663E-04
1708.621, -1.2996700E-03
1710.550, -1.6132700E-03
1712.478, -1.9387050E-03
1714.407, -1.7906750E-03
1716.335, -1.2655139E-03
1718.264, -1.1599060E-03
1720.192, -1.2731380E-03
1722.121, -1.3761240E-03
1724.049, -1.7064260E-03
1725.978, -1.4602030E-03
1727.906, -1.2195749E-03
1729.835, -2.2324780E-03
1731.763, -3.1661130E-03
1733.692, -3.5118060E-03
1735.620, -4.6323910E-03
1737.548, -5.2379300E-03
1739.477, -5.0121830E-03
1741.405, -5.1086992E-03
1743.334, -5.2816998E-03
1745.262, -4.9869749E-03
1747.191, -3.8486910E-03
1749.119, -2.6428001E-03
1751.048, -1.4181770E-03
1752.976, -1.1534450E-04
1754.905, 1.4402090E-03
1756.833, 2.3736320E-03
1758.762, 2.8237940E-03
1760.690, 3.7425340E-03
1762.619, 4.1970289E-03
1764.547, 3.9549270E-03
1766.475, 4.2994991E-03
1768.404, 4.7944169E-03
1770.332, 4.5165531E-03
1772.261, 4.2858268E-03
1774.189, 4.5923870E-03
1776.118, 4.5337402E-03
1778.046, 4.4665439E-03
1779.975, 4.5663659E-03
1781.903, 4.7597862E-03
1783.832, 4.8506968E-03
1785.760, 4.5119300E-03
1787.689, 4.7079548E-03
1789.617, 5.0966688E-03
1791.546, 5.0113439E-03
1793.474, 4.9989750E-03
1795.402, 5.2019530E-03
1797.331, 5.3847772E-03
1799.259, 5.4867882E-03
1801.188, 5.0831870E-03
1803.116, 5.0088349E-03
1805.045, 5.2003288E-03
1806.973, 4.8482590E-03
1808.902, 5.1816949E-03
1810.830, 5.4845521E-03
1812.759, 4.9151541E-03
1814.687, 4.7117299E-03
1816.616, 4.8371861E-03
1818.544, 4.7810911E-03
1820.473, 4.9567670E-03
1822.401, 5.1967818E-03
1824.329, 4.9944590E-03
1826.258, 4.8659658E-03
1828.186, 4.8173498E-03
1830.115, 4.9437871E-03
1832.043, 4.8088869E-03
1833.972, 5.0587100E-03
1835.900, 5.2813240E-03
1837.829, 5.3822589E-03
1839.757, 5.1676151E-03
1841.686, 5.0070351E-03
1843.614, 5.1009231E-03
1845.543, 5.3102309E-03
1847.471, 5.0193761E-03
1849.400, 5.1175458E-03
1851.328, 5.4818848E-03
1853.256, 5.3844140E-03
1855.185, 4.7505931E-03
1857.113, 4.6667750E-03
1859.042, 4.8161740E-03
1860.970, 4.9720430E-03
1862.899, 4.8351092E-03
1864.827, 5.0604371E-03
1866.756, 5.5432599E-03
1868.684, 5.5475528E-03
1870.613, 5.5702538E-03
1872.541, 6.1144931E-03
1874.470, 6.8609170E-03
1876.398, 5.9912908E-03
1878.327, 4.8321388E-03
1880.255, 4.6665920E-03
1882.183, 5.2846498E-03
1884.112, 6.2335450E-03
1886.040, 5.9361518E-03
1887.969, 5.3857081E-03
1889.897, 5.4478771E-03
1891.826, 5.3929882E-03
1893.754, 5.5761761E-03
1895.683, 5.8033471E-03
1897.611, 5.4827719E-03
1899.540, 5.6174169E-03
1901.468, 5.6011728E-03
1903.397, 5.4723788E-03
1905.325, 5.8048279E-03
1907.254, 5.3593009E-03
1909.182, 4.5338040E-03
1911.110, 4.3405839E-03
1913.039, 4.9514091E-03
1914.967, 6.1871200E-03
1916.896, 6.6311490E-03
1918.824, 5.4858872E-03
1920.753, 5.3076260E-03
1922.681, 6.2057539E-03
1924.610, 6.7763752E-03
1926.538, 6.6946191E-03
1928.467, 6.0969749E-03
1930.395, 6.0305279E-03
1932.324, 5.3857998E-03
1934.252, 5.6723868E-03
1936.181, 5.0484790E-03
1938.109, 4.7364901E-03
1940.037, 5.4789851E-03
1941.966, 5.6887902E-03
1943.894, 6.4852051E-03
1945.823, 6.3006482E-03
1947.751, 6.0497131E-03
1949.680, 6.3741878E-03
1951.608, 7.3363739E-03
1953.537, 7.2283931E-03
1955.465, 6.1808322E-03
1957.394, 4.4765431E-03
1959.322, 4.3704701E-03
1961.251, 7.1707540E-03
1963.179, 7.1286741E-03
1965.108, 6.0503068E-03
1967.036, 7.0608570E-03
1968.964, 6.4334231E-03
1970.893, 6.3214959E-03
1972.821, 7.4448660E-03
1974.750, 7.9700239E-03
1976.678, 1.1272340E-02
1978.607, 1.5132750E-02
1980.535, 1.3498520E-02
1982.464, 1.1420080E-02
1984.392, 1.2021860E-02
1986.321, 9.4167925E-03
1988.249, 5.5014971E-03
1990.178, 6.1162710E-03
1992.106, 7.0994711E-03
1994.035, 9.3214521E-03
1995.963, 8.2169930E-03
1997.891, 7.7188518E-03
1999.820, 1.1497370E-02
2001.748, 1.1272180E-02
2003.677, 9.3268668E-03
2005.605, 9.3549201E-03
2007.534, 9.5586516E-03
2009.462, 8.7558478E-03
2011.391, 7.2427192E-03
2013.319, 7.4601602E-03
2015.248, 8.7576527E-03
2017.176, 8.3847558E-03
2019.105, 7.8508947E-03
2021.033, 9.0098847E-03
2022.962, 8.5487636E-03
2024.890, 6.5912120E-03
2026.818, 6.8904459E-03
2028.747, 9.4351377E-03
2030.675, 9.6966606E-03
2032.604, 9.8524187E-03
2034.532, 9.5094722E-03
2036.461, 9.3863104E-03
2038.389, 7.9368502E-03
2040.318, 9.3466965E-03
2042.246, 1.1242720E-02
2044.175, 1.2502310E-02
2046.103, 1.2680930E-02
2048.032, 1.1607600E-02
2049.960, 1.0494040E-02
2051.889, 1.0068970E-02
2053.817, 1.0462070E-02
2055.746, 9.6345106E-03
2057.674, 8.2195131E-03
2059.603, 8.4616933E-03
2061.531, 9.6436040E-03
2063.459, 1.0352650E-02
2065.388, 1.0299260E-02
2067.316, 9.9254390E-03
2069.245, 8.1303949E-03
2071.173, 6.7618508E-03
2073.102, 7.6897838E-03
2075.030, 7.2949021E-03
2076.959, 7.5094900E-03
2078.887, 7.8703510E-03
2080.816, 7.7155470E-03
2082.744, 8.9334575E-03
2084.673, 1.0001230E-02
2086.601, 9.4612557E-03
2088.530, 9.7280703E-03
2090.458, 9.3833497E-03
2092.386, 7.8557888E-03
2094.315, 7.7617518E-03
2096.243, 8.6733019E-03
2098.172, 8.1013050E-03
2100.100, 8.7581100E-03
2102.029, 9.6984478E-03
2103.957, 9.9732177E-03
2105.886, 9.7426176E-03
2107.814, 9.9469488E-03
2109.743, 9.6498970E-03
2111.671, 9.8111788E-03
2113.600, 9.7460290E-03
2115.528, 9.3631661E-03
2117.457, 7.8258635E-03
2119.385, 7.9213139E-03
2121.313, 8.9071812E-03
2123.242, 7.6261130E-03
2125.170, 6.0856091E-03
2127.099, 6.6590840E-03
2129.027, 6.8844892E-03
2130.956, 7.3021902E-03
2132.884, 8.0977306E-03
2134.813, 7.8405021E-03
2136.741, 8.7808250E-03
2138.670, 9.2108399E-03
2140.598, 9.4338562E-03
2142.527, 9.3988962E-03
2144.455, 7.6623280E-03
2146.384, 8.3650248E-03
2148.312, 9.9317040E-03
2150.240, 1.0019830E-02
2152.169, 1.1312860E-02
2154.097, 1.0077850E-02
2156.026, 7.9519115E-03
2157.954, 8.2560265E-03
2159.883, 1.0754470E-02
2161.811, 1.2304070E-02
2163.740, 1.3934330E-02
2165.668, 1.5515710E-02
2167.597, 1.3232190E-02
2169.525, 1.3674110E-02
2171.454, 1.5381990E-02
2173.382, 1.4466580E-02
2175.311, 1.1758980E-02
2177.239, 8.1416201E-03
2179.167, 9.0276310E-03
2181.096, 1.1479980E-02
2183.024, 1.3160890E-02
2184.953, 1.3422500E-02
2186.881, 1.0511350E-02
2188.810, 8.6772507E-03
2190.738, 1.0806490E-02
2192.667, 1.2185140E-02
2194.595, 1.4352700E-02
2196.524, 1.4610560E-02
2198.452, 1.3194000E-02
2200.381, 1.2030050E-02
2202.309, 1.2610720E-02
2204.238, 1.1908480E-02
2206.166, 1.1364240E-02
2208.094, 1.0426910E-02
2210.023, 8.4193321E-03
2211.951, 8.4955906E-03
2213.880, 9.0864915E-03
2215.808, 1.0802740E-02
2217.737, 1.2236490E-02
2219.665, 1.2084690E-02
2221.594, 1.0828860E-02
2223.522, 9.4495732E-03
2225.451, 1.1779270E-02
2227.379, 1.3626620E-02
2229.308, 1.1776350E-02
2231.236, 1.0726560E-02
2233.165, 1.1204900E-02
2235.093, 1.0496460E-02
2237.021, 9.0750782E-03
2238.950, 1.0181510E-02
2240.878, 1.0300210E-02
2242.807, 1.0719530E-02
2244.735, 1.1461240E-02
2246.664, 1.1276700E-02
2248.592, 1.1189690E-02
2250.521, 1.1466940E-02
2252.449, 1.1420130E-02
2254.378, 1.1341800E-02
2256.306, 1.1421230E-02
2258.235, 1.1613150E-02
2260.163, 1.0558850E-02
2262.092, 1.0525440E-02
2264.020, 1.1303790E-02
2265.948, 1.2731870E-02
2267.877, 1.2985560E-02
2269.805, 1.2104260E-02
2271.734, 1.1305610E-02
2273.662, 1.0764480E-02
2275.591, 1.1023050E-02
2277.519, 1.2842600E-02
2279.448, 1.3688210E-02
2281.376, 1.2507850E-02
2283.305, 1.3579980E-02
2285.233, 1.4785830E-02
2287.162, 1.3470860E-02
2289.090, 1.2639480E-02
2291.019, 1.3511430E-02
2292.947, 1.3275620E-02
2294.875, 1.2011730E-02
2296.804, 1.2236910E-02
2298.732, 1.2508680E-02
2300.661, 1.2140860E-02
2302.589, 1.2634050E-02
2304.518, 1.2996460E-02
2306.446, 1.2262280E-02
2308.375, 1.1843450E-02
2310.303, 1.1739870E-02
2312.232, 1.1907270E-02
2314.160, 1.2001620E-02
2316.089, 1.2451450E-02
2318.017, 1.2723290E-02
2319.946, 1.3281280E-02
2321.874, 1.3671100E-02
2323.802, 1.3414470E-02
2325.731, 1.3020310E-02
2327.659, 1.2139620E-02
2329.588, 1.1748290E-02
2331.516, 1.1427870E-02
2333.445, 1.1161490E-02
2335.373, 1.0992660E-02
2337.302, 1.1587500E-02
2339.230, 1.2550360E-02
2341.159, 1.1820930E-02
2343.087, 1.0893280E-02
2345.016, 1.1145190E-02
2346.944, 1.1359020E-02
2348.873, 1.1429580E-02
2350.801, 1.1164890E-02
2352.729, 1.1301970E-02
2354.658, 1.1920420E-02
2356.586, 1.2483400E-02
2358.515, 1.2399410E-02
2360.443, 1.2192110E-02
2362.372, 1.1526460E-02
2364.300, 1.1624050E-02
2366.229, 1.2016990E-02
2368.157, 1.1883980E-02
2370.086, 1.1812230E-02
2372.014, 1.1301320E-02
2373.942, 1.0519600E-02
2375.871, 1.0183680E-02
2377.799, 1.0202450E-02
2379.728, 1.0667680E-02
2381.656, 1.0475660E-02
2383.585, 1.0036180E-02
2385.513, 1.0604890E-02
2387.442, 1.0379570E-02
2389.370, 1.0492310E-02
2391.299, 1.1123510E-02
2393.227, 1.0814010E-02
2395.156, 1.1281110E-02
2397.084, 1.1569970E-02
2399.012, 1.1001120E-02
2400.941, 1.0200440E-02
2402.869, 1.0691060E-02
2404.798, 1.1336360E-02
2406.726, 1.0584240E-02
2408.655, 1.0573850E-02
2410.583, 1.1555170E-02
2412.512, 1.1815160E-02
2414.440, 1.0556420E-02
2416.369, 1.0739310E-02
2418.297, 1.1364430E-02
2420.226, 1.1203600E-02
2422.154, 1.1504260E-02
2424.083, 1.1904730E-02
2426.011, 1.0693730E-02
2427.939, 1.0501680E-02
2429.868, 1.1149210E-02
2431.796, 1.1077930E-02
2433.725, 1.1148320E-02
2435.653, 1.0912430E-02
2437.582, 1.1243700E-02
2439.510, 1.1506040E-02
2441.439, 1.0644800E-02
2443.367, 1.0203130E-02
2445.296, 1.1482220E-02
2447.224, 1.1360790E-02
2449.153, 1.0434110E-02
2451.081, 1.0642960E-02
2453.010, 1.0909630E-02
2454.938, 1.0809900E-02
2456.866, 1.1091610E-02
2458.795, 1.1160420E-02
2460.723, 1.1762710E-02
2462.652, 1.1072140E-02
2464.580, 1.0318100E-02
2466.509, 1.0892560E-02
2468.437, 1.1303530E-02
2470.366, 1.2304890E-02
2472.294, 1.1966200E-02
2474.223, 1.0455400E-02
2476.151, 9.8793060E-03
2478.080, 9.7637009E-03
2480.008, 1.0053020E-02
2481.937, 1.0474130E-02
2483.865, 1.2294550E-02
2485.793, 1.3043620E-02
2487.722, 1.1448900E-02
2489.650, 1.0253490E-02
2491.579, 1.0371280E-02
2493.507, 1.1337180E-02
2495.436, 1.1806430E-02
2497.364, 1.1009840E-02
2499.293, 1.0727510E-02
2501.221, 1.1053050E-02
2503.150, 1.1095260E-02
2505.078, 1.1575840E-02
2507.007, 1.1805160E-02
2508.935, 1.1026090E-02
2510.864, 1.1028850E-02
2512.792, 1.1176520E-02
2514.720, 1.1153450E-02
2516.649, 1.1340100E-02
2518.577, 1.0884540E-02
2520.506, 1.1078290E-02
2522.434, 1.1290760E-02
2524.363, 1.1041840E-02
2526.291, 1.1019580E-02
2528.220, 9.6650887E-03
2530.148, 9.4378749E-03
2532.077, 1.0692340E-02
2534.005, 1.1361980E-02
2535.934, 1.1805730E-02
2537.862, 1.1401190E-02
2539.791, 1.0956920E-02
2541.719, 1.1837850E-02
2543.647, 1.0678310E-02
2545.576, 1.1117160E-02
2547.504, 1.2341240E-02
2549.433, 1.2115440E-02
2551.361, 1.1780570E-02
2553.290, 1.2809510E-02
2555.218, 1.3055000E-02
2557.147, 1.2059160E-02
2559.075, 1.1473100E-02
2561.004, 1.1206570E-02
2562.932, 1.0974760E-02
2564.861, 1.0956590E-02
2566.789, 1.1555380E-02
2568.718, 1.2187900E-02
2570.646, 1.1303740E-02
2572.574, 1.0544580E-02
2574.503, 1.0774590E-02
2576.431, 1.0679840E-02
2578.360, 1.1069040E-02
2580.288, 1.1547560E-02
2582.217, 1.1671520E-02
2584.145, 1.2392510E-02
2586.074, 1.1914440E-02
2588.002, 1.1922540E-02
2589.931, 1.2462950E-02
2591.859, 1.2902230E-02
2593.788, 1.3526180E-02
2595.716, 1.2693520E-02
2597.645, 1.1244150E-02
2599.573, 1.0873950E-02
2601.501, 1.0926490E-02
2603.430, 1.0496910E-02
2605.358, 1.1856280E-02
2607.287, 1.2646140E-02
2609.215, 1.2936600E-02
2611.144, 1.2755750E-02
2613.072, 1.1612490E-02
2615.001, 1.1047490E-02
2616.929, 1.0975530E-02
2618.858, 1.1279620E-02
2620.786, 1.1610020E-02
2622.715, 1.1829370E-02
2624.643, 1.1055820E-02
2626.572, 1.1879830E-02
2628.500, 1.2930560E-02
2630.428, 1.2531460E-02
2632.357, 1.2174300E-02
2634.285, 1.1686830E-02
2636.214, 1.1188000E-02
2638.142, 1.1762410E-02
2640.071, 1.2026980E-02
2641.999, 1.1977290E-02
2643.928, 1.2306000E-02
2645.856, 1.2164350E-02
2647.785, 1.1785720E-02
2649.713, 1.1707830E-02
2651.642, 1.1647210E-02
2653.570, 1.1654970E-02
2655.499, 1.1989950E-02
2657.427, 1.1962710E-02
2659.355, 1.1907730E-02
2661.284, 1.2073270E-02
2663.212, 1.2128210E-02
2665.141, 1.1369360E-02
2667.069, 1.0991050E-02
2668.998, 1.1007120E-02
2670.926, 1.1135600E-02
2672.855, 1.1756040E-02
2674.783, 1.1016130E-02
2676.712, 1.0576840E-02
2678.640, 1.0580870E-02
2680.569, 1.0895600E-02
2682.497, 1.0583100E-02
2684.426, 1.0429700E-02
2686.354, 1.0818590E-02
2688.282, 1.0912300E-02
2690.211, 1.1186580E-02
2692.139, 1.1402110E-02
2694.068, 1.1277690E-02
2695.996, 1.1162560E-02
2697.925, 1.1151870E-02
2699.853, 1.0914120E-02
2701.782, 1.0857040E-02
2703.710, 1.0749070E-02
2705.639, 1.2025520E-02
2707.567, 1.1534660E-02
2709.496, 1.1167570E-02
2711.424, 1.0815100E-02
2713.353, 1.2620100E-02
2715.281, 1.4760600E-02
2717.209, 1.2947320E-02
2719.138, 1.1188910E-02
2721.066, 1.1452620E-02
2722.995, 1.2540960E-02
2724.923, 1.2915860E-02
2726.852, 1.2838640E-02
2728.780, 1.2901180E-02
2730.709, 1.1837870E-02
2732.637, 1.1246870E-02
2734.566, 1.0878680E-02
2736.494, 1.2652060E-02
2738.423, 1.3700340E-02
2740.351, 1.1747470E-02
2742.280, 1.0290220E-02
2744.208, 1.0254080E-02
2746.136, 1.1117660E-02
2748.065, 1.1987950E-02
2749.993, 1.2520030E-02
2751.922, 1.2664170E-02
2753.850, 1.2855900E-02
2755.779, 1.2270840E-02
2757.707, 1.1746240E-02
2759.636, 1.1630570E-02
2761.564, 1.3291330E-02
2763.493, 1.4416730E-02
2765.421, 1.3671630E-02
2767.350, 1.2872440E-02
2769.278, 1.2560720E-02
2771.207, 1.2917080E-02
2773.135, 1.2456480E-02
2775.063, 1.1858530E-02
2776.992, 1.2082750E-02
2778.920, 1.2981600E-02
2780.849, 1.3697300E-02
2782.777, 1.3466570E-02
2784.706, 1.2585850E-02
2786.634, 1.2359000E-02
2788.563, 1.1451790E-02
2790.491, 1.1499180E-02
2792.420, 1.1846510E-02
2794.348, 1.2035800E-02
2796.277, 1.2017680E-02
2798.205, 1.2228420E-02
2800.134, 1.2316340E-02
2802.062, 1.2803740E-02
2803.990, 1.2212650E-02
2805.919, 1.1550920E-02
2807.847, 1.2830480E-02
2809.776, 1.2960940E-02
2811.704, 1.1938740E-02
2813.633, 1.2461900E-02
2815.561, 1.1921320E-02
2817.490, 1.1229490E-02
2819.418, 1.1611320E-02
2821.347, 1.2482590E-02
2823.275, 1.3144560E-02
2825.204, 1.2983010E-02
2827.132, 1.1585530E-02
2829.061, 1.1121630E-02
2830.989, 1.2111170E-02
2832.917, 1.1757450E-02
2834.846, 9.9610686E-03
2836.774, 1.0377930E-02
2838.703, 1.1971530E-02
2840.631, 1.0642990E-02
2842.560, 9.4668092E-03
2844.488, 9.9506192E-03
2846.417, 1.1539290E-02
2848.345, 1.2327160E-02
2850.274, 1.2458040E-02
2852.202, 1.1773670E-02
2854.131, 1.1431130E-02
2856.059, 1.1837460E-02
2857.988, 1.3163930E-02
2859.916, 1.3379950E-02
2861.844, 1.2499200E-02
2863.773, 1.2320700E-02
2865.701, 1.0962480E-02
2867.630, 9.5181167E-03
2869.558, 9.0601370E-03
2871.487, 1.0334430E-02
2873.415, 1.1150610E-02
2875.344, 1.0424600E-02
2877.272, 1.0357810E-02
2879.201, 1.0858070E-02
2881.129, 1.2259510E-02
2883.058, 1.1189470E-02
2884.986, 1.0263550E-02
2886.915, 9.8580960E-03
2888.843, 1.0249390E-02
2890.771, 1.0033500E-02
2892.700, 9.1943974E-03
2894.628, 8.7335743E-03
2896.557, 9.4426544E-03
2898.485, 1.0673760E-02
2900.414, 1.1358080E-02
2902.342, 9.8716607E-03
2904.271, 8.4613878E-03
2906.199, 9.6105132E-03
2908.128, 1.1316950E-02
2910.056, 1.1651970E-02
2911.985, 1.2296900E-02
2913.913, 1.2691670E-02
2915.842, 1.1196240E-02
2917.770, 1.1727340E-02
2919.698, 1.4243920E-02
2921.627, 1.3344990E-02
2923.555, 1.1158360E-02
2925.484, 1.1547260E-02
2927.412, 1.1863640E-02
2929.341, 1.3645430E-02
2931.269, 1.3555500E-02
2933.198, 1.3354050E-02
2935.126, 1.3836840E-02
2937.055, 1.2887560E-02
2938.983, 1.2850690E-02
2940.912, 1.3964510E-02
2942.840, 1.3608610E-02
2944.769, 1.1947550E-02
2946.697, 1.0415570E-02
2948.625, 1.0339480E-02
2950.554, 1.0724240E-02
2952.482, 1.0476780E-02
2954.411, 1.0233550E-02
2956.339, 1.2016180E-02
2958.268, 1.3793240E-02
2960.196, 1.3212210E-02
2962.125, 1.3464210E-02
2964.053, 1.4574410E-02
2965.982, 1.3591470E-02
2967.910, 1.3180120E-02
2969.839, 1.3145190E-02
2971.767, 1.3850810E-02
2973.696, 1.1880860E-02
2975.624, 1.1939920E-02
2977.552, 1.3105900E-02
2979.481, 1.3636950E-02
2981.409, 1.3140950E-02
2983.338, 1.3909780E-02
2985.266, 1.5440050E-02
2987.195, 1.5767980E-02
2989.123, 1.5337320E-02
2991.052, 1.4407410E-02
2992.980, 1.4258460E-02
2994.909, 1.3661250E-02
2996.837, 1.4306240E-02
2998.766, 1.5604000E-02
3000.694, 1.5490500E-02
3002.623, 1.6017079E-02
3004.551, 1.8303430E-02
3006.479, 1.8119911E-02
3008.408, 1.6170690E-02
3010.336, 1.5684949E-02
3012.265, 1.4855840E-02
3014.193, 1.4258000E-02
3016.122, 1.4664570E-02
3018.050, 1.5937600E-02
3019.979, 1.5545170E-02
3021.907, 1.6080920E-02
3023.836, 1.7063310E-02
3025.764, 1.6348541E-02
3027.693, 1.4814180E-02
3029.621, 1.4634880E-02
3031.550, 1.2489690E-02
3033.478, 1.2259280E-02
3035.406, 1.4425630E-02
3037.335, 1.2851620E-02
3039.263, 1.1496600E-02
3041.192, 1.3305150E-02
3043.120, 1.4552830E-02
3045.049, 1.3583420E-02
3046.977, 1.3035690E-02
3048.906, 1.3277840E-02
3050.834, 1.3480000E-02
3052.763, 1.4282400E-02
3054.691, 1.4775830E-02
3056.620, 1.5346040E-02
3058.548, 1.6596440E-02
3060.477, 1.5428730E-02
3062.405, 1.3860110E-02
3064.333, 1.2380610E-02
3066.262, 1.3163680E-02
3068.190, 1.4978460E-02
3070.119, 1.2904760E-02
3072.047, 1.2298320E-02
3073.976, 1.3068730E-02
3075.904, 1.3231430E-02
3077.833, 1.4867050E-02
3079.761, 1.6050169E-02
3081.690, 1.6375059E-02
3083.618, 1.6058620E-02
3085.547, 1.4743770E-02
3087.475, 1.4982920E-02
3089.404, 1.5719689E-02
3091.332, 1.4961090E-02
3093.260, 1.5067040E-02
3095.189, 1.4585950E-02
3097.117, 1.3077540E-02
3099.046, 1.5112530E-02
3100.974, 1.7499300E-02
3102.903, 1.8386619E-02
3104.831, 1.5293530E-02
3106.760, 1.2545870E-02
3108.688, 1.3616380E-02
3110.617, 1.4559920E-02
3112.545, 1.5685290E-02
3114.474, 1.5251050E-02
3116.402, 1.3203940E-02
3118.331, 1.2175710E-02
3120.259, 1.3471400E-02
3122.188, 1.4633870E-02
3124.116, 1.3107050E-02
3126.044, 1.3626970E-02
3127.973, 1.4146830E-02
3129.901, 1.2793200E-02
3131.830, 1.3022410E-02
3133.758, 1.2724260E-02
3135.687, 1.4023090E-02
3137.615, 1.5274490E-02
3139.544, 1.4147340E-02
3141.472, 1.4107320E-02
3143.401, 1.4789650E-02
3145.329, 1.5242150E-02
3147.258, 1.5718181E-02
3149.186, 1.5567890E-02
3151.115, 1.5535280E-02
3153.043, 1.3821940E-02
3154.971, 1.3084550E-02
3156.900, 1.4994640E-02
3158.828, 1.6664211E-02
3160.757, 1.5817041E-02
3162.685, 1.4015800E-02
3164.614, 1.3010210E-02
3166.542, 1.2599300E-02
3168.471, 1.2635900E-02
3170.399, 1.2473230E-02
3172.328, 1.1911660E-02
3174.256, 1.3820910E-02
3176.185, 1.5756710E-02
3178.113, 1.5440170E-02
3180.042, 1.5234630E-02
3181.970, 1.5919359E-02
3183.898, 1.4983060E-02
3185.827, 1.4147900E-02
3187.755, 1.3933880E-02
3189.684, 1.3483660E-02
3191.612, 1.3616220E-02
3193.541, 1.4337170E-02
3195.469, 1.5181910E-02
3197.398, 1.5708171E-02
3199.326, 1.2005230E-02
3201.255, 9.9512124E-03
3203.183, 1.0852650E-02
3205.112, 1.1996520E-02
3207.040, 1.3470010E-02
3208.969, 1.4184600E-02
3210.897, 1.3996350E-02
3212.825, 1.3857770E-02
3214.754, 1.4076750E-02
3216.682, 1.3572710E-02
3218.611, 1.3555650E-02
3220.539, 1.4455360E-02
3222.468, 1.3393580E-02
3224.396, 1.3312720E-02
3226.325, 1.3144450E-02
3228.253, 1.2200100E-02
3230.182, 1.1783150E-02
3232.110, 1.0987460E-02
3234.039, 1.2512000E-02
3235.967, 1.2912650E-02
3237.896, 1.3342780E-02
3239.824, 1.5303000E-02
3241.752, 1.5216120E-02
3243.681, 1.4827370E-02
3245.609, 1.6511800E-02
3247.538, 1.4759640E-02
3249.466, 1.1699110E-02
3251.395, 1.1926800E-02
3253.323, 1.1776470E-02
3255.252, 1.3059700E-02
3257.180, 1.3399160E-02
3259.109, 1.3295680E-02
3261.037, 1.3097420E-02
3262.966, 1.2890760E-02
3264.894, 1.2733870E-02
3266.823, 1.3946380E-02
3268.751, 1.5361350E-02
3270.679, 1.3389380E-02
3272.608, 1.2730370E-02
3274.536, 1.3911920E-02
3276.465, 1.3767520E-02
3278.393, 1.3652680E-02
3280.322, 1.2897030E-02
3282.250, 1.2273840E-02
3284.179, 1.3746640E-02
3286.107, 1.3925240E-02
3288.036, 1.3027730E-02
3289.964, 1.3071350E-02
3291.893, 1.3492070E-02
3293.821, 1.3833620E-02
3295.750, 1.1829410E-02
3297.678, 1.0977570E-02
3299.606, 1.3294590E-02
3301.535, 1.5127210E-02
3303.463, 1.5225200E-02
3305.392, 1.4196860E-02
3307.320, 1.4829480E-02
3309.249, 1.6239710E-02
3311.177, 1.6195919E-02
3313.106, 1.3838460E-02
3315.034, 1.1339210E-02
3316.963, 1.2105250E-02
3318.891, 1.3092280E-02
3320.820, 1.3094780E-02
3322.748, 1.4067390E-02
3324.677, 1.5223670E-02
3326.605, 1.6147429E-02
3328.533, 1.5922150E-02
3330.462, 1.5914191E-02
3332.390, 1.4680870E-02
3334.319, 1.4696060E-02
3336.247, 1.7268110E-02
3338.176, 1.7236110E-02
3340.104, 1.4568620E-02
3342.033, 1.4026820E-02
3343.961, 1.4341260E-02
3345.890, 1.2822930E-02
3347.818, 1.1730220E-02
3349.747, 1.2263400E-02
3351.675, 1.2802980E-02
3353.604, 1.3218780E-02
3355.532, 1.4532930E-02
3357.460, 1.4868520E-02
3359.389, 1.4630700E-02
3361.317, 1.4762850E-02
3363.246, 1.3591040E-02
3365.174, 1.2767930E-02
3367.103, 1.4391380E-02
3369.031, 1.4908140E-02
3370.960, 1.1853530E-02
3372.888, 9.1170976E-03
3374.817, 1.0742700E-02
3376.745, 1.2595260E-02
3378.674, 1.1744550E-02
3380.602, 1.0898220E-02
3382.531, 1.1451260E-02
3384.459, 1.2163190E-02
3386.387, 1.1672740E-02
3388.316, 1.0456030E-02
3390.244, 1.1271570E-02
3392.173, 1.2675480E-02
3394.101, 1.2907640E-02
3396.030, 1.3895940E-02
3397.958, 1.4739770E-02
3399.887, 1.3919340E-02
3401.815, 1.2499600E-02
3403.744, 1.2595410E-02
3405.672, 1.2803430E-02
3407.601, 1.3351530E-02
3409.529, 1.3391120E-02
3411.458, 1.5113580E-02
3413.386, 1.6070660E-02
3415.314, 1.5864920E-02
3417.243, 1.5745251E-02
3419.171, 1.4042900E-02
3421.100, 1.2604420E-02
3423.028, 1.1683120E-02
3424.957, 1.2005070E-02
3426.885, 1.2185260E-02
3428.814, 1.3215700E-02
3430.742, 1.1811650E-02
3432.671, 1.0784450E-02
3434.599, 1.0837280E-02
3436.528, 1.2258010E-02
3438.456, 1.1666420E-02
3440.385, 1.1123330E-02
3442.313, 1.1048670E-02
3444.241, 1.1114410E-02
3446.170, 1.3240890E-02
3448.098, 1.4518820E-02
3450.027, 1.1830570E-02
3451.955, 9.3374941E-03
3453.884, 8.8091725E-03
3455.812, 1.0831780E-02
3457.741, 1.2815210E-02
3459.669, 1.4065860E-02
3461.598, 1.5363410E-02
3463.526, 1.7003771E-02
3465.455, 1.5574840E-02
3467.383, 1.3453260E-02
3469.312, 1.3508410E-02
3471.240, 1.2375800E-02
3473.168, 1.2889450E-02
3475.097, 1.5460200E-02
3477.025, 1.6351650E-02
3478.954, 1.4085970E-02
3480.882, 1.3814050E-02
3482.811, 1.4532620E-02
3484.739, 1.5505890E-02
3486.668, 1.3721250E-02
3488.596, 1.3172900E-02
3490.525, 1.7006019E-02
3492.453, 1.8043941E-02
3494.382, 1.4406380E-02
3496.310, 1.2971830E-02
3498.239, 1.4634450E-02
3500.167, 1.5062720E-02
3502.095, 1.3847770E-02
3504.024, 1.3205270E-02
3505.952, 1.3551460E-02
3507.881, 1.6397120E-02
3509.809, 1.8460460E-02
3511.738, 1.7328840E-02
3513.666, 1.7973529E-02
3515.595, 2.1067880E-02
3517.523, 1.9417930E-02
3519.452, 1.6469130E-02
3521.380, 1.5555070E-02
3523.309, 1.6124230E-02
3525.237, 1.6652649E-02
3527.166, 1.5483700E-02
3529.094, 1.4935200E-02
3531.022, 1.5872840E-02
3532.951, 1.6343340E-02
3534.879, 1.5514720E-02
3536.808, 1.3686450E-02
3538.736, 1.4091570E-02
3540.665, 1.5255960E-02
3542.593, 1.6222101E-02
3544.522, 1.6517350E-02
3546.450, 1.6454959E-02
3548.379, 1.4282800E-02
3550.307, 1.4125780E-02
3552.236, 1.5335770E-02
3554.164, 1.7171260E-02
3556.093, 1.8662039E-02
3558.021, 1.8988520E-02
3559.949, 1.8330481E-02
3561.878, 1.8729310E-02
3563.806, 1.6927719E-02
3565.735, 1.4605610E-02
3567.663, 1.5856840E-02
3569.592, 1.6952209E-02
3571.520, 1.5256600E-02
3573.449, 1.6065231E-02
3575.377, 1.6769631E-02
3577.306, 1.6651791E-02
3579.234, 1.8185090E-02
3581.163, 1.8653570E-02
3583.091, 1.8135620E-02
3585.020, 1.7439369E-02
3586.948, 1.7384941E-02
3588.876, 1.8900760E-02
3590.805, 1.7395809E-02
3592.733, 1.4495340E-02
3594.662, 1.4925020E-02
3596.590, 1.6233809E-02
3598.519, 1.7738130E-02
3600.447, 1.8362280E-02
3602.376, 1.9604100E-02
3604.304, 2.1459280E-02
3606.233, 2.0827770E-02
3608.161, 1.8243400E-02
3610.090, 1.7334661E-02
3612.018, 1.9461470E-02
3613.947, 2.1103499E-02
3615.875, 1.9314131E-02
3617.803, 1.8179860E-02
3619.732, 1.7221130E-02
3621.660, 1.7742980E-02
3623.589, 1.7118219E-02
3625.517, 1.5697880E-02
3627.446, 1.7459201E-02
3629.374, 1.8643649E-02
3631.303, 1.9359879E-02
3633.231, 1.9442189E-02
3635.160, 1.7883791E-02
3637.088, 1.7137529E-02
3639.017, 1.6102839E-02
3640.945, 1.3801710E-02
3642.874, 1.5147740E-02
3644.802, 1.8373560E-02
3646.730, 1.9283479E-02
3648.659, 1.7001281E-02
3650.587, 1.5787620E-02
3652.516, 1.7031850E-02
3654.444, 1.7652690E-02
3656.373, 1.6229460E-02
3658.301, 1.4152070E-02
3660.230, 1.3712960E-02
3662.158, 1.3687260E-02
3664.087, 1.4347050E-02
3666.015, 1.6152371E-02
3667.944, 1.8873760E-02
3669.872, 2.0205259E-02
3671.801, 2.0168809E-02
3673.729, 1.4912190E-02
3675.657, 1.4371090E-02
3677.586, 1.6532170E-02
3679.514, 1.5003610E-02
3681.443, 1.3673220E-02
3683.371, 1.3910460E-02
3685.300, 1.5375450E-02
3687.228, 1.6649211E-02
3689.157, 1.6227409E-02
3691.085, 1.4936970E-02
3693.014, 1.7135980E-02
3694.942, 1.8411569E-02
3696.871, 1.6022170E-02
3698.799, 1.6063331E-02
3700.728, 1.8295901E-02
3702.656, 1.9955041E-02
3704.584, 1.9970659E-02
3706.513, 1.8860960E-02
3708.441, 1.5505990E-02
3710.370, 1.2527800E-02
3712.298, 1.0841110E-02
3714.227, 1.1824720E-02
3716.155, 1.4546210E-02
3718.084, 1.7666129E-02
3720.012, 1.6629361E-02
3721.941, 1.6202951E-02
3723.869, 1.5707171E-02
3725.798, 1.3626300E-02
3727.726, 1.4457650E-02
3729.655, 1.5736440E-02
3731.583, 2.0072261E-02
3733.511, 2.1269420E-02
3735.440, 1.9856811E-02
3737.368, 1.7916519E-02
3739.297, 1.6875559E-02
3741.225, 1.6047889E-02
3743.154, 1.7251300E-02
3745.082, 1.7224571E-02
3747.011, 1.7632380E-02
3748.939, 1.7226489E-02
3750.868, 1.7386461E-02
3752.796, 1.6468780E-02
3754.725, 1.6487669E-02
3756.653, 1.4862740E-02
3758.582, 1.5008120E-02
3760.510, 1.7210530E-02
3762.438, 1.6016001E-02
3764.367, 1.7394070E-02
3766.295, 2.0868851E-02
3768.224, 1.9310160E-02
3770.152, 1.7544160E-02
3772.081, 1.7019220E-02
3774.009, 1.6399430E-02
3775.938, 1.6878730E-02
3777.866, 1.7842490E-02
3779.795, 1.8262111E-02
3781.723, 1.7234171E-02
3783.652, 1.4875940E-02
3785.580, 1.7534690E-02
3787.509, 1.8262841E-02
3789.437, 1.3988460E-02
3791.365, 1.3767160E-02
3793.294, 1.6888641E-02
3795.222, 1.7042439E-02
3797.151, 1.8061530E-02
3799.079, 1.9197119E-02
3801.008, 1.7184351E-02
3802.936, 1.7882040E-02
3804.865, 1.6588651E-02
3806.793, 1.6475771E-02
3808.722, 1.8087599E-02
3810.650, 1.8180121E-02
3812.579, 1.7454449E-02
3814.507, 1.9536210E-02
3816.436, 2.0811399E-02
3818.364, 2.0016391E-02
3820.292, 1.9009929E-02
3822.221, 1.9090241E-02
3824.149, 1.7336600E-02
3826.078, 1.7569030E-02
3828.006, 1.7707741E-02
3829.935, 1.5467350E-02
3831.863, 1.5539980E-02
3833.792, 1.7840300E-02
3835.720, 2.0843981E-02
3837.649, 2.0597471E-02
3839.577, 1.7928950E-02
3841.506, 2.0668181E-02
3843.434, 2.1800930E-02
3845.363, 1.8310690E-02
3847.291, 1.3538760E-02
3849.219, 1.4054920E-02
3851.148, 1.6806930E-02
3853.076, 1.6936829E-02
3855.005, 1.4914940E-02
3856.933, 1.4179490E-02
3858.862, 1.5612690E-02
3860.790, 1.5140490E-02
3862.719, 1.5262490E-02
3864.647, 1.5470670E-02
3866.576, 1.6871670E-02
3868.504, 1.9828839E-02
3870.433, 1.9318840E-02
3872.361, 1.6236201E-02
3874.290, 1.5841100E-02
3876.218, 1.5556520E-02
3878.146, 1.5541570E-02
3880.075, 1.5381400E-02
3882.003, 1.5273140E-02
3883.932, 1.6288100E-02
3885.860, 1.6832540E-02
3887.789, 1.4916370E-02
3889.717, 1.4781780E-02
3891.646, 1.6102901E-02
3893.574, 1.4325910E-02
3895.503, 1.6402310E-02
3897.431, 2.1590101E-02
3899.360, 2.3216629E-02
3901.288, 2.2118749E-02
3903.217, 2.1445191E-02
3905.145, 1.8084981E-02
3907.073, 1.3539290E-02
3909.002, 1.5513070E-02
3910.930, 1.8098280E-02
3912.859, 1.7470481E-02
3914.787, 1.6921161E-02
3916.716, 1.3799560E-02
3918.644, 1.1121660E-02
3920.573, 1.2189200E-02
3922.501, 1.4064980E-02
3924.430, 1.4308170E-02
3926.358, 1.5538360E-02
3928.287, 1.4704630E-02
3930.215, 1.3377580E-02
3932.144, 1.6582500E-02
3934.072, 1.7317090E-02
3936.000, 1.3824640E-02
3937.929, 1.4414100E-02
3939.857, 1.6036980E-02
3941.786, 1.8881680E-02
3943.714, 2.0930750E-02
3945.643, 1.8757010E-02
3947.571, 1.7127730E-02
3949.500, 1.5167000E-02
3951.428, 1.4519230E-02
3953.357, 1.4230690E-02
3955.285, 1.3466740E-02
3957.214, 1.3857250E-02
3959.142, 1.3157430E-02
3961.071, 1.6710591E-02
3962.999, 1.9705171E-02
3964.927, 1.7232230E-02
3966.856, 1.5454190E-02
3968.784, 1.0909390E-02
3970.713, 8.8195279E-03
3972.641, 1.2157800E-02
3974.570, 1.5760520E-02
3976.498, 1.8370271E-02
3978.427, 1.6056260E-02
3980.355, 1.5152970E-02
3982.284, 1.9868059E-02
3984.212, 1.9394740E-02
3986.141, 1.5525050E-02
3988.069, 1.5951671E-02
3989.998, 1.4540430E-02
3991.926, 1.2643920E-02
3993.854, 1.5978690E-02
3995.783, 1.7713791E-02
3997.711, 1.6162699E-02
3999.640, 1.6170500E-02
##END=



