##NAMES=Grossular
##RRUFFID=R050081
##IDEAL CHEMISTRY=Ca_3_Al_2_(SiO_4_)_3_
##LOCALITY=Kayes Region, Mali
##OWNER=RRUFF
##SOURCE=Rock Currier
##DESCRIPTION=Dark brown dodecahedron
##STATUS=The identification of this mineral has been confirmed by X-ray diffraction and chemical analysis
##URL=rruff.info/R050081
##MEASURED CHEMISTRY=(Ca_2.92_Mg_0.07_Mn_0.01_)_Σ=3_(Al_1.04_Fe^3+^_0.89_Ti_0.07_)_Σ=2_((Si_0.98_Al_0.02_)_Σ=1_O_4_)_3_; trace amounts of Y
3.991926e+002, 2.083426e-001
4.011211e+002, 2.175243e-001
4.030495e+002, 2.156970e-001
4.049780e+002, 2.108008e-001
4.069065e+002, 2.168911e-001
4.088349e+002, 2.261268e-001
4.107634e+002, 2.243926e-001
4.126919e+002, 2.189881e-001
4.146203e+002, 2.144887e-001
4.165488e+002, 2.122731e-001
4.184773e+002, 2.092458e-001
4.204057e+002, 2.030729e-001
4.223342e+002, 1.991848e-001
4.242627e+002, 1.974371e-001
4.261911e+002, 1.919986e-001
4.281196e+002, 1.854443e-001
4.300481e+002, 1.815051e-001
4.319765e+002, 1.787585e-001
4.339050e+002, 1.753084e-001
4.358335e+002, 1.712430e-001
4.377619e+002, 1.675163e-001
4.396904e+002, 1.652425e-001
4.416189e+002, 1.632512e-001
4.435473e+002, 1.616924e-001
4.454758e+002, 1.632472e-001
4.474043e+002, 1.668563e-001
4.493327e+002, 1.686630e-001
4.512612e+002, 1.685603e-001
4.531897e+002, 1.661390e-001
4.551181e+002, 1.620214e-001
4.570466e+002, 1.565814e-001
4.589751e+002, 1.496461e-001
4.609035e+002, 1.426088e-001
4.628320e+002, 1.364667e-001
4.647605e+002, 1.301607e-001
4.666889e+002, 1.242619e-001
4.686174e+002, 1.181668e-001
4.705459e+002, 1.124910e-001
4.724743e+002, 1.068447e-001
4.744028e+002, 1.011913e-001
4.763313e+002, 9.671725e-002
4.782597e+002, 9.367187e-002
4.801882e+002, 9.193025e-002
4.821167e+002, 9.141029e-002
4.840451e+002, 9.211544e-002
4.859736e+002, 9.302136e-002
4.879021e+002, 9.284739e-002
4.898305e+002, 9.041800e-002
4.917590e+002, 8.546226e-002
4.936875e+002, 7.946249e-002
4.956159e+002, 7.321109e-002
4.975444e+002, 6.779148e-002
4.994729e+002, 6.416290e-002
5.014013e+002, 6.238502e-002
5.033298e+002, 6.243327e-002
5.052583e+002, 6.478904e-002
5.071867e+002, 6.968563e-002
5.091152e+002, 7.661343e-002
5.110437e+002, 8.452661e-002
5.129721e+002, 9.416671e-002
5.149006e+002, 1.052141e-001
5.168290e+002, 1.154055e-001
5.187575e+002, 1.224657e-001
5.206860e+002, 1.263757e-001
5.226144e+002, 1.274774e-001
5.245429e+002, 1.250969e-001
5.264714e+002, 1.194952e-001
5.283998e+002, 1.119809e-001
5.303283e+002, 1.032878e-001
5.322568e+002, 9.399404e-002
5.341852e+002, 8.532190e-002
5.361137e+002, 7.660675e-002
5.380422e+002, 6.784086e-002
5.399706e+002, 6.036836e-002
5.418991e+002, 5.388372e-002
5.438276e+002, 4.813580e-002
5.457560e+002, 4.333463e-002
5.476845e+002, 3.937439e-002
5.496130e+002, 3.635835e-002
5.515414e+002, 3.429452e-002
5.534699e+002, 3.286679e-002
5.553984e+002, 3.147833e-002
5.573268e+002, 3.021291e-002
5.592553e+002, 2.919270e-002
5.611838e+002, 2.815178e-002
5.631122e+002, 2.741867e-002
5.650407e+002, 2.686795e-002
5.669692e+002, 2.639089e-002
5.688976e+002, 2.570053e-002
5.708261e+002, 2.456119e-002
5.727546e+002, 2.360244e-002
5.746830e+002, 2.328553e-002
5.766115e+002, 2.276686e-002
5.785400e+002, 2.245156e-002
5.804684e+002, 2.274776e-002
5.823969e+002, 2.327470e-002
5.843254e+002, 2.414163e-002
5.862538e+002, 2.559568e-002
5.881823e+002, 2.769066e-002
5.901108e+002, 3.040016e-002
5.920392e+002, 3.348264e-002
5.939677e+002, 3.703399e-002
5.958962e+002, 4.111542e-002
5.978246e+002, 4.552089e-002
5.997531e+002, 4.943597e-002
6.016816e+002, 5.167830e-002
6.036100e+002, 5.166239e-002
6.055385e+002, 4.966895e-002
6.074670e+002, 4.662338e-002
6.093954e+002, 4.317522e-002
6.113239e+002, 3.976314e-002
6.132524e+002, 3.709295e-002
6.151808e+002, 3.494429e-002
6.171093e+002, 3.312669e-002
6.190378e+002, 3.164811e-002
6.209662e+002, 3.034666e-002
6.228947e+002, 2.928457e-002
6.248232e+002, 2.865749e-002
6.267516e+002, 2.826411e-002
6.286801e+002, 2.805998e-002
6.306086e+002, 2.849107e-002
6.325370e+002, 2.940362e-002
6.344655e+002, 3.057471e-002
6.363940e+002, 3.195180e-002
6.383224e+002, 3.342796e-002
6.402509e+002, 3.501313e-002
6.421794e+002, 3.662509e-002
6.441078e+002, 3.813733e-002
6.460363e+002, 3.946328e-002
6.479648e+002, 4.062733e-002
6.498932e+002, 4.178283e-002
6.518217e+002, 4.292765e-002
6.537502e+002, 4.415718e-002
6.556786e+002, 4.538194e-002
6.576071e+002, 4.649062e-002
6.595356e+002, 4.742448e-002
6.614641e+002, 4.848913e-002
6.633925e+002, 4.971356e-002
6.653210e+002, 5.098874e-002
6.672495e+002, 5.206313e-002
6.691779e+002, 5.287004e-002
6.711064e+002, 5.365019e-002
6.730349e+002, 5.457399e-002
6.749633e+002, 5.546435e-002
6.768918e+002, 5.653274e-002
6.788203e+002, 5.779364e-002
6.807487e+002, 5.906492e-002
6.826772e+002, 6.055935e-002
6.846057e+002, 6.228517e-002
6.865341e+002, 6.408930e-002
6.884626e+002, 6.606975e-002
6.903911e+002, 6.846351e-002
6.923195e+002, 7.095671e-002
6.942480e+002, 7.353332e-002
6.961765e+002, 7.623959e-002
6.981049e+002, 7.897944e-002
7.000334e+002, 8.181597e-002
7.019619e+002, 8.438509e-002
7.038903e+002, 8.660422e-002
7.058188e+002, 8.867890e-002
7.077473e+002, 9.051602e-002
7.096757e+002, 9.231827e-002
7.116042e+002, 9.420544e-002
7.135327e+002, 9.634288e-002
7.154611e+002, 9.860515e-002
7.173896e+002, 1.010666e-001
7.193181e+002, 1.037066e-001
7.212465e+002, 1.062971e-001
7.231750e+002, 1.092750e-001
7.251035e+002, 1.124381e-001
7.270319e+002, 1.154161e-001
7.289604e+002, 1.183663e-001
7.308889e+002, 1.214191e-001
7.328173e+002, 1.245310e-001
7.347458e+002, 1.273937e-001
7.366743e+002, 1.298555e-001
7.386027e+002, 1.318737e-001
7.405312e+002, 1.334538e-001
7.424597e+002, 1.343889e-001
7.443881e+002, 1.346764e-001
7.463166e+002, 1.343478e-001
7.482451e+002, 1.336018e-001
7.501735e+002, 1.329534e-001
7.521020e+002, 1.326828e-001
7.540305e+002, 1.332472e-001
7.559589e+002, 1.349070e-001
7.578874e+002, 1.370493e-001
7.598159e+002, 1.394142e-001
7.617443e+002, 1.421206e-001
7.636728e+002, 1.446222e-001
7.656013e+002, 1.471578e-001
7.675297e+002, 1.499152e-001
7.694582e+002, 1.524766e-001
7.713867e+002, 1.551087e-001
7.733151e+002, 1.581065e-001
7.752436e+002, 1.615522e-001
7.771721e+002, 1.650271e-001
7.791005e+002, 1.684034e-001
7.810290e+002, 1.718678e-001
7.829575e+002, 1.752030e-001
7.848859e+002, 1.784700e-001
7.868144e+002, 1.817855e-001
7.887429e+002, 1.851946e-001
7.906713e+002, 1.884209e-001
7.925998e+002, 1.912985e-001
7.945283e+002, 1.940257e-001
7.964567e+002, 1.966309e-001
7.983852e+002, 1.987906e-001
8.003137e+002, 2.004933e-001
8.022421e+002, 2.017542e-001
8.041706e+002, 2.026404e-001
8.060991e+002, 2.034353e-001
8.080275e+002, 2.040518e-001
8.099560e+002, 2.042662e-001
8.118845e+002, 2.042298e-001
8.138129e+002, 2.038624e-001
8.157414e+002, 2.031846e-001
8.176699e+002, 2.021304e-001
8.195983e+002, 2.006756e-001
8.215268e+002, 1.989978e-001
8.234553e+002, 1.971647e-001
8.253837e+002, 1.951407e-001
8.273122e+002, 1.929421e-001
8.292407e+002, 1.908246e-001
8.311691e+002, 1.892170e-001
8.330976e+002, 1.878255e-001
8.350261e+002, 1.867832e-001
8.369545e+002, 1.858330e-001
8.388830e+002, 1.843086e-001
8.408115e+002, 1.824834e-001
8.427399e+002, 1.803574e-001
8.446684e+002, 1.776320e-001
8.465969e+002, 1.741893e-001
8.485253e+002, 1.703012e-001
8.504538e+002, 1.659312e-001
8.523823e+002, 1.609217e-001
8.543107e+002, 1.554597e-001
8.562392e+002, 1.499594e-001
8.581677e+002, 1.446536e-001
8.600961e+002, 1.393388e-001
8.620246e+002, 1.342057e-001
8.639531e+002, 1.296118e-001
8.658815e+002, 1.254938e-001
8.678100e+002, 1.218244e-001
8.697385e+002, 1.189048e-001
8.716669e+002, 1.168527e-001
8.735954e+002, 1.158458e-001
8.755239e+002, 1.162237e-001
8.774523e+002, 1.182691e-001
8.793808e+002, 1.222794e-001
8.813093e+002, 1.285123e-001
8.832377e+002, 1.365804e-001
8.851662e+002, 1.454722e-001
8.870947e+002, 1.541223e-001
8.890231e+002, 1.616044e-001
8.909516e+002, 1.670918e-001
8.928801e+002, 1.706516e-001
8.948085e+002, 1.725744e-001
8.967370e+002, 1.728860e-001
8.986655e+002, 1.714792e-001
9.005939e+002, 1.689067e-001
9.025224e+002, 1.653956e-001
9.044509e+002, 1.609687e-001
9.063793e+002, 1.562018e-001
9.083078e+002, 1.513608e-001
9.102363e+002, 1.467289e-001
9.121647e+002, 1.424252e-001
9.140932e+002, 1.386619e-001
9.160217e+002, 1.354903e-001
9.179501e+002, 1.327563e-001
9.198786e+002, 1.306713e-001
9.218071e+002, 1.289618e-001
9.237355e+002, 1.271197e-001
9.256640e+002, 1.248304e-001
9.275925e+002, 1.220381e-001
9.295209e+002, 1.185613e-001
9.314494e+002, 1.144633e-001
9.333779e+002, 1.105183e-001
9.353063e+002, 1.067677e-001
9.372348e+002, 1.032751e-001
9.391633e+002, 1.001339e-001
9.410917e+002, 9.713862e-002
9.430202e+002, 9.413095e-002
9.449487e+002, 9.116828e-002
9.468771e+002, 8.799040e-002
9.488056e+002, 8.434083e-002
9.507341e+002, 8.023352e-002
9.526625e+002, 7.557370e-002
9.545910e+002, 7.061648e-002
9.565195e+002, 6.570161e-002
9.584479e+002, 6.109452e-002
9.603764e+002, 5.712256e-002
9.623049e+002, 5.363338e-002
9.642333e+002, 5.037379e-002
9.661618e+002, 4.716529e-002
9.680903e+002, 4.406821e-002
9.700187e+002, 4.105562e-002
9.719472e+002, 3.812676e-002
9.738757e+002, 3.538644e-002
9.758041e+002, 3.281732e-002
9.777326e+002, 3.039253e-002
9.796611e+002, 2.816713e-002
9.815895e+002, 2.603723e-002
9.835180e+002, 2.408099e-002
9.854465e+002, 2.228376e-002
9.873749e+002, 2.064485e-002
9.893034e+002, 1.918090e-002
9.912319e+002, 1.799800e-002
9.931603e+002, 1.682235e-002
9.950888e+002, 1.561737e-002
9.970173e+002, 1.461668e-002
9.989457e+002, 1.383416e-002
1.000874e+003, 1.290385e-002
1.002803e+003, 1.191145e-002
1.004731e+003, 1.093280e-002
1.006660e+003, 9.909472e-003
1.008588e+003, 8.921848e-003
1.010517e+003, 8.082893e-003
1.012445e+003, 7.448988e-003
1.014373e+003, 6.991203e-003
1.016302e+003, 6.545973e-003
1.018230e+003, 6.140563e-003
1.020159e+003, 5.900311e-003
1.022087e+003, 5.771496e-003
1.024016e+003, 5.565334e-003
1.025944e+003, 5.374837e-003
1.027873e+003, 5.170410e-003
1.029801e+003, 4.954448e-003
1.031730e+003, 4.787784e-003
1.033658e+003, 4.547523e-003
1.035587e+003, 4.350264e-003
1.037515e+003, 4.217286e-003
1.039443e+003, 4.104785e-003
1.041372e+003, 3.885813e-003
1.043300e+003, 3.772734e-003
1.045229e+003, 3.674743e-003
1.047157e+003, 3.496839e-003
1.049086e+003, 3.391481e-003
1.051014e+003, 3.337690e-003
1.052943e+003, 3.346099e-003
1.054871e+003, 3.321420e-003
1.056800e+003, 3.201910e-003
1.058728e+003, 3.082011e-003
1.060657e+003, 3.017613e-003
1.062585e+003, 2.995316e-003
1.064514e+003, 2.841059e-003
1.066442e+003, 2.733871e-003
1.068370e+003, 2.673940e-003
1.070299e+003, 2.663501e-003
1.072227e+003, 2.602987e-003
1.074156e+003, 2.476837e-003
1.076084e+003, 2.349859e-003
1.078013e+003, 2.275458e-003
1.079941e+003, 2.227321e-003
1.081870e+003, 2.167120e-003
1.083798e+003, 2.195228e-003
1.085727e+003, 2.220386e-003
1.087655e+003, 2.145873e-003
1.089584e+003, 2.064640e-003
1.091512e+003, 1.946187e-003
1.093441e+003, 1.907755e-003
1.095369e+003, 1.879491e-003
1.097297e+003, 1.871740e-003
1.099226e+003, 1.839892e-003
1.101154e+003, 1.725233e-003
1.103083e+003, 1.704962e-003
1.105011e+003, 1.684207e-003
1.106940e+003, 1.751193e-003
1.108868e+003, 1.675337e-003
1.110797e+003, 1.519205e-003
1.112725e+003, 1.497617e-003
1.114654e+003, 1.467871e-003
1.116582e+003, 1.405474e-003
1.118511e+003, 1.359994e-003
1.120439e+003, 1.353032e-003
1.122368e+003, 1.370725e-003
1.124296e+003, 1.470070e-003
1.126224e+003, 1.555653e-003
1.128153e+003, 1.523144e-003
1.130081e+003, 1.438427e-003
1.132010e+003, 1.412857e-003
1.133938e+003, 1.336368e-003
1.135867e+003, 1.182580e-003
1.137795e+003, 1.154357e-003
1.139724e+003, 1.229448e-003
1.141652e+003, 1.276089e-003
1.143581e+003, 1.309966e-003
1.145509e+003, 1.296877e-003
1.147438e+003, 1.208880e-003
1.149366e+003, 1.183655e-003
1.151295e+003, 1.254321e-003
1.153223e+003, 1.282931e-003
1.155151e+003, 1.268422e-003
1.157080e+003, 1.198209e-003
1.159008e+003, 1.204479e-003
1.160937e+003, 1.232935e-003
1.162865e+003, 1.277241e-003
1.164794e+003, 1.262605e-003
1.166722e+003, 1.291476e-003
1.168651e+003, 1.407641e-003
1.170579e+003, 1.397129e-003
1.172508e+003, 1.311824e-003
1.174436e+003, 1.308052e-003
1.176365e+003, 1.278860e-003
1.178293e+003, 1.310742e-003
1.180222e+003, 1.443342e-003
1.182150e+003, 1.410193e-003
1.184078e+003, 1.384876e-003
1.186007e+003, 1.458220e-003
1.187935e+003, 1.499789e-003
1.189864e+003, 1.537534e-003
1.191792e+003, 1.560661e-003
1.193721e+003, 1.606709e-003
1.195649e+003, 1.571831e-003
1.197578e+003, 1.506709e-003
1.199506e+003, 1.605366e-003
1.201435e+003, 1.728114e-003
1.203363e+003, 1.674125e-003
1.205292e+003, 1.626369e-003
1.207220e+003, 1.733426e-003
1.209149e+003, 1.783589e-003
1.211077e+003, 1.838417e-003
1.213005e+003, 1.772623e-003
1.214934e+003, 1.756982e-003
1.216862e+003, 1.802897e-003
1.218791e+003, 1.871687e-003
1.220719e+003, 1.928596e-003
1.222648e+003, 1.974255e-003
1.224576e+003, 2.001439e-003
1.226505e+003, 2.012504e-003
1.228433e+003, 2.011910e-003
1.230362e+003, 2.014741e-003
1.232290e+003, 2.158537e-003
1.234219e+003, 2.238004e-003
1.236147e+003, 2.157726e-003
1.238076e+003, 2.057762e-003
1.240004e+003, 1.987270e-003
1.241932e+003, 2.041619e-003
1.243861e+003, 2.101470e-003
1.245789e+003, 2.093995e-003
1.247718e+003, 2.044449e-003
1.249646e+003, 2.028241e-003
1.251575e+003, 2.169417e-003
1.253503e+003, 2.357729e-003
1.255432e+003, 2.375269e-003
1.257360e+003, 2.244617e-003
1.259289e+003, 2.238884e-003
1.261217e+003, 2.311468e-003
1.263146e+003, 2.379648e-003
1.265074e+003, 2.484371e-003
1.267003e+003, 2.534084e-003
1.268931e+003, 2.469983e-003
1.270859e+003, 2.546621e-003
1.272788e+003, 2.698793e-003
1.274716e+003, 2.711370e-003
1.276645e+003, 2.730095e-003
1.278573e+003, 2.675386e-003
1.280502e+003, 2.710459e-003
1.282430e+003, 2.905996e-003
1.284359e+003, 2.996187e-003
1.286287e+003, 2.927804e-003
1.288216e+003, 3.011665e-003
1.290144e+003, 3.132098e-003
1.292073e+003, 3.091405e-003
1.294001e+003, 3.113006e-003
1.295930e+003, 3.202625e-003
1.297858e+003, 3.348962e-003
1.299786e+003, 3.380583e-003
1.301715e+003, 3.241431e-003
1.303643e+003, 3.257703e-003
1.305572e+003, 3.491684e-003
1.307500e+003, 3.564759e-003
1.309429e+003, 3.622018e-003
1.311357e+003, 3.774255e-003
1.313286e+003, 3.867376e-003
1.315214e+003, 3.826769e-003
1.317143e+003, 3.857995e-003
1.319071e+003, 3.873544e-003
1.321000e+003, 3.824302e-003
1.322928e+003, 3.852699e-003
1.324857e+003, 3.970533e-003
1.326785e+003, 3.971532e-003
1.328714e+003, 3.947116e-003
1.330642e+003, 4.041592e-003
1.332570e+003, 4.093871e-003
1.334499e+003, 4.027614e-003
1.336427e+003, 4.035932e-003
1.338356e+003, 4.125132e-003
1.340284e+003, 4.176742e-003
1.342213e+003, 4.267416e-003
1.344141e+003, 4.394559e-003
1.346070e+003, 4.462702e-003
1.347998e+003, 4.299129e-003
1.349927e+003, 4.269099e-003
1.351855e+003, 4.385300e-003
1.353784e+003, 4.511419e-003
1.355712e+003, 4.497386e-003
1.357641e+003, 4.539685e-003
1.359569e+003, 4.603516e-003
1.361497e+003, 4.691844e-003
1.363426e+003, 4.649950e-003
1.365354e+003, 4.603319e-003
1.367283e+003, 4.627718e-003
1.369211e+003, 4.740331e-003
1.371140e+003, 4.879736e-003
1.373068e+003, 4.975410e-003
1.374997e+003, 4.984327e-003
1.376925e+003, 4.932019e-003
1.378854e+003, 4.969377e-003
1.380782e+003, 4.994872e-003
1.382711e+003, 5.067407e-003
1.384639e+003, 5.073642e-003
1.386568e+003, 5.129683e-003
1.388496e+003, 5.244290e-003
1.390424e+003, 5.317661e-003
1.392353e+003, 5.379447e-003
1.394281e+003, 5.445351e-003
1.396210e+003, 5.544289e-003
1.398138e+003, 5.696145e-003
1.400067e+003, 5.788531e-003
1.401995e+003, 5.681521e-003
1.403924e+003, 5.613745e-003
1.405852e+003, 5.664146e-003
1.407781e+003, 5.741833e-003
1.409709e+003, 5.888005e-003
1.411638e+003, 5.976206e-003
1.413566e+003, 5.861225e-003
1.415495e+003, 5.969281e-003
1.417423e+003, 6.095698e-003
1.419351e+003, 6.092973e-003
1.421280e+003, 6.122463e-003
1.423208e+003, 6.252755e-003
1.425137e+003, 6.202607e-003
1.427065e+003, 6.049303e-003
1.428994e+003, 6.089895e-003
1.430922e+003, 6.128470e-003
1.432851e+003, 6.157923e-003
1.434779e+003, 6.176581e-003
1.436708e+003, 6.121808e-003
1.438636e+003, 6.130796e-003
1.440565e+003, 6.216914e-003
1.442493e+003, 6.231850e-003
1.444422e+003, 6.229208e-003
1.446350e+003, 6.210760e-003
1.448278e+003, 6.160595e-003
1.450207e+003, 6.094464e-003
1.452135e+003, 6.067930e-003
1.454064e+003, 6.163409e-003
1.455992e+003, 6.318625e-003
1.457921e+003, 6.272300e-003
1.459849e+003, 6.134205e-003
1.461778e+003, 6.061717e-003
1.463706e+003, 6.032012e-003
1.465635e+003, 6.116052e-003
1.467563e+003, 6.241596e-003
1.469492e+003, 6.359799e-003
1.471420e+003, 6.458118e-003
1.473349e+003, 6.501201e-003
1.475277e+003, 6.531191e-003
1.477205e+003, 6.534093e-003
1.479134e+003, 6.523759e-003
1.481062e+003, 6.607771e-003
1.482991e+003, 6.665426e-003
1.484919e+003, 6.683190e-003
1.486848e+003, 6.740207e-003
1.488776e+003, 6.746058e-003
1.490705e+003, 6.735880e-003
1.492633e+003, 6.750341e-003
1.494562e+003, 6.834826e-003
1.496490e+003, 6.967028e-003
1.498419e+003, 6.955431e-003
1.500347e+003, 6.891076e-003
1.502276e+003, 6.915730e-003
1.504204e+003, 7.142551e-003
1.506132e+003, 7.321353e-003
1.508061e+003, 7.289344e-003
1.509989e+003, 7.205127e-003
1.511918e+003, 7.138461e-003
1.513846e+003, 7.166074e-003
1.515775e+003, 7.333993e-003
1.517703e+003, 7.405568e-003
1.519632e+003, 7.517541e-003
1.521560e+003, 7.491692e-003
1.523489e+003, 7.320937e-003
1.525417e+003, 7.365110e-003
1.527346e+003, 7.449752e-003
1.529274e+003, 7.613777e-003
1.531203e+003, 7.695332e-003
1.533131e+003, 7.870932e-003
1.535059e+003, 8.003389e-003
1.536988e+003, 8.023082e-003
1.538916e+003, 8.244203e-003
1.540845e+003, 8.346081e-003
1.542773e+003, 8.365377e-003
1.544702e+003, 8.292970e-003
1.546630e+003, 8.215957e-003
1.548559e+003, 8.459096e-003
1.550487e+003, 8.583624e-003
1.552416e+003, 8.581692e-003
1.554344e+003, 8.718909e-003
1.556273e+003, 8.861844e-003
1.558201e+003, 9.142437e-003
1.560130e+003, 9.196457e-003
1.562058e+003, 9.015096e-003
1.563986e+003, 9.004381e-003
1.565915e+003, 9.114756e-003
1.567843e+003, 9.184426e-003
1.569772e+003, 9.254243e-003
1.571700e+003, 9.241700e-003
1.573629e+003, 9.280735e-003
1.575557e+003, 9.433626e-003
1.577486e+003, 9.452910e-003
1.579414e+003, 9.427220e-003
1.581343e+003, 9.406699e-003
1.583271e+003, 9.512418e-003
1.585200e+003, 9.635957e-003
1.587128e+003, 9.600271e-003
1.589057e+003, 9.561591e-003
1.590985e+003, 9.664334e-003
1.592913e+003, 9.837333e-003
1.594842e+003, 9.842758e-003
1.596770e+003, 9.792143e-003
1.598699e+003, 9.828414e-003
1.600627e+003, 9.910578e-003
1.602556e+003, 9.759822e-003
1.604484e+003, 9.663694e-003
1.606413e+003, 9.723667e-003
1.608341e+003, 9.830673e-003
1.610270e+003, 9.879203e-003
1.612198e+003, 1.001853e-002
1.614127e+003, 1.003344e-002
1.616055e+003, 1.003701e-002
1.617984e+003, 1.007558e-002
1.619912e+003, 1.009243e-002
1.621840e+003, 1.012086e-002
1.623769e+003, 1.027132e-002
1.625697e+003, 1.032041e-002
1.627626e+003, 1.024281e-002
1.629554e+003, 1.025637e-002
1.631483e+003, 1.019057e-002
1.633411e+003, 1.018521e-002
1.635340e+003, 1.028503e-002
1.637268e+003, 1.014086e-002
1.639197e+003, 1.001376e-002
1.641125e+003, 1.006387e-002
1.643054e+003, 1.018139e-002
1.644982e+003, 1.033605e-002
1.646911e+003, 1.051611e-002
1.648839e+003, 1.041727e-002
1.650767e+003, 1.058836e-002
1.652696e+003, 1.095239e-002
1.654624e+003, 1.079968e-002
1.656553e+003, 1.054804e-002
1.658481e+003, 1.055207e-002
1.660410e+003, 1.082265e-002
1.662338e+003, 1.096478e-002
1.664267e+003, 1.077815e-002
1.666195e+003, 1.069942e-002
1.668124e+003, 1.090715e-002
1.670052e+003, 1.095178e-002
1.671981e+003, 1.075344e-002
1.673909e+003, 1.075560e-002
1.675838e+003, 1.093465e-002
1.677766e+003, 1.086383e-002
1.679694e+003, 1.079599e-002
1.681623e+003, 1.087161e-002
1.683551e+003, 1.100491e-002
1.685480e+003, 1.089450e-002
1.687408e+003, 1.071586e-002
1.689337e+003, 1.077747e-002
1.691265e+003, 1.069418e-002
1.693194e+003, 1.045219e-002
1.695122e+003, 1.054238e-002
1.697051e+003, 1.067195e-002
1.698979e+003, 1.080745e-002
1.700908e+003, 1.076619e-002
1.702836e+003, 1.042033e-002
1.704765e+003, 1.032048e-002
1.706693e+003, 1.023938e-002
1.708621e+003, 1.013300e-002
1.710550e+003, 1.008773e-002
1.712478e+003, 1.001335e-002
1.714407e+003, 1.003735e-002
1.716335e+003, 1.026863e-002
1.718264e+003, 1.027474e-002
1.720192e+003, 1.007065e-002
1.722121e+003, 9.921461e-003
1.724049e+003, 9.815821e-003
1.725978e+003, 9.614643e-003
1.727906e+003, 9.607408e-003
1.729835e+003, 9.615925e-003
1.731763e+003, 9.595435e-003
1.733692e+003, 9.652842e-003
1.735620e+003, 9.468874e-003
1.737548e+003, 9.370266e-003
1.739477e+003, 9.408443e-003
1.741405e+003, 9.240063e-003
1.743334e+003, 9.049581e-003
1.745262e+003, 9.005987e-003
1.747191e+003, 9.068724e-003
1.749119e+003, 9.058733e-003
1.751048e+003, 9.201253e-003
1.752976e+003, 9.314747e-003
1.754905e+003, 9.389746e-003
1.756833e+003, 9.604352e-003
1.758762e+003, 9.734229e-003
1.760690e+003, 9.883415e-003
1.762619e+003, 1.004808e-002
1.764547e+003, 1.008283e-002
1.766475e+003, 1.002932e-002
1.768404e+003, 9.923452e-003
1.770332e+003, 9.892322e-003
1.772261e+003, 9.989829e-003
1.774189e+003, 1.004114e-002
1.776118e+003, 1.002922e-002
1.778046e+003, 1.020521e-002
1.779975e+003, 1.014606e-002
1.781903e+003, 9.978567e-003
1.783832e+003, 1.005625e-002
1.785760e+003, 1.013216e-002
1.787689e+003, 1.010770e-002
1.789617e+003, 1.003372e-002
1.791546e+003, 1.000653e-002
1.793474e+003, 1.019977e-002
1.795402e+003, 1.051934e-002
1.797331e+003, 1.048850e-002
1.799259e+003, 1.026922e-002
1.801188e+003, 1.014732e-002
1.803116e+003, 1.022477e-002
1.805045e+003, 1.028951e-002
1.806973e+003, 1.025113e-002
1.808902e+003, 1.026935e-002
1.810830e+003, 1.033210e-002
1.812759e+003, 1.012002e-002
1.814687e+003, 9.867112e-003
1.816616e+003, 9.837371e-003
1.818544e+003, 1.014884e-002
1.820473e+003, 1.056535e-002
1.822401e+003, 1.068646e-002
1.824329e+003, 1.065745e-002
1.826258e+003, 1.035188e-002
1.828186e+003, 1.022094e-002
1.830115e+003, 1.029561e-002
1.832043e+003, 1.030387e-002
1.833972e+003, 1.027957e-002
1.835900e+003, 1.013689e-002
1.837829e+003, 1.013330e-002
1.839757e+003, 1.031490e-002
1.841686e+003, 1.036694e-002
1.843614e+003, 1.040682e-002
1.845543e+003, 1.046628e-002
1.847471e+003, 1.032156e-002
1.849400e+003, 1.032216e-002
1.851328e+003, 1.049461e-002
1.853256e+003, 1.057398e-002
1.855185e+003, 1.039056e-002
1.857113e+003, 1.026169e-002
1.859042e+003, 1.035657e-002
1.860970e+003, 1.072515e-002
1.862899e+003, 1.103199e-002
1.864827e+003, 1.077167e-002
1.866756e+003, 1.050894e-002
1.868684e+003, 1.059921e-002
1.870613e+003, 1.074216e-002
1.872541e+003, 1.106243e-002
1.874470e+003, 1.100985e-002
1.876398e+003, 1.071982e-002
1.878327e+003, 1.064293e-002
1.880255e+003, 1.061908e-002
1.882183e+003, 1.077707e-002
1.884112e+003, 1.077710e-002
1.886040e+003, 1.063808e-002
1.887969e+003, 1.032379e-002
1.889897e+003, 1.042007e-002
1.891826e+003, 1.052346e-002
1.893754e+003, 1.063913e-002
1.895683e+003, 1.095296e-002
1.897611e+003, 1.109205e-002
1.899540e+003, 1.108412e-002
1.901468e+003, 1.112686e-002
1.903397e+003, 1.118519e-002
1.905325e+003, 1.078318e-002
1.907254e+003, 1.053900e-002
1.909182e+003, 1.081481e-002
1.911110e+003, 1.114202e-002
1.913039e+003, 1.166196e-002
1.914967e+003, 1.183312e-002
1.916896e+003, 1.148511e-002
1.918824e+003, 1.165358e-002
1.920753e+003, 1.133970e-002
1.922681e+003, 1.121780e-002
1.924610e+003, 1.154653e-002
1.926538e+003, 1.141539e-002
1.928467e+003, 1.127481e-002
1.930395e+003, 1.152488e-002
1.932324e+003, 1.152218e-002
1.934252e+003, 1.081931e-002
1.936181e+003, 1.057728e-002
1.938109e+003, 1.088278e-002
1.940037e+003, 1.122754e-002
1.941966e+003, 1.151340e-002
1.943894e+003, 1.178415e-002
1.945823e+003, 1.209292e-002
1.947751e+003, 1.231193e-002
1.949680e+003, 1.214651e-002
1.951608e+003, 1.141869e-002
1.953537e+003, 1.128723e-002
1.955465e+003, 1.125280e-002
1.957394e+003, 1.070900e-002
1.959322e+003, 1.118527e-002
1.961251e+003, 1.139140e-002
1.963179e+003, 1.213005e-002
1.965108e+003, 1.249075e-002
1.967036e+003, 1.293737e-002
1.968964e+003, 1.328872e-002
1.970893e+003, 1.341224e-002
1.972821e+003, 1.355758e-002
1.974750e+003, 1.307334e-002
1.976678e+003, 1.352573e-002
1.978607e+003, 1.551723e-002
1.980535e+003, 1.546627e-002
1.982464e+003, 1.469934e-002
1.984392e+003, 1.459279e-002
1.986321e+003, 1.458314e-002
1.988249e+003, 1.411596e-002
1.990178e+003, 1.368791e-002
1.992106e+003, 1.358724e-002
1.994035e+003, 1.415005e-002
1.995963e+003, 1.404812e-002
1.997891e+003, 1.379248e-002
1.999820e+003, 1.387251e-002
2.001748e+003, 1.326373e-002
2.003677e+003, 1.290313e-002
2.005605e+003, 1.274850e-002
2.007534e+003, 1.346600e-002
2.009462e+003, 1.429438e-002
2.011391e+003, 1.337350e-002
2.013319e+003, 1.348299e-002
2.015248e+003, 1.426671e-002
2.017176e+003, 1.448794e-002
2.019105e+003, 1.449043e-002
2.021033e+003, 1.407853e-002
2.022962e+003, 1.370435e-002
2.024890e+003, 1.381344e-002
2.026818e+003, 1.437750e-002
2.028747e+003, 1.493873e-002
2.030675e+003, 1.442244e-002
2.032604e+003, 1.438363e-002
2.034532e+003, 1.559444e-002
2.036461e+003, 1.626568e-002
2.038389e+003, 1.604942e-002
2.040318e+003, 1.527900e-002
2.042246e+003, 1.495953e-002
2.044175e+003, 1.488907e-002
2.046103e+003, 1.464566e-002
2.048031e+003, 1.443466e-002
2.049960e+003, 1.493543e-002
2.051888e+003, 1.492721e-002
2.053817e+003, 1.494346e-002
2.055745e+003, 1.479563e-002
2.057674e+003, 1.415829e-002
2.059602e+003, 1.444471e-002
2.061531e+003, 1.443095e-002
2.063459e+003, 1.441624e-002
2.065388e+003, 1.486371e-002
2.067316e+003, 1.525513e-002
2.069245e+003, 1.514886e-002
2.071173e+003, 1.510784e-002
2.073102e+003, 1.495609e-002
2.075030e+003, 1.486977e-002
2.076958e+003, 1.453286e-002
2.078887e+003, 1.504637e-002
2.080815e+003, 1.574088e-002
2.082744e+003, 1.588574e-002
2.084672e+003, 1.540555e-002
2.086601e+003, 1.479378e-002
2.088529e+003, 1.491297e-002
2.090458e+003, 1.482401e-002
2.092386e+003, 1.406228e-002
2.094315e+003, 1.408792e-002
2.096243e+003, 1.475095e-002
2.098172e+003, 1.532627e-002
2.100100e+003, 1.528502e-002
2.102029e+003, 1.505460e-002
2.103957e+003, 1.520350e-002
2.105885e+003, 1.537098e-002
2.107814e+003, 1.525914e-002
2.109742e+003, 1.519328e-002
2.111671e+003, 1.496355e-002
2.113599e+003, 1.505168e-002
2.115528e+003, 1.560447e-002
2.117456e+003, 1.541213e-002
2.119385e+003, 1.431283e-002
2.121313e+003, 1.391040e-002
2.123242e+003, 1.443435e-002
2.125170e+003, 1.418693e-002
2.127099e+003, 1.350740e-002
2.129027e+003, 1.314999e-002
2.130956e+003, 1.290096e-002
2.132884e+003, 1.285681e-002
2.134813e+003, 1.299712e-002
2.136741e+003, 1.329473e-002
2.138669e+003, 1.370024e-002
2.140598e+003, 1.383180e-002
2.142526e+003, 1.319679e-002
2.144455e+003, 1.253521e-002
2.146383e+003, 1.287833e-002
2.148312e+003, 1.409307e-002
2.150240e+003, 1.432310e-002
2.152169e+003, 1.287784e-002
2.154097e+003, 1.228620e-002
2.156026e+003, 1.195670e-002
2.157954e+003, 1.274305e-002
2.159883e+003, 1.640294e-002
2.161811e+003, 1.811753e-002
2.163740e+003, 1.826395e-002
2.165668e+003, 1.831959e-002
2.167596e+003, 1.778615e-002
2.169525e+003, 1.655137e-002
2.171453e+003, 1.509075e-002
2.173382e+003, 1.571726e-002
2.175310e+003, 1.626012e-002
2.177239e+003, 1.601960e-002
2.179167e+003, 1.628366e-002
2.181096e+003, 1.660714e-002
2.183024e+003, 1.676088e-002
2.184953e+003, 1.727579e-002
2.186881e+003, 1.796677e-002
2.188810e+003, 1.801609e-002
2.190738e+003, 1.742215e-002
2.192667e+003, 1.722204e-002
2.194595e+003, 1.677601e-002
2.196523e+003, 1.677749e-002
2.198452e+003, 1.751874e-002
2.200380e+003, 1.853718e-002
2.202309e+003, 1.818254e-002
2.204237e+003, 1.746717e-002
2.206166e+003, 1.748722e-002
2.208094e+003, 1.760504e-002
2.210023e+003, 1.729752e-002
2.211951e+003, 1.684185e-002
2.213880e+003, 1.665731e-002
2.215808e+003, 1.692106e-002
2.217737e+003, 1.735692e-002
2.219665e+003, 1.728568e-002
2.221594e+003, 1.729740e-002
2.223522e+003, 1.789314e-002
2.225450e+003, 1.808062e-002
2.227379e+003, 1.822240e-002
2.229307e+003, 1.855368e-002
2.231236e+003, 1.766546e-002
2.233164e+003, 1.717425e-002
2.235093e+003, 1.786216e-002
2.237021e+003, 1.805886e-002
2.238950e+003, 1.767765e-002
2.240878e+003, 1.753116e-002
2.242807e+003, 1.795961e-002
2.244735e+003, 1.835818e-002
2.246664e+003, 1.821125e-002
2.248592e+003, 1.762625e-002
2.250521e+003, 1.732685e-002
2.252449e+003, 1.744449e-002
2.254377e+003, 1.742490e-002
2.256306e+003, 1.773643e-002
2.258234e+003, 1.779654e-002
2.260163e+003, 1.789784e-002
2.262091e+003, 1.779938e-002
2.264020e+003, 1.758511e-002
2.265948e+003, 1.779227e-002
2.267877e+003, 1.832180e-002
2.269805e+003, 1.819511e-002
2.271734e+003, 1.785931e-002
2.273662e+003, 1.821129e-002
2.275591e+003, 1.859600e-002
2.277519e+003, 1.870620e-002
2.279448e+003, 1.890624e-002
2.281376e+003, 1.872940e-002
2.283304e+003, 1.912440e-002
2.285233e+003, 1.981707e-002
2.287161e+003, 1.949678e-002
2.289090e+003, 1.900778e-002
2.291018e+003, 1.866507e-002
2.292947e+003, 1.861304e-002
2.294875e+003, 1.833868e-002
2.296804e+003, 1.820760e-002
2.298732e+003, 1.824112e-002
2.300661e+003, 1.815604e-002
2.302589e+003, 1.840802e-002
2.304518e+003, 1.868534e-002
2.306446e+003, 1.871788e-002
2.308375e+003, 1.838470e-002
2.310303e+003, 1.830814e-002
2.312231e+003, 1.845771e-002
2.314160e+003, 1.856574e-002
2.316088e+003, 1.867525e-002
2.318017e+003, 1.870849e-002
2.319945e+003, 1.902755e-002
2.321874e+003, 1.966574e-002
2.323802e+003, 1.989487e-002
2.325731e+003, 1.891332e-002
2.327659e+003, 1.806803e-002
2.329588e+003, 1.791509e-002
2.331516e+003, 1.786489e-002
2.333445e+003, 1.791303e-002
2.335373e+003, 1.810357e-002
2.337302e+003, 1.795092e-002
2.339230e+003, 1.792005e-002
2.341158e+003, 1.802325e-002
2.343087e+003, 1.778668e-002
2.345015e+003, 1.776700e-002
2.346944e+003, 1.765540e-002
2.348872e+003, 1.748827e-002
2.350801e+003, 1.755445e-002
2.352729e+003, 1.771193e-002
2.354658e+003, 1.768382e-002
2.356586e+003, 1.776711e-002
2.358515e+003, 1.812903e-002
2.360443e+003, 1.825897e-002
2.362372e+003, 1.795689e-002
2.364300e+003, 1.777688e-002
2.366229e+003, 1.755704e-002
2.368157e+003, 1.761940e-002
2.370085e+003, 1.744467e-002
2.372014e+003, 1.729117e-002
2.373942e+003, 1.727291e-002
2.375871e+003, 1.705034e-002
2.377799e+003, 1.681526e-002
2.379728e+003, 1.670188e-002
2.381656e+003, 1.659568e-002
2.383585e+003, 1.653344e-002
2.385513e+003, 1.643286e-002
2.387442e+003, 1.668816e-002
2.389370e+003, 1.675121e-002
2.391299e+003, 1.657149e-002
2.393227e+003, 1.659887e-002
2.395156e+003, 1.666208e-002
2.397084e+003, 1.657527e-002
2.399012e+003, 1.651406e-002
2.400941e+003, 1.701328e-002
2.402869e+003, 1.710650e-002
2.404798e+003, 1.665338e-002
2.406726e+003, 1.656967e-002
2.408655e+003, 1.685040e-002
2.410583e+003, 1.702818e-002
2.412512e+003, 1.703498e-002
2.414440e+003, 1.712642e-002
2.416369e+003, 1.727089e-002
2.418297e+003, 1.733591e-002
2.420226e+003, 1.714830e-002
2.422154e+003, 1.731942e-002
2.424083e+003, 1.750134e-002
2.426011e+003, 1.715514e-002
2.427939e+003, 1.731368e-002
2.429868e+003, 1.756800e-002
2.431796e+003, 1.724519e-002
2.433725e+003, 1.701742e-002
2.435653e+003, 1.722275e-002
2.437582e+003, 1.784232e-002
2.439510e+003, 1.816911e-002
2.441439e+003, 1.780161e-002
2.443367e+003, 1.743974e-002
2.445296e+003, 1.760837e-002
2.447224e+003, 1.790185e-002
2.449153e+003, 1.823292e-002
2.451081e+003, 1.829263e-002
2.453010e+003, 1.818035e-002
2.454938e+003, 1.805557e-002
2.456866e+003, 1.786477e-002
2.458795e+003, 1.785004e-002
2.460723e+003, 1.788502e-002
2.462652e+003, 1.805977e-002
2.464580e+003, 1.812515e-002
2.466509e+003, 1.793056e-002
2.468437e+003, 1.811509e-002
2.470366e+003, 1.808362e-002
2.472294e+003, 1.782210e-002
2.474223e+003, 1.780108e-002
2.476151e+003, 1.793850e-002
2.478080e+003, 1.767857e-002
2.480008e+003, 1.800254e-002
2.481937e+003, 1.812634e-002
2.483865e+003, 1.793606e-002
2.485793e+003, 1.800299e-002
2.487722e+003, 1.798377e-002
2.489650e+003, 1.811296e-002
2.491579e+003, 1.842909e-002
2.493507e+003, 1.846579e-002
2.495436e+003, 1.844391e-002
2.497364e+003, 1.853030e-002
2.499293e+003, 1.850156e-002
2.501221e+003, 1.834422e-002
2.503150e+003, 1.844187e-002
2.505078e+003, 1.854160e-002
2.507007e+003, 1.866902e-002
2.508935e+003, 1.819654e-002
2.510864e+003, 1.807552e-002
2.512792e+003, 1.851977e-002
2.514720e+003, 1.864509e-002
2.516649e+003, 1.850070e-002
2.518577e+003, 1.864636e-002
2.520506e+003, 1.891271e-002
2.522434e+003, 1.873239e-002
2.524363e+003, 1.852874e-002
2.526291e+003, 1.907920e-002
2.528220e+003, 1.938958e-002
2.530148e+003, 1.896749e-002
2.532077e+003, 1.868776e-002
2.534005e+003, 1.901016e-002
2.535934e+003, 1.918570e-002
2.537862e+003, 1.902780e-002
2.539791e+003, 1.889715e-002
2.541719e+003, 1.907403e-002
2.543647e+003, 1.937126e-002
2.545576e+003, 1.938354e-002
2.547504e+003, 1.937597e-002
2.549433e+003, 1.937328e-002
2.551361e+003, 1.937012e-002
2.553290e+003, 1.954293e-002
2.555218e+003, 1.937253e-002
2.557147e+003, 1.942560e-002
2.559075e+003, 1.968914e-002
2.561004e+003, 1.934990e-002
2.562932e+003, 1.942401e-002
2.564861e+003, 1.968175e-002
2.566789e+003, 1.937847e-002
2.568718e+003, 1.945469e-002
2.570646e+003, 1.976177e-002
2.572574e+003, 1.983109e-002
2.574503e+003, 1.987374e-002
2.576431e+003, 1.976228e-002
2.578360e+003, 1.967621e-002
2.580288e+003, 1.966187e-002
2.582217e+003, 1.963224e-002
2.584145e+003, 1.990381e-002
2.586074e+003, 2.017651e-002
2.588002e+003, 2.006873e-002
2.589931e+003, 1.994138e-002
2.591859e+003, 2.001734e-002
2.593788e+003, 1.996163e-002
2.595716e+003, 1.996010e-002
2.597645e+003, 2.011993e-002
2.599573e+003, 2.013320e-002
2.601501e+003, 2.009014e-002
2.603430e+003, 1.991187e-002
2.605358e+003, 1.994559e-002
2.607287e+003, 2.035372e-002
2.609215e+003, 2.034641e-002
2.611144e+003, 2.000371e-002
2.613072e+003, 2.014785e-002
2.615001e+003, 2.057997e-002
2.616929e+003, 2.045389e-002
2.618858e+003, 2.048857e-002
2.620786e+003, 2.057917e-002
2.622715e+003, 2.012685e-002
2.624643e+003, 2.000357e-002
2.626572e+003, 2.002916e-002
2.628500e+003, 1.987848e-002
2.630428e+003, 2.023980e-002
2.632357e+003, 2.037432e-002
2.634285e+003, 2.020311e-002
2.636214e+003, 2.043930e-002
2.638142e+003, 2.060491e-002
2.640071e+003, 2.048568e-002
2.641999e+003, 2.017425e-002
2.643928e+003, 2.014627e-002
2.645856e+003, 2.012028e-002
2.647785e+003, 2.028593e-002
2.649713e+003, 2.058570e-002
2.651642e+003, 2.048504e-002
2.653570e+003, 2.011156e-002
2.655499e+003, 1.988544e-002
2.657427e+003, 1.970739e-002
2.659355e+003, 1.930380e-002
2.661284e+003, 1.905592e-002
2.663212e+003, 1.928891e-002
2.665141e+003, 1.947421e-002
2.667069e+003, 1.943061e-002
2.668998e+003, 1.937011e-002
2.670926e+003, 1.910418e-002
2.672855e+003, 1.900796e-002
2.674783e+003, 1.900591e-002
2.676712e+003, 1.897823e-002
2.678640e+003, 1.890151e-002
2.680569e+003, 1.895448e-002
2.682497e+003, 1.923818e-002
2.684426e+003, 1.932806e-002
2.686354e+003, 1.924313e-002
2.688282e+003, 1.909024e-002
2.690211e+003, 1.897673e-002
2.692139e+003, 1.909832e-002
2.694068e+003, 1.922905e-002
2.695996e+003, 1.929839e-002
2.697925e+003, 1.930065e-002
2.699853e+003, 1.928671e-002
2.701782e+003, 1.924461e-002
2.703710e+003, 1.941818e-002
2.705639e+003, 1.953585e-002
2.707567e+003, 1.945272e-002
2.709496e+003, 1.945280e-002
2.711424e+003, 1.951779e-002
2.713353e+003, 1.928783e-002
2.715281e+003, 1.914443e-002
2.717209e+003, 1.925814e-002
2.719138e+003, 1.922015e-002
2.721066e+003, 1.913161e-002
2.722995e+003, 1.918965e-002
2.724923e+003, 1.920874e-002
2.726852e+003, 1.945993e-002
2.728780e+003, 1.962149e-002
2.730709e+003, 1.967087e-002
2.732637e+003, 1.957531e-002
2.734566e+003, 1.932617e-002
2.736494e+003, 1.910021e-002
2.738423e+003, 1.918919e-002
2.740351e+003, 1.941339e-002
2.742280e+003, 1.949447e-002
2.744208e+003, 1.962769e-002
2.746136e+003, 1.965434e-002
2.748065e+003, 1.938844e-002
2.749993e+003, 1.937436e-002
2.751922e+003, 1.955736e-002
2.753850e+003, 1.990001e-002
2.755779e+003, 1.992332e-002
2.757707e+003, 1.976150e-002
2.759636e+003, 1.984494e-002
2.761564e+003, 1.966021e-002
2.763493e+003, 1.953740e-002
2.765421e+003, 1.968189e-002
2.767350e+003, 1.979992e-002
2.769278e+003, 1.974105e-002
2.771207e+003, 1.981846e-002
2.773135e+003, 2.009514e-002
2.775063e+003, 2.006573e-002
2.776992e+003, 1.987639e-002
2.778920e+003, 1.993213e-002
2.780849e+003, 2.025438e-002
2.782777e+003, 2.020580e-002
2.784706e+003, 1.994633e-002
2.786634e+003, 1.997028e-002
2.788563e+003, 1.983053e-002
2.790491e+003, 1.982987e-002
2.792420e+003, 2.004664e-002
2.794348e+003, 1.991384e-002
2.796277e+003, 1.949479e-002
2.798205e+003, 1.946942e-002
2.800134e+003, 1.973779e-002
2.802062e+003, 1.976176e-002
2.803990e+003, 1.988745e-002
2.805919e+003, 1.997844e-002
2.807847e+003, 1.989013e-002
2.809776e+003, 2.014058e-002
2.811704e+003, 2.021843e-002
2.813633e+003, 2.021192e-002
2.815561e+003, 2.024777e-002
2.817490e+003, 2.023137e-002
2.819418e+003, 2.024085e-002
2.821347e+003, 2.033348e-002
2.823275e+003, 2.039560e-002
2.825204e+003, 2.045465e-002
2.827132e+003, 2.034327e-002
2.829061e+003, 2.049125e-002
2.830989e+003, 2.046363e-002
2.832917e+003, 2.011657e-002
2.834846e+003, 2.020197e-002
2.836774e+003, 2.029387e-002
2.838703e+003, 2.033014e-002
2.840631e+003, 2.041917e-002
2.842560e+003, 2.039166e-002
2.844488e+003, 2.045542e-002
2.846417e+003, 2.059769e-002
2.848345e+003, 2.056203e-002
2.850274e+003, 2.046044e-002
2.852202e+003, 2.009223e-002
2.854131e+003, 1.961294e-002
2.856059e+003, 1.923803e-002
2.857988e+003, 1.909599e-002
2.859916e+003, 1.909877e-002
2.861844e+003, 1.909740e-002
2.863773e+003, 1.920335e-002
2.865701e+003, 1.950310e-002
2.867630e+003, 1.963379e-002
2.869558e+003, 1.967046e-002
2.871487e+003, 1.993192e-002
2.873415e+003, 2.004873e-002
2.875344e+003, 2.017411e-002
2.877272e+003, 2.008989e-002
2.879201e+003, 1.970274e-002
2.881129e+003, 1.964631e-002
2.883058e+003, 1.996089e-002
2.884986e+003, 2.035728e-002
2.886915e+003, 2.047599e-002
2.888843e+003, 2.009442e-002
2.890771e+003, 1.973940e-002
2.892700e+003, 1.976892e-002
2.894628e+003, 1.981162e-002
2.896557e+003, 2.002374e-002
2.898485e+003, 2.008137e-002
2.900414e+003, 2.016064e-002
2.902342e+003, 2.000716e-002
2.904271e+003, 2.005262e-002
2.906199e+003, 2.026612e-002
2.908128e+003, 2.018665e-002
2.910056e+003, 2.006180e-002
2.911985e+003, 2.002393e-002
2.913913e+003, 2.001247e-002
2.915842e+003, 2.031638e-002
2.917770e+003, 2.013659e-002
2.919698e+003, 1.970177e-002
2.921627e+003, 1.949604e-002
2.923555e+003, 1.931779e-002
2.925484e+003, 1.890002e-002
2.927412e+003, 1.832359e-002
2.929341e+003, 1.826417e-002
2.931269e+003, 1.853644e-002
2.933198e+003, 1.874598e-002
2.935126e+003, 1.879541e-002
2.937055e+003, 1.869280e-002
2.938983e+003, 1.854036e-002
2.940912e+003, 1.874791e-002
2.942840e+003, 1.920506e-002
2.944769e+003, 1.926747e-002
2.946697e+003, 1.920466e-002
2.948625e+003, 1.900382e-002
2.950554e+003, 1.874350e-002
2.952482e+003, 1.896970e-002
2.954411e+003, 1.944435e-002
2.956339e+003, 1.983342e-002
2.958268e+003, 1.989842e-002
2.960196e+003, 1.955671e-002
2.962125e+003, 1.939328e-002
2.964053e+003, 1.945726e-002
2.965982e+003, 1.962457e-002
2.967910e+003, 1.970523e-002
2.969839e+003, 1.982735e-002
2.971767e+003, 1.989042e-002
2.973696e+003, 1.977456e-002
2.975624e+003, 1.973552e-002
2.977552e+003, 1.995750e-002
2.979481e+003, 2.023664e-002
2.981409e+003, 2.025395e-002
2.983338e+003, 1.991707e-002
2.985266e+003, 1.968458e-002
2.987195e+003, 1.935999e-002
2.989123e+003, 1.940576e-002
2.991052e+003, 1.965984e-002
2.992980e+003, 1.968681e-002
2.994909e+003, 1.981859e-002
2.996837e+003, 2.019305e-002
2.998766e+003, 2.053537e-002
3.000694e+003, 2.043990e-002
3.002623e+003, 2.014726e-002
3.004551e+003, 2.035676e-002
3.006479e+003, 2.047253e-002
3.008408e+003, 2.022455e-002
3.010336e+003, 2.009782e-002
3.012265e+003, 2.090090e-002
3.014193e+003, 2.106417e-002
3.016122e+003, 2.098808e-002
3.018050e+003, 2.080936e-002
3.019979e+003, 2.039847e-002
3.021907e+003, 2.050049e-002
3.023836e+003, 2.088590e-002
3.025764e+003, 2.064122e-002
3.027693e+003, 2.050784e-002
3.029621e+003, 2.058830e-002
3.031550e+003, 2.056376e-002
3.033478e+003, 2.076940e-002
3.035406e+003, 2.072559e-002
3.037335e+003, 2.080706e-002
3.039263e+003, 2.083050e-002
3.041192e+003, 2.033606e-002
3.043120e+003, 2.047787e-002
3.045049e+003, 2.073178e-002
3.046977e+003, 2.073804e-002
3.048906e+003, 2.083337e-002
3.050834e+003, 2.098631e-002
3.052763e+003, 2.080855e-002
3.054691e+003, 2.030833e-002
3.056620e+003, 2.056131e-002
3.058548e+003, 2.085941e-002
3.060477e+003, 2.097321e-002
3.062405e+003, 2.104023e-002
3.064333e+003, 2.096323e-002
3.066262e+003, 2.049978e-002
3.068190e+003, 2.042502e-002
3.070119e+003, 2.029139e-002
3.072047e+003, 2.019542e-002
3.073976e+003, 2.076692e-002
3.075904e+003, 2.104270e-002
3.077833e+003, 2.082695e-002
3.079761e+003, 2.090302e-002
3.081690e+003, 2.112605e-002
3.083618e+003, 2.101430e-002
3.085547e+003, 2.117555e-002
3.087475e+003, 2.132566e-002
3.089404e+003, 2.131787e-002
3.091332e+003, 2.105438e-002
3.093260e+003, 2.089752e-002
3.095189e+003, 2.077504e-002
3.097117e+003, 2.090846e-002
3.099046e+003, 2.096872e-002
3.100974e+003, 2.127161e-002
3.102903e+003, 2.142930e-002
3.104831e+003, 2.114173e-002
3.106760e+003, 2.114618e-002
3.108688e+003, 2.126467e-002
3.110617e+003, 2.149326e-002
3.112545e+003, 2.155028e-002
3.114474e+003, 2.133360e-002
3.116402e+003, 2.129919e-002
3.118331e+003, 2.123302e-002
3.120259e+003, 2.115268e-002
3.122188e+003, 2.128030e-002
3.124116e+003, 2.143225e-002
3.126044e+003, 2.147305e-002
3.127973e+003, 2.154811e-002
3.129901e+003, 2.164431e-002
3.131830e+003, 2.181202e-002
3.133758e+003, 2.166350e-002
3.135687e+003, 2.151279e-002
3.137615e+003, 2.173188e-002
3.139544e+003, 2.140272e-002
3.141472e+003, 2.118231e-002
3.143401e+003, 2.132681e-002
3.145329e+003, 2.144057e-002
3.147258e+003, 2.129790e-002
3.149186e+003, 2.153597e-002
3.151115e+003, 2.154661e-002
3.153043e+003, 2.112537e-002
3.154971e+003, 2.177286e-002
3.156900e+003, 2.251244e-002
3.158828e+003, 2.221576e-002
3.160757e+003, 2.175778e-002
3.162685e+003, 2.187230e-002
3.164614e+003, 2.188511e-002
3.166542e+003, 2.178396e-002
3.168471e+003, 2.206443e-002
3.170399e+003, 2.186652e-002
3.172328e+003, 2.184661e-002
3.174256e+003, 2.201260e-002
3.176185e+003, 2.216275e-002
3.178113e+003, 2.218070e-002
3.180042e+003, 2.179483e-002
3.181970e+003, 2.197804e-002
3.183898e+003, 2.253104e-002
3.185827e+003, 2.255305e-002
3.187755e+003, 2.235308e-002
3.189684e+003, 2.250065e-002
3.191612e+003, 2.225417e-002
3.193541e+003, 2.178361e-002
3.195469e+003, 2.205890e-002
3.197398e+003, 2.264380e-002
3.199326e+003, 2.258537e-002
3.201255e+003, 2.216060e-002
3.203183e+003, 2.230713e-002
3.205112e+003, 2.256987e-002
3.207040e+003, 2.252448e-002
3.208969e+003, 2.211925e-002
3.210897e+003, 2.168998e-002
3.212825e+003, 2.199453e-002
3.214754e+003, 2.226887e-002
3.216682e+003, 2.225689e-002
3.218611e+003, 2.215559e-002
3.220539e+003, 2.154151e-002
3.222468e+003, 2.095968e-002
3.224396e+003, 2.107016e-002
3.226325e+003, 2.148836e-002
3.228253e+003, 2.180928e-002
3.230182e+003, 2.207399e-002
3.232110e+003, 2.233741e-002
3.234039e+003, 2.217949e-002
3.235967e+003, 2.204687e-002
3.237896e+003, 2.240072e-002
3.239824e+003, 2.232288e-002
3.241752e+003, 2.175397e-002
3.243681e+003, 2.164227e-002
3.245609e+003, 2.193440e-002
3.247538e+003, 2.224245e-002
3.249466e+003, 2.242641e-002
3.251395e+003, 2.248700e-002
3.253323e+003, 2.258544e-002
3.255252e+003, 2.238151e-002
3.257180e+003, 2.238699e-002
3.259109e+003, 2.253541e-002
3.261037e+003, 2.271234e-002
3.262966e+003, 2.259284e-002
3.264894e+003, 2.224703e-002
3.266823e+003, 2.225654e-002
3.268751e+003, 2.245364e-002
3.270679e+003, 2.256995e-002
3.272608e+003, 2.271502e-002
3.274536e+003, 2.214643e-002
3.276465e+003, 2.184282e-002
3.278393e+003, 2.206704e-002
3.280322e+003, 2.209603e-002
3.282250e+003, 2.235966e-002
3.284179e+003, 2.285704e-002
3.286107e+003, 2.244389e-002
3.288036e+003, 2.208414e-002
3.289964e+003, 2.234665e-002
3.291893e+003, 2.226713e-002
3.293821e+003, 2.203012e-002
3.295750e+003, 2.237907e-002
3.297678e+003, 2.258319e-002
3.299606e+003, 2.232809e-002
3.301535e+003, 2.201195e-002
3.303463e+003, 2.205793e-002
3.305392e+003, 2.226178e-002
3.307320e+003, 2.256762e-002
3.309249e+003, 2.241327e-002
3.311177e+003, 2.232114e-002
3.313106e+003, 2.244731e-002
3.315034e+003, 2.237168e-002
3.316963e+003, 2.234116e-002
3.318891e+003, 2.213660e-002
3.320820e+003, 2.209606e-002
3.322748e+003, 2.211414e-002
3.324677e+003, 2.280210e-002
3.326605e+003, 2.324909e-002
3.328533e+003, 2.281803e-002
3.330462e+003, 2.277530e-002
3.332390e+003, 2.282887e-002
3.334319e+003, 2.256118e-002
3.336247e+003, 2.267956e-002
3.338176e+003, 2.268244e-002
3.340104e+003, 2.289454e-002
3.342033e+003, 2.294375e-002
3.343961e+003, 2.262654e-002
3.345890e+003, 2.205124e-002
3.347818e+003, 2.189446e-002
3.349747e+003, 2.252027e-002
3.351675e+003, 2.313101e-002
3.353604e+003, 2.322087e-002
3.355532e+003, 2.275848e-002
3.357460e+003, 2.240210e-002
3.359389e+003, 2.219966e-002
3.361317e+003, 2.212725e-002
3.363246e+003, 2.219267e-002
3.365174e+003, 2.257643e-002
3.367103e+003, 2.241251e-002
3.369031e+003, 2.252465e-002
3.370960e+003, 2.274036e-002
3.372888e+003, 2.219559e-002
3.374817e+003, 2.206956e-002
3.376745e+003, 2.253293e-002
3.378674e+003, 2.241212e-002
3.380602e+003, 2.219018e-002
3.382531e+003, 2.222809e-002
3.384459e+003, 2.227060e-002
3.386387e+003, 2.222439e-002
3.388316e+003, 2.205492e-002
3.390244e+003, 2.192335e-002
3.392173e+003, 2.177360e-002
3.394101e+003, 2.211096e-002
3.396030e+003, 2.209017e-002
3.397958e+003, 2.228147e-002
3.399887e+003, 2.261517e-002
3.401815e+003, 2.255097e-002
3.403744e+003, 2.237780e-002
3.405672e+003, 2.200593e-002
3.407601e+003, 2.205507e-002
3.409529e+003, 2.242455e-002
3.411458e+003, 2.236471e-002
3.413386e+003, 2.218573e-002
3.415314e+003, 2.229614e-002
3.417243e+003, 2.255024e-002
3.419171e+003, 2.240838e-002
3.421100e+003, 2.242539e-002
3.423028e+003, 2.244978e-002
3.424957e+003, 2.224642e-002
3.426885e+003, 2.213194e-002
3.428814e+003, 2.200845e-002
3.430742e+003, 2.214785e-002
3.432671e+003, 2.229445e-002
3.434599e+003, 2.270371e-002
3.436528e+003, 2.284121e-002
3.438456e+003, 2.225350e-002
3.440385e+003, 2.140735e-002
3.442313e+003, 2.116586e-002
3.444241e+003, 2.187099e-002
3.446170e+003, 2.220909e-002
3.448098e+003, 2.201593e-002
3.450027e+003, 2.168166e-002
3.451955e+003, 2.147030e-002
3.453884e+003, 2.166596e-002
3.455812e+003, 2.184524e-002
3.457741e+003, 2.187300e-002
3.459669e+003, 2.219859e-002
3.461598e+003, 2.250584e-002
3.463526e+003, 2.265270e-002
3.465455e+003, 2.269725e-002
3.467383e+003, 2.255675e-002
3.469312e+003, 2.215418e-002
3.471240e+003, 2.166620e-002
3.473168e+003, 2.123654e-002
3.475097e+003, 2.097147e-002
3.477025e+003, 2.106617e-002
3.478954e+003, 2.125285e-002
3.480882e+003, 2.113551e-002
3.482811e+003, 2.107630e-002
3.484739e+003, 2.126677e-002
3.486668e+003, 2.134251e-002
3.488596e+003, 2.139921e-002
3.490525e+003, 2.089419e-002
3.492453e+003, 2.082830e-002
3.494382e+003, 2.126890e-002
3.496310e+003, 2.190107e-002
3.498239e+003, 2.196395e-002
3.500167e+003, 2.158100e-002
3.502095e+003, 2.121406e-002
3.504024e+003, 2.178473e-002
3.505952e+003, 2.188486e-002
3.507881e+003, 2.185610e-002
3.509809e+003, 2.216769e-002
3.511738e+003, 2.193113e-002
3.513666e+003, 2.195439e-002
3.515595e+003, 2.196479e-002
3.517523e+003, 2.163741e-002
3.519452e+003, 2.159818e-002
3.521380e+003, 2.192057e-002
3.523309e+003, 2.243016e-002
3.525237e+003, 2.216522e-002
3.527166e+003, 2.174355e-002
3.529094e+003, 2.151931e-002
3.531022e+003, 2.157782e-002
3.532951e+003, 2.166511e-002
3.534879e+003, 2.136824e-002
3.536808e+003, 2.132606e-002
3.538736e+003, 2.153982e-002
3.540665e+003, 2.173812e-002
3.542593e+003, 2.171472e-002
3.544522e+003, 2.130053e-002
3.546450e+003, 2.105657e-002
3.548379e+003, 2.141324e-002
3.550307e+003, 2.167861e-002
3.552236e+003, 2.167224e-002
3.554164e+003, 2.136074e-002
3.556093e+003, 2.116375e-002
3.558021e+003, 2.136683e-002
3.559949e+003, 2.135425e-002
3.561878e+003, 2.134141e-002
3.563806e+003, 2.178738e-002
3.565735e+003, 2.257977e-002
3.567663e+003, 2.238940e-002
3.569592e+003, 2.177009e-002
3.571520e+003, 2.198121e-002
3.573449e+003, 2.229814e-002
3.575377e+003, 2.231174e-002
3.577306e+003, 2.145067e-002
3.579234e+003, 2.124930e-002
3.581163e+003, 2.157558e-002
3.583091e+003, 2.181221e-002
3.585020e+003, 2.228696e-002
3.586948e+003, 2.239854e-002
3.588876e+003, 2.201964e-002
3.590805e+003, 2.141642e-002
3.592733e+003, 2.128226e-002
3.594662e+003, 2.126132e-002
3.596590e+003, 2.114227e-002
3.598519e+003, 2.104205e-002
3.600447e+003, 2.095672e-002
3.602376e+003, 2.064765e-002
3.604304e+003, 2.080780e-002
3.606233e+003, 2.171378e-002
3.608161e+003, 2.213178e-002
3.610090e+003, 2.197377e-002
3.612018e+003, 2.164450e-002
3.613947e+003, 2.137150e-002
3.615875e+003, 2.149683e-002
3.617803e+003, 2.156225e-002
3.619732e+003, 2.136863e-002
3.621660e+003, 2.158767e-002
3.623589e+003, 2.202319e-002
3.625517e+003, 2.198204e-002
3.627446e+003, 2.166846e-002
3.629374e+003, 2.149674e-002
3.631303e+003, 2.183057e-002
3.633231e+003, 2.205237e-002
3.635160e+003, 2.205516e-002
3.637088e+003, 2.202959e-002
3.639017e+003, 2.207440e-002
3.640945e+003, 2.214801e-002
3.642874e+003, 2.204125e-002
3.644802e+003, 2.157196e-002
3.646730e+003, 2.090163e-002
3.648659e+003, 2.121370e-002
3.650587e+003, 2.156182e-002
3.652516e+003, 2.149003e-002
3.654444e+003, 2.148874e-002
3.656373e+003, 2.145206e-002
3.658301e+003, 2.181038e-002
3.660230e+003, 2.250418e-002
3.662158e+003, 2.171503e-002
3.664087e+003, 2.133539e-002
3.666015e+003, 2.148475e-002
3.667944e+003, 2.221537e-002
3.669872e+003, 2.225602e-002
3.671801e+003, 2.160559e-002
3.673729e+003, 2.157968e-002
3.675657e+003, 2.143584e-002
3.677586e+003, 2.128432e-002
3.679514e+003, 2.167545e-002
3.681443e+003, 2.152818e-002
3.683371e+003, 2.119821e-002
3.685300e+003, 2.135000e-002
3.687228e+003, 2.152276e-002
3.689157e+003, 2.147938e-002
3.691085e+003, 2.149495e-002
3.693014e+003, 2.179740e-002
3.694942e+003, 2.202076e-002
3.696871e+003, 2.172344e-002
3.698799e+003, 2.210264e-002
3.700728e+003, 2.216390e-002
3.702656e+003, 2.150924e-002
3.704584e+003, 2.144207e-002
3.706513e+003, 2.243402e-002
3.708441e+003, 2.276121e-002
3.710370e+003, 2.221591e-002
3.712298e+003, 2.183441e-002
3.714227e+003, 2.192260e-002
3.716155e+003, 2.222034e-002
3.718084e+003, 2.210497e-002
3.720012e+003, 2.219516e-002
3.721941e+003, 2.241161e-002
3.723869e+003, 2.282337e-002
3.725798e+003, 2.279700e-002
3.727726e+003, 2.198338e-002
3.729655e+003, 2.162187e-002
3.731583e+003, 2.145262e-002
3.733511e+003, 2.165338e-002
3.735440e+003, 2.263107e-002
3.737368e+003, 2.319851e-002
3.739297e+003, 2.272316e-002
3.741225e+003, 2.194688e-002
3.743154e+003, 2.189496e-002
3.745082e+003, 2.218787e-002
3.747011e+003, 2.232252e-002
3.748939e+003, 2.251057e-002
3.750868e+003, 2.197863e-002
3.752796e+003, 2.125834e-002
3.754725e+003, 2.183479e-002
3.756653e+003, 2.229491e-002
3.758582e+003, 2.193736e-002
3.760510e+003, 2.213011e-002
3.762438e+003, 2.281600e-002
3.764367e+003, 2.242364e-002
3.766295e+003, 2.231899e-002
3.768224e+003, 2.226473e-002
3.770152e+003, 2.221661e-002
3.772081e+003, 2.265358e-002
3.774009e+003, 2.253115e-002
3.775938e+003, 2.251476e-002
3.777866e+003, 2.283086e-002
3.779795e+003, 2.248215e-002
3.781723e+003, 2.147463e-002
3.783652e+003, 2.140073e-002
3.785580e+003, 2.151419e-002
3.787509e+003, 2.119155e-002
3.789437e+003, 2.162199e-002
3.791365e+003, 2.241241e-002
3.793294e+003, 2.109394e-002
3.795222e+003, 2.054814e-002
3.797151e+003, 2.122065e-002
3.799079e+003, 2.176654e-002
3.801008e+003, 2.229732e-002
3.802936e+003, 2.224848e-002
3.804865e+003, 2.226002e-002
3.806793e+003, 2.230697e-002
3.808722e+003, 2.150111e-002
3.810650e+003, 2.160717e-002
3.812579e+003, 2.216277e-002
3.814507e+003, 2.271629e-002
3.816436e+003, 2.270137e-002
3.818364e+003, 2.199844e-002
3.820292e+003, 2.214565e-002
3.822221e+003, 2.220175e-002
3.824149e+003, 2.188103e-002
3.826078e+003, 2.139541e-002
3.828006e+003, 2.134787e-002
3.829935e+003, 2.239280e-002
3.831863e+003, 2.289985e-002
3.833792e+003, 2.291523e-002
3.835720e+003, 2.265219e-002
3.837649e+003, 2.241315e-002
3.839577e+003, 2.197537e-002
3.841506e+003, 2.129216e-002
3.843434e+003, 2.139765e-002
3.845363e+003, 2.207497e-002
3.847291e+003, 2.206615e-002
3.849219e+003, 2.216289e-002
3.851148e+003, 2.245695e-002
3.853076e+003, 2.268442e-002
3.855005e+003, 2.237652e-002
3.856933e+003, 2.201928e-002
3.858862e+003, 2.210841e-002
3.860790e+003, 2.167867e-002
3.862719e+003, 2.166746e-002
3.864647e+003, 2.216024e-002
3.866576e+003, 2.269896e-002
3.868504e+003, 2.269353e-002
3.870433e+003, 2.172840e-002
3.872361e+003, 2.087160e-002
3.874290e+003, 2.121749e-002
3.876218e+003, 2.189021e-002
3.878146e+003, 2.235718e-002
3.880075e+003, 2.157274e-002
3.882003e+003, 2.147363e-002
3.883932e+003, 2.179819e-002
3.885860e+003, 2.212220e-002
3.887789e+003, 2.265912e-002
3.889717e+003, 2.221298e-002
3.891646e+003, 2.153873e-002
3.893574e+003, 2.201894e-002
3.895503e+003, 2.211851e-002
3.897431e+003, 2.160109e-002
3.899360e+003, 2.210977e-002
3.901288e+003, 2.211115e-002
3.903217e+003, 2.178328e-002
3.905145e+003, 2.221141e-002
3.907073e+003, 2.203180e-002
3.909002e+003, 2.181045e-002
3.910930e+003, 2.181805e-002
3.912859e+003, 2.172218e-002
3.914787e+003, 2.153569e-002
3.916716e+003, 2.146797e-002
3.918644e+003, 2.158532e-002
3.920573e+003, 2.176474e-002
3.922501e+003, 2.154851e-002
3.924430e+003, 2.169383e-002
3.926358e+003, 2.173045e-002
3.928287e+003, 2.102557e-002
3.930215e+003, 2.151968e-002
3.932144e+003, 2.199882e-002
3.934072e+003, 2.193474e-002
3.936000e+003, 2.173653e-002
3.937929e+003, 2.157196e-002
3.939857e+003, 2.186188e-002
3.941786e+003, 2.236675e-002
3.943714e+003, 2.164864e-002
3.945643e+003, 2.120344e-002
3.947571e+003, 2.134584e-002
3.949500e+003, 2.150627e-002
3.951428e+003, 2.220300e-002
3.953357e+003, 2.223759e-002
3.955285e+003, 2.147195e-002
3.957214e+003, 2.105297e-002
3.959142e+003, 2.164326e-002
3.961071e+003, 2.160781e-002
3.962999e+003, 2.118943e-002
3.964927e+003, 2.153161e-002
3.966856e+003, 2.173707e-002
3.968784e+003, 2.186670e-002
3.970713e+003, 2.144167e-002
3.972641e+003, 2.082913e-002
3.974570e+003, 2.095347e-002
3.976498e+003, 2.155562e-002
3.978427e+003, 2.221623e-002
3.980355e+003, 2.199790e-002
3.982284e+003, 2.174331e-002
3.984212e+003, 2.158460e-002
3.986141e+003, 2.142495e-002
3.988069e+003, 2.165166e-002
3.989998e+003, 2.190030e-002
3.991926e+003, 2.146984e-002
3.993854e+003, 2.157413e-002
3.995783e+003, 2.162879e-002
3.997711e+003, 2.152872e-002
3.999640e+003, 2.169355e-002
4.001568e+003, 0.000000e+000
##END=



