##NAMES=Grossular
##RRUFFID=R050036
##IDEAL CHEMISTRY=Ca_3_Al_2_(SiO_4_)_3_
##LOCALITY=Wah Wah Mountains, Utah, USA
##OWNER=RRUFF
##SOURCE=Eugene Schlepp
##DESCRIPTION=Colorless single crystal in rhyolite matrix
##STATUS=The identification of this mineral has been confirmed by X-ray diffraction and chemical analysis
##URL=rruff.info/R050036
##MEASURED CHEMISTRY=(Ca_2.95_Mg_0.05_)_Σ=3_(Al_1.70_Fe^3+^_0.30_)_Σ=2_(Si_1.00_O_4_)_3_; trace amounts of P
3.991926e+002, 0.000000e+000
4.011211e+002, 2.195373e-001
4.030496e+002, 2.205902e-001
4.049780e+002, 2.310786e-001
4.069065e+002, 2.427292e-001
4.088350e+002, 2.539556e-001
4.107634e+002, 2.627527e-001
4.126919e+002, 2.704294e-001
4.146204e+002, 2.772804e-001
4.165488e+002, 2.839769e-001
4.184773e+002, 2.869278e-001
4.204058e+002, 2.851140e-001
4.223342e+002, 2.857355e-001
4.242627e+002, 2.880427e-001
4.261912e+002, 2.872057e-001
4.281196e+002, 2.896745e-001
4.300481e+002, 2.879013e-001
4.319766e+002, 2.856957e-001
4.339050e+002, 2.873747e-001
4.358335e+002, 2.830764e-001
4.377620e+002, 2.779203e-001
4.396904e+002, 2.710589e-001
4.416189e+002, 2.637272e-001
4.435474e+002, 2.569762e-001
4.454758e+002, 2.477447e-001
4.474043e+002, 2.397099e-001
4.493328e+002, 2.332039e-001
4.512612e+002, 2.273147e-001
4.531897e+002, 2.223711e-001
4.551182e+002, 2.174471e-001
4.570466e+002, 2.104368e-001
4.589751e+002, 2.027568e-001
4.609036e+002, 1.993366e-001
4.628320e+002, 2.004892e-001
4.647605e+002, 2.052735e-001
4.666890e+002, 2.074979e-001
4.686174e+002, 2.046102e-001
4.705459e+002, 1.982003e-001
4.724744e+002, 1.889838e-001
4.744028e+002, 1.796516e-001
4.763313e+002, 1.722240e-001
4.782598e+002, 1.665746e-001
4.801882e+002, 1.607518e-001
4.821167e+002, 1.553975e-001
4.840452e+002, 1.497255e-001
4.859736e+002, 1.452853e-001
4.879021e+002, 1.415677e-001
4.898306e+002, 1.362177e-001
4.917590e+002, 1.315215e-001
4.936875e+002, 1.284049e-001
4.956160e+002, 1.251679e-001
4.975444e+002, 1.225770e-001
4.994729e+002, 1.208227e-001
5.014014e+002, 1.178297e-001
5.033298e+002, 1.130226e-001
5.052583e+002, 1.074922e-001
5.071868e+002, 1.003539e-001
5.091152e+002, 9.275322e-002
5.110437e+002, 8.642557e-002
5.129722e+002, 8.076311e-002
5.149006e+002, 7.597324e-002
5.168291e+002, 7.334170e-002
5.187576e+002, 7.225707e-002
5.206860e+002, 7.297971e-002
5.226145e+002, 7.705256e-002
5.245430e+002, 8.475699e-002
5.264714e+002, 9.625261e-002
5.283999e+002, 1.103805e-001
5.303284e+002, 1.249487e-001
5.322568e+002, 1.375993e-001
5.341853e+002, 1.452492e-001
5.361138e+002, 1.443951e-001
5.380422e+002, 1.378875e-001
5.399707e+002, 1.294355e-001
5.418992e+002, 1.196722e-001
5.438276e+002, 1.093020e-001
5.457561e+002, 9.924145e-002
5.476846e+002, 8.944543e-002
5.496130e+002, 8.102160e-002
5.515415e+002, 7.365647e-002
5.534700e+002, 6.640745e-002
5.553984e+002, 5.988739e-002
5.573269e+002, 5.430408e-002
5.592554e+002, 4.954167e-002
5.611838e+002, 4.513480e-002
5.631123e+002, 4.175723e-002
5.650408e+002, 3.933373e-002
5.669692e+002, 3.723907e-002
5.688977e+002, 3.542045e-002
5.708262e+002, 3.348524e-002
5.727546e+002, 3.185389e-002
5.746831e+002, 3.011395e-002
5.766116e+002, 2.800574e-002
5.785400e+002, 2.654812e-002
5.804685e+002, 2.585691e-002
5.823970e+002, 2.548985e-002
5.843254e+002, 2.471744e-002
5.862539e+002, 2.379674e-002
5.881824e+002, 2.376420e-002
5.901108e+002, 2.432532e-002
5.920393e+002, 2.459187e-002
5.939678e+002, 2.499689e-002
5.958962e+002, 2.660483e-002
5.978247e+002, 2.829792e-002
5.997532e+002, 3.008877e-002
6.016816e+002, 3.280680e-002
6.036101e+002, 3.684510e-002
6.055386e+002, 4.276245e-002
6.074670e+002, 5.072383e-002
6.093955e+002, 5.944515e-002
6.113240e+002, 6.736071e-002
6.132524e+002, 7.100037e-002
6.151809e+002, 6.826954e-002
6.171094e+002, 6.077182e-002
6.190378e+002, 5.197646e-002
6.209663e+002, 4.370934e-002
6.228948e+002, 3.728513e-002
6.248232e+002, 3.287205e-002
6.267517e+002, 2.933233e-002
6.286802e+002, 2.635421e-002
6.306086e+002, 2.399625e-002
6.325371e+002, 2.215715e-002
6.344656e+002, 2.085732e-002
6.363940e+002, 2.000956e-002
6.383225e+002, 1.962296e-002
6.402510e+002, 1.901710e-002
6.421794e+002, 1.851464e-002
6.441079e+002, 1.856051e-002
6.460364e+002, 1.874236e-002
6.479648e+002, 1.901419e-002
6.498933e+002, 1.918859e-002
6.518218e+002, 1.920735e-002
6.537502e+002, 1.956907e-002
6.556787e+002, 1.986383e-002
6.576072e+002, 1.989330e-002
6.595356e+002, 2.000318e-002
6.614641e+002, 2.036942e-002
6.633926e+002, 2.094865e-002
6.653210e+002, 2.155350e-002
6.672495e+002, 2.226694e-002
6.691780e+002, 2.292352e-002
6.711064e+002, 2.312760e-002
6.730349e+002, 2.322127e-002
6.749634e+002, 2.368407e-002
6.768918e+002, 2.454767e-002
6.788203e+002, 2.545138e-002
6.807488e+002, 2.626490e-002
6.826772e+002, 2.659164e-002
6.846057e+002, 2.666655e-002
6.865342e+002, 2.721940e-002
6.884626e+002, 2.811358e-002
6.903911e+002, 2.900380e-002
6.923196e+002, 3.003393e-002
6.942480e+002, 3.098610e-002
6.961765e+002, 3.210488e-002
6.981050e+002, 3.324701e-002
7.000334e+002, 3.399872e-002
7.019619e+002, 3.503911e-002
7.038904e+002, 3.645408e-002
7.058188e+002, 3.804645e-002
7.077473e+002, 3.938573e-002
7.096758e+002, 4.082195e-002
7.116042e+002, 4.239172e-002
7.135327e+002, 4.389555e-002
7.154612e+002, 4.591109e-002
7.173896e+002, 4.793490e-002
7.193181e+002, 4.978276e-002
7.212466e+002, 5.191912e-002
7.231750e+002, 5.432265e-002
7.251035e+002, 5.672499e-002
7.270320e+002, 5.926172e-002
7.289604e+002, 6.223407e-002
7.308889e+002, 6.530950e-002
7.328174e+002, 6.802105e-002
7.347458e+002, 7.116670e-002
7.366743e+002, 7.498818e-002
7.386028e+002, 7.887612e-002
7.405313e+002, 8.254369e-002
7.424597e+002, 8.638194e-002
7.443882e+002, 9.034371e-002
7.463167e+002, 9.464701e-002
7.482451e+002, 9.889733e-002
7.501736e+002, 1.028951e-001
7.521021e+002, 1.072513e-001
7.540305e+002, 1.116992e-001
7.559590e+002, 1.157662e-001
7.578875e+002, 1.198295e-001
7.598159e+002, 1.241527e-001
7.617444e+002, 1.285006e-001
7.636729e+002, 1.328286e-001
7.656013e+002, 1.377409e-001
7.675298e+002, 1.431204e-001
7.694583e+002, 1.486901e-001
7.713867e+002, 1.543572e-001
7.733152e+002, 1.601257e-001
7.752437e+002, 1.662547e-001
7.771721e+002, 1.724236e-001
7.791006e+002, 1.784434e-001
7.810291e+002, 1.845746e-001
7.829575e+002, 1.906463e-001
7.848860e+002, 1.969566e-001
7.868145e+002, 2.033515e-001
7.887429e+002, 2.094245e-001
7.906714e+002, 2.154300e-001
7.925999e+002, 2.216361e-001
7.945283e+002, 2.283579e-001
7.964568e+002, 2.348815e-001
7.983853e+002, 2.411295e-001
8.003137e+002, 2.473293e-001
8.022422e+002, 2.535068e-001
8.041707e+002, 2.594947e-001
8.060991e+002, 2.650867e-001
8.080276e+002, 2.702275e-001
8.099561e+002, 2.748724e-001
8.118845e+002, 2.793857e-001
8.138130e+002, 2.838561e-001
8.157415e+002, 2.880922e-001
8.176699e+002, 2.919936e-001
8.195984e+002, 2.954436e-001
8.215269e+002, 2.984785e-001
8.234553e+002, 3.011201e-001
8.253838e+002, 3.025399e-001
8.273123e+002, 3.026606e-001
8.292407e+002, 3.019347e-001
8.311692e+002, 3.005074e-001
8.330977e+002, 2.976320e-001
8.350261e+002, 2.931619e-001
8.369546e+002, 2.871344e-001
8.388831e+002, 2.795988e-001
8.408115e+002, 2.718780e-001
8.427400e+002, 2.652084e-001
8.446685e+002, 2.605412e-001
8.465969e+002, 2.586513e-001
8.485254e+002, 2.591106e-001
8.504539e+002, 2.598484e-001
8.523823e+002, 2.588635e-001
8.543108e+002, 2.546532e-001
8.562393e+002, 2.471208e-001
8.581677e+002, 2.379344e-001
8.600962e+002, 2.275179e-001
8.620247e+002, 2.162537e-001
8.639531e+002, 2.051397e-001
8.658816e+002, 1.937986e-001
8.678101e+002, 1.827725e-001
8.697385e+002, 1.724968e-001
8.716670e+002, 1.626989e-001
8.735955e+002, 1.532801e-001
8.755239e+002, 1.445437e-001
8.774524e+002, 1.367109e-001
8.793809e+002, 1.306913e-001
8.813093e+002, 1.266709e-001
8.832378e+002, 1.256282e-001
8.851663e+002, 1.290106e-001
8.870947e+002, 1.369772e-001
8.890232e+002, 1.497217e-001
8.909517e+002, 1.674623e-001
8.928801e+002, 1.882325e-001
8.948085e+002, 2.096002e-001
8.967370e+002, 2.293345e-001
8.986655e+002, 2.455361e-001
9.005939e+002, 2.570871e-001
9.025224e+002, 2.630374e-001
9.044509e+002, 2.634498e-001
9.063793e+002, 2.598821e-001
9.083078e+002, 2.529084e-001
9.102363e+002, 2.436209e-001
9.121647e+002, 2.335323e-001
9.140932e+002, 2.238334e-001
9.160217e+002, 2.144284e-001
9.179501e+002, 2.053185e-001
9.198786e+002, 1.965394e-001
9.218071e+002, 1.886226e-001
9.237355e+002, 1.816828e-001
9.256640e+002, 1.753867e-001
9.275925e+002, 1.696018e-001
9.295209e+002, 1.642680e-001
9.314494e+002, 1.590174e-001
9.333779e+002, 1.535016e-001
9.353063e+002, 1.481072e-001
9.372348e+002, 1.429475e-001
9.391633e+002, 1.381338e-001
9.410917e+002, 1.332935e-001
9.430202e+002, 1.283949e-001
9.449487e+002, 1.239303e-001
9.468771e+002, 1.193568e-001
9.488056e+002, 1.144534e-001
9.507341e+002, 1.097178e-001
9.526625e+002, 1.051550e-001
9.545910e+002, 1.007666e-001
9.565195e+002, 9.646515e-002
9.584479e+002, 9.161317e-002
9.603764e+002, 8.637209e-002
9.623049e+002, 8.128116e-002
9.642333e+002, 7.699449e-002
9.661618e+002, 7.275229e-002
9.680903e+002, 6.863119e-002
9.700187e+002, 6.454327e-002
9.719472e+002, 6.065215e-002
9.738757e+002, 5.694596e-002
9.758041e+002, 5.312614e-002
9.777326e+002, 4.945461e-002
9.796611e+002, 4.596622e-002
9.815895e+002, 4.254028e-002
9.835180e+002, 3.934446e-002
9.854465e+002, 3.648870e-002
9.873749e+002, 3.407774e-002
9.893034e+002, 3.186123e-002
9.912319e+002, 2.981982e-002
9.931603e+002, 2.801607e-002
9.950888e+002, 2.653973e-002
9.970173e+002, 2.539007e-002
9.989457e+002, 2.428502e-002
1.000874e+003, 2.316528e-002
1.002803e+003, 2.228465e-002
1.004731e+003, 2.153604e-002
1.006660e+003, 2.106568e-002
1.008588e+003, 2.072623e-002
1.010517e+003, 2.009247e-002
1.012445e+003, 1.944397e-002
1.014373e+003, 1.895698e-002
1.016302e+003, 1.856071e-002
1.018230e+003, 1.824034e-002
1.020159e+003, 1.792401e-002
1.022087e+003, 1.745965e-002
1.024016e+003, 1.681641e-002
1.025944e+003, 1.639907e-002
1.027873e+003, 1.616034e-002
1.029801e+003, 1.553448e-002
1.031730e+003, 1.513900e-002
1.033658e+003, 1.519780e-002
1.035587e+003, 1.494064e-002
1.037515e+003, 1.454846e-002
1.039444e+003, 1.404547e-002
1.041372e+003, 1.360757e-002
1.043301e+003, 1.334155e-002
1.045229e+003, 1.310812e-002
1.047157e+003, 1.280436e-002
1.049086e+003, 1.239789e-002
1.051014e+003, 1.187612e-002
1.052943e+003, 1.179426e-002
1.054871e+003, 1.181776e-002
1.056800e+003, 1.151462e-002
1.058728e+003, 1.112137e-002
1.060657e+003, 1.048855e-002
1.062585e+003, 1.036408e-002
1.064514e+003, 1.050326e-002
1.066442e+003, 1.049261e-002
1.068371e+003, 1.036818e-002
1.070299e+003, 1.007084e-002
1.072228e+003, 9.888960e-003
1.074156e+003, 9.756702e-003
1.076084e+003, 9.748427e-003
1.078013e+003, 9.715787e-003
1.079941e+003, 9.537211e-003
1.081870e+003, 9.488557e-003
1.083798e+003, 9.324707e-003
1.085727e+003, 9.163680e-003
1.087655e+003, 8.908903e-003
1.089584e+003, 8.750017e-003
1.091512e+003, 8.875309e-003
1.093441e+003, 8.915076e-003
1.095369e+003, 8.678612e-003
1.097298e+003, 8.460356e-003
1.099226e+003, 8.288633e-003
1.101155e+003, 8.085126e-003
1.103083e+003, 8.111288e-003
1.105011e+003, 8.034226e-003
1.106940e+003, 8.142385e-003
1.108868e+003, 8.297614e-003
1.110797e+003, 8.006199e-003
1.112725e+003, 7.682774e-003
1.114654e+003, 7.713003e-003
1.116582e+003, 7.760949e-003
1.118511e+003, 7.902445e-003
1.120439e+003, 7.855230e-003
1.122368e+003, 7.511895e-003
1.124296e+003, 7.465448e-003
1.126225e+003, 7.558807e-003
1.128153e+003, 7.522044e-003
1.130082e+003, 7.450606e-003
1.132010e+003, 7.144352e-003
1.133938e+003, 6.954629e-003
1.135867e+003, 6.660731e-003
1.137795e+003, 6.458093e-003
1.139724e+003, 6.432187e-003
1.141652e+003, 6.465956e-003
1.143581e+003, 6.345413e-003
1.145509e+003, 6.000608e-003
1.147438e+003, 5.522812e-003
1.149366e+003, 5.486207e-003
1.151295e+003, 5.672878e-003
1.153223e+003, 5.590142e-003
1.155152e+003, 5.421427e-003
1.157080e+003, 5.299035e-003
1.159009e+003, 5.142363e-003
1.160937e+003, 5.144227e-003
1.162865e+003, 5.115523e-003
1.164794e+003, 5.105572e-003
1.166722e+003, 5.023564e-003
1.168651e+003, 4.716940e-003
1.170579e+003, 4.529855e-003
1.172508e+003, 4.546883e-003
1.174436e+003, 4.448481e-003
1.176365e+003, 4.306770e-003
1.178293e+003, 4.200214e-003
1.180222e+003, 4.063267e-003
1.182150e+003, 4.056364e-003
1.184079e+003, 3.789819e-003
1.186007e+003, 3.629528e-003
1.187936e+003, 3.787782e-003
1.189864e+003, 3.794947e-003
1.191792e+003, 3.770527e-003
1.193721e+003, 3.751860e-003
1.195649e+003, 3.757471e-003
1.197578e+003, 3.863511e-003
1.199506e+003, 3.670026e-003
1.201435e+003, 3.559415e-003
1.203363e+003, 3.436440e-003
1.205292e+003, 3.404995e-003
1.207220e+003, 3.594069e-003
1.209149e+003, 3.530289e-003
1.211077e+003, 3.433673e-003
1.213006e+003, 3.365985e-003
1.214934e+003, 3.494925e-003
1.216863e+003, 3.734053e-003
1.218791e+003, 3.576985e-003
1.220719e+003, 3.372410e-003
1.222648e+003, 3.216279e-003
1.224576e+003, 3.299998e-003
1.226505e+003, 3.284044e-003
1.228433e+003, 3.199457e-003
1.230362e+003, 3.232362e-003
1.232290e+003, 3.240234e-003
1.234219e+003, 3.290084e-003
1.236147e+003, 3.349057e-003
1.238076e+003, 3.470019e-003
1.240004e+003, 3.539202e-003
1.241933e+003, 3.482416e-003
1.243861e+003, 3.410353e-003
1.245790e+003, 3.563544e-003
1.247718e+003, 3.678002e-003
1.249646e+003, 3.759889e-003
1.251575e+003, 3.920541e-003
1.253503e+003, 3.804584e-003
1.255432e+003, 3.621384e-003
1.257360e+003, 3.731232e-003
1.259289e+003, 3.668799e-003
1.261217e+003, 3.563106e-003
1.263146e+003, 3.580988e-003
1.265074e+003, 3.658609e-003
1.267003e+003, 3.626668e-003
1.268931e+003, 3.556923e-003
1.270860e+003, 3.597219e-003
1.272788e+003, 3.707900e-003
1.274717e+003, 3.869522e-003
1.276645e+003, 4.132983e-003
1.278573e+003, 4.217373e-003
1.280502e+003, 4.191841e-003
1.282430e+003, 4.089314e-003
1.284359e+003, 3.777382e-003
1.286287e+003, 3.578525e-003
1.288216e+003, 3.673179e-003
1.290144e+003, 3.814250e-003
1.292073e+003, 3.946774e-003
1.294001e+003, 3.804218e-003
1.295930e+003, 3.680388e-003
1.297858e+003, 3.835189e-003
1.299787e+003, 4.227374e-003
1.301715e+003, 4.182162e-003
1.303644e+003, 3.952015e-003
1.305572e+003, 4.078778e-003
1.307500e+003, 4.382629e-003
1.309429e+003, 4.387800e-003
1.311357e+003, 4.311761e-003
1.313286e+003, 4.528223e-003
1.315214e+003, 4.727962e-003
1.317143e+003, 4.570747e-003
1.319071e+003, 4.208183e-003
1.321000e+003, 4.122136e-003
1.322928e+003, 4.351749e-003
1.324857e+003, 4.429170e-003
1.326785e+003, 4.591649e-003
1.328714e+003, 4.444601e-003
1.330642e+003, 4.452609e-003
1.332571e+003, 4.676945e-003
1.334499e+003, 4.810353e-003
1.336427e+003, 4.862429e-003
1.338356e+003, 4.946078e-003
1.340284e+003, 4.920931e-003
1.342213e+003, 4.804196e-003
1.344141e+003, 4.922115e-003
1.346070e+003, 5.246314e-003
1.347998e+003, 5.442030e-003
1.349927e+003, 5.569468e-003
1.351855e+003, 5.598285e-003
1.353784e+003, 5.548456e-003
1.355712e+003, 5.475974e-003
1.357641e+003, 5.632995e-003
1.359569e+003, 5.662703e-003
1.361498e+003, 5.668872e-003
1.363426e+003, 6.130723e-003
1.365354e+003, 6.436902e-003
1.367283e+003, 6.505558e-003
1.369211e+003, 6.652585e-003
1.371140e+003, 6.842991e-003
1.373068e+003, 6.971986e-003
1.374997e+003, 7.016111e-003
1.376925e+003, 7.117497e-003
1.378854e+003, 7.326341e-003
1.380782e+003, 7.497545e-003
1.382711e+003, 7.566461e-003
1.384639e+003, 7.778557e-003
1.386568e+003, 8.096371e-003
1.388496e+003, 8.256698e-003
1.390424e+003, 8.320468e-003
1.392353e+003, 8.575994e-003
1.394281e+003, 8.721728e-003
1.396210e+003, 8.845130e-003
1.398138e+003, 9.136347e-003
1.400067e+003, 9.304273e-003
1.401995e+003, 9.358955e-003
1.403924e+003, 9.645594e-003
1.405852e+003, 9.784046e-003
1.407781e+003, 9.824919e-003
1.409709e+003, 9.529939e-003
1.411638e+003, 9.428268e-003
1.413566e+003, 9.495688e-003
1.415495e+003, 9.338105e-003
1.417423e+003, 9.503693e-003
1.419351e+003, 9.910321e-003
1.421280e+003, 9.818192e-003
1.423208e+003, 9.834926e-003
1.425137e+003, 9.814248e-003
1.427065e+003, 9.556716e-003
1.428994e+003, 9.504042e-003
1.430922e+003, 9.694354e-003
1.432851e+003, 9.683635e-003
1.434779e+003, 9.779815e-003
1.436708e+003, 1.002331e-002
1.438636e+003, 1.000756e-002
1.440565e+003, 9.767448e-003
1.442493e+003, 9.740796e-003
1.444422e+003, 9.817955e-003
1.446350e+003, 9.981240e-003
1.448278e+003, 1.005665e-002
1.450207e+003, 1.022590e-002
1.452135e+003, 1.021620e-002
1.454064e+003, 9.950277e-003
1.455992e+003, 9.649545e-003
1.457921e+003, 9.737128e-003
1.459849e+003, 9.795955e-003
1.461778e+003, 9.650071e-003
1.463706e+003, 9.678329e-003
1.465635e+003, 9.720798e-003
1.467563e+003, 9.948554e-003
1.469492e+003, 1.023341e-002
1.471420e+003, 1.009094e-002
1.473349e+003, 9.839605e-003
1.475277e+003, 9.659142e-003
1.477205e+003, 9.660856e-003
1.479134e+003, 9.609679e-003
1.481062e+003, 9.877770e-003
1.482991e+003, 9.957545e-003
1.484919e+003, 9.772624e-003
1.486848e+003, 9.735408e-003
1.488776e+003, 9.646500e-003
1.490705e+003, 9.651215e-003
1.492633e+003, 9.875458e-003
1.494562e+003, 9.974666e-003
1.496490e+003, 1.010309e-002
1.498419e+003, 9.883927e-003
1.500347e+003, 9.690257e-003
1.502276e+003, 9.531656e-003
1.504204e+003, 9.229747e-003
1.506132e+003, 9.163276e-003
1.508061e+003, 9.260521e-003
1.509989e+003, 9.313893e-003
1.511918e+003, 9.303644e-003
1.513846e+003, 9.151260e-003
1.515775e+003, 9.008575e-003
1.517703e+003, 8.811269e-003
1.519632e+003, 9.020614e-003
1.521560e+003, 9.317738e-003
1.523489e+003, 9.268352e-003
1.525417e+003, 9.065305e-003
1.527346e+003, 8.948665e-003
1.529274e+003, 8.970038e-003
1.531203e+003, 8.954217e-003
1.533131e+003, 8.865803e-003
1.535059e+003, 9.081472e-003
1.536988e+003, 9.226003e-003
1.538916e+003, 9.084643e-003
1.540845e+003, 8.921585e-003
1.542773e+003, 8.983045e-003
1.544702e+003, 9.323267e-003
1.546630e+003, 9.509153e-003
1.548559e+003, 9.363255e-003
1.550487e+003, 9.229883e-003
1.552416e+003, 9.321920e-003
1.554344e+003, 9.703307e-003
1.556273e+003, 9.770270e-003
1.558201e+003, 9.721772e-003
1.560130e+003, 9.656891e-003
1.562058e+003, 9.677796e-003
1.563986e+003, 9.773883e-003
1.565915e+003, 9.970833e-003
1.567843e+003, 1.005198e-002
1.569772e+003, 9.719316e-003
1.571700e+003, 9.540648e-003
1.573629e+003, 9.550155e-003
1.575557e+003, 9.582330e-003
1.577486e+003, 9.764540e-003
1.579414e+003, 1.012390e-002
1.581343e+003, 1.028228e-002
1.583271e+003, 9.977032e-003
1.585200e+003, 9.799938e-003
1.587128e+003, 1.012521e-002
1.589057e+003, 1.050313e-002
1.590985e+003, 1.031109e-002
1.592913e+003, 9.997464e-003
1.594842e+003, 1.003337e-002
1.596770e+003, 9.976038e-003
1.598699e+003, 1.009028e-002
1.600627e+003, 9.956010e-003
1.602556e+003, 1.003943e-002
1.604484e+003, 1.036315e-002
1.606413e+003, 1.008694e-002
1.608341e+003, 1.001785e-002
1.610270e+003, 1.026444e-002
1.612198e+003, 1.035902e-002
1.614127e+003, 1.033680e-002
1.616055e+003, 1.043746e-002
1.617984e+003, 1.033720e-002
1.619912e+003, 1.045026e-002
1.621840e+003, 1.041159e-002
1.623769e+003, 1.023554e-002
1.625697e+003, 1.034699e-002
1.627626e+003, 1.052979e-002
1.629554e+003, 1.066554e-002
1.631483e+003, 1.079677e-002
1.633411e+003, 1.049318e-002
1.635340e+003, 1.003789e-002
1.637268e+003, 1.008392e-002
1.639197e+003, 1.029776e-002
1.641125e+003, 1.053516e-002
1.643054e+003, 1.072394e-002
1.644982e+003, 1.059626e-002
1.646911e+003, 1.048770e-002
1.648839e+003, 1.053158e-002
1.650767e+003, 1.042641e-002
1.652696e+003, 1.017213e-002
1.654624e+003, 1.043192e-002
1.656553e+003, 1.074614e-002
1.658481e+003, 1.067093e-002
1.660410e+003, 1.057785e-002
1.662338e+003, 1.096407e-002
1.664267e+003, 1.126948e-002
1.666195e+003, 1.094497e-002
1.668124e+003, 1.097731e-002
1.670052e+003, 1.123318e-002
1.671981e+003, 1.117860e-002
1.673909e+003, 1.086704e-002
1.675838e+003, 1.054894e-002
1.677766e+003, 1.059583e-002
1.679694e+003, 1.083737e-002
1.681623e+003, 1.076156e-002
1.683551e+003, 1.054761e-002
1.685480e+003, 1.066264e-002
1.687408e+003, 1.060675e-002
1.689337e+003, 1.048165e-002
1.691265e+003, 1.066636e-002
1.693194e+003, 1.091628e-002
1.695122e+003, 1.053710e-002
1.697051e+003, 9.840656e-003
1.698979e+003, 9.739932e-003
1.700908e+003, 9.895281e-003
1.702836e+003, 9.649148e-003
1.704765e+003, 9.308179e-003
1.706693e+003, 9.083541e-003
1.708621e+003, 9.129482e-003
1.710550e+003, 9.044862e-003
1.712478e+003, 8.703566e-003
1.714407e+003, 8.804357e-003
1.716335e+003, 9.057828e-003
1.718264e+003, 9.334771e-003
1.720192e+003, 9.590771e-003
1.722121e+003, 9.423811e-003
1.724049e+003, 9.691672e-003
1.725978e+003, 1.008249e-002
1.727906e+003, 9.744088e-003
1.729835e+003, 9.335692e-003
1.731763e+003, 9.175350e-003
1.733692e+003, 9.217098e-003
1.735620e+003, 9.313850e-003
1.737548e+003, 9.068013e-003
1.739477e+003, 8.937645e-003
1.741405e+003, 8.822678e-003
1.743334e+003, 8.679332e-003
1.745262e+003, 8.772812e-003
1.747191e+003, 8.765578e-003
1.749119e+003, 9.009128e-003
1.751048e+003, 9.120129e-003
1.752976e+003, 8.728284e-003
1.754905e+003, 8.946140e-003
1.756833e+003, 9.042746e-003
1.758762e+003, 8.798483e-003
1.760690e+003, 8.823606e-003
1.762619e+003, 8.669384e-003
1.764547e+003, 8.709676e-003
1.766475e+003, 8.830771e-003
1.768404e+003, 8.530108e-003
1.770332e+003, 8.454228e-003
1.772261e+003, 8.485775e-003
1.774189e+003, 8.750008e-003
1.776118e+003, 8.594803e-003
1.778046e+003, 8.430691e-003
1.779975e+003, 8.428320e-003
1.781903e+003, 8.698532e-003
1.783832e+003, 9.046144e-003
1.785760e+003, 8.904617e-003
1.787689e+003, 8.639992e-003
1.789617e+003, 8.324186e-003
1.791546e+003, 8.404749e-003
1.793474e+003, 8.680892e-003
1.795402e+003, 8.521129e-003
1.797331e+003, 8.562610e-003
1.799259e+003, 8.448579e-003
1.801188e+003, 8.061969e-003
1.803116e+003, 8.346335e-003
1.805045e+003, 8.047278e-003
1.806973e+003, 7.795519e-003
1.808902e+003, 7.708129e-003
1.810830e+003, 7.669476e-003
1.812759e+003, 7.634032e-003
1.814687e+003, 7.380328e-003
1.816616e+003, 7.584568e-003
1.818544e+003, 8.315477e-003
1.820473e+003, 8.370795e-003
1.822401e+003, 8.242610e-003
1.824329e+003, 8.296755e-003
1.826258e+003, 8.368193e-003
1.828186e+003, 8.559525e-003
1.830115e+003, 8.883071e-003
1.832043e+003, 9.135417e-003
1.833972e+003, 8.604135e-003
1.835900e+003, 7.932839e-003
1.837829e+003, 7.770696e-003
1.839757e+003, 7.839006e-003
1.841686e+003, 8.508516e-003
1.843614e+003, 8.131509e-003
1.845543e+003, 8.159154e-003
1.847471e+003, 8.524157e-003
1.849400e+003, 8.209863e-003
1.851328e+003, 7.991747e-003
1.853256e+003, 8.273844e-003
1.855185e+003, 8.774377e-003
1.857113e+003, 8.539078e-003
1.859042e+003, 8.059775e-003
1.860970e+003, 7.910205e-003
1.862899e+003, 7.973372e-003
1.864827e+003, 7.913872e-003
1.866756e+003, 8.330011e-003
1.868684e+003, 8.262181e-003
1.870613e+003, 7.759294e-003
1.872541e+003, 7.744721e-003
1.874470e+003, 7.964442e-003
1.876398e+003, 7.932445e-003
1.878327e+003, 8.346583e-003
1.880255e+003, 8.539576e-003
1.882183e+003, 8.026401e-003
1.884112e+003, 7.427689e-003
1.886040e+003, 7.701967e-003
1.887969e+003, 8.304856e-003
1.889897e+003, 8.358736e-003
1.891826e+003, 7.714075e-003
1.893754e+003, 7.831743e-003
1.895683e+003, 8.155408e-003
1.897611e+003, 7.930490e-003
1.899540e+003, 7.695537e-003
1.901468e+003, 8.248872e-003
1.903397e+003, 8.114881e-003
1.905325e+003, 8.601930e-003
1.907254e+003, 9.671815e-003
1.909182e+003, 9.119242e-003
1.911110e+003, 8.168820e-003
1.913039e+003, 8.590063e-003
1.914967e+003, 8.971432e-003
1.916896e+003, 9.240651e-003
1.918824e+003, 8.524257e-003
1.920753e+003, 7.771638e-003
1.922681e+003, 7.199807e-003
1.924610e+003, 7.452428e-003
1.926538e+003, 7.954199e-003
1.928467e+003, 7.947648e-003
1.930395e+003, 7.868866e-003
1.932324e+003, 7.687499e-003
1.934252e+003, 7.631704e-003
1.936181e+003, 7.566176e-003
1.938109e+003, 7.978711e-003
1.940037e+003, 8.602803e-003
1.941966e+003, 8.489181e-003
1.943894e+003, 7.981556e-003
1.945823e+003, 6.362916e-003
1.947751e+003, 5.829022e-003
1.949680e+003, 5.966143e-003
1.951608e+003, 6.689952e-003
1.953537e+003, 7.935493e-003
1.955465e+003, 8.464894e-003
1.957394e+003, 8.623036e-003
1.959322e+003, 8.760987e-003
1.961251e+003, 8.935709e-003
1.963179e+003, 8.816625e-003
1.965108e+003, 9.278060e-003
1.967036e+003, 9.278292e-003
1.968964e+003, 8.385680e-003
1.970893e+003, 7.528922e-003
1.972821e+003, 8.505932e-003
1.974750e+003, 7.712754e-003
1.976678e+003, 5.990422e-003
1.978607e+003, 9.448688e-003
1.980535e+003, 1.274957e-002
1.982464e+003, 1.174770e-002
1.984392e+003, 9.795550e-003
1.986321e+003, 8.821987e-003
1.988249e+003, 9.903948e-003
1.990178e+003, 1.039058e-002
1.992106e+003, 9.720239e-003
1.994035e+003, 8.765356e-003
1.995963e+003, 8.449077e-003
1.997891e+003, 1.037639e-002
1.999820e+003, 1.110833e-002
2.001748e+003, 1.021045e-002
2.003677e+003, 1.159466e-002
2.005605e+003, 1.173608e-002
2.007534e+003, 1.150767e-002
2.009462e+003, 1.093757e-002
2.011391e+003, 1.084338e-002
2.013319e+003, 1.138563e-002
2.015248e+003, 1.217214e-002
2.017176e+003, 1.178826e-002
2.019105e+003, 1.193152e-002
2.021033e+003, 1.133475e-002
2.022962e+003, 9.921546e-003
2.024890e+003, 9.472462e-003
2.026818e+003, 1.095111e-002
2.028747e+003, 1.133094e-002
2.030675e+003, 1.180129e-002
2.032604e+003, 1.298330e-002
2.034532e+003, 1.308643e-002
2.036461e+003, 1.348594e-002
2.038389e+003, 1.372580e-002
2.040318e+003, 1.306574e-002
2.042246e+003, 1.308545e-002
2.044175e+003, 1.399056e-002
2.046103e+003, 1.349491e-002
2.048032e+003, 1.478579e-002
2.049960e+003, 1.638957e-002
2.051889e+003, 1.612292e-002
2.053817e+003, 1.377908e-002
2.055746e+003, 1.164885e-002
2.057674e+003, 1.142290e-002
2.059603e+003, 1.299899e-002
2.061531e+003, 1.397738e-002
2.063459e+003, 1.354062e-002
2.065388e+003, 1.202810e-002
2.067316e+003, 1.139845e-002
2.069245e+003, 1.172621e-002
2.071173e+003, 1.358295e-002
2.073102e+003, 1.509721e-002
2.075030e+003, 1.458838e-002
2.076959e+003, 1.300816e-002
2.078887e+003, 1.277384e-002
2.080816e+003, 1.293871e-002
2.082744e+003, 1.376262e-002
2.084673e+003, 1.356387e-002
2.086601e+003, 1.293066e-002
2.088530e+003, 1.299532e-002
2.090458e+003, 1.246870e-002
2.092386e+003, 1.242056e-002
2.094315e+003, 1.285392e-002
2.096243e+003, 1.340477e-002
2.098172e+003, 1.388133e-002
2.100100e+003, 1.304273e-002
2.102029e+003, 1.282087e-002
2.103957e+003, 1.333793e-002
2.105886e+003, 1.318442e-002
2.107814e+003, 1.333545e-002
2.109743e+003, 1.425077e-002
2.111671e+003, 1.385271e-002
2.113600e+003, 1.275360e-002
2.115528e+003, 1.218545e-002
2.117457e+003, 1.238795e-002
2.119385e+003, 1.231372e-002
2.121313e+003, 1.222940e-002
2.123242e+003, 1.246091e-002
2.125170e+003, 1.152644e-002
2.127099e+003, 1.159299e-002
2.129027e+003, 1.237961e-002
2.130956e+003, 1.112598e-002
2.132884e+003, 1.132003e-002
2.134813e+003, 1.210272e-002
2.136741e+003, 1.206316e-002
2.138670e+003, 1.275203e-002
2.140598e+003, 1.334179e-002
2.142527e+003, 1.369342e-002
2.144455e+003, 1.381135e-002
2.146384e+003, 1.105573e-002
2.148312e+003, 9.700385e-003
2.150240e+003, 9.782602e-003
2.152169e+003, 9.292678e-003
2.154097e+003, 9.815585e-003
2.156026e+003, 7.982640e-003
2.157954e+003, 9.091925e-003
2.159883e+003, 1.476487e-002
2.161811e+003, 1.788716e-002
2.163740e+003, 1.644834e-002
2.165668e+003, 1.524586e-002
2.167597e+003, 1.478484e-002
2.169525e+003, 1.127534e-002
2.171454e+003, 9.322312e-003
2.173382e+003, 1.117381e-002
2.175311e+003, 1.381375e-002
2.177239e+003, 1.449203e-002
2.179167e+003, 1.375976e-002
2.181096e+003, 1.312272e-002
2.183024e+003, 1.306346e-002
2.184953e+003, 1.425144e-002
2.186881e+003, 1.691480e-002
2.188810e+003, 1.662203e-002
2.190738e+003, 1.497730e-002
2.192667e+003, 1.716919e-002
2.194595e+003, 1.676418e-002
2.196524e+003, 1.425051e-002
2.198452e+003, 1.504432e-002
2.200381e+003, 1.564449e-002
2.202309e+003, 1.468204e-002
2.204238e+003, 1.521257e-002
2.206166e+003, 1.642077e-002
2.208094e+003, 1.551633e-002
2.210023e+003, 1.499605e-002
2.211951e+003, 1.525505e-002
2.213880e+003, 1.601139e-002
2.215808e+003, 1.514271e-002
2.217737e+003, 1.415507e-002
2.219665e+003, 1.646760e-002
2.221594e+003, 1.808833e-002
2.223522e+003, 1.669426e-002
2.225451e+003, 1.546493e-002
2.227379e+003, 1.458701e-002
2.229308e+003, 1.332361e-002
2.231236e+003, 1.487232e-002
2.233165e+003, 1.832339e-002
2.235093e+003, 1.957476e-002
2.237021e+003, 1.694313e-002
2.238950e+003, 1.607351e-002
2.240878e+003, 1.627085e-002
2.242807e+003, 1.585184e-002
2.244735e+003, 1.616059e-002
2.246664e+003, 1.646896e-002
2.248592e+003, 1.535421e-002
2.250521e+003, 1.378419e-002
2.252449e+003, 1.467446e-002
2.254378e+003, 1.443828e-002
2.256306e+003, 1.515308e-002
2.258235e+003, 1.651880e-002
2.260163e+003, 1.573836e-002
2.262092e+003, 1.531508e-002
2.264020e+003, 1.512005e-002
2.265948e+003, 1.485372e-002
2.267877e+003, 1.558840e-002
2.269805e+003, 1.651996e-002
2.271734e+003, 1.646995e-002
2.273662e+003, 1.619322e-002
2.275591e+003, 1.734312e-002
2.277519e+003, 1.795309e-002
2.279448e+003, 1.762627e-002
2.281376e+003, 1.700710e-002
2.283305e+003, 1.767147e-002
2.285233e+003, 1.829605e-002
2.287162e+003, 1.732015e-002
2.289090e+003, 1.674907e-002
2.291019e+003, 1.681664e-002
2.292947e+003, 1.630709e-002
2.294875e+003, 1.604052e-002
2.296804e+003, 1.640841e-002
2.298732e+003, 1.662033e-002
2.300661e+003, 1.649825e-002
2.302589e+003, 1.664096e-002
2.304518e+003, 1.676276e-002
2.306446e+003, 1.723594e-002
2.308375e+003, 1.785647e-002
2.310303e+003, 1.741202e-002
2.312232e+003, 1.680766e-002
2.314160e+003, 1.733056e-002
2.316089e+003, 1.791032e-002
2.318017e+003, 1.750200e-002
2.319946e+003, 1.717831e-002
2.321874e+003, 1.790589e-002
2.323802e+003, 1.807204e-002
2.325731e+003, 1.657726e-002
2.327659e+003, 1.583425e-002
2.329588e+003, 1.629320e-002
2.331516e+003, 1.695061e-002
2.333445e+003, 1.719178e-002
2.335373e+003, 1.664167e-002
2.337302e+003, 1.654310e-002
2.339230e+003, 1.663957e-002
2.341159e+003, 1.655055e-002
2.343087e+003, 1.740208e-002
2.345016e+003, 1.734147e-002
2.346944e+003, 1.611131e-002
2.348873e+003, 1.587215e-002
2.350801e+003, 1.591209e-002
2.352729e+003, 1.543727e-002
2.354658e+003, 1.587456e-002
2.356586e+003, 1.636404e-002
2.358515e+003, 1.651010e-002
2.360443e+003, 1.678823e-002
2.362372e+003, 1.667419e-002
2.364300e+003, 1.596447e-002
2.366229e+003, 1.617659e-002
2.368157e+003, 1.626700e-002
2.370086e+003, 1.574685e-002
2.372014e+003, 1.595828e-002
2.373942e+003, 1.631063e-002
2.375871e+003, 1.675796e-002
2.377799e+003, 1.698611e-002
2.379728e+003, 1.588716e-002
2.381656e+003, 1.627006e-002
2.383585e+003, 1.707366e-002
2.385513e+003, 1.614776e-002
2.387442e+003, 1.557203e-002
2.389370e+003, 1.570861e-002
2.391299e+003, 1.631493e-002
2.393227e+003, 1.587470e-002
2.395156e+003, 1.544941e-002
2.397084e+003, 1.630493e-002
2.399012e+003, 1.655609e-002
2.400941e+003, 1.644779e-002
2.402869e+003, 1.639950e-002
2.404798e+003, 1.682778e-002
2.406726e+003, 1.729702e-002
2.408655e+003, 1.732418e-002
2.410583e+003, 1.707082e-002
2.412512e+003, 1.668323e-002
2.414440e+003, 1.659558e-002
2.416369e+003, 1.718851e-002
2.418297e+003, 1.663296e-002
2.420226e+003, 1.594896e-002
2.422154e+003, 1.632230e-002
2.424083e+003, 1.673398e-002
2.426011e+003, 1.633898e-002
2.427939e+003, 1.665607e-002
2.429868e+003, 1.799440e-002
2.431796e+003, 1.768788e-002
2.433725e+003, 1.690384e-002
2.435653e+003, 1.642201e-002
2.437582e+003, 1.642841e-002
2.439510e+003, 1.667301e-002
2.441439e+003, 1.687772e-002
2.443367e+003, 1.654295e-002
2.445296e+003, 1.707062e-002
2.447224e+003, 1.688130e-002
2.449153e+003, 1.636046e-002
2.451081e+003, 1.716935e-002
2.453010e+003, 1.781010e-002
2.454938e+003, 1.816578e-002
2.456866e+003, 1.782234e-002
2.458795e+003, 1.695463e-002
2.460723e+003, 1.749075e-002
2.462652e+003, 1.787924e-002
2.464580e+003, 1.708500e-002
2.466509e+003, 1.672276e-002
2.468437e+003, 1.640260e-002
2.470366e+003, 1.613808e-002
2.472294e+003, 1.654348e-002
2.474223e+003, 1.618651e-002
2.476151e+003, 1.558515e-002
2.478080e+003, 1.542292e-002
2.480008e+003, 1.677170e-002
2.481937e+003, 1.742684e-002
2.483865e+003, 1.771472e-002
2.485793e+003, 1.812282e-002
2.487722e+003, 1.737545e-002
2.489650e+003, 1.614938e-002
2.491579e+003, 1.663725e-002
2.493507e+003, 1.730901e-002
2.495436e+003, 1.679783e-002
2.497364e+003, 1.668584e-002
2.499293e+003, 1.758220e-002
2.501221e+003, 1.772351e-002
2.503150e+003, 1.723222e-002
2.505078e+003, 1.695652e-002
2.507007e+003, 1.696809e-002
2.508935e+003, 1.719479e-002
2.510864e+003, 1.765116e-002
2.512792e+003, 1.729668e-002
2.514720e+003, 1.674783e-002
2.516649e+003, 1.675753e-002
2.518577e+003, 1.725789e-002
2.520506e+003, 1.739141e-002
2.522434e+003, 1.712717e-002
2.524363e+003, 1.736534e-002
2.526291e+003, 1.796978e-002
2.528220e+003, 1.778821e-002
2.530148e+003, 1.803549e-002
2.532077e+003, 1.827863e-002
2.534005e+003, 1.748121e-002
2.535934e+003, 1.745281e-002
2.537862e+003, 1.747663e-002
2.539791e+003, 1.728898e-002
2.541719e+003, 1.755973e-002
2.543647e+003, 1.781573e-002
2.545576e+003, 1.825310e-002
2.547504e+003, 1.804909e-002
2.549433e+003, 1.852863e-002
2.551361e+003, 1.951153e-002
2.553290e+003, 1.834858e-002
2.555218e+003, 1.781494e-002
2.557147e+003, 1.811781e-002
2.559075e+003, 1.782975e-002
2.561004e+003, 1.827490e-002
2.562932e+003, 1.824791e-002
2.564861e+003, 1.818714e-002
2.566789e+003, 1.894114e-002
2.568718e+003, 1.910328e-002
2.570646e+003, 1.863961e-002
2.572574e+003, 1.798833e-002
2.574503e+003, 1.812910e-002
2.576431e+003, 1.884014e-002
2.578360e+003, 1.879563e-002
2.580288e+003, 1.849338e-002
2.582217e+003, 1.803412e-002
2.584145e+003, 1.765732e-002
2.586074e+003, 1.890716e-002
2.588002e+003, 1.864939e-002
2.589931e+003, 1.850301e-002
2.591859e+003, 1.918003e-002
2.593788e+003, 1.880007e-002
2.595716e+003, 1.824351e-002
2.597645e+003, 1.867556e-002
2.599573e+003, 1.919493e-002
2.601501e+003, 1.928184e-002
2.603430e+003, 1.958015e-002
2.605358e+003, 1.960452e-002
2.607287e+003, 1.929383e-002
2.609215e+003, 1.956045e-002
2.611144e+003, 1.982509e-002
2.613072e+003, 1.964926e-002
2.615001e+003, 2.004588e-002
2.616929e+003, 2.015969e-002
2.618858e+003, 1.993964e-002
2.620786e+003, 1.993754e-002
2.622715e+003, 1.947467e-002
2.624643e+003, 1.950852e-002
2.626572e+003, 1.954765e-002
2.628500e+003, 1.965632e-002
2.630428e+003, 1.963773e-002
2.632357e+003, 1.964105e-002
2.634285e+003, 2.037318e-002
2.636214e+003, 1.995403e-002
2.638142e+003, 1.926371e-002
2.640071e+003, 2.011221e-002
2.641999e+003, 2.079873e-002
2.643928e+003, 2.081964e-002
2.645856e+003, 2.061807e-002
2.647785e+003, 2.012975e-002
2.649713e+003, 1.969069e-002
2.651642e+003, 1.972779e-002
2.653570e+003, 1.993947e-002
2.655499e+003, 1.933693e-002
2.657427e+003, 1.895282e-002
2.659355e+003, 1.943085e-002
2.661284e+003, 1.956063e-002
2.663212e+003, 2.007077e-002
2.665141e+003, 1.973137e-002
2.667069e+003, 1.933388e-002
2.668998e+003, 1.927319e-002
2.670926e+003, 1.837873e-002
2.672855e+003, 1.826953e-002
2.674783e+003, 1.883527e-002
2.676712e+003, 1.892239e-002
2.678640e+003, 1.903347e-002
2.680569e+003, 1.894483e-002
2.682497e+003, 1.849597e-002
2.684426e+003, 1.858315e-002
2.686354e+003, 1.879849e-002
2.688282e+003, 1.904274e-002
2.690211e+003, 1.975924e-002
2.692139e+003, 1.958591e-002
2.694068e+003, 1.879700e-002
2.695996e+003, 1.890313e-002
2.697925e+003, 1.919738e-002
2.699853e+003, 1.941629e-002
2.701782e+003, 1.918520e-002
2.703710e+003, 1.888761e-002
2.705639e+003, 1.923579e-002
2.707567e+003, 1.960877e-002
2.709496e+003, 1.949880e-002
2.711424e+003, 1.855496e-002
2.713353e+003, 1.777947e-002
2.715281e+003, 1.854524e-002
2.717209e+003, 1.953498e-002
2.719138e+003, 1.949390e-002
2.721066e+003, 1.931111e-002
2.722995e+003, 1.920269e-002
2.724923e+003, 1.939395e-002
2.726852e+003, 1.941569e-002
2.728780e+003, 1.870562e-002
2.730709e+003, 1.856394e-002
2.732637e+003, 1.941387e-002
2.734566e+003, 1.964138e-002
2.736494e+003, 1.937976e-002
2.738423e+003, 1.939531e-002
2.740351e+003, 1.935956e-002
2.742280e+003, 1.883147e-002
2.744208e+003, 1.915039e-002
2.746136e+003, 2.000978e-002
2.748065e+003, 1.990805e-002
2.749993e+003, 2.005089e-002
2.751922e+003, 2.039090e-002
2.753850e+003, 2.000214e-002
2.755779e+003, 1.964737e-002
2.757707e+003, 1.973012e-002
2.759636e+003, 2.034479e-002
2.761564e+003, 2.054996e-002
2.763493e+003, 2.050387e-002
2.765421e+003, 2.024815e-002
2.767350e+003, 2.013312e-002
2.769278e+003, 1.973416e-002
2.771207e+003, 1.973694e-002
2.773135e+003, 1.979250e-002
2.775063e+003, 1.968168e-002
2.776992e+003, 2.013113e-002
2.778920e+003, 2.007752e-002
2.780849e+003, 2.018935e-002
2.782777e+003, 1.997297e-002
2.784706e+003, 1.986931e-002
2.786634e+003, 2.000892e-002
2.788563e+003, 2.023106e-002
2.790491e+003, 2.015313e-002
2.792420e+003, 2.034030e-002
2.794348e+003, 1.997383e-002
2.796277e+003, 1.993331e-002
2.798205e+003, 2.071644e-002
2.800134e+003, 2.055359e-002
2.802062e+003, 2.045530e-002
2.803990e+003, 2.060868e-002
2.805919e+003, 2.002332e-002
2.807847e+003, 1.991891e-002
2.809776e+003, 2.055006e-002
2.811704e+003, 2.097273e-002
2.813633e+003, 2.083701e-002
2.815561e+003, 2.094556e-002
2.817490e+003, 2.079460e-002
2.819418e+003, 2.031074e-002
2.821347e+003, 2.067946e-002
2.823275e+003, 2.160297e-002
2.825204e+003, 2.075332e-002
2.827132e+003, 1.997032e-002
2.829061e+003, 2.072344e-002
2.830989e+003, 2.136905e-002
2.832917e+003, 2.118720e-002
2.834846e+003, 2.093147e-002
2.836774e+003, 2.084647e-002
2.838703e+003, 2.109553e-002
2.840631e+003, 2.117830e-002
2.842560e+003, 2.104883e-002
2.844488e+003, 2.080617e-002
2.846417e+003, 2.024329e-002
2.848345e+003, 2.046636e-002
2.850274e+003, 2.103787e-002
2.852202e+003, 2.061716e-002
2.854131e+003, 1.988649e-002
2.856059e+003, 1.959678e-002
2.857988e+003, 1.929934e-002
2.859916e+003, 1.934804e-002
2.861844e+003, 2.007132e-002
2.863773e+003, 2.019593e-002
2.865701e+003, 2.047310e-002
2.867630e+003, 2.066198e-002
2.869558e+003, 2.080993e-002
2.871487e+003, 2.119079e-002
2.873415e+003, 2.103061e-002
2.875344e+003, 2.093050e-002
2.877272e+003, 2.157830e-002
2.879201e+003, 2.174838e-002
2.881129e+003, 2.112827e-002
2.883058e+003, 2.133193e-002
2.884986e+003, 2.135673e-002
2.886915e+003, 2.052098e-002
2.888843e+003, 2.094735e-002
2.890771e+003, 2.208372e-002
2.892700e+003, 2.193332e-002
2.894628e+003, 2.133904e-002
2.896557e+003, 2.227622e-002
2.898485e+003, 2.276443e-002
2.900414e+003, 2.140434e-002
2.902342e+003, 2.051687e-002
2.904271e+003, 2.067547e-002
2.906199e+003, 2.143055e-002
2.908128e+003, 2.164623e-002
2.910056e+003, 2.176142e-002
2.911985e+003, 2.210880e-002
2.913913e+003, 2.241662e-002
2.915842e+003, 2.215906e-002
2.917770e+003, 2.252955e-002
2.919698e+003, 2.232943e-002
2.921627e+003, 2.118973e-002
2.923555e+003, 2.115449e-002
2.925484e+003, 2.131003e-002
2.927412e+003, 2.062393e-002
2.929341e+003, 1.973747e-002
2.931269e+003, 2.096145e-002
2.933198e+003, 2.100695e-002
2.935126e+003, 2.049915e-002
2.937055e+003, 2.110683e-002
2.938983e+003, 2.127226e-002
2.940912e+003, 2.104471e-002
2.942840e+003, 2.120107e-002
2.944769e+003, 2.196575e-002
2.946697e+003, 2.290220e-002
2.948625e+003, 2.251795e-002
2.950554e+003, 2.073264e-002
2.952482e+003, 1.986125e-002
2.954411e+003, 2.074168e-002
2.956339e+003, 2.082128e-002
2.958268e+003, 2.054564e-002
2.960196e+003, 2.017305e-002
2.962125e+003, 2.026996e-002
2.964053e+003, 2.130773e-002
2.965982e+003, 2.144633e-002
2.967910e+003, 2.177623e-002
2.969839e+003, 2.276285e-002
2.971767e+003, 2.277766e-002
2.973696e+003, 2.203599e-002
2.975624e+003, 2.140277e-002
2.977552e+003, 2.147159e-002
2.979481e+003, 2.150838e-002
2.981409e+003, 2.184924e-002
2.983338e+003, 2.259496e-002
2.985266e+003, 2.330692e-002
2.987195e+003, 2.326640e-002
2.989123e+003, 2.288529e-002
2.991052e+003, 2.154966e-002
2.992980e+003, 2.138313e-002
2.994909e+003, 2.215705e-002
2.996837e+003, 2.225592e-002
2.998766e+003, 2.183309e-002
3.000694e+003, 2.225675e-002
3.002623e+003, 2.282532e-002
3.004551e+003, 2.191991e-002
3.006479e+003, 2.149582e-002
3.008408e+003, 2.250843e-002
3.010336e+003, 2.305342e-002
3.012265e+003, 2.229888e-002
3.014193e+003, 2.249426e-002
3.016122e+003, 2.267611e-002
3.018050e+003, 2.216352e-002
3.019979e+003, 2.214989e-002
3.021907e+003, 2.170238e-002
3.023836e+003, 2.144559e-002
3.025764e+003, 2.117367e-002
3.027693e+003, 2.153703e-002
3.029621e+003, 2.299927e-002
3.031550e+003, 2.307311e-002
3.033478e+003, 2.201553e-002
3.035406e+003, 2.191067e-002
3.037335e+003, 2.164830e-002
3.039263e+003, 2.093137e-002
3.041192e+003, 2.117993e-002
3.043120e+003, 2.181720e-002
3.045049e+003, 2.145370e-002
3.046977e+003, 2.198695e-002
3.048906e+003, 2.263233e-002
3.050834e+003, 2.181847e-002
3.052763e+003, 2.103602e-002
3.054691e+003, 2.239715e-002
3.056620e+003, 2.319628e-002
3.058548e+003, 2.304420e-002
3.060477e+003, 2.359325e-002
3.062405e+003, 2.304950e-002
3.064333e+003, 2.192672e-002
3.066262e+003, 2.266717e-002
3.068190e+003, 2.409272e-002
3.070119e+003, 2.405976e-002
3.072047e+003, 2.350939e-002
3.073976e+003, 2.283181e-002
3.075904e+003, 2.211266e-002
3.077833e+003, 2.195232e-002
3.079761e+003, 2.284579e-002
3.081690e+003, 2.368389e-002
3.083618e+003, 2.422468e-002
3.085547e+003, 2.311565e-002
3.087475e+003, 2.238853e-002
3.089404e+003, 2.293585e-002
3.091332e+003, 2.303743e-002
3.093260e+003, 2.315738e-002
3.095189e+003, 2.323681e-002
3.097117e+003, 2.262417e-002
3.099046e+003, 2.231831e-002
3.100974e+003, 2.178581e-002
3.102903e+003, 2.223651e-002
3.104831e+003, 2.283894e-002
3.106760e+003, 2.324189e-002
3.108688e+003, 2.250836e-002
3.110617e+003, 2.193298e-002
3.112545e+003, 2.222898e-002
3.114474e+003, 2.317248e-002
3.116402e+003, 2.348612e-002
3.118331e+003, 2.299373e-002
3.120259e+003, 2.376107e-002
3.122188e+003, 2.440739e-002
3.124116e+003, 2.374614e-002
3.126044e+003, 2.312927e-002
3.127973e+003, 2.395124e-002
3.129901e+003, 2.390802e-002
3.131830e+003, 2.371565e-002
3.133758e+003, 2.307296e-002
3.135687e+003, 2.342917e-002
3.137615e+003, 2.448039e-002
3.139544e+003, 2.523899e-002
3.141472e+003, 2.552378e-002
3.143401e+003, 2.554043e-002
3.145329e+003, 2.590884e-002
3.147258e+003, 2.595379e-002
3.149186e+003, 2.510713e-002
3.151115e+003, 2.415753e-002
3.153043e+003, 2.558296e-002
3.154971e+003, 2.654565e-002
3.156900e+003, 2.606712e-002
3.158828e+003, 2.512612e-002
3.160757e+003, 2.456724e-002
3.162685e+003, 2.479185e-002
3.164614e+003, 2.483169e-002
3.166542e+003, 2.400551e-002
3.168471e+003, 2.444912e-002
3.170399e+003, 2.531281e-002
3.172328e+003, 2.476547e-002
3.174256e+003, 2.487407e-002
3.176185e+003, 2.484246e-002
3.178113e+003, 2.509006e-002
3.180042e+003, 2.534211e-002
3.181970e+003, 2.541771e-002
3.183898e+003, 2.629839e-002
3.185827e+003, 2.661158e-002
3.187755e+003, 2.578364e-002
3.189684e+003, 2.555395e-002
3.191612e+003, 2.579105e-002
3.193541e+003, 2.645822e-002
3.195469e+003, 2.732080e-002
3.197398e+003, 2.616021e-002
3.199326e+003, 2.508271e-002
3.201255e+003, 2.499580e-002
3.203183e+003, 2.470024e-002
3.205112e+003, 2.466589e-002
3.207040e+003, 2.581711e-002
3.208969e+003, 2.638563e-002
3.210897e+003, 2.600602e-002
3.212825e+003, 2.651676e-002
3.214754e+003, 2.591293e-002
3.216682e+003, 2.507779e-002
3.218611e+003, 2.532797e-002
3.220539e+003, 2.578626e-002
3.222468e+003, 2.577626e-002
3.224396e+003, 2.532480e-002
3.226325e+003, 2.584834e-002
3.228253e+003, 2.660532e-002
3.230182e+003, 2.688975e-002
3.232110e+003, 2.766338e-002
3.234039e+003, 2.718739e-002
3.235967e+003, 2.749879e-002
3.237896e+003, 2.854282e-002
3.239824e+003, 2.825663e-002
3.241752e+003, 2.630694e-002
3.243681e+003, 2.503846e-002
3.245609e+003, 2.479095e-002
3.247538e+003, 2.539705e-002
3.249466e+003, 2.613759e-002
3.251395e+003, 2.552899e-002
3.253323e+003, 2.546435e-002
3.255252e+003, 2.655738e-002
3.257180e+003, 2.684638e-002
3.259109e+003, 2.779731e-002
3.261037e+003, 2.730545e-002
3.262966e+003, 2.645129e-002
3.264894e+003, 2.656642e-002
3.266823e+003, 2.646074e-002
3.268751e+003, 2.667260e-002
3.270679e+003, 2.749236e-002
3.272608e+003, 2.792476e-002
3.274536e+003, 2.754686e-002
3.276465e+003, 2.569961e-002
3.278393e+003, 2.640170e-002
3.280322e+003, 2.799531e-002
3.282250e+003, 2.820654e-002
3.284179e+003, 2.832070e-002
3.286107e+003, 2.907703e-002
3.288036e+003, 2.898172e-002
3.289964e+003, 2.788598e-002
3.291893e+003, 2.683457e-002
3.293821e+003, 2.695318e-002
3.295750e+003, 2.775345e-002
3.297678e+003, 2.829856e-002
3.299606e+003, 2.919593e-002
3.301535e+003, 2.972649e-002
3.303463e+003, 2.886726e-002
3.305392e+003, 2.690088e-002
3.307320e+003, 2.671780e-002
3.309249e+003, 2.742253e-002
3.311177e+003, 2.725945e-002
3.313106e+003, 2.784499e-002
3.315034e+003, 2.803127e-002
3.316963e+003, 2.747579e-002
3.318891e+003, 2.701874e-002
3.320820e+003, 2.763677e-002
3.322748e+003, 2.829696e-002
3.324677e+003, 2.752162e-002
3.326605e+003, 2.769644e-002
3.328533e+003, 2.853220e-002
3.330462e+003, 2.793318e-002
3.332390e+003, 2.769506e-002
3.334319e+003, 2.832600e-002
3.336247e+003, 2.819913e-002
3.338176e+003, 2.833269e-002
3.340104e+003, 2.857381e-002
3.342033e+003, 2.877690e-002
3.343961e+003, 2.889134e-002
3.345890e+003, 2.947414e-002
3.347818e+003, 2.979478e-002
3.349747e+003, 2.952029e-002
3.351675e+003, 3.022781e-002
3.353604e+003, 3.084720e-002
3.355532e+003, 2.918565e-002
3.357460e+003, 2.849497e-002
3.359389e+003, 2.846220e-002
3.361317e+003, 2.895080e-002
3.363246e+003, 2.937671e-002
3.365174e+003, 2.945277e-002
3.367103e+003, 2.990196e-002
3.369031e+003, 3.008026e-002
3.370960e+003, 2.958792e-002
3.372888e+003, 2.725609e-002
3.374817e+003, 2.842363e-002
3.376745e+003, 3.098189e-002
3.378674e+003, 3.040275e-002
3.380602e+003, 2.832569e-002
3.382531e+003, 2.755747e-002
3.384459e+003, 2.944374e-002
3.386387e+003, 3.104610e-002
3.388316e+003, 3.102350e-002
3.390244e+003, 3.108499e-002
3.392173e+003, 3.167047e-002
3.394101e+003, 3.072619e-002
3.396030e+003, 2.954368e-002
3.397958e+003, 2.968928e-002
3.399887e+003, 2.946593e-002
3.401815e+003, 2.940765e-002
3.403744e+003, 3.055178e-002
3.405672e+003, 3.097923e-002
3.407601e+003, 2.984160e-002
3.409529e+003, 2.992431e-002
3.411458e+003, 2.952154e-002
3.413386e+003, 3.001367e-002
3.415314e+003, 3.096108e-002
3.417243e+003, 2.993053e-002
3.419171e+003, 2.870471e-002
3.421100e+003, 2.799685e-002
3.423028e+003, 2.804322e-002
3.424957e+003, 2.950191e-002
3.426885e+003, 3.001114e-002
3.428814e+003, 2.939729e-002
3.430742e+003, 2.873552e-002
3.432671e+003, 2.945017e-002
3.434599e+003, 2.964290e-002
3.436528e+003, 2.973507e-002
3.438456e+003, 3.074307e-002
3.440385e+003, 3.064054e-002
3.442313e+003, 3.032506e-002
3.444241e+003, 2.987306e-002
3.446170e+003, 2.929042e-002
3.448098e+003, 2.855206e-002
3.450027e+003, 2.818892e-002
3.451955e+003, 2.788722e-002
3.453884e+003, 2.889211e-002
3.455812e+003, 2.996591e-002
3.457741e+003, 2.933629e-002
3.459669e+003, 3.034548e-002
3.461598e+003, 3.142804e-002
3.463526e+003, 2.961279e-002
3.465455e+003, 2.875985e-002
3.467383e+003, 3.044358e-002
3.469312e+003, 3.076872e-002
3.471240e+003, 2.984526e-002
3.473168e+003, 2.940599e-002
3.475097e+003, 2.997891e-002
3.477025e+003, 3.064110e-002
3.478954e+003, 2.906711e-002
3.480882e+003, 2.771425e-002
3.482811e+003, 2.826062e-002
3.484739e+003, 3.016161e-002
3.486668e+003, 2.975744e-002
3.488596e+003, 2.792636e-002
3.490525e+003, 2.802748e-002
3.492453e+003, 2.959353e-002
3.494382e+003, 2.978052e-002
3.496310e+003, 2.999168e-002
3.498239e+003, 3.040619e-002
3.500167e+003, 2.966691e-002
3.502095e+003, 2.798179e-002
3.504024e+003, 2.676355e-002
3.505952e+003, 2.720061e-002
3.507881e+003, 2.848339e-002
3.509809e+003, 2.781728e-002
3.511738e+003, 2.627500e-002
3.513666e+003, 2.603400e-002
3.515595e+003, 2.710744e-002
3.517523e+003, 2.824803e-002
3.519452e+003, 2.794647e-002
3.521380e+003, 2.681317e-002
3.523309e+003, 2.626759e-002
3.525237e+003, 2.680987e-002
3.527166e+003, 2.708346e-002
3.529094e+003, 2.674762e-002
3.531022e+003, 2.599887e-002
3.532951e+003, 2.592619e-002
3.534879e+003, 2.611618e-002
3.536808e+003, 2.762557e-002
3.538736e+003, 2.678221e-002
3.540665e+003, 2.674666e-002
3.542593e+003, 2.634191e-002
3.544522e+003, 2.661251e-002
3.546450e+003, 2.786094e-002
3.548379e+003, 2.738437e-002
3.550307e+003, 2.732239e-002
3.552236e+003, 2.743509e-002
3.554164e+003, 2.652786e-002
3.556093e+003, 2.585133e-002
3.558021e+003, 2.690080e-002
3.559949e+003, 2.740295e-002
3.561878e+003, 2.694089e-002
3.563806e+003, 2.726343e-002
3.565735e+003, 2.802121e-002
3.567663e+003, 2.833056e-002
3.569592e+003, 2.833000e-002
3.571520e+003, 2.679743e-002
3.573449e+003, 2.627532e-002
3.575377e+003, 2.783452e-002
3.577306e+003, 2.791263e-002
3.579234e+003, 2.650594e-002
3.581163e+003, 2.419378e-002
3.583091e+003, 2.463221e-002
3.585020e+003, 2.679411e-002
3.586948e+003, 2.750881e-002
3.588876e+003, 2.634129e-002
3.590805e+003, 2.572880e-002
3.592733e+003, 2.634216e-002
3.594662e+003, 2.703502e-002
3.596590e+003, 2.702462e-002
3.598519e+003, 2.686203e-002
3.600447e+003, 2.633174e-002
3.602376e+003, 2.722361e-002
3.604304e+003, 2.634921e-002
3.606233e+003, 2.423981e-002
3.608161e+003, 2.420821e-002
3.610090e+003, 2.575299e-002
3.612018e+003, 2.645479e-002
3.613947e+003, 2.245066e-002
3.615875e+003, 2.015851e-002
3.617803e+003, 2.198110e-002
3.619732e+003, 2.413361e-002
3.621660e+003, 2.564795e-002
3.623589e+003, 2.632250e-002
3.625517e+003, 2.604169e-002
3.627446e+003, 2.477754e-002
3.629374e+003, 2.592264e-002
3.631303e+003, 2.667439e-002
3.633231e+003, 2.410188e-002
3.635160e+003, 2.290744e-002
3.637088e+003, 2.283608e-002
3.639017e+003, 2.126825e-002
3.640945e+003, 2.098493e-002
3.642874e+003, 2.296126e-002
3.644802e+003, 2.446532e-002
3.646730e+003, 2.474886e-002
3.648659e+003, 2.596649e-002
3.650587e+003, 2.473966e-002
3.652516e+003, 2.368149e-002
3.654444e+003, 2.348297e-002
3.656373e+003, 2.258261e-002
3.658301e+003, 2.375506e-002
3.660230e+003, 2.275811e-002
3.662158e+003, 2.164453e-002
3.664087e+003, 2.206390e-002
3.666015e+003, 2.278261e-002
3.667944e+003, 2.213306e-002
3.669872e+003, 2.340868e-002
3.671801e+003, 2.482087e-002
3.673729e+003, 2.306879e-002
3.675657e+003, 2.076228e-002
3.677586e+003, 2.284426e-002
3.679514e+003, 2.460259e-002
3.681443e+003, 2.527641e-002
3.683371e+003, 2.336724e-002
3.685300e+003, 2.322941e-002
3.687228e+003, 2.309941e-002
3.689157e+003, 2.112311e-002
3.691085e+003, 2.366995e-002
3.693014e+003, 2.634394e-002
3.694942e+003, 2.363695e-002
3.696871e+003, 2.351040e-002
3.698799e+003, 2.422497e-002
3.700728e+003, 2.278335e-002
3.702656e+003, 2.080438e-002
3.704584e+003, 1.981054e-002
3.706513e+003, 2.108749e-002
3.708441e+003, 2.384835e-002
3.710370e+003, 2.497800e-002
3.712298e+003, 2.396252e-002
3.714227e+003, 2.255102e-002
3.716155e+003, 2.344740e-002
3.718084e+003, 2.405436e-002
3.720012e+003, 2.420479e-002
3.721941e+003, 2.371898e-002
3.723869e+003, 2.316079e-002
3.725798e+003, 2.336001e-002
3.727726e+003, 2.286951e-002
3.729655e+003, 2.219026e-002
3.731583e+003, 2.176608e-002
3.733511e+003, 2.172111e-002
3.735440e+003, 2.028033e-002
3.737368e+003, 2.034570e-002
3.739297e+003, 2.159471e-002
3.741225e+003, 2.273250e-002
3.743154e+003, 2.427646e-002
3.745082e+003, 2.333917e-002
3.747011e+003, 2.234281e-002
3.748939e+003, 2.113497e-002
3.750868e+003, 2.128650e-002
3.752796e+003, 2.119079e-002
3.754725e+003, 2.404502e-002
3.756653e+003, 2.669686e-002
3.758582e+003, 2.674566e-002
3.760510e+003, 2.491389e-002
3.762438e+003, 2.292305e-002
3.764367e+003, 2.186079e-002
3.766295e+003, 2.386781e-002
3.768224e+003, 2.393848e-002
3.770152e+003, 2.341630e-002
3.772081e+003, 2.366174e-002
3.774009e+003, 2.242293e-002
3.775938e+003, 2.264637e-002
3.777866e+003, 2.358715e-002
3.779795e+003, 2.231789e-002
3.781723e+003, 2.372856e-002
3.783652e+003, 2.618233e-002
3.785580e+003, 2.688418e-002
3.787509e+003, 2.518878e-002
3.789437e+003, 2.367256e-002
3.791365e+003, 2.384834e-002
3.793294e+003, 2.283480e-002
3.795222e+003, 2.181387e-002
3.797151e+003, 2.356685e-002
3.799079e+003, 2.516645e-002
3.801008e+003, 2.679867e-002
3.802936e+003, 2.605725e-002
3.804865e+003, 2.478836e-002
3.806793e+003, 2.292759e-002
3.808722e+003, 2.325243e-002
3.810650e+003, 2.599514e-002
3.812579e+003, 2.607790e-002
3.814507e+003, 2.489883e-002
3.816436e+003, 2.477751e-002
3.818364e+003, 2.694516e-002
3.820292e+003, 2.645695e-002
3.822221e+003, 2.486546e-002
3.824149e+003, 2.494883e-002
3.826078e+003, 2.288726e-002
3.828006e+003, 2.320116e-002
3.829935e+003, 2.442277e-002
3.831863e+003, 2.375377e-002
3.833792e+003, 2.391866e-002
3.835720e+003, 2.296232e-002
3.837649e+003, 2.279811e-002
3.839577e+003, 2.449673e-002
3.841506e+003, 2.576543e-002
3.843434e+003, 2.419706e-002
3.845363e+003, 2.318761e-002
3.847291e+003, 2.326502e-002
3.849219e+003, 2.299292e-002
3.851148e+003, 2.255975e-002
3.853076e+003, 2.151673e-002
3.855005e+003, 2.143381e-002
3.856933e+003, 2.281656e-002
3.858862e+003, 2.312957e-002
3.860790e+003, 2.284166e-002
3.862719e+003, 2.247343e-002
3.864647e+003, 2.148783e-002
3.866576e+003, 2.184208e-002
3.868504e+003, 2.244436e-002
3.870433e+003, 2.214408e-002
3.872361e+003, 2.274729e-002
3.874290e+003, 2.257138e-002
3.876218e+003, 2.240315e-002
3.878146e+003, 2.300189e-002
3.880075e+003, 2.314808e-002
3.882003e+003, 2.414948e-002
3.883932e+003, 2.423608e-002
3.885860e+003, 2.359227e-002
3.887789e+003, 2.489827e-002
3.889717e+003, 2.550110e-002
3.891646e+003, 2.466913e-002
3.893574e+003, 2.454197e-002
3.895503e+003, 2.559397e-002
3.897431e+003, 2.393951e-002
3.899360e+003, 2.242122e-002
3.901288e+003, 2.405685e-002
3.903217e+003, 2.401575e-002
3.905145e+003, 2.197647e-002
3.907073e+003, 2.180462e-002
3.909002e+003, 2.115162e-002
3.910930e+003, 2.309266e-002
3.912859e+003, 2.450369e-002
3.914787e+003, 2.503244e-002
3.916716e+003, 2.534938e-002
3.918644e+003, 2.470169e-002
3.920573e+003, 2.456624e-002
3.922501e+003, 2.339916e-002
3.924430e+003, 2.368975e-002
3.926358e+003, 2.433410e-002
3.928287e+003, 2.381522e-002
3.930215e+003, 2.327040e-002
3.932144e+003, 2.376689e-002
3.934072e+003, 2.453122e-002
3.936000e+003, 2.371662e-002
3.937929e+003, 2.342170e-002
3.939857e+003, 2.382161e-002
3.941786e+003, 2.370387e-002
3.943714e+003, 2.300686e-002
3.945643e+003, 2.402531e-002
3.947571e+003, 2.378774e-002
3.949500e+003, 2.257122e-002
3.951428e+003, 2.257221e-002
3.953357e+003, 2.362861e-002
3.955285e+003, 2.445253e-002
3.957214e+003, 2.597156e-002
3.959142e+003, 2.745581e-002
3.961071e+003, 2.608004e-002
3.962999e+003, 2.465053e-002
3.964927e+003, 2.521049e-002
3.966856e+003, 2.728970e-002
3.968784e+003, 2.803613e-002
3.970713e+003, 2.832540e-002
3.972641e+003, 2.761418e-002
3.974570e+003, 2.557985e-002
3.976498e+003, 2.412190e-002
3.978427e+003, 2.300368e-002
3.980355e+003, 2.407085e-002
3.982284e+003, 2.387611e-002
3.984212e+003, 2.264911e-002
3.986141e+003, 2.364198e-002
3.988069e+003, 2.359735e-002
3.989998e+003, 2.274322e-002
3.991926e+003, 2.413817e-002
3.993854e+003, 2.506124e-002
3.995783e+003, 2.417029e-002
3.997711e+003, 2.518876e-002
3.999640e+003, 2.520226e-002
4.001568e+003, 0.000000e+000
##END=



