##NAMES=Grossular
##RRUFFID=R040066
##IDEAL CHEMISTRY=Ca_3_Al_2_(SiO_4_)_3_
##LOCALITY=Redding, Connecticut, USA
##OWNER=RRUFF
##SOURCE=University of Arizona Mineral Museum
##DESCRIPTION=Reddish orange coarsely crystalline
##STATUS=The identification of this mineral has been confirmed by X-ray diffraction and chemical analysis
##URL=rruff.info/R040066
##MEASURED CHEMISTRY=(Ca_2.90_Fe^2+^_0.08_Mn_0.02_)_Σ=3_(Al_1.87_Fe^3+^_0.13_)_Σ=2_(Si_1.00_O_4_)_3_
3.991926e+002, 0.000000e+000
4.011211e+002, 1.905630e-001
4.030496e+002, 1.914599e-001
4.049780e+002, 2.012385e-001
4.069065e+002, 2.156046e-001
4.088350e+002, 2.232852e-001
4.107634e+002, 2.345946e-001
4.126919e+002, 2.408456e-001
4.146204e+002, 2.496511e-001
4.165488e+002, 2.598061e-001
4.184773e+002, 2.641456e-001
4.204058e+002, 2.664874e-001
4.223342e+002, 2.685224e-001
4.242627e+002, 2.727496e-001
4.261912e+002, 2.751882e-001
4.281196e+002, 2.785399e-001
4.300481e+002, 2.777056e-001
4.319766e+002, 2.796525e-001
4.339050e+002, 2.836813e-001
4.358335e+002, 2.827439e-001
4.377620e+002, 2.799571e-001
4.396904e+002, 2.764128e-001
4.416189e+002, 2.737778e-001
4.435474e+002, 2.707936e-001
4.454758e+002, 2.647085e-001
4.474043e+002, 2.559363e-001
4.493328e+002, 2.505183e-001
4.512612e+002, 2.458913e-001
4.531897e+002, 2.389751e-001
4.551182e+002, 2.321243e-001
4.570466e+002, 2.254619e-001
4.589751e+002, 2.167287e-001
4.609036e+002, 2.080350e-001
4.628320e+002, 2.027653e-001
4.647605e+002, 2.030508e-001
4.666890e+002, 2.077926e-001
4.686174e+002, 2.126351e-001
4.705459e+002, 2.109773e-001
4.724744e+002, 2.042620e-001
4.744028e+002, 1.951457e-001
4.763313e+002, 1.875276e-001
4.782598e+002, 1.803084e-001
4.801882e+002, 1.734242e-001
4.821167e+002, 1.668438e-001
4.840452e+002, 1.610858e-001
4.859736e+002, 1.546795e-001
4.879021e+002, 1.497939e-001
4.898306e+002, 1.446395e-001
4.917590e+002, 1.392148e-001
4.936875e+002, 1.349922e-001
4.956160e+002, 1.305618e-001
4.975444e+002, 1.260267e-001
4.994729e+002, 1.222205e-001
5.014014e+002, 1.197989e-001
5.033298e+002, 1.180260e-001
5.052583e+002, 1.138636e-001
5.071868e+002, 1.074901e-001
5.091152e+002, 1.006780e-001
5.110437e+002, 9.317770e-002
5.129722e+002, 8.617870e-002
5.149006e+002, 8.050664e-002
5.168291e+002, 7.623097e-002
5.187576e+002, 7.203060e-002
5.206860e+002, 6.728773e-002
5.226145e+002, 6.464677e-002
5.245430e+002, 6.627782e-002
5.264714e+002, 7.130035e-002
5.283999e+002, 7.949620e-002
5.303284e+002, 9.205251e-002
5.322568e+002, 1.091827e-001
5.341853e+002, 1.264425e-001
5.361138e+002, 1.385003e-001
5.380422e+002, 1.431420e-001
5.399707e+002, 1.399383e-001
5.418992e+002, 1.321297e-001
5.438276e+002, 1.225119e-001
5.457561e+002, 1.121031e-001
5.476846e+002, 1.024553e-001
5.496130e+002, 9.342293e-002
5.515415e+002, 8.463727e-002
5.534700e+002, 7.643542e-002
5.553984e+002, 6.873673e-002
5.573269e+002, 6.195951e-002
5.592554e+002, 5.586731e-002
5.611838e+002, 4.991097e-002
5.631123e+002, 4.483024e-002
5.650408e+002, 4.052987e-002
5.669692e+002, 3.675012e-002
5.688977e+002, 3.386825e-002
5.708262e+002, 3.180238e-002
5.727546e+002, 2.973599e-002
5.746831e+002, 2.746834e-002
5.766116e+002, 2.548842e-002
5.785400e+002, 2.373817e-002
5.804685e+002, 2.228584e-002
5.823970e+002, 2.140054e-002
5.843254e+002, 2.047936e-002
5.862539e+002, 1.979954e-002
5.881824e+002, 1.940184e-002
5.901108e+002, 1.919227e-002
5.920393e+002, 1.908909e-002
5.939678e+002, 1.912447e-002
5.958962e+002, 1.967475e-002
5.978247e+002, 2.039331e-002
5.997532e+002, 2.159322e-002
6.016816e+002, 2.346809e-002
6.036101e+002, 2.619042e-002
6.055386e+002, 3.069708e-002
6.074670e+002, 3.689599e-002
6.093955e+002, 4.494304e-002
6.113240e+002, 5.493772e-002
6.132524e+002, 6.505392e-002
6.151809e+002, 7.067844e-002
6.171094e+002, 6.806485e-002
6.190378e+002, 5.912326e-002
6.209663e+002, 4.792363e-002
6.228948e+002, 3.822600e-002
6.248232e+002, 3.111269e-002
6.267517e+002, 2.629582e-002
6.286802e+002, 2.290296e-002
6.306086e+002, 2.016336e-002
6.325371e+002, 1.807695e-002
6.344656e+002, 1.634282e-002
6.363940e+002, 1.512752e-002
6.383225e+002, 1.463665e-002
6.402510e+002, 1.400002e-002
6.421794e+002, 1.323138e-002
6.441079e+002, 1.315499e-002
6.460364e+002, 1.328659e-002
6.479648e+002, 1.304484e-002
6.498933e+002, 1.289207e-002
6.518218e+002, 1.300992e-002
6.537502e+002, 1.306950e-002
6.556787e+002, 1.340887e-002
6.576072e+002, 1.366832e-002
6.595356e+002, 1.364409e-002
6.614641e+002, 1.389298e-002
6.633926e+002, 1.422962e-002
6.653210e+002, 1.468701e-002
6.672495e+002, 1.518105e-002
6.691780e+002, 1.550000e-002
6.711064e+002, 1.577302e-002
6.730349e+002, 1.616552e-002
6.749634e+002, 1.668444e-002
6.768918e+002, 1.749173e-002
6.788203e+002, 1.805595e-002
6.807488e+002, 1.847575e-002
6.826772e+002, 1.909627e-002
6.846057e+002, 1.972974e-002
6.865342e+002, 2.024088e-002
6.884626e+002, 2.075272e-002
6.903911e+002, 2.158036e-002
6.923196e+002, 2.243780e-002
6.942480e+002, 2.305765e-002
6.961765e+002, 2.410501e-002
6.981050e+002, 2.496868e-002
7.000334e+002, 2.535258e-002
7.019619e+002, 2.617481e-002
7.038904e+002, 2.728876e-002
7.058188e+002, 2.850894e-002
7.077473e+002, 2.987461e-002
7.096758e+002, 3.113835e-002
7.116042e+002, 3.257149e-002
7.135327e+002, 3.403999e-002
7.154612e+002, 3.565791e-002
7.173896e+002, 3.756509e-002
7.193181e+002, 3.949783e-002
7.212466e+002, 4.142075e-002
7.231750e+002, 4.351387e-002
7.251035e+002, 4.564911e-002
7.270320e+002, 4.787366e-002
7.289604e+002, 5.015736e-002
7.308889e+002, 5.274519e-002
7.328174e+002, 5.569144e-002
7.347458e+002, 5.847510e-002
7.366743e+002, 6.160938e-002
7.386028e+002, 6.498896e-002
7.405313e+002, 6.821244e-002
7.424597e+002, 7.165127e-002
7.443882e+002, 7.530543e-002
7.463167e+002, 7.946420e-002
7.482451e+002, 8.392961e-002
7.501736e+002, 8.794931e-002
7.521021e+002, 9.207936e-002
7.540305e+002, 9.682626e-002
7.559590e+002, 1.018922e-001
7.578875e+002, 1.067036e-001
7.598159e+002, 1.112393e-001
7.617444e+002, 1.160453e-001
7.636729e+002, 1.209641e-001
7.656013e+002, 1.260291e-001
7.675298e+002, 1.310968e-001
7.694583e+002, 1.360201e-001
7.713867e+002, 1.413452e-001
7.733152e+002, 1.470300e-001
7.752437e+002, 1.523206e-001
7.771721e+002, 1.576224e-001
7.791006e+002, 1.632337e-001
7.810291e+002, 1.690717e-001
7.829575e+002, 1.749402e-001
7.848860e+002, 1.804415e-001
7.868145e+002, 1.861173e-001
7.887429e+002, 1.920771e-001
7.906714e+002, 1.976329e-001
7.925999e+002, 2.031402e-001
7.945283e+002, 2.092913e-001
7.964568e+002, 2.154169e-001
7.983853e+002, 2.210792e-001
8.003137e+002, 2.265079e-001
8.022422e+002, 2.322502e-001
8.041707e+002, 2.379799e-001
8.060991e+002, 2.433460e-001
8.080276e+002, 2.484575e-001
8.099561e+002, 2.535281e-001
8.118845e+002, 2.587526e-001
8.138130e+002, 2.637496e-001
8.157415e+002, 2.681634e-001
8.176699e+002, 2.725513e-001
8.195984e+002, 2.768502e-001
8.215269e+002, 2.802506e-001
8.234553e+002, 2.829338e-001
8.253838e+002, 2.856883e-001
8.273123e+002, 2.878454e-001
8.292407e+002, 2.887084e-001
8.311692e+002, 2.889803e-001
8.330977e+002, 2.886977e-001
8.350261e+002, 2.876497e-001
8.369546e+002, 2.860145e-001
8.388831e+002, 2.825804e-001
8.408115e+002, 2.766607e-001
8.427400e+002, 2.689860e-001
8.446685e+002, 2.609027e-001
8.465969e+002, 2.536523e-001
8.485254e+002, 2.494781e-001
8.504539e+002, 2.502007e-001
8.523823e+002, 2.535603e-001
8.543108e+002, 2.560314e-001
8.562393e+002, 2.557166e-001
8.581677e+002, 2.515205e-001
8.600962e+002, 2.436012e-001
8.620247e+002, 2.332954e-001
8.639531e+002, 2.216401e-001
8.658816e+002, 2.091608e-001
8.678101e+002, 1.969260e-001
8.697385e+002, 1.851866e-001
8.716670e+002, 1.736392e-001
8.735955e+002, 1.624339e-001
8.755239e+002, 1.512798e-001
8.774524e+002, 1.408263e-001
8.793809e+002, 1.312664e-001
8.813093e+002, 1.229268e-001
8.832378e+002, 1.167779e-001
8.851663e+002, 1.135508e-001
8.870947e+002, 1.140584e-001
8.890232e+002, 1.191880e-001
8.909517e+002, 1.295972e-001
8.928801e+002, 1.453436e-001
8.948085e+002, 1.657085e-001
8.967370e+002, 1.891497e-001
8.986655e+002, 2.121774e-001
9.005939e+002, 2.318367e-001
9.025224e+002, 2.465521e-001
9.044509e+002, 2.567789e-001
9.063793e+002, 2.622891e-001
9.083078e+002, 2.628804e-001
9.102363e+002, 2.596619e-001
9.121647e+002, 2.533596e-001
9.140932e+002, 2.446902e-001
9.160217e+002, 2.348524e-001
9.179501e+002, 2.249666e-001
9.198786e+002, 2.146353e-001
9.218071e+002, 2.047104e-001
9.237355e+002, 1.957466e-001
9.256640e+002, 1.874472e-001
9.275925e+002, 1.792749e-001
9.295209e+002, 1.714601e-001
9.314494e+002, 1.644214e-001
9.333779e+002, 1.576302e-001
9.353063e+002, 1.509331e-001
9.372348e+002, 1.444309e-001
9.391633e+002, 1.385386e-001
9.410917e+002, 1.329565e-001
9.430202e+002, 1.276079e-001
9.449487e+002, 1.224565e-001
9.468771e+002, 1.173289e-001
9.488056e+002, 1.123891e-001
9.507341e+002, 1.074718e-001
9.526625e+002, 1.028262e-001
9.545910e+002, 9.817120e-002
9.565195e+002, 9.320567e-002
9.584479e+002, 8.849625e-002
9.603764e+002, 8.390372e-002
9.623049e+002, 7.939226e-002
9.642333e+002, 7.508884e-002
9.661618e+002, 7.094101e-002
9.680903e+002, 6.714322e-002
9.700187e+002, 6.353612e-002
9.719472e+002, 5.985926e-002
9.738757e+002, 5.610939e-002
9.758041e+002, 5.251323e-002
9.777326e+002, 4.877797e-002
9.796611e+002, 4.488936e-002
9.815895e+002, 4.121501e-002
9.835180e+002, 3.773773e-002
9.854465e+002, 3.473022e-002
9.873749e+002, 3.196025e-002
9.893034e+002, 2.947911e-002
9.912319e+002, 2.722936e-002
9.931603e+002, 2.511091e-002
9.950888e+002, 2.338142e-002
9.970173e+002, 2.212968e-002
9.989457e+002, 2.094461e-002
1.000874e+003, 1.994558e-002
1.002803e+003, 1.908895e-002
1.004731e+003, 1.836231e-002
1.006660e+003, 1.756079e-002
1.008588e+003, 1.682774e-002
1.010517e+003, 1.623537e-002
1.012445e+003, 1.568622e-002
1.014373e+003, 1.514128e-002
1.016302e+003, 1.470035e-002
1.018230e+003, 1.432442e-002
1.020159e+003, 1.396469e-002
1.022087e+003, 1.378886e-002
1.024016e+003, 1.357836e-002
1.025944e+003, 1.336802e-002
1.027873e+003, 1.313221e-002
1.029801e+003, 1.266683e-002
1.031730e+003, 1.258410e-002
1.033658e+003, 1.261159e-002
1.035587e+003, 1.224525e-002
1.037515e+003, 1.192065e-002
1.039444e+003, 1.177160e-002
1.041372e+003, 1.158806e-002
1.043301e+003, 1.122970e-002
1.045229e+003, 1.098661e-002
1.047157e+003, 1.086120e-002
1.049086e+003, 1.064168e-002
1.051014e+003, 1.059783e-002
1.052943e+003, 1.065470e-002
1.054871e+003, 1.043742e-002
1.056800e+003, 1.014352e-002
1.058728e+003, 1.003022e-002
1.060657e+003, 9.758117e-003
1.062585e+003, 9.708079e-003
1.064514e+003, 9.803298e-003
1.066442e+003, 9.588016e-003
1.068371e+003, 9.308655e-003
1.070299e+003, 9.246440e-003
1.072228e+003, 9.183328e-003
1.074156e+003, 9.033418e-003
1.076084e+003, 9.026675e-003
1.078013e+003, 8.958386e-003
1.079941e+003, 8.694544e-003
1.081870e+003, 8.451902e-003
1.083798e+003, 8.362651e-003
1.085727e+003, 8.324065e-003
1.087655e+003, 8.217182e-003
1.089584e+003, 8.113327e-003
1.091512e+003, 7.884879e-003
1.093441e+003, 7.712854e-003
1.095369e+003, 7.598323e-003
1.097298e+003, 7.539419e-003
1.099226e+003, 7.408800e-003
1.101155e+003, 7.198271e-003
1.103083e+003, 7.124712e-003
1.105011e+003, 7.243488e-003
1.106940e+003, 7.156595e-003
1.108868e+003, 6.900544e-003
1.110797e+003, 6.838881e-003
1.112725e+003, 6.845342e-003
1.114654e+003, 6.829546e-003
1.116582e+003, 6.722410e-003
1.118511e+003, 6.684669e-003
1.120439e+003, 6.697862e-003
1.122368e+003, 6.584283e-003
1.124296e+003, 6.600466e-003
1.126225e+003, 6.536091e-003
1.128153e+003, 6.343749e-003
1.130082e+003, 6.309191e-003
1.132010e+003, 6.260868e-003
1.133938e+003, 6.170017e-003
1.135867e+003, 6.133001e-003
1.137795e+003, 6.102957e-003
1.139724e+003, 6.122043e-003
1.141652e+003, 5.925689e-003
1.143581e+003, 5.537624e-003
1.145509e+003, 5.314052e-003
1.147438e+003, 5.068119e-003
1.149366e+003, 4.975905e-003
1.151295e+003, 4.916929e-003
1.153223e+003, 4.766915e-003
1.155152e+003, 4.704181e-003
1.157080e+003, 4.563177e-003
1.159009e+003, 4.439130e-003
1.160937e+003, 4.419604e-003
1.162865e+003, 4.390180e-003
1.164794e+003, 4.247859e-003
1.166722e+003, 4.033776e-003
1.168651e+003, 3.977829e-003
1.170579e+003, 4.002088e-003
1.172508e+003, 3.935202e-003
1.174436e+003, 3.821155e-003
1.176365e+003, 3.749812e-003
1.178293e+003, 3.714919e-003
1.180222e+003, 3.743668e-003
1.182150e+003, 3.785798e-003
1.184079e+003, 3.603705e-003
1.186007e+003, 3.448767e-003
1.187936e+003, 3.555940e-003
1.189864e+003, 3.620157e-003
1.191792e+003, 3.771764e-003
1.193721e+003, 3.705279e-003
1.195649e+003, 3.420731e-003
1.197578e+003, 3.421486e-003
1.199506e+003, 3.406081e-003
1.201435e+003, 3.361955e-003
1.203363e+003, 3.353480e-003
1.205292e+003, 3.378112e-003
1.207220e+003, 3.556273e-003
1.209149e+003, 3.456051e-003
1.211077e+003, 3.429871e-003
1.213006e+003, 3.358490e-003
1.214934e+003, 3.252803e-003
1.216863e+003, 3.224284e-003
1.218791e+003, 3.095146e-003
1.220719e+003, 3.187121e-003
1.222648e+003, 3.291049e-003
1.224576e+003, 3.238129e-003
1.226505e+003, 3.275166e-003
1.228433e+003, 3.351105e-003
1.230362e+003, 3.268162e-003
1.232290e+003, 3.114143e-003
1.234219e+003, 3.082825e-003
1.236147e+003, 3.165089e-003
1.238076e+003, 3.153104e-003
1.240004e+003, 3.237616e-003
1.241933e+003, 3.309233e-003
1.243861e+003, 3.369175e-003
1.245790e+003, 3.491282e-003
1.247718e+003, 3.481678e-003
1.249646e+003, 3.397532e-003
1.251575e+003, 3.223669e-003
1.253503e+003, 3.275176e-003
1.255432e+003, 3.430370e-003
1.257360e+003, 3.368049e-003
1.259289e+003, 3.377154e-003
1.261217e+003, 3.504113e-003
1.263146e+003, 3.612673e-003
1.265074e+003, 3.714819e-003
1.267003e+003, 3.634267e-003
1.268931e+003, 3.600187e-003
1.270860e+003, 3.561225e-003
1.272788e+003, 3.576662e-003
1.274717e+003, 3.569306e-003
1.276645e+003, 3.605778e-003
1.278573e+003, 3.741825e-003
1.280502e+003, 3.819380e-003
1.282430e+003, 3.774482e-003
1.284359e+003, 3.696901e-003
1.286287e+003, 3.717044e-003
1.288216e+003, 3.918581e-003
1.290144e+003, 3.986350e-003
1.292073e+003, 4.027223e-003
1.294001e+003, 4.104879e-003
1.295930e+003, 4.085209e-003
1.297858e+003, 3.969050e-003
1.299787e+003, 4.109403e-003
1.301715e+003, 4.252170e-003
1.303644e+003, 4.115234e-003
1.305572e+003, 4.147083e-003
1.307500e+003, 4.287085e-003
1.309429e+003, 4.388796e-003
1.311357e+003, 4.491788e-003
1.313286e+003, 4.643911e-003
1.315214e+003, 4.963857e-003
1.317143e+003, 5.061871e-003
1.319071e+003, 4.880253e-003
1.321000e+003, 4.782399e-003
1.322928e+003, 4.876317e-003
1.324857e+003, 4.911121e-003
1.326785e+003, 4.994069e-003
1.328714e+003, 5.087337e-003
1.330642e+003, 5.274273e-003
1.332571e+003, 5.397493e-003
1.334499e+003, 5.465373e-003
1.336427e+003, 5.732515e-003
1.338356e+003, 5.632973e-003
1.340284e+003, 5.549947e-003
1.342213e+003, 5.685041e-003
1.344141e+003, 5.698166e-003
1.346070e+003, 5.740377e-003
1.347998e+003, 5.956179e-003
1.349927e+003, 6.122000e-003
1.351855e+003, 6.184380e-003
1.353784e+003, 6.288963e-003
1.355712e+003, 6.245815e-003
1.357641e+003, 6.255014e-003
1.359569e+003, 6.264049e-003
1.361498e+003, 6.214868e-003
1.363426e+003, 6.407692e-003
1.365354e+003, 6.695986e-003
1.367283e+003, 6.775585e-003
1.369211e+003, 6.739514e-003
1.371140e+003, 6.691464e-003
1.373068e+003, 6.735890e-003
1.374997e+003, 6.761122e-003
1.376925e+003, 6.667642e-003
1.378854e+003, 6.636570e-003
1.380782e+003, 6.719055e-003
1.382711e+003, 6.592819e-003
1.384639e+003, 6.676778e-003
1.386568e+003, 6.829112e-003
1.388496e+003, 6.744559e-003
1.390424e+003, 6.770600e-003
1.392353e+003, 7.036951e-003
1.394281e+003, 7.138390e-003
1.396210e+003, 7.120501e-003
1.398138e+003, 7.001307e-003
1.400067e+003, 7.031525e-003
1.401995e+003, 6.984107e-003
1.403924e+003, 7.033979e-003
1.405852e+003, 7.292777e-003
1.407781e+003, 7.560981e-003
1.409709e+003, 7.450270e-003
1.411638e+003, 7.314202e-003
1.413566e+003, 7.248466e-003
1.415495e+003, 7.326749e-003
1.417423e+003, 7.429353e-003
1.419351e+003, 7.578899e-003
1.421280e+003, 7.614720e-003
1.423208e+003, 7.436457e-003
1.425137e+003, 7.492037e-003
1.427065e+003, 7.696417e-003
1.428994e+003, 7.737345e-003
1.430922e+003, 7.735180e-003
1.432851e+003, 7.670821e-003
1.434779e+003, 7.596137e-003
1.436708e+003, 7.737453e-003
1.438636e+003, 7.665520e-003
1.440565e+003, 7.663957e-003
1.442493e+003, 7.758383e-003
1.444422e+003, 7.628554e-003
1.446350e+003, 7.577782e-003
1.448278e+003, 7.805530e-003
1.450207e+003, 8.052114e-003
1.452135e+003, 7.988585e-003
1.454064e+003, 7.738753e-003
1.455992e+003, 7.588715e-003
1.457921e+003, 7.814968e-003
1.459849e+003, 7.807447e-003
1.461778e+003, 7.690420e-003
1.463706e+003, 7.508304e-003
1.465635e+003, 7.739311e-003
1.467563e+003, 7.788505e-003
1.469492e+003, 7.681315e-003
1.471420e+003, 7.453094e-003
1.473349e+003, 7.571242e-003
1.475277e+003, 7.418528e-003
1.477205e+003, 7.255780e-003
1.479134e+003, 7.197392e-003
1.481062e+003, 7.211189e-003
1.482991e+003, 7.369349e-003
1.484919e+003, 7.358747e-003
1.486848e+003, 7.081621e-003
1.488776e+003, 7.033640e-003
1.490705e+003, 7.286004e-003
1.492633e+003, 7.250792e-003
1.494562e+003, 6.869118e-003
1.496490e+003, 6.868356e-003
1.498419e+003, 7.099665e-003
1.500347e+003, 7.205892e-003
1.502276e+003, 7.154068e-003
1.504204e+003, 7.021013e-003
1.506132e+003, 7.038105e-003
1.508061e+003, 7.254561e-003
1.509989e+003, 7.379888e-003
1.511918e+003, 7.426167e-003
1.513846e+003, 7.468074e-003
1.515775e+003, 7.393726e-003
1.517703e+003, 7.541210e-003
1.519632e+003, 7.566113e-003
1.521560e+003, 7.895811e-003
1.523489e+003, 7.988741e-003
1.525417e+003, 8.177159e-003
1.527346e+003, 8.240710e-003
1.529274e+003, 8.271544e-003
1.531203e+003, 8.255594e-003
1.533131e+003, 8.464121e-003
1.535059e+003, 8.892563e-003
1.536988e+003, 8.819968e-003
1.538916e+003, 8.781405e-003
1.540845e+003, 9.296513e-003
1.542773e+003, 9.462691e-003
1.544702e+003, 9.468623e-003
1.546630e+003, 9.634278e-003
1.548559e+003, 9.648272e-003
1.550487e+003, 9.636562e-003
1.552416e+003, 9.788754e-003
1.554344e+003, 1.001542e-002
1.556273e+003, 9.804479e-003
1.558201e+003, 9.868611e-003
1.560130e+003, 1.031883e-002
1.562058e+003, 1.033427e-002
1.563986e+003, 1.035983e-002
1.565915e+003, 1.062892e-002
1.567843e+003, 1.071296e-002
1.569772e+003, 1.071887e-002
1.571700e+003, 1.077758e-002
1.573629e+003, 1.078762e-002
1.575557e+003, 1.066029e-002
1.577486e+003, 1.112075e-002
1.579414e+003, 1.111453e-002
1.581343e+003, 1.110811e-002
1.583271e+003, 1.122305e-002
1.585200e+003, 1.141229e-002
1.587128e+003, 1.170055e-002
1.589057e+003, 1.172054e-002
1.590985e+003, 1.162607e-002
1.592913e+003, 1.182800e-002
1.594842e+003, 1.199597e-002
1.596770e+003, 1.181144e-002
1.598699e+003, 1.170264e-002
1.600627e+003, 1.175510e-002
1.602556e+003, 1.170467e-002
1.604484e+003, 1.173315e-002
1.606413e+003, 1.176735e-002
1.608341e+003, 1.174680e-002
1.610270e+003, 1.178863e-002
1.612198e+003, 1.167021e-002
1.614127e+003, 1.165270e-002
1.616055e+003, 1.149998e-002
1.617984e+003, 1.155044e-002
1.619912e+003, 1.115324e-002
1.621840e+003, 1.091888e-002
1.623769e+003, 1.098532e-002
1.625697e+003, 1.105195e-002
1.627626e+003, 1.099018e-002
1.629554e+003, 1.085627e-002
1.631483e+003, 1.067000e-002
1.633411e+003, 1.015163e-002
1.635340e+003, 1.007152e-002
1.637268e+003, 1.043159e-002
1.639197e+003, 1.047791e-002
1.641125e+003, 1.024625e-002
1.643054e+003, 1.006739e-002
1.644982e+003, 9.892058e-003
1.646911e+003, 1.010141e-002
1.648839e+003, 9.924750e-003
1.650767e+003, 9.702287e-003
1.652696e+003, 1.003209e-002
1.654624e+003, 1.020806e-002
1.656553e+003, 9.674984e-003
1.658481e+003, 9.702069e-003
1.660410e+003, 9.958020e-003
1.662338e+003, 9.907785e-003
1.664267e+003, 9.732451e-003
1.666195e+003, 9.545308e-003
1.668124e+003, 9.878065e-003
1.670052e+003, 1.013899e-002
1.671981e+003, 9.717506e-003
1.673909e+003, 9.688345e-003
1.675838e+003, 1.001069e-002
1.677766e+003, 9.629398e-003
1.679694e+003, 9.614393e-003
1.681623e+003, 9.741911e-003
1.683551e+003, 9.789617e-003
1.685480e+003, 1.005418e-002
1.687408e+003, 9.717878e-003
1.689337e+003, 9.794325e-003
1.691265e+003, 9.994787e-003
1.693194e+003, 1.004087e-002
1.695122e+003, 9.751712e-003
1.697051e+003, 9.971761e-003
1.698979e+003, 9.779237e-003
1.700908e+003, 1.021846e-002
1.702836e+003, 9.961539e-003
1.704765e+003, 9.819521e-003
1.706693e+003, 9.436169e-003
1.708621e+003, 9.303809e-003
1.710550e+003, 9.522528e-003
1.712478e+003, 9.440497e-003
1.714407e+003, 9.580078e-003
1.716335e+003, 9.429672e-003
1.718264e+003, 9.552406e-003
1.720192e+003, 9.383032e-003
1.722121e+003, 9.471348e-003
1.724049e+003, 9.785644e-003
1.725978e+003, 9.775302e-003
1.727906e+003, 9.437902e-003
1.729835e+003, 9.266549e-003
1.731763e+003, 9.026968e-003
1.733692e+003, 8.876391e-003
1.735620e+003, 9.099995e-003
1.737548e+003, 9.100690e-003
1.739477e+003, 9.259903e-003
1.741405e+003, 9.313465e-003
1.743334e+003, 9.283143e-003
1.745262e+003, 8.936021e-003
1.747191e+003, 8.733066e-003
1.749119e+003, 9.150259e-003
1.751048e+003, 9.353015e-003
1.752976e+003, 9.373154e-003
1.754905e+003, 9.445671e-003
1.756833e+003, 9.319155e-003
1.758762e+003, 9.349720e-003
1.760690e+003, 9.349049e-003
1.762619e+003, 9.256054e-003
1.764547e+003, 8.989386e-003
1.766475e+003, 9.114020e-003
1.768404e+003, 9.381434e-003
1.770332e+003, 9.475769e-003
1.772261e+003, 9.284807e-003
1.774189e+003, 8.875051e-003
1.776118e+003, 8.961558e-003
1.778046e+003, 9.335025e-003
1.779975e+003, 9.219995e-003
1.781903e+003, 9.258707e-003
1.783832e+003, 9.093733e-003
1.785760e+003, 9.115524e-003
1.787689e+003, 9.109475e-003
1.789617e+003, 8.988287e-003
1.791546e+003, 9.024595e-003
1.793474e+003, 9.336055e-003
1.795402e+003, 9.108089e-003
1.797331e+003, 8.475610e-003
1.799259e+003, 8.165605e-003
1.801188e+003, 8.312446e-003
1.803116e+003, 8.414285e-003
1.805045e+003, 8.362211e-003
1.806973e+003, 8.491324e-003
1.808902e+003, 8.640557e-003
1.810830e+003, 8.612450e-003
1.812759e+003, 8.369097e-003
1.814687e+003, 8.344189e-003
1.816616e+003, 8.449478e-003
1.818544e+003, 8.327411e-003
1.820473e+003, 8.302222e-003
1.822401e+003, 8.612342e-003
1.824329e+003, 9.109907e-003
1.826258e+003, 9.058757e-003
1.828186e+003, 8.561708e-003
1.830115e+003, 8.471580e-003
1.832043e+003, 8.658119e-003
1.833972e+003, 8.817645e-003
1.835900e+003, 8.454786e-003
1.837829e+003, 7.911177e-003
1.839757e+003, 7.888231e-003
1.841686e+003, 8.144660e-003
1.843614e+003, 7.848871e-003
1.845543e+003, 8.041003e-003
1.847471e+003, 8.806467e-003
1.849400e+003, 9.047090e-003
1.851328e+003, 8.648086e-003
1.853256e+003, 8.801828e-003
1.855185e+003, 8.833275e-003
1.857113e+003, 8.384725e-003
1.859042e+003, 8.124019e-003
1.860970e+003, 8.000691e-003
1.862899e+003, 8.614056e-003
1.864827e+003, 8.588857e-003
1.866756e+003, 8.507608e-003
1.868684e+003, 8.673435e-003
1.870613e+003, 8.577061e-003
1.872541e+003, 8.642210e-003
1.874470e+003, 8.893892e-003
1.876398e+003, 8.774531e-003
1.878327e+003, 8.511951e-003
1.880255e+003, 8.446516e-003
1.882183e+003, 7.805344e-003
1.884112e+003, 7.484209e-003
1.886040e+003, 8.252045e-003
1.887969e+003, 8.942774e-003
1.889897e+003, 8.568011e-003
1.891826e+003, 8.066814e-003
1.893754e+003, 8.528568e-003
1.895683e+003, 8.675373e-003
1.897611e+003, 8.226070e-003
1.899540e+003, 8.121220e-003
1.901468e+003, 8.120118e-003
1.903397e+003, 8.538482e-003
1.905325e+003, 8.701486e-003
1.907254e+003, 8.766972e-003
1.909182e+003, 8.841924e-003
1.911110e+003, 8.785895e-003
1.913039e+003, 8.486298e-003
1.914967e+003, 8.641174e-003
1.916896e+003, 9.361735e-003
1.918824e+003, 9.135013e-003
1.920753e+003, 8.606092e-003
1.922681e+003, 8.925923e-003
1.924610e+003, 8.370132e-003
1.926538e+003, 8.433648e-003
1.928467e+003, 8.145034e-003
1.930395e+003, 8.233323e-003
1.932324e+003, 9.124710e-003
1.934252e+003, 9.363223e-003
1.936181e+003, 9.052940e-003
1.938109e+003, 8.013751e-003
1.940037e+003, 7.382229e-003
1.941966e+003, 7.837045e-003
1.943894e+003, 8.873951e-003
1.945823e+003, 9.411496e-003
1.947751e+003, 9.264646e-003
1.949680e+003, 1.000877e-002
1.951608e+003, 9.379202e-003
1.953537e+003, 8.861165e-003
1.955465e+003, 7.579674e-003
1.957394e+003, 6.718641e-003
1.959322e+003, 8.076794e-003
1.961251e+003, 9.388642e-003
1.963179e+003, 1.011460e-002
1.965108e+003, 1.024059e-002
1.967036e+003, 9.998239e-003
1.968964e+003, 1.138902e-002
1.970893e+003, 1.066838e-002
1.972821e+003, 9.399472e-003
1.974750e+003, 9.731433e-003
1.976678e+003, 9.628292e-003
1.978607e+003, 1.067021e-002
1.980535e+003, 1.204054e-002
1.982464e+003, 1.252490e-002
1.984392e+003, 1.229997e-002
1.986321e+003, 1.255199e-002
1.988249e+003, 1.267850e-002
1.990178e+003, 1.268389e-002
1.992106e+003, 1.253175e-002
1.994035e+003, 1.212420e-002
1.995963e+003, 1.200983e-002
1.997891e+003, 1.155180e-002
1.999820e+003, 1.025796e-002
2.001748e+003, 1.095629e-002
2.003677e+003, 1.123042e-002
2.005605e+003, 1.038970e-002
2.007534e+003, 1.082946e-002
2.009462e+003, 1.167002e-002
2.011391e+003, 1.154548e-002
2.013319e+003, 1.115857e-002
2.015248e+003, 1.121005e-002
2.017176e+003, 1.074377e-002
2.019105e+003, 1.071159e-002
2.021033e+003, 1.117417e-002
2.022962e+003, 1.230238e-002
2.024890e+003, 1.277437e-002
2.026818e+003, 1.205929e-002
2.028747e+003, 1.194708e-002
2.030675e+003, 1.329830e-002
2.032604e+003, 1.431763e-002
2.034532e+003, 1.375088e-002
2.036461e+003, 1.422465e-002
2.038389e+003, 1.482529e-002
2.040318e+003, 1.348641e-002
2.042246e+003, 1.176710e-002
2.044175e+003, 1.235924e-002
2.046103e+003, 1.300172e-002
2.048032e+003, 1.415949e-002
2.049960e+003, 1.558606e-002
2.051889e+003, 1.363600e-002
2.053817e+003, 1.201183e-002
2.055746e+003, 1.208882e-002
2.057674e+003, 1.264861e-002
2.059603e+003, 1.325487e-002
2.061531e+003, 1.305343e-002
2.063459e+003, 1.194077e-002
2.065388e+003, 1.229903e-002
2.067316e+003, 1.429919e-002
2.069245e+003, 1.508531e-002
2.071173e+003, 1.472708e-002
2.073102e+003, 1.454726e-002
2.075030e+003, 1.380243e-002
2.076959e+003, 1.307348e-002
2.078887e+003, 1.283476e-002
2.080816e+003, 1.303797e-002
2.082744e+003, 1.356904e-002
2.084673e+003, 1.360200e-002
2.086601e+003, 1.345419e-002
2.088530e+003, 1.363729e-002
2.090458e+003, 1.371552e-002
2.092386e+003, 1.359673e-002
2.094315e+003, 1.382344e-002
2.096243e+003, 1.370219e-002
2.098172e+003, 1.290024e-002
2.100100e+003, 1.246418e-002
2.102029e+003, 1.343243e-002
2.103957e+003, 1.340511e-002
2.105886e+003, 1.304229e-002
2.107814e+003, 1.301273e-002
2.109743e+003, 1.461744e-002
2.111671e+003, 1.525555e-002
2.113600e+003, 1.482933e-002
2.115528e+003, 1.381763e-002
2.117457e+003, 1.333881e-002
2.119385e+003, 1.200656e-002
2.121313e+003, 1.142558e-002
2.123242e+003, 1.218560e-002
2.125170e+003, 1.169166e-002
2.127099e+003, 1.141400e-002
2.129027e+003, 1.216264e-002
2.130956e+003, 1.134466e-002
2.132884e+003, 9.534910e-003
2.134813e+003, 1.054021e-002
2.136741e+003, 1.199954e-002
2.138670e+003, 1.231647e-002
2.140598e+003, 1.344591e-002
2.142527e+003, 1.408959e-002
2.144455e+003, 1.327285e-002
2.146384e+003, 1.207498e-002
2.148312e+003, 1.237119e-002
2.150240e+003, 1.254217e-002
2.152169e+003, 1.059785e-002
2.154097e+003, 8.957448e-003
2.156026e+003, 8.259422e-003
2.157954e+003, 1.097503e-002
2.159883e+003, 1.671562e-002
2.161811e+003, 1.870144e-002
2.163740e+003, 1.883863e-002
2.165668e+003, 1.733810e-002
2.167597e+003, 1.598465e-002
2.169525e+003, 1.450641e-002
2.171454e+003, 1.284881e-002
2.173382e+003, 1.326034e-002
2.175311e+003, 1.547412e-002
2.177239e+003, 1.531171e-002
2.179167e+003, 1.345340e-002
2.181096e+003, 1.396339e-002
2.183024e+003, 1.579387e-002
2.184953e+003, 1.592907e-002
2.186881e+003, 1.450256e-002
2.188810e+003, 1.438802e-002
2.190738e+003, 1.505999e-002
2.192667e+003, 1.560642e-002
2.194595e+003, 1.643104e-002
2.196524e+003, 1.517964e-002
2.198452e+003, 1.514565e-002
2.200381e+003, 1.567974e-002
2.202309e+003, 1.602579e-002
2.204238e+003, 1.592083e-002
2.206166e+003, 1.686576e-002
2.208094e+003, 1.694280e-002
2.210023e+003, 1.593111e-002
2.211951e+003, 1.495294e-002
2.213880e+003, 1.443710e-002
2.215808e+003, 1.470585e-002
2.217737e+003, 1.626471e-002
2.219665e+003, 1.688793e-002
2.221594e+003, 1.602021e-002
2.223522e+003, 1.572506e-002
2.225451e+003, 1.481329e-002
2.227379e+003, 1.458389e-002
2.229308e+003, 1.502224e-002
2.231236e+003, 1.421886e-002
2.233165e+003, 1.426516e-002
2.235093e+003, 1.596188e-002
2.237021e+003, 1.712438e-002
2.238950e+003, 1.698643e-002
2.240878e+003, 1.602191e-002
2.242807e+003, 1.554329e-002
2.244735e+003, 1.578765e-002
2.246664e+003, 1.552932e-002
2.248592e+003, 1.584728e-002
2.250521e+003, 1.580376e-002
2.252449e+003, 1.630854e-002
2.254378e+003, 1.666102e-002
2.256306e+003, 1.623518e-002
2.258235e+003, 1.625630e-002
2.260163e+003, 1.645146e-002
2.262092e+003, 1.588677e-002
2.264020e+003, 1.573613e-002
2.265948e+003, 1.594081e-002
2.267877e+003, 1.600037e-002
2.269805e+003, 1.584011e-002
2.271734e+003, 1.612742e-002
2.273662e+003, 1.690510e-002
2.275591e+003, 1.776149e-002
2.277519e+003, 1.740324e-002
2.279448e+003, 1.702093e-002
2.281376e+003, 1.639659e-002
2.283305e+003, 1.657415e-002
2.285233e+003, 1.749399e-002
2.287162e+003, 1.723410e-002
2.289090e+003, 1.668532e-002
2.291019e+003, 1.649420e-002
2.292947e+003, 1.616260e-002
2.294875e+003, 1.618159e-002
2.296804e+003, 1.652818e-002
2.298732e+003, 1.618607e-002
2.300661e+003, 1.557174e-002
2.302589e+003, 1.585983e-002
2.304518e+003, 1.623063e-002
2.306446e+003, 1.625509e-002
2.308375e+003, 1.675863e-002
2.310303e+003, 1.691849e-002
2.312232e+003, 1.628912e-002
2.314160e+003, 1.595139e-002
2.316089e+003, 1.638214e-002
2.318017e+003, 1.617208e-002
2.319946e+003, 1.612834e-002
2.321874e+003, 1.708697e-002
2.323802e+003, 1.771177e-002
2.325731e+003, 1.657723e-002
2.327659e+003, 1.527008e-002
2.329588e+003, 1.489994e-002
2.331516e+003, 1.514698e-002
2.333445e+003, 1.547675e-002
2.335373e+003, 1.516371e-002
2.337302e+003, 1.470657e-002
2.339230e+003, 1.457000e-002
2.341159e+003, 1.488820e-002
2.343087e+003, 1.517008e-002
2.345016e+003, 1.501815e-002
2.346944e+003, 1.486446e-002
2.348873e+003, 1.514785e-002
2.350801e+003, 1.533509e-002
2.352729e+003, 1.530552e-002
2.354658e+003, 1.531684e-002
2.356586e+003, 1.483104e-002
2.358515e+003, 1.506598e-002
2.360443e+003, 1.570780e-002
2.362372e+003, 1.505950e-002
2.364300e+003, 1.453819e-002
2.366229e+003, 1.415980e-002
2.368157e+003, 1.411660e-002
2.370086e+003, 1.438041e-002
2.372014e+003, 1.464897e-002
2.373942e+003, 1.464457e-002
2.375871e+003, 1.493118e-002
2.377799e+003, 1.467056e-002
2.379728e+003, 1.448860e-002
2.381656e+003, 1.510031e-002
2.383585e+003, 1.582128e-002
2.385513e+003, 1.591468e-002
2.387442e+003, 1.589919e-002
2.389370e+003, 1.524740e-002
2.391299e+003, 1.474526e-002
2.393227e+003, 1.477243e-002
2.395156e+003, 1.515742e-002
2.397084e+003, 1.507851e-002
2.399012e+003, 1.500297e-002
2.400941e+003, 1.606852e-002
2.402869e+003, 1.613111e-002
2.404798e+003, 1.600774e-002
2.406726e+003, 1.621746e-002
2.408655e+003, 1.602549e-002
2.410583e+003, 1.540040e-002
2.412512e+003, 1.538422e-002
2.414440e+003, 1.648395e-002
2.416369e+003, 1.684944e-002
2.418297e+003, 1.621081e-002
2.420226e+003, 1.657418e-002
2.422154e+003, 1.694568e-002
2.424083e+003, 1.609557e-002
2.426011e+003, 1.582766e-002
2.427939e+003, 1.624595e-002
2.429868e+003, 1.653878e-002
2.431796e+003, 1.680185e-002
2.433725e+003, 1.680344e-002
2.435653e+003, 1.641008e-002
2.437582e+003, 1.688074e-002
2.439510e+003, 1.713811e-002
2.441439e+003, 1.708651e-002
2.443367e+003, 1.682881e-002
2.445296e+003, 1.665476e-002
2.447224e+003, 1.739286e-002
2.449153e+003, 1.704424e-002
2.451081e+003, 1.677813e-002
2.453010e+003, 1.665045e-002
2.454938e+003, 1.614464e-002
2.456866e+003, 1.582624e-002
2.458795e+003, 1.603052e-002
2.460723e+003, 1.640949e-002
2.462652e+003, 1.696003e-002
2.464580e+003, 1.612982e-002
2.466509e+003, 1.624558e-002
2.468437e+003, 1.657889e-002
2.470366e+003, 1.591343e-002
2.472294e+003, 1.643046e-002
2.474223e+003, 1.712972e-002
2.476151e+003, 1.636129e-002
2.478080e+003, 1.631238e-002
2.480008e+003, 1.687141e-002
2.481937e+003, 1.700725e-002
2.483865e+003, 1.652445e-002
2.485793e+003, 1.674474e-002
2.487722e+003, 1.688820e-002
2.489650e+003, 1.672279e-002
2.491579e+003, 1.730031e-002
2.493507e+003, 1.719116e-002
2.495436e+003, 1.659136e-002
2.497364e+003, 1.657954e-002
2.499293e+003, 1.699697e-002
2.501221e+003, 1.669596e-002
2.503150e+003, 1.629801e-002
2.505078e+003, 1.646606e-002
2.507007e+003, 1.651024e-002
2.508935e+003, 1.555732e-002
2.510864e+003, 1.614027e-002
2.512792e+003, 1.673512e-002
2.514720e+003, 1.624843e-002
2.516649e+003, 1.648101e-002
2.518577e+003, 1.728059e-002
2.520506e+003, 1.702833e-002
2.522434e+003, 1.613490e-002
2.524363e+003, 1.600947e-002
2.526291e+003, 1.560559e-002
2.528220e+003, 1.629203e-002
2.530148e+003, 1.770245e-002
2.532077e+003, 1.728606e-002
2.534005e+003, 1.659490e-002
2.535934e+003, 1.626596e-002
2.537862e+003, 1.586146e-002
2.539791e+003, 1.661473e-002
2.541719e+003, 1.774612e-002
2.543647e+003, 1.797655e-002
2.545576e+003, 1.819770e-002
2.547504e+003, 1.726323e-002
2.549433e+003, 1.675023e-002
2.551361e+003, 1.751900e-002
2.553290e+003, 1.729093e-002
2.555218e+003, 1.730129e-002
2.557147e+003, 1.770614e-002
2.559075e+003, 1.783724e-002
2.561004e+003, 1.721279e-002
2.562932e+003, 1.690681e-002
2.564861e+003, 1.713743e-002
2.566789e+003, 1.681001e-002
2.568718e+003, 1.729866e-002
2.570646e+003, 1.772463e-002
2.572574e+003, 1.795372e-002
2.574503e+003, 1.811829e-002
2.576431e+003, 1.805657e-002
2.578360e+003, 1.868784e-002
2.580288e+003, 1.899573e-002
2.582217e+003, 1.824732e-002
2.584145e+003, 1.868547e-002
2.586074e+003, 1.926144e-002
2.588002e+003, 1.859999e-002
2.589931e+003, 1.797731e-002
2.591859e+003, 1.836064e-002
2.593788e+003, 1.859313e-002
2.595716e+003, 1.815825e-002
2.597645e+003, 1.795130e-002
2.599573e+003, 1.917582e-002
2.601501e+003, 1.887268e-002
2.603430e+003, 1.867269e-002
2.605358e+003, 1.919795e-002
2.607287e+003, 1.923586e-002
2.609215e+003, 1.883978e-002
2.611144e+003, 1.815799e-002
2.613072e+003, 1.821378e-002
2.615001e+003, 1.919063e-002
2.616929e+003, 1.864392e-002
2.618858e+003, 1.801396e-002
2.620786e+003, 1.811107e-002
2.622715e+003, 1.838811e-002
2.624643e+003, 1.866964e-002
2.626572e+003, 1.909908e-002
2.628500e+003, 1.881723e-002
2.630428e+003, 1.838567e-002
2.632357e+003, 1.833043e-002
2.634285e+003, 1.879373e-002
2.636214e+003, 1.895685e-002
2.638142e+003, 1.882340e-002
2.640071e+003, 1.896687e-002
2.641999e+003, 1.875823e-002
2.643928e+003, 1.877154e-002
2.645856e+003, 1.873921e-002
2.647785e+003, 1.869721e-002
2.649713e+003, 1.922604e-002
2.651642e+003, 1.919700e-002
2.653570e+003, 1.869861e-002
2.655499e+003, 1.878344e-002
2.657427e+003, 1.868284e-002
2.659355e+003, 1.836788e-002
2.661284e+003, 1.855000e-002
2.663212e+003, 1.858417e-002
2.665141e+003, 1.799596e-002
2.667069e+003, 1.775125e-002
2.668998e+003, 1.786335e-002
2.670926e+003, 1.816528e-002
2.672855e+003, 1.810616e-002
2.674783e+003, 1.782394e-002
2.676712e+003, 1.768841e-002
2.678640e+003, 1.764754e-002
2.680569e+003, 1.740645e-002
2.682497e+003, 1.739731e-002
2.684426e+003, 1.806391e-002
2.686354e+003, 1.806303e-002
2.688282e+003, 1.812387e-002
2.690211e+003, 1.794066e-002
2.692139e+003, 1.784417e-002
2.694068e+003, 1.825734e-002
2.695996e+003, 1.837293e-002
2.697925e+003, 1.796437e-002
2.699853e+003, 1.781038e-002
2.701782e+003, 1.764199e-002
2.703710e+003, 1.791969e-002
2.705639e+003, 1.792459e-002
2.707567e+003, 1.788535e-002
2.709496e+003, 1.791462e-002
2.711424e+003, 1.794745e-002
2.713353e+003, 1.815711e-002
2.715281e+003, 1.810911e-002
2.717209e+003, 1.826371e-002
2.719138e+003, 1.804286e-002
2.721066e+003, 1.791705e-002
2.722995e+003, 1.823089e-002
2.724923e+003, 1.845308e-002
2.726852e+003, 1.890445e-002
2.728780e+003, 1.907636e-002
2.730709e+003, 1.862950e-002
2.732637e+003, 1.869079e-002
2.734566e+003, 1.865547e-002
2.736494e+003, 1.839559e-002
2.738423e+003, 1.809631e-002
2.740351e+003, 1.780323e-002
2.742280e+003, 1.801105e-002
2.744208e+003, 1.846617e-002
2.746136e+003, 1.845514e-002
2.748065e+003, 1.788355e-002
2.749993e+003, 1.825710e-002
2.751922e+003, 1.864661e-002
2.753850e+003, 1.787726e-002
2.755779e+003, 1.789813e-002
2.757707e+003, 1.826370e-002
2.759636e+003, 1.850617e-002
2.761564e+003, 1.836374e-002
2.763493e+003, 1.815137e-002
2.765421e+003, 1.815369e-002
2.767350e+003, 1.877020e-002
2.769278e+003, 1.947548e-002
2.771207e+003, 1.911506e-002
2.773135e+003, 1.855271e-002
2.775063e+003, 1.848703e-002
2.776992e+003, 1.923240e-002
2.778920e+003, 1.915077e-002
2.780849e+003, 1.878405e-002
2.782777e+003, 1.919126e-002
2.784706e+003, 1.874586e-002
2.786634e+003, 1.791715e-002
2.788563e+003, 1.807503e-002
2.790491e+003, 1.868594e-002
2.792420e+003, 1.848698e-002
2.794348e+003, 1.844420e-002
2.796277e+003, 1.859218e-002
2.798205e+003, 1.881626e-002
2.800134e+003, 1.883237e-002
2.802062e+003, 1.926772e-002
2.803990e+003, 1.973875e-002
2.805919e+003, 1.904042e-002
2.807847e+003, 1.897729e-002
2.809776e+003, 1.925066e-002
2.811704e+003, 1.880856e-002
2.813633e+003, 1.866360e-002
2.815561e+003, 1.855383e-002
2.817490e+003, 1.818928e-002
2.819418e+003, 1.873400e-002
2.821347e+003, 1.896037e-002
2.823275e+003, 1.919312e-002
2.825204e+003, 1.952176e-002
2.827132e+003, 1.954163e-002
2.829061e+003, 1.932371e-002
2.830989e+003, 1.921555e-002
2.832917e+003, 1.933664e-002
2.834846e+003, 1.948825e-002
2.836774e+003, 1.948314e-002
2.838703e+003, 1.919376e-002
2.840631e+003, 1.943830e-002
2.842560e+003, 1.946745e-002
2.844488e+003, 1.934001e-002
2.846417e+003, 1.945717e-002
2.848345e+003, 1.975098e-002
2.850274e+003, 2.004023e-002
2.852202e+003, 1.948538e-002
2.854131e+003, 1.903581e-002
2.856059e+003, 1.876387e-002
2.857988e+003, 1.865479e-002
2.859916e+003, 1.946553e-002
2.861844e+003, 1.974897e-002
2.863773e+003, 1.945199e-002
2.865701e+003, 1.982348e-002
2.867630e+003, 1.893851e-002
2.869558e+003, 1.860766e-002
2.871487e+003, 1.959538e-002
2.873415e+003, 2.029594e-002
2.875344e+003, 1.937146e-002
2.877272e+003, 1.904781e-002
2.879201e+003, 1.981829e-002
2.881129e+003, 1.978421e-002
2.883058e+003, 1.918150e-002
2.884986e+003, 1.880270e-002
2.886915e+003, 1.922598e-002
2.888843e+003, 1.965748e-002
2.890771e+003, 2.013924e-002
2.892700e+003, 2.095404e-002
2.894628e+003, 2.146311e-002
2.896557e+003, 2.147192e-002
2.898485e+003, 2.140495e-002
2.900414e+003, 2.164029e-002
2.902342e+003, 2.161144e-002
2.904271e+003, 2.079822e-002
2.906199e+003, 2.041068e-002
2.908128e+003, 2.061842e-002
2.910056e+003, 2.041302e-002
2.911985e+003, 2.061711e-002
2.913913e+003, 2.054650e-002
2.915842e+003, 1.991324e-002
2.917770e+003, 2.044041e-002
2.919698e+003, 2.120014e-002
2.921627e+003, 2.083945e-002
2.923555e+003, 2.058259e-002
2.925484e+003, 2.083012e-002
2.927412e+003, 2.058757e-002
2.929341e+003, 2.098086e-002
2.931269e+003, 2.140642e-002
2.933198e+003, 2.099629e-002
2.935126e+003, 2.129862e-002
2.937055e+003, 2.129129e-002
2.938983e+003, 2.032431e-002
2.940912e+003, 2.037066e-002
2.942840e+003, 2.072353e-002
2.944769e+003, 2.075641e-002
2.946697e+003, 2.041943e-002
2.948625e+003, 2.017778e-002
2.950554e+003, 2.018563e-002
2.952482e+003, 1.997579e-002
2.954411e+003, 1.979067e-002
2.956339e+003, 1.987853e-002
2.958268e+003, 2.053414e-002
2.960196e+003, 2.038717e-002
2.962125e+003, 1.941860e-002
2.964053e+003, 1.970482e-002
2.965982e+003, 2.052778e-002
2.967910e+003, 2.062191e-002
2.969839e+003, 2.052961e-002
2.971767e+003, 2.062858e-002
2.973696e+003, 2.017647e-002
2.975624e+003, 1.975209e-002
2.977552e+003, 2.013253e-002
2.979481e+003, 2.040244e-002
2.981409e+003, 1.965097e-002
2.983338e+003, 1.892418e-002
2.985266e+003, 1.917319e-002
2.987195e+003, 2.011862e-002
2.989123e+003, 2.171425e-002
2.991052e+003, 2.162142e-002
2.992980e+003, 2.103784e-002
2.994909e+003, 2.073020e-002
2.996837e+003, 2.067140e-002
2.998766e+003, 2.098285e-002
3.000694e+003, 2.092808e-002
3.002623e+003, 2.033375e-002
3.004551e+003, 1.998988e-002
3.006479e+003, 2.023727e-002
3.008408e+003, 2.023106e-002
3.010336e+003, 1.982848e-002
3.012265e+003, 1.961744e-002
3.014193e+003, 2.026161e-002
3.016122e+003, 2.059185e-002
3.018050e+003, 2.093899e-002
3.019979e+003, 2.099975e-002
3.021907e+003, 1.973717e-002
3.023836e+003, 1.916000e-002
3.025764e+003, 2.027551e-002
3.027693e+003, 2.046457e-002
3.029621e+003, 2.019808e-002
3.031550e+003, 2.024015e-002
3.033478e+003, 1.942051e-002
3.035406e+003, 1.954134e-002
3.037335e+003, 1.988494e-002
3.039263e+003, 1.987333e-002
3.041192e+003, 1.985577e-002
3.043120e+003, 2.049910e-002
3.045049e+003, 2.091553e-002
3.046977e+003, 2.052764e-002
3.048906e+003, 2.053504e-002
3.050834e+003, 2.099518e-002
3.052763e+003, 2.074499e-002
3.054691e+003, 2.009758e-002
3.056620e+003, 2.032240e-002
3.058548e+003, 2.097503e-002
3.060477e+003, 2.133129e-002
3.062405e+003, 2.027609e-002
3.064333e+003, 2.001481e-002
3.066262e+003, 2.100364e-002
3.068190e+003, 2.105457e-002
3.070119e+003, 2.069125e-002
3.072047e+003, 2.029650e-002
3.073976e+003, 2.058341e-002
3.075904e+003, 2.108519e-002
3.077833e+003, 2.065271e-002
3.079761e+003, 1.967454e-002
3.081690e+003, 2.006040e-002
3.083618e+003, 2.146465e-002
3.085547e+003, 2.194061e-002
3.087475e+003, 2.104358e-002
3.089404e+003, 2.049857e-002
3.091332e+003, 1.996220e-002
3.093260e+003, 1.997045e-002
3.095189e+003, 2.148317e-002
3.097117e+003, 2.235214e-002
3.099046e+003, 2.183487e-002
3.100974e+003, 2.108708e-002
3.102903e+003, 2.112008e-002
3.104831e+003, 2.137882e-002
3.106760e+003, 2.191604e-002
3.108688e+003, 2.132929e-002
3.110617e+003, 2.076272e-002
3.112545e+003, 2.068141e-002
3.114474e+003, 2.168578e-002
3.116402e+003, 2.263437e-002
3.118331e+003, 2.258109e-002
3.120259e+003, 2.203587e-002
3.122188e+003, 2.150398e-002
3.124116e+003, 2.143177e-002
3.126044e+003, 2.110608e-002
3.127973e+003, 2.179665e-002
3.129901e+003, 2.207014e-002
3.131830e+003, 2.225706e-002
3.133758e+003, 2.159928e-002
3.135687e+003, 2.121279e-002
3.137615e+003, 2.166173e-002
3.139544e+003, 2.150954e-002
3.141472e+003, 2.134851e-002
3.143401e+003, 2.199456e-002
3.145329e+003, 2.280464e-002
3.147258e+003, 2.271551e-002
3.149186e+003, 2.233919e-002
3.151115e+003, 2.147209e-002
3.153043e+003, 2.234717e-002
3.154971e+003, 2.186865e-002
3.156900e+003, 2.036850e-002
3.158828e+003, 2.032863e-002
3.160757e+003, 2.081672e-002
3.162685e+003, 2.102336e-002
3.164614e+003, 2.124388e-002
3.166542e+003, 2.204390e-002
3.168471e+003, 2.305006e-002
3.170399e+003, 2.356038e-002
3.172328e+003, 2.253829e-002
3.174256e+003, 2.175625e-002
3.176185e+003, 2.272484e-002
3.178113e+003, 2.357211e-002
3.180042e+003, 2.338820e-002
3.181970e+003, 2.275426e-002
3.183898e+003, 2.121586e-002
3.185827e+003, 2.108043e-002
3.187755e+003, 2.180095e-002
3.189684e+003, 2.171302e-002
3.191612e+003, 2.132221e-002
3.193541e+003, 2.096504e-002
3.195469e+003, 2.207203e-002
3.197398e+003, 2.222355e-002
3.199326e+003, 2.207193e-002
3.201255e+003, 2.303043e-002
3.203183e+003, 2.343100e-002
3.205112e+003, 2.330029e-002
3.207040e+003, 2.341397e-002
3.208969e+003, 2.362917e-002
3.210897e+003, 2.297455e-002
3.212825e+003, 2.227452e-002
3.214754e+003, 2.231889e-002
3.216682e+003, 2.198766e-002
3.218611e+003, 2.232371e-002
3.220539e+003, 2.267210e-002
3.222468e+003, 2.239815e-002
3.224396e+003, 2.277380e-002
3.226325e+003, 2.421063e-002
3.228253e+003, 2.371204e-002
3.230182e+003, 2.343072e-002
3.232110e+003, 2.383190e-002
3.234039e+003, 2.287368e-002
3.235967e+003, 2.246589e-002
3.237896e+003, 2.238833e-002
3.239824e+003, 2.174471e-002
3.241752e+003, 2.071005e-002
3.243681e+003, 2.103853e-002
3.245609e+003, 2.300309e-002
3.247538e+003, 2.347231e-002
3.249466e+003, 2.189865e-002
3.251395e+003, 2.182478e-002
3.253323e+003, 2.261384e-002
3.255252e+003, 2.264668e-002
3.257180e+003, 2.260378e-002
3.259109e+003, 2.351742e-002
3.261037e+003, 2.458551e-002
3.262966e+003, 2.481273e-002
3.264894e+003, 2.392103e-002
3.266823e+003, 2.202291e-002
3.268751e+003, 2.266392e-002
3.270679e+003, 2.361523e-002
3.272608e+003, 2.383500e-002
3.274536e+003, 2.311805e-002
3.276465e+003, 2.279652e-002
3.278393e+003, 2.395028e-002
3.280322e+003, 2.327130e-002
3.282250e+003, 2.350990e-002
3.284179e+003, 2.382228e-002
3.286107e+003, 2.350035e-002
3.288036e+003, 2.313215e-002
3.289964e+003, 2.265585e-002
3.291893e+003, 2.240415e-002
3.293821e+003, 2.293416e-002
3.295750e+003, 2.308277e-002
3.297678e+003, 2.184336e-002
3.299606e+003, 2.174123e-002
3.301535e+003, 2.178451e-002
3.303463e+003, 2.274538e-002
3.305392e+003, 2.372096e-002
3.307320e+003, 2.353377e-002
3.309249e+003, 2.307776e-002
3.311177e+003, 2.295291e-002
3.313106e+003, 2.338722e-002
3.315034e+003, 2.314070e-002
3.316963e+003, 2.166509e-002
3.318891e+003, 2.186432e-002
3.320820e+003, 2.282386e-002
3.322748e+003, 2.447109e-002
3.324677e+003, 2.526146e-002
3.326605e+003, 2.366330e-002
3.328533e+003, 2.312767e-002
3.330462e+003, 2.432269e-002
3.332390e+003, 2.503219e-002
3.334319e+003, 2.387888e-002
3.336247e+003, 2.318674e-002
3.338176e+003, 2.483551e-002
3.340104e+003, 2.496782e-002
3.342033e+003, 2.475533e-002
3.343961e+003, 2.530061e-002
3.345890e+003, 2.499598e-002
3.347818e+003, 2.427007e-002
3.349747e+003, 2.374375e-002
3.351675e+003, 2.437743e-002
3.353604e+003, 2.465216e-002
3.355532e+003, 2.430038e-002
3.357460e+003, 2.459633e-002
3.359389e+003, 2.513612e-002
3.361317e+003, 2.418109e-002
3.363246e+003, 2.285677e-002
3.365174e+003, 2.358815e-002
3.367103e+003, 2.323315e-002
3.369031e+003, 2.325447e-002
3.370960e+003, 2.388105e-002
3.372888e+003, 2.420488e-002
3.374817e+003, 2.373225e-002
3.376745e+003, 2.302638e-002
3.378674e+003, 2.374677e-002
3.380602e+003, 2.419539e-002
3.382531e+003, 2.420207e-002
3.384459e+003, 2.464933e-002
3.386387e+003, 2.327635e-002
3.388316e+003, 2.336251e-002
3.390244e+003, 2.435723e-002
3.392173e+003, 2.403833e-002
3.394101e+003, 2.368643e-002
3.396030e+003, 2.390265e-002
3.397958e+003, 2.341640e-002
3.399887e+003, 2.308949e-002
3.401815e+003, 2.323764e-002
3.403744e+003, 2.244851e-002
3.405672e+003, 2.336682e-002
3.407601e+003, 2.425183e-002
3.409529e+003, 2.439513e-002
3.411458e+003, 2.370124e-002
3.413386e+003, 2.246874e-002
3.415314e+003, 2.373536e-002
3.417243e+003, 2.362918e-002
3.419171e+003, 2.298413e-002
3.421100e+003, 2.360346e-002
3.423028e+003, 2.301112e-002
3.424957e+003, 2.210237e-002
3.426885e+003, 2.229276e-002
3.428814e+003, 2.225432e-002
3.430742e+003, 2.282449e-002
3.432671e+003, 2.390908e-002
3.434599e+003, 2.459149e-002
3.436528e+003, 2.467022e-002
3.438456e+003, 2.463438e-002
3.440385e+003, 2.560584e-002
3.442313e+003, 2.500422e-002
3.444241e+003, 2.352305e-002
3.446170e+003, 2.316269e-002
3.448098e+003, 2.367420e-002
3.450027e+003, 2.333713e-002
3.451955e+003, 2.279659e-002
3.453884e+003, 2.327112e-002
3.455812e+003, 2.327784e-002
3.457741e+003, 2.159290e-002
3.459669e+003, 2.220981e-002
3.461598e+003, 2.371366e-002
3.463526e+003, 2.464768e-002
3.465455e+003, 2.238552e-002
3.467383e+003, 2.113795e-002
3.469312e+003, 2.208048e-002
3.471240e+003, 2.281102e-002
3.473168e+003, 2.341434e-002
3.475097e+003, 2.344953e-002
3.477025e+003, 2.419916e-002
3.478954e+003, 2.347547e-002
3.480882e+003, 2.229981e-002
3.482811e+003, 2.260914e-002
3.484739e+003, 2.224261e-002
3.486668e+003, 2.316289e-002
3.488596e+003, 2.389939e-002
3.490525e+003, 2.309036e-002
3.492453e+003, 2.417739e-002
3.494382e+003, 2.435330e-002
3.496310e+003, 2.513696e-002
3.498239e+003, 2.543433e-002
3.500167e+003, 2.274090e-002
3.502095e+003, 2.245043e-002
3.504024e+003, 2.398892e-002
3.505952e+003, 2.427730e-002
3.507881e+003, 2.433621e-002
3.509809e+003, 2.462097e-002
3.511738e+003, 2.311774e-002
3.513666e+003, 2.346195e-002
3.515595e+003, 2.498448e-002
3.517523e+003, 2.398018e-002
3.519452e+003, 2.352905e-002
3.521380e+003, 2.312411e-002
3.523309e+003, 2.464765e-002
3.525237e+003, 2.591900e-002
3.527166e+003, 2.478778e-002
3.529094e+003, 2.304418e-002
3.531022e+003, 2.297652e-002
3.532951e+003, 2.372530e-002
3.534879e+003, 2.358875e-002
3.536808e+003, 2.389835e-002
3.538736e+003, 2.313390e-002
3.540665e+003, 2.348483e-002
3.542593e+003, 2.376219e-002
3.544522e+003, 2.335816e-002
3.546450e+003, 2.382575e-002
3.548379e+003, 2.498968e-002
3.550307e+003, 2.274564e-002
3.552236e+003, 2.117373e-002
3.554164e+003, 2.449113e-002
3.556093e+003, 2.614705e-002
3.558021e+003, 2.397875e-002
3.559949e+003, 2.369513e-002
3.561878e+003, 2.499179e-002
3.563806e+003, 2.463317e-002
3.565735e+003, 2.380593e-002
3.567663e+003, 2.547423e-002
3.569592e+003, 2.629732e-002
3.571520e+003, 2.463811e-002
3.573449e+003, 2.251070e-002
3.575377e+003, 2.363756e-002
3.577306e+003, 2.630387e-002
3.579234e+003, 2.491950e-002
3.581163e+003, 2.327195e-002
3.583091e+003, 2.268209e-002
3.585020e+003, 2.316608e-002
3.586948e+003, 2.400985e-002
3.588876e+003, 2.322926e-002
3.590805e+003, 2.165615e-002
3.592733e+003, 2.208561e-002
3.594662e+003, 2.298059e-002
3.596590e+003, 2.246020e-002
3.598519e+003, 2.142568e-002
3.600447e+003, 2.387440e-002
3.602376e+003, 2.530049e-002
3.604304e+003, 2.402992e-002
3.606233e+003, 2.410424e-002
3.608161e+003, 2.236474e-002
3.610090e+003, 2.110942e-002
3.612018e+003, 2.253158e-002
3.613947e+003, 2.375893e-002
3.615875e+003, 2.466548e-002
3.617803e+003, 2.365338e-002
3.619732e+003, 2.146227e-002
3.621660e+003, 2.345425e-002
3.623589e+003, 2.469119e-002
3.625517e+003, 2.380256e-002
3.627446e+003, 2.456669e-002
3.629374e+003, 2.401538e-002
3.631303e+003, 2.344461e-002
3.633231e+003, 2.308766e-002
3.635160e+003, 2.186598e-002
3.637088e+003, 2.312590e-002
3.639017e+003, 2.437605e-002
3.640945e+003, 2.254000e-002
3.642874e+003, 2.118627e-002
3.644802e+003, 2.042043e-002
3.646730e+003, 2.030871e-002
3.648659e+003, 2.133729e-002
3.650587e+003, 2.235748e-002
3.652516e+003, 2.392343e-002
3.654444e+003, 2.456117e-002
3.656373e+003, 2.425222e-002
3.658301e+003, 2.449061e-002
3.660230e+003, 2.353046e-002
3.662158e+003, 2.196826e-002
3.664087e+003, 2.058694e-002
3.666015e+003, 2.042440e-002
3.667944e+003, 2.171775e-002
3.669872e+003, 2.280525e-002
3.671801e+003, 2.142401e-002
3.673729e+003, 2.181498e-002
3.675657e+003, 2.330267e-002
3.677586e+003, 2.223677e-002
3.679514e+003, 2.110166e-002
3.681443e+003, 2.253309e-002
3.683371e+003, 2.510029e-002
3.685300e+003, 2.404497e-002
3.687228e+003, 2.286279e-002
3.689157e+003, 2.263870e-002
3.691085e+003, 2.180590e-002
3.693014e+003, 2.281030e-002
3.694942e+003, 2.310795e-002
3.696871e+003, 2.429816e-002
3.698799e+003, 2.444172e-002
3.700728e+003, 2.304656e-002
3.702656e+003, 2.341444e-002
3.704584e+003, 2.395784e-002
3.706513e+003, 2.369303e-002
3.708441e+003, 2.281347e-002
3.710370e+003, 2.286508e-002
3.712298e+003, 2.379049e-002
3.714227e+003, 2.276898e-002
3.716155e+003, 2.335805e-002
3.718084e+003, 2.293473e-002
3.720012e+003, 2.276259e-002
3.721941e+003, 2.191380e-002
3.723869e+003, 2.048310e-002
3.725798e+003, 2.179291e-002
3.727726e+003, 2.268743e-002
3.729655e+003, 2.331167e-002
3.731583e+003, 2.440657e-002
3.733511e+003, 2.420094e-002
3.735440e+003, 2.360370e-002
3.737368e+003, 2.262527e-002
3.739297e+003, 2.077582e-002
3.741225e+003, 2.335445e-002
3.743154e+003, 2.408842e-002
3.745082e+003, 2.287605e-002
3.747011e+003, 2.190671e-002
3.748939e+003, 2.269038e-002
3.750868e+003, 2.381863e-002
3.752796e+003, 2.372383e-002
3.754725e+003, 2.135215e-002
3.756653e+003, 2.265651e-002
3.758582e+003, 2.409143e-002
3.760510e+003, 2.394931e-002
3.762438e+003, 2.314725e-002
3.764367e+003, 2.280029e-002
3.766295e+003, 2.329148e-002
3.768224e+003, 2.312371e-002
3.770152e+003, 2.295414e-002
3.772081e+003, 2.357638e-002
3.774009e+003, 2.469659e-002
3.775938e+003, 2.461185e-002
3.777866e+003, 2.385194e-002
3.779795e+003, 2.374817e-002
3.781723e+003, 2.380159e-002
3.783652e+003, 2.568198e-002
3.785580e+003, 2.601775e-002
3.787509e+003, 2.553653e-002
3.789437e+003, 2.622559e-002
3.791365e+003, 2.470650e-002
3.793294e+003, 2.158868e-002
3.795222e+003, 2.244763e-002
3.797151e+003, 2.493273e-002
3.799079e+003, 2.393118e-002
3.801008e+003, 2.301426e-002
3.802936e+003, 2.310431e-002
3.804865e+003, 2.314193e-002
3.806793e+003, 2.342054e-002
3.808722e+003, 2.307661e-002
3.810650e+003, 2.446475e-002
3.812579e+003, 2.510495e-002
3.814507e+003, 2.297427e-002
3.816436e+003, 2.154871e-002
3.818364e+003, 2.254168e-002
3.820292e+003, 2.402288e-002
3.822221e+003, 2.348864e-002
3.824149e+003, 2.395528e-002
3.826078e+003, 2.550372e-002
3.828006e+003, 2.343341e-002
3.829935e+003, 2.289758e-002
3.831863e+003, 2.386468e-002
3.833792e+003, 2.406200e-002
3.835720e+003, 2.437549e-002
3.837649e+003, 2.340544e-002
3.839577e+003, 2.445270e-002
3.841506e+003, 2.568517e-002
3.843434e+003, 2.549108e-002
3.845363e+003, 2.416051e-002
3.847291e+003, 2.385772e-002
3.849219e+003, 2.316871e-002
3.851148e+003, 2.167560e-002
3.853076e+003, 2.233595e-002
3.855005e+003, 2.275258e-002
3.856933e+003, 2.204964e-002
3.858862e+003, 2.445302e-002
3.860790e+003, 2.523871e-002
3.862719e+003, 2.389476e-002
3.864647e+003, 2.444087e-002
3.866576e+003, 2.550480e-002
3.868504e+003, 2.367558e-002
3.870433e+003, 2.383662e-002
3.872361e+003, 2.506610e-002
3.874290e+003, 2.539852e-002
3.876218e+003, 2.419682e-002
3.878146e+003, 2.369473e-002
3.880075e+003, 2.280986e-002
3.882003e+003, 2.277184e-002
3.883932e+003, 2.306822e-002
3.885860e+003, 2.363343e-002
3.887789e+003, 2.337738e-002
3.889717e+003, 2.303172e-002
3.891646e+003, 2.436820e-002
3.893574e+003, 2.532768e-002
3.895503e+003, 2.507650e-002
3.897431e+003, 2.506021e-002
3.899360e+003, 2.435691e-002
3.901288e+003, 2.447651e-002
3.903217e+003, 2.595214e-002
3.905145e+003, 2.438685e-002
3.907073e+003, 2.122653e-002
3.909002e+003, 1.971726e-002
3.910930e+003, 2.038591e-002
3.912859e+003, 2.205108e-002
3.914787e+003, 2.228273e-002
3.916716e+003, 2.454373e-002
3.918644e+003, 2.538689e-002
3.920573e+003, 2.302358e-002
3.922501e+003, 2.268147e-002
3.924430e+003, 2.349438e-002
3.926358e+003, 2.189953e-002
3.928287e+003, 2.262669e-002
3.930215e+003, 2.471686e-002
3.932144e+003, 2.361566e-002
3.934072e+003, 2.442613e-002
3.936000e+003, 2.491450e-002
3.937929e+003, 2.278279e-002
3.939857e+003, 2.276805e-002
3.941786e+003, 2.346903e-002
3.943714e+003, 2.176850e-002
3.945643e+003, 2.173378e-002
3.947571e+003, 2.281316e-002
3.949500e+003, 2.221037e-002
3.951428e+003, 2.000770e-002
3.953357e+003, 1.999594e-002
3.955285e+003, 2.278461e-002
3.957214e+003, 2.509096e-002
3.959142e+003, 2.409675e-002
3.961071e+003, 2.372168e-002
3.962999e+003, 2.394487e-002
3.964927e+003, 2.596212e-002
3.966856e+003, 2.634491e-002
3.968784e+003, 2.454541e-002
3.970713e+003, 2.396236e-002
3.972641e+003, 2.415723e-002
3.974570e+003, 2.285402e-002
3.976498e+003, 2.195229e-002
3.978427e+003, 2.297427e-002
3.980355e+003, 2.451168e-002
3.982284e+003, 2.427804e-002
3.984212e+003, 2.493970e-002
3.986141e+003, 2.593917e-002
3.988069e+003, 2.474500e-002
3.989998e+003, 2.270820e-002
3.991926e+003, 2.485890e-002
3.993854e+003, 2.604613e-002
3.995783e+003, 2.502910e-002
3.997711e+003, 2.588365e-002
3.999640e+003, 2.589450e-002
##END=



