##NAMES=Grunerite
##RRUFFID=R060062
##IDEAL CHEMISTRY=[box]Fe^2+^_2_Fe^2+^_5_Si_8_O_22_(OH)_2_
##LOCALITY=2C mine, Broken Hill, New South Wales, Australia
##OWNER=RRUFF
##SOURCE=University of Arizona Mineral Museum
##DESCRIPTION=Aggregate of greenish-brown colored parallel acicular crystals
##STATUS=The identification of this mineral has been confirmed by X-ray diffraction and chemical analysis
##URL=rruff.info/R060062
##MEASURED CHEMISTRY=[box](Fe^2+^_4.32_Mg_1.90_Mn_0.54_Ca_0.22_)_Σ=7_(Si_7.98_Al_0.02_)_Σ=8_O_22_(OH)_2_
3.991926e+002, 2.071183e-001
4.011211e+002, 2.295476e-001
4.030495e+002, 2.224742e-001
4.049780e+002, 2.035527e-001
4.069065e+002, 2.278169e-001
4.088349e+002, 2.483194e-001
4.107634e+002, 2.448783e-001
4.126919e+002, 2.505778e-001
4.146203e+002, 2.526905e-001
4.165488e+002, 2.470516e-001
4.184773e+002, 2.461443e-001
4.204057e+002, 2.600766e-001
4.223342e+002, 2.631845e-001
4.242627e+002, 2.567897e-001
4.261911e+002, 2.567725e-001
4.281196e+002, 2.502027e-001
4.300481e+002, 2.412329e-001
4.319765e+002, 2.279675e-001
4.339050e+002, 2.124084e-001
4.358335e+002, 2.123230e-001
4.377619e+002, 2.129266e-001
4.396904e+002, 2.117507e-001
4.416189e+002, 2.103231e-001
4.435473e+002, 2.150317e-001
4.454758e+002, 2.215213e-001
4.474043e+002, 2.255931e-001
4.493327e+002, 2.295205e-001
4.512612e+002, 2.367476e-001
4.531897e+002, 2.456879e-001
4.551181e+002, 2.489830e-001
4.570466e+002, 2.517391e-001
4.589751e+002, 2.580544e-001
4.609035e+002, 2.610625e-001
4.628320e+002, 2.623870e-001
4.647605e+002, 2.702081e-001
4.666889e+002, 2.806756e-001
4.686174e+002, 2.812395e-001
4.705459e+002, 2.824962e-001
4.724743e+002, 2.858267e-001
4.744028e+002, 2.827304e-001
4.763313e+002, 2.815553e-001
4.782597e+002, 2.823847e-001
4.801882e+002, 2.794080e-001
4.821167e+002, 2.745488e-001
4.840451e+002, 2.688297e-001
4.859736e+002, 2.640599e-001
4.879021e+002, 2.598253e-001
4.898305e+002, 2.559063e-001
4.917590e+002, 2.495153e-001
4.936875e+002, 2.423998e-001
4.956159e+002, 2.371843e-001
4.975444e+002, 2.330803e-001
4.994729e+002, 2.278102e-001
5.014013e+002, 2.237439e-001
5.033298e+002, 2.203766e-001
5.052583e+002, 2.162722e-001
5.071867e+002, 2.117872e-001
5.091152e+002, 2.091577e-001
5.110437e+002, 2.052569e-001
5.129721e+002, 1.973118e-001
5.149006e+002, 1.909132e-001
5.168290e+002, 1.858199e-001
5.187575e+002, 1.800059e-001
5.206860e+002, 1.745929e-001
5.226144e+002, 1.703137e-001
5.245429e+002, 1.647475e-001
5.264714e+002, 1.590585e-001
5.283998e+002, 1.556479e-001
5.303283e+002, 1.509592e-001
5.322568e+002, 1.443976e-001
5.341852e+002, 1.389561e-001
5.361137e+002, 1.353241e-001
5.380422e+002, 1.306386e-001
5.399706e+002, 1.239520e-001
5.418991e+002, 1.183138e-001
5.438276e+002, 1.138336e-001
5.457560e+002, 1.097006e-001
5.476845e+002, 1.052701e-001
5.496130e+002, 1.007834e-001
5.515414e+002, 9.658595e-002
5.534699e+002, 9.280558e-002
5.553984e+002, 8.944407e-002
5.573268e+002, 8.551569e-002
5.592553e+002, 8.258957e-002
5.611838e+002, 8.050481e-002
5.631122e+002, 7.733662e-002
5.650407e+002, 7.344183e-002
5.669692e+002, 7.090740e-002
5.688976e+002, 6.836227e-002
5.708261e+002, 6.450755e-002
5.727546e+002, 6.122466e-002
5.746830e+002, 6.007166e-002
5.766115e+002, 5.788007e-002
5.785400e+002, 5.449070e-002
5.804684e+002, 5.335791e-002
5.823969e+002, 5.290380e-002
5.843254e+002, 5.129397e-002
5.862538e+002, 5.086045e-002
5.881823e+002, 5.090449e-002
5.901108e+002, 4.909582e-002
5.920392e+002, 4.820637e-002
5.939677e+002, 4.997787e-002
5.958962e+002, 5.075096e-002
5.978246e+002, 5.160673e-002
5.997531e+002, 5.409598e-002
6.016816e+002, 5.556906e-002
6.036100e+002, 5.685276e-002
6.055385e+002, 6.006156e-002
6.074670e+002, 6.318529e-002
6.093954e+002, 6.520902e-002
6.113239e+002, 6.897461e-002
6.132524e+002, 7.387180e-002
6.151808e+002, 7.791774e-002
6.171093e+002, 8.212549e-002
6.190378e+002, 8.879444e-002
6.209662e+002, 9.515361e-002
6.228947e+002, 9.983436e-002
6.248232e+002, 1.055415e-001
6.267516e+002, 1.117361e-001
6.286801e+002, 1.154477e-001
6.306086e+002, 1.176371e-001
6.325370e+002, 1.198203e-001
6.344655e+002, 1.196298e-001
6.363940e+002, 1.160184e-001
6.383224e+002, 1.112341e-001
6.402509e+002, 1.049657e-001
6.421794e+002, 9.775322e-002
6.441078e+002, 9.107195e-002
6.460363e+002, 8.611569e-002
6.479648e+002, 8.323833e-002
6.498932e+002, 8.167112e-002
6.518217e+002, 8.035963e-002
6.537502e+002, 7.862266e-002
6.556786e+002, 7.673705e-002
6.576071e+002, 7.395750e-002
6.595356e+002, 7.103178e-002
6.614641e+002, 6.820709e-002
6.633925e+002, 6.565578e-002
6.653210e+002, 6.457990e-002
6.672495e+002, 6.409165e-002
6.691779e+002, 6.372615e-002
6.711064e+002, 6.452778e-002
6.730349e+002, 6.676722e-002
6.749633e+002, 6.918269e-002
6.768918e+002, 7.191651e-002
6.788203e+002, 7.537422e-002
6.807487e+002, 7.975729e-002
6.826772e+002, 8.423493e-002
6.846057e+002, 8.837686e-002
6.865341e+002, 9.261093e-002
6.884626e+002, 9.648827e-002
6.903911e+002, 1.000576e-001
6.923195e+002, 1.033252e-001
6.942480e+002, 1.058805e-001
6.961765e+002, 1.076761e-001
6.981049e+002, 1.082317e-001
7.000334e+002, 1.071608e-001
7.019619e+002, 1.043460e-001
7.038903e+002, 1.003035e-001
7.058188e+002, 9.553960e-002
7.077473e+002, 8.982456e-002
7.096757e+002, 8.406486e-002
7.116042e+002, 7.899440e-002
7.135327e+002, 7.487676e-002
7.154611e+002, 7.228585e-002
7.173896e+002, 7.099561e-002
7.193181e+002, 7.056563e-002
7.212465e+002, 7.090731e-002
7.231750e+002, 7.186851e-002
7.251035e+002, 7.346508e-002
7.270319e+002, 7.574521e-002
7.289604e+002, 7.788558e-002
7.308889e+002, 7.900606e-002
7.328173e+002, 7.787341e-002
7.347458e+002, 7.512307e-002
7.366743e+002, 7.220977e-002
7.386027e+002, 6.986044e-002
7.405312e+002, 6.856624e-002
7.424597e+002, 6.828129e-002
7.443881e+002, 6.898443e-002
7.463166e+002, 7.050890e-002
7.482451e+002, 7.303334e-002
7.501735e+002, 7.639756e-002
7.521020e+002, 7.994349e-002
7.540305e+002, 8.353357e-002
7.559589e+002, 8.784500e-002
7.578874e+002, 9.306122e-002
7.598159e+002, 9.809534e-002
7.617443e+002, 1.031503e-001
7.636728e+002, 1.093868e-001
7.656013e+002, 1.160651e-001
7.675297e+002, 1.235367e-001
7.694582e+002, 1.304450e-001
7.713867e+002, 1.334492e-001
7.733151e+002, 1.324404e-001
7.752436e+002, 1.274185e-001
7.771721e+002, 1.196021e-001
7.791005e+002, 1.108668e-001
7.810290e+002, 1.030831e-001
7.829575e+002, 9.661929e-002
7.848859e+002, 9.158726e-002
7.868144e+002, 8.815789e-002
7.887429e+002, 8.599348e-002
7.906713e+002, 8.541585e-002
7.925998e+002, 8.555160e-002
7.945283e+002, 8.578239e-002
7.964567e+002, 8.673577e-002
7.983852e+002, 8.792687e-002
8.003137e+002, 8.933787e-002
8.022421e+002, 9.124330e-002
8.041706e+002, 9.324248e-002
8.060991e+002, 9.498369e-002
8.080275e+002, 9.728466e-002
8.099560e+002, 1.000774e-001
8.118845e+002, 1.026604e-001
8.138129e+002, 1.053697e-001
8.157414e+002, 1.083716e-001
8.176699e+002, 1.113789e-001
8.195983e+002, 1.142308e-001
8.215268e+002, 1.171533e-001
8.234553e+002, 1.211072e-001
8.253837e+002, 1.249272e-001
8.273122e+002, 1.285673e-001
8.292407e+002, 1.323250e-001
8.311691e+002, 1.364916e-001
8.330976e+002, 1.406574e-001
8.350261e+002, 1.449620e-001
8.369545e+002, 1.491909e-001
8.388830e+002, 1.537681e-001
8.408115e+002, 1.585359e-001
8.427399e+002, 1.640395e-001
8.446684e+002, 1.697927e-001
8.465969e+002, 1.753227e-001
8.485253e+002, 1.806769e-001
8.504538e+002, 1.865353e-001
8.523823e+002, 1.932020e-001
8.543107e+002, 2.002043e-001
8.562392e+002, 2.069692e-001
8.581677e+002, 2.141493e-001
8.600961e+002, 2.213389e-001
8.620246e+002, 2.288419e-001
8.639531e+002, 2.365583e-001
8.658815e+002, 2.444870e-001
8.678100e+002, 2.524335e-001
8.697385e+002, 2.610672e-001
8.716669e+002, 2.692478e-001
8.735954e+002, 2.761129e-001
8.755239e+002, 2.830053e-001
8.774523e+002, 2.904249e-001
8.793808e+002, 2.967717e-001
8.813093e+002, 3.014928e-001
8.832377e+002, 3.043351e-001
8.851662e+002, 3.057669e-001
8.870947e+002, 3.058523e-001
8.890231e+002, 3.049542e-001
8.909516e+002, 3.034008e-001
8.928801e+002, 3.008928e-001
8.948085e+002, 2.977334e-001
8.967370e+002, 2.952523e-001
8.986655e+002, 2.930625e-001
9.005939e+002, 2.907269e-001
9.025224e+002, 2.889116e-001
9.044509e+002, 2.883693e-001
9.063793e+002, 2.894006e-001
9.083078e+002, 2.923485e-001
9.102363e+002, 2.967481e-001
9.121647e+002, 3.019675e-001
9.140932e+002, 3.084857e-001
9.160217e+002, 3.162278e-001
9.179501e+002, 3.244528e-001
9.198786e+002, 3.328173e-001
9.218071e+002, 3.415445e-001
9.237355e+002, 3.513718e-001
9.256640e+002, 3.613304e-001
9.275925e+002, 3.712416e-001
9.295209e+002, 3.813471e-001
9.314494e+002, 3.915206e-001
9.333779e+002, 4.011275e-001
9.353063e+002, 4.102657e-001
9.372348e+002, 4.182180e-001
9.391633e+002, 4.257690e-001
9.410917e+002, 4.326468e-001
9.430202e+002, 4.379083e-001
9.449487e+002, 4.424182e-001
9.468771e+002, 4.459427e-001
9.488056e+002, 4.479461e-001
9.507341e+002, 4.492123e-001
9.526625e+002, 4.496646e-001
9.545910e+002, 4.488856e-001
9.565195e+002, 4.468784e-001
9.584479e+002, 4.442607e-001
9.603764e+002, 4.405780e-001
9.623049e+002, 4.347987e-001
9.642333e+002, 4.281825e-001
9.661618e+002, 4.214032e-001
9.680903e+002, 4.131576e-001
9.700187e+002, 4.051481e-001
9.719472e+002, 3.970567e-001
9.738757e+002, 3.892306e-001
9.758041e+002, 3.813606e-001
9.777326e+002, 3.742299e-001
9.796611e+002, 3.678683e-001
9.815895e+002, 3.620513e-001
9.835180e+002, 3.577684e-001
9.854465e+002, 3.549576e-001
9.873749e+002, 3.521928e-001
9.893034e+002, 3.490724e-001
9.912319e+002, 3.462398e-001
9.931603e+002, 3.426611e-001
9.950888e+002, 3.375446e-001
9.970173e+002, 3.310265e-001
9.989457e+002, 3.228591e-001
1.000874e+003, 3.144885e-001
1.002803e+003, 3.058006e-001
1.004731e+003, 2.975914e-001
1.006660e+003, 2.892151e-001
1.008588e+003, 2.808048e-001
1.010517e+003, 2.727664e-001
1.012445e+003, 2.646950e-001
1.014373e+003, 2.572597e-001
1.016302e+003, 2.507537e-001
1.018230e+003, 2.447816e-001
1.020159e+003, 2.392349e-001
1.022087e+003, 2.338042e-001
1.024016e+003, 2.284888e-001
1.025944e+003, 2.232391e-001
1.027873e+003, 2.190453e-001
1.029801e+003, 2.149689e-001
1.031730e+003, 2.106837e-001
1.033658e+003, 2.064662e-001
1.035587e+003, 2.020936e-001
1.037515e+003, 1.980186e-001
1.039443e+003, 1.939164e-001
1.041372e+003, 1.892731e-001
1.043300e+003, 1.846418e-001
1.045229e+003, 1.793198e-001
1.047157e+003, 1.739583e-001
1.049086e+003, 1.687665e-001
1.051014e+003, 1.644305e-001
1.052943e+003, 1.607342e-001
1.054871e+003, 1.582812e-001
1.056800e+003, 1.571264e-001
1.058728e+003, 1.570115e-001
1.060657e+003, 1.577511e-001
1.062585e+003, 1.598258e-001
1.064514e+003, 1.629000e-001
1.066442e+003, 1.668276e-001
1.068370e+003, 1.713365e-001
1.070299e+003, 1.756820e-001
1.072227e+003, 1.800182e-001
1.074156e+003, 1.837913e-001
1.076084e+003, 1.854156e-001
1.078013e+003, 1.843209e-001
1.079941e+003, 1.812848e-001
1.081870e+003, 1.764268e-001
1.083798e+003, 1.707103e-001
1.085727e+003, 1.647240e-001
1.087655e+003, 1.583751e-001
1.089584e+003, 1.516733e-001
1.091512e+003, 1.443112e-001
1.093441e+003, 1.370599e-001
1.095369e+003, 1.293598e-001
1.097297e+003, 1.214231e-001
1.099226e+003, 1.142110e-001
1.101154e+003, 1.076073e-001
1.103083e+003, 1.013271e-001
1.105011e+003, 9.597830e-002
1.106940e+003, 9.170782e-002
1.108868e+003, 8.857789e-002
1.110797e+003, 8.722329e-002
1.112725e+003, 8.797430e-002
1.114654e+003, 9.042048e-002
1.116582e+003, 9.471045e-002
1.118511e+003, 1.001411e-001
1.120439e+003, 1.066768e-001
1.122368e+003, 1.124589e-001
1.124296e+003, 1.160204e-001
1.126224e+003, 1.176330e-001
1.128153e+003, 1.174706e-001
1.130081e+003, 1.147919e-001
1.132010e+003, 1.105319e-001
1.133938e+003, 1.050764e-001
1.135867e+003, 9.847330e-002
1.137795e+003, 9.167641e-002
1.139724e+003, 8.503130e-002
1.141652e+003, 7.844528e-002
1.143581e+003, 7.219812e-002
1.145509e+003, 6.675396e-002
1.147438e+003, 6.180287e-002
1.149366e+003, 5.743943e-002
1.151295e+003, 5.400440e-002
1.153223e+003, 5.093359e-002
1.155151e+003, 4.802038e-002
1.157080e+003, 4.524424e-002
1.159008e+003, 4.293458e-002
1.160937e+003, 4.137786e-002
1.162865e+003, 4.080781e-002
1.164794e+003, 4.028970e-002
1.166722e+003, 3.953366e-002
1.168651e+003, 3.860198e-002
1.170579e+003, 3.794130e-002
1.172508e+003, 3.724089e-002
1.174436e+003, 3.683509e-002
1.176365e+003, 3.699106e-002
1.178293e+003, 3.688014e-002
1.180222e+003, 3.658523e-002
1.182150e+003, 3.629901e-002
1.184078e+003, 3.566644e-002
1.186007e+003, 3.539378e-002
1.187935e+003, 3.537915e-002
1.189864e+003, 3.544410e-002
1.191792e+003, 3.507145e-002
1.193721e+003, 3.494310e-002
1.195649e+003, 3.515243e-002
1.197578e+003, 3.526479e-002
1.199506e+003, 3.511793e-002
1.201435e+003, 3.487886e-002
1.203363e+003, 3.465353e-002
1.205292e+003, 3.464663e-002
1.207220e+003, 3.463143e-002
1.209149e+003, 3.450150e-002
1.211077e+003, 3.440537e-002
1.213005e+003, 3.435812e-002
1.214934e+003, 3.430469e-002
1.216862e+003, 3.442532e-002
1.218791e+003, 3.460519e-002
1.220719e+003, 3.464086e-002
1.222648e+003, 3.445990e-002
1.224576e+003, 3.441715e-002
1.226505e+003, 3.483124e-002
1.228433e+003, 3.506550e-002
1.230362e+003, 3.515685e-002
1.232290e+003, 3.502889e-002
1.234219e+003, 3.478947e-002
1.236147e+003, 3.481345e-002
1.238076e+003, 3.513246e-002
1.240004e+003, 3.563036e-002
1.241932e+003, 3.554753e-002
1.243861e+003, 3.542631e-002
1.245789e+003, 3.528222e-002
1.247718e+003, 3.512088e-002
1.249646e+003, 3.549917e-002
1.251575e+003, 3.583114e-002
1.253503e+003, 3.568648e-002
1.255432e+003, 3.583346e-002
1.257360e+003, 3.610478e-002
1.259289e+003, 3.634852e-002
1.261217e+003, 3.650557e-002
1.263146e+003, 3.662860e-002
1.265074e+003, 3.672045e-002
1.267003e+003, 3.651958e-002
1.268931e+003, 3.651151e-002
1.270859e+003, 3.668682e-002
1.272788e+003, 3.704988e-002
1.274716e+003, 3.769948e-002
1.276645e+003, 3.771834e-002
1.278573e+003, 3.756404e-002
1.280502e+003, 3.745997e-002
1.282430e+003, 3.768913e-002
1.284359e+003, 3.774603e-002
1.286287e+003, 3.764686e-002
1.288216e+003, 3.779974e-002
1.290144e+003, 3.790705e-002
1.292073e+003, 3.800559e-002
1.294001e+003, 3.837186e-002
1.295930e+003, 3.847736e-002
1.297858e+003, 3.827093e-002
1.299786e+003, 3.843275e-002
1.301715e+003, 3.851831e-002
1.303643e+003, 3.817886e-002
1.305572e+003, 3.793476e-002
1.307500e+003, 3.844802e-002
1.309429e+003, 3.907132e-002
1.311357e+003, 3.943229e-002
1.313286e+003, 3.956103e-002
1.315214e+003, 3.955163e-002
1.317143e+003, 3.940850e-002
1.319071e+003, 3.953752e-002
1.321000e+003, 3.967177e-002
1.322928e+003, 3.960316e-002
1.324857e+003, 3.975406e-002
1.326785e+003, 4.008606e-002
1.328714e+003, 4.041407e-002
1.330642e+003, 4.030724e-002
1.332570e+003, 4.042370e-002
1.334499e+003, 4.079633e-002
1.336427e+003, 4.105610e-002
1.338356e+003, 4.108793e-002
1.340284e+003, 4.130872e-002
1.342213e+003, 4.178908e-002
1.344141e+003, 4.186233e-002
1.346070e+003, 4.181147e-002
1.347998e+003, 4.183904e-002
1.349927e+003, 4.177246e-002
1.351855e+003, 4.179164e-002
1.353784e+003, 4.208409e-002
1.355712e+003, 4.238608e-002
1.357641e+003, 4.265476e-002
1.359569e+003, 4.251136e-002
1.361497e+003, 4.243627e-002
1.363426e+003, 4.269110e-002
1.365354e+003, 4.277472e-002
1.367283e+003, 4.317788e-002
1.369211e+003, 4.346247e-002
1.371140e+003, 4.355428e-002
1.373068e+003, 4.376974e-002
1.374997e+003, 4.385353e-002
1.376925e+003, 4.392167e-002
1.378854e+003, 4.421147e-002
1.380782e+003, 4.438310e-002
1.382711e+003, 4.444947e-002
1.384639e+003, 4.455244e-002
1.386568e+003, 4.471414e-002
1.388496e+003, 4.481250e-002
1.390424e+003, 4.491136e-002
1.392353e+003, 4.499035e-002
1.394281e+003, 4.494349e-002
1.396210e+003, 4.494412e-002
1.398138e+003, 4.498753e-002
1.400067e+003, 4.496976e-002
1.401995e+003, 4.512609e-002
1.403924e+003, 4.547003e-002
1.405852e+003, 4.534195e-002
1.407781e+003, 4.529759e-002
1.409709e+003, 4.594095e-002
1.411638e+003, 4.628368e-002
1.413566e+003, 4.627262e-002
1.415495e+003, 4.636255e-002
1.417423e+003, 4.625477e-002
1.419351e+003, 4.632606e-002
1.421280e+003, 4.658607e-002
1.423208e+003, 4.660005e-002
1.425137e+003, 4.644806e-002
1.427065e+003, 4.660169e-002
1.428994e+003, 4.715986e-002
1.430922e+003, 4.738445e-002
1.432851e+003, 4.756765e-002
1.434779e+003, 4.754896e-002
1.436708e+003, 4.769817e-002
1.438636e+003, 4.796145e-002
1.440565e+003, 4.790185e-002
1.442493e+003, 4.761546e-002
1.444422e+003, 4.760890e-002
1.446350e+003, 4.729965e-002
1.448278e+003, 4.752825e-002
1.450207e+003, 4.813300e-002
1.452135e+003, 4.838182e-002
1.454064e+003, 4.850309e-002
1.455992e+003, 4.894648e-002
1.457921e+003, 4.895353e-002
1.459849e+003, 4.859487e-002
1.461778e+003, 4.864698e-002
1.463706e+003, 4.899758e-002
1.465635e+003, 4.920242e-002
1.467563e+003, 4.937344e-002
1.469492e+003, 4.929050e-002
1.471420e+003, 4.908384e-002
1.473349e+003, 4.904454e-002
1.475277e+003, 4.891845e-002
1.477205e+003, 4.889180e-002
1.479134e+003, 4.908306e-002
1.481062e+003, 4.925295e-002
1.482991e+003, 4.934328e-002
1.484919e+003, 4.934084e-002
1.486848e+003, 4.988609e-002
1.488776e+003, 5.033508e-002
1.490705e+003, 5.014708e-002
1.492633e+003, 4.991687e-002
1.494562e+003, 5.025548e-002
1.496490e+003, 5.054957e-002
1.498419e+003, 5.045985e-002
1.500347e+003, 5.057965e-002
1.502276e+003, 5.103683e-002
1.504204e+003, 5.123774e-002
1.506132e+003, 5.134721e-002
1.508061e+003, 5.132400e-002
1.509989e+003, 5.125166e-002
1.511918e+003, 5.130162e-002
1.513846e+003, 5.158903e-002
1.515775e+003, 5.187252e-002
1.517703e+003, 5.214863e-002
1.519632e+003, 5.236341e-002
1.521560e+003, 5.240388e-002
1.523489e+003, 5.241489e-002
1.525417e+003, 5.260462e-002
1.527346e+003, 5.265908e-002
1.529274e+003, 5.277861e-002
1.531203e+003, 5.256639e-002
1.533131e+003, 5.272111e-002
1.535059e+003, 5.299903e-002
1.536988e+003, 5.334618e-002
1.538916e+003, 5.376946e-002
1.540845e+003, 5.399743e-002
1.542773e+003, 5.374906e-002
1.544702e+003, 5.361507e-002
1.546630e+003, 5.377861e-002
1.548559e+003, 5.404375e-002
1.550487e+003, 5.419295e-002
1.552416e+003, 5.421263e-002
1.554344e+003, 5.439519e-002
1.556273e+003, 5.459349e-002
1.558201e+003, 5.445328e-002
1.560130e+003, 5.443115e-002
1.562058e+003, 5.459491e-002
1.563986e+003, 5.482509e-002
1.565915e+003, 5.526864e-002
1.567843e+003, 5.540348e-002
1.569772e+003, 5.522945e-002
1.571700e+003, 5.551971e-002
1.573629e+003, 5.575737e-002
1.575557e+003, 5.565210e-002
1.577486e+003, 5.574858e-002
1.579414e+003, 5.595458e-002
1.581343e+003, 5.592007e-002
1.583271e+003, 5.568778e-002
1.585200e+003, 5.587705e-002
1.587128e+003, 5.625440e-002
1.589057e+003, 5.670939e-002
1.590985e+003, 5.697180e-002
1.592913e+003, 5.710012e-002
1.594842e+003, 5.725189e-002
1.596770e+003, 5.727119e-002
1.598699e+003, 5.749070e-002
1.600627e+003, 5.785549e-002
1.602556e+003, 5.816461e-002
1.604484e+003, 5.803650e-002
1.606413e+003, 5.825670e-002
1.608341e+003, 5.832680e-002
1.610270e+003, 5.820466e-002
1.612198e+003, 5.847829e-002
1.614127e+003, 5.879201e-002
1.616055e+003, 5.861283e-002
1.617984e+003, 5.872415e-002
1.619912e+003, 5.925184e-002
1.621840e+003, 5.964404e-002
1.623769e+003, 5.984678e-002
1.625697e+003, 6.019040e-002
1.627626e+003, 6.005311e-002
1.629554e+003, 6.006231e-002
1.631483e+003, 6.047666e-002
1.633411e+003, 6.032696e-002
1.635340e+003, 6.038816e-002
1.637268e+003, 6.085054e-002
1.639197e+003, 6.106577e-002
1.641125e+003, 6.094069e-002
1.643054e+003, 6.097648e-002
1.644982e+003, 6.072653e-002
1.646911e+003, 6.043316e-002
1.648839e+003, 6.089807e-002
1.650767e+003, 6.121308e-002
1.652696e+003, 6.110103e-002
1.654624e+003, 6.124976e-002
1.656553e+003, 6.157934e-002
1.658481e+003, 6.164439e-002
1.660410e+003, 6.139940e-002
1.662338e+003, 6.120195e-002
1.664267e+003, 6.121335e-002
1.666195e+003, 6.095430e-002
1.668124e+003, 6.104096e-002
1.670052e+003, 6.143735e-002
1.671981e+003, 6.155388e-002
1.673909e+003, 6.172546e-002
1.675838e+003, 6.149052e-002
1.677766e+003, 6.122207e-002
1.679694e+003, 6.144318e-002
1.681623e+003, 6.147966e-002
1.683551e+003, 6.173126e-002
1.685480e+003, 6.168876e-002
1.687408e+003, 6.161612e-002
1.689337e+003, 6.211237e-002
1.691265e+003, 6.234412e-002
1.693194e+003, 6.241606e-002
1.695122e+003, 6.235851e-002
1.697051e+003, 6.214664e-002
1.698979e+003, 6.242713e-002
1.700908e+003, 6.282448e-002
1.702836e+003, 6.257781e-002
1.704765e+003, 6.219520e-002
1.706693e+003, 6.266053e-002
1.708621e+003, 6.305559e-002
1.710550e+003, 6.315569e-002
1.712478e+003, 6.299712e-002
1.714407e+003, 6.322568e-002
1.716335e+003, 6.326777e-002
1.718264e+003, 6.326988e-002
1.720192e+003, 6.356439e-002
1.722121e+003, 6.419215e-002
1.724049e+003, 6.386559e-002
1.725978e+003, 6.385183e-002
1.727906e+003, 6.446993e-002
1.729835e+003, 6.466319e-002
1.731763e+003, 6.455595e-002
1.733692e+003, 6.490248e-002
1.735620e+003, 6.498557e-002
1.737548e+003, 6.473416e-002
1.739477e+003, 6.469657e-002
1.741405e+003, 6.546974e-002
1.743334e+003, 6.565500e-002
1.745262e+003, 6.542950e-002
1.747191e+003, 6.542455e-002
1.749119e+003, 6.534871e-002
1.751048e+003, 6.559372e-002
1.752976e+003, 6.560182e-002
1.754905e+003, 6.526352e-002
1.756833e+003, 6.519802e-002
1.758762e+003, 6.521672e-002
1.760690e+003, 6.483476e-002
1.762619e+003, 6.481964e-002
1.764547e+003, 6.540228e-002
1.766475e+003, 6.612556e-002
1.768404e+003, 6.609576e-002
1.770332e+003, 6.596687e-002
1.772261e+003, 6.605192e-002
1.774189e+003, 6.606243e-002
1.776118e+003, 6.574263e-002
1.778046e+003, 6.566647e-002
1.779975e+003, 6.607283e-002
1.781903e+003, 6.589840e-002
1.783832e+003, 6.586045e-002
1.785760e+003, 6.644801e-002
1.787689e+003, 6.683268e-002
1.789617e+003, 6.692515e-002
1.791546e+003, 6.683592e-002
1.793474e+003, 6.655535e-002
1.795402e+003, 6.679553e-002
1.797331e+003, 6.664729e-002
1.799259e+003, 6.624795e-002
1.801188e+003, 6.607942e-002
1.803116e+003, 6.675961e-002
1.805045e+003, 6.686351e-002
1.806973e+003, 6.705929e-002
1.808902e+003, 6.731257e-002
1.810830e+003, 6.721225e-002
1.812759e+003, 6.682350e-002
1.814687e+003, 6.682868e-002
1.816616e+003, 6.702892e-002
1.818544e+003, 6.742708e-002
1.820473e+003, 6.749189e-002
1.822401e+003, 6.743976e-002
1.824329e+003, 6.666652e-002
1.826258e+003, 6.667440e-002
1.828186e+003, 6.737369e-002
1.830115e+003, 6.821520e-002
1.832043e+003, 6.821836e-002
1.833972e+003, 6.766436e-002
1.835900e+003, 6.831910e-002
1.837829e+003, 6.878807e-002
1.839757e+003, 6.838220e-002
1.841686e+003, 6.800982e-002
1.843614e+003, 6.768434e-002
1.845543e+003, 6.810604e-002
1.847471e+003, 6.819166e-002
1.849400e+003, 6.821688e-002
1.851328e+003, 6.842607e-002
1.853256e+003, 6.873714e-002
1.855185e+003, 6.845204e-002
1.857113e+003, 6.794915e-002
1.859042e+003, 6.828003e-002
1.860970e+003, 6.906630e-002
1.862899e+003, 6.849007e-002
1.864827e+003, 6.825136e-002
1.866756e+003, 6.941132e-002
1.868684e+003, 7.040405e-002
1.870613e+003, 7.095992e-002
1.872541e+003, 7.038935e-002
1.874470e+003, 6.995834e-002
1.876398e+003, 7.023264e-002
1.878327e+003, 7.001181e-002
1.880255e+003, 7.050537e-002
1.882183e+003, 7.145595e-002
1.884112e+003, 7.084718e-002
1.886040e+003, 6.993302e-002
1.887969e+003, 6.980322e-002
1.889897e+003, 6.966487e-002
1.891826e+003, 6.964154e-002
1.893754e+003, 6.900116e-002
1.895683e+003, 6.804000e-002
1.897611e+003, 6.752571e-002
1.899540e+003, 6.794295e-002
1.901468e+003, 6.801098e-002
1.903397e+003, 6.804037e-002
1.905325e+003, 6.862234e-002
1.907254e+003, 6.855688e-002
1.909182e+003, 6.761015e-002
1.911110e+003, 6.686685e-002
1.913039e+003, 6.760900e-002
1.914967e+003, 6.915949e-002
1.916896e+003, 6.950776e-002
1.918824e+003, 7.027762e-002
1.920753e+003, 7.051507e-002
1.922681e+003, 6.934179e-002
1.924610e+003, 6.787309e-002
1.926538e+003, 6.718498e-002
1.928467e+003, 6.754123e-002
1.930395e+003, 6.948920e-002
1.932324e+003, 6.915430e-002
1.934252e+003, 6.655201e-002
1.936181e+003, 6.634458e-002
1.938109e+003, 6.750890e-002
1.940037e+003, 6.753379e-002
1.941966e+003, 6.811746e-002
1.943894e+003, 6.944685e-002
1.945823e+003, 6.799236e-002
1.947751e+003, 6.546579e-002
1.949680e+003, 6.524790e-002
1.951608e+003, 6.584252e-002
1.953537e+003, 6.641646e-002
1.955465e+003, 6.672955e-002
1.957394e+003, 6.686053e-002
1.959322e+003, 6.738669e-002
1.961251e+003, 6.636964e-002
1.963179e+003, 6.382744e-002
1.965108e+003, 6.202696e-002
1.967036e+003, 6.237440e-002
1.968964e+003, 6.352343e-002
1.970893e+003, 6.265569e-002
1.972821e+003, 6.397560e-002
1.974750e+003, 6.757727e-002
1.976678e+003, 6.692365e-002
1.978607e+003, 6.576050e-002
1.980535e+003, 6.728292e-002
1.982464e+003, 6.899203e-002
1.984392e+003, 7.151632e-002
1.986321e+003, 6.865769e-002
1.988249e+003, 6.656215e-002
1.990178e+003, 7.063051e-002
1.992106e+003, 7.283112e-002
1.994035e+003, 7.149685e-002
1.995963e+003, 6.918121e-002
1.997891e+003, 6.633919e-002
1.999820e+003, 6.658127e-002
2.001748e+003, 7.043399e-002
2.003677e+003, 6.972919e-002
2.005605e+003, 6.840024e-002
2.007534e+003, 6.853227e-002
2.009462e+003, 6.752658e-002
2.011391e+003, 6.795149e-002
2.013319e+003, 7.083880e-002
2.015248e+003, 7.105727e-002
2.017176e+003, 6.982207e-002
2.019105e+003, 7.089307e-002
2.021033e+003, 7.250511e-002
2.022962e+003, 7.175705e-002
2.024890e+003, 7.125866e-002
2.026818e+003, 7.053199e-002
2.028747e+003, 6.962875e-002
2.030675e+003, 7.193970e-002
2.032604e+003, 7.577731e-002
2.034532e+003, 7.655908e-002
2.036461e+003, 7.487576e-002
2.038389e+003, 7.207259e-002
2.040318e+003, 7.009436e-002
2.042246e+003, 6.884345e-002
2.044175e+003, 7.085709e-002
2.046103e+003, 7.144779e-002
2.048031e+003, 6.989853e-002
2.049960e+003, 7.165799e-002
2.051888e+003, 7.317657e-002
2.053817e+003, 7.507770e-002
2.055745e+003, 7.620678e-002
2.057674e+003, 7.625429e-002
2.059602e+003, 7.727766e-002
2.061531e+003, 7.724606e-002
2.063459e+003, 7.668249e-002
2.065388e+003, 7.639296e-002
2.067316e+003, 7.658118e-002
2.069245e+003, 7.706743e-002
2.071173e+003, 7.663520e-002
2.073102e+003, 7.811686e-002
2.075030e+003, 7.662033e-002
2.076958e+003, 7.537912e-002
2.078887e+003, 7.697193e-002
2.080815e+003, 8.055089e-002
2.082744e+003, 8.256296e-002
2.084672e+003, 8.021537e-002
2.086601e+003, 7.626041e-002
2.088529e+003, 7.569336e-002
2.090458e+003, 7.640914e-002
2.092386e+003, 7.618848e-002
2.094315e+003, 7.541988e-002
2.096243e+003, 7.665845e-002
2.098172e+003, 7.717544e-002
2.100100e+003, 7.831093e-002
2.102029e+003, 7.983939e-002
2.103957e+003, 7.967415e-002
2.105885e+003, 7.805044e-002
2.107814e+003, 7.816755e-002
2.109742e+003, 7.949831e-002
2.111671e+003, 8.006659e-002
2.113599e+003, 7.900266e-002
2.115528e+003, 7.845163e-002
2.117456e+003, 7.787493e-002
2.119385e+003, 7.838490e-002
2.121313e+003, 7.923906e-002
2.123242e+003, 7.833122e-002
2.125170e+003, 7.612872e-002
2.127099e+003, 7.675693e-002
2.129027e+003, 7.944047e-002
2.130956e+003, 8.100393e-002
2.132884e+003, 8.016100e-002
2.134813e+003, 7.779595e-002
2.136741e+003, 7.651653e-002
2.138669e+003, 7.534824e-002
2.140598e+003, 7.601074e-002
2.142526e+003, 7.706352e-002
2.144455e+003, 7.825667e-002
2.146383e+003, 7.586855e-002
2.148312e+003, 7.225342e-002
2.150240e+003, 7.046193e-002
2.152169e+003, 6.911916e-002
2.154097e+003, 6.758371e-002
2.156026e+003, 6.637067e-002
2.157954e+003, 6.823157e-002
2.159883e+003, 7.456609e-002
2.161811e+003, 7.607266e-002
2.163740e+003, 7.846951e-002
2.165668e+003, 7.977550e-002
2.167596e+003, 7.829159e-002
2.169525e+003, 7.766398e-002
2.171453e+003, 7.705634e-002
2.173382e+003, 7.756099e-002
2.175310e+003, 7.800753e-002
2.177239e+003, 8.039272e-002
2.179167e+003, 7.978756e-002
2.181096e+003, 7.914830e-002
2.183024e+003, 8.470546e-002
2.184953e+003, 8.793261e-002
2.186881e+003, 8.525754e-002
2.188810e+003, 8.365110e-002
2.190738e+003, 8.383776e-002
2.192667e+003, 8.667063e-002
2.194595e+003, 8.657707e-002
2.196523e+003, 8.615723e-002
2.198452e+003, 8.556966e-002
2.200380e+003, 8.310676e-002
2.202309e+003, 8.391699e-002
2.204237e+003, 8.531488e-002
2.206166e+003, 8.529762e-002
2.208094e+003, 8.591714e-002
2.210023e+003, 8.618905e-002
2.211951e+003, 8.620453e-002
2.213880e+003, 8.559042e-002
2.215808e+003, 8.529707e-002
2.217737e+003, 8.691498e-002
2.219665e+003, 8.718280e-002
2.221594e+003, 8.687418e-002
2.223522e+003, 8.733114e-002
2.225450e+003, 8.766554e-002
2.227379e+003, 8.781479e-002
2.229307e+003, 8.802114e-002
2.231236e+003, 8.818708e-002
2.233164e+003, 8.674849e-002
2.235093e+003, 8.603288e-002
2.237021e+003, 8.681896e-002
2.238950e+003, 8.721461e-002
2.240878e+003, 8.657511e-002
2.242807e+003, 8.649442e-002
2.244735e+003, 8.707654e-002
2.246664e+003, 8.789322e-002
2.248592e+003, 8.851792e-002
2.250521e+003, 8.729378e-002
2.252449e+003, 8.698871e-002
2.254377e+003, 8.970849e-002
2.256306e+003, 8.967962e-002
2.258234e+003, 9.067290e-002
2.260163e+003, 9.168918e-002
2.262091e+003, 9.044909e-002
2.264020e+003, 8.929906e-002
2.265948e+003, 8.942634e-002
2.267877e+003, 9.060404e-002
2.269805e+003, 9.044959e-002
2.271734e+003, 9.051885e-002
2.273662e+003, 9.180300e-002
2.275591e+003, 9.244718e-002
2.277519e+003, 9.248334e-002
2.279448e+003, 9.243727e-002
2.281376e+003, 9.218241e-002
2.283304e+003, 9.250912e-002
2.285233e+003, 9.299939e-002
2.287161e+003, 9.226065e-002
2.289090e+003, 9.170744e-002
2.291018e+003, 9.294449e-002
2.292947e+003, 9.453408e-002
2.294875e+003, 9.375353e-002
2.296804e+003, 9.216412e-002
2.298732e+003, 9.267501e-002
2.300661e+003, 9.355757e-002
2.302589e+003, 9.331784e-002
2.304518e+003, 9.306553e-002
2.306446e+003, 9.283540e-002
2.308375e+003, 9.235825e-002
2.310303e+003, 9.184282e-002
2.312231e+003, 9.296463e-002
2.314160e+003, 9.345736e-002
2.316088e+003, 9.401178e-002
2.318017e+003, 9.506268e-002
2.319945e+003, 9.469369e-002
2.321874e+003, 9.456402e-002
2.323802e+003, 9.504027e-002
2.325731e+003, 9.418685e-002
2.327659e+003, 9.398178e-002
2.329588e+003, 9.461693e-002
2.331516e+003, 9.406444e-002
2.333445e+003, 9.322694e-002
2.335373e+003, 9.383317e-002
2.337302e+003, 9.416146e-002
2.339230e+003, 9.446344e-002
2.341158e+003, 9.472248e-002
2.343087e+003, 9.385318e-002
2.345015e+003, 9.313712e-002
2.346944e+003, 9.405738e-002
2.348872e+003, 9.491303e-002
2.350801e+003, 9.458847e-002
2.352729e+003, 9.473526e-002
2.354658e+003, 9.477610e-002
2.356586e+003, 9.442746e-002
2.358515e+003, 9.461168e-002
2.360443e+003, 9.471487e-002
2.362372e+003, 9.429041e-002
2.364300e+003, 9.389205e-002
2.366229e+003, 9.373138e-002
2.368157e+003, 9.284237e-002
2.370085e+003, 9.283531e-002
2.372014e+003, 9.391854e-002
2.373942e+003, 9.493333e-002
2.375871e+003, 9.468146e-002
2.377799e+003, 9.441450e-002
2.379728e+003, 9.448563e-002
2.381656e+003, 9.429444e-002
2.383585e+003, 9.435210e-002
2.385513e+003, 9.436343e-002
2.387442e+003, 9.468226e-002
2.389370e+003, 9.504460e-002
2.391299e+003, 9.449525e-002
2.393227e+003, 9.480189e-002
2.395156e+003, 9.484455e-002
2.397084e+003, 9.508955e-002
2.399012e+003, 9.515464e-002
2.400941e+003, 9.505177e-002
2.402869e+003, 9.609728e-002
2.404798e+003, 9.559916e-002
2.406726e+003, 9.475680e-002
2.408655e+003, 9.529999e-002
2.410583e+003, 9.649414e-002
2.412512e+003, 9.667837e-002
2.414440e+003, 9.489314e-002
2.416369e+003, 9.539630e-002
2.418297e+003, 9.750449e-002
2.420226e+003, 9.814696e-002
2.422154e+003, 9.799346e-002
2.424083e+003, 9.731215e-002
2.426011e+003, 9.734760e-002
2.427939e+003, 9.816394e-002
2.429868e+003, 9.852349e-002
2.431796e+003, 9.901629e-002
2.433725e+003, 9.870006e-002
2.435653e+003, 9.818834e-002
2.437582e+003, 9.684747e-002
2.439510e+003, 9.661227e-002
2.441439e+003, 9.709726e-002
2.443367e+003, 9.641670e-002
2.445296e+003, 9.594752e-002
2.447224e+003, 9.783468e-002
2.449153e+003, 9.891073e-002
2.451081e+003, 9.854413e-002
2.453010e+003, 9.741305e-002
2.454938e+003, 9.724936e-002
2.456866e+003, 9.811628e-002
2.458795e+003, 9.873987e-002
2.460723e+003, 9.773331e-002
2.462652e+003, 9.735857e-002
2.464580e+003, 9.796865e-002
2.466509e+003, 9.883470e-002
2.468437e+003, 9.944803e-002
2.470366e+003, 9.855577e-002
2.472294e+003, 9.815581e-002
2.474223e+003, 9.851932e-002
2.476151e+003, 9.957420e-002
2.478080e+003, 9.984110e-002
2.480008e+003, 9.952721e-002
2.481937e+003, 9.992991e-002
2.483865e+003, 9.919204e-002
2.485793e+003, 9.935221e-002
2.487722e+003, 1.009777e-001
2.489650e+003, 1.011152e-001
2.491579e+003, 1.003503e-001
2.493507e+003, 9.888450e-002
2.495436e+003, 9.832150e-002
2.497364e+003, 9.865431e-002
2.499293e+003, 9.781718e-002
2.501221e+003, 9.801228e-002
2.503150e+003, 9.836284e-002
2.505078e+003, 9.791563e-002
2.507007e+003, 9.844565e-002
2.508935e+003, 1.006736e-001
2.510864e+003, 1.013588e-001
2.512792e+003, 1.006199e-001
2.514720e+003, 9.954501e-002
2.516649e+003, 9.945219e-002
2.518577e+003, 1.002245e-001
2.520506e+003, 1.015504e-001
2.522434e+003, 1.000500e-001
2.524363e+003, 9.922041e-002
2.526291e+003, 1.013572e-001
2.528220e+003, 1.027909e-001
2.530148e+003, 1.016443e-001
2.532077e+003, 1.011017e-001
2.534005e+003, 1.015074e-001
2.535934e+003, 1.005061e-001
2.537862e+003, 1.004858e-001
2.539791e+003, 1.015555e-001
2.541719e+003, 9.991033e-002
2.543647e+003, 1.002739e-001
2.545576e+003, 1.018184e-001
2.547504e+003, 1.019170e-001
2.549433e+003, 1.018328e-001
2.551361e+003, 1.029830e-001
2.553290e+003, 1.029530e-001
2.555218e+003, 1.015917e-001
2.557147e+003, 1.021322e-001
2.559075e+003, 1.038329e-001
2.561004e+003, 1.046456e-001
2.562932e+003, 1.040770e-001
2.564861e+003, 1.026250e-001
2.566789e+003, 1.022859e-001
2.568718e+003, 1.021335e-001
2.570646e+003, 1.020989e-001
2.572574e+003, 1.029963e-001
2.574503e+003, 1.039958e-001
2.576431e+003, 1.036595e-001
2.578360e+003, 1.020605e-001
2.580288e+003, 1.017454e-001
2.582217e+003, 1.032477e-001
2.584145e+003, 1.044987e-001
2.586074e+003, 1.039091e-001
2.588002e+003, 1.035816e-001
2.589931e+003, 1.039629e-001
2.591859e+003, 1.038462e-001
2.593788e+003, 1.041141e-001
2.595716e+003, 1.031870e-001
2.597645e+003, 1.031727e-001
2.599573e+003, 1.042688e-001
2.601501e+003, 1.048495e-001
2.603430e+003, 1.050974e-001
2.605358e+003, 1.050514e-001
2.607287e+003, 1.034507e-001
2.609215e+003, 1.031249e-001
2.611144e+003, 1.043176e-001
2.613072e+003, 1.053791e-001
2.615001e+003, 1.064799e-001
2.616929e+003, 1.056200e-001
2.618858e+003, 1.051434e-001
2.620786e+003, 1.058157e-001
2.622715e+003, 1.058427e-001
2.624643e+003, 1.055392e-001
2.626572e+003, 1.058080e-001
2.628500e+003, 1.064572e-001
2.630428e+003, 1.073355e-001
2.632357e+003, 1.071391e-001
2.634285e+003, 1.069200e-001
2.636214e+003, 1.075772e-001
2.638142e+003, 1.068467e-001
2.640071e+003, 1.062197e-001
2.641999e+003, 1.058403e-001
2.643928e+003, 1.058607e-001
2.645856e+003, 1.058767e-001
2.647785e+003, 1.064253e-001
2.649713e+003, 1.072231e-001
2.651642e+003, 1.073553e-001
2.653570e+003, 1.061215e-001
2.655499e+003, 1.056444e-001
2.657427e+003, 1.064858e-001
2.659355e+003, 1.069212e-001
2.661284e+003, 1.060555e-001
2.663212e+003, 1.061014e-001
2.665141e+003, 1.069061e-001
2.667069e+003, 1.071551e-001
2.668998e+003, 1.068862e-001
2.670926e+003, 1.061032e-001
2.672855e+003, 1.055323e-001
2.674783e+003, 1.055909e-001
2.676712e+003, 1.056068e-001
2.678640e+003, 1.058836e-001
2.680569e+003, 1.069299e-001
2.682497e+003, 1.073928e-001
2.684426e+003, 1.067680e-001
2.686354e+003, 1.071338e-001
2.688282e+003, 1.069680e-001
2.690211e+003, 1.071103e-001
2.692139e+003, 1.069623e-001
2.694068e+003, 1.073427e-001
2.695996e+003, 1.075588e-001
2.697925e+003, 1.065651e-001
2.699853e+003, 1.072234e-001
2.701782e+003, 1.085077e-001
2.703710e+003, 1.078369e-001
2.705639e+003, 1.077050e-001
2.707567e+003, 1.081119e-001
2.709496e+003, 1.081908e-001
2.711424e+003, 1.082663e-001
2.713353e+003, 1.083486e-001
2.715281e+003, 1.084544e-001
2.717209e+003, 1.080015e-001
2.719138e+003, 1.076479e-001
2.721066e+003, 1.089694e-001
2.722995e+003, 1.103865e-001
2.724923e+003, 1.104789e-001
2.726852e+003, 1.087377e-001
2.728780e+003, 1.076392e-001
2.730709e+003, 1.080973e-001
2.732637e+003, 1.104448e-001
2.734566e+003, 1.110516e-001
2.736494e+003, 1.098802e-001
2.738423e+003, 1.089000e-001
2.740351e+003, 1.087107e-001
2.742280e+003, 1.088303e-001
2.744208e+003, 1.089357e-001
2.746136e+003, 1.091102e-001
2.748065e+003, 1.094830e-001
2.749993e+003, 1.102438e-001
2.751922e+003, 1.107869e-001
2.753850e+003, 1.104240e-001
2.755779e+003, 1.105713e-001
2.757707e+003, 1.104000e-001
2.759636e+003, 1.107736e-001
2.761564e+003, 1.109768e-001
2.763493e+003, 1.107665e-001
2.765421e+003, 1.107086e-001
2.767350e+003, 1.107664e-001
2.769278e+003, 1.112321e-001
2.771207e+003, 1.118774e-001
2.773135e+003, 1.121623e-001
2.775063e+003, 1.121815e-001
2.776992e+003, 1.110327e-001
2.778920e+003, 1.102392e-001
2.780849e+003, 1.109688e-001
2.782777e+003, 1.116840e-001
2.784706e+003, 1.122854e-001
2.786634e+003, 1.128322e-001
2.788563e+003, 1.117596e-001
2.790491e+003, 1.116074e-001
2.792420e+003, 1.120723e-001
2.794348e+003, 1.107236e-001
2.796277e+003, 1.102151e-001
2.798205e+003, 1.122428e-001
2.800134e+003, 1.136278e-001
2.802062e+003, 1.124198e-001
2.803990e+003, 1.113976e-001
2.805919e+003, 1.110992e-001
2.807847e+003, 1.111802e-001
2.809776e+003, 1.117900e-001
2.811704e+003, 1.125119e-001
2.813633e+003, 1.130309e-001
2.815561e+003, 1.129381e-001
2.817490e+003, 1.128984e-001
2.819418e+003, 1.126910e-001
2.821347e+003, 1.120455e-001
2.823275e+003, 1.113141e-001
2.825204e+003, 1.112480e-001
2.827132e+003, 1.124747e-001
2.829061e+003, 1.137085e-001
2.830989e+003, 1.142453e-001
2.832917e+003, 1.143889e-001
2.834846e+003, 1.149462e-001
2.836774e+003, 1.161511e-001
2.838703e+003, 1.163385e-001
2.840631e+003, 1.156920e-001
2.842560e+003, 1.153418e-001
2.844488e+003, 1.159796e-001
2.846417e+003, 1.163501e-001
2.848345e+003, 1.162580e-001
2.850274e+003, 1.158392e-001
2.852202e+003, 1.146943e-001
2.854131e+003, 1.144353e-001
2.856059e+003, 1.154626e-001
2.857988e+003, 1.159874e-001
2.859916e+003, 1.159651e-001
2.861844e+003, 1.162273e-001
2.863773e+003, 1.158950e-001
2.865701e+003, 1.152696e-001
2.867630e+003, 1.152235e-001
2.869558e+003, 1.152024e-001
2.871487e+003, 1.165818e-001
2.873415e+003, 1.168630e-001
2.875344e+003, 1.166309e-001
2.877272e+003, 1.177220e-001
2.879201e+003, 1.172888e-001
2.881129e+003, 1.165733e-001
2.883058e+003, 1.165703e-001
2.884986e+003, 1.165867e-001
2.886915e+003, 1.173946e-001
2.888843e+003, 1.181456e-001
2.890771e+003, 1.176690e-001
2.892700e+003, 1.172547e-001
2.894628e+003, 1.182207e-001
2.896557e+003, 1.177382e-001
2.898485e+003, 1.170207e-001
2.900414e+003, 1.177497e-001
2.902342e+003, 1.184107e-001
2.904271e+003, 1.190347e-001
2.906199e+003, 1.187374e-001
2.908128e+003, 1.192768e-001
2.910056e+003, 1.207307e-001
2.911985e+003, 1.198498e-001
2.913913e+003, 1.196429e-001
2.915842e+003, 1.216721e-001
2.917770e+003, 1.236732e-001
2.919698e+003, 1.236828e-001
2.921627e+003, 1.221221e-001
2.923555e+003, 1.227152e-001
2.925484e+003, 1.233405e-001
2.927412e+003, 1.226053e-001
2.929341e+003, 1.225471e-001
2.931269e+003, 1.232717e-001
2.933198e+003, 1.230055e-001
2.935126e+003, 1.221672e-001
2.937055e+003, 1.219651e-001
2.938983e+003, 1.214323e-001
2.940912e+003, 1.212112e-001
2.942840e+003, 1.204264e-001
2.944769e+003, 1.203495e-001
2.946697e+003, 1.197737e-001
2.948625e+003, 1.183077e-001
2.950554e+003, 1.202762e-001
2.952482e+003, 1.210060e-001
2.954411e+003, 1.199114e-001
2.956339e+003, 1.205414e-001
2.958268e+003, 1.208048e-001
2.960196e+003, 1.213717e-001
2.962125e+003, 1.217493e-001
2.964053e+003, 1.208018e-001
2.965982e+003, 1.204716e-001
2.967910e+003, 1.208328e-001
2.969839e+003, 1.205912e-001
2.971767e+003, 1.200602e-001
2.973696e+003, 1.197517e-001
2.975624e+003, 1.198056e-001
2.977552e+003, 1.194259e-001
2.979481e+003, 1.190126e-001
2.981409e+003, 1.194939e-001
2.983338e+003, 1.190114e-001
2.985266e+003, 1.187062e-001
2.987195e+003, 1.186734e-001
2.989123e+003, 1.186601e-001
2.991052e+003, 1.199701e-001
2.992980e+003, 1.194851e-001
2.994909e+003, 1.190242e-001
2.996837e+003, 1.188752e-001
2.998766e+003, 1.184161e-001
3.000694e+003, 1.193316e-001
3.002623e+003, 1.203961e-001
3.004551e+003, 1.211299e-001
3.006479e+003, 1.203188e-001
3.008408e+003, 1.194225e-001
3.010336e+003, 1.181883e-001
3.012265e+003, 1.181380e-001
3.014193e+003, 1.185118e-001
3.016122e+003, 1.189535e-001
3.018050e+003, 1.186140e-001
3.019979e+003, 1.198015e-001
3.021907e+003, 1.198298e-001
3.023836e+003, 1.189368e-001
3.025764e+003, 1.197186e-001
3.027693e+003, 1.196317e-001
3.029621e+003, 1.200055e-001
3.031550e+003, 1.209266e-001
3.033478e+003, 1.212740e-001
3.035406e+003, 1.211598e-001
3.037335e+003, 1.207252e-001
3.039263e+003, 1.219265e-001
3.041192e+003, 1.221954e-001
3.043120e+003, 1.218264e-001
3.045049e+003, 1.217433e-001
3.046977e+003, 1.209034e-001
3.048906e+003, 1.202210e-001
3.050834e+003, 1.209984e-001
3.052763e+003, 1.211760e-001
3.054691e+003, 1.204759e-001
3.056620e+003, 1.205392e-001
3.058548e+003, 1.221729e-001
3.060477e+003, 1.227383e-001
3.062405e+003, 1.214227e-001
3.064333e+003, 1.213798e-001
3.066262e+003, 1.210154e-001
3.068190e+003, 1.208262e-001
3.070119e+003, 1.219641e-001
3.072047e+003, 1.232337e-001
3.073976e+003, 1.225379e-001
3.075904e+003, 1.219760e-001
3.077833e+003, 1.230373e-001
3.079761e+003, 1.233997e-001
3.081690e+003, 1.238363e-001
3.083618e+003, 1.230820e-001
3.085547e+003, 1.220245e-001
3.087475e+003, 1.219996e-001
3.089404e+003, 1.213613e-001
3.091332e+003, 1.215377e-001
3.093260e+003, 1.224323e-001
3.095189e+003, 1.231424e-001
3.097117e+003, 1.239178e-001
3.099046e+003, 1.250448e-001
3.100974e+003, 1.244139e-001
3.102903e+003, 1.225722e-001
3.104831e+003, 1.227818e-001
3.106760e+003, 1.232418e-001
3.108688e+003, 1.232251e-001
3.110617e+003, 1.237449e-001
3.112545e+003, 1.241569e-001
3.114474e+003, 1.242753e-001
3.116402e+003, 1.235760e-001
3.118331e+003, 1.237367e-001
3.120259e+003, 1.254838e-001
3.122188e+003, 1.256874e-001
3.124116e+003, 1.241934e-001
3.126044e+003, 1.242203e-001
3.127973e+003, 1.253335e-001
3.129901e+003, 1.248637e-001
3.131830e+003, 1.244614e-001
3.133758e+003, 1.252017e-001
3.135687e+003, 1.253390e-001
3.137615e+003, 1.243005e-001
3.139544e+003, 1.242950e-001
3.141472e+003, 1.257899e-001
3.143401e+003, 1.260802e-001
3.145329e+003, 1.246677e-001
3.147258e+003, 1.260095e-001
3.149186e+003, 1.285176e-001
3.151115e+003, 1.284169e-001
3.153043e+003, 1.264774e-001
3.154971e+003, 1.253812e-001
3.156900e+003, 1.260027e-001
3.158828e+003, 1.251728e-001
3.160757e+003, 1.242601e-001
3.162685e+003, 1.245782e-001
3.164614e+003, 1.247794e-001
3.166542e+003, 1.249336e-001
3.168471e+003, 1.272849e-001
3.170399e+003, 1.281554e-001
3.172328e+003, 1.254473e-001
3.174256e+003, 1.251299e-001
3.176185e+003, 1.259422e-001
3.178113e+003, 1.256592e-001
3.180042e+003, 1.258997e-001
3.181970e+003, 1.268819e-001
3.183898e+003, 1.280241e-001
3.185827e+003, 1.272636e-001
3.187755e+003, 1.271673e-001
3.189684e+003, 1.272067e-001
3.191612e+003, 1.276464e-001
3.193541e+003, 1.287754e-001
3.195469e+003, 1.295015e-001
3.197398e+003, 1.291253e-001
3.199326e+003, 1.278798e-001
3.201255e+003, 1.261524e-001
3.203183e+003, 1.262823e-001
3.205112e+003, 1.270477e-001
3.207040e+003, 1.278089e-001
3.208969e+003, 1.286173e-001
3.210897e+003, 1.290140e-001
3.212825e+003, 1.273754e-001
3.214754e+003, 1.267498e-001
3.216682e+003, 1.272196e-001
3.218611e+003, 1.275260e-001
3.220539e+003, 1.276905e-001
3.222468e+003, 1.282558e-001
3.224396e+003, 1.278369e-001
3.226325e+003, 1.277276e-001
3.228253e+003, 1.274145e-001
3.230182e+003, 1.288494e-001
3.232110e+003, 1.281482e-001
3.234039e+003, 1.279336e-001
3.235967e+003, 1.287757e-001
3.237896e+003, 1.286366e-001
3.239824e+003, 1.277748e-001
3.241752e+003, 1.272846e-001
3.243681e+003, 1.284206e-001
3.245609e+003, 1.291885e-001
3.247538e+003, 1.288552e-001
3.249466e+003, 1.286348e-001
3.251395e+003, 1.273023e-001
3.253323e+003, 1.276415e-001
3.255252e+003, 1.288758e-001
3.257180e+003, 1.283391e-001
3.259109e+003, 1.271503e-001
3.261037e+003, 1.280942e-001
3.262966e+003, 1.278062e-001
3.264894e+003, 1.280173e-001
3.266823e+003, 1.283329e-001
3.268751e+003, 1.286622e-001
3.270679e+003, 1.303204e-001
3.272608e+003, 1.311715e-001
3.274536e+003, 1.319530e-001
3.276465e+003, 1.313613e-001
3.278393e+003, 1.295533e-001
3.280322e+003, 1.295152e-001
3.282250e+003, 1.294228e-001
3.284179e+003, 1.312133e-001
3.286107e+003, 1.318731e-001
3.288036e+003, 1.298977e-001
3.289964e+003, 1.293199e-001
3.291893e+003, 1.297728e-001
3.293821e+003, 1.299504e-001
3.295750e+003, 1.305494e-001
3.297678e+003, 1.325790e-001
3.299606e+003, 1.325986e-001
3.301535e+003, 1.311589e-001
3.303463e+003, 1.314434e-001
3.305392e+003, 1.335850e-001
3.307320e+003, 1.332767e-001
3.309249e+003, 1.326754e-001
3.311177e+003, 1.337017e-001
3.313106e+003, 1.326603e-001
3.315034e+003, 1.307658e-001
3.316963e+003, 1.306959e-001
3.318891e+003, 1.326863e-001
3.320820e+003, 1.327297e-001
3.322748e+003, 1.317816e-001
3.324677e+003, 1.325683e-001
3.326605e+003, 1.319107e-001
3.328533e+003, 1.305774e-001
3.330462e+003, 1.317608e-001
3.332390e+003, 1.309144e-001
3.334319e+003, 1.304340e-001
3.336247e+003, 1.319978e-001
3.338176e+003, 1.317172e-001
3.340104e+003, 1.329171e-001
3.342033e+003, 1.354956e-001
3.343961e+003, 1.353980e-001
3.345890e+003, 1.342372e-001
3.347818e+003, 1.330117e-001
3.349747e+003, 1.337238e-001
3.351675e+003, 1.337808e-001
3.353604e+003, 1.319629e-001
3.355532e+003, 1.315660e-001
3.357460e+003, 1.302377e-001
3.359389e+003, 1.314510e-001
3.361317e+003, 1.331604e-001
3.363246e+003, 1.331010e-001
3.365174e+003, 1.332903e-001
3.367103e+003, 1.345975e-001
3.369031e+003, 1.349973e-001
3.370960e+003, 1.337999e-001
3.372888e+003, 1.306850e-001
3.374817e+003, 1.282654e-001
3.376745e+003, 1.296617e-001
3.378674e+003, 1.316756e-001
3.380602e+003, 1.334205e-001
3.382531e+003, 1.353082e-001
3.384459e+003, 1.340691e-001
3.386387e+003, 1.335926e-001
3.388316e+003, 1.334694e-001
3.390244e+003, 1.341495e-001
3.392173e+003, 1.350084e-001
3.394101e+003, 1.335959e-001
3.396030e+003, 1.337728e-001
3.397958e+003, 1.348887e-001
3.399887e+003, 1.345492e-001
3.401815e+003, 1.356970e-001
3.403744e+003, 1.369043e-001
3.405672e+003, 1.352536e-001
3.407601e+003, 1.339912e-001
3.409529e+003, 1.324023e-001
3.411458e+003, 1.314559e-001
3.413386e+003, 1.341526e-001
3.415314e+003, 1.356632e-001
3.417243e+003, 1.352959e-001
3.419171e+003, 1.346400e-001
3.421100e+003, 1.351611e-001
3.423028e+003, 1.354646e-001
3.424957e+003, 1.350231e-001
3.426885e+003, 1.332741e-001
3.428814e+003, 1.326095e-001
3.430742e+003, 1.338108e-001
3.432671e+003, 1.341167e-001
3.434599e+003, 1.333176e-001
3.436528e+003, 1.329838e-001
3.438456e+003, 1.340889e-001
3.440385e+003, 1.343410e-001
3.442313e+003, 1.347633e-001
3.444241e+003, 1.349562e-001
3.446170e+003, 1.342801e-001
3.448098e+003, 1.349267e-001
3.450027e+003, 1.340497e-001
3.451955e+003, 1.350117e-001
3.453884e+003, 1.373386e-001
3.455812e+003, 1.383235e-001
3.457741e+003, 1.376710e-001
3.459669e+003, 1.356706e-001
3.461598e+003, 1.367376e-001
3.463526e+003, 1.378136e-001
3.465455e+003, 1.370411e-001
3.467383e+003, 1.378206e-001
3.469312e+003, 1.379619e-001
3.471240e+003, 1.372937e-001
3.473168e+003, 1.349746e-001
3.475097e+003, 1.365740e-001
3.477025e+003, 1.392192e-001
3.478954e+003, 1.374678e-001
3.480882e+003, 1.340248e-001
3.482811e+003, 1.327729e-001
3.484739e+003, 1.336083e-001
3.486668e+003, 1.346688e-001
3.488596e+003, 1.367119e-001
3.490525e+003, 1.392106e-001
3.492453e+003, 1.382551e-001
3.494382e+003, 1.373333e-001
3.496310e+003, 1.359679e-001
3.498239e+003, 1.352975e-001
3.500167e+003, 1.352338e-001
3.502095e+003, 1.355135e-001
3.504024e+003, 1.362427e-001
3.505952e+003, 1.359620e-001
3.507881e+003, 1.365127e-001
3.509809e+003, 1.386055e-001
3.511738e+003, 1.396511e-001
3.513666e+003, 1.374448e-001
3.515595e+003, 1.392942e-001
3.517523e+003, 1.403805e-001
3.519452e+003, 1.379618e-001
3.521380e+003, 1.361703e-001
3.523309e+003, 1.354544e-001
3.525237e+003, 1.377150e-001
3.527166e+003, 1.402496e-001
3.529094e+003, 1.385809e-001
3.531022e+003, 1.350436e-001
3.532951e+003, 1.352920e-001
3.534879e+003, 1.363161e-001
3.536808e+003, 1.365420e-001
3.538736e+003, 1.362464e-001
3.540665e+003, 1.362022e-001
3.542593e+003, 1.371419e-001
3.544522e+003, 1.378776e-001
3.546450e+003, 1.367599e-001
3.548379e+003, 1.330119e-001
3.550307e+003, 1.343080e-001
3.552236e+003, 1.368855e-001
3.554164e+003, 1.383303e-001
3.556093e+003, 1.372034e-001
3.558021e+003, 1.364004e-001
3.559949e+003, 1.357214e-001
3.561878e+003, 1.346233e-001
3.563806e+003, 1.360268e-001
3.565735e+003, 1.361577e-001
3.567663e+003, 1.361403e-001
3.569592e+003, 1.373734e-001
3.571520e+003, 1.379239e-001
3.573449e+003, 1.379490e-001
3.575377e+003, 1.367824e-001
3.577306e+003, 1.372948e-001
3.579234e+003, 1.369112e-001
3.581163e+003, 1.343786e-001
3.583091e+003, 1.368821e-001
3.585020e+003, 1.398957e-001
3.586948e+003, 1.376660e-001
3.588876e+003, 1.367126e-001
3.590805e+003, 1.346821e-001
3.592733e+003, 1.374619e-001
3.594662e+003, 1.410592e-001
3.596590e+003, 1.391829e-001
3.598519e+003, 1.391067e-001
3.600447e+003, 1.399422e-001
3.602376e+003, 1.384245e-001
3.604304e+003, 1.359382e-001
3.606233e+003, 1.367385e-001
3.608161e+003, 1.370812e-001
3.610090e+003, 1.380111e-001
3.612018e+003, 1.381793e-001
3.613947e+003, 1.413066e-001
3.615875e+003, 1.497465e-001
3.617803e+003, 1.539571e-001
3.619732e+003, 1.501686e-001
3.621660e+003, 1.415974e-001
3.623589e+003, 1.366518e-001
3.625517e+003, 1.397068e-001
3.627446e+003, 1.404136e-001
3.629374e+003, 1.359418e-001
3.631303e+003, 1.366374e-001
3.633231e+003, 1.442143e-001
3.635160e+003, 1.509191e-001
3.637088e+003, 1.532365e-001
3.639017e+003, 1.498220e-001
3.640945e+003, 1.437326e-001
3.642874e+003, 1.371246e-001
3.644802e+003, 1.313179e-001
3.646730e+003, 1.297421e-001
3.648659e+003, 1.304996e-001
3.650587e+003, 1.361398e-001
3.652516e+003, 1.407818e-001
3.654444e+003, 1.397319e-001
3.656373e+003, 1.359177e-001
3.658301e+003, 1.331992e-001
3.660230e+003, 1.343490e-001
3.662158e+003, 1.380133e-001
3.664087e+003, 1.384454e-001
3.666015e+003, 1.345161e-001
3.667944e+003, 1.334939e-001
3.669872e+003, 1.347140e-001
3.671801e+003, 1.363849e-001
3.673729e+003, 1.368219e-001
3.675657e+003, 1.347158e-001
3.677586e+003, 1.328822e-001
3.679514e+003, 1.353631e-001
3.681443e+003, 1.368915e-001
3.683371e+003, 1.360450e-001
3.685300e+003, 1.346215e-001
3.687228e+003, 1.343715e-001
3.689157e+003, 1.356836e-001
3.691085e+003, 1.341256e-001
3.693014e+003, 1.333974e-001
3.694942e+003, 1.348224e-001
3.696871e+003, 1.373612e-001
3.698799e+003, 1.380189e-001
3.700728e+003, 1.395547e-001
3.702656e+003, 1.392996e-001
3.704584e+003, 1.359585e-001
3.706513e+003, 1.358395e-001
3.708441e+003, 1.373031e-001
3.710370e+003, 1.361633e-001
3.712298e+003, 1.335369e-001
3.714227e+003, 1.328411e-001
3.716155e+003, 1.336176e-001
3.718084e+003, 1.350302e-001
3.720012e+003, 1.358778e-001
3.721941e+003, 1.355446e-001
3.723869e+003, 1.351439e-001
3.725798e+003, 1.356189e-001
3.727726e+003, 1.365730e-001
3.729655e+003, 1.364527e-001
3.731583e+003, 1.359033e-001
3.733511e+003, 1.382865e-001
3.735440e+003, 1.384953e-001
3.737368e+003, 1.389164e-001
3.739297e+003, 1.385722e-001
3.741225e+003, 1.361911e-001
3.743154e+003, 1.339351e-001
3.745082e+003, 1.356463e-001
3.747011e+003, 1.393397e-001
3.748939e+003, 1.390721e-001
3.750868e+003, 1.372576e-001
3.752796e+003, 1.345087e-001
3.754725e+003, 1.344786e-001
3.756653e+003, 1.333623e-001
3.758582e+003, 1.357477e-001
3.760510e+003, 1.395847e-001
3.762438e+003, 1.395196e-001
3.764367e+003, 1.389456e-001
3.766295e+003, 1.387472e-001
3.768224e+003, 1.372228e-001
3.770152e+003, 1.387690e-001
3.772081e+003, 1.388004e-001
3.774009e+003, 1.370627e-001
3.775938e+003, 1.376613e-001
3.777866e+003, 1.388772e-001
3.779795e+003, 1.400063e-001
3.781723e+003, 1.397014e-001
3.783652e+003, 1.398439e-001
3.785580e+003, 1.397171e-001
3.787509e+003, 1.418985e-001
3.789437e+003, 1.438272e-001
3.791365e+003, 1.431683e-001
3.793294e+003, 1.408245e-001
3.795222e+003, 1.421229e-001
3.797151e+003, 1.413393e-001
3.799079e+003, 1.422595e-001
3.801008e+003, 1.432338e-001
3.802936e+003, 1.403591e-001
3.804865e+003, 1.397633e-001
3.806793e+003, 1.412199e-001
3.808722e+003, 1.406743e-001
3.810650e+003, 1.388414e-001
3.812579e+003, 1.391537e-001
3.814507e+003, 1.407420e-001
3.816436e+003, 1.427722e-001
3.818364e+003, 1.398465e-001
3.820292e+003, 1.362801e-001
3.822221e+003, 1.361725e-001
3.824149e+003, 1.400042e-001
3.826078e+003, 1.414636e-001
3.828006e+003, 1.416929e-001
3.829935e+003, 1.421288e-001
3.831863e+003, 1.401773e-001
3.833792e+003, 1.377770e-001
3.835720e+003, 1.387388e-001
3.837649e+003, 1.399088e-001
3.839577e+003, 1.400269e-001
3.841506e+003, 1.406532e-001
3.843434e+003, 1.399835e-001
3.845363e+003, 1.381529e-001
3.847291e+003, 1.419054e-001
3.849219e+003, 1.451105e-001
3.851148e+003, 1.415875e-001
3.853076e+003, 1.416779e-001
3.855005e+003, 1.436429e-001
3.856933e+003, 1.422867e-001
3.858862e+003, 1.415942e-001
3.860790e+003, 1.384695e-001
3.862719e+003, 1.376178e-001
3.864647e+003, 1.422874e-001
3.866576e+003, 1.420941e-001
3.868504e+003, 1.394906e-001
3.870433e+003, 1.410069e-001
3.872361e+003, 1.409355e-001
3.874290e+003, 1.412137e-001
3.876218e+003, 1.423964e-001
3.878146e+003, 1.434406e-001
3.880075e+003, 1.438300e-001
3.882003e+003, 1.421161e-001
3.883932e+003, 1.400750e-001
3.885860e+003, 1.409169e-001
3.887789e+003, 1.405274e-001
3.889717e+003, 1.418133e-001
3.891646e+003, 1.425157e-001
3.893574e+003, 1.421037e-001
3.895503e+003, 1.414226e-001
3.897431e+003, 1.379382e-001
3.899360e+003, 1.354242e-001
3.901288e+003, 1.380307e-001
3.903217e+003, 1.406206e-001
3.905145e+003, 1.427360e-001
3.907073e+003, 1.427266e-001
3.909002e+003, 1.419797e-001
3.910930e+003, 1.416847e-001
3.912859e+003, 1.413385e-001
3.914787e+003, 1.393308e-001
3.916716e+003, 1.414380e-001
3.918644e+003, 1.427210e-001
3.920573e+003, 1.410673e-001
3.922501e+003, 1.398299e-001
3.924430e+003, 1.413609e-001
3.926358e+003, 1.438966e-001
3.928287e+003, 1.404998e-001
3.930215e+003, 1.408325e-001
3.932144e+003, 1.433757e-001
3.934072e+003, 1.395373e-001
3.936000e+003, 1.359697e-001
3.937929e+003, 1.400663e-001
3.939857e+003, 1.433764e-001
3.941786e+003, 1.424028e-001
3.943714e+003, 1.415643e-001
3.945643e+003, 1.447901e-001
3.947571e+003, 1.434069e-001
3.949500e+003, 1.381181e-001
3.951428e+003, 1.390755e-001
3.953357e+003, 1.434974e-001
3.955285e+003, 1.425995e-001
3.957214e+003, 1.404682e-001
3.959142e+003, 1.406354e-001
3.961071e+003, 1.397980e-001
3.962999e+003, 1.414967e-001
3.964927e+003, 1.441242e-001
3.966856e+003, 1.410104e-001
3.968784e+003, 1.394967e-001
3.970713e+003, 1.410045e-001
3.972641e+003, 1.395966e-001
3.974570e+003, 1.416169e-001
3.976498e+003, 1.450189e-001
3.978427e+003, 1.461957e-001
3.980355e+003, 1.462664e-001
3.982284e+003, 1.426627e-001
3.984212e+003, 1.393948e-001
3.986141e+003, 1.427804e-001
3.988069e+003, 1.449059e-001
3.989998e+003, 1.387693e-001
3.991926e+003, 1.395251e-001
3.993854e+003, 1.457354e-001
3.995783e+003, 1.439795e-001
3.997711e+003, 1.374662e-001
3.999640e+003, 1.374449e-001
4.001568e+003, 0.000000e+000
##END=



