##NAMES=Gypsum
##RRUFFID=R040029
##IDEAL CHEMISTRY=CaS^6+^O_4_&#183;2H_2_O
##LOCALITY=Twin Buttes, Pima County, Arizona, USA
##OWNER=RRUFF
##SOURCE=University of Arizona Mineral Museum
##DESCRIPTION=Colorless prismatic crystal
##STATUS=The identification of this mineral has been confirmed by X-ray diffraction.
##URL=rruff.info/R040029
3.991926e+002, 0.000000e+000
4.011211e+002, 1.016257e-001
4.030496e+002, 1.021527e-001
4.049780e+002, 1.011500e-001
4.069065e+002, 1.053844e-001
4.088350e+002, 1.052042e-001
4.107634e+002, 1.058838e-001
4.126919e+002, 1.095115e-001
4.146204e+002, 1.129209e-001
4.165488e+002, 1.114670e-001
4.184773e+002, 1.136021e-001
4.204058e+002, 1.144179e-001
4.223342e+002, 1.120380e-001
4.242627e+002, 1.089902e-001
4.261912e+002, 1.082827e-001
4.281196e+002, 1.089521e-001
4.300481e+002, 1.080759e-001
4.319766e+002, 1.054266e-001
4.339050e+002, 1.058438e-001
4.358335e+002, 1.070992e-001
4.377620e+002, 1.092142e-001
4.396904e+002, 1.118014e-001
4.416189e+002, 1.127539e-001
4.435474e+002, 1.127585e-001
4.454758e+002, 1.138512e-001
4.474043e+002, 1.156378e-001
4.493328e+002, 1.183688e-001
4.512612e+002, 1.172801e-001
4.531897e+002, 1.175781e-001
4.551182e+002, 1.193177e-001
4.570466e+002, 1.208897e-001
4.589751e+002, 1.206632e-001
4.609036e+002, 1.190979e-001
4.628320e+002, 1.187409e-001
4.647605e+002, 1.191768e-001
4.666890e+002, 1.171721e-001
4.686174e+002, 1.166830e-001
4.705459e+002, 1.159494e-001
4.724744e+002, 1.149930e-001
4.744028e+002, 1.134577e-001
4.763313e+002, 1.123611e-001
4.782598e+002, 1.105015e-001
4.801882e+002, 1.091813e-001
4.821167e+002, 1.065379e-001
4.840452e+002, 1.041750e-001
4.859736e+002, 1.028850e-001
4.879021e+002, 1.014389e-001
4.898306e+002, 9.944340e-002
4.917590e+002, 9.833957e-002
4.936875e+002, 9.660081e-002
4.956160e+002, 9.455080e-002
4.975444e+002, 9.276421e-002
4.994729e+002, 9.100661e-002
5.014014e+002, 8.985130e-002
5.033298e+002, 8.863936e-002
5.052583e+002, 8.764312e-002
5.071868e+002, 8.674109e-002
5.091152e+002, 8.481207e-002
5.110437e+002, 8.283157e-002
5.129722e+002, 8.186793e-002
5.149006e+002, 8.135296e-002
5.168291e+002, 8.049118e-002
5.187576e+002, 7.954512e-002
5.206860e+002, 7.914980e-002
5.226145e+002, 7.852995e-002
5.245430e+002, 7.823689e-002
5.264714e+002, 7.827302e-002
5.283999e+002, 7.868639e-002
5.303284e+002, 7.953662e-002
5.322568e+002, 8.036081e-002
5.341853e+002, 8.100003e-002
5.361138e+002, 8.186858e-002
5.380422e+002, 8.345803e-002
5.399707e+002, 8.461726e-002
5.418992e+002, 8.603143e-002
5.438276e+002, 8.856144e-002
5.457561e+002, 9.141967e-002
5.476846e+002, 9.397729e-002
5.496130e+002, 9.687307e-002
5.515415e+002, 9.976628e-002
5.534700e+002, 1.031916e-001
5.553984e+002, 1.069037e-001
5.573269e+002, 1.103662e-001
5.592554e+002, 1.141771e-001
5.611838e+002, 1.191880e-001
5.631123e+002, 1.239899e-001
5.650408e+002, 1.294507e-001
5.669692e+002, 1.348806e-001
5.688977e+002, 1.396958e-001
5.708262e+002, 1.442505e-001
5.727546e+002, 1.491428e-001
5.746831e+002, 1.546331e-001
5.766116e+002, 1.594858e-001
5.785400e+002, 1.637576e-001
5.804685e+002, 1.687202e-001
5.823970e+002, 1.738647e-001
5.843254e+002, 1.793264e-001
5.862539e+002, 1.862114e-001
5.881824e+002, 1.953579e-001
5.901108e+002, 2.062557e-001
5.920393e+002, 2.205626e-001
5.939678e+002, 2.366517e-001
5.958962e+002, 2.500339e-001
5.978247e+002, 2.535558e-001
5.997532e+002, 2.432381e-001
6.016816e+002, 2.230558e-001
6.036101e+002, 1.987254e-001
6.055386e+002, 1.737981e-001
6.074670e+002, 1.511913e-001
6.093955e+002, 1.320856e-001
6.113240e+002, 1.172507e-001
6.132524e+002, 1.057405e-001
6.151809e+002, 9.696982e-002
6.171094e+002, 9.078283e-002
6.190378e+002, 8.613221e-002
6.209663e+002, 8.258250e-002
6.228948e+002, 7.950742e-002
6.248232e+002, 7.692295e-002
6.267517e+002, 7.441082e-002
6.286802e+002, 7.259811e-002
6.306086e+002, 7.056053e-002
6.325371e+002, 6.831411e-002
6.344656e+002, 6.653884e-002
6.363940e+002, 6.459233e-002
6.383225e+002, 6.246659e-002
6.402510e+002, 6.108798e-002
6.421794e+002, 5.992873e-002
6.441079e+002, 5.861877e-002
6.460364e+002, 5.747670e-002
6.479648e+002, 5.712270e-002
6.498933e+002, 5.765085e-002
6.518218e+002, 5.910501e-002
6.537502e+002, 6.241466e-002
6.556787e+002, 6.797209e-002
6.576072e+002, 7.679156e-002
6.595356e+002, 9.092997e-002
6.614641e+002, 1.128852e-001
6.633926e+002, 1.440946e-001
6.653210e+002, 1.802009e-001
6.672495e+002, 2.062694e-001
6.691780e+002, 2.083174e-001
6.711064e+002, 1.887319e-001
6.730349e+002, 1.599502e-001
6.749634e+002, 1.312539e-001
6.768918e+002, 1.068620e-001
6.788203e+002, 8.721387e-002
6.807488e+002, 7.137167e-002
6.826772e+002, 5.930707e-002
6.846057e+002, 5.046573e-002
6.865342e+002, 4.419291e-002
6.884626e+002, 3.946017e-002
6.903911e+002, 3.617233e-002
6.923196e+002, 3.376434e-002
6.942480e+002, 3.214628e-002
6.961765e+002, 3.101252e-002
6.981050e+002, 2.986234e-002
7.000334e+002, 2.895097e-002
7.019619e+002, 2.835340e-002
7.038904e+002, 2.774698e-002
7.058188e+002, 2.725197e-002
7.077473e+002, 2.671947e-002
7.096758e+002, 2.641818e-002
7.116042e+002, 2.618678e-002
7.135327e+002, 2.610930e-002
7.154612e+002, 2.580947e-002
7.173896e+002, 2.567533e-002
7.193181e+002, 2.529625e-002
7.212466e+002, 2.487934e-002
7.231750e+002, 2.478720e-002
7.251035e+002, 2.486802e-002
7.270320e+002, 2.479377e-002
7.289604e+002, 2.500947e-002
7.308889e+002, 2.503146e-002
7.328174e+002, 2.469755e-002
7.347458e+002, 2.459609e-002
7.366743e+002, 2.484531e-002
7.386028e+002, 2.496269e-002
7.405313e+002, 2.499160e-002
7.424597e+002, 2.482615e-002
7.443882e+002, 2.479433e-002
7.463167e+002, 2.490926e-002
7.482451e+002, 2.494036e-002
7.501736e+002, 2.495080e-002
7.521021e+002, 2.505991e-002
7.540305e+002, 2.510624e-002
7.559590e+002, 2.506736e-002
7.578875e+002, 2.494839e-002
7.598159e+002, 2.534368e-002
7.617444e+002, 2.567352e-002
7.636729e+002, 2.571067e-002
7.656013e+002, 2.593016e-002
7.675298e+002, 2.616313e-002
7.694583e+002, 2.607576e-002
7.713867e+002, 2.601371e-002
7.733152e+002, 2.608280e-002
7.752437e+002, 2.655347e-002
7.771721e+002, 2.687943e-002
7.791006e+002, 2.699632e-002
7.810291e+002, 2.698759e-002
7.829575e+002, 2.720146e-002
7.848860e+002, 2.746255e-002
7.868145e+002, 2.777969e-002
7.887429e+002, 2.805615e-002
7.906714e+002, 2.816142e-002
7.925999e+002, 2.806831e-002
7.945283e+002, 2.824116e-002
7.964568e+002, 2.861450e-002
7.983853e+002, 2.903733e-002
8.003137e+002, 2.906895e-002
8.022422e+002, 2.913551e-002
8.041707e+002, 2.935240e-002
8.060991e+002, 2.938229e-002
8.080276e+002, 2.949904e-002
8.099561e+002, 2.996939e-002
8.118845e+002, 3.021131e-002
8.138130e+002, 3.031723e-002
8.157415e+002, 3.034009e-002
8.176699e+002, 3.067064e-002
8.195984e+002, 3.107542e-002
8.215269e+002, 3.137774e-002
8.234553e+002, 3.142913e-002
8.253838e+002, 3.156408e-002
8.273123e+002, 3.182439e-002
8.292407e+002, 3.212627e-002
8.311692e+002, 3.218677e-002
8.330977e+002, 3.226490e-002
8.350261e+002, 3.248111e-002
8.369546e+002, 3.297857e-002
8.388831e+002, 3.311599e-002
8.408115e+002, 3.342120e-002
8.427400e+002, 3.361147e-002
8.446685e+002, 3.385447e-002
8.465969e+002, 3.428197e-002
8.485254e+002, 3.467163e-002
8.504539e+002, 3.488608e-002
8.523823e+002, 3.509060e-002
8.543108e+002, 3.528168e-002
8.562393e+002, 3.593488e-002
8.581677e+002, 3.659252e-002
8.600962e+002, 3.698508e-002
8.620247e+002, 3.713891e-002
8.639531e+002, 3.721413e-002
8.658816e+002, 3.754759e-002
8.678101e+002, 3.805538e-002
8.697385e+002, 3.848487e-002
8.716670e+002, 3.888062e-002
8.735955e+002, 3.919115e-002
8.755239e+002, 3.951421e-002
8.774524e+002, 3.973474e-002
8.793809e+002, 3.997359e-002
8.813093e+002, 4.040522e-002
8.832378e+002, 4.084350e-002
8.851663e+002, 4.134139e-002
8.870947e+002, 4.187038e-002
8.890232e+002, 4.206790e-002
8.909517e+002, 4.227188e-002
8.928801e+002, 4.261063e-002
8.948085e+002, 4.314118e-002
8.967370e+002, 4.334680e-002
8.986655e+002, 4.369895e-002
9.005939e+002, 4.410667e-002
9.025224e+002, 4.464045e-002
9.044509e+002, 4.499612e-002
9.063793e+002, 4.542107e-002
9.083078e+002, 4.597973e-002
9.102363e+002, 4.650254e-002
9.121647e+002, 4.714258e-002
9.140932e+002, 4.783577e-002
9.160217e+002, 4.817446e-002
9.179501e+002, 4.853425e-002
9.198786e+002, 4.911302e-002
9.218071e+002, 4.966757e-002
9.237355e+002, 5.002799e-002
9.256640e+002, 5.084050e-002
9.275925e+002, 5.162735e-002
9.295209e+002, 5.232806e-002
9.314494e+002, 5.294545e-002
9.333779e+002, 5.354160e-002
9.353063e+002, 5.404801e-002
9.372348e+002, 5.479125e-002
9.391633e+002, 5.544209e-002
9.410917e+002, 5.605376e-002
9.430202e+002, 5.695121e-002
9.449487e+002, 5.785371e-002
9.468771e+002, 5.848716e-002
9.488056e+002, 5.931646e-002
9.507341e+002, 6.002691e-002
9.526625e+002, 6.084242e-002
9.545910e+002, 6.162484e-002
9.565195e+002, 6.255288e-002
9.584479e+002, 6.343770e-002
9.603764e+002, 6.424699e-002
9.623049e+002, 6.506830e-002
9.642333e+002, 6.613667e-002
9.661618e+002, 6.728294e-002
9.680903e+002, 6.847566e-002
9.700187e+002, 6.961545e-002
9.719472e+002, 7.079017e-002
9.738757e+002, 7.196403e-002
9.758041e+002, 7.324681e-002
9.777326e+002, 7.466449e-002
9.796611e+002, 7.636400e-002
9.815895e+002, 7.790782e-002
9.835180e+002, 7.947809e-002
9.854465e+002, 8.139690e-002
9.873749e+002, 8.328472e-002
9.893034e+002, 8.491138e-002
9.912319e+002, 8.674505e-002
9.931603e+002, 8.865685e-002
9.950888e+002, 9.086950e-002
9.970173e+002, 9.375674e-002
9.989457e+002, 9.790750e-002
1.000874e+003, 1.046831e-001
1.002803e+003, 1.148934e-001
1.004731e+003, 1.190669e-001
1.006660e+003, 1.125000e-001
1.008588e+003, 1.059903e-001
1.010517e+003, 1.042004e-001
1.012445e+003, 1.050699e-001
1.014373e+003, 1.069652e-001
1.016302e+003, 1.095624e-001
1.018230e+003, 1.126165e-001
1.020159e+003, 1.155625e-001
1.022087e+003, 1.187965e-001
1.024016e+003, 1.222951e-001
1.025944e+003, 1.262838e-001
1.027873e+003, 1.301349e-001
1.029801e+003, 1.341082e-001
1.031730e+003, 1.384785e-001
1.033658e+003, 1.433148e-001
1.035587e+003, 1.486601e-001
1.037515e+003, 1.544346e-001
1.039444e+003, 1.604705e-001
1.041372e+003, 1.669551e-001
1.043301e+003, 1.737100e-001
1.045229e+003, 1.809755e-001
1.047157e+003, 1.890163e-001
1.049086e+003, 1.978723e-001
1.051014e+003, 2.076340e-001
1.052943e+003, 2.181080e-001
1.054871e+003, 2.290847e-001
1.056800e+003, 2.408011e-001
1.058728e+003, 2.535692e-001
1.060657e+003, 2.676002e-001
1.062585e+003, 2.828715e-001
1.064514e+003, 2.991889e-001
1.066442e+003, 3.168864e-001
1.068371e+003, 3.362073e-001
1.070299e+003, 3.566266e-001
1.072228e+003, 3.778911e-001
1.074156e+003, 4.005474e-001
1.076084e+003, 4.248633e-001
1.078013e+003, 4.506634e-001
1.079941e+003, 4.776179e-001
1.081870e+003, 5.055481e-001
1.083798e+003, 5.341257e-001
1.085727e+003, 5.632145e-001
1.087655e+003, 5.928127e-001
1.089584e+003, 6.216310e-001
1.091512e+003, 6.492100e-001
1.093441e+003, 6.746682e-001
1.095369e+003, 6.970099e-001
1.097298e+003, 7.164603e-001
1.099226e+003, 7.328818e-001
1.101155e+003, 7.457286e-001
1.103083e+003, 7.538652e-001
1.105011e+003, 7.558236e-001
1.106940e+003, 7.514974e-001
1.108868e+003, 7.391887e-001
1.110797e+003, 7.184111e-001
1.112725e+003, 6.928256e-001
1.114654e+003, 6.645351e-001
1.116582e+003, 6.347375e-001
1.118511e+003, 6.057687e-001
1.120439e+003, 5.786222e-001
1.122368e+003, 5.534580e-001
1.124296e+003, 5.301219e-001
1.126225e+003, 5.086948e-001
1.128153e+003, 4.891838e-001
1.130082e+003, 4.715213e-001
1.132010e+003, 4.541317e-001
1.133938e+003, 4.368748e-001
1.135867e+003, 4.190788e-001
1.137795e+003, 3.995775e-001
1.139724e+003, 3.791906e-001
1.141652e+003, 3.586034e-001
1.143581e+003, 3.369751e-001
1.145509e+003, 3.153292e-001
1.147438e+003, 2.946046e-001
1.149366e+003, 2.743533e-001
1.151295e+003, 2.545122e-001
1.153223e+003, 2.359786e-001
1.155152e+003, 2.186149e-001
1.157080e+003, 2.022355e-001
1.159009e+003, 1.869201e-001
1.160937e+003, 1.728393e-001
1.162865e+003, 1.598512e-001
1.164794e+003, 1.480260e-001
1.166722e+003, 1.371658e-001
1.168651e+003, 1.272217e-001
1.170579e+003, 1.179168e-001
1.172508e+003, 1.093693e-001
1.174436e+003, 1.014121e-001
1.176365e+003, 9.382528e-002
1.178293e+003, 8.664248e-002
1.180222e+003, 8.001837e-002
1.182150e+003, 7.362762e-002
1.184079e+003, 6.762858e-002
1.186007e+003, 6.203250e-002
1.187936e+003, 5.683772e-002
1.189864e+003, 5.206152e-002
1.191792e+003, 4.761000e-002
1.193721e+003, 4.335842e-002
1.195649e+003, 3.954744e-002
1.197578e+003, 3.592362e-002
1.199506e+003, 3.282828e-002
1.201435e+003, 3.005015e-002
1.203363e+003, 2.778377e-002
1.205292e+003, 2.593262e-002
1.207220e+003, 2.425956e-002
1.209149e+003, 2.291956e-002
1.211077e+003, 2.182245e-002
1.213006e+003, 2.102072e-002
1.214934e+003, 2.030167e-002
1.216863e+003, 1.957934e-002
1.218791e+003, 1.896215e-002
1.220719e+003, 1.824047e-002
1.222648e+003, 1.764298e-002
1.224576e+003, 1.693307e-002
1.226505e+003, 1.637757e-002
1.228433e+003, 1.580053e-002
1.230362e+003, 1.517733e-002
1.232290e+003, 1.444619e-002
1.234219e+003, 1.383691e-002
1.236147e+003, 1.323823e-002
1.238076e+003, 1.282131e-002
1.240004e+003, 1.234789e-002
1.241933e+003, 1.195311e-002
1.243861e+003, 1.153904e-002
1.245790e+003, 1.118837e-002
1.247718e+003, 1.081083e-002
1.249646e+003, 1.043622e-002
1.251575e+003, 9.961998e-003
1.253503e+003, 9.609479e-003
1.255432e+003, 9.223089e-003
1.257360e+003, 8.954636e-003
1.259289e+003, 8.854417e-003
1.261217e+003, 8.734304e-003
1.263146e+003, 8.448465e-003
1.265074e+003, 8.465957e-003
1.267003e+003, 8.528809e-003
1.268931e+003, 8.520363e-003
1.270860e+003, 8.239857e-003
1.272788e+003, 8.165433e-003
1.274717e+003, 8.110914e-003
1.276645e+003, 8.016388e-003
1.278573e+003, 8.013605e-003
1.280502e+003, 7.951912e-003
1.282430e+003, 7.739608e-003
1.284359e+003, 7.703891e-003
1.286287e+003, 7.723024e-003
1.288216e+003, 7.822305e-003
1.290144e+003, 7.811010e-003
1.292073e+003, 7.642204e-003
1.294001e+003, 7.401573e-003
1.295930e+003, 7.359039e-003
1.297858e+003, 7.131191e-003
1.299787e+003, 6.986829e-003
1.301715e+003, 6.985292e-003
1.303644e+003, 6.942905e-003
1.305572e+003, 6.717324e-003
1.307500e+003, 6.682574e-003
1.309429e+003, 6.633631e-003
1.311357e+003, 6.762143e-003
1.313286e+003, 6.824159e-003
1.315214e+003, 6.673730e-003
1.317143e+003, 6.475461e-003
1.319071e+003, 6.448497e-003
1.321000e+003, 6.378821e-003
1.322928e+003, 6.284561e-003
1.324857e+003, 6.223154e-003
1.326785e+003, 6.286207e-003
1.328714e+003, 6.142285e-003
1.330642e+003, 5.807711e-003
1.332571e+003, 5.579496e-003
1.334499e+003, 5.654307e-003
1.336427e+003, 5.745403e-003
1.338356e+003, 5.681887e-003
1.340284e+003, 5.389077e-003
1.342213e+003, 5.257534e-003
1.344141e+003, 5.227759e-003
1.346070e+003, 5.196387e-003
1.347998e+003, 5.099621e-003
1.349927e+003, 5.043940e-003
1.351855e+003, 4.940290e-003
1.353784e+003, 4.930633e-003
1.355712e+003, 4.907371e-003
1.357641e+003, 4.806558e-003
1.359569e+003, 4.709583e-003
1.361498e+003, 4.727445e-003
1.363426e+003, 4.607273e-003
1.365354e+003, 4.686226e-003
1.367283e+003, 4.552308e-003
1.369211e+003, 4.397162e-003
1.371140e+003, 4.497007e-003
1.373068e+003, 4.546392e-003
1.374997e+003, 4.298274e-003
1.376925e+003, 4.179988e-003
1.378854e+003, 4.192234e-003
1.380782e+003, 4.412791e-003
1.382711e+003, 4.317868e-003
1.384639e+003, 4.307105e-003
1.386568e+003, 4.388198e-003
1.388496e+003, 4.299260e-003
1.390424e+003, 4.207909e-003
1.392353e+003, 4.287142e-003
1.394281e+003, 4.159759e-003
1.396210e+003, 4.174729e-003
1.398138e+003, 4.270211e-003
1.400067e+003, 4.231680e-003
1.401995e+003, 4.156190e-003
1.403924e+003, 4.087833e-003
1.405852e+003, 4.241991e-003
1.407781e+003, 4.671441e-003
1.409709e+003, 4.712768e-003
1.411638e+003, 4.602194e-003
1.413566e+003, 4.437114e-003
1.415495e+003, 4.489551e-003
1.417423e+003, 4.499424e-003
1.419351e+003, 4.549020e-003
1.421280e+003, 4.503278e-003
1.423208e+003, 4.580338e-003
1.425137e+003, 4.535456e-003
1.427065e+003, 4.423663e-003
1.428994e+003, 4.332839e-003
1.430922e+003, 4.427518e-003
1.432851e+003, 4.510671e-003
1.434779e+003, 4.507862e-003
1.436708e+003, 4.403405e-003
1.438636e+003, 4.520674e-003
1.440565e+003, 4.411642e-003
1.442493e+003, 4.243042e-003
1.444422e+003, 4.061082e-003
1.446350e+003, 4.180769e-003
1.448278e+003, 4.291755e-003
1.450207e+003, 4.407558e-003
1.452135e+003, 4.179961e-003
1.454064e+003, 4.183037e-003
1.455992e+003, 4.237507e-003
1.457921e+003, 4.093617e-003
1.459849e+003, 4.316148e-003
1.461778e+003, 4.153009e-003
1.463706e+003, 4.118860e-003
1.465635e+003, 4.176856e-003
1.467563e+003, 4.351083e-003
1.469492e+003, 4.655060e-003
1.471420e+003, 4.688812e-003
1.473349e+003, 4.468717e-003
1.475277e+003, 4.655652e-003
1.477205e+003, 4.857093e-003
1.479134e+003, 4.891426e-003
1.481062e+003, 4.836552e-003
1.482991e+003, 4.701128e-003
1.484919e+003, 4.781713e-003
1.486848e+003, 4.773360e-003
1.488776e+003, 4.685937e-003
1.490705e+003, 4.711349e-003
1.492633e+003, 4.952737e-003
1.494562e+003, 5.094214e-003
1.496490e+003, 5.106192e-003
1.498419e+003, 5.145794e-003
1.500347e+003, 5.090747e-003
1.502276e+003, 5.282185e-003
1.504204e+003, 5.515541e-003
1.506132e+003, 5.240623e-003
1.508061e+003, 5.051051e-003
1.509989e+003, 5.241180e-003
1.511918e+003, 5.414465e-003
1.513846e+003, 5.571728e-003
1.515775e+003, 5.776571e-003
1.517703e+003, 5.794608e-003
1.519632e+003, 6.107608e-003
1.521560e+003, 6.102344e-003
1.523489e+003, 6.359071e-003
1.525417e+003, 6.484721e-003
1.527346e+003, 6.375256e-003
1.529274e+003, 6.289669e-003
1.531203e+003, 6.587897e-003
1.533131e+003, 6.670795e-003
1.535059e+003, 6.651224e-003
1.536988e+003, 7.083786e-003
1.538916e+003, 7.337309e-003
1.540845e+003, 7.138988e-003
1.542773e+003, 7.317537e-003
1.544702e+003, 7.415813e-003
1.546630e+003, 7.304912e-003
1.548559e+003, 7.375652e-003
1.550487e+003, 7.443171e-003
1.552416e+003, 7.677865e-003
1.554344e+003, 8.162207e-003
1.556273e+003, 8.292626e-003
1.558201e+003, 8.130690e-003
1.560130e+003, 8.183601e-003
1.562058e+003, 8.630929e-003
1.563986e+003, 8.732279e-003
1.565915e+003, 8.882327e-003
1.567843e+003, 9.172228e-003
1.569772e+003, 9.294252e-003
1.571700e+003, 9.715719e-003
1.573629e+003, 1.005702e-002
1.575557e+003, 1.028345e-002
1.577486e+003, 1.065461e-002
1.579414e+003, 1.135086e-002
1.581343e+003, 1.187837e-002
1.583271e+003, 1.237892e-002
1.585200e+003, 1.305782e-002
1.587128e+003, 1.384910e-002
1.589057e+003, 1.501867e-002
1.590985e+003, 1.627652e-002
1.592913e+003, 1.757221e-002
1.594842e+003, 1.890931e-002
1.596770e+003, 2.077394e-002
1.598699e+003, 2.323182e-002
1.600627e+003, 2.645302e-002
1.602556e+003, 3.051857e-002
1.604484e+003, 3.556822e-002
1.606413e+003, 4.226744e-002
1.608341e+003, 5.160582e-002
1.610270e+003, 6.448148e-002
1.612198e+003, 8.216327e-002
1.614127e+003, 1.052189e-001
1.616055e+003, 1.323240e-001
1.617984e+003, 1.567408e-001
1.619912e+003, 1.682836e-001
1.621840e+003, 1.595770e-001
1.623769e+003, 1.348622e-001
1.625697e+003, 1.056869e-001
1.627626e+003, 7.989261e-002
1.629554e+003, 6.011185e-002
1.631483e+003, 4.635854e-002
1.633411e+003, 3.701654e-002
1.635340e+003, 3.046082e-002
1.637268e+003, 2.564863e-002
1.639197e+003, 2.228895e-002
1.641125e+003, 1.972974e-002
1.643054e+003, 1.773736e-002
1.644982e+003, 1.645198e-002
1.646911e+003, 1.545178e-002
1.648839e+003, 1.452307e-002
1.650767e+003, 1.401245e-002
1.652696e+003, 1.355163e-002
1.654624e+003, 1.321341e-002
1.656553e+003, 1.340894e-002
1.658481e+003, 1.357960e-002
1.660410e+003, 1.392009e-002
1.662338e+003, 1.442364e-002
1.664267e+003, 1.547875e-002
1.666195e+003, 1.696241e-002
1.668124e+003, 1.843519e-002
1.670052e+003, 2.056039e-002
1.671981e+003, 2.397026e-002
1.673909e+003, 2.882694e-002
1.675838e+003, 3.499103e-002
1.677766e+003, 4.309222e-002
1.679694e+003, 5.206542e-002
1.681623e+003, 6.007661e-002
1.683551e+003, 6.310334e-002
1.685480e+003, 5.920671e-002
1.687408e+003, 5.123677e-002
1.689337e+003, 4.164194e-002
1.691265e+003, 3.304908e-002
1.693194e+003, 2.640770e-002
1.695122e+003, 2.153029e-002
1.697051e+003, 1.757839e-002
1.698979e+003, 1.519748e-002
1.700908e+003, 1.303483e-002
1.702836e+003, 1.163158e-002
1.704765e+003, 1.013632e-002
1.706693e+003, 8.792591e-003
1.708621e+003, 7.864647e-003
1.710550e+003, 7.354207e-003
1.712478e+003, 7.208125e-003
1.714407e+003, 6.859995e-003
1.716335e+003, 6.398680e-003
1.718264e+003, 5.295205e-003
1.720192e+003, 4.925339e-003
1.722121e+003, 4.772121e-003
1.724049e+003, 4.151049e-003
1.725978e+003, 3.704778e-003
1.727906e+003, 3.540343e-003
1.729835e+003, 3.385529e-003
1.731763e+003, 3.062102e-003
1.733692e+003, 2.610406e-003
1.735620e+003, 2.378701e-003
1.737548e+003, 2.577762e-003
1.739477e+003, 2.637098e-003
1.741405e+003, 2.649161e-003
1.743334e+003, 2.724668e-003
1.745262e+003, 2.810006e-003
1.747191e+003, 3.030187e-003
1.749119e+003, 3.102633e-003
1.751048e+003, 3.483054e-003
1.752976e+003, 3.645455e-003
1.754905e+003, 3.661312e-003
1.756833e+003, 3.691086e-003
1.758762e+003, 4.130576e-003
1.760690e+003, 4.210258e-003
1.762619e+003, 3.965046e-003
1.764547e+003, 3.704026e-003
1.766475e+003, 3.736511e-003
1.768404e+003, 3.711960e-003
1.770332e+003, 3.803453e-003
1.772261e+003, 3.702712e-003
1.774189e+003, 3.585753e-003
1.776118e+003, 3.536132e-003
1.778046e+003, 3.529865e-003
1.779975e+003, 3.790023e-003
1.781903e+003, 3.995172e-003
1.783832e+003, 3.939578e-003
1.785760e+003, 3.792395e-003
1.787689e+003, 3.589136e-003
1.789617e+003, 3.554800e-003
1.791546e+003, 3.770188e-003
1.793474e+003, 3.658261e-003
1.795402e+003, 3.592339e-003
1.797331e+003, 3.855509e-003
1.799259e+003, 3.640485e-003
1.801188e+003, 3.385884e-003
1.803116e+003, 3.397458e-003
1.805045e+003, 3.596418e-003
1.806973e+003, 3.401161e-003
1.808902e+003, 3.237727e-003
1.810830e+003, 3.414222e-003
1.812759e+003, 3.450544e-003
1.814687e+003, 3.006289e-003
1.816616e+003, 2.758444e-003
1.818544e+003, 2.720255e-003
1.820473e+003, 2.968313e-003
1.822401e+003, 2.745532e-003
1.824329e+003, 2.809771e-003
1.826258e+003, 2.693341e-003
1.828186e+003, 2.845886e-003
1.830115e+003, 3.096782e-003
1.832043e+003, 3.367676e-003
1.833972e+003, 3.450281e-003
1.835900e+003, 3.441329e-003
1.837829e+003, 3.287960e-003
1.839757e+003, 2.742263e-003
1.841686e+003, 2.448524e-003
1.843614e+003, 2.925801e-003
1.845543e+003, 2.972623e-003
1.847471e+003, 2.956322e-003
1.849400e+003, 2.943998e-003
1.851328e+003, 3.466318e-003
1.853256e+003, 3.763181e-003
1.855185e+003, 3.199855e-003
1.857113e+003, 2.712888e-003
1.859042e+003, 2.726868e-003
1.860970e+003, 2.466603e-003
1.862899e+003, 2.445288e-003
1.864827e+003, 2.438211e-003
1.866756e+003, 2.402095e-003
1.868684e+003, 2.301827e-003
1.870613e+003, 2.634248e-003
1.872541e+003, 3.196463e-003
1.874470e+003, 3.539685e-003
1.876398e+003, 3.345894e-003
1.878327e+003, 3.289103e-003
1.880255e+003, 3.165540e-003
1.882183e+003, 3.353501e-003
1.884112e+003, 2.827282e-003
1.886040e+003, 2.551056e-003
1.887969e+003, 2.638397e-003
1.889897e+003, 2.664489e-003
1.891826e+003, 2.745905e-003
1.893754e+003, 2.929374e-003
1.895683e+003, 2.949112e-003
1.897611e+003, 3.282242e-003
1.899540e+003, 2.603332e-003
1.901468e+003, 2.849745e-003
1.903397e+003, 3.340662e-003
1.905325e+003, 3.072949e-003
1.907254e+003, 2.531362e-003
1.909182e+003, 2.341220e-003
1.911110e+003, 2.724477e-003
1.913039e+003, 2.956422e-003
1.914967e+003, 2.126099e-003
1.916896e+003, 2.290285e-003
1.918824e+003, 2.581513e-003
1.920753e+003, 3.224550e-003
1.922681e+003, 3.601628e-003
1.924610e+003, 2.828475e-003
1.926538e+003, 1.407782e-003
1.928467e+003, 1.663050e-003
1.930395e+003, 2.005282e-003
1.932324e+003, 2.203261e-003
1.934252e+003, 2.761442e-003
1.936181e+003, 2.784274e-003
1.938109e+003, 2.125063e-003
1.940037e+003, 2.503771e-003
1.941966e+003, 2.591489e-003
1.943894e+003, 2.339046e-003
1.945823e+003, 2.261200e-003
1.947751e+003, 2.746883e-003
1.949680e+003, 2.526423e-003
1.951608e+003, 2.006047e-003
1.953537e+003, 6.348568e-004
1.955465e+003, -6.759203e-004
1.957394e+003, -9.099786e-004
1.959322e+003, -8.239885e-005
1.961251e+003, 7.374797e-004
1.963179e+003, 1.082559e-003
1.965108e+003, 7.993015e-004
1.967036e+003, 8.610457e-004
1.968964e+003, 6.426704e-006
1.970893e+003, 2.880274e-004
1.972821e+003, 3.263369e-004
1.974750e+003, 6.940833e-006
1.976678e+003, 7.458365e-004
1.978607e+003, 1.535910e-003
1.980535e+003, 4.112291e-004
1.982464e+003, 9.148850e-004
1.984392e+003, 1.194150e-003
1.986321e+003, 1.365469e-003
1.988249e+003, 1.722745e-003
1.990178e+003, 2.184607e-003
1.992106e+003, 1.583963e-003
1.994035e+003, 3.403648e-005
1.995963e+003, -7.379121e-004
1.997891e+003, -7.693426e-004
1.999820e+003, -7.703618e-004
2.001748e+003, -8.677693e-004
2.003677e+003, -1.979758e-003
2.005605e+003, -1.438823e-003
2.007534e+003, -1.652711e-003
2.009462e+003, -1.458285e-003
2.011391e+003, -2.225720e-003
2.013319e+003, -2.731671e-003
2.015248e+003, -1.640581e-003
2.017176e+003, -9.813722e-004
2.019105e+003, -9.204238e-004
2.021033e+003, -5.867078e-004
2.022962e+003, -1.316906e-003
2.024890e+003, -1.185707e-004
2.026818e+003, -4.522845e-004
2.028747e+003, -2.043606e-003
2.030675e+003, -3.178095e-003
2.032604e+003, -1.929811e-003
2.034532e+003, -8.595580e-004
2.036461e+003, 5.530237e-004
2.038389e+003, 3.584432e-004
2.040318e+003, -2.390810e-004
2.042246e+003, -1.405836e-004
2.044175e+003, -1.926367e-004
2.046103e+003, -1.596572e-003
2.048032e+003, -1.392629e-003
2.049960e+003, -3.074393e-004
2.051889e+003, 8.426182e-004
2.053817e+003, 1.119030e-003
2.055746e+003, -4.220621e-005
2.057674e+003, -1.053510e-003
2.059603e+003, -5.038601e-007
2.061531e+003, 1.379968e-004
2.063459e+003, 9.276103e-004
2.065388e+003, 8.901554e-004
2.067316e+003, 6.183477e-004
2.069245e+003, 9.979833e-004
2.071173e+003, 1.964966e-003
2.073102e+003, 1.830778e-003
2.075030e+003, 1.793211e-003
2.076959e+003, 2.009970e-003
2.078887e+003, 2.549915e-003
2.080816e+003, 2.447607e-003
2.082744e+003, 2.326852e-003
2.084673e+003, 2.658283e-003
2.086601e+003, 2.673846e-003
2.088530e+003, 2.561667e-003
2.090458e+003, 2.208671e-003
2.092386e+003, 1.551555e-003
2.094315e+003, 2.760565e-003
2.096243e+003, 3.477476e-003
2.098172e+003, 2.892009e-003
2.100100e+003, 3.110738e-003
2.102029e+003, 4.703064e-003
2.103957e+003, 5.500865e-003
2.105886e+003, 5.680433e-003
2.107814e+003, 6.903110e-003
2.109743e+003, 6.804134e-003
2.111671e+003, 5.577975e-003
2.113600e+003, 5.992524e-003
2.115528e+003, 5.723223e-003
2.117457e+003, 5.435152e-003
2.119385e+003, 5.025189e-003
2.121313e+003, 4.270351e-003
2.123242e+003, 3.399446e-003
2.125170e+003, 4.019093e-003
2.127099e+003, 4.641476e-003
2.129027e+003, 4.093695e-003
2.130956e+003, 2.398166e-003
2.132884e+003, 1.699503e-003
2.134813e+003, 2.593668e-004
2.136741e+003, 4.074085e-004
2.138670e+003, 1.273358e-003
2.140598e+003, 9.816512e-004
2.142527e+003, -6.641426e-004
2.144455e+003, -1.551289e-003
2.146384e+003, -2.196781e-003
2.148312e+003, -3.580444e-003
2.150240e+003, -4.993458e-003
2.152169e+003, -3.790798e-003
2.154097e+003, -4.964081e-003
2.156026e+003, -7.698254e-003
2.157954e+003, -7.554930e-003
2.159883e+003, -4.241847e-003
2.161811e+003, -2.748308e-003
2.163740e+003, -1.760055e-003
2.165668e+003, -1.531044e-003
2.167597e+003, -2.329129e-003
2.169525e+003, -1.987737e-003
2.171454e+003, -1.851502e-003
2.173382e+003, -2.124062e-003
2.175311e+003, -1.634575e-003
2.177239e+003, -1.746490e-003
2.179167e+003, -2.525217e-003
2.181096e+003, -2.439734e-003
2.183024e+003, -2.677527e-005
2.184953e+003, 1.131551e-003
2.186881e+003, 5.298832e-004
2.188810e+003, -1.713212e-005
2.190738e+003, 1.037093e-003
2.192667e+003, 1.822943e-003
2.194595e+003, 2.685635e-003
2.196524e+003, 3.359612e-003
2.198452e+003, 2.691667e-003
2.200381e+003, 1.444328e-003
2.202309e+003, 2.591435e-003
2.204238e+003, 3.348828e-003
2.206166e+003, 3.460309e-003
2.208094e+003, 3.876530e-003
2.210023e+003, 3.222626e-003
2.211951e+003, 2.107040e-003
2.213880e+003, 3.173966e-003
2.215808e+003, 5.039875e-003
2.217737e+003, 5.918357e-003
2.219665e+003, 5.944134e-003
2.221594e+003, 5.929777e-003
2.223522e+003, 6.117237e-003
2.225451e+003, 7.021734e-003
2.227379e+003, 7.150876e-003
2.229308e+003, 7.445411e-003
2.231236e+003, 7.254623e-003
2.233165e+003, 6.744806e-003
2.235093e+003, 6.713221e-003
2.237021e+003, 7.641800e-003
2.238950e+003, 7.892010e-003
2.240878e+003, 7.710569e-003
2.242807e+003, 7.771294e-003
2.244735e+003, 8.542179e-003
2.246664e+003, 9.100525e-003
2.248592e+003, 8.433625e-003
2.250521e+003, 8.270252e-003
2.252449e+003, 8.091664e-003
2.254378e+003, 7.519577e-003
2.256306e+003, 7.121651e-003
2.258235e+003, 6.771234e-003
2.260163e+003, 7.490743e-003
2.262092e+003, 8.118376e-003
2.264020e+003, 8.214665e-003
2.265948e+003, 7.626639e-003
2.267877e+003, 7.677113e-003
2.269805e+003, 7.422792e-003
2.271734e+003, 7.565287e-003
2.273662e+003, 8.460867e-003
2.275591e+003, 8.037535e-003
2.277519e+003, 7.859400e-003
2.279448e+003, 7.940818e-003
2.281376e+003, 8.107720e-003
2.283305e+003, 8.623889e-003
2.285233e+003, 9.236827e-003
2.287162e+003, 8.692306e-003
2.289090e+003, 7.929538e-003
2.291019e+003, 8.480966e-003
2.292947e+003, 8.774871e-003
2.294875e+003, 8.920276e-003
2.296804e+003, 8.625185e-003
2.298732e+003, 8.633588e-003
2.300661e+003, 8.503588e-003
2.302589e+003, 7.991577e-003
2.304518e+003, 8.413119e-003
2.306446e+003, 8.622351e-003
2.308375e+003, 7.794081e-003
2.310303e+003, 7.247760e-003
2.312232e+003, 7.727052e-003
2.314160e+003, 8.469008e-003
2.316089e+003, 8.652343e-003
2.318017e+003, 8.687469e-003
2.319946e+003, 8.720571e-003
2.321874e+003, 9.016591e-003
2.323802e+003, 8.745031e-003
2.325731e+003, 7.990224e-003
2.327659e+003, 7.451289e-003
2.329588e+003, 7.123548e-003
2.331516e+003, 7.094290e-003
2.333445e+003, 7.141153e-003
2.335373e+003, 6.795087e-003
2.337302e+003, 6.927618e-003
2.339230e+003, 6.962559e-003
2.341159e+003, 6.852767e-003
2.343087e+003, 6.683724e-003
2.345016e+003, 6.461527e-003
2.346944e+003, 6.195423e-003
2.348873e+003, 5.968115e-003
2.350801e+003, 5.937640e-003
2.352729e+003, 5.951415e-003
2.354658e+003, 6.431145e-003
2.356586e+003, 6.815270e-003
2.358515e+003, 6.758547e-003
2.360443e+003, 6.251487e-003
2.362372e+003, 6.245495e-003
2.364300e+003, 6.126796e-003
2.366229e+003, 5.547884e-003
2.368157e+003, 5.693886e-003
2.370086e+003, 6.120158e-003
2.372014e+003, 6.008280e-003
2.373942e+003, 5.848615e-003
2.375871e+003, 5.828140e-003
2.377799e+003, 5.884119e-003
2.379728e+003, 5.611479e-003
2.381656e+003, 4.994751e-003
2.383585e+003, 5.286916e-003
2.385513e+003, 5.531077e-003
2.387442e+003, 5.511768e-003
2.389370e+003, 5.323917e-003
2.391299e+003, 4.966406e-003
2.393227e+003, 5.054450e-003
2.395156e+003, 5.322364e-003
2.397084e+003, 5.415409e-003
2.399012e+003, 5.808381e-003
2.400941e+003, 5.744569e-003
2.402869e+003, 5.381669e-003
2.404798e+003, 4.854551e-003
2.406726e+003, 5.424609e-003
2.408655e+003, 6.001823e-003
2.410583e+003, 6.037152e-003
2.412512e+003, 6.439299e-003
2.414440e+003, 6.476964e-003
2.416369e+003, 5.874652e-003
2.418297e+003, 5.953390e-003
2.420226e+003, 5.657930e-003
2.422154e+003, 5.590707e-003
2.424083e+003, 5.351812e-003
2.426011e+003, 4.978189e-003
2.427939e+003, 5.465118e-003
2.429868e+003, 6.214266e-003
2.431796e+003, 5.881432e-003
2.433725e+003, 5.593566e-003
2.435653e+003, 5.283256e-003
2.437582e+003, 5.663080e-003
2.439510e+003, 6.076149e-003
2.441439e+003, 5.786145e-003
2.443367e+003, 5.484364e-003
2.445296e+003, 5.917485e-003
2.447224e+003, 6.179354e-003
2.449153e+003, 6.496719e-003
2.451081e+003, 5.948302e-003
2.453010e+003, 5.947667e-003
2.454938e+003, 6.270167e-003
2.456866e+003, 5.854284e-003
2.458795e+003, 5.695464e-003
2.460723e+003, 5.154565e-003
2.462652e+003, 4.637511e-003
2.464580e+003, 5.924714e-003
2.466509e+003, 7.107363e-003
2.468437e+003, 6.567435e-003
2.470366e+003, 5.770640e-003
2.472294e+003, 5.847209e-003
2.474223e+003, 5.685770e-003
2.476151e+003, 5.037407e-003
2.478080e+003, 4.584164e-003
2.480008e+003, 5.082649e-003
2.481937e+003, 5.474180e-003
2.483865e+003, 5.567605e-003
2.485793e+003, 5.715243e-003
2.487722e+003, 6.439929e-003
2.489650e+003, 6.668253e-003
2.491579e+003, 6.188170e-003
2.493507e+003, 5.986159e-003
2.495436e+003, 5.811964e-003
2.497364e+003, 5.479079e-003
2.499293e+003, 5.575448e-003
2.501221e+003, 5.913588e-003
2.503150e+003, 6.290135e-003
2.505078e+003, 5.981707e-003
2.507007e+003, 5.303294e-003
2.508935e+003, 4.562566e-003
2.510864e+003, 4.598903e-003
2.512792e+003, 5.122194e-003
2.514720e+003, 5.094311e-003
2.516649e+003, 4.879248e-003
2.518577e+003, 5.183280e-003
2.520506e+003, 4.953078e-003
2.522434e+003, 5.796249e-003
2.524363e+003, 6.194689e-003
2.526291e+003, 5.475964e-003
2.528220e+003, 5.124588e-003
2.530148e+003, 5.572873e-003
2.532077e+003, 5.896920e-003
2.534005e+003, 6.569652e-003
2.535934e+003, 5.860282e-003
2.537862e+003, 4.946450e-003
2.539791e+003, 4.931611e-003
2.541719e+003, 5.420012e-003
2.543647e+003, 5.858441e-003
2.545576e+003, 5.244489e-003
2.547504e+003, 5.217590e-003
2.549433e+003, 5.714241e-003
2.551361e+003, 5.306261e-003
2.553290e+003, 5.908194e-003
2.555218e+003, 5.945425e-003
2.557147e+003, 5.918818e-003
2.559075e+003, 5.675841e-003
2.561004e+003, 5.938575e-003
2.562932e+003, 6.574907e-003
2.564861e+003, 6.636275e-003
2.566789e+003, 6.064597e-003
2.568718e+003, 5.587721e-003
2.570646e+003, 5.756112e-003
2.572574e+003, 5.316011e-003
2.574503e+003, 5.999878e-003
2.576431e+003, 6.361550e-003
2.578360e+003, 6.305567e-003
2.580288e+003, 6.043525e-003
2.582217e+003, 5.855712e-003
2.584145e+003, 6.038178e-003
2.586074e+003, 6.294350e-003
2.588002e+003, 6.522663e-003
2.589931e+003, 6.364487e-003
2.591859e+003, 6.402215e-003
2.593788e+003, 6.619447e-003
2.595716e+003, 6.560608e-003
2.597645e+003, 6.959104e-003
2.599573e+003, 7.167781e-003
2.601501e+003, 6.249537e-003
2.603430e+003, 6.152947e-003
2.605358e+003, 6.650873e-003
2.607287e+003, 6.686730e-003
2.609215e+003, 6.608103e-003
2.611144e+003, 6.939716e-003
2.613072e+003, 6.685361e-003
2.615001e+003, 6.200752e-003
2.616929e+003, 6.753751e-003
2.618858e+003, 7.014776e-003
2.620786e+003, 7.185611e-003
2.622715e+003, 6.920530e-003
2.624643e+003, 7.133697e-003
2.626572e+003, 7.025096e-003
2.628500e+003, 7.010536e-003
2.630428e+003, 7.174411e-003
2.632357e+003, 7.087602e-003
2.634285e+003, 6.831539e-003
2.636214e+003, 6.708518e-003
2.638142e+003, 6.513586e-003
2.640071e+003, 6.052265e-003
2.641999e+003, 6.415438e-003
2.643928e+003, 6.636323e-003
2.645856e+003, 6.488893e-003
2.647785e+003, 6.375136e-003
2.649713e+003, 6.462590e-003
2.651642e+003, 6.552025e-003
2.653570e+003, 6.980508e-003
2.655499e+003, 6.940167e-003
2.657427e+003, 6.788958e-003
2.659355e+003, 6.651367e-003
2.661284e+003, 6.535579e-003
2.663212e+003, 6.354413e-003
2.665141e+003, 6.031502e-003
2.667069e+003, 5.667006e-003
2.668998e+003, 5.832495e-003
2.670926e+003, 5.960791e-003
2.672855e+003, 6.104859e-003
2.674783e+003, 6.239078e-003
2.676712e+003, 6.321152e-003
2.678640e+003, 6.242269e-003
2.680569e+003, 5.829381e-003
2.682497e+003, 5.846168e-003
2.684426e+003, 6.493100e-003
2.686354e+003, 6.889417e-003
2.688282e+003, 6.772241e-003
2.690211e+003, 6.623617e-003
2.692139e+003, 6.452729e-003
2.694068e+003, 6.569912e-003
2.695996e+003, 6.497270e-003
2.697925e+003, 6.598640e-003
2.699853e+003, 6.790850e-003
2.701782e+003, 6.325603e-003
2.703710e+003, 5.824042e-003
2.705639e+003, 6.136354e-003
2.707567e+003, 6.729849e-003
2.709496e+003, 6.644894e-003
2.711424e+003, 6.304089e-003
2.713353e+003, 6.329994e-003
2.715281e+003, 6.469180e-003
2.717209e+003, 5.989736e-003
2.719138e+003, 5.745803e-003
2.721066e+003, 5.941418e-003
2.722995e+003, 6.125726e-003
2.724923e+003, 6.678264e-003
2.726852e+003, 7.087212e-003
2.728780e+003, 7.553191e-003
2.730709e+003, 7.188712e-003
2.732637e+003, 6.601283e-003
2.734566e+003, 6.694595e-003
2.736494e+003, 7.327547e-003
2.738423e+003, 7.581332e-003
2.740351e+003, 7.381633e-003
2.742280e+003, 7.459878e-003
2.744208e+003, 7.367407e-003
2.746136e+003, 6.956359e-003
2.748065e+003, 7.158444e-003
2.749993e+003, 7.457656e-003
2.751922e+003, 7.330859e-003
2.753850e+003, 7.034998e-003
2.755779e+003, 7.249538e-003
2.757707e+003, 7.352609e-003
2.759636e+003, 7.010130e-003
2.761564e+003, 7.116088e-003
2.763493e+003, 7.166098e-003
2.765421e+003, 6.675745e-003
2.767350e+003, 6.092467e-003
2.769278e+003, 6.491489e-003
2.771207e+003, 7.138615e-003
2.773135e+003, 7.152640e-003
2.775063e+003, 7.037372e-003
2.776992e+003, 7.143238e-003
2.778920e+003, 6.843690e-003
2.780849e+003, 6.803960e-003
2.782777e+003, 6.553710e-003
2.784706e+003, 6.896627e-003
2.786634e+003, 8.051458e-003
2.788563e+003, 8.306789e-003
2.790491e+003, 8.453860e-003
2.792420e+003, 8.448892e-003
2.794348e+003, 8.047359e-003
2.796277e+003, 7.956662e-003
2.798205e+003, 8.119130e-003
2.800134e+003, 7.818594e-003
2.802062e+003, 7.646450e-003
2.803990e+003, 7.723141e-003
2.805919e+003, 7.576890e-003
2.807847e+003, 7.731326e-003
2.809776e+003, 8.470075e-003
2.811704e+003, 8.542870e-003
2.813633e+003, 8.183211e-003
2.815561e+003, 7.710780e-003
2.817490e+003, 8.168111e-003
2.819418e+003, 8.254955e-003
2.821347e+003, 7.913555e-003
2.823275e+003, 7.913220e-003
2.825204e+003, 8.196967e-003
2.827132e+003, 8.270742e-003
2.829061e+003, 7.989150e-003
2.830989e+003, 7.752731e-003
2.832917e+003, 7.870327e-003
2.834846e+003, 7.265158e-003
2.836774e+003, 6.385625e-003
2.838703e+003, 6.429106e-003
2.840631e+003, 7.241636e-003
2.842560e+003, 8.189943e-003
2.844488e+003, 8.474464e-003
2.846417e+003, 7.726537e-003
2.848345e+003, 6.851539e-003
2.850274e+003, 6.463749e-003
2.852202e+003, 5.958176e-003
2.854131e+003, 5.962678e-003
2.856059e+003, 6.844203e-003
2.857988e+003, 7.794049e-003
2.859916e+003, 8.091035e-003
2.861844e+003, 7.354639e-003
2.863773e+003, 7.145707e-003
2.865701e+003, 7.879383e-003
2.867630e+003, 7.618032e-003
2.869558e+003, 7.110602e-003
2.871487e+003, 7.107341e-003
2.873415e+003, 7.138157e-003
2.875344e+003, 7.206762e-003
2.877272e+003, 7.798269e-003
2.879201e+003, 8.654595e-003
2.881129e+003, 7.948013e-003
2.883058e+003, 7.934106e-003
2.884986e+003, 8.857956e-003
2.886915e+003, 8.509227e-003
2.888843e+003, 8.132957e-003
2.890771e+003, 8.835586e-003
2.892700e+003, 8.950263e-003
2.894628e+003, 8.188722e-003
2.896557e+003, 7.966313e-003
2.898485e+003, 7.906671e-003
2.900414e+003, 8.001385e-003
2.902342e+003, 8.128747e-003
2.904271e+003, 7.697808e-003
2.906199e+003, 7.248425e-003
2.908128e+003, 6.871845e-003
2.910056e+003, 6.285646e-003
2.911985e+003, 5.968214e-003
2.913913e+003, 5.701936e-003
2.915842e+003, 5.370155e-003
2.917770e+003, 5.793872e-003
2.919698e+003, 6.204188e-003
2.921627e+003, 6.007029e-003
2.923555e+003, 5.903450e-003
2.925484e+003, 6.348762e-003
2.927412e+003, 6.553773e-003
2.929341e+003, 6.608432e-003
2.931269e+003, 6.630355e-003
2.933198e+003, 6.791526e-003
2.935126e+003, 7.023719e-003
2.937055e+003, 7.452008e-003
2.938983e+003, 8.059827e-003
2.940912e+003, 8.583566e-003
2.942840e+003, 7.959817e-003
2.944769e+003, 7.102903e-003
2.946697e+003, 7.623488e-003
2.948625e+003, 8.588959e-003
2.950554e+003, 7.725716e-003
2.952482e+003, 7.100745e-003
2.954411e+003, 7.247331e-003
2.956339e+003, 8.255770e-003
2.958268e+003, 8.606873e-003
2.960196e+003, 8.191613e-003
2.962125e+003, 8.471075e-003
2.964053e+003, 9.523832e-003
2.965982e+003, 9.773400e-003
2.967910e+003, 9.670366e-003
2.969839e+003, 9.745751e-003
2.971767e+003, 9.685409e-003
2.973696e+003, 9.429146e-003
2.975624e+003, 9.874010e-003
2.977552e+003, 9.818474e-003
2.979481e+003, 9.844529e-003
2.981409e+003, 1.053083e-002
2.983338e+003, 1.118906e-002
2.985266e+003, 1.126793e-002
2.987195e+003, 1.116638e-002
2.989123e+003, 1.134772e-002
2.991052e+003, 1.147472e-002
2.992980e+003, 1.163149e-002
2.994909e+003, 1.225740e-002
2.996837e+003, 1.213269e-002
2.998766e+003, 1.123829e-002
3.000694e+003, 1.111324e-002
3.002623e+003, 1.223122e-002
3.004551e+003, 1.240781e-002
3.006479e+003, 1.212788e-002
3.008408e+003, 1.188697e-002
3.010336e+003, 1.204880e-002
3.012265e+003, 1.258607e-002
3.014193e+003, 1.330915e-002
3.016122e+003, 1.325487e-002
3.018050e+003, 1.322375e-002
3.019979e+003, 1.343417e-002
3.021907e+003, 1.308682e-002
3.023836e+003, 1.325365e-002
3.025764e+003, 1.370058e-002
3.027693e+003, 1.382994e-002
3.029621e+003, 1.357949e-002
3.031550e+003, 1.334275e-002
3.033478e+003, 1.361048e-002
3.035406e+003, 1.373945e-002
3.037335e+003, 1.356951e-002
3.039263e+003, 1.418476e-002
3.041192e+003, 1.410902e-002
3.043120e+003, 1.422498e-002
3.045049e+003, 1.392011e-002
3.046977e+003, 1.322687e-002
3.048906e+003, 1.367743e-002
3.050834e+003, 1.464875e-002
3.052763e+003, 1.567418e-002
3.054691e+003, 1.547712e-002
3.056620e+003, 1.568578e-002
3.058548e+003, 1.605187e-002
3.060477e+003, 1.598501e-002
3.062405e+003, 1.570643e-002
3.064333e+003, 1.575135e-002
3.066262e+003, 1.584814e-002
3.068190e+003, 1.581881e-002
3.070119e+003, 1.596855e-002
3.072047e+003, 1.712738e-002
3.073976e+003, 1.673315e-002
3.075904e+003, 1.648102e-002
3.077833e+003, 1.645532e-002
3.079761e+003, 1.644683e-002
3.081690e+003, 1.686095e-002
3.083618e+003, 1.656424e-002
3.085547e+003, 1.612741e-002
3.087475e+003, 1.693995e-002
3.089404e+003, 1.749093e-002
3.091332e+003, 1.833768e-002
3.093260e+003, 1.809323e-002
3.095189e+003, 1.762665e-002
3.097117e+003, 1.813337e-002
3.099046e+003, 1.930551e-002
3.100974e+003, 2.042877e-002
3.102903e+003, 2.042999e-002
3.104831e+003, 2.003697e-002
3.106760e+003, 1.995215e-002
3.108688e+003, 1.987432e-002
3.110617e+003, 1.961776e-002
3.112545e+003, 1.973457e-002
3.114474e+003, 2.040590e-002
3.116402e+003, 2.134049e-002
3.118331e+003, 2.191852e-002
3.120259e+003, 2.169348e-002
3.122188e+003, 2.153628e-002
3.124116e+003, 2.180192e-002
3.126044e+003, 2.246790e-002
3.127973e+003, 2.300587e-002
3.129901e+003, 2.388924e-002
3.131830e+003, 2.411741e-002
3.133758e+003, 2.410425e-002
3.135687e+003, 2.408620e-002
3.137615e+003, 2.387648e-002
3.139544e+003, 2.476280e-002
3.141472e+003, 2.514406e-002
3.143401e+003, 2.485484e-002
3.145329e+003, 2.467716e-002
3.147258e+003, 2.585642e-002
3.149186e+003, 2.759494e-002
3.151115e+003, 2.731442e-002
3.153043e+003, 2.820226e-002
3.154971e+003, 2.908938e-002
3.156900e+003, 2.914519e-002
3.158828e+003, 2.912632e-002
3.160757e+003, 3.015164e-002
3.162685e+003, 3.100796e-002
3.164614e+003, 3.137129e-002
3.166542e+003, 3.197243e-002
3.168471e+003, 3.252583e-002
3.170399e+003, 3.332102e-002
3.172328e+003, 3.409799e-002
3.174256e+003, 3.527018e-002
3.176185e+003, 3.590585e-002
3.178113e+003, 3.526831e-002
3.180042e+003, 3.623034e-002
3.181970e+003, 3.758692e-002
3.183898e+003, 3.888597e-002
3.185827e+003, 3.920117e-002
3.187755e+003, 4.017359e-002
3.189684e+003, 4.178061e-002
3.191612e+003, 4.256866e-002
3.193541e+003, 4.243411e-002
3.195469e+003, 4.329380e-002
3.197398e+003, 4.446388e-002
3.199326e+003, 4.519193e-002
3.201255e+003, 4.529302e-002
3.203183e+003, 4.575601e-002
3.205112e+003, 4.670377e-002
3.207040e+003, 4.793004e-002
3.208969e+003, 4.813297e-002
3.210897e+003, 4.860919e-002
3.212825e+003, 4.996762e-002
3.214754e+003, 5.228841e-002
3.216682e+003, 5.307637e-002
3.218611e+003, 5.404567e-002
3.220539e+003, 5.468421e-002
3.222468e+003, 5.587091e-002
3.224396e+003, 5.726027e-002
3.226325e+003, 5.821534e-002
3.228253e+003, 5.917133e-002
3.230182e+003, 6.114187e-002
3.232110e+003, 6.222254e-002
3.234039e+003, 6.438515e-002
3.235967e+003, 6.760053e-002
3.237896e+003, 6.979130e-002
3.239824e+003, 7.156883e-002
3.241752e+003, 7.351275e-002
3.243681e+003, 7.357278e-002
3.245609e+003, 7.339662e-002
3.247538e+003, 7.256709e-002
3.249466e+003, 7.271244e-002
3.251395e+003, 7.376273e-002
3.253323e+003, 7.262329e-002
3.255252e+003, 7.179263e-002
3.257180e+003, 7.243708e-002
3.259109e+003, 7.213356e-002
3.261037e+003, 7.087476e-002
3.262966e+003, 7.200450e-002
3.264894e+003, 7.420836e-002
3.266823e+003, 7.535590e-002
3.268751e+003, 7.620434e-002
3.270679e+003, 7.665711e-002
3.272608e+003, 7.845718e-002
3.274536e+003, 8.191712e-002
3.276465e+003, 8.236837e-002
3.278393e+003, 8.098803e-002
3.280322e+003, 8.158239e-002
3.282250e+003, 8.367966e-002
3.284179e+003, 8.593771e-002
3.286107e+003, 8.693572e-002
3.288036e+003, 8.805562e-002
3.289964e+003, 8.959952e-002
3.291893e+003, 9.046635e-002
3.293821e+003, 9.161488e-002
3.295750e+003, 9.427831e-002
3.297678e+003, 9.688256e-002
3.299606e+003, 9.681207e-002
3.301535e+003, 9.806585e-002
3.303463e+003, 9.992123e-002
3.305392e+003, 1.018033e-001
3.307320e+003, 1.047001e-001
3.309249e+003, 1.066928e-001
3.311177e+003, 1.100843e-001
3.313106e+003, 1.124856e-001
3.315034e+003, 1.142648e-001
3.316963e+003, 1.158801e-001
3.318891e+003, 1.183847e-001
3.320820e+003, 1.206496e-001
3.322748e+003, 1.231077e-001
3.324677e+003, 1.246855e-001
3.326605e+003, 1.271011e-001
3.328533e+003, 1.279337e-001
3.330462e+003, 1.292859e-001
3.332390e+003, 1.310047e-001
3.334319e+003, 1.339146e-001
3.336247e+003, 1.369004e-001
3.338176e+003, 1.399823e-001
3.340104e+003, 1.426049e-001
3.342033e+003, 1.449447e-001
3.343961e+003, 1.462809e-001
3.345890e+003, 1.474565e-001
3.347818e+003, 1.506360e-001
3.349747e+003, 1.548540e-001
3.351675e+003, 1.580832e-001
3.353604e+003, 1.612603e-001
3.355532e+003, 1.643980e-001
3.357460e+003, 1.686100e-001
3.359389e+003, 1.730632e-001
3.361317e+003, 1.777398e-001
3.363246e+003, 1.823639e-001
3.365174e+003, 1.884895e-001
3.367103e+003, 1.961972e-001
3.369031e+003, 2.057004e-001
3.370960e+003, 2.152617e-001
3.372888e+003, 2.265061e-001
3.374817e+003, 2.387606e-001
3.376745e+003, 2.507855e-001
3.378674e+003, 2.630969e-001
3.380602e+003, 2.782656e-001
3.382531e+003, 2.926790e-001
3.384459e+003, 3.070483e-001
3.386387e+003, 3.207866e-001
3.388316e+003, 3.350460e-001
3.390244e+003, 3.486317e-001
3.392173e+003, 3.619522e-001
3.394101e+003, 3.741751e-001
3.396030e+003, 3.840611e-001
3.397958e+003, 3.919929e-001
3.399887e+003, 3.973193e-001
3.401815e+003, 3.995855e-001
3.403744e+003, 4.016813e-001
3.405672e+003, 3.987494e-001
3.407601e+003, 3.913522e-001
3.409529e+003, 3.827143e-001
3.411458e+003, 3.737699e-001
3.413386e+003, 3.625188e-001
3.415314e+003, 3.490519e-001
3.417243e+003, 3.337612e-001
3.419171e+003, 3.184944e-001
3.421100e+003, 3.037766e-001
3.423028e+003, 2.899775e-001
3.424957e+003, 2.758844e-001
3.426885e+003, 2.626178e-001
3.428814e+003, 2.505208e-001
3.430742e+003, 2.396940e-001
3.432671e+003, 2.290739e-001
3.434599e+003, 2.188881e-001
3.436528e+003, 2.099694e-001
3.438456e+003, 2.031107e-001
3.440385e+003, 1.969015e-001
3.442313e+003, 1.913711e-001
3.444241e+003, 1.855574e-001
3.446170e+003, 1.818366e-001
3.448098e+003, 1.785067e-001
3.450027e+003, 1.757861e-001
3.451955e+003, 1.735505e-001
3.453884e+003, 1.723408e-001
3.455812e+003, 1.716103e-001
3.457741e+003, 1.705884e-001
3.459669e+003, 1.702033e-001
3.461598e+003, 1.718706e-001
3.463526e+003, 1.733012e-001
3.465455e+003, 1.746496e-001
3.467383e+003, 1.769680e-001
3.469312e+003, 1.790871e-001
3.471240e+003, 1.801829e-001
3.473168e+003, 1.823703e-001
3.475097e+003, 1.846157e-001
3.477025e+003, 1.905559e-001
3.478954e+003, 1.969877e-001
3.480882e+003, 2.015537e-001
3.482811e+003, 2.050982e-001
3.484739e+003, 2.106822e-001
3.486668e+003, 2.160076e-001
3.488596e+003, 2.207043e-001
3.490525e+003, 2.248067e-001
3.492453e+003, 2.286352e-001
3.494382e+003, 2.320315e-001
3.496310e+003, 2.355642e-001
3.498239e+003, 2.389378e-001
3.500167e+003, 2.435795e-001
3.502095e+003, 2.487036e-001
3.504024e+003, 2.535497e-001
3.505952e+003, 2.574099e-001
3.507881e+003, 2.622435e-001
3.509809e+003, 2.694249e-001
3.511738e+003, 2.764051e-001
3.513666e+003, 2.813655e-001
3.515595e+003, 2.870766e-001
3.517523e+003, 2.933566e-001
3.519452e+003, 2.979854e-001
3.521380e+003, 3.009204e-001
3.523309e+003, 3.050846e-001
3.525237e+003, 3.082726e-001
3.527166e+003, 3.098338e-001
3.529094e+003, 3.100630e-001
3.531022e+003, 3.132398e-001
3.532951e+003, 3.140277e-001
3.534879e+003, 3.122618e-001
3.536808e+003, 3.088981e-001
3.538736e+003, 3.043552e-001
3.540665e+003, 2.981039e-001
3.542593e+003, 2.929127e-001
3.544522e+003, 2.850630e-001
3.546450e+003, 2.761732e-001
3.548379e+003, 2.678182e-001
3.550307e+003, 2.578304e-001
3.552236e+003, 2.469413e-001
3.554164e+003, 2.355585e-001
3.556093e+003, 2.215156e-001
3.558021e+003, 2.091054e-001
3.559949e+003, 1.986657e-001
3.561878e+003, 1.903914e-001
3.563806e+003, 1.819028e-001
3.565735e+003, 1.723284e-001
3.567663e+003, 1.622251e-001
3.569592e+003, 1.540530e-001
3.571520e+003, 1.435550e-001
3.573449e+003, 1.337665e-001
3.575377e+003, 1.273237e-001
3.577306e+003, 1.218925e-001
3.579234e+003, 1.157016e-001
3.581163e+003, 1.098717e-001
3.583091e+003, 1.033636e-001
3.585020e+003, 9.938798e-002
3.586948e+003, 9.472421e-002
3.588876e+003, 8.989692e-002
3.590805e+003, 8.509074e-002
3.592733e+003, 7.974824e-002
3.594662e+003, 7.615883e-002
3.596590e+003, 7.494230e-002
3.598519e+003, 7.174417e-002
3.600447e+003, 6.707135e-002
3.602376e+003, 6.479670e-002
3.604304e+003, 6.493091e-002
3.606233e+003, 6.131825e-002
3.608161e+003, 5.588968e-002
3.610090e+003, 5.149785e-002
3.612018e+003, 5.116856e-002
3.613947e+003, 4.930812e-002
3.615875e+003, 4.690330e-002
3.617803e+003, 4.309018e-002
3.619732e+003, 4.024580e-002
3.621660e+003, 3.845176e-002
3.623589e+003, 3.689696e-002
3.625517e+003, 3.629863e-002
3.627446e+003, 3.343959e-002
3.629374e+003, 2.877258e-002
3.631303e+003, 2.835232e-002
3.633231e+003, 2.583989e-002
3.635160e+003, 2.437063e-002
3.637088e+003, 2.147398e-002
3.639017e+003, 1.986994e-002
3.640945e+003, 1.886286e-002
3.642874e+003, 1.890063e-002
3.644802e+003, 1.972187e-002
3.646730e+003, 1.799504e-002
3.648659e+003, 1.530595e-002
3.650587e+003, 1.540420e-002
3.652516e+003, 1.493250e-002
3.654444e+003, 1.413180e-002
3.656373e+003, 1.316849e-002
3.658301e+003, 1.446461e-002
3.660230e+003, 1.473940e-002
3.662158e+003, 1.291019e-002
3.664087e+003, 1.220549e-002
3.666015e+003, 1.390044e-002
3.667944e+003, 1.259304e-002
3.669872e+003, 1.062186e-002
3.671801e+003, 1.034612e-002
3.673729e+003, 1.102327e-002
3.675657e+003, 9.546928e-003
3.677586e+003, 1.153551e-002
3.679514e+003, 1.198175e-002
3.681443e+003, 1.145633e-002
3.683371e+003, 1.134139e-002
3.685300e+003, 1.014611e-002
3.687228e+003, 7.053124e-003
3.689157e+003, 6.291132e-003
3.691085e+003, 8.235379e-003
3.693014e+003, 1.016558e-002
3.694942e+003, 1.036957e-002
3.696871e+003, 8.212714e-003
3.698799e+003, 7.033886e-003
3.700728e+003, 8.480162e-003
3.702656e+003, 8.717999e-003
3.704584e+003, 7.742196e-003
3.706513e+003, 7.235657e-003
3.708441e+003, 7.901045e-003
3.710370e+003, 6.834449e-003
3.712298e+003, 6.814817e-003
3.714227e+003, 7.426009e-003
3.716155e+003, 6.799974e-003
3.718084e+003, 6.038323e-003
3.720012e+003, 6.476715e-003
3.721941e+003, 6.306685e-003
3.723869e+003, 7.802471e-003
3.725798e+003, 8.907613e-003
3.727726e+003, 8.397931e-003
3.729655e+003, 8.937766e-003
3.731583e+003, 8.185429e-003
3.733511e+003, 7.299532e-003
3.735440e+003, 8.444363e-003
3.737368e+003, 8.046125e-003
3.739297e+003, 8.079142e-003
3.741225e+003, 7.706380e-003
3.743154e+003, 7.908228e-003
3.745082e+003, 5.426060e-003
3.747011e+003, 7.790903e-003
3.748939e+003, 6.411456e-003
3.750868e+003, 5.146141e-003
3.752796e+003, 3.979173e-003
3.754725e+003, 6.870993e-003
3.756653e+003, 7.618682e-003
3.758582e+003, 7.401076e-003
3.760510e+003, 6.026970e-003
3.762438e+003, 5.086158e-003
3.764367e+003, 4.676934e-003
3.766295e+003, 6.584764e-003
3.768224e+003, 6.280622e-003
3.770152e+003, 5.059609e-003
3.772081e+003, 6.871285e-003
3.774009e+003, 6.348039e-003
3.775938e+003, 4.981846e-003
3.777866e+003, 8.111046e-003
3.779795e+003, 9.756689e-003
3.781723e+003, 9.390900e-003
3.783652e+003, 8.561376e-003
3.785580e+003, 7.850970e-003
3.787509e+003, 6.120119e-003
3.789437e+003, 5.458625e-003
3.791365e+003, 4.681357e-003
3.793294e+003, 4.537227e-003
3.795222e+003, 6.524355e-003
3.797151e+003, 9.055242e-003
3.799079e+003, 9.447258e-003
3.801008e+003, 8.687286e-003
3.802936e+003, 7.365755e-003
3.804865e+003, 8.183285e-003
3.806793e+003, 7.311467e-003
3.808722e+003, 6.347640e-003
3.810650e+003, 6.627130e-003
3.812579e+003, 7.432818e-003
3.814507e+003, 6.794588e-003
3.816436e+003, 5.752411e-003
3.818364e+003, 7.448883e-003
3.820292e+003, 7.030822e-003
3.822221e+003, 6.410187e-003
3.824149e+003, 7.047301e-003
3.826078e+003, 7.741290e-003
3.828006e+003, 9.576133e-003
3.829935e+003, 7.173400e-003
3.831863e+003, 6.313149e-003
3.833792e+003, 7.585173e-003
3.835720e+003, 7.899451e-003
3.837649e+003, 8.291161e-003
3.839577e+003, 7.551439e-003
3.841506e+003, 6.080860e-003
3.843434e+003, 6.371109e-003
3.845363e+003, 7.115951e-003
3.847291e+003, 7.782265e-003
3.849219e+003, 7.411173e-003
3.851148e+003, 1.006268e-002
3.853076e+003, 9.723567e-003
3.855005e+003, 8.430224e-003
3.856933e+003, 9.588468e-003
3.858862e+003, 8.750239e-003
3.860790e+003, 6.300096e-003
3.862719e+003, 6.721705e-003
3.864647e+003, 8.447883e-003
3.866576e+003, 8.772356e-003
3.868504e+003, 7.646807e-003
3.870433e+003, 5.897711e-003
3.872361e+003, 6.122919e-003
3.874290e+003, 7.287623e-003
3.876218e+003, 6.615990e-003
3.878146e+003, 6.487628e-003
3.880075e+003, 6.268481e-003
3.882003e+003, 8.382828e-003
3.883932e+003, 7.976288e-003
3.885860e+003, 6.798560e-003
3.887789e+003, 7.418939e-003
3.889717e+003, 8.726859e-003
3.891646e+003, 7.980497e-003
3.893574e+003, 7.626242e-003
3.895503e+003, 6.449349e-003
3.897431e+003, 7.758582e-003
3.899360e+003, 9.385867e-003
3.901288e+003, 1.100314e-002
3.903217e+003, 1.038478e-002
3.905145e+003, 1.004435e-002
3.907073e+003, 8.877257e-003
3.909002e+003, 8.759850e-003
3.910930e+003, 6.862562e-003
3.912859e+003, 8.277361e-003
3.914787e+003, 1.052676e-002
3.916716e+003, 9.799170e-003
3.918644e+003, 7.972650e-003
3.920573e+003, 7.608434e-003
3.922501e+003, 7.191119e-003
3.924430e+003, 6.900947e-003
3.926358e+003, 6.763246e-003
3.928287e+003, 8.083006e-003
3.930215e+003, 7.767421e-003
3.932144e+003, 9.722028e-003
3.934072e+003, 1.039218e-002
3.936000e+003, 1.041214e-002
3.937929e+003, 1.013317e-002
3.939857e+003, 9.648362e-003
3.941786e+003, 8.483204e-003
3.943714e+003, 8.913673e-003
3.945643e+003, 8.827287e-003
3.947571e+003, 7.856018e-003
3.949500e+003, 7.055188e-003
3.951428e+003, 9.307022e-003
3.953357e+003, 8.930944e-003
3.955285e+003, 8.615454e-003
3.957214e+003, 8.943727e-003
3.959142e+003, 1.026589e-002
3.961071e+003, 1.037539e-002
3.962999e+003, 9.229573e-003
3.964927e+003, 7.316912e-003
3.966856e+003, 7.896966e-003
3.968784e+003, 8.251009e-003
3.970713e+003, 9.351220e-003
3.972641e+003, 8.133951e-003
3.974570e+003, 8.172003e-003
3.976498e+003, 9.877264e-003
3.978427e+003, 1.034954e-002
3.980355e+003, 8.073559e-003
3.982284e+003, 7.901495e-003
3.984212e+003, 9.656932e-003
3.986141e+003, 1.046188e-002
3.988069e+003, 8.968604e-003
3.989998e+003, 1.048038e-002
3.991926e+003, 1.133516e-002
3.993854e+003, 1.154443e-002
3.995783e+003, 1.015396e-002
3.997711e+003, 1.011960e-002
3.999640e+003, 1.012738e-002
##END=



