##NAMES=Hambergite
##RRUFFID=R050603
##IDEAL CHEMISTRY=Be_2_BO_3_(OH)
##LOCALITY=Momeik, Burma
##OWNER=RRUFF
##SOURCE=Bill Larson
##DESCRIPTION=Colorless fragment from a striated prismatic crystal
##STATUS=The identification of this mineral has been confirmed by X-ray diffraction.
##URL=rruff.info/R050603
3.991926e+002, 1.211898e-001
4.011211e+002, 1.106811e-001
4.030496e+002, 1.112133e-001
4.049780e+002, 1.051262e-001
4.069065e+002, 9.614646e-002
4.088350e+002, 8.928210e-002
4.107634e+002, 9.150877e-002
4.126919e+002, 1.022766e-001
4.146204e+002, 1.090621e-001
4.165488e+002, 1.166982e-001
4.184773e+002, 1.277190e-001
4.204058e+002, 1.261874e-001
4.223342e+002, 1.094039e-001
4.242627e+002, 1.014831e-001
4.261912e+002, 1.062712e-001
4.281196e+002, 1.175531e-001
4.300481e+002, 1.258387e-001
4.319766e+002, 1.336899e-001
4.339050e+002, 1.452788e-001
4.358335e+002, 1.573728e-001
4.377620e+002, 1.665478e-001
4.396904e+002, 1.728682e-001
4.416189e+002, 1.751764e-001
4.435474e+002, 1.559544e-001
4.454758e+002, 1.384795e-001
4.474043e+002, 1.395696e-001
4.493328e+002, 1.326773e-001
4.512612e+002, 1.074859e-001
4.531897e+002, 7.764158e-002
4.551182e+002, 5.991297e-002
4.570466e+002, 5.639963e-002
4.589751e+002, 5.845453e-002
4.609036e+002, 6.084333e-002
4.628320e+002, 6.434796e-002
4.647605e+002, 6.870883e-002
4.666890e+002, 7.280859e-002
4.686174e+002, 7.573950e-002
4.705459e+002, 7.619874e-002
4.724744e+002, 7.590570e-002
4.744028e+002, 7.544433e-002
4.763313e+002, 7.547647e-002
4.782598e+002, 7.689475e-002
4.801882e+002, 7.979943e-002
4.821167e+002, 8.165266e-002
4.840452e+002, 8.248353e-002
4.859736e+002, 8.375810e-002
4.879021e+002, 8.366214e-002
4.898306e+002, 8.403259e-002
4.917590e+002, 8.572908e-002
4.936875e+002, 8.714608e-002
4.956160e+002, 8.859374e-002
4.975444e+002, 8.979734e-002
4.994729e+002, 9.079629e-002
5.014014e+002, 9.220982e-002
5.033298e+002, 9.344981e-002
5.052583e+002, 9.491443e-002
5.071868e+002, 9.609890e-002
5.091152e+002, 9.681963e-002
5.110437e+002, 9.803259e-002
5.129722e+002, 9.948920e-002
5.149006e+002, 1.010862e-001
5.168291e+002, 1.023009e-001
5.187576e+002, 1.034423e-001
5.206860e+002, 1.046731e-001
5.226145e+002, 1.058381e-001
5.245430e+002, 1.063291e-001
5.264714e+002, 1.068971e-001
5.283999e+002, 1.080954e-001
5.303284e+002, 1.098746e-001
5.322568e+002, 1.111706e-001
5.341853e+002, 1.115796e-001
5.361138e+002, 1.130565e-001
5.380422e+002, 1.150480e-001
5.399707e+002, 1.162715e-001
5.418992e+002, 1.177893e-001
5.438276e+002, 1.190912e-001
5.457561e+002, 1.211125e-001
5.476846e+002, 1.243224e-001
5.496130e+002, 1.263092e-001
5.515415e+002, 1.277607e-001
5.534700e+002, 1.297334e-001
5.553984e+002, 1.310909e-001
5.573269e+002, 1.313402e-001
5.592554e+002, 1.315799e-001
5.611838e+002, 1.314066e-001
5.631123e+002, 1.294498e-001
5.650408e+002, 1.271566e-001
5.669692e+002, 1.259803e-001
5.688977e+002, 1.258871e-001
5.708262e+002, 1.265253e-001
5.727546e+002, 1.276362e-001
5.746831e+002, 1.292661e-001
5.766116e+002, 1.321695e-001
5.785400e+002, 1.358272e-001
5.804685e+002, 1.385024e-001
5.823970e+002, 1.416074e-001
5.843254e+002, 1.457593e-001
5.862539e+002, 1.483568e-001
5.881824e+002, 1.502169e-001
5.901108e+002, 1.532058e-001
5.920393e+002, 1.576115e-001
5.939678e+002, 1.634538e-001
5.958962e+002, 1.709835e-001
5.978247e+002, 1.788587e-001
5.997532e+002, 1.826849e-001
6.016816e+002, 1.759404e-001
6.036101e+002, 1.597976e-001
6.055386e+002, 1.453061e-001
6.074670e+002, 1.407543e-001
6.093955e+002, 1.425791e-001
6.113240e+002, 1.460637e-001
6.132524e+002, 1.505212e-001
6.151809e+002, 1.546999e-001
6.171094e+002, 1.579288e-001
6.190378e+002, 1.612440e-001
6.209663e+002, 1.652780e-001
6.228948e+002, 1.688417e-001
6.248232e+002, 1.719105e-001
6.267517e+002, 1.753640e-001
6.286802e+002, 1.795404e-001
6.306086e+002, 1.834716e-001
6.325371e+002, 1.876180e-001
6.344656e+002, 1.922421e-001
6.363940e+002, 1.969447e-001
6.383225e+002, 2.020863e-001
6.402510e+002, 2.079068e-001
6.421794e+002, 2.152024e-001
6.441079e+002, 2.217939e-001
6.460364e+002, 2.260743e-001
6.479648e+002, 2.230355e-001
6.498933e+002, 2.101263e-001
6.518218e+002, 1.952345e-001
6.537502e+002, 1.810031e-001
6.556787e+002, 1.683828e-001
6.576072e+002, 1.640507e-001
6.595356e+002, 1.682956e-001
6.614641e+002, 1.747212e-001
6.633926e+002, 1.804025e-001
6.653210e+002, 1.863456e-001
6.672495e+002, 1.925733e-001
6.691780e+002, 1.980841e-001
6.711064e+002, 2.031350e-001
6.730349e+002, 2.081816e-001
6.749634e+002, 2.130292e-001
6.768918e+002, 2.172344e-001
6.788203e+002, 2.219432e-001
6.807488e+002, 2.267664e-001
6.826772e+002, 2.306277e-001
6.846057e+002, 2.347240e-001
6.865342e+002, 2.390994e-001
6.884626e+002, 2.441351e-001
6.903911e+002, 2.493945e-001
6.923196e+002, 2.540379e-001
6.942480e+002, 2.574519e-001
6.961765e+002, 2.609908e-001
6.981050e+002, 2.647253e-001
7.000334e+002, 2.682708e-001
7.019619e+002, 2.711833e-001
7.038904e+002, 2.723582e-001
7.058188e+002, 2.708251e-001
7.077473e+002, 2.692897e-001
7.096758e+002, 2.712459e-001
7.116042e+002, 2.758913e-001
7.135327e+002, 2.818608e-001
7.154612e+002, 2.873085e-001
7.173896e+002, 2.908029e-001
7.193181e+002, 2.924625e-001
7.212466e+002, 2.901067e-001
7.231750e+002, 2.839089e-001
7.251035e+002, 2.807808e-001
7.270320e+002, 2.836120e-001
7.289604e+002, 2.874497e-001
7.308889e+002, 2.911001e-001
7.328174e+002, 2.944214e-001
7.347458e+002, 2.963135e-001
7.366743e+002, 2.967058e-001
7.386028e+002, 2.961781e-001
7.405313e+002, 2.930565e-001
7.424597e+002, 2.865221e-001
7.443882e+002, 2.777507e-001
7.463167e+002, 2.687091e-001
7.482451e+002, 2.611982e-001
7.501736e+002, 2.575199e-001
7.521021e+002, 2.575234e-001
7.540305e+002, 2.589482e-001
7.559590e+002, 2.593688e-001
7.578875e+002, 2.584631e-001
7.598159e+002, 2.568027e-001
7.617444e+002, 2.560989e-001
7.636729e+002, 2.568115e-001
7.656013e+002, 2.579770e-001
7.675298e+002, 2.582182e-001
7.694583e+002, 2.556456e-001
7.713867e+002, 2.486735e-001
7.733152e+002, 2.375458e-001
7.752437e+002, 2.245274e-001
7.771721e+002, 2.094434e-001
7.791006e+002, 1.939088e-001
7.810291e+002, 1.807846e-001
7.829575e+002, 1.739304e-001
7.848860e+002, 1.761901e-001
7.868145e+002, 1.842178e-001
7.887429e+002, 1.917517e-001
7.906714e+002, 1.974391e-001
7.925999e+002, 2.032710e-001
7.945283e+002, 2.087451e-001
7.964568e+002, 2.106935e-001
7.983853e+002, 2.071040e-001
8.003137e+002, 1.979186e-001
8.022422e+002, 1.853343e-001
8.041707e+002, 1.713796e-001
8.060991e+002, 1.597971e-001
8.080276e+002, 1.556589e-001
8.099561e+002, 1.606020e-001
8.118845e+002, 1.695664e-001
8.138130e+002, 1.767457e-001
8.157415e+002, 1.828348e-001
8.176699e+002, 1.907660e-001
8.195984e+002, 1.993643e-001
8.215269e+002, 2.063082e-001
8.234553e+002, 2.095381e-001
8.253838e+002, 2.088186e-001
8.273123e+002, 2.065846e-001
8.292407e+002, 2.026317e-001
8.311692e+002, 1.981597e-001
8.330977e+002, 1.936409e-001
8.350261e+002, 1.890555e-001
8.369546e+002, 1.847428e-001
8.388831e+002, 1.812803e-001
8.408115e+002, 1.788108e-001
8.427400e+002, 1.771042e-001
8.446685e+002, 1.756537e-001
8.465969e+002, 1.745600e-001
8.485254e+002, 1.733436e-001
8.504539e+002, 1.719340e-001
8.523823e+002, 1.706617e-001
8.543108e+002, 1.690300e-001
8.562393e+002, 1.667488e-001
8.581677e+002, 1.637620e-001
8.600962e+002, 1.591932e-001
8.620247e+002, 1.542754e-001
8.639531e+002, 1.495782e-001
8.658816e+002, 1.444706e-001
8.678101e+002, 1.392920e-001
8.697385e+002, 1.344300e-001
8.716670e+002, 1.295501e-001
8.735955e+002, 1.248431e-001
8.755239e+002, 1.206214e-001
8.774524e+002, 1.162378e-001
8.793809e+002, 1.115714e-001
8.813093e+002, 1.072987e-001
8.832378e+002, 1.031786e-001
8.851663e+002, 9.923740e-002
8.870947e+002, 9.546532e-002
8.890232e+002, 9.199969e-002
8.909517e+002, 8.880511e-002
8.928801e+002, 8.587333e-002
8.948085e+002, 8.266054e-002
8.967370e+002, 7.944576e-002
8.986655e+002, 7.658967e-002
9.005939e+002, 7.405778e-002
9.025224e+002, 7.149010e-002
9.044509e+002, 6.899410e-002
9.063793e+002, 6.689229e-002
9.083078e+002, 6.492437e-002
9.102363e+002, 6.257045e-002
9.121647e+002, 6.026681e-002
9.140932e+002, 5.772536e-002
9.160217e+002, 5.476185e-002
9.179501e+002, 5.157067e-002
9.198786e+002, 4.857314e-002
9.218071e+002, 4.595464e-002
9.237355e+002, 4.408735e-002
9.256640e+002, 4.286897e-002
9.275925e+002, 4.186939e-002
9.295209e+002, 4.006654e-002
9.314494e+002, 3.735347e-002
9.333779e+002, 3.399755e-002
9.353063e+002, 3.047418e-002
9.372348e+002, 2.767399e-002
9.391633e+002, 2.517984e-002
9.410917e+002, 2.273112e-002
9.430202e+002, 2.117398e-002
9.449487e+002, 2.003653e-002
9.468771e+002, 1.878162e-002
9.488056e+002, 1.787028e-002
9.507341e+002, 1.744107e-002
9.526625e+002, 1.681565e-002
9.545910e+002, 1.623224e-002
9.565195e+002, 1.589270e-002
9.584479e+002, 1.605800e-002
9.603764e+002, 1.581034e-002
9.623049e+002, 1.542433e-002
9.642333e+002, 1.530798e-002
9.661618e+002, 1.531595e-002
9.680903e+002, 1.512271e-002
9.700187e+002, 1.491252e-002
9.719472e+002, 1.486747e-002
9.738757e+002, 1.499976e-002
9.758041e+002, 1.517263e-002
9.777326e+002, 1.511133e-002
9.796611e+002, 1.496257e-002
9.815895e+002, 1.509670e-002
9.835180e+002, 1.539628e-002
9.854465e+002, 1.548104e-002
9.873749e+002, 1.538490e-002
9.893034e+002, 1.555910e-002
9.912319e+002, 1.585936e-002
9.931603e+002, 1.597845e-002
9.950888e+002, 1.600930e-002
9.970173e+002, 1.628727e-002
9.989457e+002, 1.664652e-002
1.000874e+003, 1.698439e-002
1.002803e+003, 1.738783e-002
1.004731e+003, 1.804702e-002
1.006660e+003, 1.913612e-002
1.008588e+003, 2.032155e-002
1.010517e+003, 2.149489e-002
1.012445e+003, 2.264297e-002
1.014373e+003, 2.304613e-002
1.016302e+003, 2.272505e-002
1.018230e+003, 2.223664e-002
1.020159e+003, 2.227950e-002
1.022087e+003, 2.256178e-002
1.024016e+003, 2.296570e-002
1.025944e+003, 2.320848e-002
1.027873e+003, 2.302215e-002
1.029801e+003, 2.225663e-002
1.031730e+003, 2.161071e-002
1.033658e+003, 2.086984e-002
1.035587e+003, 2.051735e-002
1.037515e+003, 2.032969e-002
1.039444e+003, 1.993938e-002
1.041372e+003, 1.988879e-002
1.043301e+003, 2.025435e-002
1.045229e+003, 2.048399e-002
1.047157e+003, 2.092868e-002
1.049086e+003, 2.115843e-002
1.051014e+003, 2.105376e-002
1.052943e+003, 2.111687e-002
1.054871e+003, 2.139280e-002
1.056800e+003, 2.131525e-002
1.058728e+003, 2.169647e-002
1.060657e+003, 2.211218e-002
1.062585e+003, 2.220736e-002
1.064514e+003, 2.211641e-002
1.066442e+003, 2.218468e-002
1.068371e+003, 2.254904e-002
1.070299e+003, 2.315012e-002
1.072228e+003, 2.357036e-002
1.074156e+003, 2.419822e-002
1.076084e+003, 2.487423e-002
1.078013e+003, 2.568186e-002
1.079941e+003, 2.650839e-002
1.081870e+003, 2.719257e-002
1.083798e+003, 2.817275e-002
1.085727e+003, 2.895106e-002
1.087655e+003, 2.938780e-002
1.089584e+003, 3.004244e-002
1.091512e+003, 3.083795e-002
1.093441e+003, 3.160321e-002
1.095369e+003, 3.217423e-002
1.097298e+003, 3.288078e-002
1.099226e+003, 3.350549e-002
1.101155e+003, 3.398919e-002
1.103083e+003, 3.485341e-002
1.105011e+003, 3.578832e-002
1.106940e+003, 3.635987e-002
1.108868e+003, 3.679586e-002
1.110797e+003, 3.781629e-002
1.112725e+003, 3.889712e-002
1.114654e+003, 4.006165e-002
1.116582e+003, 4.177050e-002
1.118511e+003, 4.367049e-002
1.120439e+003, 4.581897e-002
1.122368e+003, 4.846827e-002
1.124296e+003, 5.210011e-002
1.126225e+003, 5.593720e-002
1.128153e+003, 5.985679e-002
1.130082e+003, 6.465590e-002
1.132010e+003, 7.056188e-002
1.133938e+003, 7.716825e-002
1.135867e+003, 8.494092e-002
1.137795e+003, 9.398858e-002
1.139724e+003, 1.039231e-001
1.141652e+003, 1.151470e-001
1.143581e+003, 1.270540e-001
1.145509e+003, 1.387187e-001
1.147438e+003, 1.490812e-001
1.149366e+003, 1.572933e-001
1.151295e+003, 1.627281e-001
1.153223e+003, 1.647433e-001
1.155152e+003, 1.640081e-001
1.157080e+003, 1.613525e-001
1.159009e+003, 1.572201e-001
1.160937e+003, 1.516440e-001
1.162865e+003, 1.450563e-001
1.164794e+003, 1.370166e-001
1.166722e+003, 1.276434e-001
1.168651e+003, 1.176779e-001
1.170579e+003, 1.071927e-001
1.172508e+003, 9.685503e-002
1.174436e+003, 8.712770e-002
1.176365e+003, 7.791691e-002
1.178293e+003, 6.998245e-002
1.180222e+003, 6.324681e-002
1.182150e+003, 5.759799e-002
1.184079e+003, 5.304130e-002
1.186007e+003, 4.929702e-002
1.187936e+003, 4.619934e-002
1.189864e+003, 4.373677e-002
1.191792e+003, 4.185560e-002
1.193721e+003, 4.048780e-002
1.195649e+003, 3.937368e-002
1.197578e+003, 3.865420e-002
1.199506e+003, 3.843581e-002
1.201435e+003, 3.798649e-002
1.203363e+003, 3.768505e-002
1.205292e+003, 3.788304e-002
1.207220e+003, 3.842739e-002
1.209149e+003, 3.882972e-002
1.211077e+003, 3.913470e-002
1.213006e+003, 4.012533e-002
1.214934e+003, 4.105740e-002
1.216863e+003, 4.172876e-002
1.218791e+003, 4.268147e-002
1.220719e+003, 4.423937e-002
1.222648e+003, 4.589833e-002
1.224576e+003, 4.748597e-002
1.226505e+003, 4.932979e-002
1.228433e+003, 5.158054e-002
1.230362e+003, 5.390275e-002
1.232290e+003, 5.629329e-002
1.234219e+003, 5.892685e-002
1.236147e+003, 6.174805e-002
1.238076e+003, 6.481215e-002
1.240004e+003, 6.802775e-002
1.241933e+003, 7.157912e-002
1.243861e+003, 7.556050e-002
1.245790e+003, 7.965212e-002
1.247718e+003, 8.385836e-002
1.249646e+003, 8.860806e-002
1.251575e+003, 9.385809e-002
1.253503e+003, 9.910828e-002
1.255432e+003, 1.045674e-001
1.257360e+003, 1.105736e-001
1.259289e+003, 1.170830e-001
1.261217e+003, 1.239012e-001
1.263146e+003, 1.310977e-001
1.265074e+003, 1.389668e-001
1.267003e+003, 1.474715e-001
1.268931e+003, 1.564583e-001
1.270860e+003, 1.660403e-001
1.272788e+003, 1.757923e-001
1.274717e+003, 1.858696e-001
1.276645e+003, 1.967806e-001
1.278573e+003, 2.085364e-001
1.280502e+003, 2.204166e-001
1.282430e+003, 2.325868e-001
1.284359e+003, 2.445751e-001
1.286287e+003, 2.554539e-001
1.288216e+003, 2.646479e-001
1.290144e+003, 2.720095e-001
1.292073e+003, 2.771713e-001
1.294001e+003, 2.802795e-001
1.295930e+003, 2.810516e-001
1.297858e+003, 2.798783e-001
1.299787e+003, 2.766253e-001
1.301715e+003, 2.723271e-001
1.303644e+003, 2.668617e-001
1.305572e+003, 2.605572e-001
1.307500e+003, 2.538302e-001
1.309429e+003, 2.466521e-001
1.311357e+003, 2.394465e-001
1.313286e+003, 2.323376e-001
1.315214e+003, 2.253848e-001
1.317143e+003, 2.184060e-001
1.319071e+003, 2.117020e-001
1.321000e+003, 2.056904e-001
1.322928e+003, 1.992990e-001
1.324857e+003, 1.929501e-001
1.326785e+003, 1.870261e-001
1.328714e+003, 1.814390e-001
1.330642e+003, 1.762297e-001
1.332571e+003, 1.710316e-001
1.334499e+003, 1.663054e-001
1.336427e+003, 1.619499e-001
1.338356e+003, 1.574220e-001
1.340284e+003, 1.534963e-001
1.342213e+003, 1.497476e-001
1.344141e+003, 1.462592e-001
1.346070e+003, 1.430443e-001
1.347998e+003, 1.395988e-001
1.349927e+003, 1.364547e-001
1.351855e+003, 1.336596e-001
1.353784e+003, 1.309742e-001
1.355712e+003, 1.282950e-001
1.357641e+003, 1.257234e-001
1.359569e+003, 1.231985e-001
1.361498e+003, 1.210324e-001
1.363426e+003, 1.191391e-001
1.365354e+003, 1.170896e-001
1.367283e+003, 1.149966e-001
1.369211e+003, 1.127510e-001
1.371140e+003, 1.102719e-001
1.373068e+003, 1.079268e-001
1.374997e+003, 1.059316e-001
1.376925e+003, 1.039226e-001
1.378854e+003, 1.019927e-001
1.380782e+003, 1.006417e-001
1.382711e+003, 9.955896e-002
1.384639e+003, 9.816074e-002
1.386568e+003, 9.745371e-002
1.388496e+003, 9.684826e-002
1.390424e+003, 9.589229e-002
1.392353e+003, 9.448149e-002
1.394281e+003, 9.274593e-002
1.396210e+003, 9.070192e-002
1.398138e+003, 8.839779e-002
1.400067e+003, 8.597883e-002
1.401995e+003, 8.379311e-002
1.403924e+003, 8.183104e-002
1.405852e+003, 8.014241e-002
1.407781e+003, 7.914250e-002
1.409709e+003, 7.839509e-002
1.411638e+003, 7.825656e-002
1.413566e+003, 7.838614e-002
1.415495e+003, 7.818025e-002
1.417423e+003, 7.723980e-002
1.419351e+003, 7.568632e-002
1.421280e+003, 7.364264e-002
1.423208e+003, 7.106700e-002
1.425137e+003, 6.761578e-002
1.427065e+003, 6.369088e-002
1.428994e+003, 5.966408e-002
1.430922e+003, 5.560295e-002
1.432851e+003, 5.165528e-002
1.434779e+003, 4.739429e-002
1.436708e+003, 4.306638e-002
1.438636e+003, 3.880698e-002
1.440565e+003, 3.462550e-002
1.442493e+003, 3.074559e-002
1.444422e+003, 2.702431e-002
1.446350e+003, 2.342591e-002
1.448278e+003, 2.033882e-002
1.450207e+003, 1.749958e-002
1.452135e+003, 1.538927e-002
1.454064e+003, 1.397726e-002
1.455992e+003, 1.282370e-002
1.457921e+003, 1.170365e-002
1.459849e+003, 1.101472e-002
1.461778e+003, 1.044651e-002
1.463706e+003, 9.968981e-003
1.465635e+003, 9.383188e-003
1.467563e+003, 8.719819e-003
1.469492e+003, 8.510227e-003
1.471420e+003, 8.732850e-003
1.473349e+003, 8.506492e-003
1.475277e+003, 7.908870e-003
1.477205e+003, 7.574258e-003
1.479134e+003, 7.497615e-003
1.481062e+003, 7.313190e-003
1.482991e+003, 6.980573e-003
1.484919e+003, 6.544952e-003
1.486848e+003, 6.369386e-003
1.488776e+003, 6.262578e-003
1.490705e+003, 6.279418e-003
1.492633e+003, 6.241998e-003
1.494562e+003, 6.140972e-003
1.496490e+003, 6.074918e-003
1.498419e+003, 5.916135e-003
1.500347e+003, 5.696584e-003
1.502276e+003, 5.546807e-003
1.504204e+003, 5.489791e-003
1.506132e+003, 5.226085e-003
1.508061e+003, 4.712772e-003
1.509989e+003, 4.417768e-003
1.511918e+003, 4.470921e-003
1.513846e+003, 4.539805e-003
1.515775e+003, 4.188952e-003
1.517703e+003, 4.303555e-003
1.519632e+003, 4.310037e-003
1.521560e+003, 3.965453e-003
1.523489e+003, 3.522824e-003
1.525417e+003, 3.448884e-003
1.527346e+003, 3.578297e-003
1.529274e+003, 3.481442e-003
1.531203e+003, 3.173521e-003
1.533131e+003, 3.127091e-003
1.535059e+003, 3.226029e-003
1.536988e+003, 3.236633e-003
1.538916e+003, 3.203035e-003
1.540845e+003, 3.128308e-003
1.542773e+003, 2.724412e-003
1.544702e+003, 2.638147e-003
1.546630e+003, 2.861366e-003
1.548559e+003, 2.843188e-003
1.550487e+003, 2.442682e-003
1.552416e+003, 2.212210e-003
1.554344e+003, 2.467470e-003
1.556273e+003, 2.651645e-003
1.558201e+003, 2.781517e-003
1.560130e+003, 2.741982e-003
1.562058e+003, 2.394372e-003
1.563986e+003, 2.395404e-003
1.565915e+003, 2.508335e-003
1.567843e+003, 2.704060e-003
1.569772e+003, 2.859885e-003
1.571700e+003, 2.660626e-003
1.573629e+003, 2.305792e-003
1.575557e+003, 2.300604e-003
1.577486e+003, 2.109822e-003
1.579414e+003, 1.849510e-003
1.581343e+003, 1.986278e-003
1.583271e+003, 2.252127e-003
1.585200e+003, 2.091267e-003
1.587128e+003, 1.963642e-003
1.589057e+003, 1.751790e-003
1.590985e+003, 1.328607e-003
1.592913e+003, 1.598007e-003
1.594842e+003, 1.793982e-003
1.596770e+003, 1.515549e-003
1.598699e+003, 1.369441e-003
1.600627e+003, 1.769916e-003
1.602556e+003, 1.963346e-003
1.604484e+003, 1.641853e-003
1.606413e+003, 1.305974e-003
1.608341e+003, 1.325374e-003
1.610270e+003, 1.791865e-003
1.612198e+003, 1.633416e-003
1.614127e+003, 1.323658e-003
1.616055e+003, 1.275724e-003
1.617984e+003, 1.335683e-003
1.619912e+003, 1.230107e-003
1.621840e+003, 1.184847e-003
1.623769e+003, 1.122935e-003
1.625697e+003, 8.824980e-004
1.627626e+003, 3.719979e-004
1.629554e+003, 1.777696e-004
1.631483e+003, 3.840213e-004
1.633411e+003, 1.032632e-003
1.635340e+003, 7.893239e-004
1.637268e+003, 6.168414e-005
1.639197e+003, -6.305484e-005
1.641125e+003, -5.861611e-005
1.643054e+003, 2.424670e-004
1.644982e+003, 3.164710e-004
1.646911e+003, -3.263140e-005
1.648839e+003, 1.069788e-004
1.650767e+003, 2.685559e-004
1.652696e+003, 4.268754e-004
1.654624e+003, 5.172349e-004
1.656553e+003, -9.088926e-005
1.658481e+003, -3.466100e-004
1.660410e+003, -4.109584e-005
1.662338e+003, -1.700670e-004
1.664267e+003, -4.927631e-004
1.666195e+003, -4.764519e-004
1.668124e+003, -2.587910e-004
1.670052e+003, -4.497941e-004
1.671981e+003, -2.778306e-004
1.673909e+003, 1.091601e-004
1.675838e+003, 2.163664e-004
1.677766e+003, 1.637344e-004
1.679694e+003, -1.159759e-004
1.681623e+003, -3.943837e-004
1.683551e+003, -5.309716e-004
1.685480e+003, -5.347049e-004
1.687408e+003, -2.617828e-004
1.689337e+003, 1.008171e-004
1.691265e+003, -3.771291e-005
1.693194e+003, -3.742757e-004
1.695122e+003, -6.516892e-004
1.697051e+003, -8.404985e-004
1.698979e+003, -7.118888e-004
1.700908e+003, -7.693923e-004
1.702836e+003, -1.007853e-003
1.704765e+003, -1.124172e-003
1.706693e+003, -1.082135e-003
1.708621e+003, -1.000140e-003
1.710550e+003, -1.045756e-003
1.712478e+003, -1.120421e-003
1.714407e+003, -8.507968e-004
1.716335e+003, -2.779813e-004
1.718264e+003, -5.870901e-004
1.720192e+003, -1.230291e-003
1.722121e+003, -1.222441e-003
1.724049e+003, -1.008657e-003
1.725978e+003, -1.107383e-003
1.727906e+003, -1.007140e-003
1.729835e+003, -1.043122e-003
1.731763e+003, -1.297282e-003
1.733692e+003, -1.417078e-003
1.735620e+003, -1.881041e-003
1.737548e+003, -2.128311e-003
1.739477e+003, -2.342951e-003
1.741405e+003, -2.606304e-003
1.743334e+003, -2.774269e-003
1.745262e+003, -2.486378e-003
1.747191e+003, -2.442674e-003
1.749119e+003, -2.166063e-003
1.751048e+003, -1.744263e-003
1.752976e+003, -1.765481e-003
1.754905e+003, -1.937380e-003
1.756833e+003, -1.844686e-003
1.758762e+003, -1.498757e-003
1.760690e+003, -8.769705e-004
1.762619e+003, -9.516638e-004
1.764547e+003, -1.194885e-003
1.766475e+003, -8.032612e-004
1.768404e+003, -8.169567e-004
1.770332e+003, -9.195634e-004
1.772261e+003, -5.372377e-004
1.774189e+003, -7.586720e-004
1.776118e+003, -1.123569e-003
1.778046e+003, -7.378380e-004
1.779975e+003, -1.999320e-005
1.781903e+003, -1.405179e-005
1.783832e+003, -3.443906e-004
1.785760e+003, -4.311071e-004
1.787689e+003, -5.723977e-004
1.789617e+003, -5.632383e-004
1.791546e+003, -4.442506e-004
1.793474e+003, -5.100564e-004
1.795402e+003, -7.226341e-004
1.797331e+003, -6.302909e-004
1.799259e+003, -5.875405e-004
1.801188e+003, -7.623469e-004
1.803116e+003, -9.004297e-004
1.805045e+003, -1.291097e-003
1.806973e+003, -1.279386e-003
1.808902e+003, -8.223139e-004
1.810830e+003, -7.913034e-004
1.812759e+003, -1.474212e-003
1.814687e+003, -1.492404e-003
1.816616e+003, -5.136301e-004
1.818544e+003, -1.874333e-004
1.820473e+003, -7.638201e-004
1.822401e+003, -1.010296e-003
1.824329e+003, -1.036116e-003
1.826258e+003, -8.680435e-004
1.828186e+003, -8.657532e-004
1.830115e+003, -6.822002e-004
1.832043e+003, -5.065266e-004
1.833972e+003, -3.425909e-004
1.835900e+003, -3.597938e-004
1.837829e+003, -1.082156e-003
1.839757e+003, -6.395044e-004
1.841686e+003, 2.501093e-004
1.843614e+003, 1.753371e-004
1.845543e+003, 1.094053e-004
1.847471e+003, 3.042402e-005
1.849400e+003, -2.276770e-004
1.851328e+003, -6.734369e-004
1.853256e+003, -9.176174e-004
1.855185e+003, -8.097645e-004
1.857113e+003, -9.877487e-004
1.859042e+003, -4.923224e-004
1.860970e+003, 2.796215e-004
1.862899e+003, -9.400227e-005
1.864827e+003, -1.296235e-004
1.866756e+003, 8.857856e-005
1.868684e+003, -1.505064e-004
1.870613e+003, -1.238285e-004
1.872541e+003, 7.777939e-004
1.874470e+003, 1.229626e-003
1.876398e+003, 9.090980e-004
1.878327e+003, 7.338499e-004
1.880255e+003, 7.025528e-004
1.882183e+003, 8.487203e-004
1.884112e+003, 4.168146e-004
1.886040e+003, 4.220557e-004
1.887969e+003, 5.709601e-004
1.889897e+003, 7.027712e-004
1.891826e+003, 9.693502e-004
1.893754e+003, 2.333919e-004
1.895683e+003, -8.648707e-005
1.897611e+003, 4.036707e-005
1.899540e+003, 1.237498e-003
1.901468e+003, 1.857346e-003
1.903397e+003, 1.254981e-003
1.905325e+003, 4.265606e-004
1.907254e+003, 2.230814e-005
1.909182e+003, 4.402724e-004
1.911110e+003, 5.129466e-004
1.913039e+003, -7.001281e-004
1.914967e+003, -7.622634e-004
1.916896e+003, -6.156724e-004
1.918824e+003, -8.034979e-004
1.920753e+003, -9.022144e-004
1.922681e+003, -7.351006e-004
1.924610e+003, -1.005594e-004
1.926538e+003, -3.772377e-004
1.928467e+003, -7.369296e-004
1.930395e+003, -7.487221e-004
1.932324e+003, -3.126432e-004
1.934252e+003, -1.401495e-003
1.936181e+003, -2.658547e-003
1.938109e+003, -2.969434e-003
1.940037e+003, -1.519267e-003
1.941966e+003, -7.866389e-004
1.943894e+003, -9.557403e-004
1.945823e+003, -4.623382e-004
1.947751e+003, 6.346354e-004
1.949680e+003, 1.636238e-003
1.951608e+003, 1.399593e-003
1.953537e+003, 1.545701e-003
1.955465e+003, -3.551828e-004
1.957394e+003, -2.329300e-003
1.959322e+003, -1.741196e-003
1.961251e+003, 3.207572e-004
1.963179e+003, 1.222912e-005
1.965108e+003, -1.242603e-003
1.967036e+003, -6.494911e-004
1.968964e+003, 1.881430e-003
1.970893e+003, 4.284991e-004
1.972821e+003, -1.899304e-003
1.974750e+003, -1.663942e-003
1.976678e+003, -1.540967e-004
1.978607e+003, 1.671418e-003
1.980535e+003, 2.070998e-003
1.982464e+003, 1.366455e-003
1.984392e+003, 1.192495e-003
1.986321e+003, 1.847952e-003
1.988249e+003, 1.342136e-003
1.990178e+003, 5.189841e-005
1.992106e+003, 5.951875e-004
1.994035e+003, 7.571676e-004
1.995963e+003, 1.007480e-003
1.997891e+003, -9.306449e-004
1.999820e+003, -1.525802e-003
2.001748e+003, -4.967063e-004
2.003677e+003, -1.093418e-003
2.005605e+003, -3.008081e-003
2.007534e+003, -1.380280e-003
2.009462e+003, 9.280416e-004
2.011391e+003, 5.771690e-005
2.013319e+003, -4.181679e-004
2.015248e+003, -8.473122e-005
2.017176e+003, 5.718452e-004
2.019105e+003, 2.155055e-003
2.021033e+003, 1.029387e-003
2.022962e+003, 3.945536e-004
2.024890e+003, 2.120876e-003
2.026818e+003, -8.077256e-004
2.028747e+003, -4.955922e-003
2.030675e+003, -2.973062e-003
2.032604e+003, 2.134528e-004
2.034532e+003, 9.728901e-004
2.036461e+003, -9.804924e-004
2.038389e+003, -1.263583e-003
2.040318e+003, -6.235624e-004
2.042246e+003, 1.325927e-003
2.044175e+003, 2.152957e-003
2.046103e+003, 1.377455e-003
2.048032e+003, 3.046738e-004
2.049960e+003, -3.399600e-004
2.051889e+003, -8.651270e-004
2.053817e+003, 3.011776e-004
2.055746e+003, 4.704591e-004
2.057674e+003, -8.109627e-004
2.059603e+003, 3.907080e-004
2.061531e+003, 1.813949e-003
2.063459e+003, 1.774883e-003
2.065388e+003, 8.469363e-004
2.067316e+003, 1.571498e-003
2.069245e+003, 2.960736e-003
2.071173e+003, 2.167152e-003
2.073102e+003, 1.305992e-003
2.075030e+003, 4.599769e-005
2.076959e+003, -3.132053e-004
2.078887e+003, 8.704672e-004
2.080816e+003, 9.304892e-004
2.082744e+003, 5.000446e-004
2.084673e+003, 1.713957e-003
2.086601e+003, 1.955797e-003
2.088530e+003, 4.123958e-004
2.090458e+003, -5.567917e-004
2.092386e+003, -1.504432e-005
2.094315e+003, 1.880054e-004
2.096243e+003, 4.713183e-004
2.098172e+003, 1.728120e-003
2.100100e+003, 1.066384e-003
2.102029e+003, -5.794326e-004
2.103957e+003, -5.116762e-005
2.105886e+003, 1.158605e-003
2.107814e+003, 1.373184e-003
2.109743e+003, 1.226103e-003
2.111671e+003, 7.728444e-004
2.113600e+003, 4.734291e-005
2.115528e+003, -9.724876e-004
2.117457e+003, -8.914403e-004
2.119385e+003, -9.574948e-004
2.121313e+003, 5.841092e-005
2.123242e+003, 1.717473e-003
2.125170e+003, 1.401064e-003
2.127099e+003, 9.909931e-005
2.129027e+003, 7.212335e-004
2.130956e+003, 1.724916e-003
2.132884e+003, 7.320882e-004
2.134813e+003, 2.257210e-003
2.136741e+003, 1.915385e-003
2.138670e+003, 2.328064e-003
2.140598e+003, 9.755405e-004
2.142527e+003, -1.851366e-003
2.144455e+003, -3.989564e-004
2.146384e+003, 1.048874e-003
2.148312e+003, -1.053259e-003
2.150240e+003, -2.343407e-003
2.152169e+003, -1.147174e-003
2.154097e+003, -1.275867e-003
2.156026e+003, -2.771683e-003
2.157954e+003, -1.843503e-003
2.159883e+003, 2.615288e-003
2.161811e+003, 3.699208e-003
2.163740e+003, 2.647781e-003
2.165668e+003, 3.165946e-003
2.167597e+003, 4.264622e-003
2.169525e+003, 1.981367e-003
2.171454e+003, -1.452252e-003
2.173382e+003, -1.317349e-003
2.175311e+003, 1.696625e-003
2.177239e+003, 2.057960e-003
2.179167e+003, 1.546586e-003
2.181096e+003, 2.814918e-003
2.183024e+003, 1.944552e-003
2.184953e+003, 1.471002e-003
2.186881e+003, 3.427167e-003
2.188810e+003, 3.817637e-003
2.190738e+003, 2.658763e-003
2.192667e+003, 3.312506e-003
2.194595e+003, 2.702238e-003
2.196524e+003, 3.414707e-004
2.198452e+003, -2.445775e-004
2.200381e+003, 5.501725e-004
2.202309e+003, 1.332802e-003
2.204238e+003, 2.416645e-003
2.206166e+003, 1.659912e-003
2.208094e+003, 1.834636e-003
2.210023e+003, 2.005511e-003
2.211951e+003, 4.932603e-005
2.213880e+003, -1.087676e-003
2.215808e+003, 1.831997e-003
2.217737e+003, 1.556884e-003
2.219665e+003, 1.024974e-003
2.221594e+003, 8.737090e-004
2.223522e+003, 2.961751e-005
2.225451e+003, -1.555213e-003
2.227379e+003, -1.493118e-003
2.229308e+003, -7.668681e-004
2.231236e+003, 3.537450e-004
2.233165e+003, 1.398825e-003
2.235093e+003, 3.076843e-004
2.237021e+003, -1.496103e-003
2.238950e+003, -8.197148e-005
2.240878e+003, 1.187452e-003
2.242807e+003, 8.843575e-004
2.244735e+003, 1.526149e-003
2.246664e+003, -1.317598e-005
2.248592e+003, -1.497593e-003
2.250521e+003, -8.544836e-004
2.252449e+003, -8.703529e-004
2.254378e+003, -1.854007e-003
2.256306e+003, -1.397474e-003
2.258235e+003, 6.297001e-004
2.260163e+003, 2.250426e-003
2.262092e+003, 2.024070e-003
2.264020e+003, 3.196226e-003
2.265948e+003, 3.706163e-003
2.267877e+003, 2.471501e-003
2.269805e+003, 1.249392e-003
2.271734e+003, 1.386123e-003
2.273662e+003, 1.118840e-003
2.275591e+003, 8.601549e-004
2.277519e+003, 1.975188e-003
2.279448e+003, 3.017985e-003
2.281376e+003, 1.562568e-003
2.283305e+003, 1.583363e-003
2.285233e+003, 2.077479e-003
2.287162e+003, 1.081480e-003
2.289090e+003, 1.334813e-003
2.291019e+003, 1.924146e-003
2.292947e+003, 1.695905e-003
2.294875e+003, 1.479819e-003
2.296804e+003, 1.643109e-003
2.298732e+003, 2.178141e-003
2.300661e+003, 2.085928e-003
2.302589e+003, 8.645568e-004
2.304518e+003, 3.787309e-004
2.306446e+003, 2.108702e-004
2.308375e+003, -7.854783e-005
2.310303e+003, -2.847608e-005
2.312232e+003, 7.381366e-004
2.314160e+003, 5.880583e-004
2.316089e+003, 7.028895e-004
2.318017e+003, 1.066853e-003
2.319946e+003, 1.993574e-003
2.321874e+003, 3.244095e-003
2.323802e+003, 3.242773e-003
2.325731e+003, 1.708651e-003
2.327659e+003, 7.730856e-004
2.329588e+003, 1.545803e-003
2.331516e+003, 1.876348e-003
2.333445e+003, 1.254308e-003
2.335373e+003, 1.493069e-003
2.337302e+003, 1.281659e-003
2.339230e+003, 1.057994e-003
2.341159e+003, 1.703590e-003
2.343087e+003, 2.190681e-003
2.345016e+003, 1.761035e-003
2.346944e+003, 1.294110e-003
2.348873e+003, 1.202055e-003
2.350801e+003, 2.132793e-003
2.352729e+003, 2.527867e-003
2.354658e+003, 3.054724e-003
2.356586e+003, 2.882907e-003
2.358515e+003, 2.120449e-003
2.360443e+003, 1.463825e-003
2.362372e+003, 1.364534e-003
2.364300e+003, 2.118272e-003
2.366229e+003, 1.425566e-003
2.368157e+003, 9.441512e-004
2.370086e+003, 1.414521e-003
2.372014e+003, 1.443375e-003
2.373942e+003, 1.466919e-003
2.375871e+003, 1.983658e-003
2.377799e+003, 1.502361e-003
2.379728e+003, 9.203525e-004
2.381656e+003, 1.135800e-003
2.383585e+003, 1.589859e-003
2.385513e+003, 1.199519e-003
2.387442e+003, 8.771773e-004
2.389370e+003, 9.183764e-004
2.391299e+003, 3.108791e-004
2.393227e+003, 7.334414e-004
2.395156e+003, 2.412678e-003
2.397084e+003, 2.363830e-003
2.399012e+003, 1.785182e-003
2.400941e+003, 2.233451e-003
2.402869e+003, 2.172773e-003
2.404798e+003, 1.129686e-003
2.406726e+003, 1.001194e-003
2.408655e+003, 1.772771e-003
2.410583e+003, 2.673864e-003
2.412512e+003, 2.715834e-003
2.414440e+003, 2.590562e-003
2.416369e+003, 2.046751e-003
2.418297e+003, 8.569974e-004
2.420226e+003, 2.389989e-004
2.422154e+003, 1.167968e-003
2.424083e+003, 1.613492e-003
2.426011e+003, 1.913015e-003
2.427939e+003, 1.730557e-003
2.429868e+003, 1.130904e-003
2.431796e+003, 8.003347e-004
2.433725e+003, 9.436571e-004
2.435653e+003, 1.803636e-003
2.437582e+003, 1.997230e-003
2.439510e+003, 1.570413e-003
2.441439e+003, 1.598228e-003
2.443367e+003, 1.167742e-003
2.445296e+003, 1.370179e-004
2.447224e+003, -3.627998e-004
2.449153e+003, -4.998743e-005
2.451081e+003, 1.011272e-003
2.453010e+003, 1.761533e-003
2.454938e+003, 2.031336e-003
2.456866e+003, 7.487086e-004
2.458795e+003, -3.382906e-004
2.460723e+003, -1.365602e-004
2.462652e+003, -1.528214e-004
2.464580e+003, 9.989411e-004
2.466509e+003, 1.553745e-003
2.468437e+003, 8.709190e-004
2.470366e+003, -1.726145e-004
2.472294e+003, -1.037797e-003
2.474223e+003, -1.555774e-003
2.476151e+003, -1.186699e-003
2.478080e+003, -3.785370e-004
2.480008e+003, 1.058436e-004
2.481937e+003, 1.727929e-004
2.483865e+003, -1.599803e-004
2.485793e+003, -7.680217e-004
2.487722e+003, -8.630914e-004
2.489650e+003, 4.781479e-004
2.491579e+003, 3.552145e-004
2.493507e+003, -3.473613e-004
2.495436e+003, -6.435855e-004
2.497364e+003, -3.084398e-004
2.499293e+003, -1.406051e-004
2.501221e+003, -4.849624e-004
2.503150e+003, -1.437386e-003
2.505078e+003, -1.526937e-003
2.507007e+003, -3.744028e-004
2.508935e+003, -8.898881e-004
2.510864e+003, -1.444806e-003
2.512792e+003, -1.762001e-003
2.514720e+003, -2.606309e-003
2.516649e+003, -2.615462e-003
2.518577e+003, -1.369402e-003
2.520506e+003, 1.588562e-004
2.522434e+003, 1.785381e-004
2.524363e+003, -9.630530e-004
2.526291e+003, -2.187155e-003
2.528220e+003, -1.707331e-003
2.530148e+003, -2.069673e-003
2.532077e+003, -2.954855e-003
2.534005e+003, -2.311894e-003
2.535934e+003, -2.219989e-003
2.537862e+003, -2.442701e-003
2.539791e+003, -3.352206e-003
2.541719e+003, -4.023221e-003
2.543647e+003, -3.781544e-003
2.545576e+003, -3.022508e-003
2.547504e+003, -3.162674e-003
2.549433e+003, -3.237589e-003
2.551361e+003, -2.679368e-003
2.553290e+003, -2.215680e-003
2.555218e+003, -2.600559e-003
2.557147e+003, -3.353911e-003
2.559075e+003, -3.547562e-003
2.561004e+003, -3.542792e-003
2.562932e+003, -3.078092e-003
2.564861e+003, -2.526856e-003
2.566789e+003, -2.344605e-003
2.568718e+003, -2.973591e-003
2.570646e+003, -3.950190e-003
2.572574e+003, -3.927671e-003
2.574503e+003, -3.484679e-003
2.576431e+003, -3.134571e-003
2.578360e+003, -3.361207e-003
2.580288e+003, -3.142845e-003
2.582217e+003, -2.231560e-003
2.584145e+003, -1.498603e-003
2.586074e+003, -3.132289e-003
2.588002e+003, -3.938066e-003
2.589931e+003, -4.076961e-003
2.591859e+003, -3.770882e-003
2.593788e+003, -3.283891e-003
2.595716e+003, -3.083844e-003
2.597645e+003, -2.856330e-003
2.599573e+003, -2.392515e-003
2.601501e+003, -2.660219e-003
2.603430e+003, -2.644205e-003
2.605358e+003, -2.687588e-003
2.607287e+003, -3.197438e-003
2.609215e+003, -2.958131e-003
2.611144e+003, -2.715566e-003
2.613072e+003, -2.558718e-003
2.615001e+003, -1.822599e-003
2.616929e+003, -1.961235e-003
2.618858e+003, -2.690866e-003
2.620786e+003, -1.544394e-003
2.622715e+003, -6.035422e-004
2.624643e+003, -4.431746e-004
2.626572e+003, -2.615790e-004
2.628500e+003, -7.838086e-005
2.630428e+003, -6.311889e-004
2.632357e+003, -1.549470e-003
2.634285e+003, -9.571107e-004
2.636214e+003, 4.407576e-004
2.638142e+003, -2.197335e-004
2.640071e+003, -4.717497e-004
2.641999e+003, 6.972061e-004
2.643928e+003, 4.570335e-004
2.645856e+003, -2.866383e-004
2.647785e+003, 6.834511e-005
2.649713e+003, 4.815724e-004
2.651642e+003, 3.704757e-004
2.653570e+003, 3.280013e-004
2.655499e+003, 9.441434e-005
2.657427e+003, -2.186107e-004
2.659355e+003, -5.906613e-004
2.661284e+003, -1.038703e-004
2.663212e+003, 2.830299e-004
2.665141e+003, -1.591181e-004
2.667069e+003, 2.896273e-004
2.668998e+003, 4.651713e-004
2.670926e+003, -5.620068e-004
2.672855e+003, -1.637781e-003
2.674783e+003, -9.645634e-004
2.676712e+003, 1.393408e-004
2.678640e+003, 4.757309e-004
2.680569e+003, 2.362585e-005
2.682497e+003, 2.615201e-004
2.684426e+003, 7.936672e-004
2.686354e+003, 9.650869e-004
2.688282e+003, 1.069195e-003
2.690211e+003, 1.121354e-003
2.692139e+003, 1.089211e-003
2.694068e+003, 8.849543e-004
2.695996e+003, 2.467534e-004
2.697925e+003, 7.571364e-004
2.699853e+003, 1.079170e-003
2.701782e+003, 1.127162e-003
2.703710e+003, 8.430963e-004
2.705639e+003, 3.143174e-004
2.707567e+003, 5.665096e-004
2.709496e+003, 5.485796e-004
2.711424e+003, 5.880356e-004
2.713353e+003, 4.709374e-004
2.715281e+003, 3.859454e-004
2.717209e+003, 1.226501e-003
2.719138e+003, 9.820167e-004
2.721066e+003, 3.558175e-004
2.722995e+003, 4.444792e-004
2.724923e+003, 9.082233e-004
2.726852e+003, 1.615874e-003
2.728780e+003, 2.184248e-003
2.730709e+003, 1.715422e-003
2.732637e+003, 6.440847e-004
2.734566e+003, 3.774935e-004
2.736494e+003, 1.203006e-003
2.738423e+003, 1.336465e-003
2.740351e+003, 1.028750e-003
2.742280e+003, 7.361286e-004
2.744208e+003, 1.373868e-003
2.746136e+003, 1.845948e-003
2.748065e+003, 1.412751e-003
2.749993e+003, 2.236626e-003
2.751922e+003, 2.783280e-003
2.753850e+003, 1.768115e-003
2.755779e+003, 1.052894e-003
2.757707e+003, 8.960657e-004
2.759636e+003, 1.637309e-003
2.761564e+003, 8.798109e-004
2.763493e+003, 1.308609e-004
2.765421e+003, 9.562429e-004
2.767350e+003, 9.525298e-004
2.769278e+003, 6.441371e-004
2.771207e+003, 1.140799e-003
2.773135e+003, 1.127157e-003
2.775063e+003, 8.830464e-004
2.776992e+003, 7.115646e-004
2.778920e+003, 1.778116e-003
2.780849e+003, 2.760405e-003
2.782777e+003, 2.057098e-003
2.784706e+003, 4.792111e-004
2.786634e+003, -4.325800e-004
2.788563e+003, 4.337075e-004
2.790491e+003, 1.417891e-003
2.792420e+003, 4.830078e-004
2.794348e+003, 7.537426e-004
2.796277e+003, 1.727614e-003
2.798205e+003, 1.334036e-003
2.800134e+003, 1.176587e-003
2.802062e+003, 1.477528e-003
2.803990e+003, 2.447402e-003
2.805919e+003, 2.681506e-003
2.807847e+003, 2.146553e-003
2.809776e+003, 1.613081e-003
2.811704e+003, 1.016929e-003
2.813633e+003, 6.650658e-004
2.815561e+003, -5.815891e-005
2.817490e+003, -6.477344e-004
2.819418e+003, 4.105932e-004
2.821347e+003, 1.527729e-003
2.823275e+003, 1.863708e-003
2.825204e+003, 1.105838e-003
2.827132e+003, -6.773311e-005
2.829061e+003, 5.701049e-004
2.830989e+003, 6.873636e-004
2.832917e+003, 7.512193e-004
2.834846e+003, 1.508172e-003
2.836774e+003, 9.780120e-004
2.838703e+003, 5.480332e-004
2.840631e+003, 1.112439e-003
2.842560e+003, 2.034262e-003
2.844488e+003, 1.368366e-003
2.846417e+003, -1.673440e-004
2.848345e+003, -5.480747e-004
2.850274e+003, 3.129495e-004
2.852202e+003, 1.372264e-003
2.854131e+003, 1.423988e-003
2.856059e+003, 1.556843e-003
2.857988e+003, 2.335098e-003
2.859916e+003, 2.339847e-003
2.861844e+003, 7.677840e-004
2.863773e+003, 4.570165e-004
2.865701e+003, 9.986731e-004
2.867630e+003, 4.338333e-006
2.869558e+003, -2.890627e-004
2.871487e+003, 8.261816e-004
2.873415e+003, 1.968344e-003
2.875344e+003, 2.668747e-003
2.877272e+003, 2.139869e-003
2.879201e+003, 1.512383e-003
2.881129e+003, 1.880483e-003
2.883058e+003, 2.164686e-003
2.884986e+003, 2.936897e-003
2.886915e+003, 3.016908e-003
2.888843e+003, 2.070865e-003
2.890771e+003, 1.917514e-003
2.892700e+003, 1.746608e-003
2.894628e+003, 1.915649e-003
2.896557e+003, 1.855565e-003
2.898485e+003, 2.405443e-003
2.900414e+003, 3.151624e-003
2.902342e+003, 2.749160e-003
2.904271e+003, 2.211001e-003
2.906199e+003, 1.223134e-003
2.908128e+003, 1.608360e-003
2.910056e+003, 2.941743e-003
2.911985e+003, 3.355215e-003
2.913913e+003, 2.392247e-003
2.915842e+003, 7.305588e-004
2.917770e+003, 9.458615e-004
2.919698e+003, 1.725456e-003
2.921627e+003, 2.357982e-003
2.923555e+003, 2.756320e-003
2.925484e+003, 2.550323e-003
2.927412e+003, 3.488751e-003
2.929341e+003, 4.850509e-003
2.931269e+003, 3.840937e-003
2.933198e+003, 2.421007e-003
2.935126e+003, 2.084782e-003
2.937055e+003, 2.622661e-003
2.938983e+003, 2.412358e-003
2.940912e+003, 3.206338e-003
2.942840e+003, 3.700698e-003
2.944769e+003, 3.419824e-003
2.946697e+003, 2.670655e-003
2.948625e+003, 2.817541e-003
2.950554e+003, 3.448745e-003
2.952482e+003, 3.128502e-003
2.954411e+003, 3.129754e-003
2.956339e+003, 3.476810e-003
2.958268e+003, 3.761565e-003
2.960196e+003, 3.421059e-003
2.962125e+003, 3.543887e-003
2.964053e+003, 3.277571e-003
2.965982e+003, 3.838505e-003
2.967910e+003, 4.375714e-003
2.969839e+003, 4.516084e-003
2.971767e+003, 5.446922e-003
2.973696e+003, 4.159138e-003
2.975624e+003, 2.321286e-003
2.977552e+003, 1.970403e-003
2.979481e+003, 2.232957e-003
2.981409e+003, 2.756855e-003
2.983338e+003, 3.562552e-003
2.985266e+003, 4.632616e-003
2.987195e+003, 5.362057e-003
2.989123e+003, 4.276458e-003
2.991052e+003, 3.558779e-003
2.992980e+003, 4.267901e-003
2.994909e+003, 5.080694e-003
2.996837e+003, 4.790104e-003
2.998766e+003, 4.910298e-003
3.000694e+003, 4.330948e-003
3.002623e+003, 3.734204e-003
3.004551e+003, 3.813126e-003
3.006479e+003, 3.342649e-003
3.008408e+003, 2.330731e-003
3.010336e+003, 2.269541e-003
3.012265e+003, 4.347375e-003
3.014193e+003, 6.272533e-003
3.016122e+003, 5.217060e-003
3.018050e+003, 2.831163e-003
3.019979e+003, 2.341710e-003
3.021907e+003, 2.768437e-003
3.023836e+003, 3.564978e-003
3.025764e+003, 4.924254e-003
3.027693e+003, 5.076983e-003
3.029621e+003, 5.314328e-003
3.031550e+003, 4.051029e-003
3.033478e+003, 2.826498e-003
3.035406e+003, 3.457210e-003
3.037335e+003, 4.115457e-003
3.039263e+003, 4.721263e-003
3.041192e+003, 5.010798e-003
3.043120e+003, 5.284751e-003
3.045049e+003, 3.962405e-003
3.046977e+003, 2.452244e-003
3.048906e+003, 1.514304e-003
3.050834e+003, 1.919193e-003
3.052763e+003, 2.233433e-003
3.054691e+003, 4.432345e-003
3.056620e+003, 7.458808e-003
3.058548e+003, 7.462617e-003
3.060477e+003, 6.614431e-003
3.062405e+003, 6.101311e-003
3.064333e+003, 5.660817e-003
3.066262e+003, 4.352733e-003
3.068190e+003, 4.300647e-003
3.070119e+003, 4.567699e-003
3.072047e+003, 3.168423e-003
3.073976e+003, 1.398828e-003
3.075904e+003, 2.318459e-003
3.077833e+003, 3.914966e-003
3.079761e+003, 3.928025e-003
3.081690e+003, 3.053058e-003
3.083618e+003, 3.359532e-003
3.085547e+003, 4.211592e-003
3.087475e+003, 4.501089e-003
3.089404e+003, 4.695356e-003
3.091332e+003, 3.692468e-003
3.093260e+003, 3.828196e-003
3.095189e+003, 3.935656e-003
3.097117e+003, 4.010755e-003
3.099046e+003, 4.489182e-003
3.100974e+003, 4.033478e-003
3.102903e+003, 4.050247e-003
3.104831e+003, 4.016729e-003
3.106760e+003, 4.678104e-003
3.108688e+003, 6.448037e-003
3.110617e+003, 7.388062e-003
3.112545e+003, 5.240424e-003
3.114474e+003, 5.519687e-003
3.116402e+003, 5.548791e-003
3.118331e+003, 4.853053e-003
3.120259e+003, 3.690307e-003
3.122188e+003, 3.356365e-003
3.124116e+003, 5.618949e-003
3.126044e+003, 6.442110e-003
3.127973e+003, 5.602675e-003
3.129901e+003, 5.013034e-003
3.131830e+003, 6.129172e-003
3.133758e+003, 6.201931e-003
3.135687e+003, 5.161490e-003
3.137615e+003, 5.911998e-003
3.139544e+003, 6.200574e-003
3.141472e+003, 5.555392e-003
3.143401e+003, 5.694906e-003
3.145329e+003, 4.689869e-003
3.147258e+003, 4.895965e-003
3.149186e+003, 5.210271e-003
3.151115e+003, 5.773144e-003
3.153043e+003, 6.010867e-003
3.154971e+003, 6.763901e-003
3.156900e+003, 6.553189e-003
3.158828e+003, 5.224858e-003
3.160757e+003, 4.547301e-003
3.162685e+003, 5.196735e-003
3.164614e+003, 6.595121e-003
3.166542e+003, 6.923254e-003
3.168471e+003, 6.907845e-003
3.170399e+003, 5.556055e-003
3.172328e+003, 5.296778e-003
3.174256e+003, 6.065779e-003
3.176185e+003, 6.299179e-003
3.178113e+003, 7.528546e-003
3.180042e+003, 6.948850e-003
3.181970e+003, 6.613706e-003
3.183898e+003, 7.800667e-003
3.185827e+003, 6.951520e-003
3.187755e+003, 6.553140e-003
3.189684e+003, 7.683054e-003
3.191612e+003, 7.143987e-003
3.193541e+003, 6.711439e-003
3.195469e+003, 7.403383e-003
3.197398e+003, 7.587650e-003
3.199326e+003, 7.418820e-003
3.201255e+003, 5.815155e-003
3.203183e+003, 5.870777e-003
3.205112e+003, 6.663086e-003
3.207040e+003, 8.315349e-003
3.208969e+003, 7.920367e-003
3.210897e+003, 6.374434e-003
3.212825e+003, 7.094207e-003
3.214754e+003, 6.809537e-003
3.216682e+003, 6.360331e-003
3.218611e+003, 7.517576e-003
3.220539e+003, 8.607152e-003
3.222468e+003, 7.293871e-003
3.224396e+003, 6.747728e-003
3.226325e+003, 7.721757e-003
3.228253e+003, 8.388322e-003
3.230182e+003, 1.141569e-002
3.232110e+003, 1.224092e-002
3.234039e+003, 1.135986e-002
3.235967e+003, 9.208406e-003
3.237896e+003, 9.219185e-003
3.239824e+003, 1.021264e-002
3.241752e+003, 9.555210e-003
3.243681e+003, 8.751621e-003
3.245609e+003, 1.024637e-002
3.247538e+003, 1.196485e-002
3.249466e+003, 1.308594e-002
3.251395e+003, 1.367936e-002
3.253323e+003, 1.299061e-002
3.255252e+003, 1.129639e-002
3.257180e+003, 1.111891e-002
3.259109e+003, 1.247270e-002
3.261037e+003, 1.264208e-002
3.262966e+003, 1.310451e-002
3.264894e+003, 1.323258e-002
3.266823e+003, 1.505655e-002
3.268751e+003, 1.561965e-002
3.270679e+003, 1.503983e-002
3.272608e+003, 1.384800e-002
3.274536e+003, 1.262479e-002
3.276465e+003, 1.236784e-002
3.278393e+003, 1.216870e-002
3.280322e+003, 1.184801e-002
3.282250e+003, 1.357310e-002
3.284179e+003, 1.492683e-002
3.286107e+003, 1.603464e-002
3.288036e+003, 1.618608e-002
3.289964e+003, 1.568178e-002
3.291893e+003, 1.464812e-002
3.293821e+003, 1.540745e-002
3.295750e+003, 1.682379e-002
3.297678e+003, 1.464892e-002
3.299606e+003, 1.318557e-002
3.301535e+003, 1.380350e-002
3.303463e+003, 1.440714e-002
3.305392e+003, 1.295769e-002
3.307320e+003, 1.303370e-002
3.309249e+003, 1.341202e-002
3.311177e+003, 1.468517e-002
3.313106e+003, 1.495536e-002
3.315034e+003, 1.520638e-002
3.316963e+003, 1.546715e-002
3.318891e+003, 1.495126e-002
3.320820e+003, 1.498618e-002
3.322748e+003, 1.419992e-002
3.324677e+003, 1.360264e-002
3.326605e+003, 1.359240e-002
3.328533e+003, 1.339789e-002
3.330462e+003, 1.369471e-002
3.332390e+003, 1.535585e-002
3.334319e+003, 1.499642e-002
3.336247e+003, 1.469238e-002
3.338176e+003, 1.749055e-002
3.340104e+003, 2.080504e-002
3.342033e+003, 1.980560e-002
3.343961e+003, 1.705554e-002
3.345890e+003, 1.664300e-002
3.347818e+003, 1.889932e-002
3.349747e+003, 2.084517e-002
3.351675e+003, 2.095665e-002
3.353604e+003, 2.130874e-002
3.355532e+003, 2.251976e-002
3.357460e+003, 2.382722e-002
3.359389e+003, 2.486929e-002
3.361317e+003, 2.536558e-002
3.363246e+003, 2.616705e-002
3.365174e+003, 2.756694e-002
3.367103e+003, 3.114991e-002
3.369031e+003, 3.306695e-002
3.370960e+003, 3.397887e-002
3.372888e+003, 3.645190e-002
3.374817e+003, 3.851290e-002
3.376745e+003, 3.952285e-002
3.378674e+003, 4.247734e-002
3.380602e+003, 4.695130e-002
3.382531e+003, 5.138084e-002
3.384459e+003, 5.391235e-002
3.386387e+003, 5.784533e-002
3.388316e+003, 6.471983e-002
3.390244e+003, 7.030868e-002
3.392173e+003, 7.692127e-002
3.394101e+003, 8.518787e-002
3.396030e+003, 9.434884e-002
3.397958e+003, 1.029377e-001
3.399887e+003, 1.091652e-001
3.401815e+003, 1.129155e-001
3.403744e+003, 1.102178e-001
3.405672e+003, 1.018760e-001
3.407601e+003, 9.014171e-002
3.409529e+003, 7.694293e-002
3.411458e+003, 6.679941e-002
3.413386e+003, 5.768634e-002
3.415314e+003, 4.906784e-002
3.417243e+003, 4.298614e-002
3.419171e+003, 3.843323e-002
3.421100e+003, 3.467664e-002
3.423028e+003, 2.906676e-002
3.424957e+003, 2.675371e-002
3.426885e+003, 2.596575e-002
3.428814e+003, 2.351021e-002
3.430742e+003, 2.174639e-002
3.432671e+003, 2.273774e-002
3.434599e+003, 2.389768e-002
3.436528e+003, 2.205438e-002
3.438456e+003, 2.158456e-002
3.440385e+003, 2.240183e-002
3.442313e+003, 2.293062e-002
3.444241e+003, 2.369274e-002
3.446170e+003, 2.502398e-002
3.448098e+003, 2.711781e-002
3.450027e+003, 2.960344e-002
3.451955e+003, 3.219185e-002
3.453884e+003, 3.489930e-002
3.455812e+003, 3.881912e-002
3.457741e+003, 4.661680e-002
3.459669e+003, 5.409902e-002
3.461598e+003, 6.247183e-002
3.463526e+003, 7.217263e-002
3.465455e+003, 8.020876e-002
3.467383e+003, 8.670110e-002
3.469312e+003, 8.650105e-002
3.471240e+003, 8.182049e-002
3.473168e+003, 7.218944e-002
3.475097e+003, 5.435387e-002
3.477025e+003, 3.783060e-002
3.478954e+003, 3.103171e-002
3.480882e+003, 2.565103e-002
3.482811e+003, 2.038336e-002
3.484739e+003, 1.560494e-002
3.486668e+003, 1.240657e-002
3.488596e+003, 1.028291e-002
3.490525e+003, 7.866191e-003
3.492453e+003, 7.927069e-003
3.494382e+003, 8.026773e-003
3.496310e+003, 5.716786e-003
3.498239e+003, 5.599873e-003
3.500167e+003, 5.067601e-003
3.502095e+003, 4.644682e-003
3.504024e+003, 5.322145e-003
3.505952e+003, 5.138218e-003
3.507881e+003, 3.749899e-003
3.509809e+003, 3.240723e-003
3.511738e+003, 4.559784e-003
3.513666e+003, 5.546514e-003
3.515595e+003, 7.846346e-003
3.517523e+003, 8.294011e-003
3.519452e+003, 8.506806e-003
3.521380e+003, 7.526574e-003
3.523309e+003, 2.761207e-003
3.525237e+003, 2.501092e-003
3.527166e+003, 4.433065e-003
3.529094e+003, 4.226641e-003
3.531022e+003, 6.099118e-003
3.532951e+003, 6.370905e-003
3.534879e+003, 5.447408e-003
3.536808e+003, 5.132526e-003
3.538736e+003, 4.378935e-003
3.540665e+003, 3.440282e-003
3.542593e+003, 2.272402e-003
3.544522e+003, 1.135871e-003
3.546450e+003, 1.992700e-003
3.548379e+003, 3.291063e-003
3.550307e+003, 3.075483e-003
3.552236e+003, 3.443975e-003
3.554164e+003, 3.444428e-003
3.556093e+003, 1.796977e-004
3.558021e+003, 1.171815e-003
3.559949e+003, 5.658287e-003
3.561878e+003, 5.314918e-003
3.563806e+003, 4.637223e-003
3.565735e+003, 4.198731e-003
3.567663e+003, 4.776108e-003
3.569592e+003, 6.068964e-003
3.571520e+003, 6.252596e-003
3.573449e+003, 3.527555e-003
3.575377e+003, 2.273381e-003
3.577306e+003, 2.476892e-003
3.579234e+003, 2.985160e-003
3.581163e+003, 1.429779e-003
3.583091e+003, 2.417373e-004
3.585020e+003, 2.578606e-003
3.586948e+003, 7.434910e-003
3.588876e+003, 8.150710e-003
3.590805e+003, 5.907003e-003
3.592733e+003, 4.894572e-003
3.594662e+003, 7.255481e-003
3.596590e+003, 7.838231e-003
3.598519e+003, 2.452409e-003
3.600447e+003, -2.233087e-004
3.602376e+003, 4.347741e-004
3.604304e+003, 1.809859e-003
3.606233e+003, 3.418726e-003
3.608161e+003, 4.278419e-003
3.610090e+003, 3.815392e-003
3.612018e+003, 1.146602e-003
3.613947e+003, 5.699949e-005
3.615875e+003, 1.720075e-003
3.617803e+003, 1.339426e-003
3.619732e+003, -3.200775e-004
3.621660e+003, -1.475551e-003
3.623589e+003, 6.018765e-004
3.625517e+003, 1.969048e-003
3.627446e+003, 7.576317e-004
3.629374e+003, 2.381084e-005
3.631303e+003, 2.259538e-003
3.633231e+003, 8.017903e-003
3.635160e+003, 1.033309e-002
3.637088e+003, 7.838439e-003
3.639017e+003, 4.528297e-003
3.640945e+003, 1.507140e-003
3.642874e+003, 2.063920e-003
3.644802e+003, 4.988889e-003
3.646730e+003, 4.977105e-003
3.648659e+003, 5.453751e-003
3.650587e+003, 1.960501e-003
3.652516e+003, 4.948176e-004
3.654444e+003, 3.410309e-003
3.656373e+003, 3.763511e-003
3.658301e+003, 1.704945e-003
3.660230e+003, 4.118238e-003
3.662158e+003, 4.326264e-003
3.664087e+003, 3.023087e-003
3.666015e+003, 1.774206e-003
3.667944e+003, 1.866759e-003
3.669872e+003, 2.469494e-003
3.671801e+003, 1.057955e-003
3.673729e+003, 1.394975e-003
3.675657e+003, 1.506271e-003
3.677586e+003, -9.362898e-004
3.679514e+003, -3.459432e-003
3.681443e+003, -5.077199e-003
3.683371e+003, -1.052657e-003
3.685300e+003, 3.010004e-003
3.687228e+003, 2.443976e-003
3.689157e+003, 2.027355e-003
3.691085e+003, 3.595018e-003
3.693014e+003, 3.476836e-003
3.694942e+003, 7.834879e-004
3.696871e+003, 3.426474e-004
3.698799e+003, 3.982492e-003
3.700728e+003, 3.320546e-003
3.702656e+003, 2.300497e-003
3.704584e+003, 2.198442e-003
3.706513e+003, -2.149191e-005
3.708441e+003, 3.746914e-004
3.710370e+003, 1.660785e-003
3.712298e+003, 1.993519e-003
3.714227e+003, 4.808756e-003
3.716155e+003, 3.978962e-003
3.718084e+003, 3.310565e-003
3.720012e+003, 1.986801e-003
3.721941e+003, 1.207906e-003
3.723869e+003, 7.466627e-004
3.725798e+003, 1.465653e-003
3.727726e+003, 3.644941e-003
3.729655e+003, 4.950327e-003
3.731583e+003, 3.599516e-003
3.733511e+003, 3.952282e-003
3.735440e+003, 3.597779e-003
3.737368e+003, 1.941393e-003
3.739297e+003, 3.186684e-003
3.741225e+003, 4.477843e-003
3.743154e+003, 3.457545e-003
3.745082e+003, 3.196712e-003
3.747011e+003, 3.558654e-003
3.748939e+003, 3.947445e-003
3.750868e+003, 9.026573e-004
3.752796e+003, 3.069243e-003
3.754725e+003, 3.711241e-003
3.756653e+003, 5.181570e-003
3.758582e+003, 4.301941e-003
3.760510e+003, 3.084790e-003
3.762438e+003, 3.784590e-003
3.764367e+003, 4.013453e-003
3.766295e+003, 3.776837e-003
3.768224e+003, 2.778416e-003
3.770152e+003, 1.454219e-003
3.772081e+003, 2.971146e-004
3.774009e+003, -6.039965e-004
3.775938e+003, 4.040367e-004
3.777866e+003, 4.176174e-003
3.779795e+003, 4.016594e-003
3.781723e+003, 7.953703e-004
3.783652e+003, 1.899917e-003
3.785580e+003, 2.997661e-003
3.787509e+003, 3.635980e-003
3.789437e+003, 5.101339e-003
3.791365e+003, 6.724633e-003
3.793294e+003, 5.030887e-003
3.795222e+003, 2.397930e-003
3.797151e+003, 2.916649e-004
3.799079e+003, -9.435697e-004
3.801008e+003, 1.108300e-005
3.802936e+003, 4.773724e-003
3.804865e+003, 3.966145e-003
3.806793e+003, 2.903870e-004
3.808722e+003, 1.134407e-003
3.810650e+003, 2.281489e-003
3.812579e+003, 1.547587e-003
3.814507e+003, 4.106189e-003
3.816436e+003, 4.915210e-003
3.818364e+003, 4.974797e-003
3.820292e+003, 6.081485e-003
3.822221e+003, 9.700595e-003
3.824149e+003, 7.343316e-003
3.826078e+003, 5.963843e-003
3.828006e+003, 3.867961e-003
3.829935e+003, 1.163329e-003
3.831863e+003, 1.632175e-003
3.833792e+003, 3.845795e-003
3.835720e+003, 3.943909e-003
3.837649e+003, 7.114671e-004
3.839577e+003, 1.178098e-003
3.841506e+003, 5.405871e-003
3.843434e+003, 6.815579e-003
3.845363e+003, 4.395391e-003
3.847291e+003, 2.850889e-003
3.849219e+003, 2.119914e-003
3.851148e+003, 2.944758e-003
3.853076e+003, 4.037516e-003
3.855005e+003, 9.894480e-004
3.856933e+003, 2.960012e-004
3.858862e+003, 2.485776e-004
3.860790e+003, 2.374407e-003
3.862719e+003, 2.853090e-003
3.864647e+003, 1.630758e-003
3.866576e+003, 2.488817e-003
3.868504e+003, 3.249535e-003
3.870433e+003, 1.634098e-003
3.872361e+003, 4.150973e-003
3.874290e+003, 6.026109e-003
3.876218e+003, 7.677458e-003
3.878146e+003, 9.683818e-003
3.880075e+003, 9.245567e-003
3.882003e+003, 7.243316e-003
3.883932e+003, 3.297437e-003
3.885860e+003, 1.153517e-003
3.887789e+003, 3.045430e-003
3.889717e+003, 6.284752e-003
3.891646e+003, 5.815139e-003
3.893574e+003, 3.107863e-003
3.895503e+003, 3.579902e-003
3.897431e+003, 5.899332e-003
3.899360e+003, 5.466545e-003
3.901288e+003, 3.146138e-003
3.903217e+003, 1.358012e-004
3.905145e+003, 9.904061e-004
3.907073e+003, 4.006116e-003
3.909002e+003, 3.589971e-003
3.910930e+003, 2.742675e-003
3.912859e+003, 3.083252e-003
3.914787e+003, 4.812662e-003
3.916716e+003, 6.042738e-003
3.918644e+003, 6.971243e-003
3.920573e+003, 6.024180e-003
3.922501e+003, 5.422060e-003
3.924430e+003, 6.082826e-003
3.926358e+003, 3.246384e-003
3.928287e+003, -1.310598e-003
3.930215e+003, -1.740206e-003
3.932144e+003, -1.470446e-003
3.934072e+003, -1.528472e-003
3.936000e+003, 1.627187e-003
3.937929e+003, 5.326500e-003
3.939857e+003, 2.341461e-003
3.941786e+003, 1.973961e-003
3.943714e+003, 5.294478e-003
3.945643e+003, 1.046981e-002
3.947571e+003, 1.005938e-002
3.949500e+003, 5.540907e-003
3.951428e+003, 3.531978e-003
3.953357e+003, 3.284194e-003
3.955285e+003, 3.268201e-003
3.957214e+003, 3.388436e-004
3.959142e+003, -5.068140e-004
3.961071e+003, 1.780095e-003
3.962999e+003, 3.229187e-003
3.964927e+003, 2.852917e-003
3.966856e+003, 2.449510e-003
3.968784e+003, 2.037378e-003
3.970713e+003, 1.983705e-003
3.972641e+003, 4.838068e-004
3.974570e+003, 8.671565e-004
3.976498e+003, 1.267972e-003
3.978427e+003, 3.862797e-004
3.980355e+003, 2.994409e-003
3.982284e+003, 4.482840e-003
3.984212e+003, 6.095999e-003
3.986141e+003, 5.970520e-003
3.988069e+003, 2.622072e-003
3.989998e+003, 2.745157e-003
3.991926e+003, 5.326299e-003
3.993854e+003, 4.332017e-003
3.995783e+003, 3.999535e-003
3.997711e+003, 3.799540e-003
3.999640e+003, 3.801373e-003
4.001568e+003, 0.000000e+000
##END=



