##NAMES=Hastingsite
##RRUFFID=R070194
##IDEAL CHEMISTRY=NaCa_2_(Fe^2+^_4_Fe^3+^)(Si_6_Al_2_)O_22_(OH)_2_
##LOCALITY=Seglenge, Sweden
##OWNER=RRUFF
##SOURCE=California Institute of Technology
##DESCRIPTION=Black cleavage fragment
##STATUS=The identification of this mineral has been confirmed by X-ray diffraction and chemical analysis
##URL=rruff.info/R070194
##MEASURED CHEMISTRY=(Na_0.39_K_0.32_[box]_0.29_)_Σ=1_(Ca_1.75_Na_0.25_)_Σ=2_((Fe^2+^_3.52_Mg_0.34_Mn_0.12_)_Σ=3.98_(Fe^3+^_0.66_Ti_0.24_Al_0.12_)_Σ=1.02_)_Σ=5_(Si_6.28_Al_1.64_)O_22_((OH)_1.79_F_0.17_Cl_0.04_)_Σ=2_; (OH) estimated by difference
3.741225e+002, 1.666551e-001
3.760510e+002, 1.595186e-001
3.779795e+002, 1.521299e-001
3.799079e+002, 1.483642e-001
3.818364e+002, 1.509424e-001
3.837649e+002, 1.483145e-001
3.856933e+002, 1.440078e-001
3.876218e+002, 1.499098e-001
3.895503e+002, 1.514147e-001
3.914787e+002, 1.508348e-001
3.934072e+002, 1.524393e-001
3.953357e+002, 1.530810e-001
3.972641e+002, 1.538278e-001
3.991926e+002, 1.538700e-001
4.011211e+002, 1.562474e-001
4.030495e+002, 1.638286e-001
4.049780e+002, 1.643182e-001
4.069065e+002, 1.596547e-001
4.088349e+002, 1.606308e-001
4.107634e+002, 1.627125e-001
4.126919e+002, 1.666736e-001
4.146203e+002, 1.675128e-001
4.165488e+002, 1.667890e-001
4.184773e+002, 1.690249e-001
4.204057e+002, 1.677374e-001
4.223342e+002, 1.670732e-001
4.242627e+002, 1.694432e-001
4.261911e+002, 1.715034e-001
4.281196e+002, 1.732188e-001
4.300481e+002, 1.756806e-001
4.319765e+002, 1.776109e-001
4.339050e+002, 1.810759e-001
4.358335e+002, 1.840306e-001
4.377619e+002, 1.847126e-001
4.396904e+002, 1.847717e-001
4.416189e+002, 1.848098e-001
4.435473e+002, 1.856557e-001
4.454758e+002, 1.863630e-001
4.474043e+002, 1.864041e-001
4.493327e+002, 1.839667e-001
4.512612e+002, 1.814293e-001
4.531897e+002, 1.785423e-001
4.551181e+002, 1.750032e-001
4.570466e+002, 1.715135e-001
4.589751e+002, 1.670485e-001
4.609035e+002, 1.619546e-001
4.628320e+002, 1.576651e-001
4.647605e+002, 1.543524e-001
4.666889e+002, 1.500309e-001
4.686174e+002, 1.443513e-001
4.705459e+002, 1.395022e-001
4.724743e+002, 1.356841e-001
4.744028e+002, 1.324516e-001
4.763313e+002, 1.309388e-001
4.782597e+002, 1.304616e-001
4.801882e+002, 1.295634e-001
4.821167e+002, 1.296247e-001
4.840451e+002, 1.298452e-001
4.859736e+002, 1.299471e-001
4.879021e+002, 1.302343e-001
4.898305e+002, 1.302789e-001
4.917590e+002, 1.299893e-001
4.936875e+002, 1.293707e-001
4.956159e+002, 1.280151e-001
4.975444e+002, 1.271673e-001
4.994729e+002, 1.264806e-001
5.014013e+002, 1.253464e-001
5.033298e+002, 1.238728e-001
5.052583e+002, 1.225177e-001
5.071867e+002, 1.211748e-001
5.091152e+002, 1.192905e-001
5.110437e+002, 1.182349e-001
5.129721e+002, 1.179162e-001
5.149006e+002, 1.171661e-001
5.168290e+002, 1.159307e-001
5.187575e+002, 1.140312e-001
5.206860e+002, 1.122465e-001
5.226144e+002, 1.108930e-001
5.245429e+002, 1.088985e-001
5.264714e+002, 1.056765e-001
5.283998e+002, 1.024456e-001
5.303283e+002, 9.880707e-002
5.322568e+002, 9.480281e-002
5.341852e+002, 9.119775e-002
5.361137e+002, 8.788055e-002
5.380422e+002, 8.392504e-002
5.399706e+002, 8.010778e-002
5.418991e+002, 7.688621e-002
5.438276e+002, 7.352811e-002
5.457560e+002, 6.984288e-002
5.476845e+002, 6.706300e-002
5.496130e+002, 6.453215e-002
5.515414e+002, 6.227936e-002
5.534699e+002, 6.033461e-002
5.553984e+002, 5.788281e-002
5.573268e+002, 5.579912e-002
5.592553e+002, 5.424137e-002
5.611838e+002, 5.290995e-002
5.631122e+002, 5.162193e-002
5.650407e+002, 5.077400e-002
5.669692e+002, 5.043544e-002
5.688976e+002, 4.979585e-002
5.708261e+002, 4.968844e-002
5.727546e+002, 4.959790e-002
5.746830e+002, 4.967268e-002
5.766115e+002, 4.997955e-002
5.785400e+002, 5.100159e-002
5.804684e+002, 5.214531e-002
5.823969e+002, 5.332840e-002
5.843254e+002, 5.471316e-002
5.862538e+002, 5.642407e-002
5.881823e+002, 5.784247e-002
5.901108e+002, 5.925022e-002
5.920392e+002, 6.105611e-002
5.939677e+002, 6.269661e-002
5.958962e+002, 6.363347e-002
5.978246e+002, 6.408744e-002
5.997531e+002, 6.458030e-002
6.016816e+002, 6.484464e-002
6.036100e+002, 6.469140e-002
6.055385e+002, 6.396835e-002
6.074670e+002, 6.330966e-002
6.093954e+002, 6.298117e-002
6.113239e+002, 6.231347e-002
6.132524e+002, 6.131991e-002
6.151808e+002, 6.106045e-002
6.171093e+002, 6.114267e-002
6.190378e+002, 6.104895e-002
6.209662e+002, 6.080499e-002
6.228947e+002, 6.071631e-002
6.248232e+002, 6.069664e-002
6.267516e+002, 6.078535e-002
6.286801e+002, 6.066360e-002
6.306086e+002, 6.018134e-002
6.325370e+002, 5.988991e-002
6.344655e+002, 5.991731e-002
6.363940e+002, 5.987798e-002
6.383224e+002, 5.998741e-002
6.402509e+002, 6.017213e-002
6.421794e+002, 6.048836e-002
6.441078e+002, 6.103374e-002
6.460363e+002, 6.146015e-002
6.479648e+002, 6.185716e-002
6.498932e+002, 6.198799e-002
6.518217e+002, 6.196302e-002
6.537502e+002, 6.211599e-002
6.556786e+002, 6.231134e-002
6.576071e+002, 6.240151e-002
6.595356e+002, 6.265981e-002
6.614641e+002, 6.302324e-002
6.633925e+002, 6.326891e-002
6.653210e+002, 6.352802e-002
6.672495e+002, 6.384795e-002
6.691779e+002, 6.380963e-002
6.711064e+002, 6.329132e-002
6.730349e+002, 6.292233e-002
6.749633e+002, 6.255352e-002
6.768918e+002, 6.198184e-002
6.788203e+002, 6.145169e-002
6.807487e+002, 6.120254e-002
6.826772e+002, 6.112392e-002
6.846057e+002, 6.086519e-002
6.865341e+002, 6.048328e-002
6.884626e+002, 6.025861e-002
6.903911e+002, 6.016979e-002
6.923195e+002, 6.015874e-002
6.942480e+002, 5.973737e-002
6.961765e+002, 5.916738e-002
6.981049e+002, 5.890260e-002
7.000334e+002, 5.881478e-002
7.019619e+002, 5.855876e-002
7.038903e+002, 5.864827e-002
7.058188e+002, 5.902393e-002
7.077473e+002, 5.973629e-002
7.096757e+002, 6.052795e-002
7.116042e+002, 6.158797e-002
7.135327e+002, 6.250537e-002
7.154611e+002, 6.308086e-002
7.173896e+002, 6.399983e-002
7.193181e+002, 6.508407e-002
7.212465e+002, 6.588286e-002
7.231750e+002, 6.664245e-002
7.251035e+002, 6.744794e-002
7.270319e+002, 6.776235e-002
7.289604e+002, 6.803738e-002
7.308889e+002, 6.822583e-002
7.328173e+002, 6.827102e-002
7.347458e+002, 6.842791e-002
7.366743e+002, 6.843296e-002
7.386027e+002, 6.833083e-002
7.405312e+002, 6.822909e-002
7.424597e+002, 6.823333e-002
7.443881e+002, 6.807356e-002
7.463166e+002, 6.812460e-002
7.482451e+002, 6.845739e-002
7.501735e+002, 6.873302e-002
7.521020e+002, 6.875549e-002
7.540305e+002, 6.879884e-002
7.559589e+002, 6.916334e-002
7.578874e+002, 6.962050e-002
7.598159e+002, 6.994760e-002
7.617443e+002, 7.004607e-002
7.636728e+002, 7.020889e-002
7.656013e+002, 7.033964e-002
7.675297e+002, 7.027157e-002
7.694582e+002, 7.007692e-002
7.713867e+002, 7.000005e-002
7.733151e+002, 7.001073e-002
7.752436e+002, 6.989841e-002
7.771721e+002, 6.987641e-002
7.791005e+002, 6.976219e-002
7.810290e+002, 6.939168e-002
7.829575e+002, 6.907400e-002
7.848859e+002, 6.864400e-002
7.868144e+002, 6.813651e-002
7.887429e+002, 6.773365e-002
7.906713e+002, 6.753689e-002
7.925998e+002, 6.724475e-002
7.945283e+002, 6.689680e-002
7.964567e+002, 6.712641e-002
7.983852e+002, 6.762772e-002
8.003137e+002, 6.802406e-002
8.022421e+002, 6.875403e-002
8.041706e+002, 6.998814e-002
8.060991e+002, 7.156681e-002
8.080275e+002, 7.328791e-002
8.099560e+002, 7.528709e-002
8.118845e+002, 7.761723e-002
8.138129e+002, 8.009841e-002
8.157414e+002, 8.286644e-002
8.176699e+002, 8.593643e-002
8.195983e+002, 8.928873e-002
8.215268e+002, 9.308126e-002
8.234553e+002, 9.712919e-002
8.253837e+002, 1.011272e-001
8.273122e+002, 1.054746e-001
8.292407e+002, 1.098798e-001
8.311691e+002, 1.142062e-001
8.330976e+002, 1.184361e-001
8.350261e+002, 1.228263e-001
8.369545e+002, 1.272150e-001
8.388830e+002, 1.313886e-001
8.408115e+002, 1.354520e-001
8.427399e+002, 1.395419e-001
8.446684e+002, 1.435215e-001
8.465969e+002, 1.471229e-001
8.485253e+002, 1.502872e-001
8.504538e+002, 1.532427e-001
8.523823e+002, 1.558193e-001
8.543107e+002, 1.582487e-001
8.562392e+002, 1.603892e-001
8.581677e+002, 1.623744e-001
8.600961e+002, 1.640962e-001
8.620246e+002, 1.656934e-001
8.639531e+002, 1.671823e-001
8.658815e+002, 1.685726e-001
8.678100e+002, 1.701463e-001
8.697385e+002, 1.719418e-001
8.716669e+002, 1.738616e-001
8.735954e+002, 1.755969e-001
8.755239e+002, 1.772930e-001
8.774523e+002, 1.789207e-001
8.793808e+002, 1.801988e-001
8.813093e+002, 1.816565e-001
8.832377e+002, 1.835681e-001
8.851662e+002, 1.857277e-001
8.870947e+002, 1.878981e-001
8.890231e+002, 1.905144e-001
8.909516e+002, 1.935880e-001
8.928801e+002, 1.966700e-001
8.948085e+002, 1.997907e-001
8.967370e+002, 2.031304e-001
8.986655e+002, 2.065582e-001
9.005939e+002, 2.099844e-001
9.025224e+002, 2.131074e-001
9.044509e+002, 2.160906e-001
9.063793e+002, 2.186843e-001
9.083078e+002, 2.206911e-001
9.102363e+002, 2.225997e-001
9.121647e+002, 2.244343e-001
9.140932e+002, 2.259124e-001
9.160217e+002, 2.271144e-001
9.179501e+002, 2.280140e-001
9.198786e+002, 2.287760e-001
9.218071e+002, 2.296440e-001
9.237355e+002, 2.301294e-001
9.256640e+002, 2.303324e-001
9.275925e+002, 2.305027e-001
9.295209e+002, 2.305028e-001
9.314494e+002, 2.302827e-001
9.333779e+002, 2.297329e-001
9.353063e+002, 2.289442e-001
9.372348e+002, 2.280513e-001
9.391633e+002, 2.269125e-001
9.410917e+002, 2.255930e-001
9.430202e+002, 2.243688e-001
9.449487e+002, 2.229485e-001
9.468771e+002, 2.213009e-001
9.488056e+002, 2.195709e-001
9.507341e+002, 2.177471e-001
9.526625e+002, 2.157695e-001
9.545910e+002, 2.136001e-001
9.565195e+002, 2.114510e-001
9.584479e+002, 2.093394e-001
9.603764e+002, 2.069926e-001
9.623049e+002, 2.046419e-001
9.642333e+002, 2.022240e-001
9.661618e+002, 1.997271e-001
9.680903e+002, 1.971571e-001
9.700187e+002, 1.944077e-001
9.719472e+002, 1.914856e-001
9.738757e+002, 1.886772e-001
9.758041e+002, 1.856044e-001
9.777326e+002, 1.823892e-001
9.796611e+002, 1.790029e-001
9.815895e+002, 1.754716e-001
9.835180e+002, 1.719591e-001
9.854465e+002, 1.681551e-001
9.873749e+002, 1.641536e-001
9.893034e+002, 1.601797e-001
9.912319e+002, 1.561689e-001
9.931603e+002, 1.521001e-001
9.950888e+002, 1.478543e-001
9.970173e+002, 1.436687e-001
9.989457e+002, 1.398417e-001
1.000874e+003, 1.361333e-001
1.002803e+003, 1.324829e-001
1.004731e+003, 1.291121e-001
1.006660e+003, 1.258619e-001
1.008588e+003, 1.228366e-001
1.010517e+003, 1.201355e-001
1.012445e+003, 1.177333e-001
1.014373e+003, 1.152937e-001
1.016302e+003, 1.129693e-001
1.018230e+003, 1.109769e-001
1.020159e+003, 1.093691e-001
1.022087e+003, 1.079357e-001
1.024016e+003, 1.067977e-001
1.025944e+003, 1.056760e-001
1.027873e+003, 1.047724e-001
1.029801e+003, 1.040213e-001
1.031730e+003, 1.031528e-001
1.033658e+003, 1.021132e-001
1.035587e+003, 1.009834e-001
1.037515e+003, 9.999046e-002
1.039443e+003, 9.896397e-002
1.041372e+003, 9.751044e-002
1.043300e+003, 9.595863e-002
1.045229e+003, 9.447324e-002
1.047157e+003, 9.286871e-002
1.049086e+003, 9.106696e-002
1.051014e+003, 8.914657e-002
1.052943e+003, 8.713868e-002
1.054871e+003, 8.526998e-002
1.056800e+003, 8.358816e-002
1.058728e+003, 8.173236e-002
1.060657e+003, 7.975341e-002
1.062585e+003, 7.789592e-002
1.064514e+003, 7.619289e-002
1.066442e+003, 7.461502e-002
1.068370e+003, 7.282538e-002
1.070299e+003, 7.108802e-002
1.072227e+003, 6.964161e-002
1.074156e+003, 6.814839e-002
1.076084e+003, 6.675114e-002
1.078013e+003, 6.542315e-002
1.079941e+003, 6.383115e-002
1.081870e+003, 6.207136e-002
1.083798e+003, 6.011932e-002
1.085727e+003, 5.824238e-002
1.087655e+003, 5.652570e-002
1.089584e+003, 5.476778e-002
1.091512e+003, 5.294310e-002
1.093441e+003, 5.117395e-002
1.095369e+003, 4.959926e-002
1.097297e+003, 4.798661e-002
1.099226e+003, 4.603038e-002
1.101154e+003, 4.406949e-002
1.103083e+003, 4.214050e-002
1.105011e+003, 4.011874e-002
1.106940e+003, 3.807339e-002
1.108868e+003, 3.602318e-002
1.110797e+003, 3.403897e-002
1.112725e+003, 3.216581e-002
1.114654e+003, 3.041705e-002
1.116582e+003, 2.876781e-002
1.118511e+003, 2.720170e-002
1.120439e+003, 2.568599e-002
1.122368e+003, 2.411063e-002
1.124296e+003, 2.242949e-002
1.126224e+003, 2.079250e-002
1.128153e+003, 1.913658e-002
1.130081e+003, 1.760898e-002
1.132010e+003, 1.617662e-002
1.133938e+003, 1.480804e-002
1.135867e+003, 1.363867e-002
1.137795e+003, 1.249440e-002
1.139724e+003, 1.155597e-002
1.141652e+003, 1.093150e-002
1.143581e+003, 1.031184e-002
1.145509e+003, 9.828379e-003
1.147438e+003, 9.555145e-003
1.149366e+003, 9.218031e-003
1.151295e+003, 8.947824e-003
1.153223e+003, 8.758389e-003
1.155151e+003, 8.475983e-003
1.157080e+003, 8.206080e-003
1.159008e+003, 8.030083e-003
1.160937e+003, 7.877397e-003
1.162865e+003, 7.556526e-003
1.164794e+003, 7.060287e-003
1.166722e+003, 6.575330e-003
1.168651e+003, 6.080948e-003
1.170579e+003, 5.845472e-003
1.172508e+003, 5.767152e-003
1.174436e+003, 5.693791e-003
1.176365e+003, 5.512640e-003
1.178293e+003, 5.447520e-003
1.180222e+003, 5.500848e-003
1.182150e+003, 5.472890e-003
1.184078e+003, 5.531326e-003
1.186007e+003, 5.530627e-003
1.187935e+003, 5.410769e-003
1.189864e+003, 5.252806e-003
1.191792e+003, 5.132491e-003
1.193721e+003, 4.948728e-003
1.195649e+003, 4.611207e-003
1.197578e+003, 4.251273e-003
1.199506e+003, 3.974473e-003
1.201435e+003, 3.727342e-003
1.203363e+003, 3.525793e-003
1.205292e+003, 3.419564e-003
1.207220e+003, 3.366255e-003
1.209149e+003, 3.370170e-003
1.211077e+003, 3.483860e-003
1.213005e+003, 3.619282e-003
1.214934e+003, 3.752556e-003
1.216862e+003, 3.919077e-003
1.218791e+003, 3.936148e-003
1.220719e+003, 3.902201e-003
1.222648e+003, 3.883997e-003
1.224576e+003, 3.773738e-003
1.226505e+003, 3.652582e-003
1.228433e+003, 3.545438e-003
1.230362e+003, 3.442676e-003
1.232290e+003, 3.312324e-003
1.234219e+003, 3.316022e-003
1.236147e+003, 3.300720e-003
1.238076e+003, 3.267992e-003
1.240004e+003, 3.144223e-003
1.241932e+003, 3.151221e-003
1.243861e+003, 3.202092e-003
1.245789e+003, 3.074871e-003
1.247718e+003, 2.844168e-003
1.249646e+003, 2.769365e-003
1.251575e+003, 2.766643e-003
1.253503e+003, 2.605429e-003
1.255432e+003, 2.417853e-003
1.257360e+003, 2.249834e-003
1.259289e+003, 2.138926e-003
1.261217e+003, 2.132814e-003
1.263146e+003, 2.064492e-003
1.265074e+003, 2.004171e-003
1.267003e+003, 1.974417e-003
1.268931e+003, 1.837960e-003
1.270859e+003, 1.823269e-003
1.272788e+003, 1.985407e-003
1.274716e+003, 2.104661e-003
1.276645e+003, 2.017046e-003
1.278573e+003, 1.978011e-003
1.280502e+003, 2.107640e-003
1.282430e+003, 2.159409e-003
1.284359e+003, 2.190610e-003
1.286287e+003, 2.256854e-003
1.288216e+003, 2.258791e-003
1.290144e+003, 2.312833e-003
1.292073e+003, 2.442436e-003
1.294001e+003, 2.409370e-003
1.295930e+003, 2.274097e-003
1.297858e+003, 2.365452e-003
1.299786e+003, 2.362542e-003
1.301715e+003, 2.409898e-003
1.303643e+003, 2.456996e-003
1.305572e+003, 2.384753e-003
1.307500e+003, 2.493364e-003
1.309429e+003, 2.570354e-003
1.311357e+003, 2.526766e-003
1.313286e+003, 2.550347e-003
1.315214e+003, 2.459183e-003
1.317143e+003, 2.449927e-003
1.319071e+003, 2.446816e-003
1.321000e+003, 2.402333e-003
1.322928e+003, 2.529605e-003
1.324857e+003, 2.578901e-003
1.326785e+003, 2.575123e-003
1.328714e+003, 2.732186e-003
1.330642e+003, 2.744373e-003
1.332570e+003, 2.753295e-003
1.334499e+003, 2.790266e-003
1.336427e+003, 2.791879e-003
1.338356e+003, 2.904657e-003
1.340284e+003, 3.022731e-003
1.342213e+003, 2.909422e-003
1.344141e+003, 2.882923e-003
1.346070e+003, 2.889914e-003
1.347998e+003, 3.019862e-003
1.349927e+003, 3.183249e-003
1.351855e+003, 3.286859e-003
1.353784e+003, 3.310977e-003
1.355712e+003, 3.233739e-003
1.357641e+003, 3.320289e-003
1.359569e+003, 3.511251e-003
1.361497e+003, 3.731444e-003
1.363426e+003, 3.926996e-003
1.365354e+003, 3.951524e-003
1.367283e+003, 3.983911e-003
1.369211e+003, 4.103891e-003
1.371140e+003, 4.203208e-003
1.373068e+003, 4.265788e-003
1.374997e+003, 4.268972e-003
1.376925e+003, 4.379492e-003
1.378854e+003, 4.646650e-003
1.380782e+003, 4.818952e-003
1.382711e+003, 4.743293e-003
1.384639e+003, 4.690990e-003
1.386568e+003, 4.927580e-003
1.388496e+003, 5.267496e-003
1.390424e+003, 5.443519e-003
1.392353e+003, 5.528668e-003
1.394281e+003, 5.768207e-003
1.396210e+003, 6.083235e-003
1.398138e+003, 6.313456e-003
1.400067e+003, 6.434526e-003
1.401995e+003, 6.604948e-003
1.403924e+003, 6.771995e-003
1.405852e+003, 6.926238e-003
1.407781e+003, 7.201958e-003
1.409709e+003, 7.431577e-003
1.411638e+003, 7.662438e-003
1.413566e+003, 7.763872e-003
1.415495e+003, 7.884997e-003
1.417423e+003, 8.003678e-003
1.419351e+003, 8.136307e-003
1.421280e+003, 8.091491e-003
1.423208e+003, 8.208881e-003
1.425137e+003, 8.381370e-003
1.427065e+003, 8.507217e-003
1.428994e+003, 8.547422e-003
1.430922e+003, 8.641684e-003
1.432851e+003, 8.786454e-003
1.434779e+003, 9.025413e-003
1.436708e+003, 9.316811e-003
1.438636e+003, 9.201746e-003
1.440565e+003, 9.067144e-003
1.442493e+003, 9.016399e-003
1.444422e+003, 9.152029e-003
1.446350e+003, 9.177432e-003
1.448278e+003, 9.055887e-003
1.450207e+003, 9.067265e-003
1.452135e+003, 9.226806e-003
1.454064e+003, 9.262484e-003
1.455992e+003, 9.533600e-003
1.457921e+003, 9.542798e-003
1.459849e+003, 9.243411e-003
1.461778e+003, 9.088859e-003
1.463706e+003, 9.100953e-003
1.465635e+003, 9.172810e-003
1.467563e+003, 8.876110e-003
1.469492e+003, 8.565871e-003
1.471420e+003, 8.505872e-003
1.473349e+003, 8.529691e-003
1.475277e+003, 8.502684e-003
1.477205e+003, 8.248756e-003
1.479134e+003, 8.100159e-003
1.481062e+003, 8.145022e-003
1.482991e+003, 8.092050e-003
1.484919e+003, 7.949101e-003
1.486848e+003, 8.006273e-003
1.488776e+003, 8.216972e-003
1.490705e+003, 8.354746e-003
1.492633e+003, 8.302802e-003
1.494562e+003, 8.338625e-003
1.496490e+003, 8.507627e-003
1.498419e+003, 8.565484e-003
1.500347e+003, 8.480125e-003
1.502276e+003, 8.323498e-003
1.504204e+003, 8.330666e-003
1.506132e+003, 8.396814e-003
1.508061e+003, 8.046759e-003
1.509989e+003, 7.535799e-003
1.511918e+003, 7.027263e-003
1.513846e+003, 6.611487e-003
1.515775e+003, 6.628351e-003
1.517703e+003, 6.682217e-003
1.519632e+003, 6.714432e-003
1.521560e+003, 6.798340e-003
1.523489e+003, 6.544740e-003
1.525417e+003, 6.269050e-003
1.527346e+003, 6.268466e-003
1.529274e+003, 6.379121e-003
1.531203e+003, 6.278297e-003
1.533131e+003, 6.365510e-003
1.535059e+003, 6.392529e-003
1.536988e+003, 6.390815e-003
1.538916e+003, 6.637300e-003
1.540845e+003, 6.578255e-003
1.542773e+003, 6.261262e-003
1.544702e+003, 6.267834e-003
1.546630e+003, 6.374423e-003
1.548559e+003, 6.398443e-003
1.550487e+003, 6.432785e-003
1.552416e+003, 6.412096e-003
1.554344e+003, 6.443746e-003
1.556273e+003, 6.469156e-003
1.558201e+003, 6.688755e-003
1.560130e+003, 6.672826e-003
1.562058e+003, 6.359418e-003
1.563986e+003, 6.268864e-003
1.565915e+003, 6.378794e-003
1.567843e+003, 6.491088e-003
1.569772e+003, 6.564690e-003
1.571700e+003, 6.506277e-003
1.573629e+003, 6.489224e-003
1.575557e+003, 6.828565e-003
1.577486e+003, 6.935998e-003
1.579414e+003, 6.736735e-003
1.581343e+003, 6.626482e-003
1.583271e+003, 6.524274e-003
1.585200e+003, 6.480399e-003
1.587128e+003, 6.518999e-003
1.589057e+003, 6.723042e-003
1.590985e+003, 6.855166e-003
1.592913e+003, 6.843627e-003
1.594842e+003, 6.847091e-003
1.596770e+003, 6.755389e-003
1.598699e+003, 6.671643e-003
1.600627e+003, 6.771403e-003
1.602556e+003, 6.942869e-003
1.604484e+003, 6.914749e-003
1.606413e+003, 6.815485e-003
1.608341e+003, 6.772478e-003
1.610270e+003, 6.603901e-003
1.612198e+003, 6.533985e-003
1.614127e+003, 6.645817e-003
1.616055e+003, 6.915458e-003
1.617984e+003, 6.761241e-003
1.619912e+003, 6.558240e-003
1.621840e+003, 6.731701e-003
1.623769e+003, 6.803245e-003
1.625697e+003, 6.631205e-003
1.627626e+003, 6.672307e-003
1.629554e+003, 6.727129e-003
1.631483e+003, 6.619829e-003
1.633411e+003, 6.801654e-003
1.635340e+003, 7.144714e-003
1.637268e+003, 7.013574e-003
1.639197e+003, 6.804102e-003
1.641125e+003, 6.763500e-003
1.643054e+003, 6.760157e-003
1.644982e+003, 6.858267e-003
1.646911e+003, 6.887454e-003
1.648839e+003, 6.635311e-003
1.650767e+003, 6.788759e-003
1.652696e+003, 7.253163e-003
1.654624e+003, 7.142381e-003
1.656553e+003, 6.843373e-003
1.658481e+003, 6.812221e-003
1.660410e+003, 6.750992e-003
1.662338e+003, 6.693445e-003
1.664267e+003, 6.557011e-003
1.666195e+003, 6.579029e-003
1.668124e+003, 6.769142e-003
1.670052e+003, 6.637619e-003
1.671981e+003, 6.336621e-003
1.673909e+003, 6.396739e-003
1.675838e+003, 6.604893e-003
1.677766e+003, 6.460649e-003
1.679694e+003, 6.396762e-003
1.681623e+003, 6.430056e-003
1.683551e+003, 6.617920e-003
1.685480e+003, 6.583739e-003
1.687408e+003, 6.278459e-003
1.689337e+003, 6.242950e-003
1.691265e+003, 6.197740e-003
1.693194e+003, 6.217362e-003
1.695122e+003, 6.552059e-003
1.697051e+003, 6.618059e-003
1.698979e+003, 6.612909e-003
1.700908e+003, 6.638551e-003
1.702836e+003, 6.532792e-003
1.704765e+003, 6.577286e-003
1.706693e+003, 6.535945e-003
1.708621e+003, 6.307816e-003
1.710550e+003, 6.246287e-003
1.712478e+003, 6.552300e-003
1.714407e+003, 6.686394e-003
1.716335e+003, 6.741369e-003
1.718264e+003, 6.722630e-003
1.720192e+003, 6.643970e-003
1.722121e+003, 6.748647e-003
1.724049e+003, 6.841403e-003
1.725978e+003, 6.911330e-003
1.727906e+003, 6.933843e-003
1.729835e+003, 6.792698e-003
1.731763e+003, 6.853079e-003
1.733692e+003, 7.210867e-003
1.735620e+003, 6.952368e-003
1.737548e+003, 6.630877e-003
1.739477e+003, 6.520855e-003
1.741405e+003, 6.183219e-003
1.743334e+003, 6.004840e-003
1.745262e+003, 5.864907e-003
1.747191e+003, 5.712255e-003
1.749119e+003, 5.713705e-003
1.751048e+003, 5.854351e-003
1.752976e+003, 5.980800e-003
1.754905e+003, 6.005961e-003
1.756833e+003, 6.104449e-003
1.758762e+003, 6.255497e-003
1.760690e+003, 6.408477e-003
1.762619e+003, 6.585827e-003
1.764547e+003, 6.760827e-003
1.766475e+003, 6.991751e-003
1.768404e+003, 6.909222e-003
1.770332e+003, 6.777684e-003
1.772261e+003, 6.972358e-003
1.774189e+003, 7.149209e-003
1.776118e+003, 7.031240e-003
1.778046e+003, 6.609872e-003
1.779975e+003, 6.345434e-003
1.781903e+003, 6.355054e-003
1.783832e+003, 6.233946e-003
1.785760e+003, 5.963206e-003
1.787689e+003, 5.881844e-003
1.789617e+003, 5.915801e-003
1.791546e+003, 6.003834e-003
1.793474e+003, 5.827798e-003
1.795402e+003, 5.525591e-003
1.797331e+003, 5.573819e-003
1.799259e+003, 5.599263e-003
1.801188e+003, 5.358613e-003
1.803116e+003, 5.199554e-003
1.805045e+003, 5.425571e-003
1.806973e+003, 5.382184e-003
1.808902e+003, 5.175604e-003
1.810830e+003, 5.026835e-003
1.812759e+003, 5.005965e-003
1.814687e+003, 4.960039e-003
1.816616e+003, 4.940487e-003
1.818544e+003, 4.885840e-003
1.820473e+003, 4.901594e-003
1.822401e+003, 4.999461e-003
1.824329e+003, 4.982013e-003
1.826258e+003, 4.644421e-003
1.828186e+003, 4.527231e-003
1.830115e+003, 4.588250e-003
1.832043e+003, 4.633700e-003
1.833972e+003, 4.890316e-003
1.835900e+003, 4.833107e-003
1.837829e+003, 4.661715e-003
1.839757e+003, 4.594886e-003
1.841686e+003, 4.820987e-003
1.843614e+003, 5.083650e-003
1.845543e+003, 5.210901e-003
1.847471e+003, 5.076081e-003
1.849400e+003, 4.691882e-003
1.851328e+003, 4.237312e-003
1.853256e+003, 4.284090e-003
1.855185e+003, 4.376803e-003
1.857113e+003, 4.397888e-003
1.859042e+003, 4.639403e-003
1.860970e+003, 4.693289e-003
1.862899e+003, 4.813903e-003
1.864827e+003, 4.885353e-003
1.866756e+003, 4.836039e-003
1.868684e+003, 4.599901e-003
1.870613e+003, 4.044364e-003
1.872541e+003, 3.789450e-003
1.874470e+003, 3.723925e-003
1.876398e+003, 3.911165e-003
1.878327e+003, 4.120879e-003
1.880255e+003, 4.263661e-003
1.882183e+003, 4.286158e-003
1.884112e+003, 3.825201e-003
1.886040e+003, 3.642811e-003
1.887969e+003, 3.755105e-003
1.889897e+003, 3.930631e-003
1.891826e+003, 4.599898e-003
1.893754e+003, 4.695372e-003
1.895683e+003, 4.125789e-003
1.897611e+003, 3.921418e-003
1.899540e+003, 3.792521e-003
1.901468e+003, 3.635236e-003
1.903397e+003, 3.661422e-003
1.905325e+003, 4.093145e-003
1.907254e+003, 4.249238e-003
1.909182e+003, 3.806487e-003
1.911110e+003, 3.998640e-003
1.913039e+003, 4.595182e-003
1.914967e+003, 4.802146e-003
1.916896e+003, 4.861314e-003
1.918824e+003, 4.612753e-003
1.920753e+003, 4.016365e-003
1.922681e+003, 3.768887e-003
1.924610e+003, 4.269880e-003
1.926538e+003, 4.300806e-003
1.928467e+003, 4.041455e-003
1.930395e+003, 4.316932e-003
1.932324e+003, 4.656327e-003
1.934252e+003, 4.372051e-003
1.936181e+003, 3.770500e-003
1.938109e+003, 3.580508e-003
1.940037e+003, 3.839703e-003
1.941966e+003, 3.950679e-003
1.943894e+003, 3.359546e-003
1.945823e+003, 3.518571e-003
1.947751e+003, 3.650909e-003
1.949680e+003, 3.269842e-003
1.951608e+003, 2.387763e-003
1.953537e+003, 2.660778e-003
1.955465e+003, 3.267330e-003
1.957394e+003, 3.254422e-003
1.959322e+003, 3.636626e-003
1.961251e+003, 4.220987e-003
1.963179e+003, 3.857106e-003
1.965108e+003, 3.369270e-003
1.967036e+003, 3.511572e-003
1.968964e+003, 4.334679e-003
1.970893e+003, 5.016865e-003
1.972821e+003, 4.147643e-003
1.974750e+003, 3.905004e-003
1.976678e+003, 4.702638e-003
1.978607e+003, 5.447417e-003
1.980535e+003, 5.203717e-003
1.982464e+003, 5.024349e-003
1.984392e+003, 5.557518e-003
1.986321e+003, 5.735819e-003
1.988249e+003, 6.053122e-003
1.990178e+003, 6.032020e-003
1.992106e+003, 5.514624e-003
1.994035e+003, 5.138367e-003
1.995963e+003, 5.273893e-003
1.997891e+003, 5.886006e-003
1.999820e+003, 5.936232e-003
2.001748e+003, 5.491486e-003
2.003677e+003, 4.887327e-003
2.005605e+003, 5.161283e-003
2.007534e+003, 6.258058e-003
2.009462e+003, 5.779529e-003
2.011391e+003, 5.373668e-003
2.013319e+003, 5.407554e-003
2.015248e+003, 4.959668e-003
2.017176e+003, 4.932519e-003
2.019105e+003, 4.359612e-003
2.021033e+003, 5.153938e-003
2.022962e+003, 6.213272e-003
2.024890e+003, 5.949308e-003
2.026818e+003, 5.445822e-003
2.028747e+003, 6.414818e-003
2.030675e+003, 7.438825e-003
2.032604e+003, 7.211110e-003
2.034532e+003, 7.538518e-003
2.036461e+003, 7.412485e-003
2.038389e+003, 7.396248e-003
2.040318e+003, 7.370323e-003
2.042246e+003, 7.401051e-003
2.044175e+003, 7.445867e-003
2.046103e+003, 7.670719e-003
2.048031e+003, 7.592305e-003
2.049960e+003, 8.246707e-003
2.051888e+003, 7.848806e-003
2.053817e+003, 6.632016e-003
2.055745e+003, 6.667535e-003
2.057674e+003, 7.044244e-003
2.059602e+003, 6.831642e-003
2.061531e+003, 6.355182e-003
2.063459e+003, 5.620823e-003
2.065388e+003, 5.675524e-003
2.067316e+003, 6.417524e-003
2.069245e+003, 6.753744e-003
2.071173e+003, 7.135401e-003
2.073102e+003, 7.204807e-003
2.075030e+003, 7.090917e-003
2.076958e+003, 6.437202e-003
2.078887e+003, 5.895522e-003
2.080815e+003, 6.419387e-003
2.082744e+003, 7.061737e-003
2.084672e+003, 6.840192e-003
2.086601e+003, 6.658781e-003
2.088529e+003, 6.588170e-003
2.090458e+003, 6.270835e-003
2.092386e+003, 6.668003e-003
2.094315e+003, 6.985755e-003
2.096243e+003, 7.136805e-003
2.098172e+003, 7.058263e-003
2.100100e+003, 7.455838e-003
2.102029e+003, 7.436348e-003
2.103957e+003, 7.314758e-003
2.105885e+003, 7.882512e-003
2.107814e+003, 7.772928e-003
2.109742e+003, 7.635660e-003
2.111671e+003, 8.214781e-003
2.113599e+003, 7.644263e-003
2.115528e+003, 7.237921e-003
2.117456e+003, 7.560722e-003
2.119385e+003, 7.403563e-003
2.121313e+003, 7.029245e-003
2.123242e+003, 7.173141e-003
2.125170e+003, 7.558692e-003
2.127099e+003, 7.604753e-003
2.129027e+003, 7.537728e-003
2.130956e+003, 7.163997e-003
2.132884e+003, 7.264767e-003
2.134813e+003, 7.445062e-003
2.136741e+003, 7.053205e-003
2.138669e+003, 6.753087e-003
2.140598e+003, 7.740939e-003
2.142526e+003, 8.020440e-003
2.144455e+003, 7.533862e-003
2.146383e+003, 6.965143e-003
2.148312e+003, 6.785415e-003
2.150240e+003, 7.412738e-003
2.152169e+003, 6.641026e-003
2.154097e+003, 6.377194e-003
2.156026e+003, 7.271718e-003
2.157954e+003, 8.601473e-003
2.159883e+003, 1.118745e-002
2.161811e+003, 1.199050e-002
2.163740e+003, 1.165749e-002
2.165668e+003, 1.125163e-002
2.167596e+003, 9.976942e-003
2.169525e+003, 1.013813e-002
2.171453e+003, 1.100083e-002
2.173382e+003, 1.108541e-002
2.175310e+003, 1.036586e-002
2.177239e+003, 1.064271e-002
2.179167e+003, 1.094956e-002
2.181096e+003, 1.049848e-002
2.183024e+003, 1.056108e-002
2.184953e+003, 1.057260e-002
2.186881e+003, 1.011645e-002
2.188810e+003, 9.705575e-003
2.190738e+003, 1.007831e-002
2.192667e+003, 1.116847e-002
2.194595e+003, 1.080519e-002
2.196523e+003, 1.037354e-002
2.198452e+003, 9.813732e-003
2.200380e+003, 9.904616e-003
2.202309e+003, 1.074163e-002
2.204237e+003, 1.116829e-002
2.206166e+003, 1.120440e-002
2.208094e+003, 1.097168e-002
2.210023e+003, 1.162432e-002
2.211951e+003, 1.102705e-002
2.213880e+003, 9.761179e-003
2.215808e+003, 1.035411e-002
2.217737e+003, 1.108624e-002
2.219665e+003, 1.218337e-002
2.221594e+003, 1.204945e-002
2.223522e+003, 1.093017e-002
2.225450e+003, 1.110651e-002
2.227379e+003, 1.149147e-002
2.229307e+003, 1.118144e-002
2.231236e+003, 1.084421e-002
2.233164e+003, 1.126389e-002
2.235093e+003, 1.229264e-002
2.237021e+003, 1.261055e-002
2.238950e+003, 1.237455e-002
2.240878e+003, 1.210680e-002
2.242807e+003, 1.225907e-002
2.244735e+003, 1.189430e-002
2.246664e+003, 1.154981e-002
2.248592e+003, 1.218201e-002
2.250521e+003, 1.302576e-002
2.252449e+003, 1.215315e-002
2.254377e+003, 1.120953e-002
2.256306e+003, 1.129061e-002
2.258234e+003, 1.154957e-002
2.260163e+003, 1.191488e-002
2.262091e+003, 1.208586e-002
2.264020e+003, 1.220963e-002
2.265948e+003, 1.257057e-002
2.267877e+003, 1.244048e-002
2.269805e+003, 1.270419e-002
2.271734e+003, 1.291891e-002
2.273662e+003, 1.284018e-002
2.275591e+003, 1.255002e-002
2.277519e+003, 1.242447e-002
2.279448e+003, 1.219551e-002
2.281376e+003, 1.199453e-002
2.283304e+003, 1.204936e-002
2.285233e+003, 1.222457e-002
2.287161e+003, 1.198875e-002
2.289090e+003, 1.157986e-002
2.291018e+003, 1.192780e-002
2.292947e+003, 1.231132e-002
2.294875e+003, 1.191125e-002
2.296804e+003, 1.151117e-002
2.298732e+003, 1.114732e-002
2.300661e+003, 1.140187e-002
2.302589e+003, 1.177376e-002
2.304518e+003, 1.167226e-002
2.306446e+003, 1.124199e-002
2.308375e+003, 1.139460e-002
2.310303e+003, 1.149583e-002
2.312231e+003, 1.119963e-002
2.314160e+003, 1.125629e-002
2.316088e+003, 1.158191e-002
2.318017e+003, 1.170458e-002
2.319945e+003, 1.211572e-002
2.321874e+003, 1.256148e-002
2.323802e+003, 1.260255e-002
2.325731e+003, 1.171650e-002
2.327659e+003, 1.113188e-002
2.329588e+003, 1.100525e-002
2.331516e+003, 1.082163e-002
2.333445e+003, 1.086964e-002
2.335373e+003, 1.094730e-002
2.337302e+003, 1.125828e-002
2.339230e+003, 1.136910e-002
2.341158e+003, 1.096516e-002
2.343087e+003, 1.086297e-002
2.345015e+003, 1.120482e-002
2.346944e+003, 1.121290e-002
2.348872e+003, 1.094357e-002
2.350801e+003, 1.085428e-002
2.352729e+003, 1.087235e-002
2.354658e+003, 1.109225e-002
2.356586e+003, 1.117597e-002
2.358515e+003, 1.108273e-002
2.360443e+003, 1.124323e-002
2.362372e+003, 1.126416e-002
2.364300e+003, 1.118468e-002
2.366229e+003, 1.111329e-002
2.368157e+003, 1.100955e-002
2.370085e+003, 1.105157e-002
2.372014e+003, 1.125258e-002
2.373942e+003, 1.183845e-002
2.375871e+003, 1.188024e-002
2.377799e+003, 1.152790e-002
2.379728e+003, 1.129751e-002
2.381656e+003, 1.114057e-002
2.383585e+003, 1.148063e-002
2.385513e+003, 1.197218e-002
2.387442e+003, 1.207255e-002
2.389370e+003, 1.180107e-002
2.391299e+003, 1.162340e-002
2.393227e+003, 1.176383e-002
2.395156e+003, 1.179038e-002
2.397084e+003, 1.163377e-002
2.399012e+003, 1.167250e-002
2.400941e+003, 1.184831e-002
2.402869e+003, 1.156357e-002
2.404798e+003, 1.137359e-002
2.406726e+003, 1.195254e-002
2.408655e+003, 1.242309e-002
2.410583e+003, 1.261651e-002
2.412512e+003, 1.214868e-002
2.414440e+003, 1.188043e-002
2.416369e+003, 1.193632e-002
2.418297e+003, 1.206923e-002
2.420226e+003, 1.186330e-002
2.422154e+003, 1.149198e-002
2.424083e+003, 1.163689e-002
2.426011e+003, 1.142492e-002
2.427939e+003, 1.137814e-002
2.429868e+003, 1.157795e-002
2.431796e+003, 1.175200e-002
2.433725e+003, 1.197016e-002
2.435653e+003, 1.208886e-002
2.437582e+003, 1.145656e-002
2.439510e+003, 1.153657e-002
2.441439e+003, 1.184929e-002
2.443367e+003, 1.198286e-002
2.445296e+003, 1.228702e-002
2.447224e+003, 1.215893e-002
2.449153e+003, 1.197624e-002
2.451081e+003, 1.243584e-002
2.453010e+003, 1.252409e-002
2.454938e+003, 1.219969e-002
2.456866e+003, 1.194601e-002
2.458795e+003, 1.193315e-002
2.460723e+003, 1.200197e-002
2.462652e+003, 1.197774e-002
2.464580e+003, 1.201050e-002
2.466509e+003, 1.211438e-002
2.468437e+003, 1.213875e-002
2.470366e+003, 1.196946e-002
2.472294e+003, 1.171817e-002
2.474223e+003, 1.184336e-002
2.476151e+003, 1.191142e-002
2.478080e+003, 1.217802e-002
2.480008e+003, 1.218801e-002
2.481937e+003, 1.201263e-002
2.483865e+003, 1.194709e-002
2.485793e+003, 1.186335e-002
2.487722e+003, 1.193808e-002
2.489650e+003, 1.203170e-002
2.491579e+003, 1.201798e-002
2.493507e+003, 1.197693e-002
2.495436e+003, 1.204238e-002
2.497364e+003, 1.238393e-002
2.499293e+003, 1.225028e-002
2.501221e+003, 1.204672e-002
2.503150e+003, 1.164586e-002
2.505078e+003, 1.145494e-002
2.507007e+003, 1.200754e-002
2.508935e+003, 1.195408e-002
2.510864e+003, 1.196682e-002
2.512792e+003, 1.205658e-002
2.514720e+003, 1.221668e-002
2.516649e+003, 1.271219e-002
2.518577e+003, 1.275421e-002
2.520506e+003, 1.278368e-002
2.522434e+003, 1.258125e-002
2.524363e+003, 1.259310e-002
2.526291e+003, 1.265751e-002
2.528220e+003, 1.257898e-002
2.530148e+003, 1.236950e-002
2.532077e+003, 1.232143e-002
2.534005e+003, 1.230935e-002
2.535934e+003, 1.220429e-002
2.537862e+003, 1.250288e-002
2.539791e+003, 1.267038e-002
2.541719e+003, 1.316066e-002
2.543647e+003, 1.331984e-002
2.545576e+003, 1.310693e-002
2.547504e+003, 1.287835e-002
2.549433e+003, 1.302571e-002
2.551361e+003, 1.280279e-002
2.553290e+003, 1.274718e-002
2.555218e+003, 1.308925e-002
2.557147e+003, 1.352659e-002
2.559075e+003, 1.374514e-002
2.561004e+003, 1.371557e-002
2.562932e+003, 1.351539e-002
2.564861e+003, 1.309420e-002
2.566789e+003, 1.280861e-002
2.568718e+003, 1.283057e-002
2.570646e+003, 1.315913e-002
2.572574e+003, 1.327935e-002
2.574503e+003, 1.306145e-002
2.576431e+003, 1.313345e-002
2.578360e+003, 1.374152e-002
2.580288e+003, 1.412368e-002
2.582217e+003, 1.395779e-002
2.584145e+003, 1.355868e-002
2.586074e+003, 1.324218e-002
2.588002e+003, 1.337174e-002
2.589931e+003, 1.344677e-002
2.591859e+003, 1.375373e-002
2.593788e+003, 1.396774e-002
2.595716e+003, 1.378407e-002
2.597645e+003, 1.340712e-002
2.599573e+003, 1.363058e-002
2.601501e+003, 1.398728e-002
2.603430e+003, 1.456749e-002
2.605358e+003, 1.460481e-002
2.607287e+003, 1.406682e-002
2.609215e+003, 1.378590e-002
2.611144e+003, 1.385418e-002
2.613072e+003, 1.393508e-002
2.615001e+003, 1.415688e-002
2.616929e+003, 1.422055e-002
2.618858e+003, 1.419205e-002
2.620786e+003, 1.448962e-002
2.622715e+003, 1.453076e-002
2.624643e+003, 1.433978e-002
2.626572e+003, 1.413164e-002
2.628500e+003, 1.427766e-002
2.630428e+003, 1.452805e-002
2.632357e+003, 1.467115e-002
2.634285e+003, 1.477359e-002
2.636214e+003, 1.467464e-002
2.638142e+003, 1.454269e-002
2.640071e+003, 1.453005e-002
2.641999e+003, 1.442616e-002
2.643928e+003, 1.470109e-002
2.645856e+003, 1.497549e-002
2.647785e+003, 1.467185e-002
2.649713e+003, 1.464886e-002
2.651642e+003, 1.453729e-002
2.653570e+003, 1.450337e-002
2.655499e+003, 1.458361e-002
2.657427e+003, 1.459807e-002
2.659355e+003, 1.445192e-002
2.661284e+003, 1.425886e-002
2.663212e+003, 1.416133e-002
2.665141e+003, 1.416123e-002
2.667069e+003, 1.414431e-002
2.668998e+003, 1.413648e-002
2.670926e+003, 1.412298e-002
2.672855e+003, 1.434416e-002
2.674783e+003, 1.430168e-002
2.676712e+003, 1.415761e-002
2.678640e+003, 1.424347e-002
2.680569e+003, 1.439609e-002
2.682497e+003, 1.429786e-002
2.684426e+003, 1.414962e-002
2.686354e+003, 1.432677e-002
2.688282e+003, 1.479020e-002
2.690211e+003, 1.477800e-002
2.692139e+003, 1.456940e-002
2.694068e+003, 1.461032e-002
2.695996e+003, 1.459294e-002
2.697925e+003, 1.466623e-002
2.699853e+003, 1.469867e-002
2.701782e+003, 1.447815e-002
2.703710e+003, 1.441243e-002
2.705639e+003, 1.470346e-002
2.707567e+003, 1.467946e-002
2.709496e+003, 1.463758e-002
2.711424e+003, 1.465440e-002
2.713353e+003, 1.478119e-002
2.715281e+003, 1.485887e-002
2.717209e+003, 1.458905e-002
2.719138e+003, 1.445842e-002
2.721066e+003, 1.457814e-002
2.722995e+003, 1.486292e-002
2.724923e+003, 1.485693e-002
2.726852e+003, 1.461754e-002
2.728780e+003, 1.447588e-002
2.730709e+003, 1.464699e-002
2.732637e+003, 1.471043e-002
2.734566e+003, 1.466149e-002
2.736494e+003, 1.463073e-002
2.738423e+003, 1.436435e-002
2.740351e+003, 1.407569e-002
2.742280e+003, 1.409482e-002
2.744208e+003, 1.448426e-002
2.746136e+003, 1.466329e-002
2.748065e+003, 1.448375e-002
2.749993e+003, 1.467398e-002
2.751922e+003, 1.486515e-002
2.753850e+003, 1.497251e-002
2.755779e+003, 1.489177e-002
2.757707e+003, 1.472295e-002
2.759636e+003, 1.496915e-002
2.761564e+003, 1.523585e-002
2.763493e+003, 1.537996e-002
2.765421e+003, 1.544365e-002
2.767350e+003, 1.516386e-002
2.769278e+003, 1.491311e-002
2.771207e+003, 1.546015e-002
2.773135e+003, 1.565401e-002
2.775063e+003, 1.525208e-002
2.776992e+003, 1.506816e-002
2.778920e+003, 1.497518e-002
2.780849e+003, 1.508775e-002
2.782777e+003, 1.533924e-002
2.784706e+003, 1.513052e-002
2.786634e+003, 1.510466e-002
2.788563e+003, 1.545180e-002
2.790491e+003, 1.540793e-002
2.792420e+003, 1.516967e-002
2.794348e+003, 1.536524e-002
2.796277e+003, 1.543406e-002
2.798205e+003, 1.501410e-002
2.800134e+003, 1.501199e-002
2.802062e+003, 1.524825e-002
2.803990e+003, 1.523610e-002
2.805919e+003, 1.541533e-002
2.807847e+003, 1.595188e-002
2.809776e+003, 1.634230e-002
2.811704e+003, 1.627225e-002
2.813633e+003, 1.623083e-002
2.815561e+003, 1.624219e-002
2.817490e+003, 1.618250e-002
2.819418e+003, 1.587626e-002
2.821347e+003, 1.559646e-002
2.823275e+003, 1.548305e-002
2.825204e+003, 1.555150e-002
2.827132e+003, 1.556982e-002
2.829061e+003, 1.554346e-002
2.830989e+003, 1.573383e-002
2.832917e+003, 1.615926e-002
2.834846e+003, 1.622044e-002
2.836774e+003, 1.599726e-002
2.838703e+003, 1.588517e-002
2.840631e+003, 1.599858e-002
2.842560e+003, 1.630110e-002
2.844488e+003, 1.652832e-002
2.846417e+003, 1.647916e-002
2.848345e+003, 1.651111e-002
2.850274e+003, 1.689095e-002
2.852202e+003, 1.697964e-002
2.854131e+003, 1.698521e-002
2.856059e+003, 1.718803e-002
2.857988e+003, 1.722703e-002
2.859916e+003, 1.709189e-002
2.861844e+003, 1.681931e-002
2.863773e+003, 1.651680e-002
2.865701e+003, 1.625376e-002
2.867630e+003, 1.644978e-002
2.869558e+003, 1.661899e-002
2.871487e+003, 1.641442e-002
2.873415e+003, 1.649881e-002
2.875344e+003, 1.641067e-002
2.877272e+003, 1.594793e-002
2.879201e+003, 1.625386e-002
2.881129e+003, 1.664172e-002
2.883058e+003, 1.650548e-002
2.884986e+003, 1.666553e-002
2.886915e+003, 1.690743e-002
2.888843e+003, 1.708369e-002
2.890771e+003, 1.673828e-002
2.892700e+003, 1.679114e-002
2.894628e+003, 1.722479e-002
2.896557e+003, 1.742187e-002
2.898485e+003, 1.725346e-002
2.900414e+003, 1.740343e-002
2.902342e+003, 1.736931e-002
2.904271e+003, 1.725144e-002
2.906199e+003, 1.760678e-002
2.908128e+003, 1.783798e-002
2.910056e+003, 1.778326e-002
2.911985e+003, 1.823088e-002
2.913913e+003, 1.861408e-002
2.915842e+003, 1.858633e-002
2.917770e+003, 1.881306e-002
2.919698e+003, 1.917786e-002
2.921627e+003, 1.936414e-002
2.923555e+003, 1.924380e-002
2.925484e+003, 1.897953e-002
2.927412e+003, 1.889295e-002
2.929341e+003, 1.876132e-002
2.931269e+003, 1.854822e-002
2.933198e+003, 1.826594e-002
2.935126e+003, 1.800051e-002
2.937055e+003, 1.800980e-002
2.938983e+003, 1.738157e-002
2.940912e+003, 1.737930e-002
2.942840e+003, 1.768807e-002
2.944769e+003, 1.752244e-002
2.946697e+003, 1.714324e-002
2.948625e+003, 1.730729e-002
2.950554e+003, 1.753409e-002
2.952482e+003, 1.736680e-002
2.954411e+003, 1.755205e-002
2.956339e+003, 1.788074e-002
2.958268e+003, 1.794285e-002
2.960196e+003, 1.778322e-002
2.962125e+003, 1.747347e-002
2.964053e+003, 1.737419e-002
2.965982e+003, 1.723555e-002
2.967910e+003, 1.702777e-002
2.969839e+003, 1.711226e-002
2.971767e+003, 1.706335e-002
2.973696e+003, 1.705309e-002
2.975624e+003, 1.711425e-002
2.977552e+003, 1.682920e-002
2.979481e+003, 1.651395e-002
2.981409e+003, 1.652489e-002
2.983338e+003, 1.620067e-002
2.985266e+003, 1.615360e-002
2.987195e+003, 1.615796e-002
2.989123e+003, 1.601943e-002
2.991052e+003, 1.600323e-002
2.992980e+003, 1.611319e-002
2.994909e+003, 1.631392e-002
2.996837e+003, 1.593400e-002
2.998766e+003, 1.605947e-002
3.000694e+003, 1.614492e-002
3.002623e+003, 1.617298e-002
3.004551e+003, 1.610046e-002
3.006479e+003, 1.575750e-002
3.008408e+003, 1.593079e-002
3.010336e+003, 1.662881e-002
3.012265e+003, 1.653257e-002
3.014193e+003, 1.612019e-002
3.016122e+003, 1.589506e-002
3.018050e+003, 1.579940e-002
3.019979e+003, 1.599772e-002
3.021907e+003, 1.608369e-002
3.023836e+003, 1.649895e-002
3.025764e+003, 1.697426e-002
3.027693e+003, 1.686298e-002
3.029621e+003, 1.635126e-002
3.031550e+003, 1.590007e-002
3.033478e+003, 1.605927e-002
3.035406e+003, 1.626176e-002
3.037335e+003, 1.634325e-002
3.039263e+003, 1.660726e-002
3.041192e+003, 1.694951e-002
3.043120e+003, 1.694326e-002
3.045049e+003, 1.665148e-002
3.046977e+003, 1.649054e-002
3.048906e+003, 1.671758e-002
3.050834e+003, 1.668510e-002
3.052763e+003, 1.715937e-002
3.054691e+003, 1.740630e-002
3.056620e+003, 1.670263e-002
3.058548e+003, 1.667308e-002
3.060477e+003, 1.692148e-002
3.062405e+003, 1.690014e-002
3.064333e+003, 1.692038e-002
3.066262e+003, 1.680196e-002
3.068190e+003, 1.740930e-002
3.070119e+003, 1.762478e-002
3.072047e+003, 1.728217e-002
3.073976e+003, 1.748211e-002
3.075904e+003, 1.759143e-002
3.077833e+003, 1.765169e-002
3.079761e+003, 1.745540e-002
3.081690e+003, 1.717189e-002
3.083618e+003, 1.746411e-002
3.085547e+003, 1.739770e-002
3.087475e+003, 1.717133e-002
3.089404e+003, 1.686010e-002
3.091332e+003, 1.693375e-002
3.093260e+003, 1.708554e-002
3.095189e+003, 1.736880e-002
3.097117e+003, 1.783412e-002
3.099046e+003, 1.797961e-002
3.100974e+003, 1.770891e-002
3.102903e+003, 1.790571e-002
3.104831e+003, 1.783506e-002
3.106760e+003, 1.780520e-002
3.108688e+003, 1.796012e-002
3.110617e+003, 1.738927e-002
3.112545e+003, 1.740448e-002
3.114474e+003, 1.790586e-002
3.116402e+003, 1.785065e-002
3.118331e+003, 1.792720e-002
3.120259e+003, 1.778540e-002
3.122188e+003, 1.779654e-002
3.124116e+003, 1.825067e-002
3.126044e+003, 1.820246e-002
3.127973e+003, 1.841564e-002
3.129901e+003, 1.831835e-002
3.131830e+003, 1.812693e-002
3.133758e+003, 1.821465e-002
3.135687e+003, 1.789595e-002
3.137615e+003, 1.786319e-002
3.139544e+003, 1.827520e-002
3.141472e+003, 1.862230e-002
3.143401e+003, 1.877454e-002
3.145329e+003, 1.875167e-002
3.147258e+003, 1.849386e-002
3.149186e+003, 1.843725e-002
3.151115e+003, 1.819369e-002
3.153043e+003, 1.814601e-002
3.154971e+003, 1.849342e-002
3.156900e+003, 1.888013e-002
3.158828e+003, 1.953035e-002
3.160757e+003, 1.902477e-002
3.162685e+003, 1.882480e-002
3.164614e+003, 1.881922e-002
3.166542e+003, 1.888690e-002
3.168471e+003, 1.889198e-002
3.170399e+003, 1.853988e-002
3.172328e+003, 1.884070e-002
3.174256e+003, 1.902291e-002
3.176185e+003, 1.823889e-002
3.178113e+003, 1.790840e-002
3.180042e+003, 1.843646e-002
3.181970e+003, 1.903633e-002
3.183898e+003, 1.891722e-002
3.185827e+003, 1.858356e-002
3.187755e+003, 1.853042e-002
3.189684e+003, 1.870450e-002
3.191612e+003, 1.895545e-002
3.193541e+003, 1.887792e-002
3.195469e+003, 1.872208e-002
3.197398e+003, 1.854488e-002
3.199326e+003, 1.870331e-002
3.201255e+003, 1.951459e-002
3.203183e+003, 1.938531e-002
3.205112e+003, 1.862429e-002
3.207040e+003, 1.892526e-002
3.208969e+003, 1.878743e-002
3.210897e+003, 1.839446e-002
3.212825e+003, 1.912824e-002
3.214754e+003, 1.973544e-002
3.216682e+003, 1.965372e-002
3.218611e+003, 1.977426e-002
3.220539e+003, 1.949009e-002
3.222468e+003, 1.887585e-002
3.224396e+003, 1.900566e-002
3.226325e+003, 1.934144e-002
3.228253e+003, 1.952604e-002
3.230182e+003, 1.961916e-002
3.232110e+003, 1.964180e-002
3.234039e+003, 1.943408e-002
3.235967e+003, 1.914920e-002
3.237896e+003, 1.902940e-002
3.239824e+003, 1.930522e-002
3.241752e+003, 1.988334e-002
3.243681e+003, 1.974428e-002
3.245609e+003, 1.972914e-002
3.247538e+003, 1.977431e-002
3.249466e+003, 1.916149e-002
3.251395e+003, 1.861009e-002
3.253323e+003, 1.837011e-002
3.255252e+003, 1.813151e-002
3.257180e+003, 1.871457e-002
3.259109e+003, 1.906245e-002
3.261037e+003, 1.893087e-002
3.262966e+003, 1.906945e-002
3.264894e+003, 1.958828e-002
3.266823e+003, 1.972031e-002
3.268751e+003, 1.937471e-002
3.270679e+003, 1.943761e-002
3.272608e+003, 1.920665e-002
3.274536e+003, 1.891168e-002
3.276465e+003, 1.933087e-002
3.278393e+003, 1.987015e-002
3.280322e+003, 2.009673e-002
3.282250e+003, 2.006756e-002
3.284179e+003, 1.955984e-002
3.286107e+003, 1.902961e-002
3.288036e+003, 1.859024e-002
3.289964e+003, 1.880972e-002
3.291893e+003, 1.931965e-002
3.293821e+003, 1.936445e-002
3.295750e+003, 1.949782e-002
3.297678e+003, 1.953776e-002
3.299606e+003, 1.970041e-002
3.301535e+003, 2.041907e-002
3.303463e+003, 2.059350e-002
3.305392e+003, 2.008849e-002
3.307320e+003, 1.969306e-002
3.309249e+003, 1.947807e-002
3.311177e+003, 1.934648e-002
3.313106e+003, 1.966858e-002
3.315034e+003, 1.994947e-002
3.316963e+003, 1.964214e-002
3.318891e+003, 1.952754e-002
3.320820e+003, 1.994120e-002
3.322748e+003, 2.000820e-002
3.324677e+003, 1.955106e-002
3.326605e+003, 1.946905e-002
3.328533e+003, 1.930648e-002
3.330462e+003, 1.948852e-002
3.332390e+003, 2.002302e-002
3.334319e+003, 2.049154e-002
3.336247e+003, 2.028720e-002
3.338176e+003, 2.016507e-002
3.340104e+003, 2.039023e-002
3.342033e+003, 2.025148e-002
3.343961e+003, 1.964116e-002
3.345890e+003, 1.967649e-002
3.347818e+003, 1.968306e-002
3.349747e+003, 1.995008e-002
3.351675e+003, 1.999338e-002
3.353604e+003, 2.041989e-002
3.355532e+003, 2.070627e-002
3.357460e+003, 2.027430e-002
3.359389e+003, 1.981396e-002
3.361317e+003, 1.989178e-002
3.363246e+003, 1.991500e-002
3.365174e+003, 2.026222e-002
3.367103e+003, 2.008352e-002
3.369031e+003, 2.002334e-002
3.370960e+003, 2.027631e-002
3.372888e+003, 2.019607e-002
3.374817e+003, 2.046393e-002
3.376745e+003, 2.058312e-002
3.378674e+003, 2.056918e-002
3.380602e+003, 2.043206e-002
3.382531e+003, 2.034821e-002
3.384459e+003, 2.040240e-002
3.386387e+003, 2.057588e-002
3.388316e+003, 2.055533e-002
3.390244e+003, 2.070413e-002
3.392173e+003, 2.053988e-002
3.394101e+003, 2.041489e-002
3.396030e+003, 2.040865e-002
3.397958e+003, 1.997278e-002
3.399887e+003, 1.971153e-002
3.401815e+003, 2.021210e-002
3.403744e+003, 2.069233e-002
3.405672e+003, 2.026168e-002
3.407601e+003, 1.990572e-002
3.409529e+003, 2.002148e-002
3.411458e+003, 2.027648e-002
3.413386e+003, 2.059083e-002
3.415314e+003, 2.072107e-002
3.417243e+003, 2.027282e-002
3.419171e+003, 2.028583e-002
3.421100e+003, 2.087511e-002
3.423028e+003, 2.112621e-002
3.424957e+003, 2.074342e-002
3.426885e+003, 2.105536e-002
3.428814e+003, 2.106003e-002
3.430742e+003, 2.086603e-002
3.432671e+003, 2.047985e-002
3.434599e+003, 2.023484e-002
3.436528e+003, 2.021431e-002
3.438456e+003, 2.059102e-002
3.440385e+003, 2.032922e-002
3.442313e+003, 1.998959e-002
3.444241e+003, 2.017793e-002
3.446170e+003, 2.020412e-002
3.448098e+003, 1.945766e-002
3.450027e+003, 1.956230e-002
3.451955e+003, 1.995574e-002
3.453884e+003, 2.023998e-002
3.455812e+003, 2.092383e-002
3.457741e+003, 2.041078e-002
3.459669e+003, 1.989165e-002
3.461598e+003, 1.968850e-002
3.463526e+003, 1.996234e-002
3.465455e+003, 2.083176e-002
3.467383e+003, 2.155067e-002
3.469312e+003, 2.062667e-002
3.471240e+003, 1.975057e-002
3.473168e+003, 2.056727e-002
3.475097e+003, 2.120719e-002
3.477025e+003, 2.072712e-002
3.478954e+003, 2.043381e-002
3.480882e+003, 2.095804e-002
3.482811e+003, 2.087786e-002
3.484739e+003, 2.050452e-002
3.486668e+003, 1.998194e-002
3.488596e+003, 2.026550e-002
3.490525e+003, 2.051626e-002
3.492453e+003, 2.047710e-002
3.494382e+003, 2.047734e-002
3.496310e+003, 2.052417e-002
3.498239e+003, 2.058068e-002
3.500167e+003, 2.062666e-002
3.502095e+003, 2.049648e-002
3.504024e+003, 1.998333e-002
3.505952e+003, 1.955179e-002
3.507881e+003, 2.029142e-002
3.509809e+003, 2.080066e-002
3.511738e+003, 2.061258e-002
3.513666e+003, 2.057701e-002
3.515595e+003, 2.082499e-002
3.517523e+003, 2.071279e-002
3.519452e+003, 2.078319e-002
3.521380e+003, 2.076179e-002
3.523309e+003, 2.068909e-002
3.525237e+003, 2.066509e-002
3.527166e+003, 2.110379e-002
3.529094e+003, 2.094552e-002
3.531022e+003, 2.054554e-002
3.532951e+003, 2.037508e-002
3.534879e+003, 2.059863e-002
3.536808e+003, 2.088526e-002
3.538736e+003, 2.067662e-002
3.540665e+003, 2.077536e-002
3.542593e+003, 2.111788e-002
3.544522e+003, 2.101980e-002
3.546450e+003, 2.080308e-002
3.548379e+003, 2.017694e-002
3.550307e+003, 1.990446e-002
3.552236e+003, 2.019806e-002
3.554164e+003, 2.027019e-002
3.556093e+003, 2.026108e-002
3.558021e+003, 2.067054e-002
3.559949e+003, 2.082001e-002
3.561878e+003, 2.070326e-002
3.563806e+003, 2.092816e-002
3.565735e+003, 2.131803e-002
3.567663e+003, 2.143630e-002
3.569592e+003, 2.085099e-002
3.571520e+003, 2.032138e-002
3.573449e+003, 2.006998e-002
3.575377e+003, 1.943155e-002
3.577306e+003, 1.960317e-002
3.579234e+003, 2.058595e-002
3.581163e+003, 2.042627e-002
3.583091e+003, 1.986583e-002
3.585020e+003, 2.028077e-002
3.586948e+003, 2.048405e-002
3.588876e+003, 2.075963e-002
3.590805e+003, 2.084331e-002
3.592733e+003, 2.029334e-002
3.594662e+003, 2.042219e-002
3.596590e+003, 2.064006e-002
3.598519e+003, 2.081977e-002
3.600447e+003, 2.103302e-002
3.602376e+003, 2.040236e-002
3.604304e+003, 2.059376e-002
3.606233e+003, 2.184133e-002
3.608161e+003, 2.273442e-002
3.610090e+003, 2.230011e-002
3.612018e+003, 2.226172e-002
3.613947e+003, 2.188883e-002
3.615875e+003, 2.061067e-002
3.617803e+003, 2.053708e-002
3.619732e+003, 2.064605e-002
3.621660e+003, 2.087403e-002
3.623589e+003, 2.111241e-002
3.625517e+003, 2.046861e-002
3.627446e+003, 2.014865e-002
3.629374e+003, 2.028905e-002
3.631303e+003, 1.899295e-002
3.633231e+003, 1.893769e-002
3.635160e+003, 1.947975e-002
3.637088e+003, 1.962022e-002
3.639017e+003, 1.992507e-002
3.640945e+003, 1.987693e-002
3.642874e+003, 1.982802e-002
3.644802e+003, 2.030628e-002
3.646730e+003, 2.040621e-002
3.648659e+003, 2.014414e-002
3.650587e+003, 2.031278e-002
3.652516e+003, 2.028045e-002
3.654444e+003, 1.980588e-002
3.656373e+003, 1.922195e-002
3.658301e+003, 1.934049e-002
3.660230e+003, 1.946052e-002
3.662158e+003, 1.927555e-002
3.664087e+003, 1.953710e-002
3.666015e+003, 1.983093e-002
3.667944e+003, 2.020510e-002
3.669872e+003, 2.024215e-002
3.671801e+003, 2.007113e-002
3.673729e+003, 1.915841e-002
3.675657e+003, 1.849495e-002
3.677586e+003, 1.823172e-002
3.679514e+003, 1.774361e-002
3.681443e+003, 1.781145e-002
3.683371e+003, 1.746264e-002
3.685300e+003, 1.725288e-002
3.687228e+003, 1.780533e-002
3.689157e+003, 1.859025e-002
3.691085e+003, 1.834643e-002
3.693014e+003, 1.706248e-002
3.694942e+003, 1.631462e-002
3.696871e+003, 1.639376e-002
3.698799e+003, 1.642468e-002
3.700728e+003, 1.673190e-002
3.702656e+003, 1.722125e-002
3.704584e+003, 1.692475e-002
3.706513e+003, 1.689925e-002
3.708441e+003, 1.737297e-002
3.710370e+003, 1.713481e-002
3.712298e+003, 1.682644e-002
3.714227e+003, 1.594735e-002
3.716155e+003, 1.561452e-002
3.718084e+003, 1.606224e-002
3.720012e+003, 1.648812e-002
3.721941e+003, 1.651717e-002
3.723869e+003, 1.700231e-002
3.725798e+003, 1.748794e-002
3.727726e+003, 1.728958e-002
3.729655e+003, 1.667720e-002
3.731583e+003, 1.680246e-002
3.733511e+003, 1.768628e-002
3.735440e+003, 1.807418e-002
3.737368e+003, 1.780936e-002
3.739297e+003, 1.797381e-002
3.741225e+003, 1.795532e-002
3.743154e+003, 1.811675e-002
3.745082e+003, 1.903411e-002
3.747011e+003, 1.890467e-002
3.748939e+003, 1.812107e-002
3.750868e+003, 1.740978e-002
3.752796e+003, 1.723833e-002
3.754725e+003, 1.745560e-002
3.756653e+003, 1.757811e-002
3.758582e+003, 1.773966e-002
3.760510e+003, 1.820486e-002
3.762438e+003, 1.772509e-002
3.764367e+003, 1.772517e-002
3.766295e+003, 1.818776e-002
3.768224e+003, 1.845775e-002
3.770152e+003, 1.773846e-002
3.772081e+003, 1.682884e-002
3.774009e+003, 1.659900e-002
3.775938e+003, 1.740902e-002
3.777866e+003, 1.795194e-002
3.779795e+003, 1.770175e-002
3.781723e+003, 1.644487e-002
3.783652e+003, 1.678474e-002
3.785580e+003, 1.855037e-002
3.787509e+003, 1.859796e-002
3.789437e+003, 1.739664e-002
3.791365e+003, 1.700037e-002
3.793294e+003, 1.763552e-002
3.795222e+003, 1.822349e-002
3.797151e+003, 1.780570e-002
3.799079e+003, 1.738568e-002
3.801008e+003, 1.713660e-002
3.802936e+003, 1.722126e-002
3.804865e+003, 1.796924e-002
3.806793e+003, 1.867605e-002
3.808722e+003, 1.853130e-002
3.810650e+003, 1.823740e-002
3.812579e+003, 1.763311e-002
3.814507e+003, 1.836783e-002
3.816436e+003, 1.843372e-002
3.818364e+003, 1.838160e-002
3.820292e+003, 1.949794e-002
3.822221e+003, 1.956848e-002
3.824149e+003, 1.850654e-002
3.826078e+003, 1.738619e-002
3.828006e+003, 1.698352e-002
3.829935e+003, 1.738118e-002
3.831863e+003, 1.906888e-002
3.833792e+003, 1.978631e-002
3.835720e+003, 1.922104e-002
3.837649e+003, 1.920904e-002
3.839577e+003, 1.937850e-002
3.841506e+003, 1.831560e-002
3.843434e+003, 1.727086e-002
3.845363e+003, 1.705729e-002
3.847291e+003, 1.788907e-002
3.849219e+003, 1.849278e-002
3.851148e+003, 1.806493e-002
3.853076e+003, 1.864756e-002
3.855005e+003, 1.879880e-002
3.856933e+003, 1.793926e-002
3.858862e+003, 1.733933e-002
3.860790e+003, 1.786467e-002
3.862719e+003, 1.880157e-002
3.864647e+003, 1.894313e-002
3.866576e+003, 1.805449e-002
3.868504e+003, 1.826675e-002
3.870433e+003, 1.844346e-002
3.872361e+003, 1.877435e-002
3.874290e+003, 1.955285e-002
3.876218e+003, 1.946848e-002
3.878146e+003, 1.861155e-002
3.880075e+003, 1.825761e-002
3.882003e+003, 1.828615e-002
3.883932e+003, 1.811009e-002
3.885860e+003, 1.853114e-002
3.887789e+003, 1.841750e-002
3.889717e+003, 1.853175e-002
3.891646e+003, 1.839424e-002
3.893574e+003, 1.785473e-002
3.895503e+003, 1.719188e-002
3.897431e+003, 1.715236e-002
3.899360e+003, 1.814637e-002
3.901288e+003, 1.893971e-002
3.903217e+003, 1.887045e-002
3.905145e+003, 1.823625e-002
3.907073e+003, 1.856455e-002
3.909002e+003, 1.892046e-002
3.910930e+003, 1.806671e-002
3.912859e+003, 1.707254e-002
3.914787e+003, 1.732307e-002
3.916716e+003, 1.781622e-002
3.918644e+003, 1.787706e-002
3.920573e+003, 1.826304e-002
3.922501e+003, 1.859571e-002
3.924430e+003, 1.829975e-002
3.926358e+003, 1.832948e-002
3.928287e+003, 1.808692e-002
3.930215e+003, 1.830624e-002
3.932144e+003, 1.838736e-002
3.934072e+003, 1.818305e-002
3.936000e+003, 1.813710e-002
3.937929e+003, 1.842187e-002
3.939857e+003, 1.827858e-002
3.941786e+003, 1.741791e-002
3.943714e+003, 1.684779e-002
3.945643e+003, 1.825105e-002
3.947571e+003, 1.895256e-002
3.949500e+003, 1.802906e-002
3.951428e+003, 1.753198e-002
3.953357e+003, 1.836967e-002
3.955285e+003, 1.855626e-002
3.957214e+003, 1.814053e-002
3.959142e+003, 1.793486e-002
3.961071e+003, 1.829030e-002
3.962999e+003, 1.805168e-002
3.964927e+003, 1.789557e-002
3.966856e+003, 1.807771e-002
3.968784e+003, 1.777103e-002
3.970713e+003, 1.750490e-002
3.972641e+003, 1.737496e-002
3.974570e+003, 1.804214e-002
3.976498e+003, 1.837657e-002
3.978427e+003, 1.810370e-002
3.980355e+003, 1.847034e-002
3.982284e+003, 1.917720e-002
3.984212e+003, 1.943065e-002
3.986141e+003, 1.864975e-002
3.988069e+003, 1.821696e-002
3.989998e+003, 1.795429e-002
3.991926e+003, 1.725063e-002
3.993854e+003, 1.761517e-002
3.995783e+003, 1.848845e-002
3.997711e+003, 1.853270e-002
3.999640e+003, 1.878048e-002
4.001568e+003, 0.000000e+000
##END=



