##NAMES=Hausmannite
##RRUFFID=R040091
##IDEAL CHEMISTRY=Mn^2+^Mn^3+^_2_O_4_
##LOCALITY=Germany
##OWNER=RRUFF
##SOURCE=University of Arizona Mineral Museum
##DESCRIPTION=Mass of black octahedral crystals
##STATUS=The identification of this mineral has been confirmed by X-ray diffraction and chemical analysis
##URL=rruff.info/R040091
##MEASURED CHEMISTRY=(Mn^2+^_0.96_Zn_0.02_Mg_0.02_)Mn^3+^_2.00_O_4_
3.991926e+002, 0.000000e+000
4.011211e+002, 3.027301e-001
4.030496e+002, 3.041805e-001
4.049780e+002, 3.040457e-001
4.069065e+002, 3.001355e-001
4.088350e+002, 2.949252e-001
4.107634e+002, 2.973983e-001
4.126919e+002, 2.987031e-001
4.146204e+002, 2.976837e-001
4.165488e+002, 2.948071e-001
4.184773e+002, 2.924700e-001
4.204058e+002, 2.871333e-001
4.223342e+002, 2.815704e-001
4.242627e+002, 2.773871e-001
4.261912e+002, 2.772430e-001
4.281196e+002, 2.717379e-001
4.300481e+002, 2.643778e-001
4.319766e+002, 2.652270e-001
4.339050e+002, 2.664699e-001
4.358335e+002, 2.641255e-001
4.377620e+002, 2.633420e-001
4.396904e+002, 2.627074e-001
4.416189e+002, 2.606807e-001
4.435474e+002, 2.568589e-001
4.454758e+002, 2.542123e-001
4.474043e+002, 2.532005e-001
4.493328e+002, 2.538597e-001
4.512612e+002, 2.574724e-001
4.531897e+002, 2.577192e-001
4.551182e+002, 2.583865e-001
4.570466e+002, 2.599324e-001
4.589751e+002, 2.631213e-001
4.609036e+002, 2.665524e-001
4.628320e+002, 2.691038e-001
4.647605e+002, 2.715657e-001
4.666890e+002, 2.739355e-001
4.686174e+002, 2.777073e-001
4.705459e+002, 2.818578e-001
4.724744e+002, 2.845266e-001
4.744028e+002, 2.864329e-001
4.763313e+002, 2.884585e-001
4.782598e+002, 2.889949e-001
4.801882e+002, 2.876720e-001
4.821167e+002, 2.863389e-001
4.840452e+002, 2.852497e-001
4.859736e+002, 2.844370e-001
4.879021e+002, 2.825175e-001
4.898306e+002, 2.795000e-001
4.917590e+002, 2.774079e-001
4.936875e+002, 2.747253e-001
4.956160e+002, 2.716476e-001
4.975444e+002, 2.681166e-001
4.994729e+002, 2.646792e-001
5.014014e+002, 2.611341e-001
5.033298e+002, 2.574427e-001
5.052583e+002, 2.539335e-001
5.071868e+002, 2.500777e-001
5.091152e+002, 2.451240e-001
5.110437e+002, 2.397809e-001
5.129722e+002, 2.351194e-001
5.149006e+002, 2.303935e-001
5.168291e+002, 2.249973e-001
5.187576e+002, 2.182278e-001
5.206860e+002, 2.113185e-001
5.226145e+002, 2.052144e-001
5.245430e+002, 1.989368e-001
5.264714e+002, 1.924905e-001
5.283999e+002, 1.865175e-001
5.303284e+002, 1.806641e-001
5.322568e+002, 1.746677e-001
5.341853e+002, 1.676776e-001
5.361138e+002, 1.603336e-001
5.380422e+002, 1.531774e-001
5.399707e+002, 1.457613e-001
5.418992e+002, 1.380191e-001
5.438276e+002, 1.306269e-001
5.457561e+002, 1.234058e-001
5.476846e+002, 1.156065e-001
5.496130e+002, 1.068280e-001
5.515415e+002, 9.793989e-002
5.534700e+002, 8.987435e-002
5.553984e+002, 8.234488e-002
5.573269e+002, 7.678507e-002
5.592554e+002, 7.352058e-002
5.611838e+002, 7.172138e-002
5.631123e+002, 7.213508e-002
5.650408e+002, 7.485170e-002
5.669692e+002, 7.949872e-002
5.688977e+002, 8.620564e-002
5.708262e+002, 9.535320e-002
5.727546e+002, 1.075472e-001
5.746831e+002, 1.230014e-001
5.766116e+002, 1.421798e-001
5.785400e+002, 1.652572e-001
5.804685e+002, 1.915959e-001
5.823970e+002, 2.206659e-001
5.843254e+002, 2.513912e-001
5.862539e+002, 2.817355e-001
5.881824e+002, 3.083477e-001
5.901108e+002, 3.287872e-001
5.920393e+002, 3.414560e-001
5.939678e+002, 3.436402e-001
5.958962e+002, 3.382831e-001
5.978247e+002, 3.296688e-001
5.997532e+002, 3.210484e-001
6.016816e+002, 3.127006e-001
6.036101e+002, 3.037050e-001
6.055386e+002, 2.939815e-001
6.074670e+002, 2.847169e-001
6.093955e+002, 2.760713e-001
6.113240e+002, 2.677177e-001
6.132524e+002, 2.595985e-001
6.151809e+002, 2.516407e-001
6.171094e+002, 2.445533e-001
6.190378e+002, 2.377763e-001
6.209663e+002, 2.311493e-001
6.228948e+002, 2.248011e-001
6.248232e+002, 2.184195e-001
6.267517e+002, 2.119882e-001
6.286802e+002, 2.060564e-001
6.306086e+002, 1.999760e-001
6.325371e+002, 1.935414e-001
6.344656e+002, 1.876676e-001
6.363940e+002, 1.824903e-001
6.383225e+002, 1.775244e-001
6.402510e+002, 1.728397e-001
6.421794e+002, 1.677654e-001
6.441079e+002, 1.624561e-001
6.460364e+002, 1.577354e-001
6.479648e+002, 1.533879e-001
6.498933e+002, 1.488389e-001
6.518218e+002, 1.448473e-001
6.537502e+002, 1.406028e-001
6.556787e+002, 1.361302e-001
6.576072e+002, 1.324962e-001
6.595356e+002, 1.288336e-001
6.614641e+002, 1.248857e-001
6.633926e+002, 1.209319e-001
6.653210e+002, 1.172888e-001
6.672495e+002, 1.136853e-001
6.691780e+002, 1.098165e-001
6.711064e+002, 1.057717e-001
6.730349e+002, 1.018953e-001
6.749634e+002, 9.800109e-002
6.768918e+002, 9.367763e-002
6.788203e+002, 8.895392e-002
6.807488e+002, 8.413782e-002
6.826772e+002, 7.885339e-002
6.846057e+002, 7.312034e-002
6.865342e+002, 6.764381e-002
6.884626e+002, 6.238770e-002
6.903911e+002, 5.727645e-002
6.923196e+002, 5.204076e-002
6.942480e+002, 4.725087e-002
6.961765e+002, 4.299140e-002
6.981050e+002, 3.902138e-002
7.000334e+002, 3.594103e-002
7.019619e+002, 3.373305e-002
7.038904e+002, 3.213362e-002
7.058188e+002, 3.118803e-002
7.077473e+002, 3.108043e-002
7.096758e+002, 3.238517e-002
7.116042e+002, 3.447828e-002
7.135327e+002, 3.363230e-002
7.154612e+002, 2.996559e-002
7.173896e+002, 2.675871e-002
7.193181e+002, 2.487713e-002
7.212466e+002, 2.405476e-002
7.231750e+002, 2.366803e-002
7.251035e+002, 2.318014e-002
7.270320e+002, 2.271289e-002
7.289604e+002, 2.239902e-002
7.308889e+002, 2.251664e-002
7.328174e+002, 2.279279e-002
7.347458e+002, 2.289026e-002
7.366743e+002, 2.266504e-002
7.386028e+002, 2.236033e-002
7.405313e+002, 2.232963e-002
7.424597e+002, 2.248830e-002
7.443882e+002, 2.256393e-002
7.463167e+002, 2.230134e-002
7.482451e+002, 2.249383e-002
7.501736e+002, 2.279916e-002
7.521021e+002, 2.288057e-002
7.540305e+002, 2.307875e-002
7.559590e+002, 2.307310e-002
7.578875e+002, 2.325906e-002
7.598159e+002, 2.351994e-002
7.617444e+002, 2.352966e-002
7.636729e+002, 2.377262e-002
7.656013e+002, 2.394863e-002
7.675298e+002, 2.403162e-002
7.694583e+002, 2.395490e-002
7.713867e+002, 2.371693e-002
7.733152e+002, 2.370659e-002
7.752437e+002, 2.360075e-002
7.771721e+002, 2.328974e-002
7.791006e+002, 2.308123e-002
7.810291e+002, 2.320670e-002
7.829575e+002, 2.341675e-002
7.848860e+002, 2.364897e-002
7.868145e+002, 2.381333e-002
7.887429e+002, 2.387226e-002
7.906714e+002, 2.398196e-002
7.925999e+002, 2.408763e-002
7.945283e+002, 2.427027e-002
7.964568e+002, 2.464159e-002
7.983853e+002, 2.483968e-002
8.003137e+002, 2.531705e-002
8.022422e+002, 2.561941e-002
8.041707e+002, 2.570862e-002
8.060991e+002, 2.612255e-002
8.080276e+002, 2.666643e-002
8.099561e+002, 2.716206e-002
8.118845e+002, 2.800752e-002
8.138130e+002, 2.856754e-002
8.157415e+002, 2.894023e-002
8.176699e+002, 2.975757e-002
8.195984e+002, 3.086727e-002
8.215269e+002, 3.190090e-002
8.234553e+002, 3.306141e-002
8.253838e+002, 3.432217e-002
8.273123e+002, 3.540641e-002
8.292407e+002, 3.641418e-002
8.311692e+002, 3.739961e-002
8.330977e+002, 3.774032e-002
8.350261e+002, 3.749596e-002
8.369546e+002, 3.729434e-002
8.388831e+002, 3.761026e-002
8.408115e+002, 3.857516e-002
8.427400e+002, 3.994737e-002
8.446685e+002, 4.148442e-002
8.465969e+002, 4.333696e-002
8.485254e+002, 4.438317e-002
8.504539e+002, 4.442230e-002
8.523823e+002, 4.525707e-002
8.543108e+002, 4.660816e-002
8.562393e+002, 4.808781e-002
8.581677e+002, 4.985752e-002
8.600962e+002, 5.209322e-002
8.620247e+002, 5.489574e-002
8.639531e+002, 5.864127e-002
8.658816e+002, 6.364105e-002
8.678101e+002, 7.113824e-002
8.697385e+002, 8.304157e-002
8.716670e+002, 9.798325e-002
8.735955e+002, 1.104519e-001
8.755239e+002, 1.153388e-001
8.774524e+002, 1.114224e-001
8.793809e+002, 1.008195e-001
8.813093e+002, 8.819071e-002
8.832378e+002, 7.716367e-002
8.851663e+002, 6.623305e-002
8.870947e+002, 5.782208e-002
8.890232e+002, 5.414611e-002
8.909517e+002, 5.302862e-002
8.928801e+002, 5.265370e-002
8.948085e+002, 5.210837e-002
8.967370e+002, 5.175758e-002
8.986655e+002, 5.162706e-002
9.005939e+002, 5.132539e-002
9.025224e+002, 5.084821e-002
9.044509e+002, 5.037881e-002
9.063793e+002, 5.017378e-002
9.083078e+002, 5.021368e-002
9.102363e+002, 4.999213e-002
9.121647e+002, 4.997357e-002
9.140932e+002, 5.018955e-002
9.160217e+002, 5.037215e-002
9.179501e+002, 5.053719e-002
9.198786e+002, 5.043898e-002
9.218071e+002, 5.034222e-002
9.237355e+002, 5.052853e-002
9.256640e+002, 5.072825e-002
9.275925e+002, 5.108105e-002
9.295209e+002, 5.144693e-002
9.314494e+002, 5.184777e-002
9.333779e+002, 5.235873e-002
9.353063e+002, 5.308161e-002
9.372348e+002, 5.396753e-002
9.391633e+002, 5.495330e-002
9.410917e+002, 5.610824e-002
9.430202e+002, 5.719546e-002
9.449487e+002, 5.791091e-002
9.468771e+002, 5.818137e-002
9.488056e+002, 5.809125e-002
9.507341e+002, 5.772712e-002
9.526625e+002, 5.787051e-002
9.545910e+002, 5.863751e-002
9.565195e+002, 5.953347e-002
9.584479e+002, 6.041678e-002
9.603764e+002, 6.151037e-002
9.623049e+002, 6.266970e-002
9.642333e+002, 6.370314e-002
9.661618e+002, 6.487842e-002
9.680903e+002, 6.640480e-002
9.700187e+002, 6.791209e-002
9.719472e+002, 6.894634e-002
9.738757e+002, 6.911509e-002
9.758041e+002, 6.844284e-002
9.777326e+002, 6.769083e-002
9.796611e+002, 6.700788e-002
9.815895e+002, 6.632625e-002
9.835180e+002, 6.583424e-002
9.854465e+002, 6.531774e-002
9.873749e+002, 6.458012e-002
9.893034e+002, 6.377064e-002
9.912319e+002, 6.322048e-002
9.931603e+002, 6.269445e-002
9.950888e+002, 6.196114e-002
9.970173e+002, 6.127844e-002
9.989457e+002, 6.064602e-002
1.000874e+003, 5.991336e-002
1.002803e+003, 5.921747e-002
1.004731e+003, 5.848807e-002
1.006660e+003, 5.767341e-002
1.008588e+003, 5.687202e-002
1.010517e+003, 5.632050e-002
1.012445e+003, 5.583028e-002
1.014373e+003, 5.532933e-002
1.016302e+003, 5.479316e-002
1.018230e+003, 5.394055e-002
1.020159e+003, 5.324250e-002
1.022087e+003, 5.273982e-002
1.024016e+003, 5.208720e-002
1.025944e+003, 5.135380e-002
1.027873e+003, 5.079580e-002
1.029801e+003, 5.024195e-002
1.031730e+003, 4.961725e-002
1.033658e+003, 4.908379e-002
1.035587e+003, 4.858292e-002
1.037515e+003, 4.808172e-002
1.039444e+003, 4.769355e-002
1.041372e+003, 4.741330e-002
1.043301e+003, 4.727137e-002
1.045229e+003, 4.717496e-002
1.047157e+003, 4.690975e-002
1.049086e+003, 4.673062e-002
1.051014e+003, 4.667142e-002
1.052943e+003, 4.641175e-002
1.054871e+003, 4.648737e-002
1.056800e+003, 4.669410e-002
1.058728e+003, 4.681668e-002
1.060657e+003, 4.702010e-002
1.062585e+003, 4.727177e-002
1.064514e+003, 4.763838e-002
1.066442e+003, 4.773369e-002
1.068371e+003, 4.779870e-002
1.070299e+003, 4.828074e-002
1.072228e+003, 4.882345e-002
1.074156e+003, 4.915683e-002
1.076084e+003, 4.935967e-002
1.078013e+003, 4.970353e-002
1.079941e+003, 4.999857e-002
1.081870e+003, 5.027302e-002
1.083798e+003, 5.040481e-002
1.085727e+003, 5.036914e-002
1.087655e+003, 5.016881e-002
1.089584e+003, 4.981070e-002
1.091512e+003, 4.927812e-002
1.093441e+003, 4.887433e-002
1.095369e+003, 4.831575e-002
1.097298e+003, 4.744175e-002
1.099226e+003, 4.661863e-002
1.101155e+003, 4.593501e-002
1.103083e+003, 4.521900e-002
1.105011e+003, 4.459354e-002
1.106940e+003, 4.409723e-002
1.108868e+003, 4.347189e-002
1.110797e+003, 4.327808e-002
1.112725e+003, 4.341089e-002
1.114654e+003, 4.335275e-002
1.116582e+003, 4.346761e-002
1.118511e+003, 4.365604e-002
1.120439e+003, 4.385334e-002
1.122368e+003, 4.398160e-002
1.124296e+003, 4.403358e-002
1.126225e+003, 4.440964e-002
1.128153e+003, 4.483477e-002
1.130082e+003, 4.512786e-002
1.132010e+003, 4.540028e-002
1.133938e+003, 4.556260e-002
1.135867e+003, 4.569959e-002
1.137795e+003, 4.573338e-002
1.139724e+003, 4.596846e-002
1.141652e+003, 4.619720e-002
1.143581e+003, 4.642124e-002
1.145509e+003, 4.659660e-002
1.147438e+003, 4.673601e-002
1.149366e+003, 4.701521e-002
1.151295e+003, 4.711627e-002
1.153223e+003, 4.740328e-002
1.155152e+003, 4.783000e-002
1.157080e+003, 4.812389e-002
1.159009e+003, 4.836417e-002
1.160937e+003, 4.862202e-002
1.162865e+003, 4.885955e-002
1.164794e+003, 4.905471e-002
1.166722e+003, 4.927664e-002
1.168651e+003, 4.945578e-002
1.170579e+003, 4.960518e-002
1.172508e+003, 4.986786e-002
1.174436e+003, 5.037523e-002
1.176365e+003, 5.087293e-002
1.178293e+003, 5.109944e-002
1.180222e+003, 5.119980e-002
1.182150e+003, 5.129797e-002
1.184079e+003, 5.149265e-002
1.186007e+003, 5.181413e-002
1.187936e+003, 5.215752e-002
1.189864e+003, 5.230436e-002
1.191792e+003, 5.252884e-002
1.193721e+003, 5.285529e-002
1.195649e+003, 5.301022e-002
1.197578e+003, 5.325707e-002
1.199506e+003, 5.338304e-002
1.201435e+003, 5.357362e-002
1.203363e+003, 5.377512e-002
1.205292e+003, 5.382634e-002
1.207220e+003, 5.391437e-002
1.209149e+003, 5.412760e-002
1.211077e+003, 5.439421e-002
1.213006e+003, 5.467505e-002
1.214934e+003, 5.487704e-002
1.216863e+003, 5.513029e-002
1.218791e+003, 5.535852e-002
1.220719e+003, 5.541369e-002
1.222648e+003, 5.555048e-002
1.224576e+003, 5.583010e-002
1.226505e+003, 5.622989e-002
1.228433e+003, 5.667979e-002
1.230362e+003, 5.702322e-002
1.232290e+003, 5.709761e-002
1.234219e+003, 5.728680e-002
1.236147e+003, 5.779662e-002
1.238076e+003, 5.823740e-002
1.240004e+003, 5.863996e-002
1.241933e+003, 5.888668e-002
1.243861e+003, 5.924785e-002
1.245790e+003, 5.987044e-002
1.247718e+003, 6.032398e-002
1.249646e+003, 6.068019e-002
1.251575e+003, 6.097538e-002
1.253503e+003, 6.137364e-002
1.255432e+003, 6.188270e-002
1.257360e+003, 6.217745e-002
1.259289e+003, 6.251939e-002
1.261217e+003, 6.288256e-002
1.263146e+003, 6.331639e-002
1.265074e+003, 6.387503e-002
1.267003e+003, 6.446231e-002
1.268931e+003, 6.484446e-002
1.270860e+003, 6.521158e-002
1.272788e+003, 6.562312e-002
1.274717e+003, 6.614160e-002
1.276645e+003, 6.682095e-002
1.278573e+003, 6.745489e-002
1.280502e+003, 6.793097e-002
1.282430e+003, 6.849129e-002
1.284359e+003, 6.897836e-002
1.286287e+003, 6.954868e-002
1.288216e+003, 7.015213e-002
1.290144e+003, 7.077117e-002
1.292073e+003, 7.150590e-002
1.294001e+003, 7.212649e-002
1.295930e+003, 7.264846e-002
1.297858e+003, 7.335071e-002
1.299787e+003, 7.408725e-002
1.301715e+003, 7.484987e-002
1.303644e+003, 7.570004e-002
1.305572e+003, 7.650437e-002
1.307500e+003, 7.716363e-002
1.309429e+003, 7.806172e-002
1.311357e+003, 7.890557e-002
1.313286e+003, 7.953282e-002
1.315214e+003, 8.042804e-002
1.317143e+003, 8.144233e-002
1.319071e+003, 8.229861e-002
1.321000e+003, 8.307566e-002
1.322928e+003, 8.387735e-002
1.324857e+003, 8.481218e-002
1.326785e+003, 8.584660e-002
1.328714e+003, 8.693902e-002
1.330642e+003, 8.815780e-002
1.332571e+003, 8.931456e-002
1.334499e+003, 9.036591e-002
1.336427e+003, 9.156717e-002
1.338356e+003, 9.299223e-002
1.340284e+003, 9.461094e-002
1.342213e+003, 9.598775e-002
1.344141e+003, 9.726501e-002
1.346070e+003, 9.869631e-002
1.347998e+003, 1.004195e-001
1.349927e+003, 1.024152e-001
1.351855e+003, 1.044716e-001
1.353784e+003, 1.063979e-001
1.355712e+003, 1.082815e-001
1.357641e+003, 1.102904e-001
1.359569e+003, 1.126159e-001
1.361498e+003, 1.153227e-001
1.363426e+003, 1.180762e-001
1.365354e+003, 1.208066e-001
1.367283e+003, 1.238639e-001
1.369211e+003, 1.271290e-001
1.371140e+003, 1.305552e-001
1.373068e+003, 1.343456e-001
1.374997e+003, 1.382593e-001
1.376925e+003, 1.422496e-001
1.378854e+003, 1.467641e-001
1.380782e+003, 1.516517e-001
1.382711e+003, 1.566297e-001
1.384639e+003, 1.623704e-001
1.386568e+003, 1.687503e-001
1.388496e+003, 1.754137e-001
1.390424e+003, 1.824011e-001
1.392353e+003, 1.898993e-001
1.394281e+003, 1.972510e-001
1.396210e+003, 2.038690e-001
1.398138e+003, 2.095230e-001
1.400067e+003, 2.145087e-001
1.401995e+003, 2.197325e-001
1.403924e+003, 2.257155e-001
1.405852e+003, 2.322623e-001
1.407781e+003, 2.386721e-001
1.409709e+003, 2.443987e-001
1.411638e+003, 2.492193e-001
1.413566e+003, 2.530815e-001
1.415495e+003, 2.558381e-001
1.417423e+003, 2.577346e-001
1.419351e+003, 2.589185e-001
1.421280e+003, 2.595715e-001
1.423208e+003, 2.597456e-001
1.425137e+003, 2.595419e-001
1.427065e+003, 2.591331e-001
1.428994e+003, 2.584076e-001
1.430922e+003, 2.573970e-001
1.432851e+003, 2.560615e-001
1.434779e+003, 2.543547e-001
1.436708e+003, 2.528235e-001
1.438636e+003, 2.510937e-001
1.440565e+003, 2.491934e-001
1.442493e+003, 2.472185e-001
1.444422e+003, 2.451544e-001
1.446350e+003, 2.429891e-001
1.448278e+003, 2.407847e-001
1.450207e+003, 2.380274e-001
1.452135e+003, 2.350702e-001
1.454064e+003, 2.321623e-001
1.455992e+003, 2.291429e-001
1.457921e+003, 2.261830e-001
1.459849e+003, 2.228041e-001
1.461778e+003, 2.192038e-001
1.463706e+003, 2.158154e-001
1.465635e+003, 2.123312e-001
1.467563e+003, 2.087591e-001
1.469492e+003, 2.056379e-001
1.471420e+003, 2.023460e-001
1.473349e+003, 1.988958e-001
1.475277e+003, 1.954129e-001
1.477205e+003, 1.920564e-001
1.479134e+003, 1.884489e-001
1.481062e+003, 1.849873e-001
1.482991e+003, 1.816863e-001
1.484919e+003, 1.780163e-001
1.486848e+003, 1.743692e-001
1.488776e+003, 1.709359e-001
1.490705e+003, 1.677306e-001
1.492633e+003, 1.643524e-001
1.494562e+003, 1.608408e-001
1.496490e+003, 1.575115e-001
1.498419e+003, 1.540675e-001
1.500347e+003, 1.507605e-001
1.502276e+003, 1.474942e-001
1.504204e+003, 1.439869e-001
1.506132e+003, 1.407069e-001
1.508061e+003, 1.375982e-001
1.509989e+003, 1.343542e-001
1.511918e+003, 1.312003e-001
1.513846e+003, 1.282210e-001
1.515775e+003, 1.251195e-001
1.517703e+003, 1.222364e-001
1.519632e+003, 1.195249e-001
1.521560e+003, 1.171836e-001
1.523489e+003, 1.146217e-001
1.525417e+003, 1.120958e-001
1.527346e+003, 1.100591e-001
1.529274e+003, 1.079669e-001
1.531203e+003, 1.056027e-001
1.533131e+003, 1.036061e-001
1.535059e+003, 1.019606e-001
1.536988e+003, 1.001670e-001
1.538916e+003, 9.849290e-002
1.540845e+003, 9.718344e-002
1.542773e+003, 9.552985e-002
1.544702e+003, 9.375273e-002
1.546630e+003, 9.242033e-002
1.548559e+003, 9.110492e-002
1.550487e+003, 8.998664e-002
1.552416e+003, 8.914819e-002
1.554344e+003, 8.853409e-002
1.556273e+003, 8.794672e-002
1.558201e+003, 8.755150e-002
1.560130e+003, 8.714014e-002
1.562058e+003, 8.653463e-002
1.563986e+003, 8.616017e-002
1.565915e+003, 8.594757e-002
1.567843e+003, 8.583626e-002
1.569772e+003, 8.578921e-002
1.571700e+003, 8.581238e-002
1.573629e+003, 8.581403e-002
1.575557e+003, 8.584113e-002
1.577486e+003, 8.584042e-002
1.579414e+003, 8.552451e-002
1.581343e+003, 8.524242e-002
1.583271e+003, 8.509140e-002
1.585200e+003, 8.536599e-002
1.587128e+003, 8.546311e-002
1.589057e+003, 8.520641e-002
1.590985e+003, 8.490369e-002
1.592913e+003, 8.456128e-002
1.594842e+003, 8.438951e-002
1.596770e+003, 8.429077e-002
1.598699e+003, 8.406802e-002
1.600627e+003, 8.380774e-002
1.602556e+003, 8.361594e-002
1.604484e+003, 8.356641e-002
1.606413e+003, 8.342940e-002
1.608341e+003, 8.338749e-002
1.610270e+003, 8.321385e-002
1.612198e+003, 8.304001e-002
1.614127e+003, 8.300032e-002
1.616055e+003, 8.285807e-002
1.617984e+003, 8.310173e-002
1.619912e+003, 8.316790e-002
1.621840e+003, 8.320134e-002
1.623769e+003, 8.321736e-002
1.625697e+003, 8.301212e-002
1.627626e+003, 8.285780e-002
1.629554e+003, 8.287143e-002
1.631483e+003, 8.278235e-002
1.633411e+003, 8.285660e-002
1.635340e+003, 8.304293e-002
1.637268e+003, 8.299804e-002
1.639197e+003, 8.300381e-002
1.641125e+003, 8.324724e-002
1.643054e+003, 8.336163e-002
1.644982e+003, 8.319542e-002
1.646911e+003, 8.318017e-002
1.648839e+003, 8.331002e-002
1.650767e+003, 8.336687e-002
1.652696e+003, 8.362893e-002
1.654624e+003, 8.393176e-002
1.656553e+003, 8.406384e-002
1.658481e+003, 8.407147e-002
1.660410e+003, 8.402294e-002
1.662338e+003, 8.418749e-002
1.664267e+003, 8.431525e-002
1.666195e+003, 8.414613e-002
1.668124e+003, 8.414275e-002
1.670052e+003, 8.440018e-002
1.671981e+003, 8.456109e-002
1.673909e+003, 8.477079e-002
1.675838e+003, 8.494417e-002
1.677766e+003, 8.473132e-002
1.679694e+003, 8.465206e-002
1.681623e+003, 8.483882e-002
1.683551e+003, 8.536305e-002
1.685480e+003, 8.555603e-002
1.687408e+003, 8.511800e-002
1.689337e+003, 8.518489e-002
1.691265e+003, 8.551902e-002
1.693194e+003, 8.563007e-002
1.695122e+003, 8.573014e-002
1.697051e+003, 8.629292e-002
1.698979e+003, 8.628550e-002
1.700908e+003, 8.623151e-002
1.702836e+003, 8.603472e-002
1.704765e+003, 8.640907e-002
1.706693e+003, 8.648626e-002
1.708621e+003, 8.649258e-002
1.710550e+003, 8.664856e-002
1.712478e+003, 8.684859e-002
1.714407e+003, 8.733327e-002
1.716335e+003, 8.753743e-002
1.718264e+003, 8.737593e-002
1.720192e+003, 8.732734e-002
1.722121e+003, 8.756120e-002
1.724049e+003, 8.769601e-002
1.725978e+003, 8.782541e-002
1.727906e+003, 8.787493e-002
1.729835e+003, 8.797713e-002
1.731763e+003, 8.768832e-002
1.733692e+003, 8.746972e-002
1.735620e+003, 8.775006e-002
1.737548e+003, 8.789855e-002
1.739477e+003, 8.797510e-002
1.741405e+003, 8.811113e-002
1.743334e+003, 8.796565e-002
1.745262e+003, 8.781546e-002
1.747191e+003, 8.794194e-002
1.749119e+003, 8.837392e-002
1.751048e+003, 8.861872e-002
1.752976e+003, 8.869642e-002
1.754905e+003, 8.889736e-002
1.756833e+003, 8.899260e-002
1.758762e+003, 8.880693e-002
1.760690e+003, 8.922643e-002
1.762619e+003, 8.969837e-002
1.764547e+003, 8.987717e-002
1.766475e+003, 9.031565e-002
1.768404e+003, 9.045679e-002
1.770332e+003, 9.046391e-002
1.772261e+003, 9.073887e-002
1.774189e+003, 9.070351e-002
1.776118e+003, 9.070113e-002
1.778046e+003, 9.109033e-002
1.779975e+003, 9.146105e-002
1.781903e+003, 9.187141e-002
1.783832e+003, 9.222537e-002
1.785760e+003, 9.276169e-002
1.787689e+003, 9.352500e-002
1.789617e+003, 9.477865e-002
1.791546e+003, 9.610149e-002
1.793474e+003, 9.693290e-002
1.795402e+003, 9.690931e-002
1.797331e+003, 9.696960e-002
1.799259e+003, 9.681059e-002
1.801188e+003, 9.591027e-002
1.803116e+003, 9.494144e-002
1.805045e+003, 9.409945e-002
1.806973e+003, 9.356967e-002
1.808902e+003, 9.309080e-002
1.810830e+003, 9.317495e-002
1.812759e+003, 9.332719e-002
1.814687e+003, 9.284688e-002
1.816616e+003, 9.266227e-002
1.818544e+003, 9.315793e-002
1.820473e+003, 9.379455e-002
1.822401e+003, 9.383596e-002
1.824329e+003, 9.386891e-002
1.826258e+003, 9.450317e-002
1.828186e+003, 9.475963e-002
1.830115e+003, 9.461044e-002
1.832043e+003, 9.500750e-002
1.833972e+003, 9.513555e-002
1.835900e+003, 9.448709e-002
1.837829e+003, 9.420823e-002
1.839757e+003, 9.477057e-002
1.841686e+003, 9.511203e-002
1.843614e+003, 9.516777e-002
1.845543e+003, 9.545648e-002
1.847471e+003, 9.558044e-002
1.849400e+003, 9.599768e-002
1.851328e+003, 9.601014e-002
1.853256e+003, 9.601226e-002
1.855185e+003, 9.679294e-002
1.857113e+003, 9.723254e-002
1.859042e+003, 9.679693e-002
1.860970e+003, 9.615994e-002
1.862899e+003, 9.609386e-002
1.864827e+003, 9.667733e-002
1.866756e+003, 9.750426e-002
1.868684e+003, 9.763303e-002
1.870613e+003, 9.759638e-002
1.872541e+003, 9.795532e-002
1.874470e+003, 9.751951e-002
1.876398e+003, 9.690917e-002
1.878327e+003, 9.694296e-002
1.880255e+003, 9.754456e-002
1.882183e+003, 9.741409e-002
1.884112e+003, 9.745178e-002
1.886040e+003, 9.795618e-002
1.887969e+003, 9.804040e-002
1.889897e+003, 9.850009e-002
1.891826e+003, 9.825598e-002
1.893754e+003, 9.775403e-002
1.895683e+003, 9.817231e-002
1.897611e+003, 9.835719e-002
1.899540e+003, 9.869894e-002
1.901468e+003, 9.904157e-002
1.903397e+003, 9.826890e-002
1.905325e+003, 9.848502e-002
1.907254e+003, 1.000790e-001
1.909182e+003, 1.003137e-001
1.911110e+003, 1.001647e-001
1.913039e+003, 1.002529e-001
1.914967e+003, 1.003525e-001
1.916896e+003, 1.005943e-001
1.918824e+003, 1.005972e-001
1.920753e+003, 9.983547e-002
1.922681e+003, 9.917997e-002
1.924610e+003, 9.949017e-002
1.926538e+003, 1.009016e-001
1.928467e+003, 1.013400e-001
1.930395e+003, 1.008698e-001
1.932324e+003, 1.007736e-001
1.934252e+003, 1.016663e-001
1.936181e+003, 1.021055e-001
1.938109e+003, 1.016115e-001
1.940037e+003, 1.014030e-001
1.941966e+003, 1.006604e-001
1.943894e+003, 9.994853e-002
1.945823e+003, 1.002295e-001
1.947751e+003, 1.007804e-001
1.949680e+003, 1.007263e-001
1.951608e+003, 1.001770e-001
1.953537e+003, 1.003840e-001
1.955465e+003, 1.011862e-001
1.957394e+003, 1.006300e-001
1.959322e+003, 1.002987e-001
1.961251e+003, 1.018868e-001
1.963179e+003, 1.018840e-001
1.965108e+003, 1.013922e-001
1.967036e+003, 1.012815e-001
1.968964e+003, 1.006727e-001
1.970893e+003, 1.017263e-001
1.972821e+003, 1.018865e-001
1.974750e+003, 1.001084e-001
1.976678e+003, 1.016630e-001
1.978607e+003, 1.047485e-001
1.980535e+003, 1.053953e-001
1.982464e+003, 1.055118e-001
1.984392e+003, 1.048775e-001
1.986321e+003, 1.039053e-001
1.988249e+003, 1.047108e-001
1.990178e+003, 1.051214e-001
1.992106e+003, 1.034487e-001
1.994035e+003, 1.031147e-001
1.995963e+003, 1.048429e-001
1.997891e+003, 1.037920e-001
1.999820e+003, 1.036263e-001
2.001748e+003, 1.041909e-001
2.003677e+003, 1.042640e-001
2.005605e+003, 1.043732e-001
2.007534e+003, 1.048209e-001
2.009462e+003, 1.048871e-001
2.011391e+003, 1.055129e-001
2.013319e+003, 1.064149e-001
2.015248e+003, 1.067635e-001
2.017176e+003, 1.065869e-001
2.019105e+003, 1.051296e-001
2.021033e+003, 1.043201e-001
2.022962e+003, 1.063064e-001
2.024890e+003, 1.062114e-001
2.026818e+003, 1.061331e-001
2.028747e+003, 1.068825e-001
2.030675e+003, 1.065097e-001
2.032604e+003, 1.057926e-001
2.034532e+003, 1.062661e-001
2.036461e+003, 1.063335e-001
2.038389e+003, 1.065557e-001
2.040318e+003, 1.064916e-001
2.042246e+003, 1.073079e-001
2.044175e+003, 1.070006e-001
2.046103e+003, 1.062554e-001
2.048032e+003, 1.078314e-001
2.049960e+003, 1.105471e-001
2.051889e+003, 1.102903e-001
2.053817e+003, 1.083760e-001
2.055746e+003, 1.074492e-001
2.057674e+003, 1.082007e-001
2.059603e+003, 1.099808e-001
2.061531e+003, 1.110300e-001
2.063459e+003, 1.107373e-001
2.065388e+003, 1.093503e-001
2.067316e+003, 1.086755e-001
2.069245e+003, 1.094766e-001
2.071173e+003, 1.100734e-001
2.073102e+003, 1.101429e-001
2.075030e+003, 1.114099e-001
2.076959e+003, 1.121206e-001
2.078887e+003, 1.116587e-001
2.080816e+003, 1.118160e-001
2.082744e+003, 1.115322e-001
2.084673e+003, 1.118854e-001
2.086601e+003, 1.116953e-001
2.088530e+003, 1.104945e-001
2.090458e+003, 1.109638e-001
2.092386e+003, 1.123588e-001
2.094315e+003, 1.118579e-001
2.096243e+003, 1.119514e-001
2.098172e+003, 1.129839e-001
2.100100e+003, 1.136512e-001
2.102029e+003, 1.136097e-001
2.103957e+003, 1.140084e-001
2.105886e+003, 1.142065e-001
2.107814e+003, 1.142298e-001
2.109743e+003, 1.140663e-001
2.111671e+003, 1.136840e-001
2.113600e+003, 1.134671e-001
2.115528e+003, 1.129897e-001
2.117457e+003, 1.130047e-001
2.119385e+003, 1.129188e-001
2.121313e+003, 1.134611e-001
2.123242e+003, 1.136765e-001
2.125170e+003, 1.125167e-001
2.127099e+003, 1.118768e-001
2.129027e+003, 1.120918e-001
2.130956e+003, 1.118088e-001
2.132884e+003, 1.119665e-001
2.134813e+003, 1.126757e-001
2.136741e+003, 1.133321e-001
2.138670e+003, 1.148324e-001
2.140598e+003, 1.125196e-001
2.142527e+003, 1.108033e-001
2.144455e+003, 1.109650e-001
2.146384e+003, 1.118160e-001
2.148312e+003, 1.133750e-001
2.150240e+003, 1.149031e-001
2.152169e+003, 1.129227e-001
2.154097e+003, 1.089722e-001
2.156026e+003, 1.075733e-001
2.157954e+003, 1.104693e-001
2.159883e+003, 1.143589e-001
2.161811e+003, 1.168867e-001
2.163740e+003, 1.180937e-001
2.165668e+003, 1.155688e-001
2.167597e+003, 1.151892e-001
2.169525e+003, 1.161689e-001
2.171454e+003, 1.153652e-001
2.173382e+003, 1.165763e-001
2.175311e+003, 1.170174e-001
2.177239e+003, 1.187370e-001
2.179167e+003, 1.192366e-001
2.181096e+003, 1.182536e-001
2.183024e+003, 1.180235e-001
2.184953e+003, 1.189475e-001
2.186881e+003, 1.174570e-001
2.188810e+003, 1.163863e-001
2.190738e+003, 1.173302e-001
2.192667e+003, 1.173154e-001
2.194595e+003, 1.167767e-001
2.196524e+003, 1.181599e-001
2.198452e+003, 1.197570e-001
2.200381e+003, 1.205520e-001
2.202309e+003, 1.202436e-001
2.204238e+003, 1.201794e-001
2.206166e+003, 1.206368e-001
2.208094e+003, 1.202347e-001
2.210023e+003, 1.202979e-001
2.211951e+003, 1.193504e-001
2.213880e+003, 1.198285e-001
2.215808e+003, 1.214507e-001
2.217737e+003, 1.214979e-001
2.219665e+003, 1.210348e-001
2.221594e+003, 1.207091e-001
2.223522e+003, 1.200999e-001
2.225451e+003, 1.201824e-001
2.227379e+003, 1.206106e-001
2.229308e+003, 1.213789e-001
2.231236e+003, 1.222955e-001
2.233165e+003, 1.224579e-001
2.235093e+003, 1.229484e-001
2.237021e+003, 1.228753e-001
2.238950e+003, 1.222370e-001
2.240878e+003, 1.214580e-001
2.242807e+003, 1.212053e-001
2.244735e+003, 1.220880e-001
2.246664e+003, 1.234024e-001
2.248592e+003, 1.236119e-001
2.250521e+003, 1.239730e-001
2.252449e+003, 1.244825e-001
2.254378e+003, 1.236945e-001
2.256306e+003, 1.239055e-001
2.258235e+003, 1.246555e-001
2.260163e+003, 1.227286e-001
2.262092e+003, 1.224055e-001
2.264020e+003, 1.244577e-001
2.265948e+003, 1.242702e-001
2.267877e+003, 1.230422e-001
2.269805e+003, 1.230885e-001
2.271734e+003, 1.249237e-001
2.273662e+003, 1.259288e-001
2.275591e+003, 1.254651e-001
2.277519e+003, 1.253461e-001
2.279448e+003, 1.256641e-001
2.281376e+003, 1.263205e-001
2.283305e+003, 1.257893e-001
2.285233e+003, 1.257759e-001
2.287162e+003, 1.254685e-001
2.289090e+003, 1.249981e-001
2.291019e+003, 1.254638e-001
2.292947e+003, 1.258106e-001
2.294875e+003, 1.258433e-001
2.296804e+003, 1.264231e-001
2.298732e+003, 1.270367e-001
2.300661e+003, 1.271476e-001
2.302589e+003, 1.268190e-001
2.304518e+003, 1.267686e-001
2.306446e+003, 1.272469e-001
2.308375e+003, 1.271100e-001
2.310303e+003, 1.271176e-001
2.312232e+003, 1.274361e-001
2.314160e+003, 1.271809e-001
2.316089e+003, 1.270286e-001
2.318017e+003, 1.270846e-001
2.319946e+003, 1.281393e-001
2.321874e+003, 1.294804e-001
2.323802e+003, 1.293498e-001
2.325731e+003, 1.282323e-001
2.327659e+003, 1.270500e-001
2.329588e+003, 1.265354e-001
2.331516e+003, 1.268566e-001
2.333445e+003, 1.269975e-001
2.335373e+003, 1.270953e-001
2.337302e+003, 1.272166e-001
2.339230e+003, 1.271923e-001
2.341159e+003, 1.278417e-001
2.343087e+003, 1.284827e-001
2.345016e+003, 1.281486e-001
2.346944e+003, 1.280936e-001
2.348873e+003, 1.285876e-001
2.350801e+003, 1.281120e-001
2.352729e+003, 1.277141e-001
2.354658e+003, 1.283971e-001
2.356586e+003, 1.286261e-001
2.358515e+003, 1.284180e-001
2.360443e+003, 1.280036e-001
2.362372e+003, 1.282317e-001
2.364300e+003, 1.287786e-001
2.366229e+003, 1.286764e-001
2.368157e+003, 1.282154e-001
2.370086e+003, 1.283070e-001
2.372014e+003, 1.287483e-001
2.373942e+003, 1.288578e-001
2.375871e+003, 1.285520e-001
2.377799e+003, 1.284364e-001
2.379728e+003, 1.288212e-001
2.381656e+003, 1.292536e-001
2.383585e+003, 1.289552e-001
2.385513e+003, 1.290868e-001
2.387442e+003, 1.295057e-001
2.389370e+003, 1.295495e-001
2.391299e+003, 1.300858e-001
2.393227e+003, 1.300578e-001
2.395156e+003, 1.291718e-001
2.397084e+003, 1.292857e-001
2.399012e+003, 1.296869e-001
2.400941e+003, 1.304923e-001
2.402869e+003, 1.308826e-001
2.404798e+003, 1.308507e-001
2.406726e+003, 1.304470e-001
2.408655e+003, 1.300287e-001
2.410583e+003, 1.302149e-001
2.412512e+003, 1.310367e-001
2.414440e+003, 1.315136e-001
2.416369e+003, 1.307032e-001
2.418297e+003, 1.312315e-001
2.420226e+003, 1.317643e-001
2.422154e+003, 1.319256e-001
2.424083e+003, 1.323413e-001
2.426011e+003, 1.325647e-001
2.427939e+003, 1.325337e-001
2.429868e+003, 1.321932e-001
2.431796e+003, 1.322652e-001
2.433725e+003, 1.330025e-001
2.435653e+003, 1.335306e-001
2.437582e+003, 1.334158e-001
2.439510e+003, 1.329056e-001
2.441439e+003, 1.332001e-001
2.443367e+003, 1.338118e-001
2.445296e+003, 1.341051e-001
2.447224e+003, 1.343700e-001
2.449153e+003, 1.340241e-001
2.451081e+003, 1.342037e-001
2.453010e+003, 1.347053e-001
2.454938e+003, 1.348242e-001
2.456866e+003, 1.349969e-001
2.458795e+003, 1.350782e-001
2.460723e+003, 1.355232e-001
2.462652e+003, 1.349906e-001
2.464580e+003, 1.339441e-001
2.466509e+003, 1.338505e-001
2.468437e+003, 1.344840e-001
2.470366e+003, 1.352731e-001
2.472294e+003, 1.353092e-001
2.474223e+003, 1.348476e-001
2.476151e+003, 1.346400e-001
2.478080e+003, 1.345209e-001
2.480008e+003, 1.348353e-001
2.481937e+003, 1.355288e-001
2.483865e+003, 1.362334e-001
2.485793e+003, 1.369261e-001
2.487722e+003, 1.373955e-001
2.489650e+003, 1.367692e-001
2.491579e+003, 1.370191e-001
2.493507e+003, 1.368677e-001
2.495436e+003, 1.368057e-001
2.497364e+003, 1.374638e-001
2.499293e+003, 1.382644e-001
2.501221e+003, 1.382547e-001
2.503150e+003, 1.382376e-001
2.505078e+003, 1.391443e-001
2.507007e+003, 1.398078e-001
2.508935e+003, 1.404603e-001
2.510864e+003, 1.409518e-001
2.512792e+003, 1.407475e-001
2.514720e+003, 1.404467e-001
2.516649e+003, 1.407296e-001
2.518577e+003, 1.413891e-001
2.520506e+003, 1.410537e-001
2.522434e+003, 1.398023e-001
2.524363e+003, 1.385310e-001
2.526291e+003, 1.383116e-001
2.528220e+003, 1.391216e-001
2.530148e+003, 1.394597e-001
2.532077e+003, 1.395940e-001
2.534005e+003, 1.398208e-001
2.535934e+003, 1.398468e-001
2.537862e+003, 1.396575e-001
2.539791e+003, 1.394655e-001
2.541719e+003, 1.399816e-001
2.543647e+003, 1.400794e-001
2.545576e+003, 1.398688e-001
2.547504e+003, 1.395308e-001
2.549433e+003, 1.397929e-001
2.551361e+003, 1.404886e-001
2.553290e+003, 1.402298e-001
2.555218e+003, 1.407416e-001
2.557147e+003, 1.409135e-001
2.559075e+003, 1.404552e-001
2.561004e+003, 1.401546e-001
2.562932e+003, 1.396747e-001
2.564861e+003, 1.397239e-001
2.566789e+003, 1.397462e-001
2.568718e+003, 1.395532e-001
2.570646e+003, 1.405292e-001
2.572574e+003, 1.409950e-001
2.574503e+003, 1.412731e-001
2.576431e+003, 1.414069e-001
2.578360e+003, 1.415193e-001
2.580288e+003, 1.413622e-001
2.582217e+003, 1.414191e-001
2.584145e+003, 1.423148e-001
2.586074e+003, 1.424800e-001
2.588002e+003, 1.407576e-001
2.589931e+003, 1.400507e-001
2.591859e+003, 1.412498e-001
2.593788e+003, 1.420198e-001
2.595716e+003, 1.425367e-001
2.597645e+003, 1.427413e-001
2.599573e+003, 1.426205e-001
2.601501e+003, 1.431109e-001
2.603430e+003, 1.429725e-001
2.605358e+003, 1.419454e-001
2.607287e+003, 1.416816e-001
2.609215e+003, 1.422867e-001
2.611144e+003, 1.427453e-001
2.613072e+003, 1.430161e-001
2.615001e+003, 1.430873e-001
2.616929e+003, 1.429838e-001
2.618858e+003, 1.434394e-001
2.620786e+003, 1.434025e-001
2.622715e+003, 1.429661e-001
2.624643e+003, 1.433864e-001
2.626572e+003, 1.438194e-001
2.628500e+003, 1.440033e-001
2.630428e+003, 1.439997e-001
2.632357e+003, 1.439021e-001
2.634285e+003, 1.442896e-001
2.636214e+003, 1.446943e-001
2.638142e+003, 1.445401e-001
2.640071e+003, 1.451293e-001
2.641999e+003, 1.446604e-001
2.643928e+003, 1.441332e-001
2.645856e+003, 1.440189e-001
2.647785e+003, 1.443049e-001
2.649713e+003, 1.442257e-001
2.651642e+003, 1.438962e-001
2.653570e+003, 1.440724e-001
2.655499e+003, 1.446202e-001
2.657427e+003, 1.446335e-001
2.659355e+003, 1.445311e-001
2.661284e+003, 1.449769e-001
2.663212e+003, 1.453216e-001
2.665141e+003, 1.453174e-001
2.667069e+003, 1.454158e-001
2.668998e+003, 1.455712e-001
2.670926e+003, 1.450715e-001
2.672855e+003, 1.451663e-001
2.674783e+003, 1.451832e-001
2.676712e+003, 1.447607e-001
2.678640e+003, 1.447382e-001
2.680569e+003, 1.446762e-001
2.682497e+003, 1.451418e-001
2.684426e+003, 1.453956e-001
2.686354e+003, 1.451968e-001
2.688282e+003, 1.451632e-001
2.690211e+003, 1.451030e-001
2.692139e+003, 1.458119e-001
2.694068e+003, 1.463831e-001
2.695996e+003, 1.463448e-001
2.697925e+003, 1.463410e-001
2.699853e+003, 1.457955e-001
2.701782e+003, 1.458622e-001
2.703710e+003, 1.464597e-001
2.705639e+003, 1.461821e-001
2.707567e+003, 1.451259e-001
2.709496e+003, 1.455874e-001
2.711424e+003, 1.461577e-001
2.713353e+003, 1.461918e-001
2.715281e+003, 1.465864e-001
2.717209e+003, 1.471467e-001
2.719138e+003, 1.474942e-001
2.721066e+003, 1.475145e-001
2.722995e+003, 1.474163e-001
2.724923e+003, 1.473469e-001
2.726852e+003, 1.471144e-001
2.728780e+003, 1.471167e-001
2.730709e+003, 1.473274e-001
2.732637e+003, 1.481251e-001
2.734566e+003, 1.480151e-001
2.736494e+003, 1.469230e-001
2.738423e+003, 1.473643e-001
2.740351e+003, 1.477165e-001
2.742280e+003, 1.476898e-001
2.744208e+003, 1.478271e-001
2.746136e+003, 1.478497e-001
2.748065e+003, 1.478684e-001
2.749993e+003, 1.477322e-001
2.751922e+003, 1.478195e-001
2.753850e+003, 1.479563e-001
2.755779e+003, 1.477063e-001
2.757707e+003, 1.483478e-001
2.759636e+003, 1.486422e-001
2.761564e+003, 1.483365e-001
2.763493e+003, 1.491238e-001
2.765421e+003, 1.494474e-001
2.767350e+003, 1.486800e-001
2.769278e+003, 1.486388e-001
2.771207e+003, 1.487019e-001
2.773135e+003, 1.486664e-001
2.775063e+003, 1.492992e-001
2.776992e+003, 1.491600e-001
2.778920e+003, 1.490330e-001
2.780849e+003, 1.495252e-001
2.782777e+003, 1.496680e-001
2.784706e+003, 1.493384e-001
2.786634e+003, 1.487310e-001
2.788563e+003, 1.491481e-001
2.790491e+003, 1.496812e-001
2.792420e+003, 1.494393e-001
2.794348e+003, 1.494425e-001
2.796277e+003, 1.496214e-001
2.798205e+003, 1.498223e-001
2.800134e+003, 1.498835e-001
2.802062e+003, 1.500807e-001
2.803990e+003, 1.495613e-001
2.805919e+003, 1.491650e-001
2.807847e+003, 1.499668e-001
2.809776e+003, 1.502598e-001
2.811704e+003, 1.501151e-001
2.813633e+003, 1.503123e-001
2.815561e+003, 1.504374e-001
2.817490e+003, 1.506807e-001
2.819418e+003, 1.499596e-001
2.821347e+003, 1.489194e-001
2.823275e+003, 1.500340e-001
2.825204e+003, 1.506079e-001
2.827132e+003, 1.506176e-001
2.829061e+003, 1.511415e-001
2.830989e+003, 1.515143e-001
2.832917e+003, 1.513160e-001
2.834846e+003, 1.511159e-001
2.836774e+003, 1.511946e-001
2.838703e+003, 1.516052e-001
2.840631e+003, 1.519786e-001
2.842560e+003, 1.516704e-001
2.844488e+003, 1.513807e-001
2.846417e+003, 1.522882e-001
2.848345e+003, 1.530589e-001
2.850274e+003, 1.524229e-001
2.852202e+003, 1.517428e-001
2.854131e+003, 1.515532e-001
2.856059e+003, 1.522722e-001
2.857988e+003, 1.528058e-001
2.859916e+003, 1.526204e-001
2.861844e+003, 1.525752e-001
2.863773e+003, 1.526925e-001
2.865701e+003, 1.528182e-001
2.867630e+003, 1.533388e-001
2.869558e+003, 1.539491e-001
2.871487e+003, 1.537375e-001
2.873415e+003, 1.535618e-001
2.875344e+003, 1.539533e-001
2.877272e+003, 1.539819e-001
2.879201e+003, 1.538849e-001
2.881129e+003, 1.546440e-001
2.883058e+003, 1.547358e-001
2.884986e+003, 1.544718e-001
2.886915e+003, 1.545075e-001
2.888843e+003, 1.545088e-001
2.890771e+003, 1.544300e-001
2.892700e+003, 1.545545e-001
2.894628e+003, 1.542256e-001
2.896557e+003, 1.536122e-001
2.898485e+003, 1.535605e-001
2.900414e+003, 1.538376e-001
2.902342e+003, 1.542075e-001
2.904271e+003, 1.543239e-001
2.906199e+003, 1.544137e-001
2.908128e+003, 1.537111e-001
2.910056e+003, 1.534265e-001
2.911985e+003, 1.538865e-001
2.913913e+003, 1.542821e-001
2.915842e+003, 1.547077e-001
2.917770e+003, 1.556293e-001
2.919698e+003, 1.557858e-001
2.921627e+003, 1.553719e-001
2.923555e+003, 1.552728e-001
2.925484e+003, 1.551585e-001
2.927412e+003, 1.548222e-001
2.929341e+003, 1.547097e-001
2.931269e+003, 1.549068e-001
2.933198e+003, 1.555937e-001
2.935126e+003, 1.557637e-001
2.937055e+003, 1.553550e-001
2.938983e+003, 1.550124e-001
2.940912e+003, 1.557801e-001
2.942840e+003, 1.560174e-001
2.944769e+003, 1.560888e-001
2.946697e+003, 1.567558e-001
2.948625e+003, 1.574003e-001
2.950554e+003, 1.571698e-001
2.952482e+003, 1.572425e-001
2.954411e+003, 1.568300e-001
2.956339e+003, 1.566375e-001
2.958268e+003, 1.569861e-001
2.960196e+003, 1.572625e-001
2.962125e+003, 1.578137e-001
2.964053e+003, 1.573312e-001
2.965982e+003, 1.575561e-001
2.967910e+003, 1.586261e-001
2.969839e+003, 1.592414e-001
2.971767e+003, 1.583200e-001
2.973696e+003, 1.578751e-001
2.975624e+003, 1.582812e-001
2.977552e+003, 1.591524e-001
2.979481e+003, 1.595918e-001
2.981409e+003, 1.592440e-001
2.983338e+003, 1.592657e-001
2.985266e+003, 1.597587e-001
2.987195e+003, 1.596821e-001
2.989123e+003, 1.596569e-001
2.991052e+003, 1.607164e-001
2.992980e+003, 1.604550e-001
2.994909e+003, 1.590214e-001
2.996837e+003, 1.584627e-001
2.998766e+003, 1.589080e-001
3.000694e+003, 1.594643e-001
3.002623e+003, 1.603621e-001
3.004551e+003, 1.604059e-001
3.006479e+003, 1.605636e-001
3.008408e+003, 1.610074e-001
3.010336e+003, 1.607333e-001
3.012265e+003, 1.611427e-001
3.014193e+003, 1.612661e-001
3.016122e+003, 1.609969e-001
3.018050e+003, 1.608991e-001
3.019979e+003, 1.611281e-001
3.021907e+003, 1.618022e-001
3.023836e+003, 1.628522e-001
3.025764e+003, 1.627370e-001
3.027693e+003, 1.622998e-001
3.029621e+003, 1.624867e-001
3.031550e+003, 1.629930e-001
3.033478e+003, 1.633700e-001
3.035406e+003, 1.631188e-001
3.037335e+003, 1.633073e-001
3.039263e+003, 1.627758e-001
3.041192e+003, 1.630354e-001
3.043120e+003, 1.641538e-001
3.045049e+003, 1.642212e-001
3.046977e+003, 1.642934e-001
3.048906e+003, 1.638326e-001
3.050834e+003, 1.636329e-001
3.052763e+003, 1.637591e-001
3.054691e+003, 1.637738e-001
3.056620e+003, 1.640220e-001
3.058548e+003, 1.644826e-001
3.060477e+003, 1.652307e-001
3.062405e+003, 1.651772e-001
3.064333e+003, 1.655287e-001
3.066262e+003, 1.650282e-001
3.068190e+003, 1.648339e-001
3.070119e+003, 1.653875e-001
3.072047e+003, 1.658479e-001
3.073976e+003, 1.658562e-001
3.075904e+003, 1.658795e-001
3.077833e+003, 1.663783e-001
3.079761e+003, 1.663832e-001
3.081690e+003, 1.665065e-001
3.083618e+003, 1.664716e-001
3.085547e+003, 1.661009e-001
3.087475e+003, 1.667566e-001
3.089404e+003, 1.682572e-001
3.091332e+003, 1.678823e-001
3.093260e+003, 1.677969e-001
3.095189e+003, 1.675870e-001
3.097117e+003, 1.678734e-001
3.099046e+003, 1.679584e-001
3.100974e+003, 1.680186e-001
3.102903e+003, 1.685112e-001
3.104831e+003, 1.681747e-001
3.106760e+003, 1.681655e-001
3.108688e+003, 1.693512e-001
3.110617e+003, 1.689195e-001
3.112545e+003, 1.678175e-001
3.114474e+003, 1.688309e-001
3.116402e+003, 1.695329e-001
3.118331e+003, 1.695562e-001
3.120259e+003, 1.692401e-001
3.122188e+003, 1.694170e-001
3.124116e+003, 1.695889e-001
3.126044e+003, 1.686110e-001
3.127973e+003, 1.680540e-001
3.129901e+003, 1.686288e-001
3.131830e+003, 1.695689e-001
3.133758e+003, 1.700025e-001
3.135687e+003, 1.705123e-001
3.137615e+003, 1.713195e-001
3.139544e+003, 1.717108e-001
3.141472e+003, 1.711952e-001
3.143401e+003, 1.701099e-001
3.145329e+003, 1.687730e-001
3.147258e+003, 1.689636e-001
3.149186e+003, 1.701337e-001
3.151115e+003, 1.702775e-001
3.153043e+003, 1.704185e-001
3.154971e+003, 1.713447e-001
3.156900e+003, 1.709801e-001
3.158828e+003, 1.716263e-001
3.160757e+003, 1.729031e-001
3.162685e+003, 1.724462e-001
3.164614e+003, 1.716221e-001
3.166542e+003, 1.712691e-001
3.168471e+003, 1.710864e-001
3.170399e+003, 1.715281e-001
3.172328e+003, 1.712251e-001
3.174256e+003, 1.708868e-001
3.176185e+003, 1.704113e-001
3.178113e+003, 1.711592e-001
3.180042e+003, 1.709847e-001
3.181970e+003, 1.701203e-001
3.183898e+003, 1.711305e-001
3.185827e+003, 1.729014e-001
3.187755e+003, 1.725279e-001
3.189684e+003, 1.715694e-001
3.191612e+003, 1.722473e-001
3.193541e+003, 1.731399e-001
3.195469e+003, 1.728055e-001
3.197398e+003, 1.733978e-001
3.199326e+003, 1.742820e-001
3.201255e+003, 1.749998e-001
3.203183e+003, 1.744586e-001
3.205112e+003, 1.739532e-001
3.207040e+003, 1.746441e-001
3.208969e+003, 1.747064e-001
3.210897e+003, 1.741504e-001
3.212825e+003, 1.736056e-001
3.214754e+003, 1.726640e-001
3.216682e+003, 1.727338e-001
3.218611e+003, 1.744692e-001
3.220539e+003, 1.753204e-001
3.222468e+003, 1.756369e-001
3.224396e+003, 1.753857e-001
3.226325e+003, 1.751335e-001
3.228253e+003, 1.759661e-001
3.230182e+003, 1.756724e-001
3.232110e+003, 1.751155e-001
3.234039e+003, 1.754776e-001
3.235967e+003, 1.756547e-001
3.237896e+003, 1.759028e-001
3.239824e+003, 1.757526e-001
3.241752e+003, 1.752520e-001
3.243681e+003, 1.754163e-001
3.245609e+003, 1.752957e-001
3.247538e+003, 1.756212e-001
3.249466e+003, 1.752372e-001
3.251395e+003, 1.751243e-001
3.253323e+003, 1.757337e-001
3.255252e+003, 1.775385e-001
3.257180e+003, 1.784653e-001
3.259109e+003, 1.777272e-001
3.261037e+003, 1.765793e-001
3.262966e+003, 1.759500e-001
3.264894e+003, 1.761282e-001
3.266823e+003, 1.772483e-001
3.268751e+003, 1.781358e-001
3.270679e+003, 1.783835e-001
3.272608e+003, 1.787046e-001
3.274536e+003, 1.775491e-001
3.276465e+003, 1.764395e-001
3.278393e+003, 1.757328e-001
3.280322e+003, 1.763133e-001
3.282250e+003, 1.770109e-001
3.284179e+003, 1.774471e-001
3.286107e+003, 1.788335e-001
3.288036e+003, 1.790947e-001
3.289964e+003, 1.780626e-001
3.291893e+003, 1.776222e-001
3.293821e+003, 1.786082e-001
3.295750e+003, 1.796245e-001
3.297678e+003, 1.794363e-001
3.299606e+003, 1.778390e-001
3.301535e+003, 1.776252e-001
3.303463e+003, 1.781956e-001
3.305392e+003, 1.776901e-001
3.307320e+003, 1.777218e-001
3.309249e+003, 1.781285e-001
3.311177e+003, 1.779958e-001
3.313106e+003, 1.788002e-001
3.315034e+003, 1.794891e-001
3.316963e+003, 1.799388e-001
3.318891e+003, 1.788353e-001
3.320820e+003, 1.780013e-001
3.322748e+003, 1.789605e-001
3.324677e+003, 1.804436e-001
3.326605e+003, 1.796698e-001
3.328533e+003, 1.801064e-001
3.330462e+003, 1.795320e-001
3.332390e+003, 1.789464e-001
3.334319e+003, 1.804138e-001
3.336247e+003, 1.817426e-001
3.338176e+003, 1.818171e-001
3.340104e+003, 1.805303e-001
3.342033e+003, 1.805954e-001
3.343961e+003, 1.810368e-001
3.345890e+003, 1.801000e-001
3.347818e+003, 1.803137e-001
3.349747e+003, 1.811322e-001
3.351675e+003, 1.810990e-001
3.353604e+003, 1.806418e-001
3.355532e+003, 1.815909e-001
3.357460e+003, 1.820078e-001
3.359389e+003, 1.815898e-001
3.361317e+003, 1.813153e-001
3.363246e+003, 1.807389e-001
3.365174e+003, 1.808902e-001
3.367103e+003, 1.820173e-001
3.369031e+003, 1.822264e-001
3.370960e+003, 1.818330e-001
3.372888e+003, 1.817504e-001
3.374817e+003, 1.818127e-001
3.376745e+003, 1.815491e-001
3.378674e+003, 1.815863e-001
3.380602e+003, 1.812519e-001
3.382531e+003, 1.812218e-001
3.384459e+003, 1.815609e-001
3.386387e+003, 1.814977e-001
3.388316e+003, 1.816354e-001
3.390244e+003, 1.823020e-001
3.392173e+003, 1.816227e-001
3.394101e+003, 1.805580e-001
3.396030e+003, 1.818370e-001
3.397958e+003, 1.828322e-001
3.399887e+003, 1.840205e-001
3.401815e+003, 1.851769e-001
3.403744e+003, 1.843721e-001
3.405672e+003, 1.839515e-001
3.407601e+003, 1.833356e-001
3.409529e+003, 1.825369e-001
3.411458e+003, 1.822615e-001
3.413386e+003, 1.836484e-001
3.415314e+003, 1.844452e-001
3.417243e+003, 1.838826e-001
3.419171e+003, 1.829649e-001
3.421100e+003, 1.822028e-001
3.423028e+003, 1.822242e-001
3.424957e+003, 1.832066e-001
3.426885e+003, 1.836886e-001
3.428814e+003, 1.834407e-001
3.430742e+003, 1.836396e-001
3.432671e+003, 1.847889e-001
3.434599e+003, 1.843855e-001
3.436528e+003, 1.833389e-001
3.438456e+003, 1.837915e-001
3.440385e+003, 1.830134e-001
3.442313e+003, 1.834338e-001
3.444241e+003, 1.838615e-001
3.446170e+003, 1.837164e-001
3.448098e+003, 1.845877e-001
3.450027e+003, 1.844388e-001
3.451955e+003, 1.840740e-001
3.453884e+003, 1.838668e-001
3.455812e+003, 1.847912e-001
3.457741e+003, 1.855079e-001
3.459669e+003, 1.862466e-001
3.461598e+003, 1.866738e-001
3.463526e+003, 1.845590e-001
3.465455e+003, 1.833051e-001
3.467383e+003, 1.843836e-001
3.469312e+003, 1.849777e-001
3.471240e+003, 1.853946e-001
3.473168e+003, 1.862752e-001
3.475097e+003, 1.862821e-001
3.477025e+003, 1.857752e-001
3.478954e+003, 1.843680e-001
3.480882e+003, 1.843628e-001
3.482811e+003, 1.859567e-001
3.484739e+003, 1.864914e-001
3.486668e+003, 1.857461e-001
3.488596e+003, 1.848111e-001
3.490525e+003, 1.850468e-001
3.492453e+003, 1.865889e-001
3.494382e+003, 1.873687e-001
3.496310e+003, 1.876176e-001
3.498239e+003, 1.886990e-001
3.500167e+003, 1.890642e-001
3.502095e+003, 1.882400e-001
3.504024e+003, 1.869321e-001
3.505952e+003, 1.848509e-001
3.507881e+003, 1.851445e-001
3.509809e+003, 1.859092e-001
3.511738e+003, 1.866482e-001
3.513666e+003, 1.872028e-001
3.515595e+003, 1.871479e-001
3.517523e+003, 1.883082e-001
3.519452e+003, 1.896961e-001
3.521380e+003, 1.887201e-001
3.523309e+003, 1.875963e-001
3.525237e+003, 1.886714e-001
3.527166e+003, 1.882637e-001
3.529094e+003, 1.896910e-001
3.531022e+003, 1.910403e-001
3.532951e+003, 1.898645e-001
3.534879e+003, 1.874865e-001
3.536808e+003, 1.858195e-001
3.538736e+003, 1.853881e-001
3.540665e+003, 1.873370e-001
3.542593e+003, 1.892591e-001
3.544522e+003, 1.895443e-001
3.546450e+003, 1.879230e-001
3.548379e+003, 1.868478e-001
3.550307e+003, 1.878528e-001
3.552236e+003, 1.885895e-001
3.554164e+003, 1.894184e-001
3.556093e+003, 1.888167e-001
3.558021e+003, 1.882310e-001
3.559949e+003, 1.870490e-001
3.561878e+003, 1.871309e-001
3.563806e+003, 1.885376e-001
3.565735e+003, 1.885198e-001
3.567663e+003, 1.869837e-001
3.569592e+003, 1.864988e-001
3.571520e+003, 1.877565e-001
3.573449e+003, 1.889887e-001
3.575377e+003, 1.895037e-001
3.577306e+003, 1.901189e-001
3.579234e+003, 1.895736e-001
3.581163e+003, 1.892969e-001
3.583091e+003, 1.886268e-001
3.585020e+003, 1.884706e-001
3.586948e+003, 1.886653e-001
3.588876e+003, 1.882142e-001
3.590805e+003, 1.890393e-001
3.592733e+003, 1.895036e-001
3.594662e+003, 1.911166e-001
3.596590e+003, 1.912850e-001
3.598519e+003, 1.902491e-001
3.600447e+003, 1.900980e-001
3.602376e+003, 1.914762e-001
3.604304e+003, 1.899025e-001
3.606233e+003, 1.877362e-001
3.608161e+003, 1.876254e-001
3.610090e+003, 1.877962e-001
3.612018e+003, 1.892447e-001
3.613947e+003, 1.901940e-001
3.615875e+003, 1.897933e-001
3.617803e+003, 1.907170e-001
3.619732e+003, 1.911431e-001
3.621660e+003, 1.911085e-001
3.623589e+003, 1.908590e-001
3.625517e+003, 1.900120e-001
3.627446e+003, 1.900337e-001
3.629374e+003, 1.885028e-001
3.631303e+003, 1.894501e-001
3.633231e+003, 1.920916e-001
3.635160e+003, 1.940568e-001
3.637088e+003, 1.945634e-001
3.639017e+003, 1.934495e-001
3.640945e+003, 1.916690e-001
3.642874e+003, 1.913110e-001
3.644802e+003, 1.921163e-001
3.646730e+003, 1.923256e-001
3.648659e+003, 1.933161e-001
3.650587e+003, 1.949051e-001
3.652516e+003, 1.964242e-001
3.654444e+003, 1.959879e-001
3.656373e+003, 1.942874e-001
3.658301e+003, 1.935923e-001
3.660230e+003, 1.946560e-001
3.662158e+003, 1.954152e-001
3.664087e+003, 1.951651e-001
3.666015e+003, 1.964927e-001
3.667944e+003, 1.965990e-001
3.669872e+003, 1.957904e-001
3.671801e+003, 1.956312e-001
3.673729e+003, 1.956841e-001
3.675657e+003, 1.954244e-001
3.677586e+003, 1.984257e-001
3.679514e+003, 1.998438e-001
3.681443e+003, 1.983971e-001
3.683371e+003, 1.991356e-001
3.685300e+003, 2.007381e-001
3.687228e+003, 2.019095e-001
3.689157e+003, 2.029723e-001
3.691085e+003, 2.043683e-001
3.693014e+003, 2.027355e-001
3.694942e+003, 2.009124e-001
3.696871e+003, 1.994809e-001
3.698799e+003, 1.991252e-001
3.700728e+003, 1.990346e-001
3.702656e+003, 1.972573e-001
3.704584e+003, 1.958521e-001
3.706513e+003, 1.959489e-001
3.708441e+003, 1.960043e-001
3.710370e+003, 1.942533e-001
3.712298e+003, 1.932121e-001
3.714227e+003, 1.944400e-001
3.716155e+003, 1.940677e-001
3.718084e+003, 1.944043e-001
3.720012e+003, 1.923464e-001
3.721941e+003, 1.917830e-001
3.723869e+003, 1.927546e-001
3.725798e+003, 1.939905e-001
3.727726e+003, 1.947636e-001
3.729655e+003, 1.950676e-001
3.731583e+003, 1.934046e-001
3.733511e+003, 1.934818e-001
3.735440e+003, 1.957817e-001
3.737368e+003, 1.943028e-001
3.739297e+003, 1.949207e-001
3.741225e+003, 1.970191e-001
3.743154e+003, 1.957195e-001
3.745082e+003, 1.939085e-001
3.747011e+003, 1.954113e-001
3.748939e+003, 1.944229e-001
3.750868e+003, 1.963849e-001
3.752796e+003, 1.990726e-001
3.754725e+003, 1.973635e-001
3.756653e+003, 1.952440e-001
3.758582e+003, 1.971151e-001
3.760510e+003, 1.991298e-001
3.762438e+003, 1.997198e-001
3.764367e+003, 1.988144e-001
3.766295e+003, 1.971190e-001
3.768224e+003, 1.975672e-001
3.770152e+003, 1.966452e-001
3.772081e+003, 1.957392e-001
3.774009e+003, 1.969236e-001
3.775938e+003, 1.971421e-001
3.777866e+003, 1.972298e-001
3.779795e+003, 1.996872e-001
3.781723e+003, 2.000130e-001
3.783652e+003, 1.988074e-001
3.785580e+003, 1.975514e-001
3.787509e+003, 1.976912e-001
3.789437e+003, 1.993654e-001
3.791365e+003, 1.997164e-001
3.793294e+003, 2.001263e-001
3.795222e+003, 1.989414e-001
3.797151e+003, 1.979846e-001
3.799079e+003, 1.981634e-001
3.801008e+003, 1.967409e-001
3.802936e+003, 1.966435e-001
3.804865e+003, 1.983773e-001
3.806793e+003, 1.984411e-001
3.808722e+003, 1.976592e-001
3.810650e+003, 1.974576e-001
3.812579e+003, 1.981299e-001
3.814507e+003, 1.980917e-001
3.816436e+003, 1.963154e-001
3.818364e+003, 1.973545e-001
3.820292e+003, 1.992889e-001
3.822221e+003, 1.980022e-001
3.824149e+003, 1.983704e-001
3.826078e+003, 2.013191e-001
3.828006e+003, 2.027042e-001
3.829935e+003, 2.016307e-001
3.831863e+003, 2.007273e-001
3.833792e+003, 1.997762e-001
3.835720e+003, 1.995016e-001
3.837649e+003, 1.998540e-001
3.839577e+003, 2.009489e-001
3.841506e+003, 2.013905e-001
3.843434e+003, 2.009970e-001
3.845363e+003, 1.998921e-001
3.847291e+003, 1.992514e-001
3.849219e+003, 1.998151e-001
3.851148e+003, 1.986166e-001
3.853076e+003, 1.962162e-001
3.855005e+003, 1.973699e-001
3.856933e+003, 2.005248e-001
3.858862e+003, 2.010058e-001
3.860790e+003, 2.007771e-001
3.862719e+003, 1.999157e-001
3.864647e+003, 1.987090e-001
3.866576e+003, 1.996779e-001
3.868504e+003, 2.012153e-001
3.870433e+003, 2.023018e-001
3.872361e+003, 2.030373e-001
3.874290e+003, 2.012033e-001
3.876218e+003, 2.016582e-001
3.878146e+003, 2.012969e-001
3.880075e+003, 1.984618e-001
3.882003e+003, 1.986033e-001
3.883932e+003, 2.037835e-001
3.885860e+003, 2.050817e-001
3.887789e+003, 2.018245e-001
3.889717e+003, 2.015628e-001
3.891646e+003, 2.020650e-001
3.893574e+003, 2.015127e-001
3.895503e+003, 2.029217e-001
3.897431e+003, 2.041015e-001
3.899360e+003, 2.027220e-001
3.901288e+003, 2.021763e-001
3.903217e+003, 2.026411e-001
3.905145e+003, 2.037223e-001
3.907073e+003, 2.027406e-001
3.909002e+003, 2.018158e-001
3.910930e+003, 2.039368e-001
3.912859e+003, 2.060305e-001
3.914787e+003, 2.057808e-001
3.916716e+003, 2.031590e-001
3.918644e+003, 2.026479e-001
3.920573e+003, 2.012989e-001
3.922501e+003, 2.013409e-001
3.924430e+003, 2.038973e-001
3.926358e+003, 2.049451e-001
3.928287e+003, 2.043481e-001
3.930215e+003, 2.050964e-001
3.932144e+003, 2.031852e-001
3.934072e+003, 2.028713e-001
3.936000e+003, 2.055656e-001
3.937929e+003, 2.070518e-001
3.939857e+003, 2.070796e-001
3.941786e+003, 2.071866e-001
3.943714e+003, 2.042842e-001
3.945643e+003, 2.037866e-001
3.947571e+003, 2.056246e-001
3.949500e+003, 2.063059e-001
3.951428e+003, 2.071718e-001
3.953357e+003, 2.074270e-001
3.955285e+003, 2.072566e-001
3.957214e+003, 2.068028e-001
3.959142e+003, 2.055479e-001
3.961071e+003, 2.064752e-001
3.962999e+003, 2.071541e-001
3.964927e+003, 2.036144e-001
3.966856e+003, 2.039624e-001
3.968784e+003, 2.062787e-001
3.970713e+003, 2.074273e-001
3.972641e+003, 2.082421e-001
3.974570e+003, 2.081761e-001
3.976498e+003, 2.082729e-001
3.978427e+003, 2.090142e-001
3.980355e+003, 2.092093e-001
3.982284e+003, 2.071308e-001
3.984212e+003, 2.058235e-001
3.986141e+003, 2.064572e-001
3.988069e+003, 2.081736e-001
3.989998e+003, 2.079955e-001
3.991926e+003, 2.082474e-001
3.993854e+003, 2.085505e-001
3.995783e+003, 2.079431e-001
3.997711e+003, 2.069173e-001
3.999640e+003, 2.070183e-001
##END=



