##NAMES=Hausmannite
##RRUFFID=R040090
##IDEAL CHEMISTRY=Mn^2+^Mn^3+^_2_O_4_
##LOCALITY=Ã–hrenstock, Ilmenau, near Thuringia, Germany
##OWNER=RRUFF
##SOURCE=University of Arizona Mineral Museum
##DESCRIPTION=Mass of black octahedral crystals
##STATUS=The identification of this mineral has been confirmed by X-ray diffraction and chemical analysis
##URL=rruff.info/R040090
##MEASURED CHEMISTRY=(Mn^2+^_0.71_Zn_0.28_)Mn^3+^_2.00_O_4_
3.991926e+002, 0.000000e+000
4.011211e+002, 4.027414e-001
4.030496e+002, 4.046178e-001
4.049780e+002, 4.004398e-001
4.069065e+002, 3.801932e-001
4.088350e+002, 3.639466e-001
4.107634e+002, 3.643644e-001
4.126919e+002, 3.680426e-001
4.146204e+002, 3.588631e-001
4.165488e+002, 3.477076e-001
4.184773e+002, 3.481055e-001
4.204058e+002, 3.499987e-001
4.223342e+002, 3.486451e-001
4.242627e+002, 3.475146e-001
4.261912e+002, 3.474227e-001
4.281196e+002, 3.404801e-001
4.300481e+002, 3.298599e-001
4.319766e+002, 3.256033e-001
4.339050e+002, 3.340577e-001
4.358335e+002, 3.383929e-001
4.377620e+002, 3.333862e-001
4.396904e+002, 3.345105e-001
4.416189e+002, 3.385965e-001
4.435474e+002, 3.346445e-001
4.454758e+002, 3.346749e-001
4.474043e+002, 3.394554e-001
4.493328e+002, 3.422424e-001
4.512612e+002, 3.450503e-001
4.531897e+002, 3.483958e-001
4.551182e+002, 3.495794e-001
4.570466e+002, 3.507915e-001
4.589751e+002, 3.546061e-001
4.609036e+002, 3.613773e-001
4.628320e+002, 3.671287e-001
4.647605e+002, 3.688007e-001
4.666890e+002, 3.732103e-001
4.686174e+002, 3.800177e-001
4.705459e+002, 3.812253e-001
4.724744e+002, 3.806956e-001
4.744028e+002, 3.835652e-001
4.763313e+002, 3.843400e-001
4.782598e+002, 3.827195e-001
4.801882e+002, 3.802797e-001
4.821167e+002, 3.744485e-001
4.840452e+002, 3.679779e-001
4.859736e+002, 3.644592e-001
4.879021e+002, 3.594930e-001
4.898306e+002, 3.545066e-001
4.917590e+002, 3.513187e-001
4.936875e+002, 3.465153e-001
4.956160e+002, 3.410558e-001
4.975444e+002, 3.364720e-001
4.994729e+002, 3.323146e-001
5.014014e+002, 3.279091e-001
5.033298e+002, 3.219571e-001
5.052583e+002, 3.171645e-001
5.071868e+002, 3.123593e-001
5.091152e+002, 3.058964e-001
5.110437e+002, 3.011125e-001
5.129722e+002, 2.949993e-001
5.149006e+002, 2.887483e-001
5.168291e+002, 2.839846e-001
5.187576e+002, 2.787212e-001
5.206860e+002, 2.723402e-001
5.226145e+002, 2.657105e-001
5.245430e+002, 2.594820e-001
5.264714e+002, 2.526876e-001
5.283999e+002, 2.466238e-001
5.303284e+002, 2.410023e-001
5.322568e+002, 2.351949e-001
5.341853e+002, 2.291697e-001
5.361138e+002, 2.227097e-001
5.380422e+002, 2.162886e-001
5.399707e+002, 2.096417e-001
5.418992e+002, 2.032605e-001
5.438276e+002, 1.971088e-001
5.457561e+002, 1.906651e-001
5.476846e+002, 1.840485e-001
5.496130e+002, 1.767342e-001
5.515415e+002, 1.705805e-001
5.534700e+002, 1.644920e-001
5.553984e+002, 1.575276e-001
5.573269e+002, 1.505526e-001
5.592554e+002, 1.454047e-001
5.611838e+002, 1.431863e-001
5.631123e+002, 1.439717e-001
5.650408e+002, 1.472325e-001
5.669692e+002, 1.534903e-001
5.688977e+002, 1.636103e-001
5.708262e+002, 1.762747e-001
5.727546e+002, 1.906921e-001
5.746831e+002, 2.083919e-001
5.766116e+002, 2.288807e-001
5.785400e+002, 2.515649e-001
5.804685e+002, 2.753699e-001
5.823970e+002, 2.987783e-001
5.843254e+002, 3.212092e-001
5.862539e+002, 3.430723e-001
5.881824e+002, 3.640970e-001
5.901108e+002, 3.823963e-001
5.920393e+002, 3.949248e-001
5.939678e+002, 3.984879e-001
5.958962e+002, 3.939138e-001
5.978247e+002, 3.858189e-001
5.997532e+002, 3.775360e-001
6.016816e+002, 3.679935e-001
6.036101e+002, 3.575046e-001
6.055386e+002, 3.466378e-001
6.074670e+002, 3.350419e-001
6.093955e+002, 3.238136e-001
6.113240e+002, 3.132976e-001
6.132524e+002, 3.026209e-001
6.151809e+002, 2.928151e-001
6.171094e+002, 2.838048e-001
6.190378e+002, 2.755067e-001
6.209663e+002, 2.678958e-001
6.228948e+002, 2.607884e-001
6.248232e+002, 2.535432e-001
6.267517e+002, 2.461560e-001
6.286802e+002, 2.393829e-001
6.306086e+002, 2.333094e-001
6.325371e+002, 2.270696e-001
6.344656e+002, 2.211268e-001
6.363940e+002, 2.154202e-001
6.383225e+002, 2.095104e-001
6.402510e+002, 2.039698e-001
6.421794e+002, 1.989151e-001
6.441079e+002, 1.936472e-001
6.460364e+002, 1.885280e-001
6.479648e+002, 1.836981e-001
6.498933e+002, 1.791513e-001
6.518218e+002, 1.750613e-001
6.537502e+002, 1.707071e-001
6.556787e+002, 1.661441e-001
6.576072e+002, 1.620292e-001
6.595356e+002, 1.581999e-001
6.614641e+002, 1.541107e-001
6.633926e+002, 1.500260e-001
6.653210e+002, 1.464728e-001
6.672495e+002, 1.423235e-001
6.691780e+002, 1.382623e-001
6.711064e+002, 1.345232e-001
6.730349e+002, 1.306321e-001
6.749634e+002, 1.267748e-001
6.768918e+002, 1.228210e-001
6.788203e+002, 1.183351e-001
6.807488e+002, 1.137881e-001
6.826772e+002, 1.090032e-001
6.846057e+002, 1.038683e-001
6.865342e+002, 9.861020e-002
6.884626e+002, 9.338699e-002
6.903911e+002, 8.805358e-002
6.923196e+002, 8.261889e-002
6.942480e+002, 7.781546e-002
6.961765e+002, 7.320512e-002
6.981050e+002, 6.881784e-002
7.000334e+002, 6.522641e-002
7.019619e+002, 6.214629e-002
7.038904e+002, 5.956227e-002
7.058188e+002, 5.765395e-002
7.077473e+002, 5.611872e-002
7.096758e+002, 5.476170e-002
7.116042e+002, 5.388385e-002
7.135327e+002, 5.310006e-002
7.154612e+002, 5.257705e-002
7.173896e+002, 5.209826e-002
7.193181e+002, 5.139554e-002
7.212466e+002, 5.097495e-002
7.231750e+002, 5.066561e-002
7.251035e+002, 5.026859e-002
7.270320e+002, 4.982399e-002
7.289604e+002, 4.891288e-002
7.308889e+002, 4.801083e-002
7.328174e+002, 4.753692e-002
7.347458e+002, 4.716170e-002
7.366743e+002, 4.660951e-002
7.386028e+002, 4.614950e-002
7.405313e+002, 4.580636e-002
7.424597e+002, 4.542345e-002
7.443882e+002, 4.488587e-002
7.463167e+002, 4.421660e-002
7.482451e+002, 4.392048e-002
7.501736e+002, 4.364381e-002
7.521021e+002, 4.324417e-002
7.540305e+002, 4.272860e-002
7.559590e+002, 4.219216e-002
7.578875e+002, 4.201260e-002
7.598159e+002, 4.193884e-002
7.617444e+002, 4.163261e-002
7.636729e+002, 4.109408e-002
7.656013e+002, 4.045442e-002
7.675298e+002, 3.990705e-002
7.694583e+002, 3.930746e-002
7.713867e+002, 3.871664e-002
7.733152e+002, 3.799755e-002
7.752437e+002, 3.739829e-002
7.771721e+002, 3.669269e-002
7.791006e+002, 3.564965e-002
7.810291e+002, 3.471944e-002
7.829575e+002, 3.415073e-002
7.848860e+002, 3.377533e-002
7.868145e+002, 3.332735e-002
7.887429e+002, 3.270954e-002
7.906714e+002, 3.227669e-002
7.925999e+002, 3.197553e-002
7.945283e+002, 3.186867e-002
7.964568e+002, 3.185191e-002
7.983853e+002, 3.178138e-002
8.003137e+002, 3.186715e-002
8.022422e+002, 3.177604e-002
8.041707e+002, 3.157102e-002
8.060991e+002, 3.150506e-002
8.080276e+002, 3.166730e-002
8.099561e+002, 3.192198e-002
8.118845e+002, 3.217862e-002
8.138130e+002, 3.226438e-002
8.157415e+002, 3.238371e-002
8.176699e+002, 3.278570e-002
8.195984e+002, 3.319977e-002
8.215269e+002, 3.339916e-002
8.234553e+002, 3.400682e-002
8.253838e+002, 3.458415e-002
8.273123e+002, 3.485277e-002
8.292407e+002, 3.526149e-002
8.311692e+002, 3.603044e-002
8.330977e+002, 3.680935e-002
8.350261e+002, 3.730208e-002
8.369546e+002, 3.771795e-002
8.388831e+002, 3.813161e-002
8.408115e+002, 3.863984e-002
8.427400e+002, 3.937794e-002
8.446685e+002, 3.993453e-002
8.465969e+002, 4.016881e-002
8.485254e+002, 4.056202e-002
8.504539e+002, 4.093077e-002
8.523823e+002, 4.126399e-002
8.543108e+002, 4.163586e-002
8.562393e+002, 4.189470e-002
8.581677e+002, 4.226743e-002
8.600962e+002, 4.309895e-002
8.620247e+002, 4.453684e-002
8.639531e+002, 4.638959e-002
8.658816e+002, 4.870214e-002
8.678101e+002, 5.027621e-002
8.697385e+002, 4.926436e-002
8.716670e+002, 4.608894e-002
8.735955e+002, 4.348457e-002
8.755239e+002, 4.243064e-002
8.774524e+002, 4.198073e-002
8.793809e+002, 4.202181e-002
8.813093e+002, 4.215683e-002
8.832378e+002, 4.235912e-002
8.851663e+002, 4.274997e-002
8.870947e+002, 4.322429e-002
8.890232e+002, 4.351539e-002
8.909517e+002, 4.381048e-002
8.928801e+002, 4.417925e-002
8.948085e+002, 4.452543e-002
8.967370e+002, 4.492368e-002
8.986655e+002, 4.535764e-002
9.005939e+002, 4.581212e-002
9.025224e+002, 4.635470e-002
9.044509e+002, 4.692132e-002
9.063793e+002, 4.734147e-002
9.083078e+002, 4.798356e-002
9.102363e+002, 4.849076e-002
9.121647e+002, 4.900399e-002
9.140932e+002, 4.965670e-002
9.160217e+002, 5.063204e-002
9.179501e+002, 5.176026e-002
9.198786e+002, 5.259822e-002
9.218071e+002, 5.359605e-002
9.237355e+002, 5.472727e-002
9.256640e+002, 5.573368e-002
9.275925e+002, 5.690018e-002
9.295209e+002, 5.810164e-002
9.314494e+002, 5.938358e-002
9.333779e+002, 6.071306e-002
9.353063e+002, 6.179982e-002
9.372348e+002, 6.288633e-002
9.391633e+002, 6.388658e-002
9.410917e+002, 6.483115e-002
9.430202e+002, 6.587727e-002
9.449487e+002, 6.679942e-002
9.468771e+002, 6.768911e-002
9.488056e+002, 6.861271e-002
9.507341e+002, 6.913558e-002
9.526625e+002, 6.962794e-002
9.545910e+002, 7.014096e-002
9.565195e+002, 7.028823e-002
9.584479e+002, 7.013089e-002
9.603764e+002, 7.007197e-002
9.623049e+002, 6.991734e-002
9.642333e+002, 6.922322e-002
9.661618e+002, 6.872444e-002
9.680903e+002, 6.846279e-002
9.700187e+002, 6.790853e-002
9.719472e+002, 6.728769e-002
9.738757e+002, 6.663676e-002
9.758041e+002, 6.597428e-002
9.777326e+002, 6.535481e-002
9.796611e+002, 6.467629e-002
9.815895e+002, 6.415883e-002
9.835180e+002, 6.374186e-002
9.854465e+002, 6.334410e-002
9.873749e+002, 6.290723e-002
9.893034e+002, 6.241920e-002
9.912319e+002, 6.206902e-002
9.931603e+002, 6.177942e-002
9.950888e+002, 6.143042e-002
9.970173e+002, 6.123293e-002
9.989457e+002, 6.115885e-002
1.000874e+003, 6.093125e-002
1.002803e+003, 6.082239e-002
1.004731e+003, 6.083763e-002
1.006660e+003, 6.096482e-002
1.008588e+003, 6.116685e-002
1.010517e+003, 6.144917e-002
1.012445e+003, 6.162399e-002
1.014373e+003, 6.180315e-002
1.016302e+003, 6.208526e-002
1.018230e+003, 6.214762e-002
1.020159e+003, 6.210696e-002
1.022087e+003, 6.226346e-002
1.024016e+003, 6.247991e-002
1.025944e+003, 6.257685e-002
1.027873e+003, 6.267427e-002
1.029801e+003, 6.263774e-002
1.031730e+003, 6.280154e-002
1.033658e+003, 6.314541e-002
1.035587e+003, 6.342019e-002
1.037515e+003, 6.360956e-002
1.039444e+003, 6.379037e-002
1.041372e+003, 6.399720e-002
1.043301e+003, 6.444425e-002
1.045229e+003, 6.500179e-002
1.047157e+003, 6.527387e-002
1.049086e+003, 6.559505e-002
1.051014e+003, 6.580674e-002
1.052943e+003, 6.551482e-002
1.054871e+003, 6.555215e-002
1.056800e+003, 6.583922e-002
1.058728e+003, 6.599595e-002
1.060657e+003, 6.607841e-002
1.062585e+003, 6.614301e-002
1.064514e+003, 6.621908e-002
1.066442e+003, 6.619945e-002
1.068371e+003, 6.615175e-002
1.070299e+003, 6.610202e-002
1.072228e+003, 6.633838e-002
1.074156e+003, 6.661028e-002
1.076084e+003, 6.643623e-002
1.078013e+003, 6.645596e-002
1.079941e+003, 6.658640e-002
1.081870e+003, 6.674690e-002
1.083798e+003, 6.687023e-002
1.085727e+003, 6.697348e-002
1.087655e+003, 6.716067e-002
1.089584e+003, 6.730581e-002
1.091512e+003, 6.750343e-002
1.093441e+003, 6.794625e-002
1.095369e+003, 6.811996e-002
1.097298e+003, 6.815428e-002
1.099226e+003, 6.838150e-002
1.101155e+003, 6.855524e-002
1.103083e+003, 6.870518e-002
1.105011e+003, 6.897894e-002
1.106940e+003, 6.916103e-002
1.108868e+003, 6.905115e-002
1.110797e+003, 6.910886e-002
1.112725e+003, 6.939772e-002
1.114654e+003, 6.947253e-002
1.116582e+003, 6.960260e-002
1.118511e+003, 6.980651e-002
1.120439e+003, 6.999435e-002
1.122368e+003, 7.027775e-002
1.124296e+003, 7.062716e-002
1.126225e+003, 7.106175e-002
1.128153e+003, 7.155979e-002
1.130082e+003, 7.208734e-002
1.132010e+003, 7.256672e-002
1.133938e+003, 7.268689e-002
1.135867e+003, 7.289153e-002
1.137795e+003, 7.304166e-002
1.139724e+003, 7.335827e-002
1.141652e+003, 7.388149e-002
1.143581e+003, 7.432949e-002
1.145509e+003, 7.461544e-002
1.147438e+003, 7.474491e-002
1.149366e+003, 7.498887e-002
1.151295e+003, 7.513116e-002
1.153223e+003, 7.542632e-002
1.155152e+003, 7.581516e-002
1.157080e+003, 7.609799e-002
1.159009e+003, 7.633610e-002
1.160937e+003, 7.647050e-002
1.162865e+003, 7.659267e-002
1.164794e+003, 7.684086e-002
1.166722e+003, 7.718693e-002
1.168651e+003, 7.736098e-002
1.170579e+003, 7.761939e-002
1.172508e+003, 7.797915e-002
1.174436e+003, 7.837058e-002
1.176365e+003, 7.879306e-002
1.178293e+003, 7.904208e-002
1.180222e+003, 7.929403e-002
1.182150e+003, 7.953252e-002
1.184079e+003, 7.961638e-002
1.186007e+003, 7.997148e-002
1.187936e+003, 8.055723e-002
1.189864e+003, 8.092676e-002
1.191792e+003, 8.105129e-002
1.193721e+003, 8.131180e-002
1.195649e+003, 8.175541e-002
1.197578e+003, 8.204696e-002
1.199506e+003, 8.223340e-002
1.201435e+003, 8.268560e-002
1.203363e+003, 8.302445e-002
1.205292e+003, 8.314147e-002
1.207220e+003, 8.336172e-002
1.209149e+003, 8.367597e-002
1.211077e+003, 8.418623e-002
1.213006e+003, 8.449890e-002
1.214934e+003, 8.466350e-002
1.216863e+003, 8.473577e-002
1.218791e+003, 8.499325e-002
1.220719e+003, 8.537789e-002
1.222648e+003, 8.556999e-002
1.224576e+003, 8.581353e-002
1.226505e+003, 8.625566e-002
1.228433e+003, 8.658692e-002
1.230362e+003, 8.678813e-002
1.232290e+003, 8.682951e-002
1.234219e+003, 8.711006e-002
1.236147e+003, 8.758958e-002
1.238076e+003, 8.798371e-002
1.240004e+003, 8.827075e-002
1.241933e+003, 8.863435e-002
1.243861e+003, 8.898941e-002
1.245790e+003, 8.942468e-002
1.247718e+003, 8.985779e-002
1.249646e+003, 9.025098e-002
1.251575e+003, 9.045039e-002
1.253503e+003, 9.072158e-002
1.255432e+003, 9.111395e-002
1.257360e+003, 9.134686e-002
1.259289e+003, 9.159309e-002
1.261217e+003, 9.193673e-002
1.263146e+003, 9.221648e-002
1.265074e+003, 9.276173e-002
1.267003e+003, 9.328490e-002
1.268931e+003, 9.343645e-002
1.270860e+003, 9.358711e-002
1.272788e+003, 9.390563e-002
1.274717e+003, 9.445588e-002
1.276645e+003, 9.513497e-002
1.278573e+003, 9.559347e-002
1.280502e+003, 9.582744e-002
1.282430e+003, 9.593995e-002
1.284359e+003, 9.620810e-002
1.286287e+003, 9.668873e-002
1.288216e+003, 9.697545e-002
1.290144e+003, 9.732545e-002
1.292073e+003, 9.787213e-002
1.294001e+003, 9.835074e-002
1.295930e+003, 9.864475e-002
1.297858e+003, 9.893713e-002
1.299787e+003, 9.943400e-002
1.301715e+003, 9.987258e-002
1.303644e+003, 1.003533e-001
1.305572e+003, 1.008131e-001
1.307500e+003, 1.011672e-001
1.309429e+003, 1.016157e-001
1.311357e+003, 1.019564e-001
1.313286e+003, 1.022348e-001
1.315214e+003, 1.025788e-001
1.317143e+003, 1.029929e-001
1.319071e+003, 1.035185e-001
1.321000e+003, 1.039417e-001
1.322928e+003, 1.043042e-001
1.324857e+003, 1.047413e-001
1.326785e+003, 1.051192e-001
1.328714e+003, 1.055975e-001
1.330642e+003, 1.060678e-001
1.332571e+003, 1.063645e-001
1.334499e+003, 1.069246e-001
1.336427e+003, 1.075584e-001
1.338356e+003, 1.080010e-001
1.340284e+003, 1.084610e-001
1.342213e+003, 1.085983e-001
1.344141e+003, 1.088777e-001
1.346070e+003, 1.093139e-001
1.347998e+003, 1.096524e-001
1.349927e+003, 1.101367e-001
1.351855e+003, 1.108653e-001
1.353784e+003, 1.112968e-001
1.355712e+003, 1.116217e-001
1.357641e+003, 1.120636e-001
1.359569e+003, 1.125694e-001
1.361498e+003, 1.130331e-001
1.363426e+003, 1.136644e-001
1.365354e+003, 1.143732e-001
1.367283e+003, 1.151110e-001
1.369211e+003, 1.157377e-001
1.371140e+003, 1.163263e-001
1.373068e+003, 1.173231e-001
1.374997e+003, 1.183578e-001
1.376925e+003, 1.191508e-001
1.378854e+003, 1.198919e-001
1.380782e+003, 1.208800e-001
1.382711e+003, 1.218972e-001
1.384639e+003, 1.228067e-001
1.386568e+003, 1.237029e-001
1.388496e+003, 1.246254e-001
1.390424e+003, 1.256523e-001
1.392353e+003, 1.267783e-001
1.394281e+003, 1.278159e-001
1.396210e+003, 1.290520e-001
1.398138e+003, 1.307570e-001
1.400067e+003, 1.325328e-001
1.401995e+003, 1.342273e-001
1.403924e+003, 1.360010e-001
1.405852e+003, 1.378947e-001
1.407781e+003, 1.398602e-001
1.409709e+003, 1.417214e-001
1.411638e+003, 1.433368e-001
1.413566e+003, 1.448549e-001
1.415495e+003, 1.462718e-001
1.417423e+003, 1.475841e-001
1.419351e+003, 1.490292e-001
1.421280e+003, 1.505638e-001
1.423208e+003, 1.519347e-001
1.425137e+003, 1.531017e-001
1.427065e+003, 1.542359e-001
1.428994e+003, 1.553244e-001
1.430922e+003, 1.562514e-001
1.432851e+003, 1.571287e-001
1.434779e+003, 1.577403e-001
1.436708e+003, 1.581207e-001
1.438636e+003, 1.583488e-001
1.440565e+003, 1.586585e-001
1.442493e+003, 1.588170e-001
1.444422e+003, 1.584642e-001
1.446350e+003, 1.580366e-001
1.448278e+003, 1.578236e-001
1.450207e+003, 1.572637e-001
1.452135e+003, 1.562351e-001
1.454064e+003, 1.553687e-001
1.455992e+003, 1.546642e-001
1.457921e+003, 1.539689e-001
1.459849e+003, 1.531650e-001
1.461778e+003, 1.523366e-001
1.463706e+003, 1.512546e-001
1.465635e+003, 1.500516e-001
1.467563e+003, 1.489927e-001
1.469492e+003, 1.479160e-001
1.471420e+003, 1.469067e-001
1.473349e+003, 1.457445e-001
1.475277e+003, 1.445726e-001
1.477205e+003, 1.435627e-001
1.479134e+003, 1.424368e-001
1.481062e+003, 1.412318e-001
1.482991e+003, 1.402877e-001
1.484919e+003, 1.394835e-001
1.486848e+003, 1.386648e-001
1.488776e+003, 1.378526e-001
1.490705e+003, 1.370482e-001
1.492633e+003, 1.360644e-001
1.494562e+003, 1.351568e-001
1.496490e+003, 1.344815e-001
1.498419e+003, 1.337716e-001
1.500347e+003, 1.333061e-001
1.502276e+003, 1.328137e-001
1.504204e+003, 1.322901e-001
1.506132e+003, 1.318996e-001
1.508061e+003, 1.317994e-001
1.509989e+003, 1.318515e-001
1.511918e+003, 1.318562e-001
1.513846e+003, 1.318601e-001
1.515775e+003, 1.318666e-001
1.517703e+003, 1.320127e-001
1.519632e+003, 1.322634e-001
1.521560e+003, 1.325188e-001
1.523489e+003, 1.326564e-001
1.525417e+003, 1.329072e-001
1.527346e+003, 1.333400e-001
1.529274e+003, 1.335495e-001
1.531203e+003, 1.336535e-001
1.533131e+003, 1.340621e-001
1.535059e+003, 1.344458e-001
1.536988e+003, 1.345914e-001
1.538916e+003, 1.348732e-001
1.540845e+003, 1.354551e-001
1.542773e+003, 1.356050e-001
1.544702e+003, 1.358211e-001
1.546630e+003, 1.364115e-001
1.548559e+003, 1.366310e-001
1.550487e+003, 1.367382e-001
1.552416e+003, 1.368637e-001
1.554344e+003, 1.371406e-001
1.556273e+003, 1.375649e-001
1.558201e+003, 1.375737e-001
1.560130e+003, 1.375186e-001
1.562058e+003, 1.375849e-001
1.563986e+003, 1.378293e-001
1.565915e+003, 1.382600e-001
1.567843e+003, 1.383599e-001
1.569772e+003, 1.382135e-001
1.571700e+003, 1.383287e-001
1.573629e+003, 1.385792e-001
1.575557e+003, 1.387149e-001
1.577486e+003, 1.388451e-001
1.579414e+003, 1.386898e-001
1.581343e+003, 1.384301e-001
1.583271e+003, 1.384470e-001
1.585200e+003, 1.387829e-001
1.587128e+003, 1.387366e-001
1.589057e+003, 1.388917e-001
1.590985e+003, 1.390797e-001
1.592913e+003, 1.391169e-001
1.594842e+003, 1.392228e-001
1.596770e+003, 1.394221e-001
1.598699e+003, 1.392277e-001
1.600627e+003, 1.389006e-001
1.602556e+003, 1.388369e-001
1.604484e+003, 1.390117e-001
1.606413e+003, 1.389621e-001
1.608341e+003, 1.391479e-001
1.610270e+003, 1.394754e-001
1.612198e+003, 1.396566e-001
1.614127e+003, 1.397365e-001
1.616055e+003, 1.395793e-001
1.617984e+003, 1.399571e-001
1.619912e+003, 1.400574e-001
1.621840e+003, 1.399871e-001
1.623769e+003, 1.403348e-001
1.625697e+003, 1.403648e-001
1.627626e+003, 1.403881e-001
1.629554e+003, 1.407830e-001
1.631483e+003, 1.408950e-001
1.633411e+003, 1.410785e-001
1.635340e+003, 1.411670e-001
1.637268e+003, 1.412166e-001
1.639197e+003, 1.413172e-001
1.641125e+003, 1.415457e-001
1.643054e+003, 1.418553e-001
1.644982e+003, 1.418609e-001
1.646911e+003, 1.418946e-001
1.648839e+003, 1.421536e-001
1.650767e+003, 1.422195e-001
1.652696e+003, 1.423501e-001
1.654624e+003, 1.426236e-001
1.656553e+003, 1.429426e-001
1.658481e+003, 1.430621e-001
1.660410e+003, 1.427544e-001
1.662338e+003, 1.429064e-001
1.664267e+003, 1.432267e-001
1.666195e+003, 1.432613e-001
1.668124e+003, 1.433479e-001
1.670052e+003, 1.433499e-001
1.671981e+003, 1.435542e-001
1.673909e+003, 1.439294e-001
1.675838e+003, 1.440743e-001
1.677766e+003, 1.440831e-001
1.679694e+003, 1.442475e-001
1.681623e+003, 1.444076e-001
1.683551e+003, 1.447253e-001
1.685480e+003, 1.449777e-001
1.687408e+003, 1.449065e-001
1.689337e+003, 1.450974e-001
1.691265e+003, 1.453722e-001
1.693194e+003, 1.456839e-001
1.695122e+003, 1.458076e-001
1.697051e+003, 1.457822e-001
1.698979e+003, 1.461774e-001
1.700908e+003, 1.466702e-001
1.702836e+003, 1.467582e-001
1.704765e+003, 1.470848e-001
1.706693e+003, 1.470818e-001
1.708621e+003, 1.472923e-001
1.710550e+003, 1.477693e-001
1.712478e+003, 1.481011e-001
1.714407e+003, 1.483257e-001
1.716335e+003, 1.482843e-001
1.718264e+003, 1.482290e-001
1.720192e+003, 1.484618e-001
1.722121e+003, 1.486571e-001
1.724049e+003, 1.489404e-001
1.725978e+003, 1.494384e-001
1.727906e+003, 1.496073e-001
1.729835e+003, 1.498136e-001
1.731763e+003, 1.496082e-001
1.733692e+003, 1.493451e-001
1.735620e+003, 1.494156e-001
1.737548e+003, 1.498090e-001
1.739477e+003, 1.500553e-001
1.741405e+003, 1.502088e-001
1.743334e+003, 1.501583e-001
1.745262e+003, 1.502897e-001
1.747191e+003, 1.506543e-001
1.749119e+003, 1.510240e-001
1.751048e+003, 1.511994e-001
1.752976e+003, 1.513124e-001
1.754905e+003, 1.514912e-001
1.756833e+003, 1.518529e-001
1.758762e+003, 1.519943e-001
1.760690e+003, 1.523018e-001
1.762619e+003, 1.526223e-001
1.764547e+003, 1.526920e-001
1.766475e+003, 1.530188e-001
1.768404e+003, 1.533626e-001
1.770332e+003, 1.537001e-001
1.772261e+003, 1.541450e-001
1.774189e+003, 1.539526e-001
1.776118e+003, 1.540382e-001
1.778046e+003, 1.544037e-001
1.779975e+003, 1.545154e-001
1.781903e+003, 1.549790e-001
1.783832e+003, 1.551909e-001
1.785760e+003, 1.553584e-001
1.787689e+003, 1.554595e-001
1.789617e+003, 1.558941e-001
1.791546e+003, 1.564935e-001
1.793474e+003, 1.567435e-001
1.795402e+003, 1.568620e-001
1.797331e+003, 1.571123e-001
1.799259e+003, 1.572924e-001
1.801188e+003, 1.574891e-001
1.803116e+003, 1.576300e-001
1.805045e+003, 1.575567e-001
1.806973e+003, 1.576983e-001
1.808902e+003, 1.577156e-001
1.810830e+003, 1.580798e-001
1.812759e+003, 1.582094e-001
1.814687e+003, 1.579728e-001
1.816616e+003, 1.582309e-001
1.818544e+003, 1.588975e-001
1.820473e+003, 1.593755e-001
1.822401e+003, 1.597047e-001
1.824329e+003, 1.599290e-001
1.826258e+003, 1.601644e-001
1.828186e+003, 1.604227e-001
1.830115e+003, 1.603327e-001
1.832043e+003, 1.605352e-001
1.833972e+003, 1.606843e-001
1.835900e+003, 1.604760e-001
1.837829e+003, 1.605938e-001
1.839757e+003, 1.612137e-001
1.841686e+003, 1.611601e-001
1.843614e+003, 1.611564e-001
1.845543e+003, 1.622775e-001
1.847471e+003, 1.627072e-001
1.849400e+003, 1.624071e-001
1.851328e+003, 1.621527e-001
1.853256e+003, 1.620872e-001
1.855185e+003, 1.628553e-001
1.857113e+003, 1.638463e-001
1.859042e+003, 1.637513e-001
1.860970e+003, 1.632714e-001
1.862899e+003, 1.636243e-001
1.864827e+003, 1.636924e-001
1.866756e+003, 1.636865e-001
1.868684e+003, 1.642128e-001
1.870613e+003, 1.647689e-001
1.872541e+003, 1.652749e-001
1.874470e+003, 1.652006e-001
1.876398e+003, 1.649891e-001
1.878327e+003, 1.650841e-001
1.880255e+003, 1.649390e-001
1.882183e+003, 1.649009e-001
1.884112e+003, 1.657622e-001
1.886040e+003, 1.670369e-001
1.887969e+003, 1.669898e-001
1.889897e+003, 1.664154e-001
1.891826e+003, 1.665665e-001
1.893754e+003, 1.667807e-001
1.895683e+003, 1.672080e-001
1.897611e+003, 1.674947e-001
1.899540e+003, 1.671238e-001
1.901468e+003, 1.671808e-001
1.903397e+003, 1.674729e-001
1.905325e+003, 1.679642e-001
1.907254e+003, 1.686940e-001
1.909182e+003, 1.690654e-001
1.911110e+003, 1.688409e-001
1.913039e+003, 1.691266e-001
1.914967e+003, 1.696108e-001
1.916896e+003, 1.698210e-001
1.918824e+003, 1.693981e-001
1.920753e+003, 1.693306e-001
1.922681e+003, 1.694065e-001
1.924610e+003, 1.706888e-001
1.926538e+003, 1.719622e-001
1.928467e+003, 1.715456e-001
1.930395e+003, 1.710933e-001
1.932324e+003, 1.711137e-001
1.934252e+003, 1.718875e-001
1.936181e+003, 1.730004e-001
1.938109e+003, 1.727705e-001
1.940037e+003, 1.720637e-001
1.941966e+003, 1.712976e-001
1.943894e+003, 1.720919e-001
1.945823e+003, 1.728663e-001
1.947751e+003, 1.719817e-001
1.949680e+003, 1.722338e-001
1.951608e+003, 1.719842e-001
1.953537e+003, 1.716629e-001
1.955465e+003, 1.731331e-001
1.957394e+003, 1.737010e-001
1.959322e+003, 1.740276e-001
1.961251e+003, 1.744080e-001
1.963179e+003, 1.740961e-001
1.965108e+003, 1.743911e-001
1.967036e+003, 1.742024e-001
1.968964e+003, 1.725004e-001
1.970893e+003, 1.728975e-001
1.972821e+003, 1.734584e-001
1.974750e+003, 1.737317e-001
1.976678e+003, 1.757839e-001
1.978607e+003, 1.772528e-001
1.980535e+003, 1.756114e-001
1.982464e+003, 1.747115e-001
1.984392e+003, 1.758660e-001
1.986321e+003, 1.764919e-001
1.988249e+003, 1.759809e-001
1.990178e+003, 1.752802e-001
1.992106e+003, 1.744919e-001
1.994035e+003, 1.752278e-001
1.995963e+003, 1.766605e-001
1.997891e+003, 1.756862e-001
1.999820e+003, 1.752235e-001
2.001748e+003, 1.767183e-001
2.003677e+003, 1.765680e-001
2.005605e+003, 1.757476e-001
2.007534e+003, 1.767660e-001
2.009462e+003, 1.776393e-001
2.011391e+003, 1.760098e-001
2.013319e+003, 1.757587e-001
2.015248e+003, 1.765594e-001
2.017176e+003, 1.757641e-001
2.019105e+003, 1.759289e-001
2.021033e+003, 1.777184e-001
2.022962e+003, 1.788777e-001
2.024890e+003, 1.783717e-001
2.026818e+003, 1.782196e-001
2.028747e+003, 1.792516e-001
2.030675e+003, 1.806099e-001
2.032604e+003, 1.801807e-001
2.034532e+003, 1.799897e-001
2.036461e+003, 1.798790e-001
2.038389e+003, 1.803363e-001
2.040318e+003, 1.793449e-001
2.042246e+003, 1.783948e-001
2.044175e+003, 1.789991e-001
2.046103e+003, 1.809151e-001
2.048032e+003, 1.815522e-001
2.049960e+003, 1.819749e-001
2.051889e+003, 1.825083e-001
2.053817e+003, 1.815177e-001
2.055746e+003, 1.809960e-001
2.057674e+003, 1.815009e-001
2.059603e+003, 1.828434e-001
2.061531e+003, 1.830400e-001
2.063459e+003, 1.829413e-001
2.065388e+003, 1.826189e-001
2.067316e+003, 1.820179e-001
2.069245e+003, 1.835199e-001
2.071173e+003, 1.835242e-001
2.073102e+003, 1.831441e-001
2.075030e+003, 1.849671e-001
2.076959e+003, 1.854323e-001
2.078887e+003, 1.845364e-001
2.080816e+003, 1.844660e-001
2.082744e+003, 1.840197e-001
2.084673e+003, 1.832062e-001
2.086601e+003, 1.829282e-001
2.088530e+003, 1.830354e-001
2.090458e+003, 1.843920e-001
2.092386e+003, 1.851296e-001
2.094315e+003, 1.847607e-001
2.096243e+003, 1.848239e-001
2.098172e+003, 1.857485e-001
2.100100e+003, 1.867332e-001
2.102029e+003, 1.872418e-001
2.103957e+003, 1.871163e-001
2.105886e+003, 1.871935e-001
2.107814e+003, 1.876519e-001
2.109743e+003, 1.872807e-001
2.111671e+003, 1.868898e-001
2.113600e+003, 1.867716e-001
2.115528e+003, 1.865276e-001
2.117457e+003, 1.854834e-001
2.119385e+003, 1.851816e-001
2.121313e+003, 1.866392e-001
2.123242e+003, 1.879132e-001
2.125170e+003, 1.870303e-001
2.127099e+003, 1.851267e-001
2.129027e+003, 1.852581e-001
2.130956e+003, 1.862298e-001
2.132884e+003, 1.864463e-001
2.134813e+003, 1.860064e-001
2.136741e+003, 1.860789e-001
2.138670e+003, 1.872892e-001
2.140598e+003, 1.869475e-001
2.142527e+003, 1.861051e-001
2.144455e+003, 1.866681e-001
2.146384e+003, 1.874783e-001
2.148312e+003, 1.864533e-001
2.150240e+003, 1.871018e-001
2.152169e+003, 1.873717e-001
2.154097e+003, 1.847369e-001
2.156026e+003, 1.830002e-001
2.157954e+003, 1.855907e-001
2.159883e+003, 1.910066e-001
2.161811e+003, 1.936099e-001
2.163740e+003, 1.928837e-001
2.165668e+003, 1.898719e-001
2.167597e+003, 1.904959e-001
2.169525e+003, 1.917276e-001
2.171454e+003, 1.907995e-001
2.173382e+003, 1.913097e-001
2.175311e+003, 1.932201e-001
2.177239e+003, 1.937882e-001
2.179167e+003, 1.916867e-001
2.181096e+003, 1.901668e-001
2.183024e+003, 1.910879e-001
2.184953e+003, 1.925574e-001
2.186881e+003, 1.920884e-001
2.188810e+003, 1.926723e-001
2.190738e+003, 1.949686e-001
2.192667e+003, 1.939742e-001
2.194595e+003, 1.931135e-001
2.196524e+003, 1.942284e-001
2.198452e+003, 1.951357e-001
2.200381e+003, 1.961542e-001
2.202309e+003, 1.963212e-001
2.204238e+003, 1.955054e-001
2.206166e+003, 1.942828e-001
2.208094e+003, 1.929187e-001
2.210023e+003, 1.943178e-001
2.211951e+003, 1.956118e-001
2.213880e+003, 1.952090e-001
2.215808e+003, 1.947964e-001
2.217737e+003, 1.950104e-001
2.219665e+003, 1.958500e-001
2.221594e+003, 1.973705e-001
2.223522e+003, 1.980008e-001
2.225451e+003, 1.974716e-001
2.227379e+003, 1.978426e-001
2.229308e+003, 1.986016e-001
2.231236e+003, 1.989068e-001
2.233165e+003, 1.985162e-001
2.235093e+003, 1.983617e-001
2.237021e+003, 1.978225e-001
2.238950e+003, 1.977363e-001
2.240878e+003, 1.973504e-001
2.242807e+003, 1.966766e-001
2.244735e+003, 1.975756e-001
2.246664e+003, 1.990434e-001
2.248592e+003, 1.995293e-001
2.250521e+003, 2.000864e-001
2.252449e+003, 1.998937e-001
2.254378e+003, 1.986091e-001
2.256306e+003, 1.987545e-001
2.258235e+003, 1.997409e-001
2.260163e+003, 1.986595e-001
2.262092e+003, 1.983905e-001
2.264020e+003, 1.999136e-001
2.265948e+003, 1.995654e-001
2.267877e+003, 1.990944e-001
2.269805e+003, 1.996820e-001
2.271734e+003, 2.007079e-001
2.273662e+003, 2.013412e-001
2.275591e+003, 2.019463e-001
2.277519e+003, 2.022391e-001
2.279448e+003, 2.018964e-001
2.281376e+003, 2.022238e-001
2.283305e+003, 2.022007e-001
2.285233e+003, 2.021950e-001
2.287162e+003, 2.022629e-001
2.289090e+003, 2.022608e-001
2.291019e+003, 2.026063e-001
2.292947e+003, 2.024933e-001
2.294875e+003, 2.022527e-001
2.296804e+003, 2.023767e-001
2.298732e+003, 2.021965e-001
2.300661e+003, 2.024864e-001
2.302589e+003, 2.025209e-001
2.304518e+003, 2.022633e-001
2.306446e+003, 2.026277e-001
2.308375e+003, 2.029934e-001
2.310303e+003, 2.032441e-001
2.312232e+003, 2.034411e-001
2.314160e+003, 2.035336e-001
2.316089e+003, 2.037214e-001
2.318017e+003, 2.036601e-001
2.319946e+003, 2.042141e-001
2.321874e+003, 2.051916e-001
2.323802e+003, 2.048065e-001
2.325731e+003, 2.037489e-001
2.327659e+003, 2.030734e-001
2.329588e+003, 2.032524e-001
2.331516e+003, 2.036099e-001
2.333445e+003, 2.033034e-001
2.335373e+003, 2.035248e-001
2.337302e+003, 2.040901e-001
2.339230e+003, 2.039545e-001
2.341159e+003, 2.041338e-001
2.343087e+003, 2.044347e-001
2.345016e+003, 2.039799e-001
2.346944e+003, 2.040269e-001
2.348873e+003, 2.045353e-001
2.350801e+003, 2.050710e-001
2.352729e+003, 2.052696e-001
2.354658e+003, 2.054363e-001
2.356586e+003, 2.052763e-001
2.358515e+003, 2.055239e-001
2.360443e+003, 2.054130e-001
2.362372e+003, 2.052924e-001
2.364300e+003, 2.060776e-001
2.366229e+003, 2.062351e-001
2.368157e+003, 2.052431e-001
2.370086e+003, 2.049997e-001
2.372014e+003, 2.055162e-001
2.373942e+003, 2.060148e-001
2.375871e+003, 2.063106e-001
2.377799e+003, 2.062679e-001
2.379728e+003, 2.061336e-001
2.381656e+003, 2.058156e-001
2.383585e+003, 2.052416e-001
2.385513e+003, 2.054342e-001
2.387442e+003, 2.064063e-001
2.389370e+003, 2.070689e-001
2.391299e+003, 2.074064e-001
2.393227e+003, 2.078371e-001
2.395156e+003, 2.075055e-001
2.397084e+003, 2.076032e-001
2.399012e+003, 2.080151e-001
2.400941e+003, 2.081969e-001
2.402869e+003, 2.083979e-001
2.404798e+003, 2.080949e-001
2.406726e+003, 2.078609e-001
2.408655e+003, 2.077348e-001
2.410583e+003, 2.079499e-001
2.412512e+003, 2.087187e-001
2.414440e+003, 2.094615e-001
2.416369e+003, 2.093436e-001
2.418297e+003, 2.098780e-001
2.420226e+003, 2.101425e-001
2.422154e+003, 2.096127e-001
2.424083e+003, 2.099603e-001
2.426011e+003, 2.105917e-001
2.427939e+003, 2.109526e-001
2.429868e+003, 2.106759e-001
2.431796e+003, 2.099055e-001
2.433725e+003, 2.107825e-001
2.435653e+003, 2.119003e-001
2.437582e+003, 2.112702e-001
2.439510e+003, 2.107205e-001
2.441439e+003, 2.115367e-001
2.443367e+003, 2.124098e-001
2.445296e+003, 2.128619e-001
2.447224e+003, 2.130382e-001
2.449153e+003, 2.127459e-001
2.451081e+003, 2.126105e-001
2.453010e+003, 2.128569e-001
2.454938e+003, 2.132221e-001
2.456866e+003, 2.134242e-001
2.458795e+003, 2.136300e-001
2.460723e+003, 2.141429e-001
2.462652e+003, 2.136702e-001
2.464580e+003, 2.119072e-001
2.466509e+003, 2.116735e-001
2.468437e+003, 2.132576e-001
2.470366e+003, 2.145851e-001
2.472294e+003, 2.143284e-001
2.474223e+003, 2.139232e-001
2.476151e+003, 2.140554e-001
2.478080e+003, 2.143703e-001
2.480008e+003, 2.147447e-001
2.481937e+003, 2.147897e-001
2.483865e+003, 2.149582e-001
2.485793e+003, 2.147193e-001
2.487722e+003, 2.149753e-001
2.489650e+003, 2.147787e-001
2.491579e+003, 2.148988e-001
2.493507e+003, 2.153088e-001
2.495436e+003, 2.156596e-001
2.497364e+003, 2.158951e-001
2.499293e+003, 2.155702e-001
2.501221e+003, 2.152605e-001
2.503150e+003, 2.159158e-001
2.505078e+003, 2.160350e-001
2.507007e+003, 2.160447e-001
2.508935e+003, 2.161330e-001
2.510864e+003, 2.166213e-001
2.512792e+003, 2.168576e-001
2.514720e+003, 2.167327e-001
2.516649e+003, 2.176323e-001
2.518577e+003, 2.173658e-001
2.520506e+003, 2.164237e-001
2.522434e+003, 2.166686e-001
2.524363e+003, 2.171031e-001
2.526291e+003, 2.171850e-001
2.528220e+003, 2.169359e-001
2.530148e+003, 2.171681e-001
2.532077e+003, 2.176067e-001
2.534005e+003, 2.180229e-001
2.535934e+003, 2.179924e-001
2.537862e+003, 2.185166e-001
2.539791e+003, 2.185134e-001
2.541719e+003, 2.191865e-001
2.543647e+003, 2.201553e-001
2.545576e+003, 2.200681e-001
2.547504e+003, 2.194796e-001
2.549433e+003, 2.191304e-001
2.551361e+003, 2.199006e-001
2.553290e+003, 2.198808e-001
2.555218e+003, 2.204143e-001
2.557147e+003, 2.204367e-001
2.559075e+003, 2.200137e-001
2.561004e+003, 2.206377e-001
2.562932e+003, 2.204004e-001
2.564861e+003, 2.204721e-001
2.566789e+003, 2.210796e-001
2.568718e+003, 2.212793e-001
2.570646e+003, 2.220606e-001
2.572574e+003, 2.223614e-001
2.574503e+003, 2.218112e-001
2.576431e+003, 2.209855e-001
2.578360e+003, 2.210863e-001
2.580288e+003, 2.223596e-001
2.582217e+003, 2.223821e-001
2.584145e+003, 2.220293e-001
2.586074e+003, 2.216649e-001
2.588002e+003, 2.212691e-001
2.589931e+003, 2.217592e-001
2.591859e+003, 2.222899e-001
2.593788e+003, 2.228771e-001
2.595716e+003, 2.232543e-001
2.597645e+003, 2.231649e-001
2.599573e+003, 2.236606e-001
2.601501e+003, 2.242006e-001
2.603430e+003, 2.243672e-001
2.605358e+003, 2.237199e-001
2.607287e+003, 2.234678e-001
2.609215e+003, 2.236710e-001
2.611144e+003, 2.232209e-001
2.613072e+003, 2.234526e-001
2.615001e+003, 2.241387e-001
2.616929e+003, 2.243749e-001
2.618858e+003, 2.250798e-001
2.620786e+003, 2.256253e-001
2.622715e+003, 2.247578e-001
2.624643e+003, 2.248865e-001
2.626572e+003, 2.251662e-001
2.628500e+003, 2.254368e-001
2.630428e+003, 2.266659e-001
2.632357e+003, 2.268758e-001
2.634285e+003, 2.269382e-001
2.636214e+003, 2.267827e-001
2.638142e+003, 2.260829e-001
2.640071e+003, 2.264394e-001
2.641999e+003, 2.267289e-001
2.643928e+003, 2.267165e-001
2.645856e+003, 2.264297e-001
2.647785e+003, 2.266631e-001
2.649713e+003, 2.272044e-001
2.651642e+003, 2.269972e-001
2.653570e+003, 2.269342e-001
2.655499e+003, 2.270845e-001
2.657427e+003, 2.270067e-001
2.659355e+003, 2.270860e-001
2.661284e+003, 2.269357e-001
2.663212e+003, 2.270481e-001
2.665141e+003, 2.276927e-001
2.667069e+003, 2.276141e-001
2.668998e+003, 2.271442e-001
2.670926e+003, 2.271254e-001
2.672855e+003, 2.275477e-001
2.674783e+003, 2.278957e-001
2.676712e+003, 2.279876e-001
2.678640e+003, 2.284106e-001
2.680569e+003, 2.282450e-001
2.682497e+003, 2.280429e-001
2.684426e+003, 2.277736e-001
2.686354e+003, 2.278365e-001
2.688282e+003, 2.284711e-001
2.690211e+003, 2.289655e-001
2.692139e+003, 2.290366e-001
2.694068e+003, 2.292495e-001
2.695996e+003, 2.292134e-001
2.697925e+003, 2.292393e-001
2.699853e+003, 2.294887e-001
2.701782e+003, 2.292890e-001
2.703710e+003, 2.294001e-001
2.705639e+003, 2.298515e-001
2.707567e+003, 2.295561e-001
2.709496e+003, 2.297471e-001
2.711424e+003, 2.295323e-001
2.713353e+003, 2.299746e-001
2.715281e+003, 2.305687e-001
2.717209e+003, 2.311891e-001
2.719138e+003, 2.313389e-001
2.721066e+003, 2.309508e-001
2.722995e+003, 2.309256e-001
2.724923e+003, 2.308802e-001
2.726852e+003, 2.310951e-001
2.728780e+003, 2.317249e-001
2.730709e+003, 2.320041e-001
2.732637e+003, 2.320037e-001
2.734566e+003, 2.320771e-001
2.736494e+003, 2.318670e-001
2.738423e+003, 2.317127e-001
2.740351e+003, 2.315659e-001
2.742280e+003, 2.318973e-001
2.744208e+003, 2.326144e-001
2.746136e+003, 2.326712e-001
2.748065e+003, 2.324281e-001
2.749993e+003, 2.325830e-001
2.751922e+003, 2.328737e-001
2.753850e+003, 2.332945e-001
2.755779e+003, 2.326544e-001
2.757707e+003, 2.323642e-001
2.759636e+003, 2.329527e-001
2.761564e+003, 2.334461e-001
2.763493e+003, 2.343842e-001
2.765421e+003, 2.347558e-001
2.767350e+003, 2.342205e-001
2.769278e+003, 2.343200e-001
2.771207e+003, 2.346083e-001
2.773135e+003, 2.350033e-001
2.775063e+003, 2.352079e-001
2.776992e+003, 2.344318e-001
2.778920e+003, 2.346470e-001
2.780849e+003, 2.352386e-001
2.782777e+003, 2.350386e-001
2.784706e+003, 2.352310e-001
2.786634e+003, 2.349734e-001
2.788563e+003, 2.358900e-001
2.790491e+003, 2.365125e-001
2.792420e+003, 2.365143e-001
2.794348e+003, 2.363658e-001
2.796277e+003, 2.360346e-001
2.798205e+003, 2.361041e-001
2.800134e+003, 2.363373e-001
2.802062e+003, 2.363307e-001
2.803990e+003, 2.360418e-001
2.805919e+003, 2.363933e-001
2.807847e+003, 2.374369e-001
2.809776e+003, 2.375628e-001
2.811704e+003, 2.376341e-001
2.813633e+003, 2.377816e-001
2.815561e+003, 2.376663e-001
2.817490e+003, 2.382538e-001
2.819418e+003, 2.379941e-001
2.821347e+003, 2.377999e-001
2.823275e+003, 2.385996e-001
2.825204e+003, 2.391092e-001
2.827132e+003, 2.387787e-001
2.829061e+003, 2.382016e-001
2.830989e+003, 2.381360e-001
2.832917e+003, 2.388662e-001
2.834846e+003, 2.399602e-001
2.836774e+003, 2.398712e-001
2.838703e+003, 2.389490e-001
2.840631e+003, 2.389614e-001
2.842560e+003, 2.395263e-001
2.844488e+003, 2.395626e-001
2.846417e+003, 2.394121e-001
2.848345e+003, 2.395852e-001
2.850274e+003, 2.398438e-001
2.852202e+003, 2.389239e-001
2.854131e+003, 2.387128e-001
2.856059e+003, 2.392284e-001
2.857988e+003, 2.396403e-001
2.859916e+003, 2.402445e-001
2.861844e+003, 2.409032e-001
2.863773e+003, 2.409291e-001
2.865701e+003, 2.403706e-001
2.867630e+003, 2.401986e-001
2.869558e+003, 2.404508e-001
2.871487e+003, 2.417588e-001
2.873415e+003, 2.423920e-001
2.875344e+003, 2.421534e-001
2.877272e+003, 2.423007e-001
2.879201e+003, 2.424666e-001
2.881129e+003, 2.425937e-001
2.883058e+003, 2.427734e-001
2.884986e+003, 2.427632e-001
2.886915e+003, 2.427464e-001
2.888843e+003, 2.426470e-001
2.890771e+003, 2.428674e-001
2.892700e+003, 2.437452e-001
2.894628e+003, 2.439485e-001
2.896557e+003, 2.435629e-001
2.898485e+003, 2.430931e-001
2.900414e+003, 2.432380e-001
2.902342e+003, 2.433341e-001
2.904271e+003, 2.431755e-001
2.906199e+003, 2.437914e-001
2.908128e+003, 2.436884e-001
2.910056e+003, 2.443199e-001
2.911985e+003, 2.447009e-001
2.913913e+003, 2.441550e-001
2.915842e+003, 2.445966e-001
2.917770e+003, 2.452938e-001
2.919698e+003, 2.449560e-001
2.921627e+003, 2.445942e-001
2.923555e+003, 2.448608e-001
2.925484e+003, 2.449986e-001
2.927412e+003, 2.441466e-001
2.929341e+003, 2.440291e-001
2.931269e+003, 2.444925e-001
2.933198e+003, 2.452404e-001
2.935126e+003, 2.449600e-001
2.937055e+003, 2.442116e-001
2.938983e+003, 2.445406e-001
2.940912e+003, 2.462674e-001
2.942840e+003, 2.466100e-001
2.944769e+003, 2.461858e-001
2.946697e+003, 2.469153e-001
2.948625e+003, 2.474393e-001
2.950554e+003, 2.468553e-001
2.952482e+003, 2.466165e-001
2.954411e+003, 2.469312e-001
2.956339e+003, 2.471944e-001
2.958268e+003, 2.471923e-001
2.960196e+003, 2.472335e-001
2.962125e+003, 2.473133e-001
2.964053e+003, 2.481470e-001
2.965982e+003, 2.489072e-001
2.967910e+003, 2.490051e-001
2.969839e+003, 2.489938e-001
2.971767e+003, 2.484806e-001
2.973696e+003, 2.482566e-001
2.975624e+003, 2.488448e-001
2.977552e+003, 2.491628e-001
2.979481e+003, 2.488343e-001
2.981409e+003, 2.481288e-001
2.983338e+003, 2.479051e-001
2.985266e+003, 2.486358e-001
2.987195e+003, 2.491812e-001
2.989123e+003, 2.494990e-001
2.991052e+003, 2.497644e-001
2.992980e+003, 2.495673e-001
2.994909e+003, 2.486987e-001
2.996837e+003, 2.484598e-001
2.998766e+003, 2.485215e-001
3.000694e+003, 2.490986e-001
3.002623e+003, 2.499224e-001
3.004551e+003, 2.502141e-001
3.006479e+003, 2.504231e-001
3.008408e+003, 2.506766e-001
3.010336e+003, 2.501439e-001
3.012265e+003, 2.503697e-001
3.014193e+003, 2.513557e-001
3.016122e+003, 2.513142e-001
3.018050e+003, 2.507114e-001
3.019979e+003, 2.512527e-001
3.021907e+003, 2.514412e-001
3.023836e+003, 2.521838e-001
3.025764e+003, 2.529843e-001
3.027693e+003, 2.529213e-001
3.029621e+003, 2.531993e-001
3.031550e+003, 2.528639e-001
3.033478e+003, 2.524151e-001
3.035406e+003, 2.531040e-001
3.037335e+003, 2.538696e-001
3.039263e+003, 2.533243e-001
3.041192e+003, 2.528679e-001
3.043120e+003, 2.534853e-001
3.045049e+003, 2.539148e-001
3.046977e+003, 2.545209e-001
3.048906e+003, 2.546831e-001
3.050834e+003, 2.542822e-001
3.052763e+003, 2.529880e-001
3.054691e+003, 2.520525e-001
3.056620e+003, 2.534670e-001
3.058548e+003, 2.543036e-001
3.060477e+003, 2.541778e-001
3.062405e+003, 2.542229e-001
3.064333e+003, 2.543921e-001
3.066262e+003, 2.546263e-001
3.068190e+003, 2.545364e-001
3.070119e+003, 2.543848e-001
3.072047e+003, 2.550865e-001
3.073976e+003, 2.550535e-001
3.075904e+003, 2.555096e-001
3.077833e+003, 2.567040e-001
3.079761e+003, 2.564510e-001
3.081690e+003, 2.555324e-001
3.083618e+003, 2.555416e-001
3.085547e+003, 2.559962e-001
3.087475e+003, 2.568250e-001
3.089404e+003, 2.573933e-001
3.091332e+003, 2.566831e-001
3.093260e+003, 2.569064e-001
3.095189e+003, 2.569734e-001
3.097117e+003, 2.573271e-001
3.099046e+003, 2.572516e-001
3.100974e+003, 2.572349e-001
3.102903e+003, 2.574149e-001
3.104831e+003, 2.570699e-001
3.106760e+003, 2.568125e-001
3.108688e+003, 2.582871e-001
3.110617e+003, 2.589685e-001
3.112545e+003, 2.583453e-001
3.114474e+003, 2.586404e-001
3.116402e+003, 2.592954e-001
3.118331e+003, 2.586132e-001
3.120259e+003, 2.589271e-001
3.122188e+003, 2.596862e-001
3.124116e+003, 2.592123e-001
3.126044e+003, 2.588139e-001
3.127973e+003, 2.586019e-001
3.129901e+003, 2.582753e-001
3.131830e+003, 2.592524e-001
3.133758e+003, 2.612219e-001
3.135687e+003, 2.609620e-001
3.137615e+003, 2.609577e-001
3.139544e+003, 2.619100e-001
3.141472e+003, 2.621575e-001
3.143401e+003, 2.619688e-001
3.145329e+003, 2.602392e-001
3.147258e+003, 2.589619e-001
3.149186e+003, 2.595182e-001
3.151115e+003, 2.599754e-001
3.153043e+003, 2.609179e-001
3.154971e+003, 2.614892e-001
3.156900e+003, 2.608281e-001
3.158828e+003, 2.610496e-001
3.160757e+003, 2.618507e-001
3.162685e+003, 2.617530e-001
3.164614e+003, 2.619366e-001
3.166542e+003, 2.630361e-001
3.168471e+003, 2.630420e-001
3.170399e+003, 2.620813e-001
3.172328e+003, 2.621915e-001
3.174256e+003, 2.628642e-001
3.176185e+003, 2.633164e-001
3.178113e+003, 2.633488e-001
3.180042e+003, 2.617095e-001
3.181970e+003, 2.612929e-001
3.183898e+003, 2.624556e-001
3.185827e+003, 2.633837e-001
3.187755e+003, 2.633185e-001
3.189684e+003, 2.629487e-001
3.191612e+003, 2.628330e-001
3.193541e+003, 2.632499e-001
3.195469e+003, 2.632771e-001
3.197398e+003, 2.630225e-001
3.199326e+003, 2.629135e-001
3.201255e+003, 2.641881e-001
3.203183e+003, 2.641906e-001
3.205112e+003, 2.637375e-001
3.207040e+003, 2.647412e-001
3.208969e+003, 2.647923e-001
3.210897e+003, 2.640386e-001
3.212825e+003, 2.640208e-001
3.214754e+003, 2.640148e-001
3.216682e+003, 2.639577e-001
3.218611e+003, 2.645809e-001
3.220539e+003, 2.654617e-001
3.222468e+003, 2.663722e-001
3.224396e+003, 2.671690e-001
3.226325e+003, 2.664649e-001
3.228253e+003, 2.663620e-001
3.230182e+003, 2.661367e-001
3.232110e+003, 2.654152e-001
3.234039e+003, 2.657243e-001
3.235967e+003, 2.667635e-001
3.237896e+003, 2.672387e-001
3.239824e+003, 2.667651e-001
3.241752e+003, 2.666089e-001
3.243681e+003, 2.676229e-001
3.245609e+003, 2.677123e-001
3.247538e+003, 2.680528e-001
3.249466e+003, 2.684222e-001
3.251395e+003, 2.681144e-001
3.253323e+003, 2.664368e-001
3.255252e+003, 2.658893e-001
3.257180e+003, 2.665829e-001
3.259109e+003, 2.669661e-001
3.261037e+003, 2.673340e-001
3.262966e+003, 2.676780e-001
3.264894e+003, 2.677177e-001
3.266823e+003, 2.686319e-001
3.268751e+003, 2.690326e-001
3.270679e+003, 2.698053e-001
3.272608e+003, 2.696357e-001
3.274536e+003, 2.684553e-001
3.276465e+003, 2.685068e-001
3.278393e+003, 2.695308e-001
3.280322e+003, 2.702723e-001
3.282250e+003, 2.688730e-001
3.284179e+003, 2.679769e-001
3.286107e+003, 2.695800e-001
3.288036e+003, 2.698967e-001
3.289964e+003, 2.691316e-001
3.291893e+003, 2.687742e-001
3.293821e+003, 2.692397e-001
3.295750e+003, 2.698809e-001
3.297678e+003, 2.700874e-001
3.299606e+003, 2.696847e-001
3.301535e+003, 2.691098e-001
3.303463e+003, 2.695979e-001
3.305392e+003, 2.696576e-001
3.307320e+003, 2.696092e-001
3.309249e+003, 2.693030e-001
3.311177e+003, 2.695642e-001
3.313106e+003, 2.699557e-001
3.315034e+003, 2.699875e-001
3.316963e+003, 2.704741e-001
3.318891e+003, 2.692157e-001
3.320820e+003, 2.701620e-001
3.322748e+003, 2.715848e-001
3.324677e+003, 2.716184e-001
3.326605e+003, 2.705264e-001
3.328533e+003, 2.698182e-001
3.330462e+003, 2.708976e-001
3.332390e+003, 2.708997e-001
3.334319e+003, 2.706911e-001
3.336247e+003, 2.715318e-001
3.338176e+003, 2.720516e-001
3.340104e+003, 2.718954e-001
3.342033e+003, 2.724493e-001
3.343961e+003, 2.715409e-001
3.345890e+003, 2.704889e-001
3.347818e+003, 2.710363e-001
3.349747e+003, 2.719260e-001
3.351675e+003, 2.722014e-001
3.353604e+003, 2.720066e-001
3.355532e+003, 2.723652e-001
3.357460e+003, 2.724810e-001
3.359389e+003, 2.720216e-001
3.361317e+003, 2.719055e-001
3.363246e+003, 2.710785e-001
3.365174e+003, 2.715589e-001
3.367103e+003, 2.732763e-001
3.369031e+003, 2.738504e-001
3.370960e+003, 2.739896e-001
3.372888e+003, 2.740605e-001
3.374817e+003, 2.747487e-001
3.376745e+003, 2.741913e-001
3.378674e+003, 2.738884e-001
3.380602e+003, 2.735558e-001
3.382531e+003, 2.741625e-001
3.384459e+003, 2.748269e-001
3.386387e+003, 2.739786e-001
3.388316e+003, 2.738039e-001
3.390244e+003, 2.737345e-001
3.392173e+003, 2.738419e-001
3.394101e+003, 2.735825e-001
3.396030e+003, 2.739649e-001
3.397958e+003, 2.744213e-001
3.399887e+003, 2.738673e-001
3.401815e+003, 2.733715e-001
3.403744e+003, 2.734335e-001
3.405672e+003, 2.735452e-001
3.407601e+003, 2.739160e-001
3.409529e+003, 2.737418e-001
3.411458e+003, 2.728902e-001
3.413386e+003, 2.737195e-001
3.415314e+003, 2.744221e-001
3.417243e+003, 2.747580e-001
3.419171e+003, 2.759813e-001
3.421100e+003, 2.756528e-001
3.423028e+003, 2.743695e-001
3.424957e+003, 2.752830e-001
3.426885e+003, 2.753543e-001
3.428814e+003, 2.746644e-001
3.430742e+003, 2.750285e-001
3.432671e+003, 2.749591e-001
3.434599e+003, 2.739853e-001
3.436528e+003, 2.737455e-001
3.438456e+003, 2.743670e-001
3.440385e+003, 2.730127e-001
3.442313e+003, 2.732441e-001
3.444241e+003, 2.730739e-001
3.446170e+003, 2.731371e-001
3.448098e+003, 2.732277e-001
3.450027e+003, 2.721805e-001
3.451955e+003, 2.721028e-001
3.453884e+003, 2.733420e-001
3.455812e+003, 2.747299e-001
3.457741e+003, 2.752546e-001
3.459669e+003, 2.751200e-001
3.461598e+003, 2.747787e-001
3.463526e+003, 2.740433e-001
3.465455e+003, 2.746839e-001
3.467383e+003, 2.751824e-001
3.469312e+003, 2.747485e-001
3.471240e+003, 2.743885e-001
3.473168e+003, 2.741640e-001
3.475097e+003, 2.748281e-001
3.477025e+003, 2.760603e-001
3.478954e+003, 2.752308e-001
3.480882e+003, 2.739792e-001
3.482811e+003, 2.751085e-001
3.484739e+003, 2.753788e-001
3.486668e+003, 2.742397e-001
3.488596e+003, 2.727835e-001
3.490525e+003, 2.735598e-001
3.492453e+003, 2.754189e-001
3.494382e+003, 2.758149e-001
3.496310e+003, 2.752722e-001
3.498239e+003, 2.751929e-001
3.500167e+003, 2.754537e-001
3.502095e+003, 2.758920e-001
3.504024e+003, 2.760454e-001
3.505952e+003, 2.735434e-001
3.507881e+003, 2.723465e-001
3.509809e+003, 2.744310e-001
3.511738e+003, 2.771971e-001
3.513666e+003, 2.775288e-001
3.515595e+003, 2.767265e-001
3.517523e+003, 2.765115e-001
3.519452e+003, 2.764377e-001
3.521380e+003, 2.757592e-001
3.523309e+003, 2.769925e-001
3.525237e+003, 2.774421e-001
3.527166e+003, 2.761412e-001
3.529094e+003, 2.770398e-001
3.531022e+003, 2.773421e-001
3.532951e+003, 2.752631e-001
3.534879e+003, 2.758901e-001
3.536808e+003, 2.758415e-001
3.538736e+003, 2.743946e-001
3.540665e+003, 2.746021e-001
3.542593e+003, 2.756843e-001
3.544522e+003, 2.758737e-001
3.546450e+003, 2.768320e-001
3.548379e+003, 2.769157e-001
3.550307e+003, 2.768399e-001
3.552236e+003, 2.758299e-001
3.554164e+003, 2.742699e-001
3.556093e+003, 2.738541e-001
3.558021e+003, 2.753899e-001
3.559949e+003, 2.752208e-001
3.561878e+003, 2.750246e-001
3.563806e+003, 2.763706e-001
3.565735e+003, 2.760980e-001
3.567663e+003, 2.760363e-001
3.569592e+003, 2.767121e-001
3.571520e+003, 2.770466e-001
3.573449e+003, 2.764504e-001
3.575377e+003, 2.751504e-001
3.577306e+003, 2.772893e-001
3.579234e+003, 2.787625e-001
3.581163e+003, 2.777707e-001
3.583091e+003, 2.769223e-001
3.585020e+003, 2.764829e-001
3.586948e+003, 2.774293e-001
3.588876e+003, 2.780620e-001
3.590805e+003, 2.766442e-001
3.592733e+003, 2.758811e-001
3.594662e+003, 2.763118e-001
3.596590e+003, 2.784366e-001
3.598519e+003, 2.785023e-001
3.600447e+003, 2.777596e-001
3.602376e+003, 2.803880e-001
3.604304e+003, 2.809680e-001
3.606233e+003, 2.782559e-001
3.608161e+003, 2.784674e-001
3.610090e+003, 2.791214e-001
3.612018e+003, 2.784607e-001
3.613947e+003, 2.794794e-001
3.615875e+003, 2.800890e-001
3.617803e+003, 2.793912e-001
3.619732e+003, 2.788831e-001
3.621660e+003, 2.787929e-001
3.623589e+003, 2.790387e-001
3.625517e+003, 2.795548e-001
3.627446e+003, 2.797923e-001
3.629374e+003, 2.799928e-001
3.631303e+003, 2.785061e-001
3.633231e+003, 2.785833e-001
3.635160e+003, 2.814822e-001
3.637088e+003, 2.824838e-001
3.639017e+003, 2.806720e-001
3.640945e+003, 2.791448e-001
3.642874e+003, 2.803140e-001
3.644802e+003, 2.809109e-001
3.646730e+003, 2.808447e-001
3.648659e+003, 2.825179e-001
3.650587e+003, 2.835557e-001
3.652516e+003, 2.840649e-001
3.654444e+003, 2.839977e-001
3.656373e+003, 2.823806e-001
3.658301e+003, 2.809591e-001
3.660230e+003, 2.822166e-001
3.662158e+003, 2.825128e-001
3.664087e+003, 2.830644e-001
3.666015e+003, 2.830450e-001
3.667944e+003, 2.819216e-001
3.669872e+003, 2.815124e-001
3.671801e+003, 2.831838e-001
3.673729e+003, 2.829437e-001
3.675657e+003, 2.828138e-001
3.677586e+003, 2.822302e-001
3.679514e+003, 2.833919e-001
3.681443e+003, 2.838271e-001
3.683371e+003, 2.828447e-001
3.685300e+003, 2.830052e-001
3.687228e+003, 2.840571e-001
3.689157e+003, 2.865698e-001
3.691085e+003, 2.862981e-001
3.693014e+003, 2.849676e-001
3.694942e+003, 2.834454e-001
3.696871e+003, 2.843328e-001
3.698799e+003, 2.850436e-001
3.700728e+003, 2.861272e-001
3.702656e+003, 2.851775e-001
3.704584e+003, 2.831926e-001
3.706513e+003, 2.856036e-001
3.708441e+003, 2.866048e-001
3.710370e+003, 2.865273e-001
3.712298e+003, 2.873854e-001
3.714227e+003, 2.885976e-001
3.716155e+003, 2.879165e-001
3.718084e+003, 2.864658e-001
3.720012e+003, 2.850870e-001
3.721941e+003, 2.852787e-001
3.723869e+003, 2.851554e-001
3.725798e+003, 2.853226e-001
3.727726e+003, 2.870374e-001
3.729655e+003, 2.870232e-001
3.731583e+003, 2.866157e-001
3.733511e+003, 2.865749e-001
3.735440e+003, 2.877387e-001
3.737368e+003, 2.885422e-001
3.739297e+003, 2.889308e-001
3.741225e+003, 2.883076e-001
3.743154e+003, 2.873493e-001
3.745082e+003, 2.898810e-001
3.747011e+003, 2.873004e-001
3.748939e+003, 2.870161e-001
3.750868e+003, 2.910562e-001
3.752796e+003, 2.936370e-001
3.754725e+003, 2.913123e-001
3.756653e+003, 2.896336e-001
3.758582e+003, 2.899433e-001
3.760510e+003, 2.900077e-001
3.762438e+003, 2.891764e-001
3.764367e+003, 2.898139e-001
3.766295e+003, 2.902890e-001
3.768224e+003, 2.892518e-001
3.770152e+003, 2.897123e-001
3.772081e+003, 2.913311e-001
3.774009e+003, 2.920815e-001
3.775938e+003, 2.906557e-001
3.777866e+003, 2.905498e-001
3.779795e+003, 2.933505e-001
3.781723e+003, 2.930542e-001
3.783652e+003, 2.918453e-001
3.785580e+003, 2.920731e-001
3.787509e+003, 2.918797e-001
3.789437e+003, 2.920400e-001
3.791365e+003, 2.928006e-001
3.793294e+003, 2.952044e-001
3.795222e+003, 2.938975e-001
3.797151e+003, 2.935522e-001
3.799079e+003, 2.928323e-001
3.801008e+003, 2.911772e-001
3.802936e+003, 2.900364e-001
3.804865e+003, 2.928485e-001
3.806793e+003, 2.944717e-001
3.808722e+003, 2.920789e-001
3.810650e+003, 2.922276e-001
3.812579e+003, 2.928620e-001
3.814507e+003, 2.927629e-001
3.816436e+003, 2.934906e-001
3.818364e+003, 2.924905e-001
3.820292e+003, 2.930486e-001
3.822221e+003, 2.934507e-001
3.824149e+003, 2.923102e-001
3.826078e+003, 2.937655e-001
3.828006e+003, 2.951449e-001
3.829935e+003, 2.941223e-001
3.831863e+003, 2.945265e-001
3.833792e+003, 2.948370e-001
3.835720e+003, 2.966393e-001
3.837649e+003, 2.971969e-001
3.839577e+003, 2.960781e-001
3.841506e+003, 2.947953e-001
3.843434e+003, 2.951220e-001
3.845363e+003, 2.956928e-001
3.847291e+003, 2.959517e-001
3.849219e+003, 2.955724e-001
3.851148e+003, 2.948365e-001
3.853076e+003, 2.951171e-001
3.855005e+003, 2.971026e-001
3.856933e+003, 2.950771e-001
3.858862e+003, 2.922808e-001
3.860790e+003, 2.927850e-001
3.862719e+003, 2.953500e-001
3.864647e+003, 2.949655e-001
3.866576e+003, 2.955604e-001
3.868504e+003, 2.964147e-001
3.870433e+003, 2.985383e-001
3.872361e+003, 2.975241e-001
3.874290e+003, 2.956038e-001
3.876218e+003, 2.975189e-001
3.878146e+003, 2.984318e-001
3.880075e+003, 2.976755e-001
3.882003e+003, 2.976690e-001
3.883932e+003, 2.996523e-001
3.885860e+003, 3.017577e-001
3.887789e+003, 2.991568e-001
3.889717e+003, 2.979376e-001
3.891646e+003, 2.991606e-001
3.893574e+003, 2.982371e-001
3.895503e+003, 2.990383e-001
3.897431e+003, 3.011335e-001
3.899360e+003, 3.013417e-001
3.901288e+003, 3.005142e-001
3.903217e+003, 3.000035e-001
3.905145e+003, 2.987600e-001
3.907073e+003, 2.984293e-001
3.909002e+003, 3.016697e-001
3.910930e+003, 3.029646e-001
3.912859e+003, 3.015968e-001
3.914787e+003, 3.017730e-001
3.916716e+003, 3.008668e-001
3.918644e+003, 2.997750e-001
3.920573e+003, 3.002349e-001
3.922501e+003, 3.011605e-001
3.924430e+003, 3.027645e-001
3.926358e+003, 3.024471e-001
3.928287e+003, 2.988312e-001
3.930215e+003, 3.011396e-001
3.932144e+003, 3.048078e-001
3.934072e+003, 3.028828e-001
3.936000e+003, 3.006139e-001
3.937929e+003, 3.017246e-001
3.939857e+003, 3.032081e-001
3.941786e+003, 3.040401e-001
3.943714e+003, 3.028439e-001
3.945643e+003, 3.010727e-001
3.947571e+003, 3.032852e-001
3.949500e+003, 3.034644e-001
3.951428e+003, 3.022462e-001
3.953357e+003, 3.000715e-001
3.955285e+003, 3.000243e-001
3.957214e+003, 3.023669e-001
3.959142e+003, 3.031738e-001
3.961071e+003, 3.038175e-001
3.962999e+003, 3.027061e-001
3.964927e+003, 3.001806e-001
3.966856e+003, 3.026608e-001
3.968784e+003, 3.063311e-001
3.970713e+003, 3.075826e-001
3.972641e+003, 3.070079e-001
3.974570e+003, 3.064856e-001
3.976498e+003, 3.050313e-001
3.978427e+003, 3.046716e-001
3.980355e+003, 3.050038e-001
3.982284e+003, 3.042965e-001
3.984212e+003, 3.046049e-001
3.986141e+003, 3.059261e-001
3.988069e+003, 3.066493e-001
3.989998e+003, 3.050222e-001
3.991926e+003, 3.062939e-001
3.993854e+003, 3.069161e-001
3.995783e+003, 3.076203e-001
3.997711e+003, 3.079379e-001
3.999640e+003, 3.080837e-001
##END=



