##NAMES=Hedenbergite
##RRUFFID=R060040
##IDEAL CHEMISTRY=CaFe^2+^Si_2_O_6_
##LOCALITY=Rio Marina, Elba, Italy
##OWNER=RRUFF
##SOURCE=University of Arizona Mineral Museum
##DESCRIPTION=Radial aggregate of green thin bladed crystals
##STATUS=The identification of this mineral has been confirmed by X-ray diffraction and chemical analysis
##URL=rruff.info/R060040
##MEASURED CHEMISTRY=Ca_1.00_(Fe^2+^_0.89_Mg_0.09_Mn_0.02_)_Î£=1_Si_2.00_O_6_
3.991926e+002, 1.693972e-001
4.011211e+002, 1.726168e-001
4.030495e+002, 1.600460e-001
4.049780e+002, 1.483328e-001
4.069065e+002, 1.504389e-001
4.088349e+002, 1.516990e-001
4.107634e+002, 1.431979e-001
4.126919e+002, 1.355895e-001
4.146203e+002, 1.377144e-001
4.165488e+002, 1.439418e-001
4.184773e+002, 1.481812e-001
4.204057e+002, 1.574482e-001
4.223342e+002, 1.725397e-001
4.242627e+002, 1.860381e-001
4.261911e+002, 2.022653e-001
4.281196e+002, 2.110781e-001
4.300481e+002, 2.168725e-001
4.319765e+002, 2.307057e-001
4.339050e+002, 2.438243e-001
4.358335e+002, 2.529584e-001
4.377619e+002, 2.611961e-001
4.396904e+002, 2.731215e-001
4.416189e+002, 2.865618e-001
4.435473e+002, 2.997660e-001
4.454758e+002, 3.001891e-001
4.474043e+002, 2.985410e-001
4.493327e+002, 3.008477e-001
4.512612e+002, 3.060911e-001
4.531897e+002, 3.085381e-001
4.551181e+002, 3.037147e-001
4.570466e+002, 3.007005e-001
4.589751e+002, 2.997081e-001
4.609035e+002, 2.914969e-001
4.628320e+002, 2.821637e-001
4.647605e+002, 2.708349e-001
4.666889e+002, 2.623290e-001
4.686174e+002, 2.529113e-001
4.705459e+002, 2.406609e-001
4.724743e+002, 2.303588e-001
4.744028e+002, 2.217185e-001
4.763313e+002, 2.172740e-001
4.782597e+002, 2.180966e-001
4.801882e+002, 2.199680e-001
4.821167e+002, 2.226876e-001
4.840451e+002, 2.275373e-001
4.859736e+002, 2.306333e-001
4.879021e+002, 2.316372e-001
4.898305e+002, 2.324940e-001
4.917590e+002, 2.312251e-001
4.936875e+002, 2.284317e-001
4.956159e+002, 2.223444e-001
4.975444e+002, 2.184108e-001
4.994729e+002, 2.171912e-001
5.014013e+002, 2.152176e-001
5.033298e+002, 2.126770e-001
5.052583e+002, 2.105622e-001
5.071867e+002, 2.051007e-001
5.091152e+002, 1.994808e-001
5.110437e+002, 1.935673e-001
5.129721e+002, 1.880829e-001
5.149006e+002, 1.827933e-001
5.168290e+002, 1.763606e-001
5.187575e+002, 1.693408e-001
5.206860e+002, 1.625848e-001
5.226144e+002, 1.563275e-001
5.245429e+002, 1.498147e-001
5.264714e+002, 1.443340e-001
5.283998e+002, 1.383164e-001
5.303283e+002, 1.310298e-001
5.322568e+002, 1.235164e-001
5.341852e+002, 1.179085e-001
5.361137e+002, 1.122743e-001
5.380422e+002, 1.068102e-001
5.399706e+002, 1.011211e-001
5.418991e+002, 9.550127e-002
5.438276e+002, 8.959342e-002
5.457560e+002, 8.331218e-002
5.476845e+002, 7.896297e-002
5.496130e+002, 7.571693e-002
5.515414e+002, 7.022101e-002
5.534699e+002, 6.417418e-002
5.553984e+002, 5.888920e-002
5.573268e+002, 5.564445e-002
5.592553e+002, 5.241803e-002
5.611838e+002, 4.937806e-002
5.631122e+002, 4.598223e-002
5.650407e+002, 4.351912e-002
5.669692e+002, 4.236932e-002
5.688976e+002, 4.081636e-002
5.708261e+002, 3.972100e-002
5.727546e+002, 3.905997e-002
5.746830e+002, 3.819727e-002
5.766115e+002, 3.715536e-002
5.785400e+002, 3.704491e-002
5.804684e+002, 3.735897e-002
5.823969e+002, 3.696870e-002
5.843254e+002, 3.700391e-002
5.862538e+002, 3.758784e-002
5.881823e+002, 3.856320e-002
5.901108e+002, 3.891342e-002
5.920392e+002, 4.083225e-002
5.939677e+002, 4.312744e-002
5.958962e+002, 4.434224e-002
5.978246e+002, 4.583774e-002
5.997531e+002, 4.745812e-002
6.016816e+002, 5.008028e-002
6.036100e+002, 5.353219e-002
6.055385e+002, 5.798025e-002
6.074670e+002, 6.250124e-002
6.093954e+002, 6.692432e-002
6.113239e+002, 7.235382e-002
6.132524e+002, 7.865812e-002
6.151808e+002, 8.646592e-002
6.171093e+002, 9.449452e-002
6.190378e+002, 1.015339e-001
6.209662e+002, 1.075716e-001
6.228947e+002, 1.114775e-001
6.248232e+002, 1.122574e-001
6.267516e+002, 1.104695e-001
6.286801e+002, 1.060809e-001
6.306086e+002, 9.805407e-002
6.325370e+002, 8.898176e-002
6.344655e+002, 7.967527e-002
6.363940e+002, 7.017432e-002
6.383224e+002, 6.144280e-002
6.402509e+002, 5.407580e-002
6.421794e+002, 4.891430e-002
6.441078e+002, 4.541676e-002
6.460363e+002, 4.253340e-002
6.479648e+002, 4.069583e-002
6.498932e+002, 3.984664e-002
6.518217e+002, 3.955180e-002
6.537502e+002, 4.042084e-002
6.556786e+002, 4.252600e-002
6.576071e+002, 4.564299e-002
6.595356e+002, 5.054290e-002
6.614641e+002, 5.618705e-002
6.633925e+002, 6.317172e-002
6.653210e+002, 7.084065e-002
6.672495e+002, 7.521408e-002
6.691779e+002, 7.411347e-002
6.711064e+002, 6.807720e-002
6.730349e+002, 5.957624e-002
6.749633e+002, 5.107499e-002
6.768918e+002, 4.441925e-002
6.788203e+002, 3.995003e-002
6.807487e+002, 3.681776e-002
6.826772e+002, 3.436707e-002
6.846057e+002, 3.234674e-002
6.865341e+002, 3.120315e-002
6.884626e+002, 3.088497e-002
6.903911e+002, 3.028432e-002
6.923195e+002, 3.008128e-002
6.942480e+002, 3.019042e-002
6.961765e+002, 3.002993e-002
6.981049e+002, 2.958969e-002
7.000334e+002, 2.954277e-002
7.019619e+002, 2.952664e-002
7.038903e+002, 3.016757e-002
7.058188e+002, 3.058206e-002
7.077473e+002, 3.064266e-002
7.096757e+002, 3.063547e-002
7.116042e+002, 3.108384e-002
7.135327e+002, 3.109665e-002
7.154611e+002, 3.135971e-002
7.173896e+002, 3.200632e-002
7.193181e+002, 3.262384e-002
7.212465e+002, 3.330623e-002
7.231750e+002, 3.433589e-002
7.251035e+002, 3.564701e-002
7.270319e+002, 3.635200e-002
7.289604e+002, 3.671463e-002
7.308889e+002, 3.776793e-002
7.328173e+002, 3.909452e-002
7.347458e+002, 4.003014e-002
7.366743e+002, 4.102492e-002
7.386027e+002, 4.222191e-002
7.405312e+002, 4.316572e-002
7.424597e+002, 4.468220e-002
7.443881e+002, 4.658817e-002
7.463166e+002, 4.857121e-002
7.482451e+002, 4.980066e-002
7.501735e+002, 5.098781e-002
7.521020e+002, 5.241252e-002
7.540305e+002, 5.384700e-002
7.559589e+002, 5.532930e-002
7.578874e+002, 5.729188e-002
7.598159e+002, 5.930224e-002
7.617443e+002, 6.149824e-002
7.636728e+002, 6.376333e-002
7.656013e+002, 6.586333e-002
7.675297e+002, 6.835074e-002
7.694582e+002, 7.085615e-002
7.713867e+002, 7.272016e-002
7.733151e+002, 7.456098e-002
7.752436e+002, 7.690889e-002
7.771721e+002, 8.021205e-002
7.791005e+002, 8.416174e-002
7.810290e+002, 8.738542e-002
7.829575e+002, 9.027460e-002
7.848859e+002, 9.397560e-002
7.868144e+002, 9.817707e-002
7.887429e+002, 1.019576e-001
7.906713e+002, 1.060513e-001
7.925998e+002, 1.100907e-001
7.945283e+002, 1.143074e-001
7.964567e+002, 1.194730e-001
7.983852e+002, 1.245541e-001
8.003137e+002, 1.293437e-001
8.022421e+002, 1.350120e-001
8.041706e+002, 1.414245e-001
8.060991e+002, 1.478751e-001
8.080275e+002, 1.545296e-001
8.099560e+002, 1.613965e-001
8.118845e+002, 1.690258e-001
8.138129e+002, 1.769676e-001
8.157414e+002, 1.850479e-001
8.176699e+002, 1.928823e-001
8.195983e+002, 2.006074e-001
8.215268e+002, 2.092013e-001
8.234553e+002, 2.190689e-001
8.253837e+002, 2.287886e-001
8.273122e+002, 2.390993e-001
8.292407e+002, 2.495277e-001
8.311691e+002, 2.602925e-001
8.330976e+002, 2.710178e-001
8.350261e+002, 2.818645e-001
8.369545e+002, 2.931774e-001
8.388830e+002, 3.053228e-001
8.408115e+002, 3.175227e-001
8.427399e+002, 3.291205e-001
8.446684e+002, 3.408283e-001
8.465969e+002, 3.508648e-001
8.485253e+002, 3.587233e-001
8.504538e+002, 3.647242e-001
8.523823e+002, 3.685405e-001
8.543107e+002, 3.702517e-001
8.562392e+002, 3.702240e-001
8.581677e+002, 3.697261e-001
8.600961e+002, 3.676256e-001
8.620246e+002, 3.644115e-001
8.639531e+002, 3.597829e-001
8.658815e+002, 3.535967e-001
8.678100e+002, 3.466789e-001
8.697385e+002, 3.395081e-001
8.716669e+002, 3.324849e-001
8.735954e+002, 3.262082e-001
8.755239e+002, 3.202187e-001
8.774523e+002, 3.135992e-001
8.793808e+002, 3.066276e-001
8.813093e+002, 3.001235e-001
8.832377e+002, 2.946075e-001
8.851662e+002, 2.897114e-001
8.870947e+002, 2.855207e-001
8.890231e+002, 2.813087e-001
8.909516e+002, 2.773266e-001
8.928801e+002, 2.737761e-001
8.948085e+002, 2.699032e-001
8.967370e+002, 2.669097e-001
8.986655e+002, 2.646123e-001
9.005939e+002, 2.622547e-001
9.025224e+002, 2.602479e-001
9.044509e+002, 2.577688e-001
9.063793e+002, 2.554877e-001
9.083078e+002, 2.529819e-001
9.102363e+002, 2.489523e-001
9.121647e+002, 2.442007e-001
9.140932e+002, 2.380973e-001
9.160217e+002, 2.305898e-001
9.179501e+002, 2.219786e-001
9.198786e+002, 2.127156e-001
9.218071e+002, 2.037234e-001
9.237355e+002, 1.950411e-001
9.256640e+002, 1.873119e-001
9.275925e+002, 1.825709e-001
9.295209e+002, 1.804137e-001
9.314494e+002, 1.806282e-001
9.333779e+002, 1.834761e-001
9.353063e+002, 1.888926e-001
9.372348e+002, 1.969902e-001
9.391633e+002, 2.069164e-001
9.410917e+002, 2.177819e-001
9.430202e+002, 2.293029e-001
9.449487e+002, 2.402121e-001
9.468771e+002, 2.507166e-001
9.488056e+002, 2.600372e-001
9.507341e+002, 2.675668e-001
9.526625e+002, 2.720252e-001
9.545910e+002, 2.736259e-001
9.565195e+002, 2.722686e-001
9.584479e+002, 2.678566e-001
9.603764e+002, 2.603323e-001
9.623049e+002, 2.505244e-001
9.642333e+002, 2.388252e-001
9.661618e+002, 2.264378e-001
9.680903e+002, 2.138075e-001
9.700187e+002, 2.016349e-001
9.719472e+002, 1.910205e-001
9.738757e+002, 1.822574e-001
9.758041e+002, 1.743729e-001
9.777326e+002, 1.676964e-001
9.796611e+002, 1.621018e-001
9.815895e+002, 1.573135e-001
9.835180e+002, 1.527951e-001
9.854465e+002, 1.483003e-001
9.873749e+002, 1.440965e-001
9.893034e+002, 1.402792e-001
9.912319e+002, 1.357123e-001
9.931603e+002, 1.306707e-001
9.950888e+002, 1.261085e-001
9.970173e+002, 1.216689e-001
9.989457e+002, 1.180376e-001
1.000874e+003, 1.159596e-001
1.002803e+003, 1.144644e-001
1.004731e+003, 1.140245e-001
1.006660e+003, 1.143217e-001
1.008588e+003, 1.157026e-001
1.010517e+003, 1.181091e-001
1.012445e+003, 1.214006e-001
1.014373e+003, 1.259157e-001
1.016302e+003, 1.316791e-001
1.018230e+003, 1.379201e-001
1.020159e+003, 1.449502e-001
1.022087e+003, 1.528674e-001
1.024016e+003, 1.613225e-001
1.025944e+003, 1.702681e-001
1.027873e+003, 1.796273e-001
1.029801e+003, 1.891651e-001
1.031730e+003, 1.988790e-001
1.033658e+003, 2.090464e-001
1.035587e+003, 2.193365e-001
1.037515e+003, 2.289023e-001
1.039443e+003, 2.384269e-001
1.041372e+003, 2.478214e-001
1.043300e+003, 2.559282e-001
1.045229e+003, 2.622361e-001
1.047157e+003, 2.672088e-001
1.049086e+003, 2.705809e-001
1.051014e+003, 2.724808e-001
1.052943e+003, 2.735043e-001
1.054871e+003, 2.733496e-001
1.056800e+003, 2.714333e-001
1.058728e+003, 2.676287e-001
1.060657e+003, 2.622403e-001
1.062585e+003, 2.555872e-001
1.064514e+003, 2.476835e-001
1.066442e+003, 2.381200e-001
1.068370e+003, 2.278134e-001
1.070299e+003, 2.174633e-001
1.072227e+003, 2.066048e-001
1.074156e+003, 1.963674e-001
1.076084e+003, 1.860052e-001
1.078013e+003, 1.760215e-001
1.079941e+003, 1.668749e-001
1.081870e+003, 1.581388e-001
1.083798e+003, 1.492604e-001
1.085727e+003, 1.410065e-001
1.087655e+003, 1.336974e-001
1.089584e+003, 1.262428e-001
1.091512e+003, 1.189925e-001
1.093441e+003, 1.125877e-001
1.095369e+003, 1.064282e-001
1.097297e+003, 1.002956e-001
1.099226e+003, 9.456640e-002
1.101154e+003, 8.863200e-002
1.103083e+003, 8.236636e-002
1.105011e+003, 7.632178e-002
1.106940e+003, 7.039443e-002
1.108868e+003, 6.473277e-002
1.110797e+003, 5.910927e-002
1.112725e+003, 5.342174e-002
1.114654e+003, 4.817592e-002
1.116582e+003, 4.391405e-002
1.118511e+003, 4.018277e-002
1.120439e+003, 3.645338e-002
1.122368e+003, 3.327430e-002
1.124296e+003, 3.011622e-002
1.126224e+003, 2.650896e-002
1.128153e+003, 2.359132e-002
1.130081e+003, 2.092265e-002
1.132010e+003, 1.801359e-002
1.133938e+003, 1.577173e-002
1.135867e+003, 1.370083e-002
1.137795e+003, 1.200183e-002
1.139724e+003, 1.104691e-002
1.141652e+003, 9.882034e-003
1.143581e+003, 8.901540e-003
1.145509e+003, 8.116742e-003
1.147438e+003, 7.002795e-003
1.149366e+003, 6.009299e-003
1.151295e+003, 5.760429e-003
1.153223e+003, 5.291579e-003
1.155151e+003, 4.554119e-003
1.157080e+003, 4.274006e-003
1.159008e+003, 4.024459e-003
1.160937e+003, 3.570907e-003
1.162865e+003, 3.010616e-003
1.164794e+003, 2.521066e-003
1.166722e+003, 2.127122e-003
1.168651e+003, 1.617155e-003
1.170579e+003, 1.512584e-003
1.172508e+003, 1.711807e-003
1.174436e+003, 1.267052e-003
1.176365e+003, 8.384645e-004
1.178293e+003, 5.917088e-004
1.180222e+003, 4.711270e-004
1.182150e+003, 4.300949e-004
1.184078e+003, 1.355438e-005
1.186007e+003, -3.312567e-005
1.187935e+003, -4.783265e-005
1.189864e+003, 1.699065e-005
1.191792e+003, -2.346824e-004
1.193721e+003, -6.560256e-004
1.195649e+003, -9.220137e-004
1.197578e+003, -9.949238e-004
1.199506e+003, -1.055512e-003
1.201435e+003, -1.301577e-003
1.203363e+003, -1.414704e-003
1.205292e+003, -1.350628e-003
1.207220e+003, -1.568609e-003
1.209149e+003, -1.841091e-003
1.211077e+003, -1.804769e-003
1.213005e+003, -2.017504e-003
1.214934e+003, -2.090359e-003
1.216862e+003, -1.998753e-003
1.218791e+003, -2.304701e-003
1.220719e+003, -2.362424e-003
1.222648e+003, -2.491406e-003
1.224576e+003, -2.470986e-003
1.226505e+003, -2.578611e-003
1.228433e+003, -2.570391e-003
1.230362e+003, -2.728319e-003
1.232290e+003, -3.071039e-003
1.234219e+003, -3.004942e-003
1.236147e+003, -2.752198e-003
1.238076e+003, -2.770474e-003
1.240004e+003, -2.909109e-003
1.241932e+003, -3.315524e-003
1.243861e+003, -3.276143e-003
1.245789e+003, -2.716151e-003
1.247718e+003, -2.731698e-003
1.249646e+003, -2.761006e-003
1.251575e+003, -2.627943e-003
1.253503e+003, -2.945081e-003
1.255432e+003, -3.179272e-003
1.257360e+003, -3.304646e-003
1.259289e+003, -3.446542e-003
1.261217e+003, -3.574656e-003
1.263146e+003, -3.723870e-003
1.265074e+003, -3.349126e-003
1.267003e+003, -3.326845e-003
1.268931e+003, -3.650594e-003
1.270859e+003, -3.341383e-003
1.272788e+003, -2.813790e-003
1.274716e+003, -2.512060e-003
1.276645e+003, -2.483672e-003
1.278573e+003, -2.530255e-003
1.280502e+003, -2.457108e-003
1.282430e+003, -2.417681e-003
1.284359e+003, -2.612719e-003
1.286287e+003, -2.906671e-003
1.288216e+003, -3.324953e-003
1.290144e+003, -3.368953e-003
1.292073e+003, -3.065054e-003
1.294001e+003, -3.065423e-003
1.295930e+003, -3.135346e-003
1.297858e+003, -2.980080e-003
1.299786e+003, -3.003155e-003
1.301715e+003, -2.940142e-003
1.303643e+003, -2.868325e-003
1.305572e+003, -2.817973e-003
1.307500e+003, -2.687906e-003
1.309429e+003, -2.717278e-003
1.311357e+003, -2.740617e-003
1.313286e+003, -2.842423e-003
1.315214e+003, -3.206577e-003
1.317143e+003, -3.294033e-003
1.319071e+003, -3.276191e-003
1.321000e+003, -3.057617e-003
1.322928e+003, -2.774625e-003
1.324857e+003, -2.868837e-003
1.326785e+003, -3.084598e-003
1.328714e+003, -2.991467e-003
1.330642e+003, -3.205063e-003
1.332570e+003, -3.166735e-003
1.334499e+003, -2.668158e-003
1.336427e+003, -2.552695e-003
1.338356e+003, -2.651119e-003
1.340284e+003, -2.254013e-003
1.342213e+003, -2.380432e-003
1.344141e+003, -3.049728e-003
1.346070e+003, -3.328387e-003
1.347998e+003, -2.584324e-003
1.349927e+003, -1.941432e-003
1.351855e+003, -2.061737e-003
1.353784e+003, -2.659312e-003
1.355712e+003, -2.350159e-003
1.357641e+003, -1.675221e-003
1.359569e+003, -1.382914e-003
1.361497e+003, -1.462807e-003
1.363426e+003, -1.664680e-003
1.365354e+003, -1.479037e-003
1.367283e+003, -1.219562e-003
1.369211e+003, -1.098621e-003
1.371140e+003, -9.609906e-004
1.373068e+003, -1.157143e-003
1.374997e+003, -8.017780e-004
1.376925e+003, -4.830771e-004
1.378854e+003, -5.012318e-004
1.380782e+003, -7.540340e-005
1.382711e+003, 1.733265e-004
1.384639e+003, 1.917007e-004
1.386568e+003, 1.828852e-004
1.388496e+003, 1.064512e-004
1.390424e+003, 9.043516e-005
1.392353e+003, 2.727571e-004
1.394281e+003, 6.053487e-004
1.396210e+003, 8.990145e-004
1.398138e+003, 1.279355e-003
1.400067e+003, 1.653173e-003
1.401995e+003, 1.833328e-003
1.403924e+003, 2.141433e-003
1.405852e+003, 2.365386e-003
1.407781e+003, 2.044585e-003
1.409709e+003, 2.097742e-003
1.411638e+003, 2.304714e-003
1.413566e+003, 2.523937e-003
1.415495e+003, 2.690975e-003
1.417423e+003, 3.044081e-003
1.419351e+003, 3.559421e-003
1.421280e+003, 3.746751e-003
1.423208e+003, 3.374449e-003
1.425137e+003, 3.509756e-003
1.427065e+003, 3.569212e-003
1.428994e+003, 3.696647e-003
1.430922e+003, 3.540766e-003
1.432851e+003, 3.610649e-003
1.434779e+003, 4.234409e-003
1.436708e+003, 4.411394e-003
1.438636e+003, 4.053203e-003
1.440565e+003, 3.948526e-003
1.442493e+003, 4.204953e-003
1.444422e+003, 4.440938e-003
1.446350e+003, 4.413170e-003
1.448278e+003, 4.232354e-003
1.450207e+003, 4.235067e-003
1.452135e+003, 4.574213e-003
1.454064e+003, 4.596437e-003
1.455992e+003, 4.664775e-003
1.457921e+003, 4.350388e-003
1.459849e+003, 3.653477e-003
1.461778e+003, 3.768783e-003
1.463706e+003, 4.507874e-003
1.465635e+003, 4.693460e-003
1.467563e+003, 4.602112e-003
1.469492e+003, 4.554850e-003
1.471420e+003, 4.681906e-003
1.473349e+003, 4.650757e-003
1.475277e+003, 4.614903e-003
1.477205e+003, 4.219322e-003
1.479134e+003, 3.905841e-003
1.481062e+003, 4.173928e-003
1.482991e+003, 4.063055e-003
1.484919e+003, 3.601819e-003
1.486848e+003, 3.960593e-003
1.488776e+003, 4.500362e-003
1.490705e+003, 4.497081e-003
1.492633e+003, 4.020629e-003
1.494562e+003, 4.019797e-003
1.496490e+003, 4.195381e-003
1.498419e+003, 3.784338e-003
1.500347e+003, 3.401281e-003
1.502276e+003, 3.572991e-003
1.504204e+003, 3.713096e-003
1.506132e+003, 3.740445e-003
1.508061e+003, 3.754316e-003
1.509989e+003, 3.848793e-003
1.511918e+003, 3.819955e-003
1.513846e+003, 3.431697e-003
1.515775e+003, 3.029152e-003
1.517703e+003, 2.758663e-003
1.519632e+003, 2.176801e-003
1.521560e+003, 2.231803e-003
1.523489e+003, 2.423734e-003
1.525417e+003, 2.788281e-003
1.527346e+003, 3.030702e-003
1.529274e+003, 2.701734e-003
1.531203e+003, 2.077474e-003
1.533131e+003, 1.775154e-003
1.535059e+003, 1.828990e-003
1.536988e+003, 1.809087e-003
1.538916e+003, 1.628567e-003
1.540845e+003, 1.808738e-003
1.542773e+003, 1.750930e-003
1.544702e+003, 1.380462e-003
1.546630e+003, 1.440670e-003
1.548559e+003, 1.753920e-003
1.550487e+003, 1.938112e-003
1.552416e+003, 1.816904e-003
1.554344e+003, 2.041723e-003
1.556273e+003, 1.890840e-003
1.558201e+003, 1.465340e-003
1.560130e+003, 1.388988e-003
1.562058e+003, 8.421527e-004
1.563986e+003, 5.720728e-004
1.565915e+003, 9.175188e-004
1.567843e+003, 1.489893e-003
1.569772e+003, 1.669722e-003
1.571700e+003, 1.859224e-003
1.573629e+003, 1.633343e-003
1.575557e+003, 1.219075e-003
1.577486e+003, 1.028301e-003
1.579414e+003, 1.245485e-003
1.581343e+003, 1.402781e-003
1.583271e+003, 1.274850e-003
1.585200e+003, 1.146470e-003
1.587128e+003, 1.386277e-003
1.589057e+003, 1.613745e-003
1.590985e+003, 1.449419e-003
1.592913e+003, 1.100802e-003
1.594842e+003, 9.446730e-004
1.596770e+003, 8.913308e-004
1.598699e+003, 1.169609e-003
1.600627e+003, 1.272306e-003
1.602556e+003, 1.173319e-003
1.604484e+003, 1.269978e-003
1.606413e+003, 1.278093e-003
1.608341e+003, 9.889228e-004
1.610270e+003, 1.104324e-003
1.612198e+003, 1.498964e-003
1.614127e+003, 1.681105e-003
1.616055e+003, 1.466591e-003
1.617984e+003, 1.139790e-003
1.619912e+003, 1.157954e-003
1.621840e+003, 1.282258e-003
1.623769e+003, 1.107323e-003
1.625697e+003, 8.594209e-004
1.627626e+003, 8.552193e-004
1.629554e+003, 9.980728e-004
1.631483e+003, 1.344626e-003
1.633411e+003, 1.635531e-003
1.635340e+003, 1.292670e-003
1.637268e+003, 1.185983e-003
1.639197e+003, 1.032770e-003
1.641125e+003, 9.792801e-004
1.643054e+003, 1.725661e-003
1.644982e+003, 2.138095e-003
1.646911e+003, 1.854405e-003
1.648839e+003, 1.389888e-003
1.650767e+003, 1.017363e-003
1.652696e+003, 1.036962e-003
1.654624e+003, 5.764564e-004
1.656553e+003, 2.350903e-004
1.658481e+003, 2.253467e-004
1.660410e+003, 6.998463e-004
1.662338e+003, 8.494619e-004
1.664267e+003, 2.995715e-004
1.666195e+003, 5.975748e-005
1.668124e+003, 4.163485e-004
1.670052e+003, 2.423284e-004
1.671981e+003, -2.057455e-004
1.673909e+003, -2.312756e-004
1.675838e+003, -2.062953e-004
1.677766e+003, -3.278487e-004
1.679694e+003, -5.056109e-004
1.681623e+003, -5.057728e-004
1.683551e+003, -3.711733e-004
1.685480e+003, -5.226858e-004
1.687408e+003, -4.497082e-004
1.689337e+003, -6.283152e-004
1.691265e+003, -1.082127e-003
1.693194e+003, -8.122467e-004
1.695122e+003, -5.853287e-004
1.697051e+003, -8.319310e-004
1.698979e+003, -7.144542e-004
1.700908e+003, -6.586845e-004
1.702836e+003, -7.872147e-004
1.704765e+003, -4.558118e-004
1.706693e+003, -5.851694e-004
1.708621e+003, -1.078162e-003
1.710550e+003, -1.184242e-003
1.712478e+003, -7.952203e-004
1.714407e+003, -4.921979e-004
1.716335e+003, -5.804931e-004
1.718264e+003, -5.342701e-004
1.720192e+003, -1.120759e-003
1.722121e+003, -1.003235e-003
1.724049e+003, -9.432018e-004
1.725978e+003, -9.528236e-004
1.727906e+003, -1.056001e-003
1.729835e+003, -1.427506e-003
1.731763e+003, -1.790210e-003
1.733692e+003, -1.476781e-003
1.735620e+003, -6.461141e-004
1.737548e+003, -6.773331e-004
1.739477e+003, -1.431405e-003
1.741405e+003, -1.598251e-003
1.743334e+003, -1.558285e-003
1.745262e+003, -1.472342e-003
1.747191e+003, -1.752055e-003
1.749119e+003, -1.611462e-003
1.751048e+003, -1.503573e-003
1.752976e+003, -1.584344e-003
1.754905e+003, -2.206808e-003
1.756833e+003, -2.270691e-003
1.758762e+003, -1.714920e-003
1.760690e+003, -1.801188e-003
1.762619e+003, -2.067003e-003
1.764547e+003, -1.450948e-003
1.766475e+003, -1.245404e-003
1.768404e+003, -1.726522e-003
1.770332e+003, -2.256521e-003
1.772261e+003, -2.119319e-003
1.774189e+003, -2.206731e-003
1.776118e+003, -2.457903e-003
1.778046e+003, -2.108776e-003
1.779975e+003, -1.533974e-003
1.781903e+003, -2.003629e-003
1.783832e+003, -2.160282e-003
1.785760e+003, -2.066896e-003
1.787689e+003, -1.688897e-003
1.789617e+003, -1.511054e-003
1.791546e+003, -1.417102e-003
1.793474e+003, -1.491747e-003
1.795402e+003, -2.325136e-003
1.797331e+003, -2.243303e-003
1.799259e+003, -1.679164e-003
1.801188e+003, -1.740814e-003
1.803116e+003, -2.132775e-003
1.805045e+003, -2.242752e-003
1.806973e+003, -1.835422e-003
1.808902e+003, -1.596593e-003
1.810830e+003, -1.767234e-003
1.812759e+003, -2.171293e-003
1.814687e+003, -2.743449e-003
1.816616e+003, -3.101417e-003
1.818544e+003, -2.212377e-003
1.820473e+003, -1.956259e-003
1.822401e+003, -1.856873e-003
1.824329e+003, -2.488270e-003
1.826258e+003, -2.297470e-003
1.828186e+003, -1.870885e-003
1.830115e+003, -1.608430e-003
1.832043e+003, -2.035862e-003
1.833972e+003, -1.935018e-003
1.835900e+003, -1.748773e-003
1.837829e+003, -1.892511e-003
1.839757e+003, -2.020166e-003
1.841686e+003, -1.558335e-003
1.843614e+003, -1.777260e-003
1.845543e+003, -1.837240e-003
1.847471e+003, -2.332821e-003
1.849400e+003, -3.162029e-003
1.851328e+003, -2.912920e-003
1.853256e+003, -9.185839e-004
1.855185e+003, -1.420146e-003
1.857113e+003, -2.818958e-003
1.859042e+003, -2.442062e-003
1.860970e+003, -1.647284e-003
1.862899e+003, -2.256594e-003
1.864827e+003, -2.859008e-003
1.866756e+003, -3.140231e-003
1.868684e+003, -3.133042e-003
1.870613e+003, -3.153906e-003
1.872541e+003, -2.029172e-003
1.874470e+003, -7.105590e-004
1.876398e+003, -6.490465e-004
1.878327e+003, -2.151323e-003
1.880255e+003, -3.019232e-003
1.882183e+003, -1.474941e-003
1.884112e+003, -1.634576e-003
1.886040e+003, -1.709796e-003
1.887969e+003, -1.446635e-003
1.889897e+003, -2.256786e-003
1.891826e+003, -1.510649e-003
1.893754e+003, -1.371228e-003
1.895683e+003, -1.580653e-003
1.897611e+003, -1.852548e-003
1.899540e+003, -2.376332e-003
1.901468e+003, -3.413600e-003
1.903397e+003, -4.136668e-003
1.905325e+003, -3.182847e-003
1.907254e+003, -2.718673e-003
1.909182e+003, -3.746350e-003
1.911110e+003, -2.177135e-003
1.913039e+003, -1.048438e-003
1.914967e+003, -9.976836e-004
1.916896e+003, -1.915248e-003
1.918824e+003, -2.088751e-003
1.920753e+003, -1.197024e-003
1.922681e+003, -9.969460e-004
1.924610e+003, -3.035568e-003
1.926538e+003, -4.159017e-003
1.928467e+003, -3.790626e-003
1.930395e+003, -3.610738e-003
1.932324e+003, -4.995770e-003
1.934252e+003, -4.048002e-003
1.936181e+003, -2.298477e-003
1.938109e+003, -4.653030e-004
1.940037e+003, -1.372664e-003
1.941966e+003, -4.469019e-003
1.943894e+003, -4.976225e-003
1.945823e+003, -2.362535e-003
1.947751e+003, -4.592419e-004
1.949680e+003, -1.683125e-003
1.951608e+003, -1.978275e-003
1.953537e+003, -1.350289e-003
1.955465e+003, -2.696932e-003
1.957394e+003, -4.148636e-003
1.959322e+003, 2.462408e-004
1.961251e+003, 4.914564e-003
1.963179e+003, 2.488066e-003
1.965108e+003, 2.002619e-003
1.967036e+003, 1.466209e-003
1.968964e+003, -4.305076e-004
1.970893e+003, 9.276760e-004
1.972821e+003, 9.324569e-004
1.974750e+003, -1.051915e-003
1.976678e+003, -1.380891e-003
1.978607e+003, 3.586384e-005
1.980535e+003, 2.649261e-003
1.982464e+003, 4.653923e-003
1.984392e+003, 3.211007e-003
1.986321e+003, 3.960939e-003
1.988249e+003, 3.550935e-003
1.990178e+003, 1.943721e-003
1.992106e+003, 2.042344e-005
1.994035e+003, -3.048475e-003
1.995963e+003, -1.513668e-003
1.997891e+003, 2.365360e-003
1.999820e+003, 3.351724e-003
2.001748e+003, 8.645477e-004
2.003677e+003, -6.733485e-004
2.005605e+003, -1.704646e-003
2.007534e+003, 1.638476e-004
2.009462e+003, 8.877367e-006
2.011391e+003, 1.535067e-003
2.013319e+003, 3.307423e-003
2.015248e+003, 3.188358e-003
2.017176e+003, 1.305018e-003
2.019105e+003, 8.730600e-004
2.021033e+003, 3.699655e-003
2.022962e+003, 5.919565e-003
2.024890e+003, 3.730691e-003
2.026818e+003, -3.256118e-004
2.028747e+003, 1.329108e-003
2.030675e+003, 2.709394e-003
2.032604e+003, -1.587354e-003
2.034532e+003, -1.718386e-003
2.036461e+003, -4.885630e-004
2.038389e+003, 3.050659e-003
2.040318e+003, 5.261820e-003
2.042246e+003, 6.141528e-003
2.044175e+003, 4.477049e-003
2.046103e+003, 5.143131e-004
2.048031e+003, 4.475657e-005
2.049960e+003, 2.342375e-003
2.051888e+003, 4.203836e-004
2.053817e+003, -7.559448e-004
2.055745e+003, 5.503169e-004
2.057674e+003, 2.540845e-003
2.059602e+003, 3.024568e-003
2.061531e+003, 1.712745e-003
2.063459e+003, -7.318032e-004
2.065388e+003, -1.121962e-003
2.067316e+003, 6.379373e-005
2.069245e+003, 8.968317e-004
2.071173e+003, 2.410280e-003
2.073102e+003, 7.386114e-004
2.075030e+003, -2.379743e-003
2.076958e+003, -2.705829e-003
2.078887e+003, -5.423641e-004
2.080815e+003, -4.805103e-004
2.082744e+003, -2.343328e-003
2.084672e+003, -1.171261e-003
2.086601e+003, -5.849276e-004
2.088529e+003, 1.194964e-004
2.090458e+003, -1.384192e-003
2.092386e+003, -2.013220e-003
2.094315e+003, -1.909929e-003
2.096243e+003, 7.883110e-004
2.098172e+003, 1.944250e-004
2.100100e+003, -1.603432e-003
2.102029e+003, -1.151535e-003
2.103957e+003, 5.345393e-004
2.105885e+003, 8.427921e-004
2.107814e+003, 1.697317e-003
2.109742e+003, 4.499787e-004
2.111671e+003, -1.079630e-003
2.113599e+003, -1.848102e-003
2.115528e+003, -2.878634e-003
2.117456e+003, -3.452000e-003
2.119385e+003, -1.959342e-003
2.121313e+003, -1.085391e-003
2.123242e+003, -1.533521e-003
2.125170e+003, -2.155589e-003
2.127099e+003, -1.127766e-003
2.129027e+003, 4.176691e-004
2.130956e+003, -6.509852e-004
2.132884e+003, -6.679692e-003
2.134813e+003, -9.286966e-003
2.136741e+003, -6.182822e-003
2.138669e+003, -2.030937e-003
2.140598e+003, -1.789321e-003
2.142526e+003, -2.637156e-003
2.144455e+003, -1.597621e-003
2.146383e+003, 5.347701e-004
2.148312e+003, 7.034158e-004
2.150240e+003, -7.421914e-004
2.152169e+003, -2.241516e-003
2.154097e+003, -1.859095e-003
2.156026e+003, -3.012829e-005
2.157954e+003, 2.268666e-003
2.159883e+003, 2.627818e-003
2.161811e+003, 7.941984e-003
2.163740e+003, 9.225080e-003
2.165668e+003, 5.756263e-003
2.167596e+003, 6.293946e-003
2.169525e+003, 7.552867e-003
2.171453e+003, 4.791440e-003
2.173382e+003, 2.853008e-003
2.175310e+003, 3.863597e-003
2.177239e+003, 2.775073e-003
2.179167e+003, 2.344886e-003
2.181096e+003, 3.453675e-003
2.183024e+003, 1.991932e-003
2.184953e+003, -7.069735e-004
2.186881e+003, -7.798336e-004
2.188810e+003, 1.335544e-003
2.190738e+003, 4.228198e-003
2.192667e+003, 3.308303e-003
2.194595e+003, 7.115770e-006
2.196523e+003, 1.318083e-003
2.198452e+003, 2.243160e-003
2.200380e+003, 3.867877e-003
2.202309e+003, 5.670013e-003
2.204237e+003, 6.677121e-003
2.206166e+003, 5.798049e-003
2.208094e+003, 6.277286e-003
2.210023e+003, 3.202529e-003
2.211951e+003, 5.318508e-004
2.213880e+003, 1.557037e-003
2.215808e+003, 3.149118e-003
2.217737e+003, 3.925682e-003
2.219665e+003, 5.414919e-003
2.221594e+003, 5.165732e-003
2.223522e+003, 3.467235e-003
2.225450e+003, 1.526340e-003
2.227379e+003, 3.010370e-003
2.229307e+003, 5.367284e-003
2.231236e+003, 4.771267e-003
2.233164e+003, 3.236535e-003
2.235093e+003, 2.830849e-003
2.237021e+003, 3.080135e-003
2.238950e+003, 4.554915e-003
2.240878e+003, 4.892891e-003
2.242807e+003, 3.460482e-003
2.244735e+003, 1.631021e-003
2.246664e+003, 3.124709e-003
2.248592e+003, 6.254046e-003
2.250521e+003, 6.814419e-003
2.252449e+003, 6.262006e-003
2.254377e+003, 3.996042e-003
2.256306e+003, 2.586783e-003
2.258234e+003, 3.750114e-003
2.260163e+003, 4.676122e-003
2.262091e+003, 5.425385e-003
2.264020e+003, 4.880558e-003
2.265948e+003, 2.591255e-003
2.267877e+003, 6.372457e-004
2.269805e+003, 1.488637e-003
2.271734e+003, 2.001918e-003
2.273662e+003, 2.970606e-003
2.275591e+003, 4.403825e-003
2.277519e+003, 4.943765e-003
2.279448e+003, 5.275423e-003
2.281376e+003, 4.956766e-003
2.283304e+003, 5.079107e-003
2.285233e+003, 4.919756e-003
2.287161e+003, 4.821768e-003
2.289090e+003, 4.088637e-003
2.291018e+003, 2.991366e-003
2.292947e+003, 2.795448e-003
2.294875e+003, 2.758912e-003
2.296804e+003, 3.032440e-003
2.298732e+003, 2.499662e-003
2.300661e+003, 2.201234e-003
2.302589e+003, 2.514132e-003
2.304518e+003, 2.685963e-003
2.306446e+003, 2.689471e-003
2.308375e+003, 2.462226e-003
2.310303e+003, 2.141686e-003
2.312231e+003, 2.642774e-003
2.314160e+003, 2.565030e-003
2.316088e+003, 2.279274e-003
2.318017e+003, 3.459782e-003
2.319945e+003, 4.010933e-003
2.321874e+003, 3.410349e-003
2.323802e+003, 3.492610e-003
2.325731e+003, 2.134512e-003
2.327659e+003, 9.503264e-004
2.329588e+003, 9.115592e-004
2.331516e+003, 1.682119e-003
2.333445e+003, 2.065961e-003
2.335373e+003, 2.160084e-003
2.337302e+003, 1.698829e-003
2.339230e+003, 8.692563e-004
2.341158e+003, 9.413589e-004
2.343087e+003, 1.440395e-003
2.345015e+003, 2.258676e-003
2.346944e+003, 2.182181e-003
2.348872e+003, 1.614274e-003
2.350801e+003, 1.555978e-003
2.352729e+003, 2.084550e-003
2.354658e+003, 2.283861e-003
2.356586e+003, 9.453457e-004
2.358515e+003, 5.484522e-004
2.360443e+003, 1.726691e-003
2.362372e+003, 1.971473e-003
2.364300e+003, 9.120450e-004
2.366229e+003, 8.300621e-004
2.368157e+003, 1.446023e-003
2.370085e+003, 1.895278e-003
2.372014e+003, 2.337909e-003
2.373942e+003, 1.960409e-003
2.375871e+003, 1.653459e-003
2.377799e+003, 2.287161e-003
2.379728e+003, 3.124266e-003
2.381656e+003, 3.523476e-003
2.383585e+003, 2.681665e-003
2.385513e+003, 2.220287e-003
2.387442e+003, 3.399995e-003
2.389370e+003, 3.276841e-003
2.391299e+003, 2.276729e-003
2.393227e+003, 1.910369e-003
2.395156e+003, 1.631510e-003
2.397084e+003, 1.628813e-003
2.399012e+003, 3.440372e-003
2.400941e+003, 5.600392e-003
2.402869e+003, 4.604045e-003
2.404798e+003, 2.936993e-003
2.406726e+003, 2.366041e-003
2.408655e+003, 2.521676e-003
2.410583e+003, 3.372914e-003
2.412512e+003, 3.257351e-003
2.414440e+003, 2.785051e-003
2.416369e+003, 2.323822e-003
2.418297e+003, 3.395249e-003
2.420226e+003, 4.395776e-003
2.422154e+003, 2.911123e-003
2.424083e+003, 1.904620e-003
2.426011e+003, 1.894490e-003
2.427939e+003, 3.416024e-003
2.429868e+003, 3.336443e-003
2.431796e+003, 2.907138e-003
2.433725e+003, 2.882159e-003
2.435653e+003, 3.324289e-003
2.437582e+003, 2.244383e-003
2.439510e+003, 2.361328e-003
2.441439e+003, 3.644918e-003
2.443367e+003, 4.984887e-003
2.445296e+003, 6.776826e-003
2.447224e+003, 6.072067e-003
2.449153e+003, 4.424060e-003
2.451081e+003, 5.321562e-003
2.453010e+003, 5.396555e-003
2.454938e+003, 4.635702e-003
2.456866e+003, 4.898280e-003
2.458795e+003, 4.279563e-003
2.460723e+003, 3.730688e-003
2.462652e+003, 3.561199e-003
2.464580e+003, 3.337203e-003
2.466509e+003, 3.899674e-003
2.468437e+003, 4.468797e-003
2.470366e+003, 3.708926e-003
2.472294e+003, 3.391607e-003
2.474223e+003, 4.668978e-003
2.476151e+003, 4.697819e-003
2.478080e+003, 4.661785e-003
2.480008e+003, 4.204192e-003
2.481937e+003, 4.218164e-003
2.483865e+003, 4.028288e-003
2.485793e+003, 3.874083e-003
2.487722e+003, 4.076697e-003
2.489650e+003, 3.494557e-003
2.491579e+003, 3.225875e-003
2.493507e+003, 3.900242e-003
2.495436e+003, 3.475570e-003
2.497364e+003, 3.478163e-003
2.499293e+003, 4.693853e-003
2.501221e+003, 3.254232e-003
2.503150e+003, 2.629049e-003
2.505078e+003, 3.470680e-003
2.507007e+003, 3.728104e-003
2.508935e+003, 4.271497e-003
2.510864e+003, 3.806262e-003
2.512792e+003, 3.546526e-003
2.514720e+003, 2.750109e-003
2.516649e+003, 3.695343e-003
2.518577e+003, 5.177128e-003
2.520506e+003, 7.086383e-003
2.522434e+003, 5.324000e-003
2.524363e+003, 2.638501e-003
2.526291e+003, 3.642323e-003
2.528220e+003, 4.955691e-003
2.530148e+003, 5.282682e-003
2.532077e+003, 4.398320e-003
2.534005e+003, 4.062099e-003
2.535934e+003, 2.997800e-003
2.537862e+003, 2.560045e-003
2.539791e+003, 3.458162e-003
2.541719e+003, 3.095566e-003
2.543647e+003, 2.076521e-003
2.545576e+003, 2.993755e-003
2.547504e+003, 4.644278e-003
2.549433e+003, 5.457954e-003
2.551361e+003, 4.677085e-003
2.553290e+003, 4.497028e-003
2.555218e+003, 5.056735e-003
2.557147e+003, 3.945039e-003
2.559075e+003, 3.534894e-003
2.561004e+003, 3.504612e-003
2.562932e+003, 4.081082e-003
2.564861e+003, 5.376884e-003
2.566789e+003, 5.162352e-003
2.568718e+003, 4.314100e-003
2.570646e+003, 3.988957e-003
2.572574e+003, 4.525411e-003
2.574503e+003, 4.946119e-003
2.576431e+003, 5.823515e-003
2.578360e+003, 6.444599e-003
2.580288e+003, 4.815529e-003
2.582217e+003, 4.582519e-003
2.584145e+003, 5.011114e-003
2.586074e+003, 5.019067e-003
2.588002e+003, 5.203952e-003
2.589931e+003, 5.195413e-003
2.591859e+003, 4.526048e-003
2.593788e+003, 4.437162e-003
2.595716e+003, 4.724814e-003
2.597645e+003, 5.076483e-003
2.599573e+003, 5.190479e-003
2.601501e+003, 5.264968e-003
2.603430e+003, 5.991234e-003
2.605358e+003, 5.324891e-003
2.607287e+003, 3.000840e-003
2.609215e+003, 3.180068e-003
2.611144e+003, 4.294647e-003
2.613072e+003, 4.751290e-003
2.615001e+003, 5.151409e-003
2.616929e+003, 6.090330e-003
2.618858e+003, 5.889749e-003
2.620786e+003, 5.038667e-003
2.622715e+003, 5.009993e-003
2.624643e+003, 4.943524e-003
2.626572e+003, 5.657780e-003
2.628500e+003, 5.229838e-003
2.630428e+003, 4.570996e-003
2.632357e+003, 4.300214e-003
2.634285e+003, 3.713107e-003
2.636214e+003, 5.434517e-003
2.638142e+003, 7.677265e-003
2.640071e+003, 7.673983e-003
2.641999e+003, 5.677956e-003
2.643928e+003, 4.993253e-003
2.645856e+003, 5.158275e-003
2.647785e+003, 5.481343e-003
2.649713e+003, 5.330980e-003
2.651642e+003, 5.703220e-003
2.653570e+003, 6.549697e-003
2.655499e+003, 6.718235e-003
2.657427e+003, 5.934489e-003
2.659355e+003, 4.968365e-003
2.661284e+003, 4.910585e-003
2.663212e+003, 5.408732e-003
2.665141e+003, 4.831071e-003
2.667069e+003, 4.241616e-003
2.668998e+003, 4.306085e-003
2.670926e+003, 4.953609e-003
2.672855e+003, 4.997033e-003
2.674783e+003, 4.635054e-003
2.676712e+003, 3.762045e-003
2.678640e+003, 3.889754e-003
2.680569e+003, 4.011258e-003
2.682497e+003, 3.816248e-003
2.684426e+003, 3.731818e-003
2.686354e+003, 4.502291e-003
2.688282e+003, 5.554006e-003
2.690211e+003, 5.075200e-003
2.692139e+003, 4.190034e-003
2.694068e+003, 3.508934e-003
2.695996e+003, 4.248740e-003
2.697925e+003, 4.542309e-003
2.699853e+003, 3.553967e-003
2.701782e+003, 2.503129e-003
2.703710e+003, 2.936439e-003
2.705639e+003, 3.664338e-003
2.707567e+003, 3.527842e-003
2.709496e+003, 4.598173e-003
2.711424e+003, 4.695069e-003
2.713353e+003, 3.922719e-003
2.715281e+003, 4.328605e-003
2.717209e+003, 4.081420e-003
2.719138e+003, 2.436142e-003
2.721066e+003, 3.534491e-003
2.722995e+003, 5.414669e-003
2.724923e+003, 5.586675e-003
2.726852e+003, 4.945118e-003
2.728780e+003, 4.723941e-003
2.730709e+003, 4.795323e-003
2.732637e+003, 5.539532e-003
2.734566e+003, 5.499484e-003
2.736494e+003, 5.869850e-003
2.738423e+003, 5.959339e-003
2.740351e+003, 5.456667e-003
2.742280e+003, 4.749328e-003
2.744208e+003, 3.943254e-003
2.746136e+003, 4.271679e-003
2.748065e+003, 5.011222e-003
2.749993e+003, 5.258408e-003
2.751922e+003, 4.829011e-003
2.753850e+003, 3.788024e-003
2.755779e+003, 4.132473e-003
2.757707e+003, 5.776924e-003
2.759636e+003, 6.442911e-003
2.761564e+003, 4.632732e-003
2.763493e+003, 3.789811e-003
2.765421e+003, 5.552460e-003
2.767350e+003, 6.336959e-003
2.769278e+003, 5.110369e-003
2.771207e+003, 4.314674e-003
2.773135e+003, 5.608839e-003
2.775063e+003, 7.226296e-003
2.776992e+003, 5.910073e-003
2.778920e+003, 4.049787e-003
2.780849e+003, 5.026894e-003
2.782777e+003, 5.931662e-003
2.784706e+003, 5.790967e-003
2.786634e+003, 6.320444e-003
2.788563e+003, 6.120706e-003
2.790491e+003, 5.625680e-003
2.792420e+003, 5.275957e-003
2.794348e+003, 5.308326e-003
2.796277e+003, 4.875939e-003
2.798205e+003, 5.104485e-003
2.800134e+003, 5.855802e-003
2.802062e+003, 5.799584e-003
2.803990e+003, 4.967100e-003
2.805919e+003, 5.581540e-003
2.807847e+003, 5.796507e-003
2.809776e+003, 4.958950e-003
2.811704e+003, 4.377410e-003
2.813633e+003, 4.734214e-003
2.815561e+003, 5.183692e-003
2.817490e+003, 6.032483e-003
2.819418e+003, 6.252557e-003
2.821347e+003, 7.113349e-003
2.823275e+003, 6.798938e-003
2.825204e+003, 5.517097e-003
2.827132e+003, 5.050397e-003
2.829061e+003, 5.063361e-003
2.830989e+003, 6.300677e-003
2.832917e+003, 7.061282e-003
2.834846e+003, 5.799386e-003
2.836774e+003, 4.673693e-003
2.838703e+003, 5.535088e-003
2.840631e+003, 5.532415e-003
2.842560e+003, 6.437444e-003
2.844488e+003, 7.382906e-003
2.846417e+003, 7.007541e-003
2.848345e+003, 7.004692e-003
2.850274e+003, 7.067858e-003
2.852202e+003, 8.319937e-003
2.854131e+003, 8.864896e-003
2.856059e+003, 7.772974e-003
2.857988e+003, 6.512691e-003
2.859916e+003, 7.449035e-003
2.861844e+003, 8.345317e-003
2.863773e+003, 8.232799e-003
2.865701e+003, 7.919820e-003
2.867630e+003, 8.043948e-003
2.869558e+003, 8.499488e-003
2.871487e+003, 7.948973e-003
2.873415e+003, 7.084087e-003
2.875344e+003, 6.344910e-003
2.877272e+003, 6.446247e-003
2.879201e+003, 7.058740e-003
2.881129e+003, 7.699639e-003
2.883058e+003, 7.261714e-003
2.884986e+003, 7.764398e-003
2.886915e+003, 9.380334e-003
2.888843e+003, 9.682490e-003
2.890771e+003, 8.684503e-003
2.892700e+003, 7.978659e-003
2.894628e+003, 9.553007e-003
2.896557e+003, 1.015560e-002
2.898485e+003, 8.359849e-003
2.900414e+003, 7.804280e-003
2.902342e+003, 8.823815e-003
2.904271e+003, 9.902852e-003
2.906199e+003, 1.020235e-002
2.908128e+003, 1.006354e-002
2.910056e+003, 9.944965e-003
2.911985e+003, 9.294946e-003
2.913913e+003, 7.911205e-003
2.915842e+003, 8.527485e-003
2.917770e+003, 8.714785e-003
2.919698e+003, 7.740454e-003
2.921627e+003, 8.277172e-003
2.923555e+003, 9.348174e-003
2.925484e+003, 9.898826e-003
2.927412e+003, 1.100672e-002
2.929341e+003, 1.243804e-002
2.931269e+003, 1.132193e-002
2.933198e+003, 9.333035e-003
2.935126e+003, 8.293671e-003
2.937055e+003, 8.909084e-003
2.938983e+003, 1.005757e-002
2.940912e+003, 9.915210e-003
2.942840e+003, 8.356552e-003
2.944769e+003, 7.546599e-003
2.946697e+003, 7.984817e-003
2.948625e+003, 9.032536e-003
2.950554e+003, 9.738920e-003
2.952482e+003, 1.035135e-002
2.954411e+003, 1.078994e-002
2.956339e+003, 9.665585e-003
2.958268e+003, 9.100245e-003
2.960196e+003, 9.542448e-003
2.962125e+003, 8.338253e-003
2.964053e+003, 8.954396e-003
2.965982e+003, 9.924355e-003
2.967910e+003, 8.645915e-003
2.969839e+003, 8.135933e-003
2.971767e+003, 7.434758e-003
2.973696e+003, 6.789191e-003
2.975624e+003, 7.690570e-003
2.977552e+003, 8.556375e-003
2.979481e+003, 7.643365e-003
2.981409e+003, 6.457079e-003
2.983338e+003, 7.118757e-003
2.985266e+003, 7.879753e-003
2.987195e+003, 7.603374e-003
2.989123e+003, 7.817524e-003
2.991052e+003, 9.195380e-003
2.992980e+003, 8.763280e-003
2.994909e+003, 7.951526e-003
2.996837e+003, 8.758807e-003
2.998766e+003, 9.633596e-003
3.000694e+003, 8.906442e-003
3.002623e+003, 8.420063e-003
3.004551e+003, 8.404055e-003
3.006479e+003, 8.208157e-003
3.008408e+003, 8.460803e-003
3.010336e+003, 9.640815e-003
3.012265e+003, 9.003299e-003
3.014193e+003, 7.090836e-003
3.016122e+003, 7.078937e-003
3.018050e+003, 7.434896e-003
3.019979e+003, 6.028509e-003
3.021907e+003, 6.638025e-003
3.023836e+003, 8.077878e-003
3.025764e+003, 8.389533e-003
3.027693e+003, 9.568941e-003
3.029621e+003, 1.037085e-002
3.031550e+003, 1.057175e-002
3.033478e+003, 9.084114e-003
3.035406e+003, 8.499663e-003
3.037335e+003, 9.162070e-003
3.039263e+003, 8.831511e-003
3.041192e+003, 9.346750e-003
3.043120e+003, 9.075945e-003
3.045049e+003, 8.624751e-003
3.046977e+003, 9.605185e-003
3.048906e+003, 9.483799e-003
3.050834e+003, 8.293182e-003
3.052763e+003, 8.649132e-003
3.054691e+003, 8.168255e-003
3.056620e+003, 7.268069e-003
3.058548e+003, 7.672555e-003
3.060477e+003, 9.536649e-003
3.062405e+003, 1.103927e-002
3.064333e+003, 1.072890e-002
3.066262e+003, 9.345403e-003
3.068190e+003, 9.301966e-003
3.070119e+003, 9.284384e-003
3.072047e+003, 8.000322e-003
3.073976e+003, 8.219225e-003
3.075904e+003, 8.868734e-003
3.077833e+003, 9.303886e-003
3.079761e+003, 1.083454e-002
3.081690e+003, 1.101233e-002
3.083618e+003, 9.216405e-003
3.085547e+003, 8.043543e-003
3.087475e+003, 8.759393e-003
3.089404e+003, 1.132640e-002
3.091332e+003, 1.147379e-002
3.093260e+003, 9.560239e-003
3.095189e+003, 6.922262e-003
3.097117e+003, 7.682459e-003
3.099046e+003, 9.855450e-003
3.100974e+003, 1.239256e-002
3.102903e+003, 1.333992e-002
3.104831e+003, 1.065187e-002
3.106760e+003, 8.889985e-003
3.108688e+003, 8.738554e-003
3.110617e+003, 8.087749e-003
3.112545e+003, 7.076446e-003
3.114474e+003, 9.179020e-003
3.116402e+003, 9.824415e-003
3.118331e+003, 9.784649e-003
3.120259e+003, 9.706282e-003
3.122188e+003, 7.415813e-003
3.124116e+003, 7.461432e-003
3.126044e+003, 9.086162e-003
3.127973e+003, 1.045049e-002
3.129901e+003, 1.117622e-002
3.131830e+003, 9.423792e-003
3.133758e+003, 7.946536e-003
3.135687e+003, 9.362424e-003
3.137615e+003, 9.729702e-003
3.139544e+003, 9.765032e-003
3.141472e+003, 9.519800e-003
3.143401e+003, 9.843600e-003
3.145329e+003, 1.007337e-002
3.147258e+003, 8.153279e-003
3.149186e+003, 8.102887e-003
3.151115e+003, 1.031908e-002
3.153043e+003, 1.136398e-002
3.154971e+003, 1.026815e-002
3.156900e+003, 9.831794e-003
3.158828e+003, 1.034423e-002
3.160757e+003, 9.303386e-003
3.162685e+003, 8.554339e-003
3.164614e+003, 9.474852e-003
3.166542e+003, 1.022689e-002
3.168471e+003, 1.056435e-002
3.170399e+003, 1.124726e-002
3.172328e+003, 1.195085e-002
3.174256e+003, 1.165486e-002
3.176185e+003, 1.119976e-002
3.178113e+003, 8.882418e-003
3.180042e+003, 8.367779e-003
3.181970e+003, 9.690561e-003
3.183898e+003, 1.021231e-002
3.185827e+003, 1.053439e-002
3.187755e+003, 1.191894e-002
3.189684e+003, 1.253456e-002
3.191612e+003, 9.861492e-003
3.193541e+003, 9.240681e-003
3.195469e+003, 1.163592e-002
3.197398e+003, 1.293011e-002
3.199326e+003, 1.257368e-002
3.201255e+003, 1.182339e-002
3.203183e+003, 1.092521e-002
3.205112e+003, 1.085251e-002
3.207040e+003, 1.171422e-002
3.208969e+003, 1.154268e-002
3.210897e+003, 1.148731e-002
3.212825e+003, 1.193502e-002
3.214754e+003, 1.226927e-002
3.216682e+003, 1.180204e-002
3.218611e+003, 1.192831e-002
3.220539e+003, 1.176117e-002
3.222468e+003, 1.082903e-002
3.224396e+003, 1.110428e-002
3.226325e+003, 9.331768e-003
3.228253e+003, 8.369804e-003
3.230182e+003, 1.113875e-002
3.232110e+003, 1.313742e-002
3.234039e+003, 1.354585e-002
3.235967e+003, 1.219948e-002
3.237896e+003, 1.105096e-002
3.239824e+003, 1.066717e-002
3.241752e+003, 1.034100e-002
3.243681e+003, 1.023494e-002
3.245609e+003, 9.930546e-003
3.247538e+003, 8.861615e-003
3.249466e+003, 9.021205e-003
3.251395e+003, 1.011270e-002
3.253323e+003, 1.156134e-002
3.255252e+003, 1.190883e-002
3.257180e+003, 1.100442e-002
3.259109e+003, 1.072077e-002
3.261037e+003, 1.303289e-002
3.262966e+003, 1.270123e-002
3.264894e+003, 9.994208e-003
3.266823e+003, 8.303640e-003
3.268751e+003, 7.833146e-003
3.270679e+003, 8.278752e-003
3.272608e+003, 9.773818e-003
3.274536e+003, 1.398798e-002
3.276465e+003, 1.406588e-002
3.278393e+003, 1.167364e-002
3.280322e+003, 9.196212e-003
3.282250e+003, 8.744304e-003
3.284179e+003, 1.055097e-002
3.286107e+003, 1.197635e-002
3.288036e+003, 1.173428e-002
3.289964e+003, 1.110005e-002
3.291893e+003, 1.233569e-002
3.293821e+003, 1.182393e-002
3.295750e+003, 1.111913e-002
3.297678e+003, 9.933203e-003
3.299606e+003, 8.920550e-003
3.301535e+003, 9.828350e-003
3.303463e+003, 1.160160e-002
3.305392e+003, 1.198129e-002
3.307320e+003, 1.075468e-002
3.309249e+003, 8.392163e-003
3.311177e+003, 8.237756e-003
3.313106e+003, 1.144949e-002
3.315034e+003, 1.437969e-002
3.316963e+003, 1.361982e-002
3.318891e+003, 1.404555e-002
3.320820e+003, 1.358821e-002
3.322748e+003, 1.084784e-002
3.324677e+003, 1.035238e-002
3.326605e+003, 1.091114e-002
3.328533e+003, 1.178183e-002
3.330462e+003, 1.132920e-002
3.332390e+003, 9.925112e-003
3.334319e+003, 1.032272e-002
3.336247e+003, 1.342232e-002
3.338176e+003, 1.519678e-002
3.340104e+003, 1.549145e-002
3.342033e+003, 1.379299e-002
3.343961e+003, 1.081290e-002
3.345890e+003, 1.110167e-002
3.347818e+003, 1.298544e-002
3.349747e+003, 1.478341e-002
3.351675e+003, 1.501366e-002
3.353604e+003, 1.257361e-002
3.355532e+003, 1.076274e-002
3.357460e+003, 9.833062e-003
3.359389e+003, 7.993168e-003
3.361317e+003, 9.980890e-003
3.363246e+003, 1.162296e-002
3.365174e+003, 1.122344e-002
3.367103e+003, 1.183306e-002
3.369031e+003, 1.288478e-002
3.370960e+003, 1.307781e-002
3.372888e+003, 1.325548e-002
3.374817e+003, 1.103126e-002
3.376745e+003, 9.585154e-003
3.378674e+003, 1.252518e-002
3.380602e+003, 1.322434e-002
3.382531e+003, 1.370188e-002
3.384459e+003, 1.259547e-002
3.386387e+003, 1.297823e-002
3.388316e+003, 1.402599e-002
3.390244e+003, 1.296895e-002
3.392173e+003, 1.244412e-002
3.394101e+003, 1.188734e-002
3.396030e+003, 8.634331e-003
3.397958e+003, 7.495721e-003
3.399887e+003, 8.755730e-003
3.401815e+003, 8.985939e-003
3.403744e+003, 9.576992e-003
3.405672e+003, 9.797474e-003
3.407601e+003, 1.114193e-002
3.409529e+003, 1.189309e-002
3.411458e+003, 1.027354e-002
3.413386e+003, 6.355637e-003
3.415314e+003, 5.863523e-003
3.417243e+003, 9.461301e-003
3.419171e+003, 1.075216e-002
3.421100e+003, 9.437625e-003
3.423028e+003, 9.698799e-003
3.424957e+003, 1.187952e-002
3.426885e+003, 1.155243e-002
3.428814e+003, 8.121558e-003
3.430742e+003, 8.222851e-003
3.432671e+003, 8.363392e-003
3.434599e+003, 9.727925e-003
3.436528e+003, 9.617687e-003
3.438456e+003, 8.634249e-003
3.440385e+003, 8.873965e-003
3.442313e+003, 9.067850e-003
3.444241e+003, 9.539286e-003
3.446170e+003, 1.120219e-002
3.448098e+003, 1.130034e-002
3.450027e+003, 9.879102e-003
3.451955e+003, 8.371921e-003
3.453884e+003, 6.267715e-003
3.455812e+003, 6.273908e-003
3.457741e+003, 7.925328e-003
3.459669e+003, 1.001436e-002
3.461598e+003, 9.363493e-003
3.463526e+003, 9.136907e-003
3.465455e+003, 6.994422e-003
3.467383e+003, 5.163271e-003
3.469312e+003, 7.269907e-003
3.471240e+003, 8.937139e-003
3.473168e+003, 7.377191e-003
3.475097e+003, 6.262755e-003
3.477025e+003, 5.433592e-003
3.478954e+003, 5.610984e-003
3.480882e+003, 8.112825e-003
3.482811e+003, 8.124779e-003
3.484739e+003, 7.849714e-003
3.486668e+003, 7.645912e-003
3.488596e+003, 7.408903e-003
3.490525e+003, 9.071346e-003
3.492453e+003, 9.194552e-003
3.494382e+003, 8.756177e-003
3.496310e+003, 8.031515e-003
3.498239e+003, 8.885443e-003
3.500167e+003, 9.469095e-003
3.502095e+003, 8.497146e-003
3.504024e+003, 9.476694e-003
3.505952e+003, 9.948634e-003
3.507881e+003, 8.978437e-003
3.509809e+003, 7.190044e-003
3.511738e+003, 6.911847e-003
3.513666e+003, 8.127045e-003
3.515595e+003, 7.691059e-003
3.517523e+003, 7.936060e-003
3.519452e+003, 9.553387e-003
3.521380e+003, 8.892914e-003
3.523309e+003, 5.258890e-003
3.525237e+003, 3.439335e-003
3.527166e+003, 5.718882e-003
3.529094e+003, 5.887423e-003
3.531022e+003, 5.984182e-003
3.532951e+003, 9.027902e-003
3.534879e+003, 9.296335e-003
3.536808e+003, 6.682243e-003
3.538736e+003, 5.934227e-003
3.540665e+003, 8.647002e-003
3.542593e+003, 9.979546e-003
3.544522e+003, 9.645350e-003
3.546450e+003, 7.480158e-003
3.548379e+003, 5.125770e-003
3.550307e+003, 3.670386e-003
3.552236e+003, 3.960560e-003
3.554164e+003, 5.110407e-003
3.556093e+003, 4.455492e-003
3.558021e+003, 2.774834e-003
3.559949e+003, 4.707550e-003
3.561878e+003, 6.278834e-003
3.563806e+003, 6.062595e-003
3.565735e+003, 6.032010e-003
3.567663e+003, 6.033073e-003
3.569592e+003, 6.656281e-003
3.571520e+003, 7.904970e-003
3.573449e+003, 5.598648e-003
3.575377e+003, 4.869172e-003
3.577306e+003, 6.076276e-003
3.579234e+003, 3.986831e-003
3.581163e+003, 1.351801e-003
3.583091e+003, 8.730754e-004
3.585020e+003, 2.292832e-003
3.586948e+003, 1.818923e-003
3.588876e+003, 4.621969e-004
3.590805e+003, -8.366016e-006
3.592733e+003, -2.762443e-004
3.594662e+003, 5.594603e-004
3.596590e+003, 5.831406e-003
3.598519e+003, 5.749521e-003
3.600447e+003, 4.057418e-003
3.602376e+003, 2.026857e-003
3.604304e+003, -7.112669e-004
3.606233e+003, -2.142319e-003
3.608161e+003, -2.943823e-003
3.610090e+003, -3.667594e-003
3.612018e+003, -1.030383e-003
3.613947e+003, 3.189991e-004
3.615875e+003, 9.709939e-004
3.617803e+003, 1.433520e-003
3.619732e+003, 5.324834e-004
3.621660e+003, 5.641369e-004
3.623589e+003, 1.767210e-003
3.625517e+003, 1.698220e-003
3.627446e+003, 1.510275e-003
3.629374e+003, 1.941028e-003
3.631303e+003, -7.303057e-004
3.633231e+003, 1.304000e-004
3.635160e+003, 2.048819e-003
3.637088e+003, 5.854169e-004
3.639017e+003, -1.624616e-004
3.640945e+003, -1.951955e-004
3.642874e+003, 3.439246e-003
3.644802e+003, 5.632715e-003
3.646730e+003, 3.470718e-003
3.648659e+003, -1.335811e-003
3.650587e+003, -2.177252e-003
3.652516e+003, -3.232796e-003
3.654444e+003, -3.481674e-003
3.656373e+003, -4.442356e-003
3.658301e+003, -2.602103e-003
3.660230e+003, 1.341780e-003
3.662158e+003, 7.852124e-004
3.664087e+003, 7.787629e-004
3.666015e+003, 2.885087e-003
3.667944e+003, -8.242485e-004
3.669872e+003, -3.934366e-003
3.671801e+003, -2.222501e-003
3.673729e+003, -8.566329e-004
3.675657e+003, -3.935910e-003
3.677586e+003, -5.665659e-003
3.679514e+003, -3.918272e-003
3.681443e+003, -1.099836e-003
3.683371e+003, 1.265667e-003
3.685300e+003, 3.396549e-003
3.687228e+003, 1.122952e-003
3.689157e+003, -2.117280e-003
3.691085e+003, -2.250715e-003
3.693014e+003, -7.082024e-004
3.694942e+003, -1.934338e-003
3.696871e+003, -4.441080e-003
3.698799e+003, -5.520658e-003
3.700728e+003, -4.456228e-003
3.702656e+003, 3.555844e-004
3.704584e+003, 3.229295e-004
3.706513e+003, -1.520998e-003
3.708441e+003, -2.537459e-003
3.710370e+003, -2.206418e-003
3.712298e+003, -6.061057e-004
3.714227e+003, -2.743725e-003
3.716155e+003, -5.004364e-003
3.718084e+003, -4.629582e-003
3.720012e+003, -3.811458e-003
3.721941e+003, -2.185637e-003
3.723869e+003, -3.839165e-003
3.725798e+003, -4.051319e-003
3.727726e+003, -2.672035e-003
3.729655e+003, -2.361953e-003
3.731583e+003, -1.331655e-003
3.733511e+003, -3.461661e-003
3.735440e+003, -3.261199e-003
3.737368e+003, -4.804113e-003
3.739297e+003, -6.522777e-003
3.741225e+003, -6.026196e-003
3.743154e+003, -5.126467e-003
3.745082e+003, -3.802203e-003
3.747011e+003, -7.736358e-003
3.748939e+003, -7.280786e-003
3.750868e+003, -8.975518e-004
3.752796e+003, 6.101033e-004
3.754725e+003, 6.072845e-004
3.756653e+003, -1.730059e-003
3.758582e+003, -1.373522e-003
3.760510e+003, -1.695675e-003
3.762438e+003, -1.213804e-003
3.764367e+003, -1.176805e-003
3.766295e+003, -4.632724e-003
3.768224e+003, -6.929672e-003
3.770152e+003, -2.516310e-003
3.772081e+003, -4.751537e-004
3.774009e+003, -1.953625e-003
3.775938e+003, -1.458969e-003
3.777866e+003, -1.421459e-003
3.779795e+003, -1.692097e-003
3.781723e+003, -5.400897e-003
3.783652e+003, -7.932551e-003
3.785580e+003, -5.185261e-003
3.787509e+003, -2.647731e-003
3.789437e+003, -3.578838e-003
3.791365e+003, -2.948543e-003
3.793294e+003, 2.451741e-005
3.795222e+003, 8.939423e-004
3.797151e+003, 4.037592e-004
3.799079e+003, -1.447233e-003
3.801008e+003, -3.822342e-003
3.802936e+003, -4.232806e-003
3.804865e+003, -4.081164e-003
3.806793e+003, -4.772867e-003
3.808722e+003, -4.208566e-003
3.810650e+003, -4.240693e-003
3.812579e+003, -3.565825e-003
3.814507e+003, -1.958123e-003
3.816436e+003, 2.604347e-005
3.818364e+003, -2.605570e-003
3.820292e+003, -4.717652e-003
3.822221e+003, -8.123551e-004
3.824149e+003, 2.672293e-004
3.826078e+003, -3.616188e-003
3.828006e+003, -4.702677e-003
3.829935e+003, -3.179010e-003
3.831863e+003, -3.302382e-003
3.833792e+003, -4.806312e-003
3.835720e+003, -5.102957e-003
3.837649e+003, -3.626016e-003
3.839577e+003, -1.338615e-003
3.841506e+003, -2.394318e-003
3.843434e+003, -5.172522e-003
3.845363e+003, -5.472451e-003
3.847291e+003, -3.960343e-003
3.849219e+003, -1.530949e-003
3.851148e+003, -1.402467e-004
3.853076e+003, -1.273131e-003
3.855005e+003, -3.769717e-003
3.856933e+003, -4.588335e-003
3.858862e+003, -3.919291e-003
3.860790e+003, -3.729024e-003
3.862719e+003, -6.208521e-003
3.864647e+003, -6.077282e-003
3.866576e+003, -5.028246e-003
3.868504e+003, -2.583347e-003
3.870433e+003, 8.059384e-005
3.872361e+003, 5.776638e-004
3.874290e+003, -4.168235e-004
3.876218e+003, -1.270675e-003
3.878146e+003, -3.493860e-004
3.880075e+003, -1.980258e-003
3.882003e+003, -3.324046e-003
3.883932e+003, -5.882599e-004
3.885860e+003, -3.128890e-003
3.887789e+003, -6.138568e-003
3.889717e+003, -4.322130e-003
3.891646e+003, -1.374182e-003
3.893574e+003, -2.006228e-003
3.895503e+003, -4.928754e-003
3.897431e+003, -5.267980e-003
3.899360e+003, -2.898213e-003
3.901288e+003, -5.018119e-003
3.903217e+003, -8.992403e-003
3.905145e+003, -7.902327e-003
3.907073e+003, -7.956971e-003
3.909002e+003, -7.558754e-003
3.910930e+003, -4.622350e-003
3.912859e+003, -4.616085e-003
3.914787e+003, -6.201241e-003
3.916716e+003, -5.589567e-003
3.918644e+003, -4.750749e-003
3.920573e+003, -4.903059e-003
3.922501e+003, -3.235574e-003
3.924430e+003, -2.907181e-003
3.926358e+003, -2.568285e-003
3.928287e+003, -5.167622e-003
3.930215e+003, -7.094439e-003
3.932144e+003, -8.055831e-003
3.934072e+003, -7.993058e-003
3.936000e+003, -6.342789e-003
3.937929e+003, -5.062300e-003
3.939857e+003, -5.734037e-003
3.941786e+003, -4.395117e-003
3.943714e+003, -2.697952e-003
3.945643e+003, -4.668354e-003
3.947571e+003, -4.470219e-003
3.949500e+003, -6.359502e-003
3.951428e+003, -8.816926e-003
3.953357e+003, -6.550549e-003
3.955285e+003, -6.646918e-003
3.957214e+003, -6.175546e-003
3.959142e+003, -8.176100e-003
3.961071e+003, -1.013857e-002
3.962999e+003, -8.168966e-003
3.964927e+003, -8.075481e-003
3.966856e+003, -6.642844e-003
3.968784e+003, -6.091553e-003
3.970713e+003, -5.131649e-003
3.972641e+003, -5.188688e-003
3.974570e+003, -7.142494e-003
3.976498e+003, -6.857493e-003
3.978427e+003, -4.075588e-003
3.980355e+003, -5.078937e-003
3.982284e+003, -6.948427e-003
3.984212e+003, -1.036767e-002
3.986141e+003, -1.161788e-002
3.988069e+003, -7.126822e-003
3.989998e+003, -8.948227e-003
3.991926e+003, -8.930655e-003
3.993854e+003, -5.126172e-003
3.995783e+003, -4.356696e-003
3.997711e+003, -8.049358e-003
3.999640e+003, -1.113237e-002
4.001568e+003, 0.000000e+000
##END=



