##NAMES=Hedenbergite
##RRUFFID=R070136
##IDEAL CHEMISTRY=CaFe^2+^Si_2_O_6_
##LOCALITY=Vesper Peak, Snohomish County, Washington, USA
##OWNER=RRUFF
##SOURCE=Mark Mauthner
##DESCRIPTION=Brownish green prismatic crystals with transparent sections
##STATUS=The identification of this mineral has been made only by X-ray diffraction.
##URL=rruff.info/R070136
3.741225e+002, 1.190446e-001
3.760510e+002, 1.103564e-001
3.779795e+002, 1.040183e-001
3.799079e+002, 1.045468e-001
3.818364e+002, 1.069127e-001
3.837649e+002, 1.157835e-001
3.856933e+002, 1.219707e-001
3.876218e+002, 1.276046e-001
3.895503e+002, 1.275079e-001
3.914787e+002, 1.219274e-001
3.934072e+002, 1.181223e-001
3.953357e+002, 1.168427e-001
3.972641e+002, 1.145748e-001
3.991926e+002, 1.191825e-001
4.011211e+002, 1.159592e-001
4.030495e+002, 1.098003e-001
4.049780e+002, 1.030320e-001
4.069065e+002, 9.984834e-002
4.088349e+002, 9.500799e-002
4.107634e+002, 9.120412e-002
4.126919e+002, 9.410679e-002
4.146203e+002, 9.445658e-002
4.165488e+002, 9.721191e-002
4.184773e+002, 1.055482e-001
4.204057e+002, 1.124080e-001
4.223342e+002, 1.204832e-001
4.242627e+002, 1.281180e-001
4.261911e+002, 1.357628e-001
4.281196e+002, 1.434967e-001
4.300481e+002, 1.491354e-001
4.319765e+002, 1.576632e-001
4.339050e+002, 1.667965e-001
4.358335e+002, 1.759643e-001
4.377619e+002, 1.855520e-001
4.396904e+002, 1.928098e-001
4.416189e+002, 1.988117e-001
4.435473e+002, 2.032507e-001
4.454758e+002, 2.055960e-001
4.474043e+002, 2.086079e-001
4.493327e+002, 2.110642e-001
4.512612e+002, 2.124551e-001
4.531897e+002, 2.125958e-001
4.551181e+002, 2.110396e-001
4.570466e+002, 2.121416e-001
4.589751e+002, 2.111965e-001
4.609035e+002, 2.081846e-001
4.628320e+002, 2.046720e-001
4.647605e+002, 1.989365e-001
4.666889e+002, 1.937986e-001
4.686174e+002, 1.853892e-001
4.705459e+002, 1.761860e-001
4.724743e+002, 1.684732e-001
4.744028e+002, 1.601146e-001
4.763313e+002, 1.557936e-001
4.782597e+002, 1.551928e-001
4.801882e+002, 1.574644e-001
4.821167e+002, 1.615113e-001
4.840451e+002, 1.641847e-001
4.859736e+002, 1.673316e-001
4.879021e+002, 1.696575e-001
4.898305e+002, 1.702390e-001
4.917590e+002, 1.694594e-001
4.936875e+002, 1.661444e-001
4.956159e+002, 1.626629e-001
4.975444e+002, 1.594455e-001
4.994729e+002, 1.580861e-001
5.014013e+002, 1.579270e-001
5.033298e+002, 1.577703e-001
5.052583e+002, 1.577021e-001
5.071867e+002, 1.556968e-001
5.091152e+002, 1.520223e-001
5.110437e+002, 1.478199e-001
5.129721e+002, 1.430374e-001
5.149006e+002, 1.385802e-001
5.168290e+002, 1.343458e-001
5.187575e+002, 1.299920e-001
5.206860e+002, 1.259435e-001
5.226144e+002, 1.215942e-001
5.245429e+002, 1.175280e-001
5.264714e+002, 1.133689e-001
5.283998e+002, 1.085264e-001
5.303283e+002, 1.040744e-001
5.322568e+002, 9.916582e-002
5.341852e+002, 9.502929e-002
5.361137e+002, 9.059254e-002
5.380422e+002, 8.540777e-002
5.399706e+002, 8.108303e-002
5.418991e+002, 7.687768e-002
5.438276e+002, 7.267439e-002
5.457560e+002, 6.824000e-002
5.476845e+002, 6.371403e-002
5.496130e+002, 5.930081e-002
5.515414e+002, 5.500146e-002
5.534699e+002, 5.130616e-002
5.553984e+002, 4.720404e-002
5.573268e+002, 4.392825e-002
5.592553e+002, 4.074355e-002
5.611838e+002, 3.772711e-002
5.631122e+002, 3.546083e-002
5.650407e+002, 3.391292e-002
5.669692e+002, 3.254339e-002
5.688976e+002, 3.135582e-002
5.708261e+002, 3.058194e-002
5.727546e+002, 2.981311e-002
5.746830e+002, 2.932447e-002
5.766115e+002, 2.920210e-002
5.785400e+002, 2.945202e-002
5.804684e+002, 2.958516e-002
5.823969e+002, 2.982536e-002
5.843254e+002, 3.050215e-002
5.862538e+002, 3.129161e-002
5.881823e+002, 3.168113e-002
5.901108e+002, 3.255982e-002
5.920392e+002, 3.405717e-002
5.939677e+002, 3.541332e-002
5.958962e+002, 3.699614e-002
5.978246e+002, 3.860932e-002
5.997531e+002, 4.058577e-002
6.016816e+002, 4.286689e-002
6.036100e+002, 4.559209e-002
6.055385e+002, 4.903641e-002
6.074670e+002, 5.255350e-002
6.093954e+002, 5.640224e-002
6.113239e+002, 6.107165e-002
6.132524e+002, 6.605159e-002
6.151808e+002, 7.139958e-002
6.171093e+002, 7.643776e-002
6.190378e+002, 8.052477e-002
6.209662e+002, 8.343716e-002
6.228947e+002, 8.493010e-002
6.248232e+002, 8.432041e-002
6.267516e+002, 8.168672e-002
6.286801e+002, 7.742735e-002
6.306086e+002, 7.158023e-002
6.325370e+002, 6.464098e-002
6.344655e+002, 5.770002e-002
6.363940e+002, 5.107456e-002
6.383224e+002, 4.513981e-002
6.402509e+002, 3.991605e-002
6.421794e+002, 3.589917e-002
6.441078e+002, 3.371823e-002
6.460363e+002, 3.222991e-002
6.479648e+002, 3.116972e-002
6.498932e+002, 3.115136e-002
6.518217e+002, 3.191542e-002
6.537502e+002, 3.337484e-002
6.556786e+002, 3.543544e-002
6.576071e+002, 3.832148e-002
6.595356e+002, 4.236839e-002
6.614641e+002, 4.739512e-002
6.633925e+002, 5.320592e-002
6.653210e+002, 5.851798e-002
6.672495e+002, 6.092480e-002
6.691779e+002, 5.847000e-002
6.711064e+002, 5.234051e-002
6.730349e+002, 4.541524e-002
6.749633e+002, 3.931443e-002
6.768918e+002, 3.461301e-002
6.788203e+002, 3.140263e-002
6.807487e+002, 2.943402e-002
6.826772e+002, 2.823818e-002
6.846057e+002, 2.723731e-002
6.865341e+002, 2.656388e-002
6.884626e+002, 2.616452e-002
6.903911e+002, 2.609040e-002
6.923195e+002, 2.624109e-002
6.942480e+002, 2.637535e-002
6.961765e+002, 2.642642e-002
6.981049e+002, 2.639533e-002
7.000334e+002, 2.654367e-002
7.019619e+002, 2.672863e-002
7.038903e+002, 2.692329e-002
7.058188e+002, 2.715808e-002
7.077473e+002, 2.748040e-002
7.096757e+002, 2.776480e-002
7.116042e+002, 2.835722e-002
7.135327e+002, 2.896095e-002
7.154611e+002, 2.935659e-002
7.173896e+002, 2.976725e-002
7.193181e+002, 3.042809e-002
7.212465e+002, 3.122663e-002
7.231750e+002, 3.204676e-002
7.251035e+002, 3.302992e-002
7.270319e+002, 3.384526e-002
7.289604e+002, 3.466451e-002
7.308889e+002, 3.555337e-002
7.328173e+002, 3.639547e-002
7.347458e+002, 3.723836e-002
7.366743e+002, 3.822990e-002
7.386027e+002, 3.941764e-002
7.405312e+002, 4.048123e-002
7.424597e+002, 4.134734e-002
7.443881e+002, 4.247087e-002
7.463166e+002, 4.376310e-002
7.482451e+002, 4.494945e-002
7.501735e+002, 4.632765e-002
7.521020e+002, 4.776143e-002
7.540305e+002, 4.915428e-002
7.559589e+002, 5.059858e-002
7.578874e+002, 5.216495e-002
7.598159e+002, 5.395209e-002
7.617443e+002, 5.570757e-002
7.636728e+002, 5.736210e-002
7.656013e+002, 5.908626e-002
7.675297e+002, 6.093542e-002
7.694582e+002, 6.286919e-002
7.713867e+002, 6.480072e-002
7.733151e+002, 6.669588e-002
7.752436e+002, 6.893150e-002
7.771721e+002, 7.138053e-002
7.791005e+002, 7.369484e-002
7.810290e+002, 7.594860e-002
7.829575e+002, 7.833936e-002
7.848859e+002, 8.078735e-002
7.868144e+002, 8.330893e-002
7.887429e+002, 8.601435e-002
7.906713e+002, 8.887621e-002
7.925998e+002, 9.182525e-002
7.945283e+002, 9.491871e-002
7.964567e+002, 9.822087e-002
7.983852e+002, 1.016422e-001
8.003137e+002, 1.049976e-001
8.022421e+002, 1.085035e-001
8.041706e+002, 1.122047e-001
8.060991e+002, 1.158865e-001
8.080275e+002, 1.196244e-001
8.099560e+002, 1.237611e-001
8.118845e+002, 1.280642e-001
8.138129e+002, 1.324427e-001
8.157414e+002, 1.366840e-001
8.176699e+002, 1.412725e-001
8.195983e+002, 1.464290e-001
8.215268e+002, 1.515596e-001
8.234553e+002, 1.568166e-001
8.253837e+002, 1.622789e-001
8.273122e+002, 1.679191e-001
8.292407e+002, 1.736598e-001
8.311691e+002, 1.797598e-001
8.330976e+002, 1.860899e-001
8.350261e+002, 1.923347e-001
8.369545e+002, 1.986032e-001
8.388830e+002, 2.049707e-001
8.408115e+002, 2.112211e-001
8.427399e+002, 2.169398e-001
8.446684e+002, 2.222430e-001
8.465969e+002, 2.268244e-001
8.485253e+002, 2.300825e-001
8.504538e+002, 2.318027e-001
8.523823e+002, 2.322268e-001
8.543107e+002, 2.318572e-001
8.562392e+002, 2.308783e-001
8.581677e+002, 2.293398e-001
8.600961e+002, 2.271292e-001
8.620246e+002, 2.246621e-001
8.639531e+002, 2.221729e-001
8.658815e+002, 2.190954e-001
8.678100e+002, 2.158843e-001
8.697385e+002, 2.126703e-001
8.716669e+002, 2.093862e-001
8.735954e+002, 2.063951e-001
8.755239e+002, 2.037189e-001
8.774523e+002, 2.013570e-001
8.793808e+002, 1.992219e-001
8.813093e+002, 1.971171e-001
8.832377e+002, 1.951679e-001
8.851662e+002, 1.934291e-001
8.870947e+002, 1.915951e-001
8.890231e+002, 1.896717e-001
8.909516e+002, 1.879076e-001
8.928801e+002, 1.862979e-001
8.948085e+002, 1.850706e-001
8.967370e+002, 1.840434e-001
8.986655e+002, 1.829325e-001
9.005939e+002, 1.819210e-001
9.025224e+002, 1.809391e-001
9.044509e+002, 1.799423e-001
9.063793e+002, 1.787798e-001
9.083078e+002, 1.771241e-001
9.102363e+002, 1.746962e-001
9.121647e+002, 1.714178e-001
9.140932e+002, 1.671177e-001
9.160217e+002, 1.619773e-001
9.179501e+002, 1.559435e-001
9.198786e+002, 1.489111e-001
9.218071e+002, 1.414974e-001
9.237355e+002, 1.344106e-001
9.256640e+002, 1.284844e-001
9.275925e+002, 1.240442e-001
9.295209e+002, 1.215240e-001
9.314494e+002, 1.212501e-001
9.333779e+002, 1.231021e-001
9.353063e+002, 1.269081e-001
9.372348e+002, 1.322710e-001
9.391633e+002, 1.384512e-001
9.410917e+002, 1.455324e-001
9.430202e+002, 1.530776e-001
9.449487e+002, 1.606348e-001
9.468771e+002, 1.680198e-001
9.488056e+002, 1.745374e-001
9.507341e+002, 1.795305e-001
9.526625e+002, 1.826364e-001
9.545910e+002, 1.837359e-001
9.565195e+002, 1.831322e-001
9.584479e+002, 1.806819e-001
9.603764e+002, 1.760992e-001
9.623049e+002, 1.699681e-001
9.642333e+002, 1.628869e-001
9.661618e+002, 1.550644e-001
9.680903e+002, 1.467464e-001
9.700187e+002, 1.384889e-001
9.719472e+002, 1.310645e-001
9.738757e+002, 1.244398e-001
9.758041e+002, 1.189790e-001
9.777326e+002, 1.149104e-001
9.796611e+002, 1.115370e-001
9.815895e+002, 1.083139e-001
9.835180e+002, 1.052868e-001
9.854465e+002, 1.021552e-001
9.873749e+002, 9.884059e-002
9.893034e+002, 9.531686e-002
9.912319e+002, 9.163750e-002
9.931603e+002, 8.811355e-002
9.950888e+002, 8.475735e-002
9.970173e+002, 8.141956e-002
9.989457e+002, 7.858930e-002
1.000874e+003, 7.624184e-002
1.002803e+003, 7.467400e-002
1.004731e+003, 7.416261e-002
1.006660e+003, 7.469787e-002
1.008588e+003, 7.606021e-002
1.010517e+003, 7.841258e-002
1.012445e+003, 8.169708e-002
1.014373e+003, 8.583923e-002
1.016302e+003, 9.065044e-002
1.018230e+003, 9.602153e-002
1.020159e+003, 1.018330e-001
1.022087e+003, 1.079211e-001
1.024016e+003, 1.141793e-001
1.025944e+003, 1.207455e-001
1.027873e+003, 1.276155e-001
1.029801e+003, 1.345404e-001
1.031730e+003, 1.415161e-001
1.033658e+003, 1.484925e-001
1.035587e+003, 1.555510e-001
1.037515e+003, 1.625665e-001
1.039443e+003, 1.690153e-001
1.041372e+003, 1.747758e-001
1.043300e+003, 1.796701e-001
1.045229e+003, 1.835205e-001
1.047157e+003, 1.862773e-001
1.049086e+003, 1.884290e-001
1.051014e+003, 1.898544e-001
1.052943e+003, 1.904568e-001
1.054871e+003, 1.903799e-001
1.056800e+003, 1.897011e-001
1.058728e+003, 1.880463e-001
1.060657e+003, 1.850494e-001
1.062585e+003, 1.808227e-001
1.064514e+003, 1.758898e-001
1.066442e+003, 1.703596e-001
1.068370e+003, 1.642699e-001
1.070299e+003, 1.576809e-001
1.072227e+003, 1.509981e-001
1.074156e+003, 1.444011e-001
1.076084e+003, 1.377920e-001
1.078013e+003, 1.311348e-001
1.079941e+003, 1.247268e-001
1.081870e+003, 1.184434e-001
1.083798e+003, 1.123310e-001
1.085727e+003, 1.066133e-001
1.087655e+003, 1.011162e-001
1.089584e+003, 9.583065e-002
1.091512e+003, 9.072170e-002
1.093441e+003, 8.566494e-002
1.095369e+003, 8.077340e-002
1.097297e+003, 7.609864e-002
1.099226e+003, 7.165765e-002
1.101154e+003, 6.720001e-002
1.103083e+003, 6.271070e-002
1.105011e+003, 5.836119e-002
1.106940e+003, 5.416772e-002
1.108868e+003, 4.991897e-002
1.110797e+003, 4.573272e-002
1.112725e+003, 4.191925e-002
1.114654e+003, 3.850546e-002
1.116582e+003, 3.519586e-002
1.118511e+003, 3.207527e-002
1.120439e+003, 2.927453e-002
1.122368e+003, 2.681413e-002
1.124296e+003, 2.422258e-002
1.126224e+003, 2.155626e-002
1.128153e+003, 1.913062e-002
1.130081e+003, 1.686812e-002
1.132010e+003, 1.479889e-002
1.133938e+003, 1.298041e-002
1.135867e+003, 1.146593e-002
1.137795e+003, 1.032861e-002
1.139724e+003, 9.470813e-003
1.141652e+003, 8.792455e-003
1.143581e+003, 8.131285e-003
1.145509e+003, 7.525710e-003
1.147438e+003, 7.063967e-003
1.149366e+003, 6.489035e-003
1.151295e+003, 6.021766e-003
1.153223e+003, 5.718696e-003
1.155151e+003, 5.298069e-003
1.157080e+003, 4.997701e-003
1.159008e+003, 4.803061e-003
1.160937e+003, 4.537575e-003
1.162865e+003, 4.158190e-003
1.164794e+003, 3.859596e-003
1.166722e+003, 3.721676e-003
1.168651e+003, 3.570648e-003
1.170579e+003, 3.448664e-003
1.172508e+003, 3.346942e-003
1.174436e+003, 3.208434e-003
1.176365e+003, 3.065686e-003
1.178293e+003, 2.864081e-003
1.180222e+003, 2.587482e-003
1.182150e+003, 2.446619e-003
1.184078e+003, 2.355172e-003
1.186007e+003, 2.173532e-003
1.187935e+003, 2.112081e-003
1.189864e+003, 2.116524e-003
1.191792e+003, 2.050846e-003
1.193721e+003, 1.865814e-003
1.195649e+003, 1.769595e-003
1.197578e+003, 1.846932e-003
1.199506e+003, 1.877738e-003
1.201435e+003, 1.789232e-003
1.203363e+003, 1.705165e-003
1.205292e+003, 1.528033e-003
1.207220e+003, 1.417722e-003
1.209149e+003, 1.398043e-003
1.211077e+003, 1.389283e-003
1.213005e+003, 1.270899e-003
1.214934e+003, 1.201055e-003
1.216862e+003, 1.205862e-003
1.218791e+003, 1.213394e-003
1.220719e+003, 1.096305e-003
1.222648e+003, 1.046478e-003
1.224576e+003, 1.164284e-003
1.226505e+003, 1.252379e-003
1.228433e+003, 1.267237e-003
1.230362e+003, 1.239228e-003
1.232290e+003, 1.191123e-003
1.234219e+003, 1.050541e-003
1.236147e+003, 9.294513e-004
1.238076e+003, 1.055673e-003
1.240004e+003, 1.025457e-003
1.241932e+003, 8.463823e-004
1.243861e+003, 8.798527e-004
1.245789e+003, 1.045535e-003
1.247718e+003, 1.024831e-003
1.249646e+003, 9.396800e-004
1.251575e+003, 9.445387e-004
1.253503e+003, 9.541510e-004
1.255432e+003, 8.714171e-004
1.257360e+003, 8.435518e-004
1.259289e+003, 9.479442e-004
1.261217e+003, 9.357540e-004
1.263146e+003, 9.096843e-004
1.265074e+003, 9.712449e-004
1.267003e+003, 1.000655e-003
1.268931e+003, 1.013008e-003
1.270859e+003, 9.950182e-004
1.272788e+003, 1.049176e-003
1.274716e+003, 1.054877e-003
1.276645e+003, 1.077119e-003
1.278573e+003, 1.064106e-003
1.280502e+003, 1.091899e-003
1.282430e+003, 1.232359e-003
1.284359e+003, 1.300372e-003
1.286287e+003, 1.350136e-003
1.288216e+003, 1.410227e-003
1.290144e+003, 1.517478e-003
1.292073e+003, 1.646267e-003
1.294001e+003, 1.669461e-003
1.295930e+003, 1.592851e-003
1.297858e+003, 1.428026e-003
1.299786e+003, 1.460426e-003
1.301715e+003, 1.565700e-003
1.303643e+003, 1.635257e-003
1.305572e+003, 1.655775e-003
1.307500e+003, 1.646243e-003
1.309429e+003, 1.631058e-003
1.311357e+003, 1.549559e-003
1.313286e+003, 1.637899e-003
1.315214e+003, 1.705787e-003
1.317143e+003, 1.592279e-003
1.319071e+003, 1.542997e-003
1.321000e+003, 1.507089e-003
1.322928e+003, 1.606480e-003
1.324857e+003, 1.716778e-003
1.326785e+003, 1.753769e-003
1.328714e+003, 1.705694e-003
1.330642e+003, 1.701643e-003
1.332570e+003, 1.693008e-003
1.334499e+003, 1.704208e-003
1.336427e+003, 1.752255e-003
1.338356e+003, 1.824631e-003
1.340284e+003, 1.947524e-003
1.342213e+003, 1.902247e-003
1.344141e+003, 1.915853e-003
1.346070e+003, 2.048488e-003
1.347998e+003, 2.080398e-003
1.349927e+003, 2.097042e-003
1.351855e+003, 2.029395e-003
1.353784e+003, 2.028171e-003
1.355712e+003, 2.111720e-003
1.357641e+003, 2.291602e-003
1.359569e+003, 2.434902e-003
1.361497e+003, 2.517110e-003
1.363426e+003, 2.629680e-003
1.365354e+003, 2.541775e-003
1.367283e+003, 2.460909e-003
1.369211e+003, 2.547091e-003
1.371140e+003, 2.653820e-003
1.373068e+003, 2.660822e-003
1.374997e+003, 2.650080e-003
1.376925e+003, 2.779898e-003
1.378854e+003, 2.838894e-003
1.380782e+003, 2.778261e-003
1.382711e+003, 2.862121e-003
1.384639e+003, 2.954508e-003
1.386568e+003, 2.962299e-003
1.388496e+003, 3.087494e-003
1.390424e+003, 3.135520e-003
1.392353e+003, 3.275506e-003
1.394281e+003, 3.521925e-003
1.396210e+003, 3.463503e-003
1.398138e+003, 3.490349e-003
1.400067e+003, 3.642550e-003
1.401995e+003, 3.739479e-003
1.403924e+003, 3.879642e-003
1.405852e+003, 3.801006e-003
1.407781e+003, 3.859760e-003
1.409709e+003, 4.009303e-003
1.411638e+003, 4.128380e-003
1.413566e+003, 4.149661e-003
1.415495e+003, 4.159794e-003
1.417423e+003, 4.216888e-003
1.419351e+003, 4.297005e-003
1.421280e+003, 4.372447e-003
1.423208e+003, 4.449845e-003
1.425137e+003, 4.485345e-003
1.427065e+003, 4.538978e-003
1.428994e+003, 4.558551e-003
1.430922e+003, 4.503987e-003
1.432851e+003, 4.637451e-003
1.434779e+003, 4.965228e-003
1.436708e+003, 5.166541e-003
1.438636e+003, 5.123719e-003
1.440565e+003, 5.024090e-003
1.442493e+003, 5.039767e-003
1.444422e+003, 4.997525e-003
1.446350e+003, 4.969072e-003
1.448278e+003, 4.947442e-003
1.450207e+003, 4.918810e-003
1.452135e+003, 4.978297e-003
1.454064e+003, 5.020398e-003
1.455992e+003, 5.168178e-003
1.457921e+003, 5.235062e-003
1.459849e+003, 5.127283e-003
1.461778e+003, 5.147867e-003
1.463706e+003, 5.137536e-003
1.465635e+003, 5.164859e-003
1.467563e+003, 5.191208e-003
1.469492e+003, 5.177015e-003
1.471420e+003, 5.230985e-003
1.473349e+003, 5.315894e-003
1.475277e+003, 5.348679e-003
1.477205e+003, 5.416317e-003
1.479134e+003, 5.384093e-003
1.481062e+003, 5.373937e-003
1.482991e+003, 5.477557e-003
1.484919e+003, 5.546252e-003
1.486848e+003, 5.630574e-003
1.488776e+003, 5.684899e-003
1.490705e+003, 5.595646e-003
1.492633e+003, 5.527461e-003
1.494562e+003, 5.650979e-003
1.496490e+003, 5.840206e-003
1.498419e+003, 5.845821e-003
1.500347e+003, 5.725951e-003
1.502276e+003, 5.705993e-003
1.504204e+003, 5.898110e-003
1.506132e+003, 5.921835e-003
1.508061e+003, 5.805988e-003
1.509989e+003, 5.749311e-003
1.511918e+003, 5.851567e-003
1.513846e+003, 5.857361e-003
1.515775e+003, 5.842831e-003
1.517703e+003, 5.944132e-003
1.519632e+003, 6.071599e-003
1.521560e+003, 6.112013e-003
1.523489e+003, 6.007636e-003
1.525417e+003, 6.068849e-003
1.527346e+003, 6.120446e-003
1.529274e+003, 6.161163e-003
1.531203e+003, 6.191055e-003
1.533131e+003, 6.211572e-003
1.535059e+003, 6.340138e-003
1.536988e+003, 6.479785e-003
1.538916e+003, 6.624474e-003
1.540845e+003, 6.680321e-003
1.542773e+003, 6.529263e-003
1.544702e+003, 6.438320e-003
1.546630e+003, 6.535868e-003
1.548559e+003, 6.654948e-003
1.550487e+003, 6.606275e-003
1.552416e+003, 6.548480e-003
1.554344e+003, 6.587771e-003
1.556273e+003, 6.714681e-003
1.558201e+003, 6.976630e-003
1.560130e+003, 7.005682e-003
1.562058e+003, 6.831816e-003
1.563986e+003, 6.734530e-003
1.565915e+003, 6.718371e-003
1.567843e+003, 6.763115e-003
1.569772e+003, 6.839630e-003
1.571700e+003, 6.839099e-003
1.573629e+003, 6.863500e-003
1.575557e+003, 6.953446e-003
1.577486e+003, 6.937888e-003
1.579414e+003, 6.902450e-003
1.581343e+003, 6.976465e-003
1.583271e+003, 6.938401e-003
1.585200e+003, 6.922405e-003
1.587128e+003, 6.906031e-003
1.589057e+003, 6.709335e-003
1.590985e+003, 6.671019e-003
1.592913e+003, 6.837727e-003
1.594842e+003, 6.930662e-003
1.596770e+003, 6.918962e-003
1.598699e+003, 6.801666e-003
1.600627e+003, 6.894560e-003
1.602556e+003, 6.969799e-003
1.604484e+003, 6.960854e-003
1.606413e+003, 6.954343e-003
1.608341e+003, 6.960552e-003
1.610270e+003, 6.999142e-003
1.612198e+003, 7.088582e-003
1.614127e+003, 7.169473e-003
1.616055e+003, 7.266062e-003
1.617984e+003, 7.122013e-003
1.619912e+003, 7.039757e-003
1.621840e+003, 7.231145e-003
1.623769e+003, 7.369247e-003
1.625697e+003, 7.261215e-003
1.627626e+003, 7.259591e-003
1.629554e+003, 7.354675e-003
1.631483e+003, 7.326690e-003
1.633411e+003, 7.341874e-003
1.635340e+003, 7.403666e-003
1.637268e+003, 7.364724e-003
1.639197e+003, 7.290555e-003
1.641125e+003, 7.120676e-003
1.643054e+003, 7.064664e-003
1.644982e+003, 7.130499e-003
1.646911e+003, 7.206341e-003
1.648839e+003, 7.081152e-003
1.650767e+003, 7.049957e-003
1.652696e+003, 7.100629e-003
1.654624e+003, 6.997032e-003
1.656553e+003, 6.910160e-003
1.658481e+003, 6.878888e-003
1.660410e+003, 6.813815e-003
1.662338e+003, 6.579921e-003
1.664267e+003, 6.425045e-003
1.666195e+003, 6.517456e-003
1.668124e+003, 6.501588e-003
1.670052e+003, 6.354928e-003
1.671981e+003, 6.177608e-003
1.673909e+003, 6.026416e-003
1.675838e+003, 5.959087e-003
1.677766e+003, 5.980426e-003
1.679694e+003, 5.910002e-003
1.681623e+003, 6.009319e-003
1.683551e+003, 6.196570e-003
1.685480e+003, 6.077486e-003
1.687408e+003, 5.997197e-003
1.689337e+003, 6.066661e-003
1.691265e+003, 6.010498e-003
1.693194e+003, 6.049504e-003
1.695122e+003, 6.286811e-003
1.697051e+003, 6.337259e-003
1.698979e+003, 6.350503e-003
1.700908e+003, 6.430556e-003
1.702836e+003, 6.170480e-003
1.704765e+003, 6.036990e-003
1.706693e+003, 6.017619e-003
1.708621e+003, 5.998808e-003
1.710550e+003, 6.043887e-003
1.712478e+003, 6.005880e-003
1.714407e+003, 5.808433e-003
1.716335e+003, 5.947513e-003
1.718264e+003, 6.027051e-003
1.720192e+003, 5.982763e-003
1.722121e+003, 5.959752e-003
1.724049e+003, 5.847499e-003
1.725978e+003, 5.755113e-003
1.727906e+003, 5.803514e-003
1.729835e+003, 5.733259e-003
1.731763e+003, 5.660412e-003
1.733692e+003, 5.684223e-003
1.735620e+003, 5.627466e-003
1.737548e+003, 5.463926e-003
1.739477e+003, 5.076051e-003
1.741405e+003, 4.871748e-003
1.743334e+003, 4.942404e-003
1.745262e+003, 4.760618e-003
1.747191e+003, 4.513063e-003
1.749119e+003, 4.508795e-003
1.751048e+003, 4.611270e-003
1.752976e+003, 4.661667e-003
1.754905e+003, 4.673554e-003
1.756833e+003, 4.712690e-003
1.758762e+003, 4.746626e-003
1.760690e+003, 4.784501e-003
1.762619e+003, 4.935287e-003
1.764547e+003, 5.080898e-003
1.766475e+003, 5.135858e-003
1.768404e+003, 5.151879e-003
1.770332e+003, 5.192193e-003
1.772261e+003, 5.269124e-003
1.774189e+003, 5.338284e-003
1.776118e+003, 5.276439e-003
1.778046e+003, 5.277456e-003
1.779975e+003, 5.145935e-003
1.781903e+003, 5.191664e-003
1.783832e+003, 5.437803e-003
1.785760e+003, 5.351424e-003
1.787689e+003, 5.242782e-003
1.789617e+003, 5.174568e-003
1.791546e+003, 5.232170e-003
1.793474e+003, 5.292160e-003
1.795402e+003, 5.126129e-003
1.797331e+003, 5.058121e-003
1.799259e+003, 5.243796e-003
1.801188e+003, 5.313613e-003
1.803116e+003, 5.169875e-003
1.805045e+003, 5.230711e-003
1.806973e+003, 5.271776e-003
1.808902e+003, 5.365902e-003
1.810830e+003, 5.387366e-003
1.812759e+003, 5.284472e-003
1.814687e+003, 5.129728e-003
1.816616e+003, 4.993885e-003
1.818544e+003, 5.093158e-003
1.820473e+003, 5.175761e-003
1.822401e+003, 5.236837e-003
1.824329e+003, 5.466308e-003
1.826258e+003, 5.499057e-003
1.828186e+003, 5.471224e-003
1.830115e+003, 5.484056e-003
1.832043e+003, 5.440672e-003
1.833972e+003, 5.428075e-003
1.835900e+003, 5.595651e-003
1.837829e+003, 5.467528e-003
1.839757e+003, 5.261766e-003
1.841686e+003, 5.323396e-003
1.843614e+003, 5.421195e-003
1.845543e+003, 5.503004e-003
1.847471e+003, 5.425715e-003
1.849400e+003, 5.316494e-003
1.851328e+003, 5.295404e-003
1.853256e+003, 5.324449e-003
1.855185e+003, 5.315419e-003
1.857113e+003, 5.474490e-003
1.859042e+003, 5.606431e-003
1.860970e+003, 5.595835e-003
1.862899e+003, 5.675829e-003
1.864827e+003, 5.650325e-003
1.866756e+003, 5.778675e-003
1.868684e+003, 5.495070e-003
1.870613e+003, 5.411244e-003
1.872541e+003, 5.558035e-003
1.874470e+003, 5.716777e-003
1.876398e+003, 5.706296e-003
1.878327e+003, 5.625572e-003
1.880255e+003, 5.565077e-003
1.882183e+003, 5.315599e-003
1.884112e+003, 4.949632e-003
1.886040e+003, 5.045040e-003
1.887969e+003, 5.409517e-003
1.889897e+003, 5.379135e-003
1.891826e+003, 5.208203e-003
1.893754e+003, 5.526606e-003
1.895683e+003, 5.422909e-003
1.897611e+003, 5.158482e-003
1.899540e+003, 4.635331e-003
1.901468e+003, 4.122050e-003
1.903397e+003, 4.354181e-003
1.905325e+003, 4.880204e-003
1.907254e+003, 4.833390e-003
1.909182e+003, 4.521797e-003
1.911110e+003, 4.620981e-003
1.913039e+003, 4.450301e-003
1.914967e+003, 4.375191e-003
1.916896e+003, 4.726910e-003
1.918824e+003, 4.983294e-003
1.920753e+003, 5.190014e-003
1.922681e+003, 5.067832e-003
1.924610e+003, 4.550763e-003
1.926538e+003, 4.116067e-003
1.928467e+003, 4.150386e-003
1.930395e+003, 4.804453e-003
1.932324e+003, 5.123312e-003
1.934252e+003, 4.843700e-003
1.936181e+003, 5.068663e-003
1.938109e+003, 5.066833e-003
1.940037e+003, 4.985023e-003
1.941966e+003, 5.158039e-003
1.943894e+003, 5.092614e-003
1.945823e+003, 4.905655e-003
1.947751e+003, 4.826420e-003
1.949680e+003, 4.956321e-003
1.951608e+003, 5.221619e-003
1.953537e+003, 5.363836e-003
1.955465e+003, 4.995695e-003
1.957394e+003, 4.644310e-003
1.959322e+003, 4.996294e-003
1.961251e+003, 5.805308e-003
1.963179e+003, 5.521999e-003
1.965108e+003, 4.511843e-003
1.967036e+003, 4.252530e-003
1.968964e+003, 4.538141e-003
1.970893e+003, 5.167678e-003
1.972821e+003, 4.955114e-003
1.974750e+003, 4.992705e-003
1.976678e+003, 5.829295e-003
1.978607e+003, 7.984490e-003
1.980535e+003, 8.752561e-003
1.982464e+003, 8.244053e-003
1.984392e+003, 7.246148e-003
1.986321e+003, 7.142376e-003
1.988249e+003, 7.180008e-003
1.990178e+003, 6.523037e-003
1.992106e+003, 6.406719e-003
1.994035e+003, 7.074235e-003
1.995963e+003, 7.535192e-003
1.997891e+003, 7.918664e-003
1.999820e+003, 7.582239e-003
2.001748e+003, 7.325270e-003
2.003677e+003, 6.755302e-003
2.005605e+003, 6.044414e-003
2.007534e+003, 6.546482e-003
2.009462e+003, 7.222690e-003
2.011391e+003, 7.877081e-003
2.013319e+003, 7.818235e-003
2.015248e+003, 7.472814e-003
2.017176e+003, 6.635939e-003
2.019105e+003, 6.016747e-003
2.021033e+003, 6.143537e-003
2.022962e+003, 6.469697e-003
2.024890e+003, 7.325139e-003
2.026818e+003, 7.153304e-003
2.028747e+003, 6.520227e-003
2.030675e+003, 6.461785e-003
2.032604e+003, 7.230720e-003
2.034532e+003, 8.204853e-003
2.036461e+003, 7.611035e-003
2.038389e+003, 7.418504e-003
2.040318e+003, 7.659526e-003
2.042246e+003, 8.026581e-003
2.044175e+003, 8.249906e-003
2.046103e+003, 8.074336e-003
2.048031e+003, 8.787970e-003
2.049960e+003, 8.599209e-003
2.051888e+003, 7.431692e-003
2.053817e+003, 7.119440e-003
2.055745e+003, 7.508405e-003
2.057674e+003, 7.584027e-003
2.059602e+003, 7.271445e-003
2.061531e+003, 6.692618e-003
2.063459e+003, 6.768895e-003
2.065388e+003, 6.772597e-003
2.067316e+003, 7.080541e-003
2.069245e+003, 7.199149e-003
2.071173e+003, 7.472773e-003
2.073102e+003, 7.114144e-003
2.075030e+003, 7.460123e-003
2.076958e+003, 7.571650e-003
2.078887e+003, 7.420796e-003
2.080815e+003, 8.094015e-003
2.082744e+003, 7.947237e-003
2.084672e+003, 7.125710e-003
2.086601e+003, 6.817171e-003
2.088529e+003, 6.857545e-003
2.090458e+003, 6.738117e-003
2.092386e+003, 6.302739e-003
2.094315e+003, 6.381370e-003
2.096243e+003, 6.692049e-003
2.098172e+003, 6.967470e-003
2.100100e+003, 6.823026e-003
2.102029e+003, 6.972814e-003
2.103957e+003, 7.813162e-003
2.105885e+003, 8.095570e-003
2.107814e+003, 7.281061e-003
2.109742e+003, 6.790904e-003
2.111671e+003, 7.221157e-003
2.113599e+003, 7.351440e-003
2.115528e+003, 7.126798e-003
2.117456e+003, 6.928025e-003
2.119385e+003, 6.715492e-003
2.121313e+003, 6.714492e-003
2.123242e+003, 6.219218e-003
2.125170e+003, 5.977450e-003
2.127099e+003, 5.396845e-003
2.129027e+003, 4.466536e-003
2.130956e+003, 4.482756e-003
2.132884e+003, 4.098023e-003
2.134813e+003, 4.153498e-003
2.136741e+003, 5.034376e-003
2.138669e+003, 5.308082e-003
2.140598e+003, 4.705503e-003
2.142526e+003, 4.277230e-003
2.144455e+003, 4.774278e-003
2.146383e+003, 5.464030e-003
2.148312e+003, 6.277663e-003
2.150240e+003, 5.923600e-003
2.152169e+003, 5.085086e-003
2.154097e+003, 4.523618e-003
2.156026e+003, 2.979129e-003
2.157954e+003, 4.076875e-003
2.159883e+003, 9.182449e-003
2.161811e+003, 1.092786e-002
2.163740e+003, 9.198818e-003
2.165668e+003, 8.916413e-003
2.167596e+003, 8.718817e-003
2.169525e+003, 8.454673e-003
2.171453e+003, 8.150537e-003
2.173382e+003, 8.254761e-003
2.175310e+003, 9.165026e-003
2.177239e+003, 1.023316e-002
2.179167e+003, 1.034879e-002
2.181096e+003, 1.013521e-002
2.183024e+003, 9.513810e-003
2.184953e+003, 9.352311e-003
2.186881e+003, 9.867523e-003
2.188810e+003, 9.726732e-003
2.190738e+003, 9.675861e-003
2.192667e+003, 9.834712e-003
2.194595e+003, 9.948367e-003
2.196523e+003, 1.023005e-002
2.198452e+003, 9.965966e-003
2.200380e+003, 1.027616e-002
2.202309e+003, 1.059453e-002
2.204237e+003, 1.011397e-002
2.206166e+003, 1.027661e-002
2.208094e+003, 1.086485e-002
2.210023e+003, 1.154315e-002
2.211951e+003, 1.173910e-002
2.213880e+003, 1.137886e-002
2.215808e+003, 1.065753e-002
2.217737e+003, 1.033153e-002
2.219665e+003, 1.084849e-002
2.221594e+003, 1.107355e-002
2.223522e+003, 1.095930e-002
2.225450e+003, 1.145632e-002
2.227379e+003, 1.184608e-002
2.229307e+003, 1.164351e-002
2.231236e+003, 1.129194e-002
2.233164e+003, 1.135512e-002
2.235093e+003, 1.149391e-002
2.237021e+003, 1.146620e-002
2.238950e+003, 1.152630e-002
2.240878e+003, 1.200264e-002
2.242807e+003, 1.226114e-002
2.244735e+003, 1.225092e-002
2.246664e+003, 1.164478e-002
2.248592e+003, 1.167428e-002
2.250521e+003, 1.203070e-002
2.252449e+003, 1.186530e-002
2.254377e+003, 1.158515e-002
2.256306e+003, 1.246387e-002
2.258234e+003, 1.292619e-002
2.260163e+003, 1.252445e-002
2.262091e+003, 1.228657e-002
2.264020e+003, 1.214705e-002
2.265948e+003, 1.204471e-002
2.267877e+003, 1.228610e-002
2.269805e+003, 1.280813e-002
2.271734e+003, 1.312971e-002
2.273662e+003, 1.325416e-002
2.275591e+003, 1.327143e-002
2.277519e+003, 1.328682e-002
2.279448e+003, 1.319218e-002
2.281376e+003, 1.314165e-002
2.283304e+003, 1.341350e-002
2.285233e+003, 1.354834e-002
2.287161e+003, 1.328441e-002
2.289090e+003, 1.297760e-002
2.291018e+003, 1.303734e-002
2.292947e+003, 1.254696e-002
2.294875e+003, 1.213999e-002
2.296804e+003, 1.223124e-002
2.298732e+003, 1.227603e-002
2.300661e+003, 1.257939e-002
2.302589e+003, 1.295866e-002
2.304518e+003, 1.274885e-002
2.306446e+003, 1.243742e-002
2.308375e+003, 1.241768e-002
2.310303e+003, 1.228341e-002
2.312231e+003, 1.237784e-002
2.314160e+003, 1.274784e-002
2.316088e+003, 1.287443e-002
2.318017e+003, 1.313392e-002
2.319945e+003, 1.354280e-002
2.321874e+003, 1.385294e-002
2.323802e+003, 1.373359e-002
2.325731e+003, 1.259468e-002
2.327659e+003, 1.170493e-002
2.329588e+003, 1.164860e-002
2.331516e+003, 1.148654e-002
2.333445e+003, 1.134221e-002
2.335373e+003, 1.153759e-002
2.337302e+003, 1.157159e-002
2.339230e+003, 1.130926e-002
2.341158e+003, 1.123157e-002
2.343087e+003, 1.151180e-002
2.345015e+003, 1.139899e-002
2.346944e+003, 1.136132e-002
2.348872e+003, 1.126974e-002
2.350801e+003, 1.126622e-002
2.352729e+003, 1.107689e-002
2.354658e+003, 1.098469e-002
2.356586e+003, 1.109809e-002
2.358515e+003, 1.102681e-002
2.360443e+003, 1.077581e-002
2.362372e+003, 1.074092e-002
2.364300e+003, 1.077407e-002
2.366229e+003, 1.071081e-002
2.368157e+003, 1.084199e-002
2.370085e+003, 1.069605e-002
2.372014e+003, 1.046538e-002
2.373942e+003, 1.049819e-002
2.375871e+003, 1.045122e-002
2.377799e+003, 1.042321e-002
2.379728e+003, 1.053611e-002
2.381656e+003, 1.034200e-002
2.383585e+003, 1.032551e-002
2.385513e+003, 1.075385e-002
2.387442e+003, 1.104553e-002
2.389370e+003, 1.079480e-002
2.391299e+003, 1.073739e-002
2.393227e+003, 1.079961e-002
2.395156e+003, 1.074615e-002
2.397084e+003, 1.064599e-002
2.399012e+003, 1.099757e-002
2.400941e+003, 1.111228e-002
2.402869e+003, 1.080762e-002
2.404798e+003, 1.058798e-002
2.406726e+003, 1.075628e-002
2.408655e+003, 1.091347e-002
2.410583e+003, 1.109471e-002
2.412512e+003, 1.101170e-002
2.414440e+003, 1.085655e-002
2.416369e+003, 1.089723e-002
2.418297e+003, 1.115457e-002
2.420226e+003, 1.107740e-002
2.422154e+003, 1.092103e-002
2.424083e+003, 1.110759e-002
2.426011e+003, 1.137546e-002
2.427939e+003, 1.159701e-002
2.429868e+003, 1.156617e-002
2.431796e+003, 1.147080e-002
2.433725e+003, 1.120830e-002
2.435653e+003, 1.140530e-002
2.437582e+003, 1.159285e-002
2.439510e+003, 1.159814e-002
2.441439e+003, 1.154861e-002
2.443367e+003, 1.169289e-002
2.445296e+003, 1.199275e-002
2.447224e+003, 1.215232e-002
2.449153e+003, 1.211399e-002
2.451081e+003, 1.210778e-002
2.453010e+003, 1.205931e-002
2.454938e+003, 1.200835e-002
2.456866e+003, 1.198464e-002
2.458795e+003, 1.189743e-002
2.460723e+003, 1.225345e-002
2.462652e+003, 1.227540e-002
2.464580e+003, 1.202190e-002
2.466509e+003, 1.186300e-002
2.468437e+003, 1.158050e-002
2.470366e+003, 1.162483e-002
2.472294e+003, 1.202436e-002
2.474223e+003, 1.179695e-002
2.476151e+003, 1.141308e-002
2.478080e+003, 1.163245e-002
2.480008e+003, 1.199727e-002
2.481937e+003, 1.197719e-002
2.483865e+003, 1.187861e-002
2.485793e+003, 1.188677e-002
2.487722e+003, 1.172578e-002
2.489650e+003, 1.157349e-002
2.491579e+003, 1.148369e-002
2.493507e+003, 1.121635e-002
2.495436e+003, 1.145239e-002
2.497364e+003, 1.188868e-002
2.499293e+003, 1.180873e-002
2.501221e+003, 1.162570e-002
2.503150e+003, 1.193871e-002
2.505078e+003, 1.206374e-002
2.507007e+003, 1.186370e-002
2.508935e+003, 1.187033e-002
2.510864e+003, 1.198067e-002
2.512792e+003, 1.173900e-002
2.514720e+003, 1.144465e-002
2.516649e+003, 1.139355e-002
2.518577e+003, 1.181506e-002
2.520506e+003, 1.237225e-002
2.522434e+003, 1.243068e-002
2.524363e+003, 1.229025e-002
2.526291e+003, 1.205633e-002
2.528220e+003, 1.184370e-002
2.530148e+003, 1.198081e-002
2.532077e+003, 1.222291e-002
2.534005e+003, 1.236054e-002
2.535934e+003, 1.252149e-002
2.537862e+003, 1.233639e-002
2.539791e+003, 1.209156e-002
2.541719e+003, 1.234917e-002
2.543647e+003, 1.268768e-002
2.545576e+003, 1.292550e-002
2.547504e+003, 1.291423e-002
2.549433e+003, 1.263069e-002
2.551361e+003, 1.236875e-002
2.553290e+003, 1.243314e-002
2.555218e+003, 1.281455e-002
2.557147e+003, 1.300134e-002
2.559075e+003, 1.282401e-002
2.561004e+003, 1.271689e-002
2.562932e+003, 1.255756e-002
2.564861e+003, 1.257126e-002
2.566789e+003, 1.293853e-002
2.568718e+003, 1.299840e-002
2.570646e+003, 1.286231e-002
2.572574e+003, 1.294883e-002
2.574503e+003, 1.291205e-002
2.576431e+003, 1.303196e-002
2.578360e+003, 1.314902e-002
2.580288e+003, 1.329669e-002
2.582217e+003, 1.340329e-002
2.584145e+003, 1.331196e-002
2.586074e+003, 1.332731e-002
2.588002e+003, 1.323490e-002
2.589931e+003, 1.335230e-002
2.591859e+003, 1.357617e-002
2.593788e+003, 1.364563e-002
2.595716e+003, 1.340130e-002
2.597645e+003, 1.333125e-002
2.599573e+003, 1.364140e-002
2.601501e+003, 1.403740e-002
2.603430e+003, 1.422866e-002
2.605358e+003, 1.419885e-002
2.607287e+003, 1.422715e-002
2.609215e+003, 1.413652e-002
2.611144e+003, 1.388888e-002
2.613072e+003, 1.410534e-002
2.615001e+003, 1.433249e-002
2.616929e+003, 1.427136e-002
2.618858e+003, 1.441241e-002
2.620786e+003, 1.453422e-002
2.622715e+003, 1.445712e-002
2.624643e+003, 1.415033e-002
2.626572e+003, 1.406455e-002
2.628500e+003, 1.432121e-002
2.630428e+003, 1.461252e-002
2.632357e+003, 1.428657e-002
2.634285e+003, 1.404840e-002
2.636214e+003, 1.435808e-002
2.638142e+003, 1.455718e-002
2.640071e+003, 1.440300e-002
2.641999e+003, 1.468910e-002
2.643928e+003, 1.485053e-002
2.645856e+003, 1.455302e-002
2.647785e+003, 1.426945e-002
2.649713e+003, 1.407101e-002
2.651642e+003, 1.391810e-002
2.653570e+003, 1.409575e-002
2.655499e+003, 1.420232e-002
2.657427e+003, 1.414030e-002
2.659355e+003, 1.415497e-002
2.661284e+003, 1.412752e-002
2.663212e+003, 1.392014e-002
2.665141e+003, 1.363938e-002
2.667069e+003, 1.351331e-002
2.668998e+003, 1.341316e-002
2.670926e+003, 1.334796e-002
2.672855e+003, 1.322032e-002
2.674783e+003, 1.322272e-002
2.676712e+003, 1.310924e-002
2.678640e+003, 1.314888e-002
2.680569e+003, 1.338495e-002
2.682497e+003, 1.336090e-002
2.684426e+003, 1.340672e-002
2.686354e+003, 1.338218e-002
2.688282e+003, 1.315760e-002
2.690211e+003, 1.339391e-002
2.692139e+003, 1.356011e-002
2.694068e+003, 1.342268e-002
2.695996e+003, 1.326590e-002
2.697925e+003, 1.301066e-002
2.699853e+003, 1.311109e-002
2.701782e+003, 1.333705e-002
2.703710e+003, 1.345100e-002
2.705639e+003, 1.323332e-002
2.707567e+003, 1.321395e-002
2.709496e+003, 1.342388e-002
2.711424e+003, 1.341540e-002
2.713353e+003, 1.342835e-002
2.715281e+003, 1.340764e-002
2.717209e+003, 1.336212e-002
2.719138e+003, 1.345201e-002
2.721066e+003, 1.359675e-002
2.722995e+003, 1.359775e-002
2.724923e+003, 1.331101e-002
2.726852e+003, 1.317109e-002
2.728780e+003, 1.318137e-002
2.730709e+003, 1.345827e-002
2.732637e+003, 1.354520e-002
2.734566e+003, 1.338189e-002
2.736494e+003, 1.335367e-002
2.738423e+003, 1.338883e-002
2.740351e+003, 1.354330e-002
2.742280e+003, 1.373127e-002
2.744208e+003, 1.366142e-002
2.746136e+003, 1.365790e-002
2.748065e+003, 1.374408e-002
2.749993e+003, 1.377653e-002
2.751922e+003, 1.372527e-002
2.753850e+003, 1.369340e-002
2.755779e+003, 1.365261e-002
2.757707e+003, 1.371239e-002
2.759636e+003, 1.359033e-002
2.761564e+003, 1.337298e-002
2.763493e+003, 1.332042e-002
2.765421e+003, 1.327474e-002
2.767350e+003, 1.346984e-002
2.769278e+003, 1.387054e-002
2.771207e+003, 1.378960e-002
2.773135e+003, 1.359004e-002
2.775063e+003, 1.374257e-002
2.776992e+003, 1.397582e-002
2.778920e+003, 1.408329e-002
2.780849e+003, 1.402291e-002
2.782777e+003, 1.409360e-002
2.784706e+003, 1.395426e-002
2.786634e+003, 1.375859e-002
2.788563e+003, 1.386694e-002
2.790491e+003, 1.390043e-002
2.792420e+003, 1.382184e-002
2.794348e+003, 1.365819e-002
2.796277e+003, 1.391712e-002
2.798205e+003, 1.421273e-002
2.800134e+003, 1.426745e-002
2.802062e+003, 1.395244e-002
2.803990e+003, 1.377105e-002
2.805919e+003, 1.390789e-002
2.807847e+003, 1.399626e-002
2.809776e+003, 1.419117e-002
2.811704e+003, 1.429709e-002
2.813633e+003, 1.415548e-002
2.815561e+003, 1.410021e-002
2.817490e+003, 1.399245e-002
2.819418e+003, 1.402929e-002
2.821347e+003, 1.417425e-002
2.823275e+003, 1.412504e-002
2.825204e+003, 1.398835e-002
2.827132e+003, 1.408710e-002
2.829061e+003, 1.413156e-002
2.830989e+003, 1.430768e-002
2.832917e+003, 1.458549e-002
2.834846e+003, 1.477360e-002
2.836774e+003, 1.453716e-002
2.838703e+003, 1.420671e-002
2.840631e+003, 1.435695e-002
2.842560e+003, 1.472355e-002
2.844488e+003, 1.495527e-002
2.846417e+003, 1.470956e-002
2.848345e+003, 1.457384e-002
2.850274e+003, 1.454735e-002
2.852202e+003, 1.414156e-002
2.854131e+003, 1.403926e-002
2.856059e+003, 1.405148e-002
2.857988e+003, 1.404588e-002
2.859916e+003, 1.423733e-002
2.861844e+003, 1.473624e-002
2.863773e+003, 1.461564e-002
2.865701e+003, 1.420336e-002
2.867630e+003, 1.429795e-002
2.869558e+003, 1.437821e-002
2.871487e+003, 1.438041e-002
2.873415e+003, 1.474142e-002
2.875344e+003, 1.479753e-002
2.877272e+003, 1.465905e-002
2.879201e+003, 1.462626e-002
2.881129e+003, 1.457285e-002
2.883058e+003, 1.450226e-002
2.884986e+003, 1.456094e-002
2.886915e+003, 1.467282e-002
2.888843e+003, 1.480441e-002
2.890771e+003, 1.488345e-002
2.892700e+003, 1.476871e-002
2.894628e+003, 1.463083e-002
2.896557e+003, 1.444947e-002
2.898485e+003, 1.467939e-002
2.900414e+003, 1.520423e-002
2.902342e+003, 1.535124e-002
2.904271e+003, 1.521452e-002
2.906199e+003, 1.538890e-002
2.908128e+003, 1.550481e-002
2.910056e+003, 1.559890e-002
2.911985e+003, 1.548123e-002
2.913913e+003, 1.510935e-002
2.915842e+003, 1.526587e-002
2.917770e+003, 1.522730e-002
2.919698e+003, 1.534120e-002
2.921627e+003, 1.526282e-002
2.923555e+003, 1.484646e-002
2.925484e+003, 1.477353e-002
2.927412e+003, 1.510013e-002
2.929341e+003, 1.504883e-002
2.931269e+003, 1.491798e-002
2.933198e+003, 1.457704e-002
2.935126e+003, 1.445792e-002
2.937055e+003, 1.454651e-002
2.938983e+003, 1.436063e-002
2.940912e+003, 1.416673e-002
2.942840e+003, 1.408152e-002
2.944769e+003, 1.434160e-002
2.946697e+003, 1.480955e-002
2.948625e+003, 1.513571e-002
2.950554e+003, 1.483339e-002
2.952482e+003, 1.472657e-002
2.954411e+003, 1.488855e-002
2.956339e+003, 1.478427e-002
2.958268e+003, 1.493537e-002
2.960196e+003, 1.522024e-002
2.962125e+003, 1.523300e-002
2.964053e+003, 1.485763e-002
2.965982e+003, 1.443629e-002
2.967910e+003, 1.424706e-002
2.969839e+003, 1.436303e-002
2.971767e+003, 1.453133e-002
2.973696e+003, 1.460688e-002
2.975624e+003, 1.452199e-002
2.977552e+003, 1.456158e-002
2.979481e+003, 1.445906e-002
2.981409e+003, 1.419180e-002
2.983338e+003, 1.407332e-002
2.985266e+003, 1.403648e-002
2.987195e+003, 1.395125e-002
2.989123e+003, 1.417547e-002
2.991052e+003, 1.453750e-002
2.992980e+003, 1.444675e-002
2.994909e+003, 1.418995e-002
2.996837e+003, 1.417033e-002
2.998766e+003, 1.398516e-002
3.000694e+003, 1.390436e-002
3.002623e+003, 1.414687e-002
3.004551e+003, 1.431352e-002
3.006479e+003, 1.400817e-002
3.008408e+003, 1.382750e-002
3.010336e+003, 1.408362e-002
3.012265e+003, 1.436281e-002
3.014193e+003, 1.456826e-002
3.016122e+003, 1.483961e-002
3.018050e+003, 1.492288e-002
3.019979e+003, 1.439386e-002
3.021907e+003, 1.385596e-002
3.023836e+003, 1.385495e-002
3.025764e+003, 1.390326e-002
3.027693e+003, 1.396297e-002
3.029621e+003, 1.427175e-002
3.031550e+003, 1.417417e-002
3.033478e+003, 1.431330e-002
3.035406e+003, 1.425974e-002
3.037335e+003, 1.401180e-002
3.039263e+003, 1.402259e-002
3.041192e+003, 1.421680e-002
3.043120e+003, 1.423832e-002
3.045049e+003, 1.433175e-002
3.046977e+003, 1.448479e-002
3.048906e+003, 1.458390e-002
3.050834e+003, 1.466421e-002
3.052763e+003, 1.445940e-002
3.054691e+003, 1.439114e-002
3.056620e+003, 1.480516e-002
3.058548e+003, 1.494440e-002
3.060477e+003, 1.461233e-002
3.062405e+003, 1.473641e-002
3.064333e+003, 1.468630e-002
3.066262e+003, 1.467938e-002
3.068190e+003, 1.457654e-002
3.070119e+003, 1.453661e-002
3.072047e+003, 1.507925e-002
3.073976e+003, 1.537548e-002
3.075904e+003, 1.550984e-002
3.077833e+003, 1.505286e-002
3.079761e+003, 1.476033e-002
3.081690e+003, 1.488639e-002
3.083618e+003, 1.466365e-002
3.085547e+003, 1.522876e-002
3.087475e+003, 1.526297e-002
3.089404e+003, 1.469382e-002
3.091332e+003, 1.481926e-002
3.093260e+003, 1.496309e-002
3.095189e+003, 1.479267e-002
3.097117e+003, 1.498052e-002
3.099046e+003, 1.547021e-002
3.100974e+003, 1.557937e-002
3.102903e+003, 1.525925e-002
3.104831e+003, 1.488306e-002
3.106760e+003, 1.477122e-002
3.108688e+003, 1.481242e-002
3.110617e+003, 1.523876e-002
3.112545e+003, 1.551686e-002
3.114474e+003, 1.559606e-002
3.116402e+003, 1.569561e-002
3.118331e+003, 1.532790e-002
3.120259e+003, 1.506342e-002
3.122188e+003, 1.526119e-002
3.124116e+003, 1.561441e-002
3.126044e+003, 1.568487e-002
3.127973e+003, 1.579926e-002
3.129901e+003, 1.571956e-002
3.131830e+003, 1.558887e-002
3.133758e+003, 1.560704e-002
3.135687e+003, 1.568922e-002
3.137615e+003, 1.546570e-002
3.139544e+003, 1.539889e-002
3.141472e+003, 1.556538e-002
3.143401e+003, 1.550126e-002
3.145329e+003, 1.550452e-002
3.147258e+003, 1.589899e-002
3.149186e+003, 1.617506e-002
3.151115e+003, 1.576778e-002
3.153043e+003, 1.548046e-002
3.154971e+003, 1.617176e-002
3.156900e+003, 1.642103e-002
3.158828e+003, 1.620669e-002
3.160757e+003, 1.569389e-002
3.162685e+003, 1.543009e-002
3.164614e+003, 1.577448e-002
3.166542e+003, 1.653671e-002
3.168471e+003, 1.685832e-002
3.170399e+003, 1.627188e-002
3.172328e+003, 1.613252e-002
3.174256e+003, 1.647422e-002
3.176185e+003, 1.662479e-002
3.178113e+003, 1.657910e-002
3.180042e+003, 1.654390e-002
3.181970e+003, 1.661397e-002
3.183898e+003, 1.693516e-002
3.185827e+003, 1.666800e-002
3.187755e+003, 1.604704e-002
3.189684e+003, 1.608045e-002
3.191612e+003, 1.620964e-002
3.193541e+003, 1.657476e-002
3.195469e+003, 1.657338e-002
3.197398e+003, 1.647881e-002
3.199326e+003, 1.701261e-002
3.201255e+003, 1.753509e-002
3.203183e+003, 1.718163e-002
3.205112e+003, 1.692436e-002
3.207040e+003, 1.706078e-002
3.208969e+003, 1.709307e-002
3.210897e+003, 1.683417e-002
3.212825e+003, 1.677109e-002
3.214754e+003, 1.640386e-002
3.216682e+003, 1.648526e-002
3.218611e+003, 1.700335e-002
3.220539e+003, 1.677351e-002
3.222468e+003, 1.648790e-002
3.224396e+003, 1.666929e-002
3.226325e+003, 1.695900e-002
3.228253e+003, 1.704217e-002
3.230182e+003, 1.697280e-002
3.232110e+003, 1.639943e-002
3.234039e+003, 1.681513e-002
3.235967e+003, 1.750151e-002
3.237896e+003, 1.753134e-002
3.239824e+003, 1.729156e-002
3.241752e+003, 1.713218e-002
3.243681e+003, 1.682178e-002
3.245609e+003, 1.667526e-002
3.247538e+003, 1.675960e-002
3.249466e+003, 1.687803e-002
3.251395e+003, 1.728906e-002
3.253323e+003, 1.743230e-002
3.255252e+003, 1.743921e-002
3.257180e+003, 1.738405e-002
3.259109e+003, 1.728248e-002
3.261037e+003, 1.702581e-002
3.262966e+003, 1.709876e-002
3.264894e+003, 1.710258e-002
3.266823e+003, 1.690998e-002
3.268751e+003, 1.676409e-002
3.270679e+003, 1.671363e-002
3.272608e+003, 1.673276e-002
3.274536e+003, 1.690046e-002
3.276465e+003, 1.693027e-002
3.278393e+003, 1.701032e-002
3.280322e+003, 1.712215e-002
3.282250e+003, 1.720569e-002
3.284179e+003, 1.710167e-002
3.286107e+003, 1.735334e-002
3.288036e+003, 1.746826e-002
3.289964e+003, 1.753088e-002
3.291893e+003, 1.762315e-002
3.293821e+003, 1.793236e-002
3.295750e+003, 1.757387e-002
3.297678e+003, 1.736888e-002
3.299606e+003, 1.750924e-002
3.301535e+003, 1.716258e-002
3.303463e+003, 1.662236e-002
3.305392e+003, 1.667512e-002
3.307320e+003, 1.715195e-002
3.309249e+003, 1.737342e-002
3.311177e+003, 1.724005e-002
3.313106e+003, 1.786266e-002
3.315034e+003, 1.830525e-002
3.316963e+003, 1.806566e-002
3.318891e+003, 1.798693e-002
3.320820e+003, 1.783114e-002
3.322748e+003, 1.752047e-002
3.324677e+003, 1.746515e-002
3.326605e+003, 1.762340e-002
3.328533e+003, 1.791338e-002
3.330462e+003, 1.810462e-002
3.332390e+003, 1.787995e-002
3.334319e+003, 1.733402e-002
3.336247e+003, 1.684369e-002
3.338176e+003, 1.719259e-002
3.340104e+003, 1.794673e-002
3.342033e+003, 1.783789e-002
3.343961e+003, 1.748409e-002
3.345890e+003, 1.744421e-002
3.347818e+003, 1.733546e-002
3.349747e+003, 1.723489e-002
3.351675e+003, 1.745864e-002
3.353604e+003, 1.778682e-002
3.355532e+003, 1.818050e-002
3.357460e+003, 1.836552e-002
3.359389e+003, 1.797751e-002
3.361317e+003, 1.771034e-002
3.363246e+003, 1.795283e-002
3.365174e+003, 1.807507e-002
3.367103e+003, 1.806042e-002
3.369031e+003, 1.762586e-002
3.370960e+003, 1.749994e-002
3.372888e+003, 1.764484e-002
3.374817e+003, 1.770888e-002
3.376745e+003, 1.791454e-002
3.378674e+003, 1.775680e-002
3.380602e+003, 1.741604e-002
3.382531e+003, 1.720888e-002
3.384459e+003, 1.704813e-002
3.386387e+003, 1.715554e-002
3.388316e+003, 1.754038e-002
3.390244e+003, 1.776280e-002
3.392173e+003, 1.777901e-002
3.394101e+003, 1.790825e-002
3.396030e+003, 1.775690e-002
3.397958e+003, 1.782153e-002
3.399887e+003, 1.734494e-002
3.401815e+003, 1.738645e-002
3.403744e+003, 1.746941e-002
3.405672e+003, 1.703346e-002
3.407601e+003, 1.726328e-002
3.409529e+003, 1.739257e-002
3.411458e+003, 1.731752e-002
3.413386e+003, 1.776307e-002
3.415314e+003, 1.830845e-002
3.417243e+003, 1.794945e-002
3.419171e+003, 1.726574e-002
3.421100e+003, 1.748073e-002
3.423028e+003, 1.763929e-002
3.424957e+003, 1.777057e-002
3.426885e+003, 1.772044e-002
3.428814e+003, 1.773659e-002
3.430742e+003, 1.786007e-002
3.432671e+003, 1.713057e-002
3.434599e+003, 1.642661e-002
3.436528e+003, 1.680747e-002
3.438456e+003, 1.707773e-002
3.440385e+003, 1.752076e-002
3.442313e+003, 1.720216e-002
3.444241e+003, 1.715703e-002
3.446170e+003, 1.769917e-002
3.448098e+003, 1.753828e-002
3.450027e+003, 1.697093e-002
3.451955e+003, 1.680327e-002
3.453884e+003, 1.728800e-002
3.455812e+003, 1.721643e-002
3.457741e+003, 1.695843e-002
3.459669e+003, 1.671074e-002
3.461598e+003, 1.656542e-002
3.463526e+003, 1.674588e-002
3.465455e+003, 1.675737e-002
3.467383e+003, 1.623829e-002
3.469312e+003, 1.631526e-002
3.471240e+003, 1.663557e-002
3.473168e+003, 1.647677e-002
3.475097e+003, 1.646143e-002
3.477025e+003, 1.701105e-002
3.478954e+003, 1.751865e-002
3.480882e+003, 1.758737e-002
3.482811e+003, 1.703434e-002
3.484739e+003, 1.659214e-002
3.486668e+003, 1.690488e-002
3.488596e+003, 1.689946e-002
3.490525e+003, 1.656438e-002
3.492453e+003, 1.639007e-002
3.494382e+003, 1.666034e-002
3.496310e+003, 1.683723e-002
3.498239e+003, 1.689723e-002
3.500167e+003, 1.665018e-002
3.502095e+003, 1.710388e-002
3.504024e+003, 1.740871e-002
3.505952e+003, 1.695913e-002
3.507881e+003, 1.629724e-002
3.509809e+003, 1.649554e-002
3.511738e+003, 1.720116e-002
3.513666e+003, 1.749082e-002
3.515595e+003, 1.714387e-002
3.517523e+003, 1.727206e-002
3.519452e+003, 1.741063e-002
3.521380e+003, 1.722485e-002
3.523309e+003, 1.725029e-002
3.525237e+003, 1.702335e-002
3.527166e+003, 1.680599e-002
3.529094e+003, 1.674787e-002
3.531022e+003, 1.709530e-002
3.532951e+003, 1.740529e-002
3.534879e+003, 1.686580e-002
3.536808e+003, 1.661373e-002
3.538736e+003, 1.737107e-002
3.540665e+003, 1.791024e-002
3.542593e+003, 1.725555e-002
3.544522e+003, 1.678624e-002
3.546450e+003, 1.740118e-002
3.548379e+003, 1.783137e-002
3.550307e+003, 1.714560e-002
3.552236e+003, 1.685511e-002
3.554164e+003, 1.700639e-002
3.556093e+003, 1.717117e-002
3.558021e+003, 1.722146e-002
3.559949e+003, 1.763789e-002
3.561878e+003, 1.734650e-002
3.563806e+003, 1.728337e-002
3.565735e+003, 1.798363e-002
3.567663e+003, 1.762707e-002
3.569592e+003, 1.729207e-002
3.571520e+003, 1.729456e-002
3.573449e+003, 1.689780e-002
3.575377e+003, 1.676784e-002
3.577306e+003, 1.657138e-002
3.579234e+003, 1.631732e-002
3.581163e+003, 1.598905e-002
3.583091e+003, 1.539584e-002
3.585020e+003, 1.575059e-002
3.586948e+003, 1.644854e-002
3.588876e+003, 1.605758e-002
3.590805e+003, 1.602134e-002
3.592733e+003, 1.631665e-002
3.594662e+003, 1.673620e-002
3.596590e+003, 1.634807e-002
3.598519e+003, 1.592023e-002
3.600447e+003, 1.566975e-002
3.602376e+003, 1.582605e-002
3.604304e+003, 1.613525e-002
3.606233e+003, 1.569349e-002
3.608161e+003, 1.543741e-002
3.610090e+003, 1.590558e-002
3.612018e+003, 1.642191e-002
3.613947e+003, 1.628205e-002
3.615875e+003, 1.513057e-002
3.617803e+003, 1.471759e-002
3.619732e+003, 1.523564e-002
3.621660e+003, 1.530152e-002
3.623589e+003, 1.536202e-002
3.625517e+003, 1.552046e-002
3.627446e+003, 1.501750e-002
3.629374e+003, 1.560357e-002
3.631303e+003, 1.596329e-002
3.633231e+003, 1.577912e-002
3.635160e+003, 1.592383e-002
3.637088e+003, 1.540281e-002
3.639017e+003, 1.458189e-002
3.640945e+003, 1.500311e-002
3.642874e+003, 1.508073e-002
3.644802e+003, 1.526376e-002
3.646730e+003, 1.590035e-002
3.648659e+003, 1.669777e-002
3.650587e+003, 1.629345e-002
3.652516e+003, 1.502982e-002
3.654444e+003, 1.434234e-002
3.656373e+003, 1.433227e-002
3.658301e+003, 1.444645e-002
3.660230e+003, 1.433606e-002
3.662158e+003, 1.398511e-002
3.664087e+003, 1.439323e-002
3.666015e+003, 1.379245e-002
3.667944e+003, 1.373702e-002
3.669872e+003, 1.473429e-002
3.671801e+003, 1.538358e-002
3.673729e+003, 1.484555e-002
3.675657e+003, 1.462578e-002
3.677586e+003, 1.498947e-002
3.679514e+003, 1.444889e-002
3.681443e+003, 1.423537e-002
3.683371e+003, 1.431249e-002
3.685300e+003, 1.407737e-002
3.687228e+003, 1.430682e-002
3.689157e+003, 1.409660e-002
3.691085e+003, 1.392048e-002
3.693014e+003, 1.404239e-002
3.694942e+003, 1.430956e-002
3.696871e+003, 1.442934e-002
3.698799e+003, 1.447603e-002
3.700728e+003, 1.428795e-002
3.702656e+003, 1.423421e-002
3.704584e+003, 1.496732e-002
3.706513e+003, 1.492945e-002
3.708441e+003, 1.417528e-002
3.710370e+003, 1.426956e-002
3.712298e+003, 1.437994e-002
3.714227e+003, 1.496610e-002
3.716155e+003, 1.488858e-002
3.718084e+003, 1.410334e-002
3.720012e+003, 1.410602e-002
3.721941e+003, 1.504061e-002
3.723869e+003, 1.557203e-002
3.725798e+003, 1.536555e-002
3.727726e+003, 1.479825e-002
3.729655e+003, 1.509223e-002
3.731583e+003, 1.592438e-002
3.733511e+003, 1.630964e-002
3.735440e+003, 1.597989e-002
3.737368e+003, 1.476907e-002
3.739297e+003, 1.413795e-002
3.741225e+003, 1.461677e-002
3.743154e+003, 1.520361e-002
3.745082e+003, 1.545174e-002
3.747011e+003, 1.538315e-002
3.748939e+003, 1.563352e-002
3.750868e+003, 1.577311e-002
3.752796e+003, 1.600753e-002
3.754725e+003, 1.560389e-002
3.756653e+003, 1.537005e-002
3.758582e+003, 1.513827e-002
3.760510e+003, 1.536126e-002
3.762438e+003, 1.571113e-002
3.764367e+003, 1.585083e-002
3.766295e+003, 1.586554e-002
3.768224e+003, 1.607847e-002
3.770152e+003, 1.559709e-002
3.772081e+003, 1.505330e-002
3.774009e+003, 1.533453e-002
3.775938e+003, 1.577021e-002
3.777866e+003, 1.553352e-002
3.779795e+003, 1.512597e-002
3.781723e+003, 1.531560e-002
3.783652e+003, 1.538710e-002
3.785580e+003, 1.526118e-002
3.787509e+003, 1.523442e-002
3.789437e+003, 1.545451e-002
3.791365e+003, 1.636376e-002
3.793294e+003, 1.636388e-002
3.795222e+003, 1.556558e-002
3.797151e+003, 1.529833e-002
3.799079e+003, 1.558315e-002
3.801008e+003, 1.569536e-002
3.802936e+003, 1.552517e-002
3.804865e+003, 1.508342e-002
3.806793e+003, 1.504693e-002
3.808722e+003, 1.467120e-002
3.810650e+003, 1.485512e-002
3.812579e+003, 1.517411e-002
3.814507e+003, 1.485852e-002
3.816436e+003, 1.479796e-002
3.818364e+003, 1.481546e-002
3.820292e+003, 1.510565e-002
3.822221e+003, 1.531233e-002
3.824149e+003, 1.504428e-002
3.826078e+003, 1.483319e-002
3.828006e+003, 1.480808e-002
3.829935e+003, 1.534780e-002
3.831863e+003, 1.573775e-002
3.833792e+003, 1.504083e-002
3.835720e+003, 1.483995e-002
3.837649e+003, 1.494856e-002
3.839577e+003, 1.489297e-002
3.841506e+003, 1.539181e-002
3.843434e+003, 1.633104e-002
3.845363e+003, 1.649678e-002
3.847291e+003, 1.605304e-002
3.849219e+003, 1.589260e-002
3.851148e+003, 1.558826e-002
3.853076e+003, 1.592102e-002
3.855005e+003, 1.599906e-002
3.856933e+003, 1.492872e-002
3.858862e+003, 1.478712e-002
3.860790e+003, 1.528274e-002
3.862719e+003, 1.541611e-002
3.864647e+003, 1.560248e-002
3.866576e+003, 1.545270e-002
3.868504e+003, 1.599728e-002
3.870433e+003, 1.583560e-002
3.872361e+003, 1.451673e-002
3.874290e+003, 1.428838e-002
3.876218e+003, 1.488024e-002
3.878146e+003, 1.442611e-002
3.880075e+003, 1.415070e-002
3.882003e+003, 1.425482e-002
3.883932e+003, 1.425587e-002
3.885860e+003, 1.417018e-002
3.887789e+003, 1.428549e-002
3.889717e+003, 1.424443e-002
3.891646e+003, 1.475318e-002
3.893574e+003, 1.460687e-002
3.895503e+003, 1.427557e-002
3.897431e+003, 1.476919e-002
3.899360e+003, 1.526865e-002
3.901288e+003, 1.526845e-002
3.903217e+003, 1.483281e-002
3.905145e+003, 1.466517e-002
3.907073e+003, 1.547693e-002
3.909002e+003, 1.530204e-002
3.910930e+003, 1.539309e-002
3.912859e+003, 1.568716e-002
3.914787e+003, 1.540030e-002
3.916716e+003, 1.561030e-002
3.918644e+003, 1.557364e-002
3.920573e+003, 1.488329e-002
3.922501e+003, 1.388916e-002
3.924430e+003, 1.404735e-002
3.926358e+003, 1.468591e-002
3.928287e+003, 1.443590e-002
3.930215e+003, 1.427194e-002
3.932144e+003, 1.433853e-002
3.934072e+003, 1.408644e-002
3.936000e+003, 1.463316e-002
3.937929e+003, 1.533501e-002
3.939857e+003, 1.521575e-002
3.941786e+003, 1.498636e-002
3.943714e+003, 1.442111e-002
3.945643e+003, 1.386839e-002
3.947571e+003, 1.424213e-002
3.949500e+003, 1.477429e-002
3.951428e+003, 1.434268e-002
3.953357e+003, 1.420829e-002
3.955285e+003, 1.476062e-002
3.957214e+003, 1.502818e-002
3.959142e+003, 1.454495e-002
3.961071e+003, 1.431494e-002
3.962999e+003, 1.472521e-002
3.964927e+003, 1.456777e-002
3.966856e+003, 1.372201e-002
3.968784e+003, 1.404626e-002
3.970713e+003, 1.466489e-002
3.972641e+003, 1.521807e-002
3.974570e+003, 1.545740e-002
3.976498e+003, 1.519752e-002
3.978427e+003, 1.452873e-002
3.980355e+003, 1.395274e-002
3.982284e+003, 1.369503e-002
3.984212e+003, 1.315667e-002
3.986141e+003, 1.403786e-002
3.988069e+003, 1.506536e-002
3.989998e+003, 1.517781e-002
3.991926e+003, 1.435454e-002
3.993854e+003, 1.408524e-002
3.995783e+003, 1.496956e-002
3.997711e+003, 1.585570e-002
3.999640e+003, 1.554677e-002
##END=



