##NAMES=Helvine
##RRUFFID=R060059
##IDEAL CHEMISTRY=Mn^2+^_4_(BeSiO_4_)_3_S^2-^
##LOCALITY=Schwarzenberg, Saxony, Germany
##OWNER=RRUFF
##SOURCE=University of Arizona Mineral Museum
##DESCRIPTION=Yellow-tan colored tetrahedra
##STATUS=The identification of this mineral has been confirmed by X-ray diffraction and chemical analysis
##URL=rruff.info/R060059
##MEASURED CHEMISTRY=(Mn^2+^_2.93_Fe^2+^_0.48_Zn_0.35_Ca_0.15_Fe^3+^_0.09_)_Σ=4_Be_3.00_((Si_0.97_Al_0.03_)_Σ=1_O_4_)_3_S_1.00_; BeO assumed by stoichiometry
3.991926e+002, 1.097127e-001
4.011211e+002, 1.191400e-001
4.030495e+002, 1.279098e-001
4.049780e+002, 1.335399e-001
4.069065e+002, 1.376440e-001
4.088349e+002, 1.464019e-001
4.107634e+002, 1.594430e-001
4.126919e+002, 1.680646e-001
4.146203e+002, 1.780904e-001
4.165488e+002, 1.955016e-001
4.184773e+002, 2.089465e-001
4.204057e+002, 1.849406e-001
4.223342e+002, 1.334502e-001
4.242627e+002, 1.055422e-001
4.261911e+002, 1.047154e-001
4.281196e+002, 1.129142e-001
4.300481e+002, 1.219736e-001
4.319765e+002, 1.296745e-001
4.339050e+002, 1.356840e-001
4.358335e+002, 1.425331e-001
4.377619e+002, 1.498550e-001
4.396904e+002, 1.546170e-001
4.416189e+002, 1.585868e-001
4.435473e+002, 1.627276e-001
4.454758e+002, 1.666654e-001
4.474043e+002, 1.697996e-001
4.493327e+002, 1.730424e-001
4.512612e+002, 1.764581e-001
4.531897e+002, 1.788719e-001
4.551181e+002, 1.810301e-001
4.570466e+002, 1.831362e-001
4.589751e+002, 1.846731e-001
4.609035e+002, 1.870170e-001
4.628320e+002, 1.905515e-001
4.647605e+002, 1.931814e-001
4.666889e+002, 1.957515e-001
4.686174e+002, 1.978223e-001
4.705459e+002, 2.000458e-001
4.724743e+002, 2.037707e-001
4.744028e+002, 2.069201e-001
4.763313e+002, 2.098761e-001
4.782597e+002, 2.128772e-001
4.801882e+002, 2.156623e-001
4.821167e+002, 2.194703e-001
4.840451e+002, 2.233098e-001
4.859736e+002, 2.273427e-001
4.879021e+002, 2.315025e-001
4.898305e+002, 2.359701e-001
4.917590e+002, 2.401316e-001
4.936875e+002, 2.448148e-001
4.956159e+002, 2.492632e-001
4.975444e+002, 2.536332e-001
4.994729e+002, 2.583891e-001
5.014013e+002, 2.637427e-001
5.033298e+002, 2.693077e-001
5.052583e+002, 2.746387e-001
5.071867e+002, 2.799109e-001
5.091152e+002, 2.856752e-001
5.110437e+002, 2.897221e-001
5.129721e+002, 2.922825e-001
5.149006e+002, 2.934479e-001
5.168290e+002, 2.929909e-001
5.187575e+002, 2.914681e-001
5.206860e+002, 2.893754e-001
5.226144e+002, 2.884642e-001
5.245429e+002, 2.901377e-001
5.264714e+002, 2.906324e-001
5.283998e+002, 2.861415e-001
5.303283e+002, 2.763233e-001
5.322568e+002, 2.616814e-001
5.341852e+002, 2.432438e-001
5.361137e+002, 2.236799e-001
5.380422e+002, 2.046503e-001
5.399706e+002, 1.870007e-001
5.418991e+002, 1.702637e-001
5.438276e+002, 1.539603e-001
5.457560e+002, 1.381317e-001
5.476845e+002, 1.233406e-001
5.496130e+002, 1.091800e-001
5.515414e+002, 9.546170e-002
5.534699e+002, 8.272523e-002
5.553984e+002, 7.122286e-002
5.573268e+002, 6.167642e-002
5.592553e+002, 5.390140e-002
5.611838e+002, 4.799009e-002
5.631122e+002, 4.414753e-002
5.650407e+002, 4.123928e-002
5.669692e+002, 3.843449e-002
5.688976e+002, 3.625837e-002
5.708261e+002, 3.506938e-002
5.727546e+002, 3.435889e-002
5.746830e+002, 3.403100e-002
5.766115e+002, 3.392547e-002
5.785400e+002, 3.404646e-002
5.804684e+002, 3.453542e-002
5.823969e+002, 3.494751e-002
5.843254e+002, 3.571991e-002
5.862538e+002, 3.636745e-002
5.881823e+002, 3.752660e-002
5.901108e+002, 3.884595e-002
5.920392e+002, 4.016244e-002
5.939677e+002, 4.165990e-002
5.958962e+002, 4.342955e-002
5.978246e+002, 4.540657e-002
5.997531e+002, 4.750609e-002
6.016816e+002, 4.944510e-002
6.036100e+002, 5.144356e-002
6.055385e+002, 5.378845e-002
6.074670e+002, 5.640547e-002
6.093954e+002, 5.928551e-002
6.113239e+002, 6.227763e-002
6.132524e+002, 6.520163e-002
6.151808e+002, 6.827667e-002
6.171093e+002, 7.163341e-002
6.190378e+002, 7.526982e-002
6.209662e+002, 7.936588e-002
6.228947e+002, 8.344018e-002
6.248232e+002, 8.753773e-002
6.267516e+002, 9.181494e-002
6.286801e+002, 9.634117e-002
6.306086e+002, 1.012870e-001
6.325370e+002, 1.063748e-001
6.344655e+002, 1.118059e-001
6.363940e+002, 1.169986e-001
6.383224e+002, 1.219984e-001
6.402509e+002, 1.272784e-001
6.421794e+002, 1.327534e-001
6.441078e+002, 1.379298e-001
6.460363e+002, 1.433055e-001
6.479648e+002, 1.488524e-001
6.498932e+002, 1.545091e-001
6.518217e+002, 1.603035e-001
6.537502e+002, 1.665229e-001
6.556786e+002, 1.728976e-001
6.576071e+002, 1.795303e-001
6.595356e+002, 1.862513e-001
6.614641e+002, 1.929889e-001
6.633925e+002, 1.997992e-001
6.653210e+002, 2.064646e-001
6.672495e+002, 2.127278e-001
6.691779e+002, 2.193045e-001
6.711064e+002, 2.256276e-001
6.730349e+002, 2.314711e-001
6.749633e+002, 2.372894e-001
6.768918e+002, 2.434948e-001
6.788203e+002, 2.498968e-001
6.807487e+002, 2.558478e-001
6.826772e+002, 2.613019e-001
6.846057e+002, 2.667069e-001
6.865341e+002, 2.721199e-001
6.884626e+002, 2.777338e-001
6.903911e+002, 2.829283e-001
6.923195e+002, 2.877702e-001
6.942480e+002, 2.920071e-001
6.961765e+002, 2.951335e-001
6.981049e+002, 2.963080e-001
7.000334e+002, 2.950626e-001
7.019619e+002, 2.912003e-001
7.038903e+002, 2.847840e-001
7.058188e+002, 2.763024e-001
7.077473e+002, 2.662199e-001
7.096757e+002, 2.543406e-001
7.116042e+002, 2.405423e-001
7.135327e+002, 2.252978e-001
7.154611e+002, 2.093894e-001
7.173896e+002, 1.936519e-001
7.193181e+002, 1.792572e-001
7.212465e+002, 1.671357e-001
7.231750e+002, 1.586085e-001
7.251035e+002, 1.545933e-001
7.270319e+002, 1.545634e-001
7.289604e+002, 1.578250e-001
7.308889e+002, 1.637655e-001
7.328173e+002, 1.711153e-001
7.347458e+002, 1.792547e-001
7.366743e+002, 1.869893e-001
7.386027e+002, 1.927210e-001
7.405312e+002, 1.944671e-001
7.424597e+002, 1.903960e-001
7.443881e+002, 1.807496e-001
7.463166e+002, 1.682038e-001
7.482451e+002, 1.559809e-001
7.501735e+002, 1.470119e-001
7.521020e+002, 1.431520e-001
7.540305e+002, 1.450945e-001
7.559589e+002, 1.521988e-001
7.578874e+002, 1.633856e-001
7.598159e+002, 1.772326e-001
7.617443e+002, 1.915541e-001
7.636728e+002, 2.037910e-001
7.656013e+002, 2.110792e-001
7.675297e+002, 2.116722e-001
7.694582e+002, 2.053784e-001
7.713867e+002, 1.932413e-001
7.733151e+002, 1.774151e-001
7.752436e+002, 1.598751e-001
7.771721e+002, 1.419170e-001
7.791005e+002, 1.246592e-001
7.810290e+002, 1.091483e-001
7.829575e+002, 9.587932e-002
7.848859e+002, 8.502057e-002
7.868144e+002, 7.654893e-002
7.887429e+002, 6.997851e-002
7.906713e+002, 6.488759e-002
7.925998e+002, 6.072315e-002
7.945283e+002, 5.711315e-002
7.964567e+002, 5.409535e-002
7.983852e+002, 5.173967e-002
8.003137e+002, 4.990551e-002
8.022421e+002, 4.837339e-002
8.041706e+002, 4.716956e-002
8.060991e+002, 4.625173e-002
8.080275e+002, 4.571988e-002
8.099560e+002, 4.565802e-002
8.118845e+002, 4.608404e-002
8.138129e+002, 4.683232e-002
8.157414e+002, 4.785519e-002
8.176699e+002, 4.911140e-002
8.195983e+002, 5.054558e-002
8.215268e+002, 5.219702e-002
8.234553e+002, 5.440285e-002
8.253837e+002, 5.685503e-002
8.273122e+002, 5.934253e-002
8.292407e+002, 6.215773e-002
8.311691e+002, 6.530375e-002
8.330976e+002, 6.893873e-002
8.350261e+002, 7.315387e-002
8.369545e+002, 7.784659e-002
8.388830e+002, 8.288924e-002
8.408115e+002, 8.835327e-002
8.427399e+002, 9.439080e-002
8.446684e+002, 1.011297e-001
8.465969e+002, 1.085123e-001
8.485253e+002, 1.163324e-001
8.504538e+002, 1.248497e-001
8.523823e+002, 1.341043e-001
8.543107e+002, 1.437915e-001
8.562392e+002, 1.539194e-001
8.581677e+002, 1.647299e-001
8.600961e+002, 1.758043e-001
8.620246e+002, 1.873602e-001
8.639531e+002, 1.993649e-001
8.658815e+002, 2.116507e-001
8.678100e+002, 2.241039e-001
8.697385e+002, 2.368922e-001
8.716669e+002, 2.496947e-001
8.735954e+002, 2.619721e-001
8.755239e+002, 2.736911e-001
8.774523e+002, 2.845120e-001
8.793808e+002, 2.942889e-001
8.813093e+002, 3.035828e-001
8.832377e+002, 3.123788e-001
8.851662e+002, 3.208865e-001
8.870947e+002, 3.296795e-001
8.890231e+002, 3.384657e-001
8.909516e+002, 3.465138e-001
8.928801e+002, 3.538134e-001
8.948085e+002, 3.597400e-001
8.967370e+002, 3.642705e-001
8.986655e+002, 3.675325e-001
9.005939e+002, 3.691122e-001
9.025224e+002, 3.686225e-001
9.044509e+002, 3.661782e-001
9.063793e+002, 3.617673e-001
9.083078e+002, 3.558738e-001
9.102363e+002, 3.488131e-001
9.121647e+002, 3.412426e-001
9.140932e+002, 3.336218e-001
9.160217e+002, 3.269938e-001
9.179501e+002, 3.229527e-001
9.198786e+002, 3.206726e-001
9.218071e+002, 3.167990e-001
9.237355e+002, 3.093386e-001
9.256640e+002, 2.985619e-001
9.275925e+002, 2.859758e-001
9.295209e+002, 2.724726e-001
9.314494e+002, 2.598955e-001
9.333779e+002, 2.500097e-001
9.353063e+002, 2.447513e-001
9.372348e+002, 2.470185e-001
9.391633e+002, 2.582205e-001
9.410917e+002, 2.745899e-001
9.430202e+002, 2.888193e-001
9.449487e+002, 2.943387e-001
9.468771e+002, 2.900276e-001
9.488056e+002, 2.792562e-001
9.507341e+002, 2.658011e-001
9.526625e+002, 2.521519e-001
9.545910e+002, 2.397193e-001
9.565195e+002, 2.283243e-001
9.584479e+002, 2.177317e-001
9.603764e+002, 2.081307e-001
9.623049e+002, 1.991572e-001
9.642333e+002, 1.906487e-001
9.661618e+002, 1.826620e-001
9.680903e+002, 1.748617e-001
9.700187e+002, 1.675889e-001
9.719472e+002, 1.609315e-001
9.738757e+002, 1.546644e-001
9.758041e+002, 1.487694e-001
9.777326e+002, 1.432554e-001
9.796611e+002, 1.378568e-001
9.815895e+002, 1.327005e-001
9.835180e+002, 1.276641e-001
9.854465e+002, 1.226605e-001
9.873749e+002, 1.177355e-001
9.893034e+002, 1.128736e-001
9.912319e+002, 1.079237e-001
9.931603e+002, 1.030048e-001
9.950888e+002, 9.810638e-002
9.970173e+002, 9.317874e-002
9.989457e+002, 8.833224e-002
1.000874e+003, 8.371171e-002
1.002803e+003, 7.908440e-002
1.004731e+003, 7.470284e-002
1.006660e+003, 7.055116e-002
1.008588e+003, 6.651983e-002
1.010517e+003, 6.269573e-002
1.012445e+003, 5.921410e-002
1.014373e+003, 5.603234e-002
1.016302e+003, 5.311893e-002
1.018230e+003, 5.050357e-002
1.020159e+003, 4.814332e-002
1.022087e+003, 4.593118e-002
1.024016e+003, 4.384224e-002
1.025944e+003, 4.197519e-002
1.027873e+003, 4.043549e-002
1.029801e+003, 3.905619e-002
1.031730e+003, 3.788332e-002
1.033658e+003, 3.684613e-002
1.035587e+003, 3.589996e-002
1.037515e+003, 3.517681e-002
1.039443e+003, 3.463382e-002
1.041372e+003, 3.396438e-002
1.043300e+003, 3.312138e-002
1.045229e+003, 3.203680e-002
1.047157e+003, 3.074789e-002
1.049086e+003, 2.936172e-002
1.051014e+003, 2.801045e-002
1.052943e+003, 2.676976e-002
1.054871e+003, 2.560300e-002
1.056800e+003, 2.441826e-002
1.058728e+003, 2.336454e-002
1.060657e+003, 2.264588e-002
1.062585e+003, 2.186878e-002
1.064514e+003, 2.103844e-002
1.066442e+003, 2.030142e-002
1.068370e+003, 1.967678e-002
1.070299e+003, 1.914131e-002
1.072227e+003, 1.854680e-002
1.074156e+003, 1.791699e-002
1.076084e+003, 1.735057e-002
1.078013e+003, 1.683620e-002
1.079941e+003, 1.628532e-002
1.081870e+003, 1.583963e-002
1.083798e+003, 1.542935e-002
1.085727e+003, 1.489734e-002
1.087655e+003, 1.447544e-002
1.089584e+003, 1.430233e-002
1.091512e+003, 1.386903e-002
1.093441e+003, 1.331230e-002
1.095369e+003, 1.296464e-002
1.097297e+003, 1.269392e-002
1.099226e+003, 1.247869e-002
1.101154e+003, 1.216458e-002
1.103083e+003, 1.181445e-002
1.105011e+003, 1.151236e-002
1.106940e+003, 1.149154e-002
1.108868e+003, 1.138089e-002
1.110797e+003, 1.116796e-002
1.112725e+003, 1.085447e-002
1.114654e+003, 1.060306e-002
1.116582e+003, 1.047062e-002
1.118511e+003, 1.034300e-002
1.120439e+003, 1.024211e-002
1.122368e+003, 1.011202e-002
1.124296e+003, 9.926491e-003
1.126224e+003, 9.702360e-003
1.128153e+003, 9.419370e-003
1.130081e+003, 9.314562e-003
1.132010e+003, 9.290014e-003
1.133938e+003, 9.288344e-003
1.135867e+003, 9.098996e-003
1.137795e+003, 8.825326e-003
1.139724e+003, 8.722775e-003
1.141652e+003, 8.610617e-003
1.143581e+003, 8.498947e-003
1.145509e+003, 8.334274e-003
1.147438e+003, 8.100855e-003
1.149366e+003, 7.997937e-003
1.151295e+003, 8.065705e-003
1.153223e+003, 8.040230e-003
1.155151e+003, 7.882919e-003
1.157080e+003, 7.799814e-003
1.159008e+003, 7.806885e-003
1.160937e+003, 7.723583e-003
1.162865e+003, 7.685005e-003
1.164794e+003, 7.511297e-003
1.166722e+003, 7.353788e-003
1.168651e+003, 7.319781e-003
1.170579e+003, 7.316555e-003
1.172508e+003, 7.208806e-003
1.174436e+003, 7.102152e-003
1.176365e+003, 7.010745e-003
1.178293e+003, 7.004427e-003
1.180222e+003, 7.063704e-003
1.182150e+003, 7.003570e-003
1.184078e+003, 6.852432e-003
1.186007e+003, 6.864189e-003
1.187935e+003, 6.993116e-003
1.189864e+003, 6.992200e-003
1.191792e+003, 6.951942e-003
1.193721e+003, 6.828954e-003
1.195649e+003, 6.834888e-003
1.197578e+003, 6.863603e-003
1.199506e+003, 6.823714e-003
1.201435e+003, 6.699264e-003
1.203363e+003, 6.662725e-003
1.205292e+003, 6.699088e-003
1.207220e+003, 6.814589e-003
1.209149e+003, 6.813623e-003
1.211077e+003, 6.720961e-003
1.213005e+003, 6.709274e-003
1.214934e+003, 6.613374e-003
1.216862e+003, 6.552549e-003
1.218791e+003, 6.556187e-003
1.220719e+003, 6.628441e-003
1.222648e+003, 6.658768e-003
1.224576e+003, 6.657931e-003
1.226505e+003, 6.646359e-003
1.228433e+003, 6.515587e-003
1.230362e+003, 6.437139e-003
1.232290e+003, 6.598709e-003
1.234219e+003, 6.705263e-003
1.236147e+003, 6.518482e-003
1.238076e+003, 6.364866e-003
1.240004e+003, 6.369376e-003
1.241932e+003, 6.468357e-003
1.243861e+003, 6.553278e-003
1.245789e+003, 6.569371e-003
1.247718e+003, 6.589458e-003
1.249646e+003, 6.619132e-003
1.251575e+003, 6.613312e-003
1.253503e+003, 6.666344e-003
1.255432e+003, 6.794142e-003
1.257360e+003, 6.724519e-003
1.259289e+003, 6.654240e-003
1.261217e+003, 6.675767e-003
1.263146e+003, 6.670893e-003
1.265074e+003, 6.621127e-003
1.267003e+003, 6.775068e-003
1.268931e+003, 7.026184e-003
1.270859e+003, 7.114914e-003
1.272788e+003, 7.211885e-003
1.274716e+003, 7.313665e-003
1.276645e+003, 7.364850e-003
1.278573e+003, 7.320468e-003
1.280502e+003, 7.411565e-003
1.282430e+003, 7.580875e-003
1.284359e+003, 7.675799e-003
1.286287e+003, 7.710485e-003
1.288216e+003, 7.765322e-003
1.290144e+003, 7.799400e-003
1.292073e+003, 7.853952e-003
1.294001e+003, 7.965121e-003
1.295930e+003, 8.047420e-003
1.297858e+003, 8.112574e-003
1.299786e+003, 8.145207e-003
1.301715e+003, 8.091877e-003
1.303643e+003, 8.113374e-003
1.305572e+003, 8.201036e-003
1.307500e+003, 8.165286e-003
1.309429e+003, 8.128783e-003
1.311357e+003, 8.165305e-003
1.313286e+003, 8.190777e-003
1.315214e+003, 8.158510e-003
1.317143e+003, 8.018911e-003
1.319071e+003, 7.995948e-003
1.321000e+003, 8.056374e-003
1.322928e+003, 8.073515e-003
1.324857e+003, 8.076069e-003
1.326785e+003, 8.102582e-003
1.328714e+003, 8.123020e-003
1.330642e+003, 8.234084e-003
1.332570e+003, 8.356338e-003
1.334499e+003, 8.323304e-003
1.336427e+003, 8.252279e-003
1.338356e+003, 8.177560e-003
1.340284e+003, 8.214790e-003
1.342213e+003, 8.343218e-003
1.344141e+003, 8.331896e-003
1.346070e+003, 8.346563e-003
1.347998e+003, 8.439988e-003
1.349927e+003, 8.547319e-003
1.351855e+003, 8.580118e-003
1.353784e+003, 8.560589e-003
1.355712e+003, 8.596622e-003
1.357641e+003, 8.540796e-003
1.359569e+003, 8.463809e-003
1.361497e+003, 8.391891e-003
1.363426e+003, 8.433104e-003
1.365354e+003, 8.589325e-003
1.367283e+003, 8.682680e-003
1.369211e+003, 8.844976e-003
1.371140e+003, 8.950311e-003
1.373068e+003, 8.976708e-003
1.374997e+003, 9.054672e-003
1.376925e+003, 9.304392e-003
1.378854e+003, 9.540944e-003
1.380782e+003, 9.754302e-003
1.382711e+003, 9.907966e-003
1.384639e+003, 9.868337e-003
1.386568e+003, 9.693291e-003
1.388496e+003, 9.961442e-003
1.390424e+003, 1.045274e-002
1.392353e+003, 1.067841e-002
1.394281e+003, 1.067839e-002
1.396210e+003, 1.098412e-002
1.398138e+003, 1.123152e-002
1.400067e+003, 1.148433e-002
1.401995e+003, 1.183541e-002
1.403924e+003, 1.200581e-002
1.405852e+003, 1.213215e-002
1.407781e+003, 1.242559e-002
1.409709e+003, 1.272630e-002
1.411638e+003, 1.307647e-002
1.413566e+003, 1.335161e-002
1.415495e+003, 1.343411e-002
1.417423e+003, 1.326446e-002
1.419351e+003, 1.319054e-002
1.421280e+003, 1.375303e-002
1.423208e+003, 1.409210e-002
1.425137e+003, 1.419366e-002
1.427065e+003, 1.440875e-002
1.428994e+003, 1.457866e-002
1.430922e+003, 1.476286e-002
1.432851e+003, 1.500230e-002
1.434779e+003, 1.489004e-002
1.436708e+003, 1.473232e-002
1.438636e+003, 1.528964e-002
1.440565e+003, 1.559571e-002
1.442493e+003, 1.566491e-002
1.444422e+003, 1.572648e-002
1.446350e+003, 1.568277e-002
1.448278e+003, 1.557596e-002
1.450207e+003, 1.572050e-002
1.452135e+003, 1.568073e-002
1.454064e+003, 1.542087e-002
1.455992e+003, 1.465534e-002
1.457921e+003, 1.474259e-002
1.459849e+003, 1.532185e-002
1.461778e+003, 1.539975e-002
1.463706e+003, 1.504964e-002
1.465635e+003, 1.491246e-002
1.467563e+003, 1.515737e-002
1.469492e+003, 1.511770e-002
1.471420e+003, 1.453456e-002
1.473349e+003, 1.428009e-002
1.475277e+003, 1.464092e-002
1.477205e+003, 1.480309e-002
1.479134e+003, 1.492128e-002
1.481062e+003, 1.488840e-002
1.482991e+003, 1.478896e-002
1.484919e+003, 1.451813e-002
1.486848e+003, 1.423806e-002
1.488776e+003, 1.408105e-002
1.490705e+003, 1.393596e-002
1.492633e+003, 1.403788e-002
1.494562e+003, 1.372044e-002
1.496490e+003, 1.326171e-002
1.498419e+003, 1.342789e-002
1.500347e+003, 1.356059e-002
1.502276e+003, 1.357898e-002
1.504204e+003, 1.277696e-002
1.506132e+003, 1.168833e-002
1.508061e+003, 1.205251e-002
1.509989e+003, 1.267525e-002
1.511918e+003, 1.262970e-002
1.513846e+003, 1.252995e-002
1.515775e+003, 1.215514e-002
1.517703e+003, 1.196230e-002
1.519632e+003, 1.144606e-002
1.521560e+003, 1.096262e-002
1.523489e+003, 1.142991e-002
1.525417e+003, 1.151082e-002
1.527346e+003, 1.154144e-002
1.529274e+003, 1.165940e-002
1.531203e+003, 1.146683e-002
1.533131e+003, 1.107295e-002
1.535059e+003, 1.113316e-002
1.536988e+003, 1.082234e-002
1.538916e+003, 9.777058e-003
1.540845e+003, 9.668766e-003
1.542773e+003, 1.026255e-002
1.544702e+003, 1.062945e-002
1.546630e+003, 1.103197e-002
1.548559e+003, 1.117102e-002
1.550487e+003, 1.107765e-002
1.552416e+003, 1.090378e-002
1.554344e+003, 1.052791e-002
1.556273e+003, 1.016298e-002
1.558201e+003, 9.046781e-003
1.560130e+003, 9.342615e-003
1.562058e+003, 1.080741e-002
1.563986e+003, 1.126134e-002
1.565915e+003, 1.137584e-002
1.567843e+003, 1.125193e-002
1.569772e+003, 1.114590e-002
1.571700e+003, 1.152712e-002
1.573629e+003, 1.142450e-002
1.575557e+003, 1.067764e-002
1.577486e+003, 1.106654e-002
1.579414e+003, 1.176926e-002
1.581343e+003, 1.191647e-002
1.583271e+003, 1.205843e-002
1.585200e+003, 1.209316e-002
1.587128e+003, 1.207255e-002
1.589057e+003, 1.202582e-002
1.590985e+003, 1.197417e-002
1.592913e+003, 1.194808e-002
1.594842e+003, 1.204965e-002
1.596770e+003, 1.211300e-002
1.598699e+003, 1.216887e-002
1.600627e+003, 1.216908e-002
1.602556e+003, 1.230550e-002
1.604484e+003, 1.244510e-002
1.606413e+003, 1.240008e-002
1.608341e+003, 1.232297e-002
1.610270e+003, 1.243213e-002
1.612198e+003, 1.260968e-002
1.614127e+003, 1.240235e-002
1.616055e+003, 1.162907e-002
1.617984e+003, 1.187382e-002
1.619912e+003, 1.249849e-002
1.621840e+003, 1.242180e-002
1.623769e+003, 1.242086e-002
1.625697e+003, 1.263903e-002
1.627626e+003, 1.262224e-002
1.629554e+003, 1.282553e-002
1.631483e+003, 1.300295e-002
1.633411e+003, 1.255543e-002
1.635340e+003, 1.190646e-002
1.637268e+003, 1.234310e-002
1.639197e+003, 1.294987e-002
1.641125e+003, 1.307919e-002
1.643054e+003, 1.299481e-002
1.644982e+003, 1.237613e-002
1.646911e+003, 1.218684e-002
1.648839e+003, 1.277779e-002
1.650767e+003, 1.223230e-002
1.652696e+003, 1.072806e-002
1.654624e+003, 1.155108e-002
1.656553e+003, 1.284762e-002
1.658481e+003, 1.309584e-002
1.660410e+003, 1.293422e-002
1.662338e+003, 1.270787e-002
1.664267e+003, 1.295848e-002
1.666195e+003, 1.304263e-002
1.668124e+003, 1.265220e-002
1.670052e+003, 1.238859e-002
1.671981e+003, 1.265817e-002
1.673909e+003, 1.259049e-002
1.675838e+003, 1.242829e-002
1.677766e+003, 1.285546e-002
1.679694e+003, 1.297600e-002
1.681623e+003, 1.275113e-002
1.683551e+003, 1.155572e-002
1.685480e+003, 1.167563e-002
1.687408e+003, 1.281941e-002
1.689337e+003, 1.314423e-002
1.691265e+003, 1.317104e-002
1.693194e+003, 1.295465e-002
1.695122e+003, 1.193232e-002
1.697051e+003, 1.202316e-002
1.698979e+003, 1.185037e-002
1.700908e+003, 1.145262e-002
1.702836e+003, 1.240747e-002
1.704765e+003, 1.254601e-002
1.706693e+003, 1.268243e-002
1.708621e+003, 1.281437e-002
1.710550e+003, 1.295830e-002
1.712478e+003, 1.285155e-002
1.714407e+003, 1.228269e-002
1.716335e+003, 1.144024e-002
1.718264e+003, 1.147657e-002
1.720192e+003, 1.220919e-002
1.722121e+003, 1.250481e-002
1.724049e+003, 1.244505e-002
1.725978e+003, 1.247013e-002
1.727906e+003, 1.226795e-002
1.729835e+003, 1.190083e-002
1.731763e+003, 1.111190e-002
1.733692e+003, 1.014822e-002
1.735620e+003, 1.064754e-002
1.737548e+003, 1.106728e-002
1.739477e+003, 1.062684e-002
1.741405e+003, 1.074091e-002
1.743334e+003, 1.077677e-002
1.745262e+003, 1.069960e-002
1.747191e+003, 1.050794e-002
1.749119e+003, 1.024622e-002
1.751048e+003, 1.008982e-002
1.752976e+003, 1.061889e-002
1.754905e+003, 1.113399e-002
1.756833e+003, 1.119230e-002
1.758762e+003, 1.118271e-002
1.760690e+003, 1.104651e-002
1.762619e+003, 1.121903e-002
1.764547e+003, 1.161312e-002
1.766475e+003, 1.142998e-002
1.768404e+003, 1.129777e-002
1.770332e+003, 1.121164e-002
1.772261e+003, 1.083814e-002
1.774189e+003, 1.111988e-002
1.776118e+003, 1.153538e-002
1.778046e+003, 1.166692e-002
1.779975e+003, 1.173053e-002
1.781903e+003, 1.181361e-002
1.783832e+003, 1.185629e-002
1.785760e+003, 1.205682e-002
1.787689e+003, 1.220215e-002
1.789617e+003, 1.182285e-002
1.791546e+003, 1.137628e-002
1.793474e+003, 1.157060e-002
1.795402e+003, 1.211353e-002
1.797331e+003, 1.219060e-002
1.799259e+003, 1.209668e-002
1.801188e+003, 1.216196e-002
1.803116e+003, 1.223851e-002
1.805045e+003, 1.227821e-002
1.806973e+003, 1.243676e-002
1.808902e+003, 1.234755e-002
1.810830e+003, 1.243813e-002
1.812759e+003, 1.257678e-002
1.814687e+003, 1.254446e-002
1.816616e+003, 1.229401e-002
1.818544e+003, 1.238038e-002
1.820473e+003, 1.257716e-002
1.822401e+003, 1.248883e-002
1.824329e+003, 1.224853e-002
1.826258e+003, 1.257742e-002
1.828186e+003, 1.285778e-002
1.830115e+003, 1.272000e-002
1.832043e+003, 1.284678e-002
1.833972e+003, 1.292243e-002
1.835900e+003, 1.270946e-002
1.837829e+003, 1.269509e-002
1.839757e+003, 1.297943e-002
1.841686e+003, 1.302194e-002
1.843614e+003, 1.247207e-002
1.845543e+003, 1.254070e-002
1.847471e+003, 1.266113e-002
1.849400e+003, 1.254002e-002
1.851328e+003, 1.275332e-002
1.853256e+003, 1.302493e-002
1.855185e+003, 1.288856e-002
1.857113e+003, 1.267983e-002
1.859042e+003, 1.280764e-002
1.860970e+003, 1.300282e-002
1.862899e+003, 1.294529e-002
1.864827e+003, 1.283218e-002
1.866756e+003, 1.244626e-002
1.868684e+003, 1.228372e-002
1.870613e+003, 1.261228e-002
1.872541e+003, 1.260783e-002
1.874470e+003, 1.215322e-002
1.876398e+003, 1.230501e-002
1.878327e+003, 1.278339e-002
1.880255e+003, 1.282062e-002
1.882183e+003, 1.264349e-002
1.884112e+003, 1.240066e-002
1.886040e+003, 1.219551e-002
1.887969e+003, 1.202621e-002
1.889897e+003, 1.188149e-002
1.891826e+003, 1.199016e-002
1.893754e+003, 1.193821e-002
1.895683e+003, 1.197796e-002
1.897611e+003, 1.229713e-002
1.899540e+003, 1.249926e-002
1.901468e+003, 1.248886e-002
1.903397e+003, 1.220493e-002
1.905325e+003, 1.236929e-002
1.907254e+003, 1.253661e-002
1.909182e+003, 1.249874e-002
1.911110e+003, 1.269100e-002
1.913039e+003, 1.287644e-002
1.914967e+003, 1.275102e-002
1.916896e+003, 1.205786e-002
1.918824e+003, 1.209425e-002
1.920753e+003, 1.240439e-002
1.922681e+003, 1.228786e-002
1.924610e+003, 1.230355e-002
1.926538e+003, 1.220071e-002
1.928467e+003, 1.197397e-002
1.930395e+003, 1.196764e-002
1.932324e+003, 1.216790e-002
1.934252e+003, 1.231947e-002
1.936181e+003, 1.184240e-002
1.938109e+003, 1.157660e-002
1.940037e+003, 1.108150e-002
1.941966e+003, 1.065072e-002
1.943894e+003, 1.143689e-002
1.945823e+003, 1.206525e-002
1.947751e+003, 1.129723e-002
1.949680e+003, 1.054794e-002
1.951608e+003, 1.063982e-002
1.953537e+003, 1.050110e-002
1.955465e+003, 1.026262e-002
1.957394e+003, 1.083780e-002
1.959322e+003, 1.089701e-002
1.961251e+003, 1.077110e-002
1.963179e+003, 1.083742e-002
1.965108e+003, 1.043239e-002
1.967036e+003, 1.025177e-002
1.968964e+003, 1.068193e-002
1.970893e+003, 1.061119e-002
1.972821e+003, 1.049590e-002
1.974750e+003, 1.003991e-002
1.976678e+003, 1.071084e-002
1.978607e+003, 1.338403e-002
1.980535e+003, 1.422897e-002
1.982464e+003, 1.321452e-002
1.984392e+003, 1.343191e-002
1.986321e+003, 1.401604e-002
1.988249e+003, 1.328319e-002
1.990178e+003, 1.186167e-002
1.992106e+003, 1.177601e-002
1.994035e+003, 1.254101e-002
1.995963e+003, 1.278191e-002
1.997891e+003, 1.262672e-002
1.999820e+003, 1.243670e-002
2.001748e+003, 1.197952e-002
2.003677e+003, 1.212940e-002
2.005605e+003, 1.241262e-002
2.007534e+003, 1.300271e-002
2.009462e+003, 1.266614e-002
2.011391e+003, 1.295403e-002
2.013319e+003, 1.376642e-002
2.015248e+003, 1.376733e-002
2.017176e+003, 1.293844e-002
2.019105e+003, 1.309008e-002
2.021033e+003, 1.329327e-002
2.022962e+003, 1.330146e-002
2.024890e+003, 1.299712e-002
2.026818e+003, 1.297337e-002
2.028747e+003, 1.337389e-002
2.030675e+003, 1.419397e-002
2.032604e+003, 1.482192e-002
2.034532e+003, 1.549112e-002
2.036461e+003, 1.589043e-002
2.038389e+003, 1.582297e-002
2.040318e+003, 1.586223e-002
2.042246e+003, 1.545503e-002
2.044175e+003, 1.527721e-002
2.046103e+003, 1.632668e-002
2.048031e+003, 1.672610e-002
2.049960e+003, 1.743168e-002
2.051888e+003, 1.671194e-002
2.053817e+003, 1.583777e-002
2.055745e+003, 1.648680e-002
2.057674e+003, 1.638734e-002
2.059602e+003, 1.605107e-002
2.061531e+003, 1.632038e-002
2.063459e+003, 1.646064e-002
2.065388e+003, 1.649673e-002
2.067316e+003, 1.657095e-002
2.069245e+003, 1.656616e-002
2.071173e+003, 1.655888e-002
2.073102e+003, 1.601851e-002
2.075030e+003, 1.613266e-002
2.076958e+003, 1.672304e-002
2.078887e+003, 1.658048e-002
2.080815e+003, 1.653646e-002
2.082744e+003, 1.681328e-002
2.084672e+003, 1.739761e-002
2.086601e+003, 1.736529e-002
2.088529e+003, 1.698682e-002
2.090458e+003, 1.675694e-002
2.092386e+003, 1.649377e-002
2.094315e+003, 1.666841e-002
2.096243e+003, 1.670908e-002
2.098172e+003, 1.675121e-002
2.100100e+003, 1.716857e-002
2.102029e+003, 1.714700e-002
2.103957e+003, 1.732208e-002
2.105885e+003, 1.733532e-002
2.107814e+003, 1.715655e-002
2.109742e+003, 1.781351e-002
2.111671e+003, 1.814111e-002
2.113599e+003, 1.771313e-002
2.115528e+003, 1.739441e-002
2.117456e+003, 1.672811e-002
2.119385e+003, 1.610253e-002
2.121313e+003, 1.567646e-002
2.123242e+003, 1.554682e-002
2.125170e+003, 1.581047e-002
2.127099e+003, 1.599153e-002
2.129027e+003, 1.566645e-002
2.130956e+003, 1.492569e-002
2.132884e+003, 1.450708e-002
2.134813e+003, 1.528293e-002
2.136741e+003, 1.571630e-002
2.138669e+003, 1.565813e-002
2.140598e+003, 1.584221e-002
2.142526e+003, 1.534919e-002
2.144455e+003, 1.532227e-002
2.146383e+003, 1.557292e-002
2.148312e+003, 1.567696e-002
2.150240e+003, 1.559808e-002
2.152169e+003, 1.483855e-002
2.154097e+003, 1.394062e-002
2.156026e+003, 1.314025e-002
2.157954e+003, 1.373787e-002
2.159883e+003, 1.700244e-002
2.161811e+003, 1.938706e-002
2.163740e+003, 1.945302e-002
2.165668e+003, 1.931998e-002
2.167596e+003, 1.937340e-002
2.169525e+003, 1.950086e-002
2.171453e+003, 1.928141e-002
2.173382e+003, 1.889201e-002
2.175310e+003, 1.890635e-002
2.177239e+003, 1.844035e-002
2.179167e+003, 1.820307e-002
2.181096e+003, 1.885297e-002
2.183024e+003, 1.927496e-002
2.184953e+003, 1.946452e-002
2.186881e+003, 1.953096e-002
2.188810e+003, 1.930399e-002
2.190738e+003, 1.911175e-002
2.192667e+003, 1.934001e-002
2.194595e+003, 1.885313e-002
2.196523e+003, 1.901365e-002
2.198452e+003, 1.957489e-002
2.200380e+003, 1.941854e-002
2.202309e+003, 1.908495e-002
2.204237e+003, 1.971550e-002
2.206166e+003, 2.021999e-002
2.208094e+003, 1.997213e-002
2.210023e+003, 1.991332e-002
2.211951e+003, 2.018798e-002
2.213880e+003, 1.970208e-002
2.215808e+003, 1.886787e-002
2.217737e+003, 1.910320e-002
2.219665e+003, 2.007469e-002
2.221594e+003, 2.038635e-002
2.223522e+003, 2.027267e-002
2.225450e+003, 2.025366e-002
2.227379e+003, 2.043725e-002
2.229307e+003, 2.047200e-002
2.231236e+003, 2.026403e-002
2.233164e+003, 2.006434e-002
2.235093e+003, 1.997742e-002
2.237021e+003, 2.017096e-002
2.238950e+003, 2.031348e-002
2.240878e+003, 2.060783e-002
2.242807e+003, 2.104502e-002
2.244735e+003, 2.115250e-002
2.246664e+003, 2.172046e-002
2.248592e+003, 2.178017e-002
2.250521e+003, 2.097111e-002
2.252449e+003, 2.064457e-002
2.254377e+003, 2.091502e-002
2.256306e+003, 2.102648e-002
2.258234e+003, 2.089217e-002
2.260163e+003, 2.127959e-002
2.262091e+003, 2.148205e-002
2.264020e+003, 2.117310e-002
2.265948e+003, 2.121752e-002
2.267877e+003, 2.159782e-002
2.269805e+003, 2.193527e-002
2.271734e+003, 2.208145e-002
2.273662e+003, 2.167540e-002
2.275591e+003, 2.196505e-002
2.277519e+003, 2.239199e-002
2.279448e+003, 2.228009e-002
2.281376e+003, 2.239002e-002
2.283304e+003, 2.250900e-002
2.285233e+003, 2.250091e-002
2.287161e+003, 2.275334e-002
2.289090e+003, 2.251173e-002
2.291018e+003, 2.194655e-002
2.292947e+003, 2.159368e-002
2.294875e+003, 2.123567e-002
2.296804e+003, 2.146002e-002
2.298732e+003, 2.178478e-002
2.300661e+003, 2.181428e-002
2.302589e+003, 2.164161e-002
2.304518e+003, 2.148458e-002
2.306446e+003, 2.149162e-002
2.308375e+003, 2.187678e-002
2.310303e+003, 2.214749e-002
2.312231e+003, 2.222370e-002
2.314160e+003, 2.225392e-002
2.316088e+003, 2.218655e-002
2.318017e+003, 2.223031e-002
2.319945e+003, 2.257003e-002
2.321874e+003, 2.282226e-002
2.323802e+003, 2.276064e-002
2.325731e+003, 2.187770e-002
2.327659e+003, 2.114841e-002
2.329588e+003, 2.099049e-002
2.331516e+003, 2.078832e-002
2.333445e+003, 2.077362e-002
2.335373e+003, 2.086204e-002
2.337302e+003, 2.097548e-002
2.339230e+003, 2.097364e-002
2.341158e+003, 2.083976e-002
2.343087e+003, 2.069600e-002
2.345015e+003, 2.077156e-002
2.346944e+003, 2.078411e-002
2.348872e+003, 2.071573e-002
2.350801e+003, 2.091256e-002
2.352729e+003, 2.095637e-002
2.354658e+003, 2.047737e-002
2.356586e+003, 2.069412e-002
2.358515e+003, 2.111216e-002
2.360443e+003, 2.088610e-002
2.362372e+003, 2.077384e-002
2.364300e+003, 2.052918e-002
2.366229e+003, 2.032991e-002
2.368157e+003, 2.039594e-002
2.370085e+003, 2.038331e-002
2.372014e+003, 2.060081e-002
2.373942e+003, 2.058682e-002
2.375871e+003, 2.056002e-002
2.377799e+003, 2.037620e-002
2.379728e+003, 2.017191e-002
2.381656e+003, 2.048822e-002
2.383585e+003, 2.070050e-002
2.385513e+003, 2.065782e-002
2.387442e+003, 2.090655e-002
2.389370e+003, 2.086237e-002
2.391299e+003, 2.068933e-002
2.393227e+003, 2.062083e-002
2.395156e+003, 2.048810e-002
2.397084e+003, 2.068056e-002
2.399012e+003, 2.106652e-002
2.400941e+003, 2.102630e-002
2.402869e+003, 2.089088e-002
2.404798e+003, 2.110797e-002
2.406726e+003, 2.133087e-002
2.408655e+003, 2.152099e-002
2.410583e+003, 2.176743e-002
2.412512e+003, 2.142963e-002
2.414440e+003, 2.117612e-002
2.416369e+003, 2.150067e-002
2.418297e+003, 2.155283e-002
2.420226e+003, 2.141729e-002
2.422154e+003, 2.144984e-002
2.424083e+003, 2.166137e-002
2.426011e+003, 2.198233e-002
2.427939e+003, 2.207949e-002
2.429868e+003, 2.176066e-002
2.431796e+003, 2.159008e-002
2.433725e+003, 2.151403e-002
2.435653e+003, 2.159269e-002
2.437582e+003, 2.199943e-002
2.439510e+003, 2.252649e-002
2.441439e+003, 2.240515e-002
2.443367e+003, 2.207661e-002
2.445296e+003, 2.198617e-002
2.447224e+003, 2.207503e-002
2.449153e+003, 2.195846e-002
2.451081e+003, 2.169332e-002
2.453010e+003, 2.184942e-002
2.454938e+003, 2.200510e-002
2.456866e+003, 2.197253e-002
2.458795e+003, 2.176001e-002
2.460723e+003, 2.182950e-002
2.462652e+003, 2.220178e-002
2.464580e+003, 2.215130e-002
2.466509e+003, 2.212141e-002
2.468437e+003, 2.199193e-002
2.470366e+003, 2.199491e-002
2.472294e+003, 2.184328e-002
2.474223e+003, 2.211888e-002
2.476151e+003, 2.234786e-002
2.478080e+003, 2.235344e-002
2.480008e+003, 2.242278e-002
2.481937e+003, 2.216996e-002
2.483865e+003, 2.188865e-002
2.485793e+003, 2.223720e-002
2.487722e+003, 2.244825e-002
2.489650e+003, 2.264329e-002
2.491579e+003, 2.264465e-002
2.493507e+003, 2.271372e-002
2.495436e+003, 2.271474e-002
2.497364e+003, 2.253027e-002
2.499293e+003, 2.249796e-002
2.501221e+003, 2.234433e-002
2.503150e+003, 2.208737e-002
2.505078e+003, 2.202231e-002
2.507007e+003, 2.199697e-002
2.508935e+003, 2.264722e-002
2.510864e+003, 2.316897e-002
2.512792e+003, 2.289492e-002
2.514720e+003, 2.272233e-002
2.516649e+003, 2.285794e-002
2.518577e+003, 2.295828e-002
2.520506e+003, 2.292043e-002
2.522434e+003, 2.270644e-002
2.524363e+003, 2.282491e-002
2.526291e+003, 2.309459e-002
2.528220e+003, 2.326434e-002
2.530148e+003, 2.305254e-002
2.532077e+003, 2.279007e-002
2.534005e+003, 2.293439e-002
2.535934e+003, 2.294609e-002
2.537862e+003, 2.280780e-002
2.539791e+003, 2.293803e-002
2.541719e+003, 2.313758e-002
2.543647e+003, 2.308569e-002
2.545576e+003, 2.297624e-002
2.547504e+003, 2.319266e-002
2.549433e+003, 2.328579e-002
2.551361e+003, 2.344033e-002
2.553290e+003, 2.339066e-002
2.555218e+003, 2.323557e-002
2.557147e+003, 2.357899e-002
2.559075e+003, 2.338884e-002
2.561004e+003, 2.302886e-002
2.562932e+003, 2.350969e-002
2.564861e+003, 2.400131e-002
2.566789e+003, 2.402249e-002
2.568718e+003, 2.416525e-002
2.570646e+003, 2.406633e-002
2.572574e+003, 2.364855e-002
2.574503e+003, 2.385597e-002
2.576431e+003, 2.422099e-002
2.578360e+003, 2.412711e-002
2.580288e+003, 2.402505e-002
2.582217e+003, 2.422265e-002
2.584145e+003, 2.426236e-002
2.586074e+003, 2.424658e-002
2.588002e+003, 2.443019e-002
2.589931e+003, 2.481381e-002
2.591859e+003, 2.502124e-002
2.593788e+003, 2.485973e-002
2.595716e+003, 2.440597e-002
2.597645e+003, 2.412809e-002
2.599573e+003, 2.431805e-002
2.601501e+003, 2.464316e-002
2.603430e+003, 2.474774e-002
2.605358e+003, 2.476749e-002
2.607287e+003, 2.485567e-002
2.609215e+003, 2.516395e-002
2.611144e+003, 2.543080e-002
2.613072e+003, 2.526595e-002
2.615001e+003, 2.517466e-002
2.616929e+003, 2.529065e-002
2.618858e+003, 2.538365e-002
2.620786e+003, 2.524207e-002
2.622715e+003, 2.518397e-002
2.624643e+003, 2.531087e-002
2.626572e+003, 2.519716e-002
2.628500e+003, 2.523338e-002
2.630428e+003, 2.535820e-002
2.632357e+003, 2.534852e-002
2.634285e+003, 2.513625e-002
2.636214e+003, 2.523349e-002
2.638142e+003, 2.536383e-002
2.640071e+003, 2.535662e-002
2.641999e+003, 2.533746e-002
2.643928e+003, 2.549882e-002
2.645856e+003, 2.567671e-002
2.647785e+003, 2.578640e-002
2.649713e+003, 2.569385e-002
2.651642e+003, 2.555120e-002
2.653570e+003, 2.544690e-002
2.655499e+003, 2.535404e-002
2.657427e+003, 2.528227e-002
2.659355e+003, 2.532250e-002
2.661284e+003, 2.558678e-002
2.663212e+003, 2.536085e-002
2.665141e+003, 2.483099e-002
2.667069e+003, 2.491920e-002
2.668998e+003, 2.522938e-002
2.670926e+003, 2.523667e-002
2.672855e+003, 2.525181e-002
2.674783e+003, 2.521669e-002
2.676712e+003, 2.512874e-002
2.678640e+003, 2.519409e-002
2.680569e+003, 2.531444e-002
2.682497e+003, 2.559910e-002
2.684426e+003, 2.555513e-002
2.686354e+003, 2.531149e-002
2.688282e+003, 2.540995e-002
2.690211e+003, 2.536842e-002
2.692139e+003, 2.520411e-002
2.694068e+003, 2.522719e-002
2.695996e+003, 2.556183e-002
2.697925e+003, 2.574349e-002
2.699853e+003, 2.577113e-002
2.701782e+003, 2.583163e-002
2.703710e+003, 2.583057e-002
2.705639e+003, 2.585797e-002
2.707567e+003, 2.579753e-002
2.709496e+003, 2.575984e-002
2.711424e+003, 2.585008e-002
2.713353e+003, 2.605237e-002
2.715281e+003, 2.638559e-002
2.717209e+003, 2.619664e-002
2.719138e+003, 2.586965e-002
2.721066e+003, 2.605528e-002
2.722995e+003, 2.597976e-002
2.724923e+003, 2.612054e-002
2.726852e+003, 2.639353e-002
2.728780e+003, 2.646194e-002
2.730709e+003, 2.635130e-002
2.732637e+003, 2.625012e-002
2.734566e+003, 2.609645e-002
2.736494e+003, 2.620699e-002
2.738423e+003, 2.638260e-002
2.740351e+003, 2.629238e-002
2.742280e+003, 2.629305e-002
2.744208e+003, 2.632037e-002
2.746136e+003, 2.653907e-002
2.748065e+003, 2.656022e-002
2.749993e+003, 2.637185e-002
2.751922e+003, 2.639398e-002
2.753850e+003, 2.632116e-002
2.755779e+003, 2.639718e-002
2.757707e+003, 2.652233e-002
2.759636e+003, 2.668663e-002
2.761564e+003, 2.692658e-002
2.763493e+003, 2.682393e-002
2.765421e+003, 2.674511e-002
2.767350e+003, 2.692888e-002
2.769278e+003, 2.711150e-002
2.771207e+003, 2.705487e-002
2.773135e+003, 2.683437e-002
2.775063e+003, 2.677979e-002
2.776992e+003, 2.683651e-002
2.778920e+003, 2.679621e-002
2.780849e+003, 2.675715e-002
2.782777e+003, 2.678852e-002
2.784706e+003, 2.694502e-002
2.786634e+003, 2.712617e-002
2.788563e+003, 2.731069e-002
2.790491e+003, 2.723303e-002
2.792420e+003, 2.699137e-002
2.794348e+003, 2.702800e-002
2.796277e+003, 2.710530e-002
2.798205e+003, 2.720192e-002
2.800134e+003, 2.707911e-002
2.802062e+003, 2.726885e-002
2.803990e+003, 2.756518e-002
2.805919e+003, 2.754382e-002
2.807847e+003, 2.742477e-002
2.809776e+003, 2.738429e-002
2.811704e+003, 2.725055e-002
2.813633e+003, 2.733645e-002
2.815561e+003, 2.754811e-002
2.817490e+003, 2.736276e-002
2.819418e+003, 2.725692e-002
2.821347e+003, 2.727489e-002
2.823275e+003, 2.758302e-002
2.825204e+003, 2.794590e-002
2.827132e+003, 2.773624e-002
2.829061e+003, 2.765919e-002
2.830989e+003, 2.769493e-002
2.832917e+003, 2.769565e-002
2.834846e+003, 2.783268e-002
2.836774e+003, 2.796305e-002
2.838703e+003, 2.794992e-002
2.840631e+003, 2.778993e-002
2.842560e+003, 2.759949e-002
2.844488e+003, 2.731176e-002
2.846417e+003, 2.677954e-002
2.848345e+003, 2.637871e-002
2.850274e+003, 2.619061e-002
2.852202e+003, 2.639937e-002
2.854131e+003, 2.657982e-002
2.856059e+003, 2.689270e-002
2.857988e+003, 2.701615e-002
2.859916e+003, 2.709355e-002
2.861844e+003, 2.734570e-002
2.863773e+003, 2.756775e-002
2.865701e+003, 2.767174e-002
2.867630e+003, 2.757204e-002
2.869558e+003, 2.747403e-002
2.871487e+003, 2.734622e-002
2.873415e+003, 2.762007e-002
2.875344e+003, 2.780635e-002
2.877272e+003, 2.771895e-002
2.879201e+003, 2.784726e-002
2.881129e+003, 2.792262e-002
2.883058e+003, 2.785409e-002
2.884986e+003, 2.766650e-002
2.886915e+003, 2.755807e-002
2.888843e+003, 2.768803e-002
2.890771e+003, 2.778191e-002
2.892700e+003, 2.757205e-002
2.894628e+003, 2.736006e-002
2.896557e+003, 2.725049e-002
2.898485e+003, 2.728100e-002
2.900414e+003, 2.758398e-002
2.902342e+003, 2.771094e-002
2.904271e+003, 2.770841e-002
2.906199e+003, 2.793412e-002
2.908128e+003, 2.780775e-002
2.910056e+003, 2.721876e-002
2.911985e+003, 2.670218e-002
2.913913e+003, 2.641638e-002
2.915842e+003, 2.609227e-002
2.917770e+003, 2.564528e-002
2.919698e+003, 2.543283e-002
2.921627e+003, 2.589988e-002
2.923555e+003, 2.638975e-002
2.925484e+003, 2.672063e-002
2.927412e+003, 2.697382e-002
2.929341e+003, 2.739110e-002
2.931269e+003, 2.760535e-002
2.933198e+003, 2.760235e-002
2.935126e+003, 2.741151e-002
2.937055e+003, 2.739949e-002
2.938983e+003, 2.730029e-002
2.940912e+003, 2.740192e-002
2.942840e+003, 2.748485e-002
2.944769e+003, 2.755769e-002
2.946697e+003, 2.780651e-002
2.948625e+003, 2.787983e-002
2.950554e+003, 2.784720e-002
2.952482e+003, 2.803028e-002
2.954411e+003, 2.850422e-002
2.956339e+003, 2.851191e-002
2.958268e+003, 2.788074e-002
2.960196e+003, 2.757019e-002
2.962125e+003, 2.796875e-002
2.964053e+003, 2.846802e-002
2.965982e+003, 2.831936e-002
2.967910e+003, 2.826530e-002
2.969839e+003, 2.828316e-002
2.971767e+003, 2.811222e-002
2.973696e+003, 2.802282e-002
2.975624e+003, 2.821370e-002
2.977552e+003, 2.832748e-002
2.979481e+003, 2.805393e-002
2.981409e+003, 2.836014e-002
2.983338e+003, 2.844315e-002
2.985266e+003, 2.853646e-002
2.987195e+003, 2.897486e-002
2.989123e+003, 2.866658e-002
2.991052e+003, 2.823975e-002
2.992980e+003, 2.838303e-002
2.994909e+003, 2.837748e-002
2.996837e+003, 2.821715e-002
2.998766e+003, 2.846288e-002
3.000694e+003, 2.894110e-002
3.002623e+003, 2.875189e-002
3.004551e+003, 2.870757e-002
3.006479e+003, 2.890422e-002
3.008408e+003, 2.894090e-002
3.010336e+003, 2.893467e-002
3.012265e+003, 2.893412e-002
3.014193e+003, 2.909234e-002
3.016122e+003, 2.926076e-002
3.018050e+003, 2.926413e-002
3.019979e+003, 2.901671e-002
3.021907e+003, 2.910260e-002
3.023836e+003, 2.910529e-002
3.025764e+003, 2.884620e-002
3.027693e+003, 2.847292e-002
3.029621e+003, 2.861016e-002
3.031550e+003, 2.889479e-002
3.033478e+003, 2.894081e-002
3.035406e+003, 2.906007e-002
3.037335e+003, 2.922545e-002
3.039263e+003, 2.929487e-002
3.041192e+003, 2.917829e-002
3.043120e+003, 2.921720e-002
3.045049e+003, 2.916465e-002
3.046977e+003, 2.934311e-002
3.048906e+003, 2.960402e-002
3.050834e+003, 2.975692e-002
3.052763e+003, 2.988694e-002
3.054691e+003, 2.976328e-002
3.056620e+003, 2.955847e-002
3.058548e+003, 2.945609e-002
3.060477e+003, 2.928256e-002
3.062405e+003, 2.922643e-002
3.064333e+003, 2.940696e-002
3.066262e+003, 2.964486e-002
3.068190e+003, 3.006149e-002
3.070119e+003, 2.975517e-002
3.072047e+003, 2.945779e-002
3.073976e+003, 2.966049e-002
3.075904e+003, 3.001177e-002
3.077833e+003, 3.011110e-002
3.079761e+003, 2.990288e-002
3.081690e+003, 3.003323e-002
3.083618e+003, 3.021954e-002
3.085547e+003, 3.005838e-002
3.087475e+003, 2.996250e-002
3.089404e+003, 3.015039e-002
3.091332e+003, 3.026130e-002
3.093260e+003, 3.044130e-002
3.095189e+003, 3.049721e-002
3.097117e+003, 3.030113e-002
3.099046e+003, 3.059225e-002
3.100974e+003, 3.073585e-002
3.102903e+003, 3.037214e-002
3.104831e+003, 3.010096e-002
3.106760e+003, 3.022029e-002
3.108688e+003, 3.036841e-002
3.110617e+003, 3.054643e-002
3.112545e+003, 3.069956e-002
3.114474e+003, 3.030957e-002
3.116402e+003, 3.032570e-002
3.118331e+003, 3.055423e-002
3.120259e+003, 3.069452e-002
3.122188e+003, 3.060302e-002
3.124116e+003, 3.049371e-002
3.126044e+003, 3.064686e-002
3.127973e+003, 3.065729e-002
3.129901e+003, 3.063408e-002
3.131830e+003, 3.062122e-002
3.133758e+003, 3.069849e-002
3.135687e+003, 3.027144e-002
3.137615e+003, 3.059294e-002
3.139544e+003, 3.124564e-002
3.141472e+003, 3.136591e-002
3.143401e+003, 3.163852e-002
3.145329e+003, 3.178902e-002
3.147258e+003, 3.122223e-002
3.149186e+003, 3.038971e-002
3.151115e+003, 3.076151e-002
3.153043e+003, 3.132227e-002
3.154971e+003, 3.136774e-002
3.156900e+003, 3.159937e-002
3.158828e+003, 3.207576e-002
3.160757e+003, 3.206340e-002
3.162685e+003, 3.160033e-002
3.164614e+003, 3.130848e-002
3.166542e+003, 3.186972e-002
3.168471e+003, 3.212618e-002
3.170399e+003, 3.163828e-002
3.172328e+003, 3.160795e-002
3.174256e+003, 3.176298e-002
3.176185e+003, 3.174372e-002
3.178113e+003, 3.194921e-002
3.180042e+003, 3.189851e-002
3.181970e+003, 3.202478e-002
3.183898e+003, 3.252484e-002
3.185827e+003, 3.271422e-002
3.187755e+003, 3.231165e-002
3.189684e+003, 3.204919e-002
3.191612e+003, 3.197344e-002
3.193541e+003, 3.193743e-002
3.195469e+003, 3.170051e-002
3.197398e+003, 3.177405e-002
3.199326e+003, 3.241266e-002
3.201255e+003, 3.258291e-002
3.203183e+003, 3.243305e-002
3.205112e+003, 3.216748e-002
3.207040e+003, 3.211082e-002
3.208969e+003, 3.259263e-002
3.210897e+003, 3.256789e-002
3.212825e+003, 3.187628e-002
3.214754e+003, 3.158562e-002
3.216682e+003, 3.242388e-002
3.218611e+003, 3.293949e-002
3.220539e+003, 3.275592e-002
3.222468e+003, 3.258208e-002
3.224396e+003, 3.251782e-002
3.226325e+003, 3.263520e-002
3.228253e+003, 3.324309e-002
3.230182e+003, 3.362368e-002
3.232110e+003, 3.342910e-002
3.234039e+003, 3.336675e-002
3.235967e+003, 3.329969e-002
3.237896e+003, 3.338270e-002
3.239824e+003, 3.315483e-002
3.241752e+003, 3.331182e-002
3.243681e+003, 3.329972e-002
3.245609e+003, 3.326447e-002
3.247538e+003, 3.337634e-002
3.249466e+003, 3.369904e-002
3.251395e+003, 3.344576e-002
3.253323e+003, 3.305207e-002
3.255252e+003, 3.298410e-002
3.257180e+003, 3.327311e-002
3.259109e+003, 3.344130e-002
3.261037e+003, 3.303410e-002
3.262966e+003, 3.332435e-002
3.264894e+003, 3.362915e-002
3.266823e+003, 3.386728e-002
3.268751e+003, 3.457516e-002
3.270679e+003, 3.455748e-002
3.272608e+003, 3.410984e-002
3.274536e+003, 3.387302e-002
3.276465e+003, 3.374523e-002
3.278393e+003, 3.415568e-002
3.280322e+003, 3.417354e-002
3.282250e+003, 3.414652e-002
3.284179e+003, 3.413470e-002
3.286107e+003, 3.430017e-002
3.288036e+003, 3.456282e-002
3.289964e+003, 3.467479e-002
3.291893e+003, 3.492691e-002
3.293821e+003, 3.522240e-002
3.295750e+003, 3.507537e-002
3.297678e+003, 3.494608e-002
3.299606e+003, 3.503855e-002
3.301535e+003, 3.489044e-002
3.303463e+003, 3.481213e-002
3.305392e+003, 3.503759e-002
3.307320e+003, 3.505174e-002
3.309249e+003, 3.504533e-002
3.311177e+003, 3.544791e-002
3.313106e+003, 3.576710e-002
3.315034e+003, 3.567982e-002
3.316963e+003, 3.481893e-002
3.318891e+003, 3.470725e-002
3.320820e+003, 3.504587e-002
3.322748e+003, 3.542341e-002
3.324677e+003, 3.544758e-002
3.326605e+003, 3.513798e-002
3.328533e+003, 3.513248e-002
3.330462e+003, 3.513802e-002
3.332390e+003, 3.513077e-002
3.334319e+003, 3.536561e-002
3.336247e+003, 3.564753e-002
3.338176e+003, 3.577663e-002
3.340104e+003, 3.596485e-002
3.342033e+003, 3.591388e-002
3.343961e+003, 3.599559e-002
3.345890e+003, 3.625457e-002
3.347818e+003, 3.641411e-002
3.349747e+003, 3.623025e-002
3.351675e+003, 3.602387e-002
3.353604e+003, 3.606487e-002
3.355532e+003, 3.624803e-002
3.357460e+003, 3.631984e-002
3.359389e+003, 3.641933e-002
3.361317e+003, 3.655443e-002
3.363246e+003, 3.690623e-002
3.365174e+003, 3.660164e-002
3.367103e+003, 3.630897e-002
3.369031e+003, 3.650235e-002
3.370960e+003, 3.629812e-002
3.372888e+003, 3.638683e-002
3.374817e+003, 3.667567e-002
3.376745e+003, 3.701455e-002
3.378674e+003, 3.681366e-002
3.380602e+003, 3.682250e-002
3.382531e+003, 3.699027e-002
3.384459e+003, 3.641290e-002
3.386387e+003, 3.652567e-002
3.388316e+003, 3.700633e-002
3.390244e+003, 3.690714e-002
3.392173e+003, 3.663900e-002
3.394101e+003, 3.671506e-002
3.396030e+003, 3.672888e-002
3.397958e+003, 3.662012e-002
3.399887e+003, 3.703498e-002
3.401815e+003, 3.703530e-002
3.403744e+003, 3.678548e-002
3.405672e+003, 3.679916e-002
3.407601e+003, 3.653226e-002
3.409529e+003, 3.638828e-002
3.411458e+003, 3.631607e-002
3.413386e+003, 3.628074e-002
3.415314e+003, 3.627073e-002
3.417243e+003, 3.657470e-002
3.419171e+003, 3.673562e-002
3.421100e+003, 3.709613e-002
3.423028e+003, 3.722484e-002
3.424957e+003, 3.705779e-002
3.426885e+003, 3.659935e-002
3.428814e+003, 3.641922e-002
3.430742e+003, 3.652311e-002
3.432671e+003, 3.647301e-002
3.434599e+003, 3.594525e-002
3.436528e+003, 3.585147e-002
3.438456e+003, 3.618508e-002
3.440385e+003, 3.636562e-002
3.442313e+003, 3.620826e-002
3.444241e+003, 3.633120e-002
3.446170e+003, 3.651569e-002
3.448098e+003, 3.624055e-002
3.450027e+003, 3.598294e-002
3.451955e+003, 3.602414e-002
3.453884e+003, 3.581909e-002
3.455812e+003, 3.611424e-002
3.457741e+003, 3.666436e-002
3.459669e+003, 3.665251e-002
3.461598e+003, 3.657869e-002
3.463526e+003, 3.701797e-002
3.465455e+003, 3.672945e-002
3.467383e+003, 3.651434e-002
3.469312e+003, 3.704328e-002
3.471240e+003, 3.648378e-002
3.473168e+003, 3.595627e-002
3.475097e+003, 3.631305e-002
3.477025e+003, 3.683261e-002
3.478954e+003, 3.647841e-002
3.480882e+003, 3.662033e-002
3.482811e+003, 3.739299e-002
3.484739e+003, 3.741511e-002
3.486668e+003, 3.693723e-002
3.488596e+003, 3.692865e-002
3.490525e+003, 3.685070e-002
3.492453e+003, 3.686857e-002
3.494382e+003, 3.753039e-002
3.496310e+003, 3.795027e-002
3.498239e+003, 3.796228e-002
3.500167e+003, 3.753665e-002
3.502095e+003, 3.713444e-002
3.504024e+003, 3.720391e-002
3.505952e+003, 3.787449e-002
3.507881e+003, 3.807264e-002
3.509809e+003, 3.789374e-002
3.511738e+003, 3.812619e-002
3.513666e+003, 3.802764e-002
3.515595e+003, 3.768622e-002
3.517523e+003, 3.754611e-002
3.519452e+003, 3.805834e-002
3.521380e+003, 3.827024e-002
3.523309e+003, 3.791598e-002
3.525237e+003, 3.808437e-002
3.527166e+003, 3.821113e-002
3.529094e+003, 3.816009e-002
3.531022e+003, 3.850147e-002
3.532951e+003, 3.873030e-002
3.534879e+003, 3.824426e-002
3.536808e+003, 3.835788e-002
3.538736e+003, 3.873636e-002
3.540665e+003, 3.894265e-002
3.542593e+003, 3.930797e-002
3.544522e+003, 3.892291e-002
3.546450e+003, 3.839644e-002
3.548379e+003, 3.838091e-002
3.550307e+003, 3.822076e-002
3.552236e+003, 3.818734e-002
3.554164e+003, 3.844385e-002
3.556093e+003, 3.852112e-002
3.558021e+003, 3.863230e-002
3.559949e+003, 3.869134e-002
3.561878e+003, 3.850551e-002
3.563806e+003, 3.795615e-002
3.565735e+003, 3.734441e-002
3.567663e+003, 3.712098e-002
3.569592e+003, 3.717291e-002
3.571520e+003, 3.749702e-002
3.573449e+003, 3.810119e-002
3.575377e+003, 3.779519e-002
3.577306e+003, 3.689173e-002
3.579234e+003, 3.704546e-002
3.581163e+003, 3.689141e-002
3.583091e+003, 3.662208e-002
3.585020e+003, 3.651970e-002
3.586948e+003, 3.551971e-002
3.588876e+003, 3.576425e-002
3.590805e+003, 3.644332e-002
3.592733e+003, 3.553742e-002
3.594662e+003, 3.503933e-002
3.596590e+003, 3.489153e-002
3.598519e+003, 3.483270e-002
3.600447e+003, 3.524165e-002
3.602376e+003, 3.587752e-002
3.604304e+003, 3.600585e-002
3.606233e+003, 3.552695e-002
3.608161e+003, 3.416181e-002
3.610090e+003, 3.391394e-002
3.612018e+003, 3.457181e-002
3.613947e+003, 3.490477e-002
3.615875e+003, 3.500462e-002
3.617803e+003, 3.422774e-002
3.619732e+003, 3.441355e-002
3.621660e+003, 3.520960e-002
3.623589e+003, 3.552551e-002
3.625517e+003, 3.571829e-002
3.627446e+003, 3.460656e-002
3.629374e+003, 3.396854e-002
3.631303e+003, 3.458050e-002
3.633231e+003, 3.445294e-002
3.635160e+003, 3.471450e-002
3.637088e+003, 3.523623e-002
3.639017e+003, 3.542359e-002
3.640945e+003, 3.606170e-002
3.642874e+003, 3.583174e-002
3.644802e+003, 3.531355e-002
3.646730e+003, 3.415308e-002
3.648659e+003, 3.240577e-002
3.650587e+003, 3.212070e-002
3.652516e+003, 3.314587e-002
3.654444e+003, 3.379618e-002
3.656373e+003, 3.376178e-002
3.658301e+003, 3.371608e-002
3.660230e+003, 3.397432e-002
3.662158e+003, 3.491812e-002
3.664087e+003, 3.526839e-002
3.666015e+003, 3.402590e-002
3.667944e+003, 3.298248e-002
3.669872e+003, 3.208627e-002
3.671801e+003, 3.234447e-002
3.673729e+003, 3.220023e-002
3.675657e+003, 3.138212e-002
3.677586e+003, 3.281231e-002
3.679514e+003, 3.345212e-002
3.681443e+003, 3.348984e-002
3.683371e+003, 3.391858e-002
3.685300e+003, 3.395118e-002
3.687228e+003, 3.190447e-002
3.689157e+003, 3.143205e-002
3.691085e+003, 3.272953e-002
3.693014e+003, 3.292473e-002
3.694942e+003, 3.259630e-002
3.696871e+003, 3.259656e-002
3.698799e+003, 3.325405e-002
3.700728e+003, 3.341936e-002
3.702656e+003, 3.345832e-002
3.704584e+003, 3.343364e-002
3.706513e+003, 3.309949e-002
3.708441e+003, 3.273608e-002
3.710370e+003, 3.198770e-002
3.712298e+003, 3.207120e-002
3.714227e+003, 3.366492e-002
3.716155e+003, 3.395236e-002
3.718084e+003, 3.390141e-002
3.720012e+003, 3.387267e-002
3.721941e+003, 3.306153e-002
3.723869e+003, 3.339215e-002
3.725798e+003, 3.343679e-002
3.727726e+003, 3.338348e-002
3.729655e+003, 3.378393e-002
3.731583e+003, 3.282907e-002
3.733511e+003, 3.189107e-002
3.735440e+003, 3.195388e-002
3.737368e+003, 3.342420e-002
3.739297e+003, 3.409963e-002
3.741225e+003, 3.358360e-002
3.743154e+003, 3.124477e-002
3.745082e+003, 3.087876e-002
3.747011e+003, 3.236780e-002
3.748939e+003, 3.094361e-002
3.750868e+003, 3.029783e-002
3.752796e+003, 3.181817e-002
3.754725e+003, 3.397393e-002
3.756653e+003, 3.469677e-002
3.758582e+003, 3.459564e-002
3.760510e+003, 3.445953e-002
3.762438e+003, 3.511305e-002
3.764367e+003, 3.472877e-002
3.766295e+003, 3.428455e-002
3.768224e+003, 3.366370e-002
3.770152e+003, 3.328096e-002
3.772081e+003, 3.394122e-002
3.774009e+003, 3.512023e-002
3.775938e+003, 3.524274e-002
3.777866e+003, 3.462548e-002
3.779795e+003, 3.436075e-002
3.781723e+003, 3.489811e-002
3.783652e+003, 3.511454e-002
3.785580e+003, 3.487836e-002
3.787509e+003, 3.493996e-002
3.789437e+003, 3.551486e-002
3.791365e+003, 3.558877e-002
3.793294e+003, 3.566416e-002
3.795222e+003, 3.502140e-002
3.797151e+003, 3.468658e-002
3.799079e+003, 3.362380e-002
3.801008e+003, 3.172294e-002
3.802936e+003, 3.305310e-002
3.804865e+003, 3.416864e-002
3.806793e+003, 3.346770e-002
3.808722e+003, 3.434938e-002
3.810650e+003, 3.528720e-002
3.812579e+003, 3.482480e-002
3.814507e+003, 3.281496e-002
3.816436e+003, 3.248166e-002
3.818364e+003, 3.403466e-002
3.820292e+003, 3.298120e-002
3.822221e+003, 3.328364e-002
3.824149e+003, 3.452797e-002
3.826078e+003, 3.451872e-002
3.828006e+003, 3.489215e-002
3.829935e+003, 3.448290e-002
3.831863e+003, 3.381742e-002
3.833792e+003, 3.437926e-002
3.835720e+003, 3.415187e-002
3.837649e+003, 3.332912e-002
3.839577e+003, 3.449335e-002
3.841506e+003, 3.519056e-002
3.843434e+003, 3.508662e-002
3.845363e+003, 3.514755e-002
3.847291e+003, 3.482230e-002
3.849219e+003, 3.450185e-002
3.851148e+003, 3.236295e-002
3.853076e+003, 3.027718e-002
3.855005e+003, 3.156380e-002
3.856933e+003, 3.322674e-002
3.858862e+003, 3.352379e-002
3.860790e+003, 3.349969e-002
3.862719e+003, 3.320491e-002
3.864647e+003, 3.347673e-002
3.866576e+003, 3.402022e-002
3.868504e+003, 3.346842e-002
3.870433e+003, 3.393062e-002
3.872361e+003, 3.502497e-002
3.874290e+003, 3.435430e-002
3.876218e+003, 3.438424e-002
3.878146e+003, 3.467744e-002
3.880075e+003, 3.451215e-002
3.882003e+003, 3.497390e-002
3.883932e+003, 3.480130e-002
3.885860e+003, 3.449658e-002
3.887789e+003, 3.506219e-002
3.889717e+003, 3.461909e-002
3.891646e+003, 3.447925e-002
3.893574e+003, 3.494459e-002
3.895503e+003, 3.475952e-002
3.897431e+003, 3.454856e-002
3.899360e+003, 3.430682e-002
3.901288e+003, 3.419307e-002
3.903217e+003, 3.434894e-002
3.905145e+003, 3.456887e-002
3.907073e+003, 3.462981e-002
3.909002e+003, 3.466977e-002
3.910930e+003, 3.485273e-002
3.912859e+003, 3.514665e-002
3.914787e+003, 3.522556e-002
3.916716e+003, 3.535487e-002
3.918644e+003, 3.511763e-002
3.920573e+003, 3.535679e-002
3.922501e+003, 3.626069e-002
3.924430e+003, 3.595710e-002
3.926358e+003, 3.524294e-002
3.928287e+003, 3.490006e-002
3.930215e+003, 3.494630e-002
3.932144e+003, 3.507516e-002
3.934072e+003, 3.546922e-002
3.936000e+003, 3.538981e-002
3.937929e+003, 3.469462e-002
3.939857e+003, 3.517355e-002
3.941786e+003, 3.618829e-002
3.943714e+003, 3.613686e-002
3.945643e+003, 3.556233e-002
3.947571e+003, 3.537834e-002
3.949500e+003, 3.536690e-002
3.951428e+003, 3.526789e-002
3.953357e+003, 3.591553e-002
3.955285e+003, 3.638932e-002
3.957214e+003, 3.618195e-002
3.959142e+003, 3.561984e-002
3.961071e+003, 3.534203e-002
3.962999e+003, 3.577319e-002
3.964927e+003, 3.630709e-002
3.966856e+003, 3.657123e-002
3.968784e+003, 3.609611e-002
3.970713e+003, 3.596023e-002
3.972641e+003, 3.554859e-002
3.974570e+003, 3.511972e-002
3.976498e+003, 3.581164e-002
3.978427e+003, 3.569591e-002
3.980355e+003, 3.508093e-002
3.982284e+003, 3.527717e-002
3.984212e+003, 3.639834e-002
3.986141e+003, 3.675266e-002
3.988069e+003, 3.672900e-002
3.989998e+003, 3.685628e-002
3.991926e+003, 3.695678e-002
3.993854e+003, 3.701479e-002
3.995783e+003, 3.647267e-002
3.997711e+003, 3.581269e-002
3.999640e+003, 3.621002e-002
4.001568e+003, 0.000000e+000
##END=



