##NAMES=Hopeite
##RRUFFID=R050254
##IDEAL CHEMISTRY=Zn^2+^_3_(P^5+^O_4_)_2_&#183;4H_2_O
##LOCALITY=Broken Hill mine, Kabwe, Zambia
##OWNER=RRUFF
##SOURCE=Marcus Origlieri
##DESCRIPTION=Reddish-orange tabular single crystal
##STATUS=The identification of this mineral has been confirmed by X-ray diffraction and chemical analysis
##URL=rruff.info/R050254
##MEASURED CHEMISTRY=(Zn_2.93_Mg_0.07_)_Σ=3_(P_1.00_O_4_)_2_·4H_2_O
3.953357e+002, 8.613103e-002
3.972641e+002, 8.755880e-002
3.991926e+002, 8.839901e-002
4.011211e+002, 8.755124e-002
4.030495e+002, 8.355901e-002
4.049780e+002, 8.218401e-002
4.069065e+002, 8.235624e-002
4.088349e+002, 8.217835e-002
4.107634e+002, 8.343387e-002
4.126919e+002, 8.288315e-002
4.146203e+002, 8.032408e-002
4.165488e+002, 8.050774e-002
4.184773e+002, 8.305836e-002
4.204057e+002, 8.353205e-002
4.223342e+002, 8.321176e-002
4.242627e+002, 8.277795e-002
4.261911e+002, 8.362510e-002
4.281196e+002, 8.437148e-002
4.300481e+002, 8.381761e-002
4.319765e+002, 8.283555e-002
4.339050e+002, 8.291864e-002
4.358335e+002, 8.251517e-002
4.377619e+002, 8.097900e-002
4.396904e+002, 7.975360e-002
4.416189e+002, 7.882695e-002
4.435473e+002, 7.842267e-002
4.454758e+002, 7.898808e-002
4.474043e+002, 7.951307e-002
4.493327e+002, 7.942971e-002
4.512612e+002, 7.905444e-002
4.531897e+002, 7.840261e-002
4.551181e+002, 7.838611e-002
4.570466e+002, 7.955443e-002
4.589751e+002, 8.041669e-002
4.609035e+002, 8.043263e-002
4.628320e+002, 8.072459e-002
4.647605e+002, 8.091279e-002
4.666889e+002, 8.143827e-002
4.686174e+002, 8.186118e-002
4.705459e+002, 8.203991e-002
4.724743e+002, 8.206327e-002
4.744028e+002, 8.254318e-002
4.763313e+002, 8.331969e-002
4.782597e+002, 8.399734e-002
4.801882e+002, 8.450454e-002
4.821167e+002, 8.576228e-002
4.840451e+002, 8.743247e-002
4.859736e+002, 8.883139e-002
4.879021e+002, 9.004741e-002
4.898305e+002, 9.202442e-002
4.917590e+002, 9.417605e-002
4.936875e+002, 9.613510e-002
4.956159e+002, 9.818281e-002
4.975444e+002, 9.997719e-002
4.994729e+002, 1.010855e-001
5.014013e+002, 1.018158e-001
5.033298e+002, 1.022978e-001
5.052583e+002, 1.025353e-001
5.071867e+002, 1.025948e-001
5.091152e+002, 1.020561e-001
5.110437e+002, 1.021531e-001
5.129721e+002, 1.028728e-001
5.149006e+002, 1.036727e-001
5.168290e+002, 1.046140e-001
5.187575e+002, 1.058645e-001
5.206860e+002, 1.069259e-001
5.226144e+002, 1.074435e-001
5.245429e+002, 1.087371e-001
5.264714e+002, 1.103916e-001
5.283998e+002, 1.118591e-001
5.303283e+002, 1.137575e-001
5.322568e+002, 1.155469e-001
5.341852e+002, 1.175156e-001
5.361137e+002, 1.199394e-001
5.380422e+002, 1.223342e-001
5.399706e+002, 1.252544e-001
5.418991e+002, 1.287131e-001
5.438276e+002, 1.325418e-001
5.457560e+002, 1.368310e-001
5.476845e+002, 1.417733e-001
5.496130e+002, 1.467671e-001
5.515414e+002, 1.519279e-001
5.534699e+002, 1.570483e-001
5.553984e+002, 1.612731e-001
5.573268e+002, 1.649475e-001
5.592553e+002, 1.675121e-001
5.611838e+002, 1.688828e-001
5.631122e+002, 1.698212e-001
5.650407e+002, 1.711353e-001
5.669692e+002, 1.725883e-001
5.688976e+002, 1.736368e-001
5.708261e+002, 1.747019e-001
5.727546e+002, 1.756508e-001
5.746830e+002, 1.760896e-001
5.766115e+002, 1.751397e-001
5.785400e+002, 1.736054e-001
5.804684e+002, 1.717692e-001
5.823969e+002, 1.688993e-001
5.843254e+002, 1.656092e-001
5.862538e+002, 1.629474e-001
5.881823e+002, 1.606449e-001
5.901108e+002, 1.586328e-001
5.920392e+002, 1.565960e-001
5.939677e+002, 1.544114e-001
5.958962e+002, 1.520439e-001
5.978246e+002, 1.493770e-001
5.997531e+002, 1.463261e-001
6.016816e+002, 1.431962e-001
6.036100e+002, 1.402223e-001
6.055385e+002, 1.377324e-001
6.074670e+002, 1.359883e-001
6.093954e+002, 1.350583e-001
6.113239e+002, 1.353417e-001
6.132524e+002, 1.368715e-001
6.151808e+002, 1.399936e-001
6.171093e+002, 1.443334e-001
6.190378e+002, 1.490175e-001
6.209662e+002, 1.540694e-001
6.228947e+002, 1.596821e-001
6.248232e+002, 1.654415e-001
6.267516e+002, 1.705593e-001
6.286801e+002, 1.746608e-001
6.306086e+002, 1.773445e-001
6.325370e+002, 1.780146e-001
6.344655e+002, 1.765554e-001
6.363940e+002, 1.731395e-001
6.383224e+002, 1.680031e-001
6.402509e+002, 1.607502e-001
6.421794e+002, 1.523585e-001
6.441078e+002, 1.439284e-001
6.460363e+002, 1.352401e-001
6.479648e+002, 1.268280e-001
6.498932e+002, 1.188319e-001
6.518217e+002, 1.113270e-001
6.537502e+002, 1.044052e-001
6.556786e+002, 9.832481e-002
6.576071e+002, 9.282777e-002
6.595356e+002, 8.792294e-002
6.614641e+002, 8.398228e-002
6.633925e+002, 8.066612e-002
6.653210e+002, 7.773270e-002
6.672495e+002, 7.517628e-002
6.691779e+002, 7.252803e-002
6.711064e+002, 7.022127e-002
6.730349e+002, 6.856496e-002
6.749633e+002, 6.706741e-002
6.768918e+002, 6.572157e-002
6.788203e+002, 6.450959e-002
6.807487e+002, 6.339785e-002
6.826772e+002, 6.240327e-002
6.846057e+002, 6.151554e-002
6.865341e+002, 6.083636e-002
6.884626e+002, 6.022254e-002
6.903911e+002, 5.941598e-002
6.923195e+002, 5.892285e-002
6.942480e+002, 5.849319e-002
6.961765e+002, 5.824240e-002
6.981049e+002, 5.798666e-002
7.000334e+002, 5.766014e-002
7.019619e+002, 5.719700e-002
7.038903e+002, 5.684333e-002
7.058188e+002, 5.653029e-002
7.077473e+002, 5.646915e-002
7.096757e+002, 5.646535e-002
7.116042e+002, 5.630092e-002
7.135327e+002, 5.603600e-002
7.154611e+002, 5.583689e-002
7.173896e+002, 5.554824e-002
7.193181e+002, 5.533600e-002
7.212465e+002, 5.510493e-002
7.231750e+002, 5.503250e-002
7.251035e+002, 5.511863e-002
7.270319e+002, 5.475321e-002
7.289604e+002, 5.434249e-002
7.308889e+002, 5.396370e-002
7.328173e+002, 5.369893e-002
7.347458e+002, 5.364688e-002
7.366743e+002, 5.355660e-002
7.386027e+002, 5.341999e-002
7.405312e+002, 5.315980e-002
7.424597e+002, 5.306200e-002
7.443881e+002, 5.269061e-002
7.463166e+002, 5.224423e-002
7.482451e+002, 5.204310e-002
7.501735e+002, 5.207949e-002
7.521020e+002, 5.182444e-002
7.540305e+002, 5.144862e-002
7.559589e+002, 5.132824e-002
7.578874e+002, 5.104237e-002
7.598159e+002, 5.071665e-002
7.617443e+002, 5.039563e-002
7.636728e+002, 4.996898e-002
7.656013e+002, 4.953931e-002
7.675297e+002, 4.923249e-002
7.694582e+002, 4.887888e-002
7.713867e+002, 4.839387e-002
7.733151e+002, 4.781629e-002
7.752436e+002, 4.744568e-002
7.771721e+002, 4.701313e-002
7.791005e+002, 4.643925e-002
7.810290e+002, 4.591870e-002
7.829575e+002, 4.556299e-002
7.848859e+002, 4.509804e-002
7.868144e+002, 4.461813e-002
7.887429e+002, 4.412013e-002
7.906713e+002, 4.368400e-002
7.925998e+002, 4.314163e-002
7.945283e+002, 4.240421e-002
7.964567e+002, 4.186855e-002
7.983852e+002, 4.139088e-002
8.003137e+002, 4.087950e-002
8.022421e+002, 4.049489e-002
8.041706e+002, 4.017830e-002
8.060991e+002, 3.980995e-002
8.080275e+002, 3.955220e-002
8.099560e+002, 3.936945e-002
8.118845e+002, 3.902917e-002
8.138129e+002, 3.853672e-002
8.157414e+002, 3.829398e-002
8.176699e+002, 3.826015e-002
8.195983e+002, 3.821203e-002
8.215268e+002, 3.815992e-002
8.234553e+002, 3.823671e-002
8.253837e+002, 3.815659e-002
8.273122e+002, 3.815987e-002
8.292407e+002, 3.831668e-002
8.311691e+002, 3.833823e-002
8.330976e+002, 3.828203e-002
8.350261e+002, 3.846527e-002
8.369545e+002, 3.858099e-002
8.388830e+002, 3.867818e-002
8.408115e+002, 3.877363e-002
8.427399e+002, 3.894034e-002
8.446684e+002, 3.918678e-002
8.465969e+002, 3.942937e-002
8.485253e+002, 3.955444e-002
8.504538e+002, 3.969467e-002
8.523823e+002, 4.004722e-002
8.543107e+002, 4.048165e-002
8.562392e+002, 4.080630e-002
8.581677e+002, 4.142664e-002
8.600961e+002, 4.184447e-002
8.620246e+002, 4.222002e-002
8.639531e+002, 4.261482e-002
8.658815e+002, 4.319115e-002
8.678100e+002, 4.410696e-002
8.697385e+002, 4.495653e-002
8.716669e+002, 4.585955e-002
8.735954e+002, 4.708190e-002
8.755239e+002, 4.847216e-002
8.774523e+002, 4.980277e-002
8.793808e+002, 5.124012e-002
8.813093e+002, 5.312762e-002
8.832377e+002, 5.537103e-002
8.851662e+002, 5.790119e-002
8.870947e+002, 6.084024e-002
8.890231e+002, 6.410565e-002
8.909516e+002, 6.793415e-002
8.928801e+002, 7.233652e-002
8.948085e+002, 7.718660e-002
8.967370e+002, 8.295473e-002
8.986655e+002, 8.973293e-002
9.005939e+002, 9.729729e-002
9.025224e+002, 1.058173e-001
9.044509e+002, 1.155778e-001
9.063793e+002, 1.269075e-001
9.083078e+002, 1.399375e-001
9.102363e+002, 1.549558e-001
9.121647e+002, 1.720023e-001
9.140932e+002, 1.912278e-001
9.160217e+002, 2.125438e-001
9.179501e+002, 2.347508e-001
9.198786e+002, 2.566824e-001
9.218071e+002, 2.767664e-001
9.237355e+002, 2.927270e-001
9.256640e+002, 3.028424e-001
9.275925e+002, 3.066760e-001
9.295209e+002, 3.048371e-001
9.314494e+002, 2.995639e-001
9.333779e+002, 2.932627e-001
9.353063e+002, 2.879182e-001
9.372348e+002, 2.849358e-001
9.391633e+002, 2.853693e-001
9.410917e+002, 2.883868e-001
9.430202e+002, 2.918404e-001
9.449487e+002, 2.935941e-001
9.468771e+002, 2.919520e-001
9.488056e+002, 2.858076e-001
9.507341e+002, 2.748549e-001
9.526625e+002, 2.594390e-001
9.545910e+002, 2.396828e-001
9.565195e+002, 2.156137e-001
9.584479e+002, 1.884064e-001
9.603764e+002, 1.600352e-001
9.623049e+002, 1.335232e-001
9.642333e+002, 1.111368e-001
9.661618e+002, 9.403645e-002
9.680903e+002, 8.192317e-002
9.700187e+002, 7.385384e-002
9.719472e+002, 6.912445e-002
9.738757e+002, 6.713160e-002
9.758041e+002, 6.734344e-002
9.777326e+002, 6.990183e-002
9.796611e+002, 7.488462e-002
9.815895e+002, 8.260559e-002
9.835180e+002, 9.389827e-002
9.854465e+002, 1.093901e-001
9.873749e+002, 1.298948e-001
9.893034e+002, 1.556982e-001
9.912319e+002, 1.851641e-001
9.931603e+002, 2.148602e-001
9.950888e+002, 2.400516e-001
9.970173e+002, 2.584046e-001
9.989457e+002, 2.712281e-001
1.000874e+003, 2.811103e-001
1.002803e+003, 2.889300e-001
1.004731e+003, 2.936391e-001
1.006660e+003, 2.930837e-001
1.008588e+003, 2.869394e-001
1.010517e+003, 2.761202e-001
1.012445e+003, 2.629864e-001
1.014373e+003, 2.501524e-001
1.016302e+003, 2.397866e-001
1.018230e+003, 2.327632e-001
1.020159e+003, 2.290865e-001
1.022087e+003, 2.274304e-001
1.024016e+003, 2.265842e-001
1.025944e+003, 2.252816e-001
1.027873e+003, 2.219979e-001
1.029801e+003, 2.153818e-001
1.031730e+003, 2.045233e-001
1.033658e+003, 1.888040e-001
1.035587e+003, 1.701044e-001
1.037515e+003, 1.517841e-001
1.039443e+003, 1.371109e-001
1.041372e+003, 1.280761e-001
1.043300e+003, 1.251952e-001
1.045229e+003, 1.284176e-001
1.047157e+003, 1.365594e-001
1.049086e+003, 1.485956e-001
1.051014e+003, 1.633179e-001
1.052943e+003, 1.792128e-001
1.054871e+003, 1.947956e-001
1.056800e+003, 2.084382e-001
1.058728e+003, 2.192868e-001
1.060657e+003, 2.271646e-001
1.062585e+003, 2.325987e-001
1.064514e+003, 2.356964e-001
1.066442e+003, 2.361282e-001
1.068370e+003, 2.333926e-001
1.070299e+003, 2.279091e-001
1.072227e+003, 2.209192e-001
1.074156e+003, 2.141713e-001
1.076084e+003, 2.086572e-001
1.078013e+003, 2.051004e-001
1.079941e+003, 2.029583e-001
1.081870e+003, 2.017996e-001
1.083798e+003, 2.018038e-001
1.085727e+003, 2.031752e-001
1.087655e+003, 2.058722e-001
1.089584e+003, 2.100054e-001
1.091512e+003, 2.155156e-001
1.093441e+003, 2.215898e-001
1.095369e+003, 2.268478e-001
1.097297e+003, 2.309653e-001
1.099226e+003, 2.337999e-001
1.101154e+003, 2.346168e-001
1.103083e+003, 2.332485e-001
1.105011e+003, 2.303910e-001
1.106940e+003, 2.255688e-001
1.108868e+003, 2.192337e-001
1.110797e+003, 2.119051e-001
1.112725e+003, 2.040196e-001
1.114654e+003, 1.959568e-001
1.116582e+003, 1.881648e-001
1.118511e+003, 1.807643e-001
1.120439e+003, 1.742688e-001
1.122368e+003, 1.686913e-001
1.124296e+003, 1.641210e-001
1.126224e+003, 1.601691e-001
1.128153e+003, 1.561536e-001
1.130081e+003, 1.516858e-001
1.132010e+003, 1.464542e-001
1.133938e+003, 1.400253e-001
1.135867e+003, 1.328304e-001
1.137795e+003, 1.252812e-001
1.139724e+003, 1.174926e-001
1.141652e+003, 1.095662e-001
1.143581e+003, 1.018439e-001
1.145509e+003, 9.462338e-002
1.147438e+003, 8.796833e-002
1.149366e+003, 8.159648e-002
1.151295e+003, 7.561287e-002
1.153223e+003, 6.970368e-002
1.155151e+003, 6.341643e-002
1.157080e+003, 5.674737e-002
1.159008e+003, 5.011966e-002
1.160937e+003, 4.398069e-002
1.162865e+003, 3.850869e-002
1.164794e+003, 3.366255e-002
1.166722e+003, 2.973571e-002
1.168651e+003, 2.666401e-002
1.170579e+003, 2.410051e-002
1.172508e+003, 2.196405e-002
1.174436e+003, 2.022463e-002
1.176365e+003, 1.878450e-002
1.178293e+003, 1.757784e-002
1.180222e+003, 1.640124e-002
1.182150e+003, 1.539955e-002
1.184078e+003, 1.456223e-002
1.186007e+003, 1.379289e-002
1.187935e+003, 1.316801e-002
1.189864e+003, 1.255597e-002
1.191792e+003, 1.195422e-002
1.193721e+003, 1.147714e-002
1.195649e+003, 1.087784e-002
1.197578e+003, 1.042664e-002
1.199506e+003, 1.011575e-002
1.201435e+003, 9.793594e-003
1.203363e+003, 9.426191e-003
1.205292e+003, 9.127330e-003
1.207220e+003, 8.960069e-003
1.209149e+003, 8.701204e-003
1.211077e+003, 8.329867e-003
1.213005e+003, 8.080737e-003
1.214934e+003, 7.944449e-003
1.216862e+003, 7.868038e-003
1.218791e+003, 7.767231e-003
1.220719e+003, 7.590758e-003
1.222648e+003, 7.329384e-003
1.224576e+003, 7.117210e-003
1.226505e+003, 7.072040e-003
1.228433e+003, 7.009709e-003
1.230362e+003, 6.811962e-003
1.232290e+003, 6.627951e-003
1.234219e+003, 6.474145e-003
1.236147e+003, 6.405917e-003
1.238076e+003, 6.388604e-003
1.240004e+003, 6.393194e-003
1.241932e+003, 6.272571e-003
1.243861e+003, 6.085767e-003
1.245789e+003, 6.018023e-003
1.247718e+003, 6.014970e-003
1.249646e+003, 5.990691e-003
1.251575e+003, 5.904229e-003
1.253503e+003, 5.840747e-003
1.255432e+003, 5.739386e-003
1.257360e+003, 5.523319e-003
1.259289e+003, 5.417418e-003
1.261217e+003, 5.387361e-003
1.263146e+003, 5.406124e-003
1.265074e+003, 5.520684e-003
1.267003e+003, 5.510071e-003
1.268931e+003, 5.507384e-003
1.270859e+003, 5.427560e-003
1.272788e+003, 5.433593e-003
1.274716e+003, 5.501039e-003
1.276645e+003, 5.452558e-003
1.278573e+003, 5.303521e-003
1.280502e+003, 5.324719e-003
1.282430e+003, 5.414606e-003
1.284359e+003, 5.373178e-003
1.286287e+003, 5.204264e-003
1.288216e+003, 5.181316e-003
1.290144e+003, 5.138441e-003
1.292073e+003, 5.158357e-003
1.294001e+003, 5.353196e-003
1.295930e+003, 5.282081e-003
1.297858e+003, 5.175465e-003
1.299786e+003, 5.239458e-003
1.301715e+003, 5.309675e-003
1.303643e+003, 5.305570e-003
1.305572e+003, 5.235017e-003
1.307500e+003, 5.210285e-003
1.309429e+003, 5.256952e-003
1.311357e+003, 5.330496e-003
1.313286e+003, 5.355573e-003
1.315214e+003, 5.336848e-003
1.317143e+003, 5.362182e-003
1.319071e+003, 5.312085e-003
1.321000e+003, 5.279455e-003
1.322928e+003, 5.317356e-003
1.324857e+003, 5.298099e-003
1.326785e+003, 5.235559e-003
1.328714e+003, 5.247553e-003
1.330642e+003, 5.285982e-003
1.332570e+003, 5.432873e-003
1.334499e+003, 5.426741e-003
1.336427e+003, 5.430945e-003
1.338356e+003, 5.473626e-003
1.340284e+003, 5.405565e-003
1.342213e+003, 5.395237e-003
1.344141e+003, 5.517461e-003
1.346070e+003, 5.491911e-003
1.347998e+003, 5.450850e-003
1.349927e+003, 5.535293e-003
1.351855e+003, 5.572208e-003
1.353784e+003, 5.548537e-003
1.355712e+003, 5.498293e-003
1.357641e+003, 5.468599e-003
1.359569e+003, 5.675661e-003
1.361497e+003, 5.910739e-003
1.363426e+003, 6.040708e-003
1.365354e+003, 6.012263e-003
1.367283e+003, 5.955306e-003
1.369211e+003, 5.944587e-003
1.371140e+003, 5.964873e-003
1.373068e+003, 6.068470e-003
1.374997e+003, 6.098476e-003
1.376925e+003, 6.059689e-003
1.378854e+003, 6.165406e-003
1.380782e+003, 6.237525e-003
1.382711e+003, 6.351644e-003
1.384639e+003, 6.527887e-003
1.386568e+003, 6.831343e-003
1.388496e+003, 6.875921e-003
1.390424e+003, 6.841613e-003
1.392353e+003, 6.973817e-003
1.394281e+003, 7.158926e-003
1.396210e+003, 7.223827e-003
1.398138e+003, 7.293192e-003
1.400067e+003, 7.371420e-003
1.401995e+003, 7.395627e-003
1.403924e+003, 7.536838e-003
1.405852e+003, 7.679765e-003
1.407781e+003, 7.789306e-003
1.409709e+003, 7.819228e-003
1.411638e+003, 7.890367e-003
1.413566e+003, 8.037317e-003
1.415495e+003, 8.258815e-003
1.417423e+003, 8.764322e-003
1.419351e+003, 9.117688e-003
1.421280e+003, 8.772266e-003
1.423208e+003, 8.672165e-003
1.425137e+003, 8.795780e-003
1.427065e+003, 8.786864e-003
1.428994e+003, 8.925050e-003
1.430922e+003, 9.036756e-003
1.432851e+003, 9.139887e-003
1.434779e+003, 9.468927e-003
1.436708e+003, 9.809569e-003
1.438636e+003, 9.514709e-003
1.440565e+003, 9.316355e-003
1.442493e+003, 9.326309e-003
1.444422e+003, 9.358304e-003
1.446350e+003, 9.578829e-003
1.448278e+003, 9.764643e-003
1.450207e+003, 9.812929e-003
1.452135e+003, 9.825300e-003
1.454064e+003, 1.000093e-002
1.455992e+003, 1.090158e-002
1.457921e+003, 1.095460e-002
1.459849e+003, 1.017629e-002
1.461778e+003, 9.935146e-003
1.463706e+003, 1.024645e-002
1.465635e+003, 1.036010e-002
1.467563e+003, 1.021808e-002
1.469492e+003, 1.035883e-002
1.471420e+003, 1.082716e-002
1.473349e+003, 1.094513e-002
1.475277e+003, 1.072219e-002
1.477205e+003, 1.059115e-002
1.479134e+003, 1.051925e-002
1.481062e+003, 1.059533e-002
1.482991e+003, 1.066678e-002
1.484919e+003, 1.067841e-002
1.486848e+003, 1.092598e-002
1.488776e+003, 1.125375e-002
1.490705e+003, 1.125698e-002
1.492633e+003, 1.114933e-002
1.494562e+003, 1.156544e-002
1.496490e+003, 1.206855e-002
1.498419e+003, 1.194569e-002
1.500347e+003, 1.166850e-002
1.502276e+003, 1.160928e-002
1.504204e+003, 1.229930e-002
1.506132e+003, 1.324713e-002
1.508061e+003, 1.296339e-002
1.509989e+003, 1.243750e-002
1.511918e+003, 1.255036e-002
1.513846e+003, 1.260775e-002
1.515775e+003, 1.272060e-002
1.517703e+003, 1.300488e-002
1.519632e+003, 1.351203e-002
1.521560e+003, 1.382893e-002
1.523489e+003, 1.357948e-002
1.525417e+003, 1.365370e-002
1.527346e+003, 1.365094e-002
1.529274e+003, 1.359108e-002
1.531203e+003, 1.374988e-002
1.533131e+003, 1.423395e-002
1.535059e+003, 1.435658e-002
1.536988e+003, 1.463178e-002
1.538916e+003, 1.568119e-002
1.540845e+003, 1.596214e-002
1.542773e+003, 1.560097e-002
1.544702e+003, 1.557032e-002
1.546630e+003, 1.551216e-002
1.548559e+003, 1.575644e-002
1.550487e+003, 1.613853e-002
1.552416e+003, 1.637335e-002
1.554344e+003, 1.682717e-002
1.556273e+003, 1.750498e-002
1.558201e+003, 1.868663e-002
1.560130e+003, 1.877790e-002
1.562058e+003, 1.790536e-002
1.563986e+003, 1.784178e-002
1.565915e+003, 1.820932e-002
1.567843e+003, 1.861995e-002
1.569772e+003, 1.909268e-002
1.571700e+003, 1.916169e-002
1.573629e+003, 1.952265e-002
1.575557e+003, 2.046044e-002
1.577486e+003, 2.061747e-002
1.579414e+003, 2.047393e-002
1.581343e+003, 2.087677e-002
1.583271e+003, 2.120327e-002
1.585200e+003, 2.146984e-002
1.587128e+003, 2.191462e-002
1.589057e+003, 2.249631e-002
1.590985e+003, 2.317007e-002
1.592913e+003, 2.385661e-002
1.594842e+003, 2.446445e-002
1.596770e+003, 2.500858e-002
1.598699e+003, 2.568998e-002
1.600627e+003, 2.650395e-002
1.602556e+003, 2.733411e-002
1.604484e+003, 2.832877e-002
1.606413e+003, 2.918953e-002
1.608341e+003, 3.000609e-002
1.610270e+003, 3.113007e-002
1.612198e+003, 3.228940e-002
1.614127e+003, 3.351257e-002
1.616055e+003, 3.516208e-002
1.617984e+003, 3.613926e-002
1.619912e+003, 3.673149e-002
1.621840e+003, 3.780712e-002
1.623769e+003, 3.897257e-002
1.625697e+003, 3.986514e-002
1.627626e+003, 4.067418e-002
1.629554e+003, 4.137789e-002
1.631483e+003, 4.202905e-002
1.633411e+003, 4.287821e-002
1.635340e+003, 4.374026e-002
1.637268e+003, 4.357274e-002
1.639197e+003, 4.322925e-002
1.641125e+003, 4.304028e-002
1.643054e+003, 4.288957e-002
1.644982e+003, 4.302528e-002
1.646911e+003, 4.250920e-002
1.648839e+003, 4.125968e-002
1.650767e+003, 4.080450e-002
1.652696e+003, 4.100184e-002
1.654624e+003, 3.906666e-002
1.656553e+003, 3.678697e-002
1.658481e+003, 3.551221e-002
1.660410e+003, 3.451059e-002
1.662338e+003, 3.340519e-002
1.664267e+003, 3.216074e-002
1.666195e+003, 3.109198e-002
1.668124e+003, 3.045292e-002
1.670052e+003, 2.940964e-002
1.671981e+003, 2.799913e-002
1.673909e+003, 2.713673e-002
1.675838e+003, 2.626875e-002
1.677766e+003, 2.483162e-002
1.679694e+003, 2.371021e-002
1.681623e+003, 2.284293e-002
1.683551e+003, 2.264821e-002
1.685480e+003, 2.151208e-002
1.687408e+003, 1.970446e-002
1.689337e+003, 1.866431e-002
1.691265e+003, 1.765461e-002
1.693194e+003, 1.678323e-002
1.695122e+003, 1.666443e-002
1.697051e+003, 1.570471e-002
1.698979e+003, 1.490298e-002
1.700908e+003, 1.426875e-002
1.702836e+003, 1.265077e-002
1.704765e+003, 1.185531e-002
1.706693e+003, 1.123370e-002
1.708621e+003, 1.044954e-002
1.710550e+003, 9.758855e-003
1.712478e+003, 9.293123e-003
1.714407e+003, 8.912622e-003
1.716335e+003, 9.021757e-003
1.718264e+003, 8.470833e-003
1.720192e+003, 7.364560e-003
1.722121e+003, 6.840076e-003
1.724049e+003, 6.464759e-003
1.725978e+003, 6.071714e-003
1.727906e+003, 5.810680e-003
1.729835e+003, 5.543543e-003
1.731763e+003, 5.651983e-003
1.733692e+003, 5.969890e-003
1.735620e+003, 5.133080e-003
1.737548e+003, 4.292097e-003
1.739477e+003, 4.091986e-003
1.741405e+003, 3.816956e-003
1.743334e+003, 3.484250e-003
1.745262e+003, 2.951338e-003
1.747191e+003, 2.587103e-003
1.749119e+003, 2.659384e-003
1.751048e+003, 2.713321e-003
1.752976e+003, 2.267262e-003
1.754905e+003, 2.087822e-003
1.756833e+003, 2.126191e-003
1.758762e+003, 1.809121e-003
1.760690e+003, 1.771578e-003
1.762619e+003, 1.848849e-003
1.764547e+003, 1.663004e-003
1.766475e+003, 1.683536e-003
1.768404e+003, 1.704520e-003
1.770332e+003, 1.603393e-003
1.772261e+003, 1.677525e-003
1.774189e+003, 1.360345e-003
1.776118e+003, 9.438334e-004
1.778046e+003, 7.548360e-004
1.779975e+003, 7.707130e-004
1.781903e+003, 8.188929e-004
1.783832e+003, 8.614389e-004
1.785760e+003, 7.320706e-004
1.787689e+003, 5.019601e-004
1.789617e+003, 5.309291e-004
1.791546e+003, 8.779505e-004
1.793474e+003, 9.216771e-004
1.795402e+003, 6.820954e-004
1.797331e+003, 3.963107e-004
1.799259e+003, 1.241477e-004
1.801188e+003, 1.079205e-004
1.803116e+003, 1.674989e-004
1.805045e+003, 1.137294e-004
1.806973e+003, -1.041947e-004
1.808902e+003, -2.013144e-004
1.810830e+003, -8.052381e-005
1.812759e+003, -2.503641e-004
1.814687e+003, -4.794323e-004
1.816616e+003, -6.307858e-004
1.818544e+003, -5.927924e-004
1.820473e+003, -4.875038e-004
1.822401e+003, -3.986337e-004
1.824329e+003, -1.511190e-004
1.826258e+003, -2.306392e-004
1.828186e+003, -4.400813e-004
1.830115e+003, -3.563503e-004
1.832043e+003, -3.095689e-004
1.833972e+003, -6.622465e-004
1.835900e+003, -1.015193e-003
1.837829e+003, -9.031816e-004
1.839757e+003, -6.566262e-004
1.841686e+003, -4.178432e-004
1.843614e+003, -5.522096e-005
1.845543e+003, -2.998103e-004
1.847471e+003, -6.978737e-004
1.849400e+003, -6.084007e-004
1.851328e+003, -5.948624e-004
1.853256e+003, -7.932683e-004
1.855185e+003, -6.865588e-004
1.857113e+003, -5.947862e-004
1.859042e+003, -7.217450e-004
1.860970e+003, -9.526670e-004
1.862899e+003, -9.197302e-004
1.864827e+003, -7.533929e-004
1.866756e+003, -5.738803e-004
1.868684e+003, -2.856590e-004
1.870613e+003, -3.215013e-004
1.872541e+003, -5.356948e-004
1.874470e+003, -7.451220e-004
1.876398e+003, -9.786114e-004
1.878327e+003, -9.146691e-004
1.880255e+003, -1.014137e-003
1.882183e+003, -1.647015e-003
1.884112e+003, -1.818344e-003
1.886040e+003, -1.767307e-003
1.887969e+003, -1.545678e-003
1.889897e+003, -1.426713e-003
1.891826e+003, -1.552481e-003
1.893754e+003, -1.163878e-003
1.895683e+003, -8.529064e-004
1.897611e+003, -1.090099e-003
1.899540e+003, -1.363773e-003
1.901468e+003, -1.605874e-003
1.903397e+003, -1.765154e-003
1.905325e+003, -1.327173e-003
1.907254e+003, -1.121680e-003
1.909182e+003, -1.601145e-003
1.911110e+003, -1.553989e-003
1.913039e+003, -6.839276e-004
1.914967e+003, -4.538899e-004
1.916896e+003, -5.546834e-004
1.918824e+003, -3.378493e-004
1.920753e+003, -4.404111e-004
1.922681e+003, -5.934329e-004
1.924610e+003, -9.753818e-004
1.926538e+003, -9.318378e-004
1.928467e+003, -3.036010e-004
1.930395e+003, 1.622648e-004
1.932324e+003, 2.965126e-004
1.934252e+003, 3.897378e-004
1.936181e+003, 4.817637e-004
1.938109e+003, 1.054777e-003
1.940037e+003, 1.534474e-003
1.941966e+003, 1.619549e-003
1.943894e+003, 1.182729e-003
1.945823e+003, 1.005988e-003
1.947751e+003, 8.347617e-004
1.949680e+003, 1.154770e-003
1.951608e+003, 1.431287e-003
1.953537e+003, 1.558587e-003
1.955465e+003, 1.238255e-003
1.957394e+003, 1.387022e-003
1.959322e+003, 2.322311e-003
1.961251e+003, 2.418312e-003
1.963179e+003, 1.245843e-003
1.965108e+003, 1.153762e-003
1.967036e+003, 1.315695e-003
1.968964e+003, 1.478357e-003
1.970893e+003, 1.836450e-003
1.972821e+003, 1.710224e-003
1.974750e+003, 1.416048e-003
1.976678e+003, 8.982699e-004
1.978607e+003, 1.451024e-003
1.980535e+003, 1.817510e-003
1.982464e+003, 4.207774e-004
1.984392e+003, 7.037795e-005
1.986321e+003, -2.826308e-004
1.988249e+003, -1.203226e-003
1.990178e+003, -1.775747e-003
1.992106e+003, -8.864284e-004
1.994035e+003, -4.098099e-004
1.995963e+003, -4.610359e-004
1.997891e+003, -8.226563e-004
1.999820e+003, -1.407486e-003
2.001748e+003, -2.028339e-003
2.003677e+003, -2.664651e-003
2.005605e+003, -2.886790e-003
2.007534e+003, -1.805617e-003
2.009462e+003, -6.163954e-004
2.011391e+003, -9.847237e-004
2.013319e+003, -7.401337e-004
2.015248e+003, -2.033319e-004
2.017176e+003, -9.977678e-005
2.019105e+003, -5.921274e-004
2.021033e+003, -1.131146e-003
2.022962e+003, -9.730849e-004
2.024890e+003, -6.846315e-004
2.026818e+003, -9.960989e-004
2.028747e+003, 7.872004e-006
2.030675e+003, 8.725226e-004
2.032604e+003, 5.697268e-004
2.034532e+003, -4.514894e-004
2.036461e+003, -9.202920e-004
2.038389e+003, -1.452677e-005
2.040318e+003, 1.072176e-003
2.042246e+003, 7.492029e-004
2.044175e+003, -1.560408e-004
2.046103e+003, 2.657701e-004
2.048031e+003, 6.054905e-004
2.049960e+003, 1.553320e-003
2.051888e+003, 1.495118e-003
2.053817e+003, 1.228156e-003
2.055745e+003, 1.252454e-003
2.057674e+003, 1.301104e-003
2.059602e+003, 8.553294e-004
2.061531e+003, 5.626152e-004
2.063459e+003, 5.811304e-004
2.065388e+003, 1.533388e-005
2.067316e+003, -2.085934e-004
2.069245e+003, 4.312490e-004
2.071173e+003, 1.061643e-003
2.073102e+003, 1.131783e-003
2.075030e+003, 1.637010e-003
2.076958e+003, 1.994119e-003
2.078887e+003, 1.487367e-003
2.080815e+003, 1.369341e-003
2.082744e+003, 1.649075e-003
2.084672e+003, 2.211876e-003
2.086601e+003, 1.896635e-003
2.088529e+003, 1.961908e-003
2.090458e+003, 2.032924e-003
2.092386e+003, 1.787532e-003
2.094315e+003, 1.609149e-003
2.096243e+003, 1.637225e-003
2.098172e+003, 1.904458e-003
2.100100e+003, 2.039787e-003
2.102029e+003, 1.328128e-003
2.103957e+003, 1.149366e-003
2.105885e+003, 1.642872e-003
2.107814e+003, 1.659974e-003
2.109742e+003, 6.496324e-004
2.111671e+003, 3.556174e-005
2.113599e+003, 5.023876e-004
2.115528e+003, 7.804988e-004
2.117456e+003, 5.981163e-004
2.119385e+003, 2.218045e-004
2.121313e+003, 2.020679e-005
2.123242e+003, 8.293281e-004
2.125170e+003, 4.554975e-004
2.127099e+003, -7.330517e-004
2.129027e+003, -5.043510e-004
2.130956e+003, 5.624844e-004
2.132884e+003, 1.268488e-003
2.134813e+003, 9.042027e-004
2.136741e+003, 1.225891e-004
2.138669e+003, -1.208698e-004
2.140598e+003, 4.307569e-004
2.142526e+003, 1.220126e-003
2.144455e+003, 7.056957e-004
2.146383e+003, 7.036095e-005
2.148312e+003, 9.936467e-005
2.150240e+003, -2.297056e-004
2.152169e+003, -5.940683e-004
2.154097e+003, -4.170267e-004
2.156026e+003, 1.721443e-004
2.157954e+003, 1.650896e-003
2.159883e+003, 2.251488e-003
2.161811e+003, 1.025831e-003
2.163740e+003, 1.658782e-003
2.165668e+003, 2.881984e-003
2.167596e+003, 2.041135e-003
2.169525e+003, 9.979573e-004
2.171453e+003, 6.033392e-004
2.173382e+003, 1.459031e-003
2.175310e+003, 7.738434e-004
2.177239e+003, -7.751924e-004
2.179167e+003, -1.386357e-004
2.181096e+003, 1.306161e-003
2.183024e+003, 1.334133e-003
2.184953e+003, 5.336106e-004
2.186881e+003, 4.347693e-004
2.188810e+003, 1.112840e-003
2.190738e+003, 3.380815e-004
2.192667e+003, -7.786765e-004
2.194595e+003, -3.117830e-004
2.196523e+003, 1.090502e-003
2.198452e+003, 7.455361e-004
2.200380e+003, 5.782279e-005
2.202309e+003, 4.073128e-004
2.204237e+003, 5.543255e-004
2.206166e+003, 3.788634e-004
2.208094e+003, -2.922264e-004
2.210023e+003, -1.198635e-004
2.211951e+003, 2.052102e-004
2.213880e+003, -6.077350e-004
2.215808e+003, -5.087424e-004
2.217737e+003, 1.401724e-004
2.219665e+003, 1.179365e-003
2.221594e+003, 1.205329e-003
2.223522e+003, 3.425875e-004
2.225450e+003, -3.469223e-005
2.227379e+003, -6.869552e-005
2.229307e+003, -4.096776e-004
2.231236e+003, -5.194100e-004
2.233164e+003, -1.218363e-004
2.235093e+003, 3.797105e-004
2.237021e+003, 1.173446e-003
2.238950e+003, 1.696241e-003
2.240878e+003, 1.365482e-003
2.242807e+003, 9.837110e-004
2.244735e+003, 6.699620e-004
2.246664e+003, -8.197525e-005
2.248592e+003, 4.091277e-005
2.250521e+003, 8.959380e-004
2.252449e+003, 5.904487e-004
2.254377e+003, -3.690005e-005
2.256306e+003, -4.795450e-005
2.258234e+003, 2.146458e-004
2.260163e+003, 1.817356e-004
2.262091e+003, 2.483223e-004
2.264020e+003, 1.366594e-004
2.265948e+003, 2.098607e-005
2.267877e+003, 4.501580e-004
2.269805e+003, 6.288366e-004
2.271734e+003, 5.900431e-004
2.273662e+003, 1.115279e-003
2.275591e+003, 1.271813e-003
2.277519e+003, 1.068882e-003
2.279448e+003, 1.022088e-003
2.281376e+003, 1.422086e-003
2.283304e+003, 1.257360e-003
2.285233e+003, 1.273463e-003
2.287161e+003, 1.229222e-003
2.289090e+003, 6.204475e-004
2.291018e+003, 9.410856e-004
2.292947e+003, 1.570270e-003
2.294875e+003, 1.511712e-003
2.296804e+003, 1.333750e-003
2.298732e+003, 1.182592e-003
2.300661e+003, 1.553057e-003
2.302589e+003, 1.929704e-003
2.304518e+003, 1.921016e-003
2.306446e+003, 1.538227e-003
2.308375e+003, 1.378045e-003
2.310303e+003, 1.634888e-003
2.312231e+003, 1.845394e-003
2.314160e+003, 2.048596e-003
2.316088e+003, 2.131833e-003
2.318017e+003, 2.385817e-003
2.319945e+003, 2.479310e-003
2.321874e+003, 2.546716e-003
2.323802e+003, 2.515999e-003
2.325731e+003, 2.263783e-003
2.327659e+003, 2.283186e-003
2.329588e+003, 2.499283e-003
2.331516e+003, 2.335521e-003
2.333445e+003, 2.307477e-003
2.335373e+003, 2.689948e-003
2.337302e+003, 2.832918e-003
2.339230e+003, 2.809254e-003
2.341158e+003, 2.756596e-003
2.343087e+003, 2.995973e-003
2.345015e+003, 2.977804e-003
2.346944e+003, 2.500234e-003
2.348872e+003, 1.766570e-003
2.350801e+003, 1.848987e-003
2.352729e+003, 2.285789e-003
2.354658e+003, 2.673593e-003
2.356586e+003, 2.804755e-003
2.358515e+003, 2.757831e-003
2.360443e+003, 3.087237e-003
2.362372e+003, 3.488673e-003
2.364300e+003, 3.613845e-003
2.366229e+003, 3.455874e-003
2.368157e+003, 3.120379e-003
2.370085e+003, 2.795618e-003
2.372014e+003, 2.335511e-003
2.373942e+003, 2.101501e-003
2.375871e+003, 2.120701e-003
2.377799e+003, 1.941474e-003
2.379728e+003, 1.860306e-003
2.381656e+003, 1.682941e-003
2.383585e+003, 1.495397e-003
2.385513e+003, 1.480403e-003
2.387442e+003, 1.523508e-003
2.389370e+003, 1.576234e-003
2.391299e+003, 1.493700e-003
2.393227e+003, 1.367141e-003
2.395156e+003, 1.449998e-003
2.397084e+003, 1.432052e-003
2.399012e+003, 1.154787e-003
2.400941e+003, 1.190775e-003
2.402869e+003, 1.211144e-003
2.404798e+003, 1.552938e-003
2.406726e+003, 1.616005e-003
2.408655e+003, 1.474168e-003
2.410583e+003, 1.589176e-003
2.412512e+003, 1.503967e-003
2.414440e+003, 1.458429e-003
2.416369e+003, 1.612647e-003
2.418297e+003, 1.528609e-003
2.420226e+003, 1.627661e-003
2.422154e+003, 1.836806e-003
2.424083e+003, 2.000759e-003
2.426011e+003, 1.536053e-003
2.427939e+003, 1.447877e-003
2.429868e+003, 1.947256e-003
2.431796e+003, 2.205058e-003
2.433725e+003, 1.627746e-003
2.435653e+003, 1.350558e-003
2.437582e+003, 1.606819e-003
2.439510e+003, 1.984184e-003
2.441439e+003, 1.927893e-003
2.443367e+003, 1.760996e-003
2.445296e+003, 1.886642e-003
2.447224e+003, 1.600886e-003
2.449153e+003, 1.333361e-003
2.451081e+003, 1.929705e-003
2.453010e+003, 2.257465e-003
2.454938e+003, 1.624872e-003
2.456866e+003, 1.095154e-003
2.458795e+003, 1.586815e-003
2.460723e+003, 1.835671e-003
2.462652e+003, 1.783441e-003
2.464580e+003, 1.944107e-003
2.466509e+003, 2.032677e-003
2.468437e+003, 2.202181e-003
2.470366e+003, 2.088527e-003
2.472294e+003, 1.265154e-003
2.474223e+003, 8.273998e-004
2.476151e+003, 1.018151e-003
2.478080e+003, 1.332604e-003
2.480008e+003, 1.708550e-003
2.481937e+003, 1.741512e-003
2.483865e+003, 1.557680e-003
2.485793e+003, 1.287819e-003
2.487722e+003, 1.713252e-003
2.489650e+003, 2.189612e-003
2.491579e+003, 1.980896e-003
2.493507e+003, 1.641003e-003
2.495436e+003, 1.399272e-003
2.497364e+003, 1.423322e-003
2.499293e+003, 1.438773e-003
2.501221e+003, 1.540149e-003
2.503150e+003, 1.809817e-003
2.505078e+003, 1.933272e-003
2.507007e+003, 1.551078e-003
2.508935e+003, 1.184560e-003
2.510864e+003, 1.363978e-003
2.512792e+003, 1.915093e-003
2.514720e+003, 2.196658e-003
2.516649e+003, 1.980305e-003
2.518577e+003, 1.550394e-003
2.520506e+003, 1.538304e-003
2.522434e+003, 1.873389e-003
2.524363e+003, 1.909528e-003
2.526291e+003, 1.420759e-003
2.528220e+003, 1.046253e-003
2.530148e+003, 1.153883e-003
2.532077e+003, 1.550915e-003
2.534005e+003, 1.551025e-003
2.535934e+003, 1.485661e-003
2.537862e+003, 1.632234e-003
2.539791e+003, 1.982027e-003
2.541719e+003, 1.939853e-003
2.543647e+003, 1.586972e-003
2.545576e+003, 1.569277e-003
2.547504e+003, 1.963770e-003
2.549433e+003, 2.106505e-003
2.551361e+003, 1.967453e-003
2.553290e+003, 1.659919e-003
2.555218e+003, 1.362867e-003
2.557147e+003, 1.474613e-003
2.559075e+003, 1.922420e-003
2.561004e+003, 1.864563e-003
2.562932e+003, 1.601391e-003
2.564861e+003, 1.314072e-003
2.566789e+003, 1.174348e-003
2.568718e+003, 1.230123e-003
2.570646e+003, 1.469658e-003
2.572574e+003, 1.830073e-003
2.574503e+003, 1.605747e-003
2.576431e+003, 1.293880e-003
2.578360e+003, 1.351321e-003
2.580288e+003, 1.821930e-003
2.582217e+003, 1.847653e-003
2.584145e+003, 1.492423e-003
2.586074e+003, 1.681302e-003
2.588002e+003, 1.659136e-003
2.589931e+003, 1.673030e-003
2.591859e+003, 1.726248e-003
2.593788e+003, 1.621941e-003
2.595716e+003, 1.738501e-003
2.597645e+003, 2.004555e-003
2.599573e+003, 2.084763e-003
2.601501e+003, 2.218192e-003
2.603430e+003, 2.221504e-003
2.605358e+003, 2.123281e-003
2.607287e+003, 1.838340e-003
2.609215e+003, 1.763182e-003
2.611144e+003, 1.988434e-003
2.613072e+003, 2.309053e-003
2.615001e+003, 2.312854e-003
2.616929e+003, 2.495577e-003
2.618858e+003, 2.633630e-003
2.620786e+003, 2.553948e-003
2.622715e+003, 2.599314e-003
2.624643e+003, 2.668703e-003
2.626572e+003, 2.510985e-003
2.628500e+003, 2.363528e-003
2.630428e+003, 2.395494e-003
2.632357e+003, 2.334089e-003
2.634285e+003, 2.437009e-003
2.636214e+003, 2.342715e-003
2.638142e+003, 2.430120e-003
2.640071e+003, 2.413779e-003
2.641999e+003, 2.369079e-003
2.643928e+003, 2.472830e-003
2.645856e+003, 2.662231e-003
2.647785e+003, 2.428919e-003
2.649713e+003, 2.584951e-003
2.651642e+003, 2.956733e-003
2.653570e+003, 2.910521e-003
2.655499e+003, 2.901273e-003
2.657427e+003, 2.983560e-003
2.659355e+003, 2.880370e-003
2.661284e+003, 2.614049e-003
2.663212e+003, 2.700800e-003
2.665141e+003, 2.843512e-003
2.667069e+003, 2.738416e-003
2.668998e+003, 2.731727e-003
2.670926e+003, 2.770099e-003
2.672855e+003, 2.793700e-003
2.674783e+003, 2.759843e-003
2.676712e+003, 2.682391e-003
2.678640e+003, 2.967699e-003
2.680569e+003, 3.123294e-003
2.682497e+003, 3.058901e-003
2.684426e+003, 3.083157e-003
2.686354e+003, 3.116370e-003
2.688282e+003, 3.021474e-003
2.690211e+003, 3.132434e-003
2.692139e+003, 3.303389e-003
2.694068e+003, 3.332730e-003
2.695996e+003, 3.407786e-003
2.697925e+003, 3.195025e-003
2.699853e+003, 3.083698e-003
2.701782e+003, 3.461955e-003
2.703710e+003, 3.749304e-003
2.705639e+003, 3.701097e-003
2.707567e+003, 3.746514e-003
2.709496e+003, 3.886010e-003
2.711424e+003, 4.006888e-003
2.713353e+003, 3.973778e-003
2.715281e+003, 3.791418e-003
2.717209e+003, 3.724690e-003
2.719138e+003, 3.647462e-003
2.721066e+003, 3.727406e-003
2.722995e+003, 4.074128e-003
2.724923e+003, 4.353486e-003
2.726852e+003, 4.373817e-003
2.728780e+003, 4.152911e-003
2.730709e+003, 4.322133e-003
2.732637e+003, 4.547678e-003
2.734566e+003, 4.513813e-003
2.736494e+003, 4.336825e-003
2.738423e+003, 4.529341e-003
2.740351e+003, 4.790524e-003
2.742280e+003, 4.734268e-003
2.744208e+003, 4.924051e-003
2.746136e+003, 5.186211e-003
2.748065e+003, 5.208086e-003
2.749993e+003, 5.147613e-003
2.751922e+003, 5.236789e-003
2.753850e+003, 5.426622e-003
2.755779e+003, 5.310216e-003
2.757707e+003, 5.001507e-003
2.759636e+003, 5.251857e-003
2.761564e+003, 5.739789e-003
2.763493e+003, 5.857170e-003
2.765421e+003, 5.805785e-003
2.767350e+003, 5.717266e-003
2.769278e+003, 5.932329e-003
2.771207e+003, 6.098167e-003
2.773135e+003, 6.158490e-003
2.775063e+003, 6.218630e-003
2.776992e+003, 6.141127e-003
2.778920e+003, 6.275736e-003
2.780849e+003, 6.357916e-003
2.782777e+003, 6.379972e-003
2.784706e+003, 6.672556e-003
2.786634e+003, 6.983889e-003
2.788563e+003, 6.930216e-003
2.790491e+003, 7.087833e-003
2.792420e+003, 7.320143e-003
2.794348e+003, 7.418091e-003
2.796277e+003, 7.399012e-003
2.798205e+003, 7.468223e-003
2.800134e+003, 7.538659e-003
2.802062e+003, 7.427122e-003
2.803990e+003, 7.378513e-003
2.805919e+003, 7.627395e-003
2.807847e+003, 7.709712e-003
2.809776e+003, 7.673167e-003
2.811704e+003, 7.856216e-003
2.813633e+003, 7.868679e-003
2.815561e+003, 8.110642e-003
2.817490e+003, 8.617213e-003
2.819418e+003, 8.784875e-003
2.821347e+003, 9.103536e-003
2.823275e+003, 9.201496e-003
2.825204e+003, 8.957352e-003
2.827132e+003, 9.209224e-003
2.829061e+003, 9.631341e-003
2.830989e+003, 9.415792e-003
2.832917e+003, 9.363131e-003
2.834846e+003, 1.000419e-002
2.836774e+003, 1.045316e-002
2.838703e+003, 1.034591e-002
2.840631e+003, 1.049582e-002
2.842560e+003, 1.059266e-002
2.844488e+003, 1.039980e-002
2.846417e+003, 1.047099e-002
2.848345e+003, 1.083831e-002
2.850274e+003, 1.098222e-002
2.852202e+003, 1.104022e-002
2.854131e+003, 1.118607e-002
2.856059e+003, 1.146431e-002
2.857988e+003, 1.147896e-002
2.859916e+003, 1.167229e-002
2.861844e+003, 1.198901e-002
2.863773e+003, 1.230519e-002
2.865701e+003, 1.245456e-002
2.867630e+003, 1.250196e-002
2.869558e+003, 1.254316e-002
2.871487e+003, 1.287120e-002
2.873415e+003, 1.309451e-002
2.875344e+003, 1.333354e-002
2.877272e+003, 1.365100e-002
2.879201e+003, 1.395610e-002
2.881129e+003, 1.413656e-002
2.883058e+003, 1.399999e-002
2.884986e+003, 1.392008e-002
2.886915e+003, 1.411088e-002
2.888843e+003, 1.422353e-002
2.890771e+003, 1.452827e-002
2.892700e+003, 1.457154e-002
2.894628e+003, 1.483157e-002
2.896557e+003, 1.536366e-002
2.898485e+003, 1.559103e-002
2.900414e+003, 1.615956e-002
2.902342e+003, 1.646034e-002
2.904271e+003, 1.640669e-002
2.906199e+003, 1.665332e-002
2.908128e+003, 1.698284e-002
2.910056e+003, 1.720183e-002
2.911985e+003, 1.719291e-002
2.913913e+003, 1.747723e-002
2.915842e+003, 1.812559e-002
2.917770e+003, 1.856891e-002
2.919698e+003, 1.858504e-002
2.921627e+003, 1.873038e-002
2.923555e+003, 1.900863e-002
2.925484e+003, 1.943481e-002
2.927412e+003, 1.958438e-002
2.929341e+003, 1.989856e-002
2.931269e+003, 2.030361e-002
2.933198e+003, 2.023485e-002
2.935126e+003, 2.014011e-002
2.937055e+003, 2.032629e-002
2.938983e+003, 2.055986e-002
2.940912e+003, 2.073214e-002
2.942840e+003, 2.077629e-002
2.944769e+003, 2.135316e-002
2.946697e+003, 2.194301e-002
2.948625e+003, 2.231635e-002
2.950554e+003, 2.262020e-002
2.952482e+003, 2.286992e-002
2.954411e+003, 2.306928e-002
2.956339e+003, 2.339127e-002
2.958268e+003, 2.367202e-002
2.960196e+003, 2.379708e-002
2.962125e+003, 2.404420e-002
2.964053e+003, 2.414425e-002
2.965982e+003, 2.444031e-002
2.967910e+003, 2.508318e-002
2.969839e+003, 2.492374e-002
2.971767e+003, 2.510029e-002
2.973696e+003, 2.588397e-002
2.975624e+003, 2.595573e-002
2.977552e+003, 2.608744e-002
2.979481e+003, 2.661892e-002
2.981409e+003, 2.706977e-002
2.983338e+003, 2.713495e-002
2.985266e+003, 2.707225e-002
2.987195e+003, 2.746679e-002
2.989123e+003, 2.844228e-002
2.991052e+003, 2.870736e-002
2.992980e+003, 2.858379e-002
2.994909e+003, 2.868990e-002
2.996837e+003, 2.942668e-002
2.998766e+003, 3.019103e-002
3.000694e+003, 3.029423e-002
3.002623e+003, 3.062996e-002
3.004551e+003, 3.115701e-002
3.006479e+003, 3.126784e-002
3.008408e+003, 3.181158e-002
3.010336e+003, 3.238126e-002
3.012265e+003, 3.268292e-002
3.014193e+003, 3.353375e-002
3.016122e+003, 3.452121e-002
3.018050e+003, 3.474570e-002
3.019979e+003, 3.477360e-002
3.021907e+003, 3.531527e-002
3.023836e+003, 3.574590e-002
3.025764e+003, 3.609495e-002
3.027693e+003, 3.680633e-002
3.029621e+003, 3.753404e-002
3.031550e+003, 3.823086e-002
3.033478e+003, 3.903158e-002
3.035406e+003, 3.976534e-002
3.037335e+003, 4.026005e-002
3.039263e+003, 4.062094e-002
3.041192e+003, 4.109699e-002
3.043120e+003, 4.140034e-002
3.045049e+003, 4.187079e-002
3.046977e+003, 4.258997e-002
3.048906e+003, 4.343523e-002
3.050834e+003, 4.403277e-002
3.052763e+003, 4.466571e-002
3.054691e+003, 4.547090e-002
3.056620e+003, 4.595754e-002
3.058548e+003, 4.614447e-002
3.060477e+003, 4.668690e-002
3.062405e+003, 4.775532e-002
3.064333e+003, 4.889810e-002
3.066262e+003, 4.973556e-002
3.068190e+003, 5.033602e-002
3.070119e+003, 5.085183e-002
3.072047e+003, 5.155292e-002
3.073976e+003, 5.268104e-002
3.075904e+003, 5.332059e-002
3.077833e+003, 5.364086e-002
3.079761e+003, 5.442868e-002
3.081690e+003, 5.547146e-002
3.083618e+003, 5.663767e-002
3.085547e+003, 5.773440e-002
3.087475e+003, 5.858386e-002
3.089404e+003, 5.922524e-002
3.091332e+003, 6.020097e-002
3.093260e+003, 6.101680e-002
3.095189e+003, 6.188417e-002
3.097117e+003, 6.302267e-002
3.099046e+003, 6.407202e-002
3.100974e+003, 6.469610e-002
3.102903e+003, 6.562076e-002
3.104831e+003, 6.645351e-002
3.106760e+003, 6.718937e-002
3.108688e+003, 6.809574e-002
3.110617e+003, 6.894550e-002
3.112545e+003, 6.966785e-002
3.114474e+003, 7.040226e-002
3.116402e+003, 7.112068e-002
3.118331e+003, 7.186209e-002
3.120259e+003, 7.283453e-002
3.122188e+003, 7.369887e-002
3.124116e+003, 7.457161e-002
3.126044e+003, 7.545824e-002
3.127973e+003, 7.547385e-002
3.129901e+003, 7.596438e-002
3.131830e+003, 7.730307e-002
3.133758e+003, 7.819262e-002
3.135687e+003, 7.867584e-002
3.137615e+003, 7.930145e-002
3.139544e+003, 8.017333e-002
3.141472e+003, 8.105865e-002
3.143401e+003, 8.136127e-002
3.145329e+003, 8.214326e-002
3.147258e+003, 8.306992e-002
3.149186e+003, 8.357967e-002
3.151115e+003, 8.362360e-002
3.153043e+003, 8.386029e-002
3.154971e+003, 8.477355e-002
3.156900e+003, 8.587569e-002
3.158828e+003, 8.588665e-002
3.160757e+003, 8.634324e-002
3.162685e+003, 8.697392e-002
3.164614e+003, 8.706824e-002
3.166542e+003, 8.734705e-002
3.168471e+003, 8.783611e-002
3.170399e+003, 8.835985e-002
3.172328e+003, 8.832625e-002
3.174256e+003, 8.840298e-002
3.176185e+003, 8.866502e-002
3.178113e+003, 8.934329e-002
3.180042e+003, 9.018937e-002
3.181970e+003, 9.048297e-002
3.183898e+003, 9.059236e-002
3.185827e+003, 9.052920e-002
3.187755e+003, 9.074215e-002
3.189684e+003, 9.093321e-002
3.191612e+003, 9.049825e-002
3.193541e+003, 9.052915e-002
3.195469e+003, 9.095114e-002
3.197398e+003, 9.108322e-002
3.199326e+003, 9.139214e-002
3.201255e+003, 9.160814e-002
3.203183e+003, 9.149722e-002
3.205112e+003, 9.155475e-002
3.207040e+003, 9.180009e-002
3.208969e+003, 9.200858e-002
3.210897e+003, 9.245936e-002
3.212825e+003, 9.230851e-002
3.214754e+003, 9.189328e-002
3.216682e+003, 9.219515e-002
3.218611e+003, 9.281108e-002
3.220539e+003, 9.276492e-002
3.222468e+003, 9.216637e-002
3.224396e+003, 9.183697e-002
3.226325e+003, 9.212849e-002
3.228253e+003, 9.277602e-002
3.230182e+003, 9.272415e-002
3.232110e+003, 9.233941e-002
3.234039e+003, 9.258419e-002
3.235967e+003, 9.290301e-002
3.237896e+003, 9.258907e-002
3.239824e+003, 9.254891e-002
3.241752e+003, 9.297634e-002
3.243681e+003, 9.302989e-002
3.245609e+003, 9.308986e-002
3.247538e+003, 9.362407e-002
3.249466e+003, 9.394357e-002
3.251395e+003, 9.397312e-002
3.253323e+003, 9.378379e-002
3.255252e+003, 9.355824e-002
3.257180e+003, 9.314105e-002
3.259109e+003, 9.319177e-002
3.261037e+003, 9.351080e-002
3.262966e+003, 9.373248e-002
3.264894e+003, 9.343363e-002
3.266823e+003, 9.358346e-002
3.268751e+003, 9.333617e-002
3.270679e+003, 9.277713e-002
3.272608e+003, 9.280469e-002
3.274536e+003, 9.279945e-002
3.276465e+003, 9.270063e-002
3.278393e+003, 9.234038e-002
3.280322e+003, 9.146905e-002
3.282250e+003, 9.147499e-002
3.284179e+003, 9.200785e-002
3.286107e+003, 9.209688e-002
3.288036e+003, 9.178314e-002
3.289964e+003, 9.182634e-002
3.291893e+003, 9.155482e-002
3.293821e+003, 9.121067e-002
3.295750e+003, 9.110481e-002
3.297678e+003, 9.131027e-002
3.299606e+003, 9.142000e-002
3.301535e+003, 9.137008e-002
3.303463e+003, 9.074836e-002
3.305392e+003, 9.036617e-002
3.307320e+003, 8.968625e-002
3.309249e+003, 8.946168e-002
3.311177e+003, 8.985357e-002
3.313106e+003, 8.958840e-002
3.315034e+003, 8.928728e-002
3.316963e+003, 8.920144e-002
3.318891e+003, 8.958881e-002
3.320820e+003, 8.956578e-002
3.322748e+003, 8.930123e-002
3.324677e+003, 8.918872e-002
3.326605e+003, 8.886538e-002
3.328533e+003, 8.851194e-002
3.330462e+003, 8.799101e-002
3.332390e+003, 8.781663e-002
3.334319e+003, 8.769544e-002
3.336247e+003, 8.698623e-002
3.338176e+003, 8.669190e-002
3.340104e+003, 8.655889e-002
3.342033e+003, 8.613357e-002
3.343961e+003, 8.586840e-002
3.345890e+003, 8.613241e-002
3.347818e+003, 8.646558e-002
3.349747e+003, 8.623820e-002
3.351675e+003, 8.542562e-002
3.353604e+003, 8.494021e-002
3.355532e+003, 8.491535e-002
3.357460e+003, 8.463279e-002
3.359389e+003, 8.375189e-002
3.361317e+003, 8.315405e-002
3.363246e+003, 8.322128e-002
3.365174e+003, 8.335122e-002
3.367103e+003, 8.299906e-002
3.369031e+003, 8.276162e-002
3.370960e+003, 8.266099e-002
3.372888e+003, 8.239644e-002
3.374817e+003, 8.213894e-002
3.376745e+003, 8.141367e-002
3.378674e+003, 8.063530e-002
3.380602e+003, 8.021285e-002
3.382531e+003, 7.975346e-002
3.384459e+003, 7.941946e-002
3.386387e+003, 7.960668e-002
3.388316e+003, 7.960373e-002
3.390244e+003, 7.880723e-002
3.392173e+003, 7.814524e-002
3.394101e+003, 7.757050e-002
3.396030e+003, 7.770063e-002
3.397958e+003, 7.720946e-002
3.399887e+003, 7.606553e-002
3.401815e+003, 7.546900e-002
3.403744e+003, 7.555114e-002
3.405672e+003, 7.516203e-002
3.407601e+003, 7.454848e-002
3.409529e+003, 7.396916e-002
3.411458e+003, 7.388762e-002
3.413386e+003, 7.378954e-002
3.415314e+003, 7.351010e-002
3.417243e+003, 7.277744e-002
3.419171e+003, 7.198655e-002
3.421100e+003, 7.156111e-002
3.423028e+003, 7.118290e-002
3.424957e+003, 7.099915e-002
3.426885e+003, 7.078258e-002
3.428814e+003, 7.086514e-002
3.430742e+003, 7.006390e-002
3.432671e+003, 6.913960e-002
3.434599e+003, 6.918423e-002
3.436528e+003, 6.949642e-002
3.438456e+003, 6.941506e-002
3.440385e+003, 6.888145e-002
3.442313e+003, 6.811977e-002
3.444241e+003, 6.775435e-002
3.446170e+003, 6.715523e-002
3.448098e+003, 6.720184e-002
3.450027e+003, 6.741586e-002
3.451955e+003, 6.729963e-002
3.453884e+003, 6.663799e-002
3.455812e+003, 6.658633e-002
3.457741e+003, 6.639614e-002
3.459669e+003, 6.574053e-002
3.461598e+003, 6.532904e-002
3.463526e+003, 6.496572e-002
3.465455e+003, 6.479109e-002
3.467383e+003, 6.408127e-002
3.469312e+003, 6.369626e-002
3.471240e+003, 6.369107e-002
3.473168e+003, 6.365403e-002
3.475097e+003, 6.348095e-002
3.477025e+003, 6.294719e-002
3.478954e+003, 6.197615e-002
3.480882e+003, 6.107805e-002
3.482811e+003, 6.074059e-002
3.484739e+003, 6.099835e-002
3.486668e+003, 6.058026e-002
3.488596e+003, 5.990995e-002
3.490525e+003, 5.961965e-002
3.492453e+003, 5.990700e-002
3.494382e+003, 6.023226e-002
3.496310e+003, 6.008406e-002
3.498239e+003, 5.949289e-002
3.500167e+003, 5.886813e-002
3.502095e+003, 5.801808e-002
3.504024e+003, 5.809546e-002
3.505952e+003, 5.808332e-002
3.507881e+003, 5.813986e-002
3.509809e+003, 5.841331e-002
3.511738e+003, 5.817903e-002
3.513666e+003, 5.876678e-002
3.515595e+003, 5.965049e-002
3.517523e+003, 5.969346e-002
3.519452e+003, 5.983916e-002
3.521380e+003, 6.001048e-002
3.523309e+003, 6.060880e-002
3.525237e+003, 6.051191e-002
3.527166e+003, 6.096618e-002
3.529094e+003, 6.188065e-002
3.531022e+003, 6.263050e-002
3.532951e+003, 6.290842e-002
3.534879e+003, 6.239834e-002
3.536808e+003, 6.182208e-002
3.538736e+003, 6.092845e-002
3.540665e+003, 6.027678e-002
3.542593e+003, 5.990542e-002
3.544522e+003, 5.920567e-002
3.546450e+003, 5.781574e-002
3.548379e+003, 5.632280e-002
3.550307e+003, 5.517675e-002
3.552236e+003, 5.360730e-002
3.554164e+003, 5.136279e-002
3.556093e+003, 4.897878e-002
3.558021e+003, 4.683446e-002
3.559949e+003, 4.555479e-002
3.561878e+003, 4.382614e-002
3.563806e+003, 4.202611e-002
3.565735e+003, 4.022492e-002
3.567663e+003, 3.759141e-002
3.569592e+003, 3.501824e-002
3.571520e+003, 3.306517e-002
3.573449e+003, 3.149559e-002
3.575377e+003, 3.016360e-002
3.577306e+003, 2.829178e-002
3.579234e+003, 2.624076e-002
3.581163e+003, 2.472821e-002
3.583091e+003, 2.300475e-002
3.585020e+003, 2.215442e-002
3.586948e+003, 2.160654e-002
3.588876e+003, 1.995306e-002
3.590805e+003, 1.755638e-002
3.592733e+003, 1.696022e-002
3.594662e+003, 1.735774e-002
3.596590e+003, 1.667971e-002
3.598519e+003, 1.463273e-002
3.600447e+003, 1.314373e-002
3.602376e+003, 1.325605e-002
3.604304e+003, 1.225149e-002
3.606233e+003, 1.130260e-002
3.608161e+003, 1.107368e-002
3.610090e+003, 9.529120e-003
3.612018e+003, 8.399493e-003
3.613947e+003, 7.738816e-003
3.615875e+003, 7.535590e-003
3.617803e+003, 8.174315e-003
3.619732e+003, 7.889797e-003
3.621660e+003, 6.351845e-003
3.623589e+003, 5.104894e-003
3.625517e+003, 5.088647e-003
3.627446e+003, 6.361020e-003
3.629374e+003, 6.461679e-003
3.631303e+003, 4.622309e-003
3.633231e+003, 3.484675e-003
3.635160e+003, 3.001285e-003
3.637088e+003, 2.622917e-003
3.639017e+003, 2.195458e-003
3.640945e+003, 1.982878e-003
3.642874e+003, 2.322671e-003
3.644802e+003, 2.761716e-003
3.646730e+003, 3.153051e-003
3.648659e+003, 3.969992e-003
3.650587e+003, 2.766700e-003
3.652516e+003, 4.479910e-004
3.654444e+003, -1.588769e-004
3.656373e+003, 2.361915e-004
3.658301e+003, 4.303274e-005
3.660230e+003, -4.697930e-004
3.662158e+003, -1.598910e-004
3.664087e+003, -2.544568e-004
3.666015e+003, -9.742925e-004
3.667944e+003, -5.113122e-004
3.669872e+003, 1.001741e-003
3.671801e+003, 1.022178e-003
3.673729e+003, 6.497741e-004
3.675657e+003, 8.468389e-004
3.677586e+003, -9.090828e-004
3.679514e+003, -1.168502e-003
3.681443e+003, -9.638933e-004
3.683371e+003, -1.350669e-003
3.685300e+003, -2.178400e-003
3.687228e+003, -8.528467e-004
3.689157e+003, 1.423969e-004
3.691085e+003, -1.004419e-003
3.693014e+003, -2.322069e-003
3.694942e+003, -2.724262e-003
3.696871e+003, -1.828047e-003
3.698799e+003, -1.519304e-003
3.700728e+003, -1.607111e-003
3.702656e+003, -1.227412e-003
3.704584e+003, -1.646036e-003
3.706513e+003, -1.908610e-003
3.708441e+003, -1.126820e-003
3.710370e+003, -3.535448e-004
3.712298e+003, -8.438827e-004
3.714227e+003, -2.103397e-003
3.716155e+003, -2.570772e-003
3.718084e+003, -2.143201e-003
3.720012e+003, -1.531849e-003
3.721941e+003, -1.869747e-003
3.723869e+003, -1.390400e-003
3.725798e+003, -7.833519e-004
3.727726e+003, -1.515336e-003
3.729655e+003, -2.082265e-003
3.731583e+003, -9.822971e-004
3.733511e+003, -3.688005e-004
3.735440e+003, -5.204824e-004
3.737368e+003, -1.429203e-003
3.739297e+003, -1.659633e-003
3.741225e+003, -8.895165e-004
3.743154e+003, 3.056860e-004
3.745082e+003, 1.990415e-004
3.747011e+003, -3.379947e-004
3.748939e+003, 1.269444e-003
3.750868e+003, 1.850845e-003
3.752796e+003, 8.907416e-004
3.754725e+003, -8.034642e-004
3.756653e+003, -1.559820e-003
3.758582e+003, -2.003799e-003
3.760510e+003, -1.850462e-003
3.762438e+003, -2.267203e-003
3.764367e+003, -2.267310e-003
3.766295e+003, -2.467927e-003
3.768224e+003, -2.593045e-003
3.770152e+003, -2.311310e-003
3.772081e+003, -1.861570e-003
3.774009e+003, -1.177104e-003
3.775938e+003, -1.299035e-003
3.777866e+003, -1.357921e-003
3.779795e+003, -1.505216e-003
3.781723e+003, -2.367235e-003
3.783652e+003, -2.769562e-003
3.785580e+003, -3.048610e-003
3.787509e+003, -2.878746e-003
3.789437e+003, -2.446420e-003
3.791365e+003, -2.274866e-003
3.793294e+003, -2.259403e-003
3.795222e+003, -2.125862e-003
3.797151e+003, -2.267486e-003
3.799079e+003, -1.803776e-003
3.801008e+003, -8.978448e-004
3.802936e+003, -1.384403e-003
3.804865e+003, -1.896497e-003
3.806793e+003, -7.699229e-004
3.808722e+003, -1.029942e-003
3.810650e+003, -2.048135e-003
3.812579e+003, -2.846800e-003
3.814507e+003, -2.334710e-003
3.816436e+003, -1.127433e-003
3.818364e+003, -1.224762e-003
3.820292e+003, -5.045655e-004
3.822221e+003, -7.733841e-004
3.824149e+003, -1.778628e-003
3.826078e+003, -1.896966e-003
3.828006e+003, -1.920919e-003
3.829935e+003, -1.462012e-003
3.831863e+003, -1.492103e-003
3.833792e+003, -1.427428e-003
3.835720e+003, -5.529253e-004
3.837649e+003, 1.265509e-004
3.839577e+003, -8.715087e-004
3.841506e+003, -2.001700e-003
3.843434e+003, -3.046955e-003
3.845363e+003, -3.016877e-003
3.847291e+003, -2.284834e-003
3.849219e+003, -1.051910e-003
3.851148e+003, 5.384893e-004
3.853076e+003, 2.365689e-003
3.855005e+003, 9.385156e-004
3.856933e+003, -2.015382e-003
3.858862e+003, -3.192461e-003
3.860790e+003, -2.463231e-003
3.862719e+003, -1.743435e-003
3.864647e+003, -1.707778e-003
3.866576e+003, -2.610726e-003
3.868504e+003, -1.969631e-003
3.870433e+003, -1.298803e-003
3.872361e+003, -2.059992e-003
3.874290e+003, -2.335415e-003
3.876218e+003, -2.493471e-003
3.878146e+003, -2.041905e-003
3.880075e+003, -1.483272e-003
3.882003e+003, -1.852856e-003
3.883932e+003, -8.737307e-004
3.885860e+003, -4.462635e-004
3.887789e+003, -1.702606e-003
3.889717e+003, -1.876525e-003
3.891646e+003, -1.898373e-003
3.893574e+003, -2.776312e-003
3.895503e+003, -2.554147e-003
3.897431e+003, -1.691696e-003
3.899360e+003, -9.933804e-004
3.901288e+003, -8.853856e-004
3.903217e+003, -1.114639e-003
3.905145e+003, -1.941320e-003
3.907073e+003, -2.683097e-003
3.909002e+003, -1.787678e-003
3.910930e+003, -1.863803e-003
3.912859e+003, -2.620018e-003
3.914787e+003, -2.643361e-003
3.916716e+003, -2.428681e-003
3.918644e+003, -2.680388e-003
3.920573e+003, -2.351619e-003
3.922501e+003, -1.809565e-003
3.924430e+003, -1.900892e-003
3.926358e+003, -2.648801e-003
3.928287e+003, -3.482317e-003
3.930215e+003, -3.135732e-003
3.932144e+003, -2.096209e-003
3.934072e+003, -2.627721e-003
3.936000e+003, -2.763039e-003
3.937929e+003, -2.371614e-003
3.939857e+003, -2.610845e-003
3.941786e+003, -2.404919e-003
3.943714e+003, -1.605648e-003
3.945643e+003, -1.073095e-003
3.947571e+003, -1.172467e-003
3.949500e+003, -2.057150e-003
3.951428e+003, -2.622223e-003
3.953357e+003, -2.201686e-003
3.955285e+003, -1.998457e-003
3.957214e+003, -2.135147e-003
3.959142e+003, -1.744677e-003
3.961071e+003, -2.081697e-003
3.962999e+003, -2.507106e-003
3.964927e+003, -2.482769e-003
3.966856e+003, -1.983352e-003
3.968784e+003, -2.181225e-003
3.970713e+003, -2.437351e-003
3.972641e+003, -2.673829e-003
3.974570e+003, -3.321439e-003
3.976498e+003, -2.818160e-003
3.978427e+003, -1.944132e-003
3.980355e+003, -2.321708e-003
3.982284e+003, -3.057074e-003
3.984212e+003, -3.027210e-003
3.986141e+003, -2.871789e-003
3.988069e+003, -1.889427e-003
3.989998e+003, -1.627019e-003
3.991926e+003, -2.272579e-003
3.993854e+003, -2.130704e-003
3.995783e+003, -1.752588e-003
3.997711e+003, -2.488394e-003
##END=



