##NAMES=Howieite
##RRUFFID=R060031
##IDEAL CHEMISTRY=Na(Fe^2+^,Fe^3+^,Al,Mg)_12_(Si_6_O_17_)_2_(O,OH)_10_
##LOCALITY=Laytonville quarry, near Longvale, California, USA
##OWNER=RRUFF
##SOURCE=University of Arizona Mineral Museum
##DESCRIPTION=Black bladed crystals associated with quartz and siderite
##STATUS=The identification of this mineral is confirmed by single-crystal X-ray diffraction and chemical analysis.
##URL=rruff.info/R060031
##MEASURED CHEMISTRY=Na_1.00_(Fe^3+^_4.41_Mn_2.68_Fe^2+^_3.89_Al_0.59_Mg_0.43_)_Î£=12_(Si_6.00_O_17_)_2_(OH)_10_
3.991926e+002, 1.453870e-001
4.011211e+002, 1.452482e-001
4.030495e+002, 1.441686e-001
4.049780e+002, 1.459662e-001
4.069065e+002, 1.473469e-001
4.088349e+002, 1.477263e-001
4.107634e+002, 1.480725e-001
4.126919e+002, 1.504647e-001
4.146203e+002, 1.529817e-001
4.165488e+002, 1.560680e-001
4.184773e+002, 1.591675e-001
4.204057e+002, 1.599266e-001
4.223342e+002, 1.596824e-001
4.242627e+002, 1.623649e-001
4.261911e+002, 1.660946e-001
4.281196e+002, 1.684841e-001
4.300481e+002, 1.686464e-001
4.319765e+002, 1.682641e-001
4.339050e+002, 1.682356e-001
4.358335e+002, 1.670607e-001
4.377619e+002, 1.646606e-001
4.396904e+002, 1.610600e-001
4.416189e+002, 1.574127e-001
4.435473e+002, 1.540118e-001
4.454758e+002, 1.511570e-001
4.474043e+002, 1.499628e-001
4.493327e+002, 1.499642e-001
4.512612e+002, 1.487406e-001
4.531897e+002, 1.471356e-001
4.551181e+002, 1.461975e-001
4.570466e+002, 1.444907e-001
4.589751e+002, 1.432988e-001
4.609035e+002, 1.435537e-001
4.628320e+002, 1.435805e-001
4.647605e+002, 1.432739e-001
4.666889e+002, 1.433352e-001
4.686174e+002, 1.424709e-001
4.705459e+002, 1.420823e-001
4.724743e+002, 1.422167e-001
4.744028e+002, 1.423099e-001
4.763313e+002, 1.420299e-001
4.782597e+002, 1.406852e-001
4.801882e+002, 1.389161e-001
4.821167e+002, 1.368752e-001
4.840451e+002, 1.345008e-001
4.859736e+002, 1.320677e-001
4.879021e+002, 1.290734e-001
4.898305e+002, 1.260731e-001
4.917590e+002, 1.232406e-001
4.936875e+002, 1.211874e-001
4.956159e+002, 1.195764e-001
4.975444e+002, 1.182914e-001
4.994729e+002, 1.173962e-001
5.014013e+002, 1.168352e-001
5.033298e+002, 1.153326e-001
5.052583e+002, 1.137492e-001
5.071867e+002, 1.123562e-001
5.091152e+002, 1.097905e-001
5.110437e+002, 1.066667e-001
5.129721e+002, 1.039708e-001
5.149006e+002, 1.011354e-001
5.168290e+002, 9.775010e-002
5.187575e+002, 9.490555e-002
5.206860e+002, 9.249383e-002
5.226144e+002, 8.930832e-002
5.245429e+002, 8.580521e-002
5.264714e+002, 8.289213e-002
5.283998e+002, 8.031547e-002
5.303283e+002, 7.787889e-002
5.322568e+002, 7.590085e-002
5.341852e+002, 7.439795e-002
5.361137e+002, 7.249267e-002
5.380422e+002, 7.070394e-002
5.399706e+002, 6.860824e-002
5.418991e+002, 6.645682e-002
5.438276e+002, 6.502546e-002
5.457560e+002, 6.428606e-002
5.476845e+002, 6.364914e-002
5.496130e+002, 6.347671e-002
5.515414e+002, 6.371737e-002
5.534699e+002, 6.402727e-002
5.553984e+002, 6.364935e-002
5.573268e+002, 6.246209e-002
5.592553e+002, 6.098570e-002
5.611838e+002, 5.951379e-002
5.631122e+002, 5.854231e-002
5.650407e+002, 5.833949e-002
5.669692e+002, 5.831728e-002
5.688976e+002, 5.895111e-002
5.708261e+002, 6.014724e-002
5.727546e+002, 6.130425e-002
5.746830e+002, 6.296293e-002
5.766115e+002, 6.461685e-002
5.785400e+002, 6.634973e-002
5.804684e+002, 6.816917e-002
5.823969e+002, 7.037330e-002
5.843254e+002, 7.287908e-002
5.862538e+002, 7.550455e-002
5.881823e+002, 7.781266e-002
5.901108e+002, 8.002429e-002
5.920392e+002, 8.232985e-002
5.939677e+002, 8.475040e-002
5.958962e+002, 8.702073e-002
5.978246e+002, 8.918522e-002
5.997531e+002, 9.132483e-002
6.016816e+002, 9.315331e-002
6.036100e+002, 9.465481e-002
6.055385e+002, 9.627020e-002
6.074670e+002, 9.729256e-002
6.093954e+002, 9.759084e-002
6.113239e+002, 9.798203e-002
6.132524e+002, 9.778315e-002
6.151808e+002, 9.711471e-002
6.171093e+002, 9.631556e-002
6.190378e+002, 9.496674e-002
6.209662e+002, 9.363544e-002
6.228947e+002, 9.222967e-002
6.248232e+002, 9.025240e-002
6.267516e+002, 8.826755e-002
6.286801e+002, 8.637682e-002
6.306086e+002, 8.452059e-002
6.325370e+002, 8.254510e-002
6.344655e+002, 8.030985e-002
6.363940e+002, 7.796542e-002
6.383224e+002, 7.568714e-002
6.402509e+002, 7.320690e-002
6.421794e+002, 7.040308e-002
6.441078e+002, 6.772855e-002
6.460363e+002, 6.524271e-002
6.479648e+002, 6.304197e-002
6.498932e+002, 6.134077e-002
6.518217e+002, 6.000342e-002
6.537502e+002, 5.876653e-002
6.556786e+002, 5.718588e-002
6.576071e+002, 5.464970e-002
6.595356e+002, 5.170927e-002
6.614641e+002, 4.891333e-002
6.633925e+002, 4.621113e-002
6.653210e+002, 4.401184e-002
6.672495e+002, 4.219055e-002
6.691779e+002, 4.077258e-002
6.711064e+002, 3.963345e-002
6.730349e+002, 3.884676e-002
6.749633e+002, 3.849524e-002
6.768918e+002, 3.818518e-002
6.788203e+002, 3.816213e-002
6.807487e+002, 3.839787e-002
6.826772e+002, 3.863731e-002
6.846057e+002, 3.911725e-002
6.865341e+002, 3.998142e-002
6.884626e+002, 4.114879e-002
6.903911e+002, 4.239534e-002
6.923195e+002, 4.374742e-002
6.942480e+002, 4.502204e-002
6.961765e+002, 4.609847e-002
6.981049e+002, 4.713863e-002
7.000334e+002, 4.845976e-002
7.019619e+002, 5.006530e-002
7.038903e+002, 5.199780e-002
7.058188e+002, 5.415198e-002
7.077473e+002, 5.630894e-002
7.096757e+002, 5.817799e-002
7.116042e+002, 5.958471e-002
7.135327e+002, 6.004256e-002
7.154611e+002, 5.948431e-002
7.173896e+002, 5.827710e-002
7.193181e+002, 5.683144e-002
7.212465e+002, 5.563431e-002
7.231750e+002, 5.497146e-002
7.251035e+002, 5.491661e-002
7.270319e+002, 5.524445e-002
7.289604e+002, 5.595604e-002
7.308889e+002, 5.696033e-002
7.328173e+002, 5.802966e-002
7.347458e+002, 5.913923e-002
7.366743e+002, 6.024449e-002
7.386027e+002, 6.122474e-002
7.405312e+002, 6.227575e-002
7.424597e+002, 6.337031e-002
7.443881e+002, 6.446038e-002
7.463166e+002, 6.548472e-002
7.482451e+002, 6.681322e-002
7.501735e+002, 6.830186e-002
7.521020e+002, 6.961402e-002
7.540305e+002, 7.099830e-002
7.559589e+002, 7.240067e-002
7.578874e+002, 7.345982e-002
7.598159e+002, 7.451713e-002
7.617443e+002, 7.553280e-002
7.636728e+002, 7.640783e-002
7.656013e+002, 7.738755e-002
7.675297e+002, 7.857350e-002
7.694582e+002, 7.968652e-002
7.713867e+002, 8.093362e-002
7.733151e+002, 8.209415e-002
7.752436e+002, 8.307923e-002
7.771721e+002, 8.412823e-002
7.791005e+002, 8.507250e-002
7.810290e+002, 8.567584e-002
7.829575e+002, 8.654271e-002
7.848859e+002, 8.766940e-002
7.868144e+002, 8.887620e-002
7.887429e+002, 9.031198e-002
7.906713e+002, 9.212562e-002
7.925998e+002, 9.393521e-002
7.945283e+002, 9.571922e-002
7.964567e+002, 9.757241e-002
7.983852e+002, 9.928723e-002
8.003137e+002, 1.009400e-001
8.022421e+002, 1.024808e-001
8.041706e+002, 1.039534e-001
8.060991e+002, 1.056926e-001
8.080275e+002, 1.076295e-001
8.099560e+002, 1.098031e-001
8.118845e+002, 1.121368e-001
8.138129e+002, 1.146684e-001
8.157414e+002, 1.175031e-001
8.176699e+002, 1.203584e-001
8.195983e+002, 1.231946e-001
8.215268e+002, 1.261207e-001
8.234553e+002, 1.288927e-001
8.253837e+002, 1.312872e-001
8.273122e+002, 1.333779e-001
8.292407e+002, 1.352619e-001
8.311691e+002, 1.368384e-001
8.330976e+002, 1.378550e-001
8.350261e+002, 1.389644e-001
8.369545e+002, 1.401460e-001
8.388830e+002, 1.411504e-001
8.408115e+002, 1.422826e-001
8.427399e+002, 1.438174e-001
8.446684e+002, 1.454594e-001
8.465969e+002, 1.469749e-001
8.485253e+002, 1.485317e-001
8.504538e+002, 1.505471e-001
8.523823e+002, 1.532369e-001
8.543107e+002, 1.561754e-001
8.562392e+002, 1.593452e-001
8.581677e+002, 1.629621e-001
8.600961e+002, 1.666467e-001
8.620246e+002, 1.703007e-001
8.639531e+002, 1.739815e-001
8.658815e+002, 1.775851e-001
8.678100e+002, 1.806570e-001
8.697385e+002, 1.822697e-001
8.716669e+002, 1.822000e-001
8.735954e+002, 1.808314e-001
8.755239e+002, 1.786014e-001
8.774523e+002, 1.762245e-001
8.793808e+002, 1.740292e-001
8.813093e+002, 1.718641e-001
8.832377e+002, 1.697081e-001
8.851662e+002, 1.683600e-001
8.870947e+002, 1.687255e-001
8.890231e+002, 1.707327e-001
8.909516e+002, 1.733350e-001
8.928801e+002, 1.760778e-001
8.948085e+002, 1.793169e-001
8.967370e+002, 1.827153e-001
8.986655e+002, 1.862032e-001
9.005939e+002, 1.898699e-001
9.025224e+002, 1.936516e-001
9.044509e+002, 1.977503e-001
9.063793e+002, 2.020478e-001
9.083078e+002, 2.064276e-001
9.102363e+002, 2.106171e-001
9.121647e+002, 2.149165e-001
9.140932e+002, 2.191353e-001
9.160217e+002, 2.233126e-001
9.179501e+002, 2.273465e-001
9.198786e+002, 2.309468e-001
9.218071e+002, 2.340927e-001
9.237355e+002, 2.370579e-001
9.256640e+002, 2.392668e-001
9.275925e+002, 2.405317e-001
9.295209e+002, 2.411561e-001
9.314494e+002, 2.409669e-001
9.333779e+002, 2.398998e-001
9.353063e+002, 2.385580e-001
9.372348e+002, 2.371536e-001
9.391633e+002, 2.359505e-001
9.410917e+002, 2.350593e-001
9.430202e+002, 2.344541e-001
9.449487e+002, 2.340059e-001
9.468771e+002, 2.337184e-001
9.488056e+002, 2.334300e-001
9.507341e+002, 2.330318e-001
9.526625e+002, 2.323778e-001
9.545910e+002, 2.315153e-001
9.565195e+002, 2.306645e-001
9.584479e+002, 2.298363e-001
9.603764e+002, 2.290835e-001
9.623049e+002, 2.283609e-001
9.642333e+002, 2.273939e-001
9.661618e+002, 2.262059e-001
9.680903e+002, 2.245672e-001
9.700187e+002, 2.222990e-001
9.719472e+002, 2.191520e-001
9.738757e+002, 2.149059e-001
9.758041e+002, 2.097948e-001
9.777326e+002, 2.043096e-001
9.796611e+002, 1.983175e-001
9.815895e+002, 1.920847e-001
9.835180e+002, 1.857219e-001
9.854465e+002, 1.794673e-001
9.873749e+002, 1.737340e-001
9.893034e+002, 1.682783e-001
9.912319e+002, 1.631454e-001
9.931603e+002, 1.584824e-001
9.950888e+002, 1.545460e-001
9.970173e+002, 1.514995e-001
9.989457e+002, 1.489845e-001
1.000874e+003, 1.470982e-001
1.002803e+003, 1.460347e-001
1.004731e+003, 1.455902e-001
1.006660e+003, 1.455964e-001
1.008588e+003, 1.461469e-001
1.010517e+003, 1.469582e-001
1.012445e+003, 1.480295e-001
1.014373e+003, 1.495196e-001
1.016302e+003, 1.511016e-001
1.018230e+003, 1.525536e-001
1.020159e+003, 1.538180e-001
1.022087e+003, 1.547945e-001
1.024016e+003, 1.554244e-001
1.025944e+003, 1.556355e-001
1.027873e+003, 1.552350e-001
1.029801e+003, 1.541699e-001
1.031730e+003, 1.523831e-001
1.033658e+003, 1.497787e-001
1.035587e+003, 1.464954e-001
1.037515e+003, 1.431023e-001
1.039443e+003, 1.395997e-001
1.041372e+003, 1.360135e-001
1.043300e+003, 1.325133e-001
1.045229e+003, 1.291742e-001
1.047157e+003, 1.259307e-001
1.049086e+003, 1.225587e-001
1.051014e+003, 1.192532e-001
1.052943e+003, 1.158976e-001
1.054871e+003, 1.125636e-001
1.056800e+003, 1.095747e-001
1.058728e+003, 1.069152e-001
1.060657e+003, 1.044255e-001
1.062585e+003, 1.022748e-001
1.064514e+003, 1.004566e-001
1.066442e+003, 9.865267e-002
1.068370e+003, 9.685609e-002
1.070299e+003, 9.509376e-002
1.072227e+003, 9.321542e-002
1.074156e+003, 9.133868e-002
1.076084e+003, 8.978836e-002
1.078013e+003, 8.840269e-002
1.079941e+003, 8.698668e-002
1.081870e+003, 8.561399e-002
1.083798e+003, 8.414411e-002
1.085727e+003, 8.277070e-002
1.087655e+003, 8.150013e-002
1.089584e+003, 8.009192e-002
1.091512e+003, 7.850018e-002
1.093441e+003, 7.684632e-002
1.095369e+003, 7.533023e-002
1.097297e+003, 7.407336e-002
1.099226e+003, 7.283267e-002
1.101154e+003, 7.156673e-002
1.103083e+003, 7.033769e-002
1.105011e+003, 6.907018e-002
1.106940e+003, 6.777035e-002
1.108868e+003, 6.635670e-002
1.110797e+003, 6.474948e-002
1.112725e+003, 6.293155e-002
1.114654e+003, 6.107236e-002
1.116582e+003, 5.932152e-002
1.118511e+003, 5.741734e-002
1.120439e+003, 5.542099e-002
1.122368e+003, 5.356090e-002
1.124296e+003, 5.197613e-002
1.126224e+003, 5.038014e-002
1.128153e+003, 4.866382e-002
1.130081e+003, 4.707203e-002
1.132010e+003, 4.563269e-002
1.133938e+003, 4.420707e-002
1.135867e+003, 4.274148e-002
1.137795e+003, 4.136396e-002
1.139724e+003, 4.000583e-002
1.141652e+003, 3.848033e-002
1.143581e+003, 3.697301e-002
1.145509e+003, 3.547552e-002
1.147438e+003, 3.391448e-002
1.149366e+003, 3.248557e-002
1.151295e+003, 3.130096e-002
1.153223e+003, 3.011940e-002
1.155151e+003, 2.890906e-002
1.157080e+003, 2.801301e-002
1.159008e+003, 2.735881e-002
1.160937e+003, 2.678896e-002
1.162865e+003, 2.612890e-002
1.164794e+003, 2.530368e-002
1.166722e+003, 2.442130e-002
1.168651e+003, 2.364471e-002
1.170579e+003, 2.287533e-002
1.172508e+003, 2.214548e-002
1.174436e+003, 2.143005e-002
1.176365e+003, 2.084201e-002
1.178293e+003, 2.039946e-002
1.180222e+003, 1.994954e-002
1.182150e+003, 1.953588e-002
1.184078e+003, 1.913178e-002
1.186007e+003, 1.884718e-002
1.187935e+003, 1.870450e-002
1.189864e+003, 1.860928e-002
1.191792e+003, 1.842899e-002
1.193721e+003, 1.824150e-002
1.195649e+003, 1.803060e-002
1.197578e+003, 1.782974e-002
1.199506e+003, 1.781189e-002
1.201435e+003, 1.775683e-002
1.203363e+003, 1.768946e-002
1.205292e+003, 1.764245e-002
1.207220e+003, 1.759886e-002
1.209149e+003, 1.747576e-002
1.211077e+003, 1.740797e-002
1.213005e+003, 1.740935e-002
1.214934e+003, 1.729653e-002
1.216862e+003, 1.719892e-002
1.218791e+003, 1.726838e-002
1.220719e+003, 1.733461e-002
1.222648e+003, 1.730238e-002
1.224576e+003, 1.728209e-002
1.226505e+003, 1.746028e-002
1.228433e+003, 1.764820e-002
1.230362e+003, 1.772794e-002
1.232290e+003, 1.785921e-002
1.234219e+003, 1.795392e-002
1.236147e+003, 1.797307e-002
1.238076e+003, 1.819622e-002
1.240004e+003, 1.850002e-002
1.241932e+003, 1.874504e-002
1.243861e+003, 1.891276e-002
1.245789e+003, 1.912100e-002
1.247718e+003, 1.929991e-002
1.249646e+003, 1.945713e-002
1.251575e+003, 1.960176e-002
1.253503e+003, 1.977557e-002
1.255432e+003, 2.004644e-002
1.257360e+003, 2.022606e-002
1.259289e+003, 2.039794e-002
1.261217e+003, 2.065577e-002
1.263146e+003, 2.099095e-002
1.265074e+003, 2.133051e-002
1.267003e+003, 2.163214e-002
1.268931e+003, 2.186560e-002
1.270859e+003, 2.207182e-002
1.272788e+003, 2.239095e-002
1.274716e+003, 2.276266e-002
1.276645e+003, 2.307373e-002
1.278573e+003, 2.324273e-002
1.280502e+003, 2.347455e-002
1.282430e+003, 2.378991e-002
1.284359e+003, 2.416959e-002
1.286287e+003, 2.440815e-002
1.288216e+003, 2.456608e-002
1.290144e+003, 2.476658e-002
1.292073e+003, 2.512729e-002
1.294001e+003, 2.558387e-002
1.295930e+003, 2.585577e-002
1.297858e+003, 2.612261e-002
1.299786e+003, 2.647339e-002
1.301715e+003, 2.674098e-002
1.303643e+003, 2.696839e-002
1.305572e+003, 2.732286e-002
1.307500e+003, 2.771669e-002
1.309429e+003, 2.811612e-002
1.311357e+003, 2.852487e-002
1.313286e+003, 2.892313e-002
1.315214e+003, 2.930780e-002
1.317143e+003, 2.970089e-002
1.319071e+003, 3.010660e-002
1.321000e+003, 3.039682e-002
1.322928e+003, 3.079137e-002
1.324857e+003, 3.130009e-002
1.326785e+003, 3.172752e-002
1.328714e+003, 3.207245e-002
1.330642e+003, 3.244419e-002
1.332570e+003, 3.283803e-002
1.334499e+003, 3.339199e-002
1.336427e+003, 3.388781e-002
1.338356e+003, 3.437667e-002
1.340284e+003, 3.482884e-002
1.342213e+003, 3.520629e-002
1.344141e+003, 3.563897e-002
1.346070e+003, 3.611243e-002
1.347998e+003, 3.659753e-002
1.349927e+003, 3.729717e-002
1.351855e+003, 3.800138e-002
1.353784e+003, 3.852351e-002
1.355712e+003, 3.914888e-002
1.357641e+003, 3.992813e-002
1.359569e+003, 4.069685e-002
1.361497e+003, 4.140039e-002
1.363426e+003, 4.209811e-002
1.365354e+003, 4.285153e-002
1.367283e+003, 4.363118e-002
1.369211e+003, 4.438651e-002
1.371140e+003, 4.532379e-002
1.373068e+003, 4.627948e-002
1.374997e+003, 4.703699e-002
1.376925e+003, 4.794354e-002
1.378854e+003, 4.890135e-002
1.380782e+003, 4.982005e-002
1.382711e+003, 5.075732e-002
1.384639e+003, 5.172644e-002
1.386568e+003, 5.273771e-002
1.388496e+003, 5.369190e-002
1.390424e+003, 5.450591e-002
1.392353e+003, 5.530353e-002
1.394281e+003, 5.585232e-002
1.396210e+003, 5.615417e-002
1.398138e+003, 5.637508e-002
1.400067e+003, 5.652769e-002
1.401995e+003, 5.657335e-002
1.403924e+003, 5.646297e-002
1.405852e+003, 5.637725e-002
1.407781e+003, 5.614412e-002
1.409709e+003, 5.594873e-002
1.411638e+003, 5.562497e-002
1.413566e+003, 5.514772e-002
1.415495e+003, 5.459411e-002
1.417423e+003, 5.406840e-002
1.419351e+003, 5.359910e-002
1.421280e+003, 5.300661e-002
1.423208e+003, 5.244764e-002
1.425137e+003, 5.189580e-002
1.427065e+003, 5.132385e-002
1.428994e+003, 5.083917e-002
1.430922e+003, 5.032016e-002
1.432851e+003, 4.974305e-002
1.434779e+003, 4.923340e-002
1.436708e+003, 4.881821e-002
1.438636e+003, 4.823874e-002
1.440565e+003, 4.764476e-002
1.442493e+003, 4.716628e-002
1.444422e+003, 4.673109e-002
1.446350e+003, 4.628749e-002
1.448278e+003, 4.577906e-002
1.450207e+003, 4.524061e-002
1.452135e+003, 4.471570e-002
1.454064e+003, 4.423944e-002
1.455992e+003, 4.376479e-002
1.457921e+003, 4.308439e-002
1.459849e+003, 4.236257e-002
1.461778e+003, 4.179595e-002
1.463706e+003, 4.114917e-002
1.465635e+003, 4.039582e-002
1.467563e+003, 3.974056e-002
1.469492e+003, 3.908310e-002
1.471420e+003, 3.855074e-002
1.473349e+003, 3.806567e-002
1.475277e+003, 3.756011e-002
1.477205e+003, 3.700603e-002
1.479134e+003, 3.638694e-002
1.481062e+003, 3.570455e-002
1.482991e+003, 3.502643e-002
1.484919e+003, 3.453019e-002
1.486848e+003, 3.409480e-002
1.488776e+003, 3.353449e-002
1.490705e+003, 3.293082e-002
1.492633e+003, 3.234224e-002
1.494562e+003, 3.182759e-002
1.496490e+003, 3.141928e-002
1.498419e+003, 3.088083e-002
1.500347e+003, 3.029908e-002
1.502276e+003, 2.982619e-002
1.504204e+003, 2.943013e-002
1.506132e+003, 2.903376e-002
1.508061e+003, 2.844287e-002
1.509989e+003, 2.793807e-002
1.511918e+003, 2.746377e-002
1.513846e+003, 2.698663e-002
1.515775e+003, 2.653735e-002
1.517703e+003, 2.606570e-002
1.519632e+003, 2.561900e-002
1.521560e+003, 2.519657e-002
1.523489e+003, 2.475653e-002
1.525417e+003, 2.434206e-002
1.527346e+003, 2.390473e-002
1.529274e+003, 2.345075e-002
1.531203e+003, 2.302185e-002
1.533131e+003, 2.257881e-002
1.535059e+003, 2.204007e-002
1.536988e+003, 2.158644e-002
1.538916e+003, 2.129253e-002
1.540845e+003, 2.093270e-002
1.542773e+003, 2.042861e-002
1.544702e+003, 1.999428e-002
1.546630e+003, 1.959546e-002
1.548559e+003, 1.914738e-002
1.550487e+003, 1.875488e-002
1.552416e+003, 1.840573e-002
1.554344e+003, 1.806296e-002
1.556273e+003, 1.773965e-002
1.558201e+003, 1.764539e-002
1.560130e+003, 1.759091e-002
1.562058e+003, 1.741740e-002
1.563986e+003, 1.735728e-002
1.565915e+003, 1.726881e-002
1.567843e+003, 1.715958e-002
1.569772e+003, 1.702088e-002
1.571700e+003, 1.701065e-002
1.573629e+003, 1.715521e-002
1.575557e+003, 1.720694e-002
1.577486e+003, 1.705639e-002
1.579414e+003, 1.692685e-002
1.581343e+003, 1.694498e-002
1.583271e+003, 1.698622e-002
1.585200e+003, 1.690111e-002
1.587128e+003, 1.683436e-002
1.589057e+003, 1.685711e-002
1.590985e+003, 1.686767e-002
1.592913e+003, 1.678334e-002
1.594842e+003, 1.670474e-002
1.596770e+003, 1.666694e-002
1.598699e+003, 1.666100e-002
1.600627e+003, 1.674253e-002
1.602556e+003, 1.679249e-002
1.604484e+003, 1.676683e-002
1.606413e+003, 1.678903e-002
1.608341e+003, 1.690755e-002
1.610270e+003, 1.699390e-002
1.612198e+003, 1.710165e-002
1.614127e+003, 1.723275e-002
1.616055e+003, 1.744410e-002
1.617984e+003, 1.750211e-002
1.619912e+003, 1.740928e-002
1.621840e+003, 1.741044e-002
1.623769e+003, 1.756024e-002
1.625697e+003, 1.773169e-002
1.627626e+003, 1.781592e-002
1.629554e+003, 1.780351e-002
1.631483e+003, 1.778887e-002
1.633411e+003, 1.783220e-002
1.635340e+003, 1.783246e-002
1.637268e+003, 1.778161e-002
1.639197e+003, 1.767904e-002
1.641125e+003, 1.750903e-002
1.643054e+003, 1.745817e-002
1.644982e+003, 1.728727e-002
1.646911e+003, 1.702878e-002
1.648839e+003, 1.682423e-002
1.650767e+003, 1.675609e-002
1.652696e+003, 1.675043e-002
1.654624e+003, 1.651237e-002
1.656553e+003, 1.628632e-002
1.658481e+003, 1.609682e-002
1.660410e+003, 1.589087e-002
1.662338e+003, 1.584045e-002
1.664267e+003, 1.577050e-002
1.666195e+003, 1.552057e-002
1.668124e+003, 1.528964e-002
1.670052e+003, 1.524249e-002
1.671981e+003, 1.515073e-002
1.673909e+003, 1.502272e-002
1.675838e+003, 1.503894e-002
1.677766e+003, 1.486365e-002
1.679694e+003, 1.467905e-002
1.681623e+003, 1.452854e-002
1.683551e+003, 1.444101e-002
1.685480e+003, 1.433213e-002
1.687408e+003, 1.431414e-002
1.689337e+003, 1.428158e-002
1.691265e+003, 1.418560e-002
1.693194e+003, 1.406136e-002
1.695122e+003, 1.396613e-002
1.697051e+003, 1.385572e-002
1.698979e+003, 1.388856e-002
1.700908e+003, 1.379779e-002
1.702836e+003, 1.348308e-002
1.704765e+003, 1.345922e-002
1.706693e+003, 1.352639e-002
1.708621e+003, 1.352269e-002
1.710550e+003, 1.350360e-002
1.712478e+003, 1.345751e-002
1.714407e+003, 1.336115e-002
1.716335e+003, 1.329535e-002
1.718264e+003, 1.314489e-002
1.720192e+003, 1.296789e-002
1.722121e+003, 1.293980e-002
1.724049e+003, 1.310658e-002
1.725978e+003, 1.309690e-002
1.727906e+003, 1.295552e-002
1.729835e+003, 1.266646e-002
1.731763e+003, 1.233192e-002
1.733692e+003, 1.242659e-002
1.735620e+003, 1.238205e-002
1.737548e+003, 1.214260e-002
1.739477e+003, 1.216310e-002
1.741405e+003, 1.211865e-002
1.743334e+003, 1.209509e-002
1.745262e+003, 1.202756e-002
1.747191e+003, 1.200350e-002
1.749119e+003, 1.197670e-002
1.751048e+003, 1.193585e-002
1.752976e+003, 1.205685e-002
1.754905e+003, 1.212594e-002
1.756833e+003, 1.209041e-002
1.758762e+003, 1.205407e-002
1.760690e+003, 1.210195e-002
1.762619e+003, 1.206856e-002
1.764547e+003, 1.205041e-002
1.766475e+003, 1.199995e-002
1.768404e+003, 1.201299e-002
1.770332e+003, 1.211070e-002
1.772261e+003, 1.219572e-002
1.774189e+003, 1.230670e-002
1.776118e+003, 1.223994e-002
1.778046e+003, 1.219625e-002
1.779975e+003, 1.237121e-002
1.781903e+003, 1.260380e-002
1.783832e+003, 1.274733e-002
1.785760e+003, 1.280177e-002
1.787689e+003, 1.273845e-002
1.789617e+003, 1.275044e-002
1.791546e+003, 1.292743e-002
1.793474e+003, 1.302726e-002
1.795402e+003, 1.299905e-002
1.797331e+003, 1.306811e-002
1.799259e+003, 1.307456e-002
1.801188e+003, 1.301435e-002
1.803116e+003, 1.278278e-002
1.805045e+003, 1.257714e-002
1.806973e+003, 1.240881e-002
1.808902e+003, 1.221913e-002
1.810830e+003, 1.203802e-002
1.812759e+003, 1.175979e-002
1.814687e+003, 1.144730e-002
1.816616e+003, 1.142002e-002
1.818544e+003, 1.148435e-002
1.820473e+003, 1.157726e-002
1.822401e+003, 1.174334e-002
1.824329e+003, 1.165976e-002
1.826258e+003, 1.147179e-002
1.828186e+003, 1.132358e-002
1.830115e+003, 1.127223e-002
1.832043e+003, 1.133232e-002
1.833972e+003, 1.138339e-002
1.835900e+003, 1.133409e-002
1.837829e+003, 1.138750e-002
1.839757e+003, 1.144237e-002
1.841686e+003, 1.148209e-002
1.843614e+003, 1.155677e-002
1.845543e+003, 1.131038e-002
1.847471e+003, 1.117185e-002
1.849400e+003, 1.107019e-002
1.851328e+003, 1.089841e-002
1.853256e+003, 1.070606e-002
1.855185e+003, 1.097077e-002
1.857113e+003, 1.122617e-002
1.859042e+003, 1.108700e-002
1.860970e+003, 1.082843e-002
1.862899e+003, 1.090547e-002
1.864827e+003, 1.106489e-002
1.866756e+003, 1.092548e-002
1.868684e+003, 1.075341e-002
1.870613e+003, 1.103381e-002
1.872541e+003, 1.119489e-002
1.874470e+003, 1.109347e-002
1.876398e+003, 1.110390e-002
1.878327e+003, 1.094573e-002
1.880255e+003, 1.073474e-002
1.882183e+003, 1.047139e-002
1.884112e+003, 1.031423e-002
1.886040e+003, 1.042521e-002
1.887969e+003, 1.054409e-002
1.889897e+003, 1.064384e-002
1.891826e+003, 1.039824e-002
1.893754e+003, 1.054882e-002
1.895683e+003, 1.052522e-002
1.897611e+003, 1.070790e-002
1.899540e+003, 1.084576e-002
1.901468e+003, 1.027330e-002
1.903397e+003, 1.011383e-002
1.905325e+003, 1.050914e-002
1.907254e+003, 1.082400e-002
1.909182e+003, 1.066465e-002
1.911110e+003, 1.044993e-002
1.913039e+003, 1.057759e-002
1.914967e+003, 1.057261e-002
1.916896e+003, 1.056550e-002
1.918824e+003, 1.057655e-002
1.920753e+003, 1.045549e-002
1.922681e+003, 1.031644e-002
1.924610e+003, 1.029155e-002
1.926538e+003, 1.001018e-002
1.928467e+003, 9.980026e-003
1.930395e+003, 9.954734e-003
1.932324e+003, 1.022239e-002
1.934252e+003, 1.045360e-002
1.936181e+003, 9.785043e-003
1.938109e+003, 9.593383e-003
1.940037e+003, 9.759950e-003
1.941966e+003, 9.737347e-003
1.943894e+003, 1.000338e-002
1.945823e+003, 1.007863e-002
1.947751e+003, 9.927345e-003
1.949680e+003, 1.013283e-002
1.951608e+003, 1.024580e-002
1.953537e+003, 9.721985e-003
1.955465e+003, 9.120014e-003
1.957394e+003, 9.075481e-003
1.959322e+003, 9.640180e-003
1.961251e+003, 1.002072e-002
1.963179e+003, 9.777120e-003
1.965108e+003, 1.005193e-002
1.967036e+003, 1.023302e-002
1.968964e+003, 1.031128e-002
1.970893e+003, 1.005282e-002
1.972821e+003, 9.353617e-003
1.974750e+003, 9.327793e-003
1.976678e+003, 1.063135e-002
1.978607e+003, 1.185869e-002
1.980535e+003, 1.184441e-002
1.982464e+003, 1.209988e-002
1.984392e+003, 1.220978e-002
1.986321e+003, 1.206684e-002
1.988249e+003, 1.186742e-002
1.990178e+003, 1.177651e-002
1.992106e+003, 1.186768e-002
1.994035e+003, 1.214307e-002
1.995963e+003, 1.162609e-002
1.997891e+003, 1.068048e-002
1.999820e+003, 1.069552e-002
2.001748e+003, 1.067672e-002
2.003677e+003, 9.685620e-003
2.005605e+003, 9.649547e-003
2.007534e+003, 1.119916e-002
2.009462e+003, 1.181917e-002
2.011391e+003, 1.120879e-002
2.013319e+003, 1.068919e-002
2.015248e+003, 1.055978e-002
2.017176e+003, 1.080880e-002
2.019105e+003, 1.122789e-002
2.021033e+003, 1.116440e-002
2.022962e+003, 1.070879e-002
2.024890e+003, 1.069781e-002
2.026818e+003, 1.121183e-002
2.028747e+003, 1.128793e-002
2.030675e+003, 1.117033e-002
2.032604e+003, 1.162189e-002
2.034532e+003, 1.169446e-002
2.036461e+003, 1.109422e-002
2.038389e+003, 1.132756e-002
2.040318e+003, 1.210781e-002
2.042246e+003, 1.164998e-002
2.044175e+003, 1.167770e-002
2.046103e+003, 1.175684e-002
2.048031e+003, 1.184753e-002
2.049960e+003, 1.286646e-002
2.051888e+003, 1.244526e-002
2.053817e+003, 1.120973e-002
2.055745e+003, 1.111749e-002
2.057674e+003, 1.167455e-002
2.059602e+003, 1.164462e-002
2.061531e+003, 1.161548e-002
2.063459e+003, 1.174526e-002
2.065388e+003, 1.162491e-002
2.067316e+003, 1.125781e-002
2.069245e+003, 1.122163e-002
2.071173e+003, 1.159666e-002
2.073102e+003, 1.173164e-002
2.075030e+003, 1.216309e-002
2.076958e+003, 1.227405e-002
2.078887e+003, 1.224646e-002
2.080815e+003, 1.269296e-002
2.082744e+003, 1.264940e-002
2.084672e+003, 1.232327e-002
2.086601e+003, 1.197182e-002
2.088529e+003, 1.153662e-002
2.090458e+003, 1.151371e-002
2.092386e+003, 1.123917e-002
2.094315e+003, 1.119576e-002
2.096243e+003, 1.205343e-002
2.098172e+003, 1.274614e-002
2.100100e+003, 1.302717e-002
2.102029e+003, 1.268982e-002
2.103957e+003, 1.214693e-002
2.105885e+003, 1.231503e-002
2.107814e+003, 1.276238e-002
2.109742e+003, 1.277968e-002
2.111671e+003, 1.267641e-002
2.113599e+003, 1.230969e-002
2.115528e+003, 1.210999e-002
2.117456e+003, 1.184676e-002
2.119385e+003, 1.133800e-002
2.121313e+003, 1.102614e-002
2.123242e+003, 1.139910e-002
2.125170e+003, 1.187908e-002
2.127099e+003, 1.138513e-002
2.129027e+003, 1.067739e-002
2.130956e+003, 9.956907e-003
2.132884e+003, 9.308277e-003
2.134813e+003, 9.976403e-003
2.136741e+003, 1.061660e-002
2.138669e+003, 1.064226e-002
2.140598e+003, 1.024265e-002
2.142526e+003, 1.028894e-002
2.144455e+003, 1.057933e-002
2.146383e+003, 1.055228e-002
2.148312e+003, 1.093695e-002
2.150240e+003, 1.081645e-002
2.152169e+003, 1.025404e-002
2.154097e+003, 9.983548e-003
2.156026e+003, 9.729340e-003
2.157954e+003, 1.130203e-002
2.159883e+003, 1.554662e-002
2.161811e+003, 1.659975e-002
2.163740e+003, 1.696056e-002
2.165668e+003, 1.662156e-002
2.167596e+003, 1.601161e-002
2.169525e+003, 1.610473e-002
2.171453e+003, 1.465442e-002
2.173382e+003, 1.383350e-002
2.175310e+003, 1.374783e-002
2.177239e+003, 1.393066e-002
2.179167e+003, 1.386851e-002
2.181096e+003, 1.466904e-002
2.183024e+003, 1.605674e-002
2.184953e+003, 1.636556e-002
2.186881e+003, 1.581067e-002
2.188810e+003, 1.475670e-002
2.190738e+003, 1.335075e-002
2.192667e+003, 1.357065e-002
2.194595e+003, 1.531503e-002
2.196523e+003, 1.588295e-002
2.198452e+003, 1.516954e-002
2.200380e+003, 1.491418e-002
2.202309e+003, 1.448057e-002
2.204237e+003, 1.370505e-002
2.206166e+003, 1.346572e-002
2.208094e+003, 1.386441e-002
2.210023e+003, 1.420006e-002
2.211951e+003, 1.466474e-002
2.213880e+003, 1.570762e-002
2.215808e+003, 1.553560e-002
2.217737e+003, 1.476784e-002
2.219665e+003, 1.464165e-002
2.221594e+003, 1.488952e-002
2.223522e+003, 1.534012e-002
2.225450e+003, 1.464076e-002
2.227379e+003, 1.430747e-002
2.229307e+003, 1.462121e-002
2.231236e+003, 1.418784e-002
2.233164e+003, 1.392933e-002
2.235093e+003, 1.444809e-002
2.237021e+003, 1.468685e-002
2.238950e+003, 1.485115e-002
2.240878e+003, 1.512470e-002
2.242807e+003, 1.516907e-002
2.244735e+003, 1.526168e-002
2.246664e+003, 1.545672e-002
2.248592e+003, 1.497429e-002
2.250521e+003, 1.445369e-002
2.252449e+003, 1.448855e-002
2.254377e+003, 1.479088e-002
2.256306e+003, 1.501759e-002
2.258234e+003, 1.545070e-002
2.260163e+003, 1.550041e-002
2.262091e+003, 1.528610e-002
2.264020e+003, 1.507358e-002
2.265948e+003, 1.529305e-002
2.267877e+003, 1.590519e-002
2.269805e+003, 1.615972e-002
2.271734e+003, 1.584081e-002
2.273662e+003, 1.590747e-002
2.275591e+003, 1.594842e-002
2.277519e+003, 1.594698e-002
2.279448e+003, 1.607193e-002
2.281376e+003, 1.684345e-002
2.283304e+003, 1.691126e-002
2.285233e+003, 1.646517e-002
2.287161e+003, 1.640110e-002
2.289090e+003, 1.615539e-002
2.291018e+003, 1.578952e-002
2.292947e+003, 1.560968e-002
2.294875e+003, 1.566040e-002
2.296804e+003, 1.591459e-002
2.298732e+003, 1.556085e-002
2.300661e+003, 1.533492e-002
2.302589e+003, 1.587966e-002
2.304518e+003, 1.586700e-002
2.306446e+003, 1.540294e-002
2.308375e+003, 1.543572e-002
2.310303e+003, 1.561950e-002
2.312231e+003, 1.582688e-002
2.314160e+003, 1.600222e-002
2.316088e+003, 1.597639e-002
2.318017e+003, 1.599161e-002
2.319945e+003, 1.640009e-002
2.321874e+003, 1.699457e-002
2.323802e+003, 1.694112e-002
2.325731e+003, 1.589307e-002
2.327659e+003, 1.516261e-002
2.329588e+003, 1.499310e-002
2.331516e+003, 1.497253e-002
2.333445e+003, 1.504354e-002
2.335373e+003, 1.504785e-002
2.337302e+003, 1.479684e-002
2.339230e+003, 1.481985e-002
2.341158e+003, 1.501614e-002
2.343087e+003, 1.485922e-002
2.345015e+003, 1.472095e-002
2.346944e+003, 1.490238e-002
2.348872e+003, 1.496947e-002
2.350801e+003, 1.497801e-002
2.352729e+003, 1.502386e-002
2.354658e+003, 1.504048e-002
2.356586e+003, 1.510787e-002
2.358515e+003, 1.511321e-002
2.360443e+003, 1.515554e-002
2.362372e+003, 1.506901e-002
2.364300e+003, 1.498138e-002
2.366229e+003, 1.465481e-002
2.368157e+003, 1.468165e-002
2.370085e+003, 1.471530e-002
2.372014e+003, 1.454375e-002
2.373942e+003, 1.455909e-002
2.375871e+003, 1.461020e-002
2.377799e+003, 1.454627e-002
2.379728e+003, 1.448576e-002
2.381656e+003, 1.475607e-002
2.383585e+003, 1.483968e-002
2.385513e+003, 1.493571e-002
2.387442e+003, 1.517678e-002
2.389370e+003, 1.510643e-002
2.391299e+003, 1.486774e-002
2.393227e+003, 1.486910e-002
2.395156e+003, 1.522405e-002
2.397084e+003, 1.544520e-002
2.399012e+003, 1.545064e-002
2.400941e+003, 1.538354e-002
2.402869e+003, 1.480368e-002
2.404798e+003, 1.465624e-002
2.406726e+003, 1.508993e-002
2.408655e+003, 1.563338e-002
2.410583e+003, 1.564760e-002
2.412512e+003, 1.556861e-002
2.414440e+003, 1.578913e-002
2.416369e+003, 1.620931e-002
2.418297e+003, 1.622447e-002
2.420226e+003, 1.583187e-002
2.422154e+003, 1.570628e-002
2.424083e+003, 1.578253e-002
2.426011e+003, 1.599387e-002
2.427939e+003, 1.625053e-002
2.429868e+003, 1.605734e-002
2.431796e+003, 1.594413e-002
2.433725e+003, 1.604190e-002
2.435653e+003, 1.619945e-002
2.437582e+003, 1.634035e-002
2.439510e+003, 1.603775e-002
2.441439e+003, 1.633270e-002
2.443367e+003, 1.645828e-002
2.445296e+003, 1.650299e-002
2.447224e+003, 1.668777e-002
2.449153e+003, 1.677005e-002
2.451081e+003, 1.677884e-002
2.453010e+003, 1.657950e-002
2.454938e+003, 1.628942e-002
2.456866e+003, 1.621663e-002
2.458795e+003, 1.632031e-002
2.460723e+003, 1.634806e-002
2.462652e+003, 1.656286e-002
2.464580e+003, 1.681615e-002
2.466509e+003, 1.671497e-002
2.468437e+003, 1.663687e-002
2.470366e+003, 1.666114e-002
2.472294e+003, 1.642920e-002
2.474223e+003, 1.638429e-002
2.476151e+003, 1.666979e-002
2.478080e+003, 1.664288e-002
2.480008e+003, 1.669126e-002
2.481937e+003, 1.711369e-002
2.483865e+003, 1.723850e-002
2.485793e+003, 1.690986e-002
2.487722e+003, 1.680196e-002
2.489650e+003, 1.679669e-002
2.491579e+003, 1.729247e-002
2.493507e+003, 1.755585e-002
2.495436e+003, 1.727237e-002
2.497364e+003, 1.733100e-002
2.499293e+003, 1.744692e-002
2.501221e+003, 1.739449e-002
2.503150e+003, 1.742287e-002
2.505078e+003, 1.742444e-002
2.507007e+003, 1.723315e-002
2.508935e+003, 1.735329e-002
2.510864e+003, 1.745806e-002
2.512792e+003, 1.756543e-002
2.514720e+003, 1.778592e-002
2.516649e+003, 1.788300e-002
2.518577e+003, 1.769786e-002
2.520506e+003, 1.758518e-002
2.522434e+003, 1.736234e-002
2.524363e+003, 1.745657e-002
2.526291e+003, 1.754921e-002
2.528220e+003, 1.759986e-002
2.530148e+003, 1.761341e-002
2.532077e+003, 1.769142e-002
2.534005e+003, 1.752093e-002
2.535934e+003, 1.710087e-002
2.537862e+003, 1.664320e-002
2.539791e+003, 1.722006e-002
2.541719e+003, 1.773465e-002
2.543647e+003, 1.739441e-002
2.545576e+003, 1.726209e-002
2.547504e+003, 1.738291e-002
2.549433e+003, 1.727882e-002
2.551361e+003, 1.719097e-002
2.553290e+003, 1.743800e-002
2.555218e+003, 1.773404e-002
2.557147e+003, 1.775065e-002
2.559075e+003, 1.791289e-002
2.561004e+003, 1.821890e-002
2.562932e+003, 1.810276e-002
2.564861e+003, 1.753778e-002
2.566789e+003, 1.722354e-002
2.568718e+003, 1.716039e-002
2.570646e+003, 1.760457e-002
2.572574e+003, 1.791411e-002
2.574503e+003, 1.803628e-002
2.576431e+003, 1.795702e-002
2.578360e+003, 1.796305e-002
2.580288e+003, 1.804543e-002
2.582217e+003, 1.811948e-002
2.584145e+003, 1.814177e-002
2.586074e+003, 1.804381e-002
2.588002e+003, 1.834779e-002
2.589931e+003, 1.852638e-002
2.591859e+003, 1.829790e-002
2.593788e+003, 1.816273e-002
2.595716e+003, 1.842034e-002
2.597645e+003, 1.862201e-002
2.599573e+003, 1.857407e-002
2.601501e+003, 1.836614e-002
2.603430e+003, 1.820097e-002
2.605358e+003, 1.838768e-002
2.607287e+003, 1.846307e-002
2.609215e+003, 1.855859e-002
2.611144e+003, 1.883887e-002
2.613072e+003, 1.873955e-002
2.615001e+003, 1.860589e-002
2.616929e+003, 1.883678e-002
2.618858e+003, 1.911788e-002
2.620786e+003, 1.926642e-002
2.622715e+003, 1.915577e-002
2.624643e+003, 1.881488e-002
2.626572e+003, 1.895590e-002
2.628500e+003, 1.912777e-002
2.630428e+003, 1.901672e-002
2.632357e+003, 1.919684e-002
2.634285e+003, 1.940322e-002
2.636214e+003, 1.924337e-002
2.638142e+003, 1.905520e-002
2.640071e+003, 1.901351e-002
2.641999e+003, 1.898091e-002
2.643928e+003, 1.896738e-002
2.645856e+003, 1.928317e-002
2.647785e+003, 1.948295e-002
2.649713e+003, 1.951310e-002
2.651642e+003, 1.946283e-002
2.653570e+003, 1.933899e-002
2.655499e+003, 1.931658e-002
2.657427e+003, 1.909808e-002
2.659355e+003, 1.895738e-002
2.661284e+003, 1.896536e-002
2.663212e+003, 1.881278e-002
2.665141e+003, 1.882609e-002
2.667069e+003, 1.868152e-002
2.668998e+003, 1.842766e-002
2.670926e+003, 1.860954e-002
2.672855e+003, 1.857894e-002
2.674783e+003, 1.856088e-002
2.676712e+003, 1.857828e-002
2.678640e+003, 1.872033e-002
2.680569e+003, 1.880264e-002
2.682497e+003, 1.872608e-002
2.684426e+003, 1.878479e-002
2.686354e+003, 1.894100e-002
2.688282e+003, 1.885869e-002
2.690211e+003, 1.878650e-002
2.692139e+003, 1.885486e-002
2.694068e+003, 1.897955e-002
2.695996e+003, 1.910305e-002
2.697925e+003, 1.902610e-002
2.699853e+003, 1.883611e-002
2.701782e+003, 1.888501e-002
2.703710e+003, 1.906643e-002
2.705639e+003, 1.911416e-002
2.707567e+003, 1.913003e-002
2.709496e+003, 1.928059e-002
2.711424e+003, 1.935108e-002
2.713353e+003, 1.914440e-002
2.715281e+003, 1.909598e-002
2.717209e+003, 1.939722e-002
2.719138e+003, 1.969911e-002
2.721066e+003, 1.962835e-002
2.722995e+003, 1.973258e-002
2.724923e+003, 1.987772e-002
2.726852e+003, 1.993383e-002
2.728780e+003, 1.994441e-002
2.730709e+003, 1.998773e-002
2.732637e+003, 1.992906e-002
2.734566e+003, 1.969573e-002
2.736494e+003, 1.993038e-002
2.738423e+003, 2.009471e-002
2.740351e+003, 1.993607e-002
2.742280e+003, 2.013690e-002
2.744208e+003, 2.021031e-002
2.746136e+003, 1.983446e-002
2.748065e+003, 1.982475e-002
2.749993e+003, 2.019749e-002
2.751922e+003, 2.062260e-002
2.753850e+003, 2.067016e-002
2.755779e+003, 2.048980e-002
2.757707e+003, 2.044936e-002
2.759636e+003, 2.056445e-002
2.761564e+003, 2.066499e-002
2.763493e+003, 2.069131e-002
2.765421e+003, 2.073322e-002
2.767350e+003, 2.071537e-002
2.769278e+003, 2.056623e-002
2.771207e+003, 2.080312e-002
2.773135e+003, 2.134362e-002
2.775063e+003, 2.130584e-002
2.776992e+003, 2.121788e-002
2.778920e+003, 2.133266e-002
2.780849e+003, 2.120958e-002
2.782777e+003, 2.111372e-002
2.784706e+003, 2.092563e-002
2.786634e+003, 2.081045e-002
2.788563e+003, 2.112179e-002
2.790491e+003, 2.142929e-002
2.792420e+003, 2.156301e-002
2.794348e+003, 2.170577e-002
2.796277e+003, 2.183117e-002
2.798205e+003, 2.193087e-002
2.800134e+003, 2.175571e-002
2.802062e+003, 2.154185e-002
2.803990e+003, 2.188700e-002
2.805919e+003, 2.239159e-002
2.807847e+003, 2.242229e-002
2.809776e+003, 2.210354e-002
2.811704e+003, 2.206660e-002
2.813633e+003, 2.229872e-002
2.815561e+003, 2.226599e-002
2.817490e+003, 2.209280e-002
2.819418e+003, 2.242763e-002
2.821347e+003, 2.289630e-002
2.823275e+003, 2.307920e-002
2.825204e+003, 2.296512e-002
2.827132e+003, 2.283827e-002
2.829061e+003, 2.298762e-002
2.830989e+003, 2.309768e-002
2.832917e+003, 2.315030e-002
2.834846e+003, 2.321781e-002
2.836774e+003, 2.327332e-002
2.838703e+003, 2.316499e-002
2.840631e+003, 2.308594e-002
2.842560e+003, 2.323796e-002
2.844488e+003, 2.339689e-002
2.846417e+003, 2.347164e-002
2.848345e+003, 2.369096e-002
2.850274e+003, 2.390249e-002
2.852202e+003, 2.370072e-002
2.854131e+003, 2.333476e-002
2.856059e+003, 2.312449e-002
2.857988e+003, 2.315685e-002
2.859916e+003, 2.344907e-002
2.861844e+003, 2.365204e-002
2.863773e+003, 2.370227e-002
2.865701e+003, 2.393877e-002
2.867630e+003, 2.425507e-002
2.869558e+003, 2.395223e-002
2.871487e+003, 2.393416e-002
2.873415e+003, 2.436574e-002
2.875344e+003, 2.455082e-002
2.877272e+003, 2.448578e-002
2.879201e+003, 2.443619e-002
2.881129e+003, 2.449410e-002
2.883058e+003, 2.471671e-002
2.884986e+003, 2.478673e-002
2.886915e+003, 2.475575e-002
2.888843e+003, 2.491568e-002
2.890771e+003, 2.528201e-002
2.892700e+003, 2.513113e-002
2.894628e+003, 2.476113e-002
2.896557e+003, 2.476272e-002
2.898485e+003, 2.510625e-002
2.900414e+003, 2.522263e-002
2.902342e+003, 2.524408e-002
2.904271e+003, 2.537392e-002
2.906199e+003, 2.572620e-002
2.908128e+003, 2.567716e-002
2.910056e+003, 2.558907e-002
2.911985e+003, 2.561594e-002
2.913913e+003, 2.591734e-002
2.915842e+003, 2.593396e-002
2.917770e+003, 2.573077e-002
2.919698e+003, 2.568920e-002
2.921627e+003, 2.575010e-002
2.923555e+003, 2.551343e-002
2.925484e+003, 2.527697e-002
2.927412e+003, 2.510305e-002
2.929341e+003, 2.504897e-002
2.931269e+003, 2.542782e-002
2.933198e+003, 2.569449e-002
2.935126e+003, 2.561897e-002
2.937055e+003, 2.594440e-002
2.938983e+003, 2.614239e-002
2.940912e+003, 2.601870e-002
2.942840e+003, 2.612469e-002
2.944769e+003, 2.625920e-002
2.946697e+003, 2.625682e-002
2.948625e+003, 2.625383e-002
2.950554e+003, 2.595179e-002
2.952482e+003, 2.574373e-002
2.954411e+003, 2.566664e-002
2.956339e+003, 2.588494e-002
2.958268e+003, 2.648460e-002
2.960196e+003, 2.672443e-002
2.962125e+003, 2.661696e-002
2.964053e+003, 2.678506e-002
2.965982e+003, 2.704360e-002
2.967910e+003, 2.699467e-002
2.969839e+003, 2.669117e-002
2.971767e+003, 2.679805e-002
2.973696e+003, 2.744921e-002
2.975624e+003, 2.783151e-002
2.977552e+003, 2.737481e-002
2.979481e+003, 2.693249e-002
2.981409e+003, 2.714538e-002
2.983338e+003, 2.749707e-002
2.985266e+003, 2.752885e-002
2.987195e+003, 2.733643e-002
2.989123e+003, 2.753825e-002
2.991052e+003, 2.798457e-002
2.992980e+003, 2.789183e-002
2.994909e+003, 2.786243e-002
2.996837e+003, 2.790488e-002
2.998766e+003, 2.783917e-002
3.000694e+003, 2.749580e-002
3.002623e+003, 2.742250e-002
3.004551e+003, 2.764384e-002
3.006479e+003, 2.802026e-002
3.008408e+003, 2.822723e-002
3.010336e+003, 2.778194e-002
3.012265e+003, 2.766056e-002
3.014193e+003, 2.807876e-002
3.016122e+003, 2.831931e-002
3.018050e+003, 2.841953e-002
3.019979e+003, 2.820404e-002
3.021907e+003, 2.803010e-002
3.023836e+003, 2.803783e-002
3.025764e+003, 2.833265e-002
3.027693e+003, 2.846374e-002
3.029621e+003, 2.853272e-002
3.031550e+003, 2.870934e-002
3.033478e+003, 2.868269e-002
3.035406e+003, 2.849719e-002
3.037335e+003, 2.817059e-002
3.039263e+003, 2.823917e-002
3.041192e+003, 2.860835e-002
3.043120e+003, 2.895849e-002
3.045049e+003, 2.915441e-002
3.046977e+003, 2.902093e-002
3.048906e+003, 2.909968e-002
3.050834e+003, 2.904283e-002
3.052763e+003, 2.883599e-002
3.054691e+003, 2.858102e-002
3.056620e+003, 2.840513e-002
3.058548e+003, 2.878346e-002
3.060477e+003, 2.943529e-002
3.062405e+003, 2.951202e-002
3.064333e+003, 2.955745e-002
3.066262e+003, 2.961145e-002
3.068190e+003, 2.943360e-002
3.070119e+003, 2.933623e-002
3.072047e+003, 2.953922e-002
3.073976e+003, 2.997693e-002
3.075904e+003, 2.978403e-002
3.077833e+003, 2.971008e-002
3.079761e+003, 3.000112e-002
3.081690e+003, 3.047293e-002
3.083618e+003, 3.037293e-002
3.085547e+003, 3.018735e-002
3.087475e+003, 3.057673e-002
3.089404e+003, 3.084150e-002
3.091332e+003, 3.074722e-002
3.093260e+003, 3.034478e-002
3.095189e+003, 3.035181e-002
3.097117e+003, 3.074872e-002
3.099046e+003, 3.088245e-002
3.100974e+003, 3.102465e-002
3.102903e+003, 3.133347e-002
3.104831e+003, 3.142041e-002
3.106760e+003, 3.140692e-002
3.108688e+003, 3.169176e-002
3.110617e+003, 3.165621e-002
3.112545e+003, 3.167306e-002
3.114474e+003, 3.164343e-002
3.116402e+003, 3.177758e-002
3.118331e+003, 3.182494e-002
3.120259e+003, 3.195731e-002
3.122188e+003, 3.216738e-002
3.124116e+003, 3.229227e-002
3.126044e+003, 3.237464e-002
3.127973e+003, 3.251305e-002
3.129901e+003, 3.222039e-002
3.131830e+003, 3.219740e-002
3.133758e+003, 3.222613e-002
3.135687e+003, 3.267079e-002
3.137615e+003, 3.327771e-002
3.139544e+003, 3.324302e-002
3.141472e+003, 3.316903e-002
3.143401e+003, 3.336097e-002
3.145329e+003, 3.331370e-002
3.147258e+003, 3.324306e-002
3.149186e+003, 3.346420e-002
3.151115e+003, 3.377657e-002
3.153043e+003, 3.381616e-002
3.154971e+003, 3.346613e-002
3.156900e+003, 3.363308e-002
3.158828e+003, 3.425848e-002
3.160757e+003, 3.426809e-002
3.162685e+003, 3.373104e-002
3.164614e+003, 3.383573e-002
3.166542e+003, 3.447273e-002
3.168471e+003, 3.448918e-002
3.170399e+003, 3.439327e-002
3.172328e+003, 3.436588e-002
3.174256e+003, 3.412463e-002
3.176185e+003, 3.434622e-002
3.178113e+003, 3.463329e-002
3.180042e+003, 3.474957e-002
3.181970e+003, 3.498481e-002
3.183898e+003, 3.504850e-002
3.185827e+003, 3.487873e-002
3.187755e+003, 3.457793e-002
3.189684e+003, 3.485500e-002
3.191612e+003, 3.512831e-002
3.193541e+003, 3.516904e-002
3.195469e+003, 3.515366e-002
3.197398e+003, 3.549336e-002
3.199326e+003, 3.580437e-002
3.201255e+003, 3.562437e-002
3.203183e+003, 3.562577e-002
3.205112e+003, 3.556384e-002
3.207040e+003, 3.531467e-002
3.208969e+003, 3.565087e-002
3.210897e+003, 3.628851e-002
3.212825e+003, 3.608315e-002
3.214754e+003, 3.619814e-002
3.216682e+003, 3.648662e-002
3.218611e+003, 3.606170e-002
3.220539e+003, 3.603204e-002
3.222468e+003, 3.674562e-002
3.224396e+003, 3.717706e-002
3.226325e+003, 3.692859e-002
3.228253e+003, 3.676779e-002
3.230182e+003, 3.687224e-002
3.232110e+003, 3.691930e-002
3.234039e+003, 3.692523e-002
3.235967e+003, 3.640598e-002
3.237896e+003, 3.653917e-002
3.239824e+003, 3.711905e-002
3.241752e+003, 3.699025e-002
3.243681e+003, 3.670266e-002
3.245609e+003, 3.705795e-002
3.247538e+003, 3.736265e-002
3.249466e+003, 3.731284e-002
3.251395e+003, 3.745443e-002
3.253323e+003, 3.758775e-002
3.255252e+003, 3.741396e-002
3.257180e+003, 3.760699e-002
3.259109e+003, 3.809617e-002
3.261037e+003, 3.786097e-002
3.262966e+003, 3.767925e-002
3.264894e+003, 3.803525e-002
3.266823e+003, 3.856979e-002
3.268751e+003, 3.873922e-002
3.270679e+003, 3.832577e-002
3.272608e+003, 3.834901e-002
3.274536e+003, 3.885330e-002
3.276465e+003, 3.920654e-002
3.278393e+003, 3.878135e-002
3.280322e+003, 3.877264e-002
3.282250e+003, 3.931056e-002
3.284179e+003, 3.986562e-002
3.286107e+003, 4.042967e-002
3.288036e+003, 4.067171e-002
3.289964e+003, 4.070351e-002
3.291893e+003, 4.077503e-002
3.293821e+003, 4.085067e-002
3.295750e+003, 4.094545e-002
3.297678e+003, 4.090844e-002
3.299606e+003, 4.122024e-002
3.301535e+003, 4.134136e-002
3.303463e+003, 4.141100e-002
3.305392e+003, 4.172893e-002
3.307320e+003, 4.164326e-002
3.309249e+003, 4.200166e-002
3.311177e+003, 4.241283e-002
3.313106e+003, 4.246950e-002
3.315034e+003, 4.283362e-002
3.316963e+003, 4.289237e-002
3.318891e+003, 4.314229e-002
3.320820e+003, 4.355467e-002
3.322748e+003, 4.333474e-002
3.324677e+003, 4.376075e-002
3.326605e+003, 4.442044e-002
3.328533e+003, 4.450018e-002
3.330462e+003, 4.473967e-002
3.332390e+003, 4.555975e-002
3.334319e+003, 4.553000e-002
3.336247e+003, 4.565236e-002
3.338176e+003, 4.657653e-002
3.340104e+003, 4.748228e-002
3.342033e+003, 4.731711e-002
3.343961e+003, 4.695342e-002
3.345890e+003, 4.744486e-002
3.347818e+003, 4.799946e-002
3.349747e+003, 4.853237e-002
3.351675e+003, 4.890869e-002
3.353604e+003, 4.922112e-002
3.355532e+003, 4.961148e-002
3.357460e+003, 5.006220e-002
3.359389e+003, 5.036811e-002
3.361317e+003, 5.038086e-002
3.363246e+003, 5.020719e-002
3.365174e+003, 5.034490e-002
3.367103e+003, 5.088848e-002
3.369031e+003, 5.189470e-002
3.370960e+003, 5.196026e-002
3.372888e+003, 5.159041e-002
3.374817e+003, 5.162254e-002
3.376745e+003, 5.185681e-002
3.378674e+003, 5.221036e-002
3.380602e+003, 5.267011e-002
3.382531e+003, 5.328830e-002
3.384459e+003, 5.353320e-002
3.386387e+003, 5.350445e-002
3.388316e+003, 5.374506e-002
3.390244e+003, 5.388421e-002
3.392173e+003, 5.407748e-002
3.394101e+003, 5.471998e-002
3.396030e+003, 5.486118e-002
3.397958e+003, 5.474893e-002
3.399887e+003, 5.426778e-002
3.401815e+003, 5.433033e-002
3.403744e+003, 5.465809e-002
3.405672e+003, 5.487558e-002
3.407601e+003, 5.486561e-002
3.409529e+003, 5.445002e-002
3.411458e+003, 5.426340e-002
3.413386e+003, 5.434683e-002
3.415314e+003, 5.393339e-002
3.417243e+003, 5.291106e-002
3.419171e+003, 5.224158e-002
3.421100e+003, 5.189535e-002
3.423028e+003, 5.085911e-002
3.424957e+003, 5.029247e-002
3.426885e+003, 5.002683e-002
3.428814e+003, 4.921053e-002
3.430742e+003, 4.856639e-002
3.432671e+003, 4.801026e-002
3.434599e+003, 4.688777e-002
3.436528e+003, 4.589757e-002
3.438456e+003, 4.489834e-002
3.440385e+003, 4.436843e-002
3.442313e+003, 4.383693e-002
3.444241e+003, 4.281863e-002
3.446170e+003, 4.221104e-002
3.448098e+003, 4.195544e-002
3.450027e+003, 4.156207e-002
3.451955e+003, 4.083122e-002
3.453884e+003, 3.992855e-002
3.455812e+003, 3.926800e-002
3.457741e+003, 3.889184e-002
3.459669e+003, 3.867237e-002
3.461598e+003, 3.831487e-002
3.463526e+003, 3.782796e-002
3.465455e+003, 3.726884e-002
3.467383e+003, 3.734667e-002
3.469312e+003, 3.772981e-002
3.471240e+003, 3.802875e-002
3.473168e+003, 3.776322e-002
3.475097e+003, 3.740062e-002
3.477025e+003, 3.755327e-002
3.478954e+003, 3.749430e-002
3.480882e+003, 3.750749e-002
3.482811e+003, 3.769564e-002
3.484739e+003, 3.795954e-002
3.486668e+003, 3.830466e-002
3.488596e+003, 3.916337e-002
3.490525e+003, 3.941289e-002
3.492453e+003, 3.964141e-002
3.494382e+003, 4.022244e-002
3.496310e+003, 4.048148e-002
3.498239e+003, 4.142949e-002
3.500167e+003, 4.269132e-002
3.502095e+003, 4.361145e-002
3.504024e+003, 4.438846e-002
3.505952e+003, 4.493238e-002
3.507881e+003, 4.527590e-002
3.509809e+003, 4.562558e-002
3.511738e+003, 4.590589e-002
3.513666e+003, 4.615689e-002
3.515595e+003, 4.638931e-002
3.517523e+003, 4.587058e-002
3.519452e+003, 4.524117e-002
3.521380e+003, 4.516258e-002
3.523309e+003, 4.471783e-002
3.525237e+003, 4.333856e-002
3.527166e+003, 4.213069e-002
3.529094e+003, 4.164080e-002
3.531022e+003, 4.100223e-002
3.532951e+003, 3.945866e-002
3.534879e+003, 3.778676e-002
3.536808e+003, 3.676697e-002
3.538736e+003, 3.565855e-002
3.540665e+003, 3.478574e-002
3.542593e+003, 3.462949e-002
3.544522e+003, 3.415544e-002
3.546450e+003, 3.327150e-002
3.548379e+003, 3.285582e-002
3.550307e+003, 3.294659e-002
3.552236e+003, 3.364024e-002
3.554164e+003, 3.487494e-002
3.556093e+003, 3.596514e-002
3.558021e+003, 3.527139e-002
3.559949e+003, 3.316765e-002
3.561878e+003, 3.113606e-002
3.563806e+003, 2.999740e-002
3.565735e+003, 2.987003e-002
3.567663e+003, 3.005320e-002
3.569592e+003, 2.983067e-002
3.571520e+003, 2.904895e-002
3.573449e+003, 2.843355e-002
3.575377e+003, 2.842679e-002
3.577306e+003, 2.775693e-002
3.579234e+003, 2.675082e-002
3.581163e+003, 2.594576e-002
3.583091e+003, 2.524316e-002
3.585020e+003, 2.457778e-002
3.586948e+003, 2.437981e-002
3.588876e+003, 2.444761e-002
3.590805e+003, 2.405469e-002
3.592733e+003, 2.366024e-002
3.594662e+003, 2.419466e-002
3.596590e+003, 2.437174e-002
3.598519e+003, 2.448277e-002
3.600447e+003, 2.506636e-002
3.602376e+003, 2.435086e-002
3.604304e+003, 2.455735e-002
3.606233e+003, 2.531311e-002
3.608161e+003, 2.543463e-002
3.610090e+003, 2.565805e-002
3.612018e+003, 2.620686e-002
3.613947e+003, 2.721227e-002
3.615875e+003, 2.860669e-002
3.617803e+003, 2.997961e-002
3.619732e+003, 3.024852e-002
3.621660e+003, 3.134869e-002
3.623589e+003, 3.253635e-002
3.625517e+003, 3.188382e-002
3.627446e+003, 3.067523e-002
3.629374e+003, 2.877639e-002
3.631303e+003, 2.673954e-002
3.633231e+003, 2.473388e-002
3.635160e+003, 2.289949e-002
3.637088e+003, 2.210728e-002
3.639017e+003, 2.180965e-002
3.640945e+003, 2.067881e-002
3.642874e+003, 1.974435e-002
3.644802e+003, 1.977214e-002
3.646730e+003, 1.967760e-002
3.648659e+003, 1.887469e-002
3.650587e+003, 1.818378e-002
3.652516e+003, 1.799934e-002
3.654444e+003, 1.835605e-002
3.656373e+003, 1.807123e-002
3.658301e+003, 1.729113e-002
3.660230e+003, 1.749592e-002
3.662158e+003, 1.834276e-002
3.664087e+003, 1.830782e-002
3.666015e+003, 1.796150e-002
3.667944e+003, 1.757520e-002
3.669872e+003, 1.756388e-002
3.671801e+003, 1.752696e-002
3.673729e+003, 1.770525e-002
3.675657e+003, 1.809952e-002
3.677586e+003, 1.750276e-002
3.679514e+003, 1.704348e-002
3.681443e+003, 1.733251e-002
3.683371e+003, 1.776974e-002
3.685300e+003, 1.737308e-002
3.687228e+003, 1.771553e-002
3.689157e+003, 1.808471e-002
3.691085e+003, 1.803428e-002
3.693014e+003, 1.809986e-002
3.694942e+003, 1.781401e-002
3.696871e+003, 1.784706e-002
3.698799e+003, 1.737683e-002
3.700728e+003, 1.736951e-002
3.702656e+003, 1.768599e-002
3.704584e+003, 1.765820e-002
3.706513e+003, 1.808698e-002
3.708441e+003, 1.788699e-002
3.710370e+003, 1.778378e-002
3.712298e+003, 1.824961e-002
3.714227e+003, 1.869451e-002
3.716155e+003, 1.804051e-002
3.718084e+003, 1.755386e-002
3.720012e+003, 1.812239e-002
3.721941e+003, 1.838806e-002
3.723869e+003, 1.777695e-002
3.725798e+003, 1.748685e-002
3.727726e+003, 1.830277e-002
3.729655e+003, 1.902226e-002
3.731583e+003, 1.831978e-002
3.733511e+003, 1.855606e-002
3.735440e+003, 1.901613e-002
3.737368e+003, 1.848165e-002
3.739297e+003, 1.750813e-002
3.741225e+003, 1.718026e-002
3.743154e+003, 1.814577e-002
3.745082e+003, 1.900574e-002
3.747011e+003, 1.817050e-002
3.748939e+003, 1.747132e-002
3.750868e+003, 1.813104e-002
3.752796e+003, 1.803941e-002
3.754725e+003, 1.824041e-002
3.756653e+003, 1.888039e-002
3.758582e+003, 1.883529e-002
3.760510e+003, 1.876026e-002
3.762438e+003, 1.844508e-002
3.764367e+003, 1.831542e-002
3.766295e+003, 1.801515e-002
3.768224e+003, 1.794599e-002
3.770152e+003, 1.834207e-002
3.772081e+003, 1.861249e-002
3.774009e+003, 1.853588e-002
3.775938e+003, 1.841959e-002
3.777866e+003, 1.785352e-002
3.779795e+003, 1.800951e-002
3.781723e+003, 1.871563e-002
3.783652e+003, 1.841441e-002
3.785580e+003, 1.770249e-002
3.787509e+003, 1.792299e-002
3.789437e+003, 1.881964e-002
3.791365e+003, 1.894487e-002
3.793294e+003, 1.858902e-002
3.795222e+003, 1.867060e-002
3.797151e+003, 1.878189e-002
3.799079e+003, 1.882557e-002
3.801008e+003, 1.850626e-002
3.802936e+003, 1.876684e-002
3.804865e+003, 1.920946e-002
3.806793e+003, 1.909951e-002
3.808722e+003, 1.917776e-002
3.810650e+003, 1.927907e-002
3.812579e+003, 1.877693e-002
3.814507e+003, 1.854051e-002
3.816436e+003, 1.852586e-002
3.818364e+003, 1.851197e-002
3.820292e+003, 1.872269e-002
3.822221e+003, 1.893992e-002
3.824149e+003, 1.874688e-002
3.826078e+003, 1.859404e-002
3.828006e+003, 1.901341e-002
3.829935e+003, 1.944896e-002
3.831863e+003, 1.969657e-002
3.833792e+003, 1.966382e-002
3.835720e+003, 1.934300e-002
3.837649e+003, 1.940522e-002
3.839577e+003, 1.976706e-002
3.841506e+003, 1.945129e-002
3.843434e+003, 1.897567e-002
3.845363e+003, 1.904114e-002
3.847291e+003, 1.865556e-002
3.849219e+003, 1.817375e-002
3.851148e+003, 1.837897e-002
3.853076e+003, 1.911236e-002
3.855005e+003, 1.935529e-002
3.856933e+003, 1.875619e-002
3.858862e+003, 1.888247e-002
3.860790e+003, 1.913245e-002
3.862719e+003, 1.920262e-002
3.864647e+003, 1.898765e-002
3.866576e+003, 1.857531e-002
3.868504e+003, 1.895297e-002
3.870433e+003, 1.893365e-002
3.872361e+003, 1.844308e-002
3.874290e+003, 1.861142e-002
3.876218e+003, 1.917155e-002
3.878146e+003, 1.926949e-002
3.880075e+003, 1.923046e-002
3.882003e+003, 1.902070e-002
3.883932e+003, 1.881622e-002
3.885860e+003, 1.892923e-002
3.887789e+003, 1.895090e-002
3.889717e+003, 1.923692e-002
3.891646e+003, 1.963858e-002
3.893574e+003, 1.925788e-002
3.895503e+003, 1.869545e-002
3.897431e+003, 1.878608e-002
3.899360e+003, 1.899177e-002
3.901288e+003, 1.911989e-002
3.903217e+003, 1.920825e-002
3.905145e+003, 1.868534e-002
3.907073e+003, 1.856698e-002
3.909002e+003, 1.890828e-002
3.910930e+003, 1.910307e-002
3.912859e+003, 1.964860e-002
3.914787e+003, 1.955216e-002
3.916716e+003, 1.900569e-002
3.918644e+003, 1.870182e-002
3.920573e+003, 1.933846e-002
3.922501e+003, 1.977882e-002
3.924430e+003, 1.938765e-002
3.926358e+003, 1.950919e-002
3.928287e+003, 1.925393e-002
3.930215e+003, 1.946717e-002
3.932144e+003, 1.967167e-002
3.934072e+003, 1.971154e-002
3.936000e+003, 1.954327e-002
3.937929e+003, 1.961557e-002
3.939857e+003, 1.940192e-002
3.941786e+003, 1.937883e-002
3.943714e+003, 1.940631e-002
3.945643e+003, 1.989561e-002
3.947571e+003, 2.014622e-002
3.949500e+003, 2.006632e-002
3.951428e+003, 2.046341e-002
3.953357e+003, 2.022158e-002
3.955285e+003, 1.927869e-002
3.957214e+003, 1.855155e-002
3.959142e+003, 1.834609e-002
3.961071e+003, 1.849833e-002
3.962999e+003, 1.910556e-002
3.964927e+003, 1.973564e-002
3.966856e+003, 2.004697e-002
3.968784e+003, 2.042132e-002
3.970713e+003, 2.072526e-002
3.972641e+003, 2.071046e-002
3.974570e+003, 1.996739e-002
3.976498e+003, 1.940138e-002
3.978427e+003, 1.923074e-002
3.980355e+003, 2.007261e-002
3.982284e+003, 2.029997e-002
3.984212e+003, 1.970019e-002
3.986141e+003, 1.982546e-002
3.988069e+003, 2.035365e-002
3.989998e+003, 2.046439e-002
3.991926e+003, 2.036471e-002
3.993854e+003, 1.953967e-002
3.995783e+003, 1.927320e-002
3.997711e+003, 1.950864e-002
3.999640e+003, 1.982531e-002
4.001568e+003, 0.000000e+000
##END=



