##NAMES=Hubnerite
##RRUFFID=R050069
##IDEAL CHEMISTRY=Mn^2+^W^6+^O_4_
##LOCALITY=Yaogangxian, Yizhang County, Hunan Province, China
##OWNER=RRUFF
##SOURCE=Rock Currier
##DESCRIPTION=Black colored prismatic single crystal
##STATUS=The identification of this mineral has been confirmed by X-ray diffraction and chemical analysis
##URL=rruff.info/R050069
##MEASURED CHEMISTRY=(Mn_0.68_Fe_0.32_)W_1.00_O_4_
3.741225e+002, 1.368822e-001
3.760510e+002, 1.410601e-001
3.779795e+002, 1.588068e-001
3.799079e+002, 1.608684e-001
3.818364e+002, 1.637256e-001
3.837649e+002, 1.724808e-001
3.856933e+002, 1.770024e-001
3.876218e+002, 1.844717e-001
3.895503e+002, 1.969071e-001
3.914787e+002, 2.089166e-001
3.934072e+002, 2.185709e-001
3.953357e+002, 2.285782e-001
3.972641e+002, 2.419998e-001
3.991926e+002, 2.497735e-001
4.011211e+002, 2.596112e-001
4.030495e+002, 2.626235e-001
4.049780e+002, 2.673381e-001
4.069065e+002, 2.750300e-001
4.088349e+002, 2.840533e-001
4.107634e+002, 2.886981e-001
4.126919e+002, 2.937949e-001
4.146203e+002, 3.000888e-001
4.165488e+002, 2.986483e-001
4.184773e+002, 2.931568e-001
4.204057e+002, 2.871308e-001
4.223342e+002, 2.795124e-001
4.242627e+002, 2.725798e-001
4.261911e+002, 2.651791e-001
4.281196e+002, 2.629377e-001
4.300481e+002, 2.642899e-001
4.319765e+002, 2.720047e-001
4.339050e+002, 2.818362e-001
4.358335e+002, 2.914847e-001
4.377619e+002, 3.006429e-001
4.396904e+002, 3.087207e-001
4.416189e+002, 3.217326e-001
4.435473e+002, 3.348163e-001
4.454758e+002, 3.412738e-001
4.474043e+002, 3.465182e-001
4.493327e+002, 3.541349e-001
4.512612e+002, 3.595661e-001
4.531897e+002, 3.586996e-001
4.551181e+002, 3.587758e-001
4.570466e+002, 3.560089e-001
4.589751e+002, 3.530321e-001
4.609035e+002, 3.496849e-001
4.628320e+002, 3.463877e-001
4.647605e+002, 3.439038e-001
4.666889e+002, 3.417542e-001
4.686174e+002, 3.372197e-001
4.705459e+002, 3.378490e-001
4.724743e+002, 3.423595e-001
4.744028e+002, 3.469668e-001
4.763313e+002, 3.512656e-001
4.782597e+002, 3.557481e-001
4.801882e+002, 3.616310e-001
4.821167e+002, 3.686467e-001
4.840451e+002, 3.748358e-001
4.859736e+002, 3.814338e-001
4.879021e+002, 3.874358e-001
4.898305e+002, 3.927611e-001
4.917590e+002, 3.969822e-001
4.936875e+002, 3.990840e-001
4.956159e+002, 3.991323e-001
4.975444e+002, 3.994060e-001
4.994729e+002, 3.992729e-001
5.014013e+002, 3.984805e-001
5.033298e+002, 3.971322e-001
5.052583e+002, 3.947020e-001
5.071867e+002, 3.915375e-001
5.091152e+002, 3.868344e-001
5.110437e+002, 3.817283e-001
5.129721e+002, 3.781191e-001
5.149006e+002, 3.742630e-001
5.168290e+002, 3.695884e-001
5.187575e+002, 3.645500e-001
5.206860e+002, 3.599208e-001
5.226144e+002, 3.553161e-001
5.245429e+002, 3.503457e-001
5.264714e+002, 3.457787e-001
5.283998e+002, 3.420708e-001
5.303283e+002, 3.389916e-001
5.322568e+002, 3.364841e-001
5.341852e+002, 3.343003e-001
5.361137e+002, 3.337958e-001
5.380422e+002, 3.351471e-001
5.399706e+002, 3.369728e-001
5.418991e+002, 3.384574e-001
5.438276e+002, 3.407094e-001
5.457560e+002, 3.430834e-001
5.476845e+002, 3.463735e-001
5.496130e+002, 3.494092e-001
5.515414e+002, 3.530629e-001
5.534699e+002, 3.580124e-001
5.553984e+002, 3.617863e-001
5.573268e+002, 3.655257e-001
5.592553e+002, 3.697494e-001
5.611838e+002, 3.743249e-001
5.631122e+002, 3.780792e-001
5.650407e+002, 3.817121e-001
5.669692e+002, 3.851733e-001
5.688976e+002, 3.890165e-001
5.708261e+002, 3.924961e-001
5.727546e+002, 3.959204e-001
5.746830e+002, 3.984448e-001
5.766115e+002, 4.003413e-001
5.785400e+002, 4.030069e-001
5.804684e+002, 4.049937e-001
5.823969e+002, 4.052181e-001
5.843254e+002, 4.052963e-001
5.862538e+002, 4.059124e-001
5.881823e+002, 4.063715e-001
5.901108e+002, 4.059754e-001
5.920392e+002, 4.057284e-001
5.939677e+002, 4.053736e-001
5.958962e+002, 4.044521e-001
5.978246e+002, 4.030547e-001
5.997531e+002, 4.014031e-001
6.016816e+002, 3.998706e-001
6.036100e+002, 3.983518e-001
6.055385e+002, 3.961868e-001
6.074670e+002, 3.940428e-001
6.093954e+002, 3.922298e-001
6.113239e+002, 3.905314e-001
6.132524e+002, 3.883145e-001
6.151808e+002, 3.854756e-001
6.171093e+002, 3.830714e-001
6.190378e+002, 3.809465e-001
6.209662e+002, 3.785000e-001
6.228947e+002, 3.756271e-001
6.248232e+002, 3.730964e-001
6.267516e+002, 3.705863e-001
6.286801e+002, 3.671480e-001
6.306086e+002, 3.640689e-001
6.325370e+002, 3.612469e-001
6.344655e+002, 3.577566e-001
6.363940e+002, 3.547546e-001
6.383224e+002, 3.518197e-001
6.402509e+002, 3.484470e-001
6.421794e+002, 3.451028e-001
6.441078e+002, 3.417392e-001
6.460363e+002, 3.385019e-001
6.479648e+002, 3.353483e-001
6.498932e+002, 3.320560e-001
6.518217e+002, 3.286765e-001
6.537502e+002, 3.257425e-001
6.556786e+002, 3.229747e-001
6.576071e+002, 3.198714e-001
6.595356e+002, 3.164832e-001
6.614641e+002, 3.134061e-001
6.633925e+002, 3.103651e-001
6.653210e+002, 3.070107e-001
6.672495e+002, 3.035797e-001
6.691779e+002, 2.998659e-001
6.711064e+002, 2.962961e-001
6.730349e+002, 2.929429e-001
6.749633e+002, 2.898088e-001
6.768918e+002, 2.866260e-001
6.788203e+002, 2.830381e-001
6.807487e+002, 2.795992e-001
6.826772e+002, 2.764252e-001
6.846057e+002, 2.732604e-001
6.865341e+002, 2.701521e-001
6.884626e+002, 2.673548e-001
6.903911e+002, 2.644797e-001
6.923195e+002, 2.615766e-001
6.942480e+002, 2.584306e-001
6.961765e+002, 2.552549e-001
6.981049e+002, 2.519793e-001
7.000334e+002, 2.486887e-001
7.019619e+002, 2.452088e-001
7.038903e+002, 2.413018e-001
7.058188e+002, 2.375567e-001
7.077473e+002, 2.334896e-001
7.096757e+002, 2.290189e-001
7.116042e+002, 2.249219e-001
7.135327e+002, 2.206569e-001
7.154611e+002, 2.161603e-001
7.173896e+002, 2.116018e-001
7.193181e+002, 2.068494e-001
7.212465e+002, 2.020884e-001
7.231750e+002, 1.974734e-001
7.251035e+002, 1.928566e-001
7.270319e+002, 1.880141e-001
7.289604e+002, 1.831840e-001
7.308889e+002, 1.785883e-001
7.328173e+002, 1.740622e-001
7.347458e+002, 1.696835e-001
7.366743e+002, 1.655381e-001
7.386027e+002, 1.615831e-001
7.405312e+002, 1.582578e-001
7.424597e+002, 1.554453e-001
7.443881e+002, 1.532603e-001
7.463166e+002, 1.522533e-001
7.482451e+002, 1.521753e-001
7.501735e+002, 1.530294e-001
7.521020e+002, 1.552346e-001
7.540305e+002, 1.581666e-001
7.559589e+002, 1.617693e-001
7.578874e+002, 1.664901e-001
7.598159e+002, 1.714576e-001
7.617443e+002, 1.764442e-001
7.636728e+002, 1.817272e-001
7.656013e+002, 1.873984e-001
7.675297e+002, 1.931373e-001
7.694582e+002, 1.984880e-001
7.713867e+002, 2.037077e-001
7.733151e+002, 2.090555e-001
7.752436e+002, 2.142874e-001
7.771721e+002, 2.193912e-001
7.791005e+002, 2.242905e-001
7.810290e+002, 2.289672e-001
7.829575e+002, 2.334787e-001
7.848859e+002, 2.378107e-001
7.868144e+002, 2.418877e-001
7.887429e+002, 2.455740e-001
7.906713e+002, 2.486025e-001
7.925998e+002, 2.512681e-001
7.945283e+002, 2.535668e-001
7.964567e+002, 2.555559e-001
7.983852e+002, 2.569750e-001
8.003137e+002, 2.580163e-001
8.022421e+002, 2.587424e-001
8.041706e+002, 2.593220e-001
8.060991e+002, 2.592241e-001
8.080275e+002, 2.584274e-001
8.099560e+002, 2.574195e-001
8.118845e+002, 2.560366e-001
8.138129e+002, 2.542540e-001
8.157414e+002, 2.523237e-001
8.176699e+002, 2.498868e-001
8.195983e+002, 2.470897e-001
8.215268e+002, 2.442521e-001
8.234553e+002, 2.410439e-001
8.253837e+002, 2.376134e-001
8.273122e+002, 2.339941e-001
8.292407e+002, 2.302198e-001
8.311691e+002, 2.264220e-001
8.330976e+002, 2.224341e-001
8.350261e+002, 2.183942e-001
8.369545e+002, 2.143257e-001
8.388830e+002, 2.102606e-001
8.408115e+002, 2.063572e-001
8.427399e+002, 2.025730e-001
8.446684e+002, 1.988142e-001
8.465969e+002, 1.951529e-001
8.485253e+002, 1.917331e-001
8.504538e+002, 1.885306e-001
8.523823e+002, 1.855657e-001
8.543107e+002, 1.825448e-001
8.562392e+002, 1.792918e-001
8.581677e+002, 1.758318e-001
8.600961e+002, 1.718860e-001
8.620246e+002, 1.673412e-001
8.639531e+002, 1.624570e-001
8.658815e+002, 1.570113e-001
8.678100e+002, 1.509392e-001
8.697385e+002, 1.445290e-001
8.716669e+002, 1.376873e-001
8.735954e+002, 1.304569e-001
8.755239e+002, 1.227720e-001
8.774523e+002, 1.144608e-001
8.793808e+002, 1.057390e-001
8.813093e+002, 9.684634e-002
8.832377e+002, 8.777620e-002
8.851662e+002, 7.847960e-002
8.870947e+002, 6.933706e-002
8.890231e+002, 6.049590e-002
8.909516e+002, 5.222737e-002
8.928801e+002, 4.496003e-002
8.948085e+002, 3.880597e-002
8.967370e+002, 3.397193e-002
8.986655e+002, 3.040131e-002
9.005939e+002, 2.783606e-002
9.025224e+002, 2.590851e-002
9.044509e+002, 2.441907e-002
9.063793e+002, 2.352570e-002
9.083078e+002, 2.299764e-002
9.102363e+002, 2.251448e-002
9.121647e+002, 2.213307e-002
9.140932e+002, 2.170898e-002
9.160217e+002, 2.126259e-002
9.179501e+002, 2.089293e-002
9.198786e+002, 2.069475e-002
9.218071e+002, 2.048503e-002
9.237355e+002, 2.021698e-002
9.256640e+002, 2.018029e-002
9.275925e+002, 2.009832e-002
9.295209e+002, 1.982099e-002
9.314494e+002, 1.953219e-002
9.333779e+002, 1.924421e-002
9.353063e+002, 1.885886e-002
9.372348e+002, 1.846042e-002
9.391633e+002, 1.815092e-002
9.410917e+002, 1.791030e-002
9.430202e+002, 1.754154e-002
9.449487e+002, 1.734588e-002
9.468771e+002, 1.715652e-002
9.488056e+002, 1.696818e-002
9.507341e+002, 1.681469e-002
9.526625e+002, 1.661786e-002
9.545910e+002, 1.653897e-002
9.565195e+002, 1.633290e-002
9.584479e+002, 1.604922e-002
9.603764e+002, 1.581474e-002
9.623049e+002, 1.556602e-002
9.642333e+002, 1.541205e-002
9.661618e+002, 1.523448e-002
9.680903e+002, 1.502925e-002
9.700187e+002, 1.494662e-002
9.719472e+002, 1.494240e-002
9.738757e+002, 1.476733e-002
9.758041e+002, 1.462160e-002
9.777326e+002, 1.458977e-002
9.796611e+002, 1.453699e-002
9.815895e+002, 1.447115e-002
9.835180e+002, 1.451350e-002
9.854465e+002, 1.447569e-002
9.873749e+002, 1.418322e-002
9.893034e+002, 1.415261e-002
9.912319e+002, 1.427359e-002
9.931603e+002, 1.426054e-002
9.950888e+002, 1.423449e-002
9.970173e+002, 1.429919e-002
9.989457e+002, 1.439353e-002
1.000874e+003, 1.448396e-002
1.002803e+003, 1.434618e-002
1.004731e+003, 1.416418e-002
1.006660e+003, 1.419227e-002
1.008588e+003, 1.438204e-002
1.010517e+003, 1.448626e-002
1.012445e+003, 1.457192e-002
1.014373e+003, 1.469036e-002
1.016302e+003, 1.470238e-002
1.018230e+003, 1.485377e-002
1.020159e+003, 1.504847e-002
1.022087e+003, 1.520015e-002
1.024016e+003, 1.527279e-002
1.025944e+003, 1.534930e-002
1.027873e+003, 1.549206e-002
1.029801e+003, 1.562595e-002
1.031730e+003, 1.575389e-002
1.033658e+003, 1.582566e-002
1.035587e+003, 1.591960e-002
1.037515e+003, 1.603170e-002
1.039443e+003, 1.609619e-002
1.041372e+003, 1.630727e-002
1.043300e+003, 1.657682e-002
1.045229e+003, 1.667202e-002
1.047157e+003, 1.680750e-002
1.049086e+003, 1.695353e-002
1.051014e+003, 1.702919e-002
1.052943e+003, 1.713447e-002
1.054871e+003, 1.723237e-002
1.056800e+003, 1.735019e-002
1.058728e+003, 1.748970e-002
1.060657e+003, 1.759462e-002
1.062585e+003, 1.771166e-002
1.064514e+003, 1.791393e-002
1.066442e+003, 1.813199e-002
1.068370e+003, 1.820620e-002
1.070299e+003, 1.841351e-002
1.072227e+003, 1.863472e-002
1.074156e+003, 1.869931e-002
1.076084e+003, 1.892807e-002
1.078013e+003, 1.920177e-002
1.079941e+003, 1.935193e-002
1.081870e+003, 1.946420e-002
1.083798e+003, 1.962074e-002
1.085727e+003, 1.978901e-002
1.087655e+003, 2.007419e-002
1.089584e+003, 2.040611e-002
1.091512e+003, 2.058120e-002
1.093441e+003, 2.065870e-002
1.095369e+003, 2.084387e-002
1.097297e+003, 2.114282e-002
1.099226e+003, 2.136551e-002
1.101154e+003, 2.158996e-002
1.103083e+003, 2.190732e-002
1.105011e+003, 2.229004e-002
1.106940e+003, 2.257305e-002
1.108868e+003, 2.277483e-002
1.110797e+003, 2.296711e-002
1.112725e+003, 2.322972e-002
1.114654e+003, 2.349409e-002
1.116582e+003, 2.386388e-002
1.118511e+003, 2.419447e-002
1.120439e+003, 2.447024e-002
1.122368e+003, 2.482809e-002
1.124296e+003, 2.504260e-002
1.126224e+003, 2.515037e-002
1.128153e+003, 2.541496e-002
1.130081e+003, 2.591460e-002
1.132010e+003, 2.626469e-002
1.133938e+003, 2.647042e-002
1.135867e+003, 2.670856e-002
1.137795e+003, 2.701632e-002
1.139724e+003, 2.725759e-002
1.141652e+003, 2.743994e-002
1.143581e+003, 2.784481e-002
1.145509e+003, 2.823326e-002
1.147438e+003, 2.842000e-002
1.149366e+003, 2.871917e-002
1.151295e+003, 2.907353e-002
1.153223e+003, 2.925569e-002
1.155151e+003, 2.946228e-002
1.157080e+003, 2.976767e-002
1.159008e+003, 3.006875e-002
1.160937e+003, 3.035438e-002
1.162865e+003, 3.059708e-002
1.164794e+003, 3.069060e-002
1.166722e+003, 3.083475e-002
1.168651e+003, 3.107270e-002
1.170579e+003, 3.141022e-002
1.172508e+003, 3.175059e-002
1.174436e+003, 3.179676e-002
1.176365e+003, 3.179844e-002
1.178293e+003, 3.200088e-002
1.180222e+003, 3.220747e-002
1.182150e+003, 3.234669e-002
1.184078e+003, 3.259003e-002
1.186007e+003, 3.273824e-002
1.187935e+003, 3.292500e-002
1.189864e+003, 3.318365e-002
1.191792e+003, 3.339650e-002
1.193721e+003, 3.361050e-002
1.195649e+003, 3.384507e-002
1.197578e+003, 3.404253e-002
1.199506e+003, 3.423337e-002
1.201435e+003, 3.445287e-002
1.203363e+003, 3.451912e-002
1.205292e+003, 3.467783e-002
1.207220e+003, 3.493085e-002
1.209149e+003, 3.517374e-002
1.211077e+003, 3.542120e-002
1.213005e+003, 3.565927e-002
1.214934e+003, 3.593379e-002
1.216862e+003, 3.628816e-002
1.218791e+003, 3.665840e-002
1.220719e+003, 3.690860e-002
1.222648e+003, 3.706308e-002
1.224576e+003, 3.729899e-002
1.226505e+003, 3.761690e-002
1.228433e+003, 3.790241e-002
1.230362e+003, 3.820632e-002
1.232290e+003, 3.853398e-002
1.234219e+003, 3.887874e-002
1.236147e+003, 3.918318e-002
1.238076e+003, 3.940518e-002
1.240004e+003, 3.965232e-002
1.241932e+003, 3.997180e-002
1.243861e+003, 4.025646e-002
1.245789e+003, 4.062159e-002
1.247718e+003, 4.099531e-002
1.249646e+003, 4.133979e-002
1.251575e+003, 4.176844e-002
1.253503e+003, 4.219199e-002
1.255432e+003, 4.252622e-002
1.257360e+003, 4.279269e-002
1.259289e+003, 4.308571e-002
1.261217e+003, 4.338609e-002
1.263146e+003, 4.373307e-002
1.265074e+003, 4.409680e-002
1.267003e+003, 4.453611e-002
1.268931e+003, 4.506244e-002
1.270859e+003, 4.560912e-002
1.272788e+003, 4.614319e-002
1.274716e+003, 4.661940e-002
1.276645e+003, 4.699957e-002
1.278573e+003, 4.733799e-002
1.280502e+003, 4.750721e-002
1.282430e+003, 4.766494e-002
1.284359e+003, 4.796873e-002
1.286287e+003, 4.817779e-002
1.288216e+003, 4.840364e-002
1.290144e+003, 4.853949e-002
1.292073e+003, 4.880172e-002
1.294001e+003, 4.926303e-002
1.295930e+003, 4.953363e-002
1.297858e+003, 4.968173e-002
1.299786e+003, 5.002386e-002
1.301715e+003, 5.044783e-002
1.303643e+003, 5.083959e-002
1.305572e+003, 5.107264e-002
1.307500e+003, 5.137122e-002
1.309429e+003, 5.171848e-002
1.311357e+003, 5.189712e-002
1.313286e+003, 5.216514e-002
1.315214e+003, 5.253535e-002
1.317143e+003, 5.284089e-002
1.319071e+003, 5.311866e-002
1.321000e+003, 5.334051e-002
1.322928e+003, 5.363258e-002
1.324857e+003, 5.393254e-002
1.326785e+003, 5.423256e-002
1.328714e+003, 5.455638e-002
1.330642e+003, 5.476405e-002
1.332570e+003, 5.516757e-002
1.334499e+003, 5.560707e-002
1.336427e+003, 5.579315e-002
1.338356e+003, 5.606521e-002
1.340284e+003, 5.644611e-002
1.342213e+003, 5.676572e-002
1.344141e+003, 5.701265e-002
1.346070e+003, 5.723082e-002
1.347998e+003, 5.751916e-002
1.349927e+003, 5.778159e-002
1.351855e+003, 5.801966e-002
1.353784e+003, 5.826734e-002
1.355712e+003, 5.841080e-002
1.357641e+003, 5.864726e-002
1.359569e+003, 5.898335e-002
1.361497e+003, 5.937618e-002
1.363426e+003, 5.969293e-002
1.365354e+003, 5.991333e-002
1.367283e+003, 6.014608e-002
1.369211e+003, 6.043879e-002
1.371140e+003, 6.070504e-002
1.373068e+003, 6.110315e-002
1.374997e+003, 6.160431e-002
1.376925e+003, 6.195536e-002
1.378854e+003, 6.216848e-002
1.380782e+003, 6.240954e-002
1.382711e+003, 6.261035e-002
1.384639e+003, 6.267598e-002
1.386568e+003, 6.284017e-002
1.388496e+003, 6.319334e-002
1.390424e+003, 6.367112e-002
1.392353e+003, 6.407197e-002
1.394281e+003, 6.437888e-002
1.396210e+003, 6.466512e-002
1.398138e+003, 6.499919e-002
1.400067e+003, 6.531937e-002
1.401995e+003, 6.578501e-002
1.403924e+003, 6.624539e-002
1.405852e+003, 6.654413e-002
1.407781e+003, 6.682775e-002
1.409709e+003, 6.707266e-002
1.411638e+003, 6.725277e-002
1.413566e+003, 6.748442e-002
1.415495e+003, 6.781924e-002
1.417423e+003, 6.816399e-002
1.419351e+003, 6.840248e-002
1.421280e+003, 6.858419e-002
1.423208e+003, 6.886363e-002
1.425137e+003, 6.911843e-002
1.427065e+003, 6.941497e-002
1.428994e+003, 6.963123e-002
1.430922e+003, 6.974885e-002
1.432851e+003, 7.002851e-002
1.434779e+003, 7.057110e-002
1.436708e+003, 7.101147e-002
1.438636e+003, 7.120498e-002
1.440565e+003, 7.142866e-002
1.442493e+003, 7.169998e-002
1.444422e+003, 7.182266e-002
1.446350e+003, 7.199771e-002
1.448278e+003, 7.234039e-002
1.450207e+003, 7.258789e-002
1.452135e+003, 7.281271e-002
1.454064e+003, 7.324769e-002
1.455992e+003, 7.362152e-002
1.457921e+003, 7.390863e-002
1.459849e+003, 7.421339e-002
1.461778e+003, 7.432455e-002
1.463706e+003, 7.460238e-002
1.465635e+003, 7.483699e-002
1.467563e+003, 7.476588e-002
1.469492e+003, 7.464758e-002
1.471420e+003, 7.467002e-002
1.473349e+003, 7.473875e-002
1.475277e+003, 7.484184e-002
1.477205e+003, 7.503843e-002
1.479134e+003, 7.521331e-002
1.481062e+003, 7.550300e-002
1.482991e+003, 7.576495e-002
1.484919e+003, 7.598308e-002
1.486848e+003, 7.638583e-002
1.488776e+003, 7.673392e-002
1.490705e+003, 7.703468e-002
1.492633e+003, 7.728215e-002
1.494562e+003, 7.756150e-002
1.496490e+003, 7.805811e-002
1.498419e+003, 7.849739e-002
1.500347e+003, 7.884882e-002
1.502276e+003, 7.921719e-002
1.504204e+003, 7.957363e-002
1.506132e+003, 7.998919e-002
1.508061e+003, 8.031943e-002
1.509989e+003, 8.053918e-002
1.511918e+003, 8.084802e-002
1.513846e+003, 8.106172e-002
1.515775e+003, 8.137284e-002
1.517703e+003, 8.195409e-002
1.519632e+003, 8.242096e-002
1.521560e+003, 8.273825e-002
1.523489e+003, 8.307847e-002
1.525417e+003, 8.353552e-002
1.527346e+003, 8.392484e-002
1.529274e+003, 8.434947e-002
1.531203e+003, 8.482064e-002
1.533131e+003, 8.524713e-002
1.535059e+003, 8.560330e-002
1.536988e+003, 8.600076e-002
1.538916e+003, 8.662207e-002
1.540845e+003, 8.702453e-002
1.542773e+003, 8.726119e-002
1.544702e+003, 8.749703e-002
1.546630e+003, 8.780549e-002
1.548559e+003, 8.831097e-002
1.550487e+003, 8.891786e-002
1.552416e+003, 8.928508e-002
1.554344e+003, 8.955822e-002
1.556273e+003, 8.983688e-002
1.558201e+003, 9.031520e-002
1.560130e+003, 9.066415e-002
1.562058e+003, 9.083929e-002
1.563986e+003, 9.114182e-002
1.565915e+003, 9.149123e-002
1.567843e+003, 9.193887e-002
1.569772e+003, 9.231216e-002
1.571700e+003, 9.252678e-002
1.573629e+003, 9.294089e-002
1.575557e+003, 9.331471e-002
1.577486e+003, 9.350722e-002
1.579414e+003, 9.383535e-002
1.581343e+003, 9.414887e-002
1.583271e+003, 9.440522e-002
1.585200e+003, 9.469298e-002
1.587128e+003, 9.501959e-002
1.589057e+003, 9.520219e-002
1.590985e+003, 9.549226e-002
1.592913e+003, 9.588859e-002
1.594842e+003, 9.608816e-002
1.596770e+003, 9.632184e-002
1.598699e+003, 9.665330e-002
1.600627e+003, 9.700663e-002
1.602556e+003, 9.729129e-002
1.604484e+003, 9.749244e-002
1.606413e+003, 9.770512e-002
1.608341e+003, 9.800857e-002
1.610270e+003, 9.832188e-002
1.612198e+003, 9.863272e-002
1.614127e+003, 9.898872e-002
1.616055e+003, 9.939152e-002
1.617984e+003, 9.966814e-002
1.619912e+003, 9.993540e-002
1.621840e+003, 1.002981e-001
1.623769e+003, 1.007097e-001
1.625697e+003, 1.010685e-001
1.627626e+003, 1.012429e-001
1.629554e+003, 1.015438e-001
1.631483e+003, 1.019255e-001
1.633411e+003, 1.022137e-001
1.635340e+003, 1.024453e-001
1.637268e+003, 1.026008e-001
1.639197e+003, 1.029119e-001
1.641125e+003, 1.031712e-001
1.643054e+003, 1.033195e-001
1.644982e+003, 1.034293e-001
1.646911e+003, 1.033596e-001
1.648839e+003, 1.032790e-001
1.650767e+003, 1.035415e-001
1.652696e+003, 1.038079e-001
1.654624e+003, 1.036373e-001
1.656553e+003, 1.035649e-001
1.658481e+003, 1.036857e-001
1.660410e+003, 1.038293e-001
1.662338e+003, 1.039321e-001
1.664267e+003, 1.039378e-001
1.666195e+003, 1.039918e-001
1.668124e+003, 1.041242e-001
1.670052e+003, 1.043542e-001
1.671981e+003, 1.044143e-001
1.673909e+003, 1.044175e-001
1.675838e+003, 1.045992e-001
1.677766e+003, 1.047539e-001
1.679694e+003, 1.049187e-001
1.681623e+003, 1.051279e-001
1.683551e+003, 1.053706e-001
1.685480e+003, 1.056045e-001
1.687408e+003, 1.056868e-001
1.689337e+003, 1.059614e-001
1.691265e+003, 1.061785e-001
1.693194e+003, 1.061952e-001
1.695122e+003, 1.065740e-001
1.697051e+003, 1.070048e-001
1.698979e+003, 1.073253e-001
1.700908e+003, 1.076140e-001
1.702836e+003, 1.077219e-001
1.704765e+003, 1.079259e-001
1.706693e+003, 1.082428e-001
1.708621e+003, 1.084016e-001
1.710550e+003, 1.085547e-001
1.712478e+003, 1.087696e-001
1.714407e+003, 1.089928e-001
1.716335e+003, 1.092399e-001
1.718264e+003, 1.093325e-001
1.720192e+003, 1.093547e-001
1.722121e+003, 1.096385e-001
1.724049e+003, 1.100381e-001
1.725978e+003, 1.102585e-001
1.727906e+003, 1.105701e-001
1.729835e+003, 1.107970e-001
1.731763e+003, 1.110364e-001
1.733692e+003, 1.111418e-001
1.735620e+003, 1.111279e-001
1.737548e+003, 1.110925e-001
1.739477e+003, 1.110092e-001
1.741405e+003, 1.110878e-001
1.743334e+003, 1.112927e-001
1.745262e+003, 1.114235e-001
1.747191e+003, 1.114239e-001
1.749119e+003, 1.115900e-001
1.751048e+003, 1.117321e-001
1.752976e+003, 1.118150e-001
1.754905e+003, 1.120936e-001
1.756833e+003, 1.124125e-001
1.758762e+003, 1.123289e-001
1.760690e+003, 1.122559e-001
1.762619e+003, 1.126122e-001
1.764547e+003, 1.127917e-001
1.766475e+003, 1.128117e-001
1.768404e+003, 1.130074e-001
1.770332e+003, 1.132978e-001
1.772261e+003, 1.135130e-001
1.774189e+003, 1.136039e-001
1.776118e+003, 1.135704e-001
1.778046e+003, 1.136354e-001
1.779975e+003, 1.136971e-001
1.781903e+003, 1.139125e-001
1.783832e+003, 1.142929e-001
1.785760e+003, 1.146047e-001
1.787689e+003, 1.148479e-001
1.789617e+003, 1.151322e-001
1.791546e+003, 1.153197e-001
1.793474e+003, 1.153451e-001
1.795402e+003, 1.155052e-001
1.797331e+003, 1.157405e-001
1.799259e+003, 1.161080e-001
1.801188e+003, 1.163246e-001
1.803116e+003, 1.166201e-001
1.805045e+003, 1.169519e-001
1.806973e+003, 1.173360e-001
1.808902e+003, 1.176122e-001
1.810830e+003, 1.177190e-001
1.812759e+003, 1.179018e-001
1.814687e+003, 1.180994e-001
1.816616e+003, 1.183573e-001
1.818544e+003, 1.189029e-001
1.820473e+003, 1.191712e-001
1.822401e+003, 1.192851e-001
1.824329e+003, 1.197285e-001
1.826258e+003, 1.200020e-001
1.828186e+003, 1.201986e-001
1.830115e+003, 1.205477e-001
1.832043e+003, 1.207234e-001
1.833972e+003, 1.207358e-001
1.835900e+003, 1.209871e-001
1.837829e+003, 1.213672e-001
1.839757e+003, 1.217145e-001
1.841686e+003, 1.221117e-001
1.843614e+003, 1.224797e-001
1.845543e+003, 1.226553e-001
1.847471e+003, 1.227821e-001
1.849400e+003, 1.231000e-001
1.851328e+003, 1.236706e-001
1.853256e+003, 1.240129e-001
1.855185e+003, 1.242358e-001
1.857113e+003, 1.245530e-001
1.859042e+003, 1.245655e-001
1.860970e+003, 1.248132e-001
1.862899e+003, 1.249211e-001
1.864827e+003, 1.248026e-001
1.866756e+003, 1.252054e-001
1.868684e+003, 1.257790e-001
1.870613e+003, 1.263988e-001
1.872541e+003, 1.266332e-001
1.874470e+003, 1.266623e-001
1.876398e+003, 1.268739e-001
1.878327e+003, 1.270810e-001
1.880255e+003, 1.273767e-001
1.882183e+003, 1.276683e-001
1.884112e+003, 1.276545e-001
1.886040e+003, 1.278176e-001
1.887969e+003, 1.281951e-001
1.889897e+003, 1.285066e-001
1.891826e+003, 1.289244e-001
1.893754e+003, 1.292889e-001
1.895683e+003, 1.297238e-001
1.897611e+003, 1.299319e-001
1.899540e+003, 1.296798e-001
1.901468e+003, 1.296891e-001
1.903397e+003, 1.298710e-001
1.905325e+003, 1.301247e-001
1.907254e+003, 1.305672e-001
1.909182e+003, 1.309421e-001
1.911110e+003, 1.311254e-001
1.913039e+003, 1.312171e-001
1.914967e+003, 1.317789e-001
1.916896e+003, 1.325979e-001
1.918824e+003, 1.325767e-001
1.920753e+003, 1.324144e-001
1.922681e+003, 1.325644e-001
1.924610e+003, 1.328616e-001
1.926538e+003, 1.338583e-001
1.928467e+003, 1.340014e-001
1.930395e+003, 1.338980e-001
1.932324e+003, 1.343246e-001
1.934252e+003, 1.346612e-001
1.936181e+003, 1.345866e-001
1.938109e+003, 1.346548e-001
1.940037e+003, 1.352539e-001
1.941966e+003, 1.356856e-001
1.943894e+003, 1.361651e-001
1.945823e+003, 1.362859e-001
1.947751e+003, 1.358261e-001
1.949680e+003, 1.361001e-001
1.951608e+003, 1.369701e-001
1.953537e+003, 1.367488e-001
1.955465e+003, 1.363482e-001
1.957394e+003, 1.364089e-001
1.959322e+003, 1.363246e-001
1.961251e+003, 1.374028e-001
1.963179e+003, 1.384234e-001
1.965108e+003, 1.382438e-001
1.967036e+003, 1.386125e-001
1.968964e+003, 1.389595e-001
1.970893e+003, 1.391488e-001
1.972821e+003, 1.394860e-001
1.974750e+003, 1.393126e-001
1.976678e+003, 1.403660e-001
1.978607e+003, 1.425364e-001
1.980535e+003, 1.421833e-001
1.982464e+003, 1.417044e-001
1.984392e+003, 1.422531e-001
1.986321e+003, 1.423472e-001
1.988249e+003, 1.416763e-001
1.990178e+003, 1.413798e-001
1.992106e+003, 1.423223e-001
1.994035e+003, 1.427191e-001
1.995963e+003, 1.426755e-001
1.997891e+003, 1.421982e-001
1.999820e+003, 1.417771e-001
2.001748e+003, 1.411666e-001
2.003677e+003, 1.408106e-001
2.005605e+003, 1.421194e-001
2.007534e+003, 1.432211e-001
2.009462e+003, 1.436452e-001
2.011391e+003, 1.443409e-001
2.013319e+003, 1.448010e-001
2.015248e+003, 1.445881e-001
2.017176e+003, 1.445077e-001
2.019105e+003, 1.449308e-001
2.021033e+003, 1.445330e-001
2.022962e+003, 1.444665e-001
2.024890e+003, 1.452784e-001
2.026818e+003, 1.452530e-001
2.028747e+003, 1.457055e-001
2.030675e+003, 1.469609e-001
2.032604e+003, 1.473735e-001
2.034532e+003, 1.477796e-001
2.036461e+003, 1.484175e-001
2.038389e+003, 1.490735e-001
2.040318e+003, 1.495651e-001
2.042246e+003, 1.499781e-001
2.044175e+003, 1.501572e-001
2.046103e+003, 1.500241e-001
2.048031e+003, 1.499664e-001
2.049960e+003, 1.508832e-001
2.051888e+003, 1.509297e-001
2.053817e+003, 1.503628e-001
2.055745e+003, 1.507585e-001
2.057674e+003, 1.515515e-001
2.059602e+003, 1.515959e-001
2.061531e+003, 1.508542e-001
2.063459e+003, 1.502350e-001
2.065388e+003, 1.506307e-001
2.067316e+003, 1.509961e-001
2.069245e+003, 1.507841e-001
2.071173e+003, 1.511952e-001
2.073102e+003, 1.519952e-001
2.075030e+003, 1.524959e-001
2.076958e+003, 1.528684e-001
2.078887e+003, 1.531840e-001
2.080815e+003, 1.536702e-001
2.082744e+003, 1.534853e-001
2.084672e+003, 1.531189e-001
2.086601e+003, 1.534348e-001
2.088529e+003, 1.536402e-001
2.090458e+003, 1.538036e-001
2.092386e+003, 1.541416e-001
2.094315e+003, 1.542148e-001
2.096243e+003, 1.544566e-001
2.098172e+003, 1.547842e-001
2.100100e+003, 1.547974e-001
2.102029e+003, 1.552721e-001
2.103957e+003, 1.556915e-001
2.105885e+003, 1.558783e-001
2.107814e+003, 1.558282e-001
2.109742e+003, 1.556819e-001
2.111671e+003, 1.557248e-001
2.113599e+003, 1.559196e-001
2.115528e+003, 1.561673e-001
2.117456e+003, 1.565048e-001
2.119385e+003, 1.566510e-001
2.121313e+003, 1.562941e-001
2.123242e+003, 1.567093e-001
2.125170e+003, 1.568189e-001
2.127099e+003, 1.559048e-001
2.129027e+003, 1.559143e-001
2.130956e+003, 1.561816e-001
2.132884e+003, 1.558098e-001
2.134813e+003, 1.557296e-001
2.136741e+003, 1.560897e-001
2.138669e+003, 1.570593e-001
2.140598e+003, 1.572013e-001
2.142526e+003, 1.566866e-001
2.144455e+003, 1.567462e-001
2.146383e+003, 1.574010e-001
2.148312e+003, 1.577871e-001
2.150240e+003, 1.574966e-001
2.152169e+003, 1.572188e-001
2.154097e+003, 1.561740e-001
2.156026e+003, 1.560718e-001
2.157954e+003, 1.589152e-001
2.159883e+003, 1.626075e-001
2.161811e+003, 1.634489e-001
2.163740e+003, 1.629444e-001
2.165668e+003, 1.633041e-001
2.167596e+003, 1.634457e-001
2.169525e+003, 1.633835e-001
2.171453e+003, 1.630602e-001
2.173382e+003, 1.626097e-001
2.175310e+003, 1.622489e-001
2.177239e+003, 1.628171e-001
2.179167e+003, 1.624070e-001
2.181096e+003, 1.622529e-001
2.183024e+003, 1.637897e-001
2.184953e+003, 1.643494e-001
2.186881e+003, 1.651970e-001
2.188810e+003, 1.653880e-001
2.190738e+003, 1.652218e-001
2.192667e+003, 1.658374e-001
2.194595e+003, 1.663067e-001
2.196523e+003, 1.660108e-001
2.198452e+003, 1.660985e-001
2.200380e+003, 1.658332e-001
2.202309e+003, 1.651435e-001
2.204237e+003, 1.651750e-001
2.206166e+003, 1.662766e-001
2.208094e+003, 1.665027e-001
2.210023e+003, 1.662148e-001
2.211951e+003, 1.663071e-001
2.213880e+003, 1.666698e-001
2.215808e+003, 1.672103e-001
2.217737e+003, 1.670957e-001
2.219665e+003, 1.672822e-001
2.221594e+003, 1.682213e-001
2.223522e+003, 1.686194e-001
2.225450e+003, 1.684517e-001
2.227379e+003, 1.689018e-001
2.229307e+003, 1.688244e-001
2.231236e+003, 1.687389e-001
2.233164e+003, 1.687889e-001
2.235093e+003, 1.691902e-001
2.237021e+003, 1.694933e-001
2.238950e+003, 1.694865e-001
2.240878e+003, 1.696324e-001
2.242807e+003, 1.696171e-001
2.244735e+003, 1.698387e-001
2.246664e+003, 1.710563e-001
2.248592e+003, 1.711134e-001
2.250521e+003, 1.705492e-001
2.252449e+003, 1.699572e-001
2.254377e+003, 1.703716e-001
2.256306e+003, 1.714841e-001
2.258234e+003, 1.716186e-001
2.260163e+003, 1.714675e-001
2.262091e+003, 1.717289e-001
2.264020e+003, 1.718996e-001
2.265948e+003, 1.716986e-001
2.267877e+003, 1.721390e-001
2.269805e+003, 1.723192e-001
2.271734e+003, 1.719874e-001
2.273662e+003, 1.724548e-001
2.275591e+003, 1.738967e-001
2.277519e+003, 1.744392e-001
2.279448e+003, 1.742422e-001
2.281376e+003, 1.747548e-001
2.283304e+003, 1.751002e-001
2.285233e+003, 1.753934e-001
2.287161e+003, 1.755793e-001
2.289090e+003, 1.752197e-001
2.291018e+003, 1.754254e-001
2.292947e+003, 1.754275e-001
2.294875e+003, 1.747320e-001
2.296804e+003, 1.751985e-001
2.298732e+003, 1.756829e-001
2.300661e+003, 1.756833e-001
2.302589e+003, 1.757126e-001
2.304518e+003, 1.757710e-001
2.306446e+003, 1.758830e-001
2.308375e+003, 1.760339e-001
2.310303e+003, 1.763956e-001
2.312231e+003, 1.769391e-001
2.314160e+003, 1.773633e-001
2.316088e+003, 1.776526e-001
2.318017e+003, 1.776284e-001
2.319945e+003, 1.778905e-001
2.321874e+003, 1.781999e-001
2.323802e+003, 1.785530e-001
2.325731e+003, 1.781231e-001
2.327659e+003, 1.774357e-001
2.329588e+003, 1.775330e-001
2.331516e+003, 1.780652e-001
2.333445e+003, 1.782563e-001
2.335373e+003, 1.783147e-001
2.337302e+003, 1.784590e-001
2.339230e+003, 1.786057e-001
2.341158e+003, 1.788382e-001
2.343087e+003, 1.787037e-001
2.345015e+003, 1.782273e-001
2.346944e+003, 1.783520e-001
2.348872e+003, 1.786257e-001
2.350801e+003, 1.789261e-001
2.352729e+003, 1.795773e-001
2.354658e+003, 1.798434e-001
2.356586e+003, 1.799652e-001
2.358515e+003, 1.802114e-001
2.360443e+003, 1.806033e-001
2.362372e+003, 1.807035e-001
2.364300e+003, 1.803109e-001
2.366229e+003, 1.804421e-001
2.368157e+003, 1.809449e-001
2.370085e+003, 1.810905e-001
2.372014e+003, 1.810333e-001
2.373942e+003, 1.810648e-001
2.375871e+003, 1.811569e-001
2.377799e+003, 1.813925e-001
2.379728e+003, 1.813807e-001
2.381656e+003, 1.816035e-001
2.383585e+003, 1.821095e-001
2.385513e+003, 1.820061e-001
2.387442e+003, 1.817597e-001
2.389370e+003, 1.817926e-001
2.391299e+003, 1.820034e-001
2.393227e+003, 1.822919e-001
2.395156e+003, 1.827657e-001
2.397084e+003, 1.829829e-001
2.399012e+003, 1.832544e-001
2.400941e+003, 1.833807e-001
2.402869e+003, 1.836766e-001
2.404798e+003, 1.840611e-001
2.406726e+003, 1.843442e-001
2.408655e+003, 1.847559e-001
2.410583e+003, 1.847441e-001
2.412512e+003, 1.844541e-001
2.414440e+003, 1.845449e-001
2.416369e+003, 1.846216e-001
2.418297e+003, 1.846715e-001
2.420226e+003, 1.848731e-001
2.422154e+003, 1.853321e-001
2.424083e+003, 1.857468e-001
2.426011e+003, 1.856955e-001
2.427939e+003, 1.858500e-001
2.429868e+003, 1.865357e-001
2.431796e+003, 1.866580e-001
2.433725e+003, 1.866970e-001
2.435653e+003, 1.868334e-001
2.437582e+003, 1.872489e-001
2.439510e+003, 1.877831e-001
2.441439e+003, 1.880688e-001
2.443367e+003, 1.878289e-001
2.445296e+003, 1.874747e-001
2.447224e+003, 1.875975e-001
2.449153e+003, 1.881047e-001
2.451081e+003, 1.883144e-001
2.453010e+003, 1.883832e-001
2.454938e+003, 1.885403e-001
2.456866e+003, 1.889477e-001
2.458795e+003, 1.894316e-001
2.460723e+003, 1.893689e-001
2.462652e+003, 1.889324e-001
2.464580e+003, 1.889392e-001
2.466509e+003, 1.896960e-001
2.468437e+003, 1.902483e-001
2.470366e+003, 1.903685e-001
2.472294e+003, 1.902086e-001
2.474223e+003, 1.901577e-001
2.476151e+003, 1.904628e-001
2.478080e+003, 1.908885e-001
2.480008e+003, 1.912365e-001
2.481937e+003, 1.912013e-001
2.483865e+003, 1.907834e-001
2.485793e+003, 1.909603e-001
2.487722e+003, 1.915955e-001
2.489650e+003, 1.918070e-001
2.491579e+003, 1.920826e-001
2.493507e+003, 1.922815e-001
2.495436e+003, 1.921830e-001
2.497364e+003, 1.925326e-001
2.499293e+003, 1.930128e-001
2.501221e+003, 1.932667e-001
2.503150e+003, 1.932599e-001
2.505078e+003, 1.933661e-001
2.507007e+003, 1.939503e-001
2.508935e+003, 1.941455e-001
2.510864e+003, 1.940454e-001
2.512792e+003, 1.942386e-001
2.514720e+003, 1.942520e-001
2.516649e+003, 1.945544e-001
2.518577e+003, 1.946169e-001
2.520506e+003, 1.943267e-001
2.522434e+003, 1.944298e-001
2.524363e+003, 1.949518e-001
2.526291e+003, 1.952709e-001
2.528220e+003, 1.954761e-001
2.530148e+003, 1.958013e-001
2.532077e+003, 1.956153e-001
2.534005e+003, 1.957471e-001
2.535934e+003, 1.961236e-001
2.537862e+003, 1.964278e-001
2.539791e+003, 1.964319e-001
2.541719e+003, 1.964292e-001
2.543647e+003, 1.967227e-001
2.545576e+003, 1.969862e-001
2.547504e+003, 1.972465e-001
2.549433e+003, 1.972881e-001
2.551361e+003, 1.970749e-001
2.553290e+003, 1.976182e-001
2.555218e+003, 1.982224e-001
2.557147e+003, 1.984242e-001
2.559075e+003, 1.985389e-001
2.561004e+003, 1.986418e-001
2.562932e+003, 1.987477e-001
2.564861e+003, 1.991593e-001
2.566789e+003, 1.996050e-001
2.568718e+003, 1.995655e-001
2.570646e+003, 1.998510e-001
2.572574e+003, 2.002805e-001
2.574503e+003, 2.002429e-001
2.576431e+003, 2.002274e-001
2.578360e+003, 2.004444e-001
2.580288e+003, 2.008390e-001
2.582217e+003, 2.008877e-001
2.584145e+003, 2.006529e-001
2.586074e+003, 2.009323e-001
2.588002e+003, 2.013388e-001
2.589931e+003, 2.017902e-001
2.591859e+003, 2.022612e-001
2.593788e+003, 2.019541e-001
2.595716e+003, 2.015364e-001
2.597645e+003, 2.017534e-001
2.599573e+003, 2.020711e-001
2.601501e+003, 2.026305e-001
2.603430e+003, 2.029269e-001
2.605358e+003, 2.030645e-001
2.607287e+003, 2.031403e-001
2.609215e+003, 2.035005e-001
2.611144e+003, 2.038686e-001
2.613072e+003, 2.039044e-001
2.615001e+003, 2.040694e-001
2.616929e+003, 2.041449e-001
2.618858e+003, 2.042740e-001
2.620786e+003, 2.043296e-001
2.622715e+003, 2.043763e-001
2.624643e+003, 2.046529e-001
2.626572e+003, 2.049545e-001
2.628500e+003, 2.053398e-001
2.630428e+003, 2.055791e-001
2.632357e+003, 2.055395e-001
2.634285e+003, 2.055360e-001
2.636214e+003, 2.054373e-001
2.638142e+003, 2.056094e-001
2.640071e+003, 2.059583e-001
2.641999e+003, 2.062890e-001
2.643928e+003, 2.067679e-001
2.645856e+003, 2.068001e-001
2.647785e+003, 2.066329e-001
2.649713e+003, 2.068172e-001
2.651642e+003, 2.070421e-001
2.653570e+003, 2.071528e-001
2.655499e+003, 2.070168e-001
2.657427e+003, 2.069965e-001
2.659355e+003, 2.070963e-001
2.661284e+003, 2.073685e-001
2.663212e+003, 2.073293e-001
2.665141e+003, 2.072523e-001
2.667069e+003, 2.074780e-001
2.668998e+003, 2.079459e-001
2.670926e+003, 2.080475e-001
2.672855e+003, 2.079520e-001
2.674783e+003, 2.082063e-001
2.676712e+003, 2.081720e-001
2.678640e+003, 2.080368e-001
2.680569e+003, 2.085052e-001
2.682497e+003, 2.090448e-001
2.684426e+003, 2.093300e-001
2.686354e+003, 2.093440e-001
2.688282e+003, 2.095537e-001
2.690211e+003, 2.098181e-001
2.692139e+003, 2.099819e-001
2.694068e+003, 2.101888e-001
2.695996e+003, 2.104238e-001
2.697925e+003, 2.106765e-001
2.699853e+003, 2.108664e-001
2.701782e+003, 2.109857e-001
2.703710e+003, 2.111345e-001
2.705639e+003, 2.112628e-001
2.707567e+003, 2.111131e-001
2.709496e+003, 2.110606e-001
2.711424e+003, 2.113064e-001
2.713353e+003, 2.117792e-001
2.715281e+003, 2.121171e-001
2.717209e+003, 2.123545e-001
2.719138e+003, 2.126678e-001
2.721066e+003, 2.128946e-001
2.722995e+003, 2.130999e-001
2.724923e+003, 2.134006e-001
2.726852e+003, 2.133847e-001
2.728780e+003, 2.134300e-001
2.730709e+003, 2.135366e-001
2.732637e+003, 2.136876e-001
2.734566e+003, 2.138387e-001
2.736494e+003, 2.140199e-001
2.738423e+003, 2.141829e-001
2.740351e+003, 2.143485e-001
2.742280e+003, 2.147625e-001
2.744208e+003, 2.150795e-001
2.746136e+003, 2.152258e-001
2.748065e+003, 2.153027e-001
2.749993e+003, 2.156229e-001
2.751922e+003, 2.160699e-001
2.753850e+003, 2.163796e-001
2.755779e+003, 2.160016e-001
2.757707e+003, 2.159499e-001
2.759636e+003, 2.163307e-001
2.761564e+003, 2.166900e-001
2.763493e+003, 2.166341e-001
2.765421e+003, 2.167742e-001
2.767350e+003, 2.171758e-001
2.769278e+003, 2.174048e-001
2.771207e+003, 2.175400e-001
2.773135e+003, 2.176818e-001
2.775063e+003, 2.177827e-001
2.776992e+003, 2.178838e-001
2.778920e+003, 2.181536e-001
2.780849e+003, 2.182239e-001
2.782777e+003, 2.183629e-001
2.784706e+003, 2.188068e-001
2.786634e+003, 2.189987e-001
2.788563e+003, 2.193527e-001
2.790491e+003, 2.195374e-001
2.792420e+003, 2.196030e-001
2.794348e+003, 2.196318e-001
2.796277e+003, 2.198645e-001
2.798205e+003, 2.202083e-001
2.800134e+003, 2.205207e-001
2.802062e+003, 2.207861e-001
2.803990e+003, 2.207204e-001
2.805919e+003, 2.207158e-001
2.807847e+003, 2.211448e-001
2.809776e+003, 2.215243e-001
2.811704e+003, 2.219018e-001
2.813633e+003, 2.222194e-001
2.815561e+003, 2.223453e-001
2.817490e+003, 2.226303e-001
2.819418e+003, 2.227430e-001
2.821347e+003, 2.227173e-001
2.823275e+003, 2.230214e-001
2.825204e+003, 2.232819e-001
2.827132e+003, 2.237223e-001
2.829061e+003, 2.242353e-001
2.830989e+003, 2.245283e-001
2.832917e+003, 2.249416e-001
2.834846e+003, 2.252479e-001
2.836774e+003, 2.255510e-001
2.838703e+003, 2.259969e-001
2.840631e+003, 2.263861e-001
2.842560e+003, 2.266154e-001
2.844488e+003, 2.270748e-001
2.846417e+003, 2.275299e-001
2.848345e+003, 2.281346e-001
2.850274e+003, 2.287738e-001
2.852202e+003, 2.290117e-001
2.854131e+003, 2.293142e-001
2.856059e+003, 2.292648e-001
2.857988e+003, 2.291172e-001
2.859916e+003, 2.286008e-001
2.861844e+003, 2.284167e-001
2.863773e+003, 2.284009e-001
2.865701e+003, 2.283918e-001
2.867630e+003, 2.285115e-001
2.869558e+003, 2.287614e-001
2.871487e+003, 2.292630e-001
2.873415e+003, 2.295329e-001
2.875344e+003, 2.294191e-001
2.877272e+003, 2.296136e-001
2.879201e+003, 2.298605e-001
2.881129e+003, 2.301522e-001
2.883058e+003, 2.301858e-001
2.884986e+003, 2.299318e-001
2.886915e+003, 2.301504e-001
2.888843e+003, 2.304274e-001
2.890771e+003, 2.310160e-001
2.892700e+003, 2.319161e-001
2.894628e+003, 2.324414e-001
2.896557e+003, 2.327699e-001
2.898485e+003, 2.330464e-001
2.900414e+003, 2.332426e-001
2.902342e+003, 2.336079e-001
2.904271e+003, 2.340834e-001
2.906199e+003, 2.347096e-001
2.908128e+003, 2.349512e-001
2.910056e+003, 2.355485e-001
2.911985e+003, 2.361646e-001
2.913913e+003, 2.364827e-001
2.915842e+003, 2.370308e-001
2.917770e+003, 2.376001e-001
2.919698e+003, 2.381578e-001
2.921627e+003, 2.384042e-001
2.923555e+003, 2.388432e-001
2.925484e+003, 2.387704e-001
2.927412e+003, 2.382440e-001
2.929341e+003, 2.378976e-001
2.931269e+003, 2.371005e-001
2.933198e+003, 2.362822e-001
2.935126e+003, 2.360250e-001
2.937055e+003, 2.355344e-001
2.938983e+003, 2.350003e-001
2.940912e+003, 2.352430e-001
2.942840e+003, 2.355381e-001
2.944769e+003, 2.353320e-001
2.946697e+003, 2.353626e-001
2.948625e+003, 2.357046e-001
2.950554e+003, 2.361135e-001
2.952482e+003, 2.363894e-001
2.954411e+003, 2.367915e-001
2.956339e+003, 2.372484e-001
2.958268e+003, 2.372031e-001
2.960196e+003, 2.368911e-001
2.962125e+003, 2.367695e-001
2.964053e+003, 2.365429e-001
2.965982e+003, 2.357567e-001
2.967910e+003, 2.353159e-001
2.969839e+003, 2.354910e-001
2.971767e+003, 2.354673e-001
2.973696e+003, 2.350910e-001
2.975624e+003, 2.351229e-001
2.977552e+003, 2.349806e-001
2.979481e+003, 2.348466e-001
2.981409e+003, 2.350389e-001
2.983338e+003, 2.351040e-001
2.985266e+003, 2.351175e-001
2.987195e+003, 2.353554e-001
2.989123e+003, 2.357548e-001
2.991052e+003, 2.357781e-001
2.992980e+003, 2.356624e-001
2.994909e+003, 2.361341e-001
2.996837e+003, 2.365367e-001
2.998766e+003, 2.363130e-001
3.000694e+003, 2.363751e-001
3.002623e+003, 2.366059e-001
3.004551e+003, 2.369968e-001
3.006479e+003, 2.374922e-001
3.008408e+003, 2.374572e-001
3.010336e+003, 2.376280e-001
3.012265e+003, 2.381798e-001
3.014193e+003, 2.384866e-001
3.016122e+003, 2.387669e-001
3.018050e+003, 2.388171e-001
3.019979e+003, 2.385735e-001
3.021907e+003, 2.387444e-001
3.023836e+003, 2.393028e-001
3.025764e+003, 2.392703e-001
3.027693e+003, 2.391548e-001
3.029621e+003, 2.397971e-001
3.031550e+003, 2.402432e-001
3.033478e+003, 2.400237e-001
3.035406e+003, 2.404060e-001
3.037335e+003, 2.407666e-001
3.039263e+003, 2.410513e-001
3.041192e+003, 2.412591e-001
3.043120e+003, 2.411597e-001
3.045049e+003, 2.411918e-001
3.046977e+003, 2.415075e-001
3.048906e+003, 2.417227e-001
3.050834e+003, 2.418403e-001
3.052763e+003, 2.425923e-001
3.054691e+003, 2.428292e-001
3.056620e+003, 2.426423e-001
3.058548e+003, 2.428270e-001
3.060477e+003, 2.432258e-001
3.062405e+003, 2.433848e-001
3.064333e+003, 2.436565e-001
3.066262e+003, 2.440652e-001
3.068190e+003, 2.442012e-001
3.070119e+003, 2.442450e-001
3.072047e+003, 2.442483e-001
3.073976e+003, 2.443069e-001
3.075904e+003, 2.444378e-001
3.077833e+003, 2.445466e-001
3.079761e+003, 2.447868e-001
3.081690e+003, 2.453922e-001
3.083618e+003, 2.458878e-001
3.085547e+003, 2.459205e-001
3.087475e+003, 2.459577e-001
3.089404e+003, 2.461628e-001
3.091332e+003, 2.460022e-001
3.093260e+003, 2.459933e-001
3.095189e+003, 2.458737e-001
3.097117e+003, 2.460378e-001
3.099046e+003, 2.467368e-001
3.100974e+003, 2.473181e-001
3.102903e+003, 2.474587e-001
3.104831e+003, 2.473508e-001
3.106760e+003, 2.476878e-001
3.108688e+003, 2.480448e-001
3.110617e+003, 2.482661e-001
3.112545e+003, 2.485901e-001
3.114474e+003, 2.482325e-001
3.116402e+003, 2.479402e-001
3.118331e+003, 2.484545e-001
3.120259e+003, 2.490625e-001
3.122188e+003, 2.491762e-001
3.124116e+003, 2.493253e-001
3.126044e+003, 2.497524e-001
3.127973e+003, 2.500431e-001
3.129901e+003, 2.503072e-001
3.131830e+003, 2.503484e-001
3.133758e+003, 2.503362e-001
3.135687e+003, 2.502549e-001
3.137615e+003, 2.503549e-001
3.139544e+003, 2.506683e-001
3.141472e+003, 2.509179e-001
3.143401e+003, 2.510033e-001
3.145329e+003, 2.515608e-001
3.147258e+003, 2.520373e-001
3.149186e+003, 2.516238e-001
3.151115e+003, 2.517305e-001
3.153043e+003, 2.525637e-001
3.154971e+003, 2.528344e-001
3.156900e+003, 2.526966e-001
3.158828e+003, 2.526305e-001
3.160757e+003, 2.526145e-001
3.162685e+003, 2.526219e-001
3.164614e+003, 2.529802e-001
3.166542e+003, 2.534118e-001
3.168471e+003, 2.537568e-001
3.170399e+003, 2.542031e-001
3.172328e+003, 2.539707e-001
3.174256e+003, 2.539916e-001
3.176185e+003, 2.545625e-001
3.178113e+003, 2.545131e-001
3.180042e+003, 2.544227e-001
3.181970e+003, 2.546054e-001
3.183898e+003, 2.544917e-001
3.185827e+003, 2.548815e-001
3.187755e+003, 2.554072e-001
3.189684e+003, 2.555563e-001
3.191612e+003, 2.559908e-001
3.193541e+003, 2.566132e-001
3.195469e+003, 2.568089e-001
3.197398e+003, 2.567486e-001
3.199326e+003, 2.565028e-001
3.201255e+003, 2.569267e-001
3.203183e+003, 2.572694e-001
3.205112e+003, 2.570285e-001
3.207040e+003, 2.574855e-001
3.208969e+003, 2.576937e-001
3.210897e+003, 2.576627e-001
3.212825e+003, 2.573682e-001
3.214754e+003, 2.576345e-001
3.216682e+003, 2.585039e-001
3.218611e+003, 2.584668e-001
3.220539e+003, 2.583004e-001
3.222468e+003, 2.584270e-001
3.224396e+003, 2.585963e-001
3.226325e+003, 2.590201e-001
3.228253e+003, 2.589298e-001
3.230182e+003, 2.586278e-001
3.232110e+003, 2.595433e-001
3.234039e+003, 2.605067e-001
3.235967e+003, 2.603109e-001
3.237896e+003, 2.595932e-001
3.239824e+003, 2.596388e-001
3.241752e+003, 2.600646e-001
3.243681e+003, 2.604745e-001
3.245609e+003, 2.606363e-001
3.247538e+003, 2.603897e-001
3.249466e+003, 2.607017e-001
3.251395e+003, 2.609934e-001
3.253323e+003, 2.606941e-001
3.255252e+003, 2.612400e-001
3.257180e+003, 2.616979e-001
3.259109e+003, 2.613620e-001
3.261037e+003, 2.616333e-001
3.262966e+003, 2.619932e-001
3.264894e+003, 2.621984e-001
3.266823e+003, 2.624649e-001
3.268751e+003, 2.623680e-001
3.270679e+003, 2.620029e-001
3.272608e+003, 2.618766e-001
3.274536e+003, 2.624652e-001
3.276465e+003, 2.629785e-001
3.278393e+003, 2.630268e-001
3.280322e+003, 2.634022e-001
3.282250e+003, 2.635244e-001
3.284179e+003, 2.633305e-001
3.286107e+003, 2.635689e-001
3.288036e+003, 2.636603e-001
3.289964e+003, 2.635153e-001
3.291893e+003, 2.636577e-001
3.293821e+003, 2.639931e-001
3.295750e+003, 2.645210e-001
3.297678e+003, 2.649756e-001
3.299606e+003, 2.649790e-001
3.301535e+003, 2.649577e-001
3.303463e+003, 2.653731e-001
3.305392e+003, 2.654164e-001
3.307320e+003, 2.651607e-001
3.309249e+003, 2.650494e-001
3.311177e+003, 2.652667e-001
3.313106e+003, 2.652729e-001
3.315034e+003, 2.651782e-001
3.316963e+003, 2.656722e-001
3.318891e+003, 2.661970e-001
3.320820e+003, 2.662348e-001
3.322748e+003, 2.662779e-001
3.324677e+003, 2.667669e-001
3.326605e+003, 2.675043e-001
3.328533e+003, 2.670506e-001
3.330462e+003, 2.666567e-001
3.332390e+003, 2.668505e-001
3.334319e+003, 2.672398e-001
3.336247e+003, 2.676981e-001
3.338176e+003, 2.678409e-001
3.340104e+003, 2.680825e-001
3.342033e+003, 2.680292e-001
3.343961e+003, 2.675874e-001
3.345890e+003, 2.676067e-001
3.347818e+003, 2.678516e-001
3.349747e+003, 2.677218e-001
3.351675e+003, 2.680203e-001
3.353604e+003, 2.684275e-001
3.355532e+003, 2.685217e-001
3.357460e+003, 2.683336e-001
3.359389e+003, 2.684191e-001
3.361317e+003, 2.680397e-001
3.363246e+003, 2.682848e-001
3.365174e+003, 2.688667e-001
3.367103e+003, 2.691098e-001
3.369031e+003, 2.694817e-001
3.370960e+003, 2.695582e-001
3.372888e+003, 2.691366e-001
3.374817e+003, 2.695787e-001
3.376745e+003, 2.700249e-001
3.378674e+003, 2.705433e-001
3.380602e+003, 2.710011e-001
3.382531e+003, 2.708301e-001
3.384459e+003, 2.702545e-001
3.386387e+003, 2.697819e-001
3.388316e+003, 2.699116e-001
3.390244e+003, 2.699535e-001
3.392173e+003, 2.696933e-001
3.394101e+003, 2.698947e-001
3.396030e+003, 2.704710e-001
3.397958e+003, 2.707601e-001
3.399887e+003, 2.707942e-001
3.401815e+003, 2.710745e-001
3.403744e+003, 2.714892e-001
3.405672e+003, 2.717707e-001
3.407601e+003, 2.718907e-001
3.409529e+003, 2.718644e-001
3.411458e+003, 2.714756e-001
3.413386e+003, 2.713803e-001
3.415314e+003, 2.718529e-001
3.417243e+003, 2.724939e-001
3.419171e+003, 2.723916e-001
3.421100e+003, 2.719196e-001
3.423028e+003, 2.722370e-001
3.424957e+003, 2.724464e-001
3.426885e+003, 2.721666e-001
3.428814e+003, 2.720231e-001
3.430742e+003, 2.724131e-001
3.432671e+003, 2.725262e-001
3.434599e+003, 2.726486e-001
3.436528e+003, 2.730958e-001
3.438456e+003, 2.731041e-001
3.440385e+003, 2.729378e-001
3.442313e+003, 2.731871e-001
3.444241e+003, 2.741702e-001
3.446170e+003, 2.741275e-001
3.448098e+003, 2.729505e-001
3.450027e+003, 2.725423e-001
3.451955e+003, 2.729480e-001
3.453884e+003, 2.731727e-001
3.455812e+003, 2.730291e-001
3.457741e+003, 2.726601e-001
3.459669e+003, 2.731804e-001
3.461598e+003, 2.733925e-001
3.463526e+003, 2.729142e-001
3.465455e+003, 2.731320e-001
3.467383e+003, 2.736397e-001
3.469312e+003, 2.734050e-001
3.471240e+003, 2.729223e-001
3.473168e+003, 2.723164e-001
3.475097e+003, 2.724236e-001
3.477025e+003, 2.726478e-001
3.478954e+003, 2.729281e-001
3.480882e+003, 2.738430e-001
3.482811e+003, 2.733493e-001
3.484739e+003, 2.727071e-001
3.486668e+003, 2.734496e-001
3.488596e+003, 2.736448e-001
3.490525e+003, 2.731549e-001
3.492453e+003, 2.732289e-001
3.494382e+003, 2.731012e-001
3.496310e+003, 2.727791e-001
3.498239e+003, 2.725801e-001
3.500167e+003, 2.724057e-001
3.502095e+003, 2.726234e-001
3.504024e+003, 2.728539e-001
3.505952e+003, 2.731671e-001
3.507881e+003, 2.726251e-001
3.509809e+003, 2.720850e-001
3.511738e+003, 2.719923e-001
3.513666e+003, 2.724193e-001
3.515595e+003, 2.728861e-001
3.517523e+003, 2.733924e-001
3.519452e+003, 2.730365e-001
3.521380e+003, 2.723649e-001
3.523309e+003, 2.723208e-001
3.525237e+003, 2.722643e-001
3.527166e+003, 2.719934e-001
3.529094e+003, 2.717974e-001
3.531022e+003, 2.714309e-001
3.532951e+003, 2.713278e-001
3.534879e+003, 2.714382e-001
3.536808e+003, 2.718874e-001
3.538736e+003, 2.722735e-001
3.540665e+003, 2.721907e-001
3.542593e+003, 2.722835e-001
3.544522e+003, 2.715478e-001
3.546450e+003, 2.715987e-001
3.548379e+003, 2.722163e-001
3.550307e+003, 2.724254e-001
3.552236e+003, 2.726879e-001
3.554164e+003, 2.730117e-001
3.556093e+003, 2.728450e-001
3.558021e+003, 2.721201e-001
3.559949e+003, 2.719871e-001
3.561878e+003, 2.724142e-001
3.563806e+003, 2.723854e-001
3.565735e+003, 2.720364e-001
3.567663e+003, 2.722911e-001
3.569592e+003, 2.724156e-001
3.571520e+003, 2.721764e-001
3.573449e+003, 2.720667e-001
3.575377e+003, 2.718286e-001
3.577306e+003, 2.717755e-001
3.579234e+003, 2.716617e-001
3.581163e+003, 2.717566e-001
3.583091e+003, 2.716419e-001
3.585020e+003, 2.716249e-001
3.586948e+003, 2.722535e-001
3.588876e+003, 2.732207e-001
3.590805e+003, 2.731448e-001
3.592733e+003, 2.729967e-001
3.594662e+003, 2.733023e-001
3.596590e+003, 2.732593e-001
3.598519e+003, 2.726256e-001
3.600447e+003, 2.721733e-001
3.602376e+003, 2.718948e-001
3.604304e+003, 2.719354e-001
3.606233e+003, 2.724169e-001
3.608161e+003, 2.727891e-001
3.610090e+003, 2.724728e-001
3.612018e+003, 2.728859e-001
3.613947e+003, 2.730399e-001
3.615875e+003, 2.726978e-001
3.617803e+003, 2.731029e-001
3.619732e+003, 2.734978e-001
3.621660e+003, 2.733014e-001
3.623589e+003, 2.734467e-001
3.625517e+003, 2.734671e-001
3.627446e+003, 2.732130e-001
3.629374e+003, 2.731393e-001
3.631303e+003, 2.737474e-001
3.633231e+003, 2.742011e-001
3.635160e+003, 2.741065e-001
3.637088e+003, 2.736376e-001
3.639017e+003, 2.741331e-001
3.640945e+003, 2.747391e-001
3.642874e+003, 2.743134e-001
3.644802e+003, 2.746771e-001
3.646730e+003, 2.750222e-001
3.648659e+003, 2.746928e-001
3.650587e+003, 2.747687e-001
3.652516e+003, 2.755543e-001
3.654444e+003, 2.754189e-001
3.656373e+003, 2.749206e-001
3.658301e+003, 2.750623e-001
3.660230e+003, 2.753434e-001
3.662158e+003, 2.754905e-001
3.664087e+003, 2.757889e-001
3.666015e+003, 2.759310e-001
3.667944e+003, 2.762006e-001
3.669872e+003, 2.763795e-001
3.671801e+003, 2.766156e-001
3.673729e+003, 2.771631e-001
3.675657e+003, 2.768877e-001
3.677586e+003, 2.769416e-001
3.679514e+003, 2.766781e-001
3.681443e+003, 2.762770e-001
3.683371e+003, 2.761492e-001
3.685300e+003, 2.770994e-001
3.687228e+003, 2.775737e-001
3.689157e+003, 2.775044e-001
3.691085e+003, 2.779764e-001
3.693014e+003, 2.779691e-001
3.694942e+003, 2.779388e-001
3.696871e+003, 2.776700e-001
3.698799e+003, 2.779933e-001
3.700728e+003, 2.785784e-001
3.702656e+003, 2.781580e-001
3.704584e+003, 2.776330e-001
3.706513e+003, 2.778342e-001
3.708441e+003, 2.781644e-001
3.710370e+003, 2.786988e-001
3.712298e+003, 2.787603e-001
3.714227e+003, 2.786871e-001
3.716155e+003, 2.783551e-001
3.718084e+003, 2.788993e-001
3.720012e+003, 2.792191e-001
3.721941e+003, 2.801116e-001
3.723869e+003, 2.805851e-001
3.725798e+003, 2.805346e-001
3.727726e+003, 2.808885e-001
3.729655e+003, 2.807129e-001
3.731583e+003, 2.800144e-001
3.733511e+003, 2.810051e-001
3.735440e+003, 2.818974e-001
3.737368e+003, 2.817568e-001
3.739297e+003, 2.815786e-001
3.741225e+003, 2.817312e-001
3.743154e+003, 2.823491e-001
3.745082e+003, 2.819753e-001
3.747011e+003, 2.806247e-001
3.748939e+003, 2.813205e-001
3.750868e+003, 2.819383e-001
3.752796e+003, 2.818457e-001
3.754725e+003, 2.818882e-001
3.756653e+003, 2.821639e-001
3.758582e+003, 2.824686e-001
3.760510e+003, 2.831409e-001
3.762438e+003, 2.831331e-001
3.764367e+003, 2.833413e-001
3.766295e+003, 2.830555e-001
3.768224e+003, 2.830392e-001
3.770152e+003, 2.836410e-001
3.772081e+003, 2.837906e-001
3.774009e+003, 2.835965e-001
3.775938e+003, 2.832219e-001
3.777866e+003, 2.834579e-001
3.779795e+003, 2.836398e-001
3.781723e+003, 2.841144e-001
3.783652e+003, 2.841460e-001
3.785580e+003, 2.841728e-001
3.787509e+003, 2.841969e-001
3.789437e+003, 2.843965e-001
3.791365e+003, 2.847291e-001
3.793294e+003, 2.848114e-001
3.795222e+003, 2.852342e-001
3.797151e+003, 2.851629e-001
3.799079e+003, 2.849146e-001
3.801008e+003, 2.847663e-001
3.802936e+003, 2.848962e-001
3.804865e+003, 2.860105e-001
3.806793e+003, 2.860766e-001
3.808722e+003, 2.859422e-001
3.810650e+003, 2.866013e-001
3.812579e+003, 2.865892e-001
3.814507e+003, 2.861239e-001
3.816436e+003, 2.860788e-001
3.818364e+003, 2.865288e-001
3.820292e+003, 2.870927e-001
3.822221e+003, 2.869611e-001
3.824149e+003, 2.866642e-001
3.826078e+003, 2.869904e-001
3.828006e+003, 2.870595e-001
3.829935e+003, 2.871254e-001
3.831863e+003, 2.876608e-001
3.833792e+003, 2.878887e-001
3.835720e+003, 2.877312e-001
3.837649e+003, 2.874562e-001
3.839577e+003, 2.874120e-001
3.841506e+003, 2.880656e-001
3.843434e+003, 2.884220e-001
3.845363e+003, 2.886011e-001
3.847291e+003, 2.878674e-001
3.849219e+003, 2.873203e-001
3.851148e+003, 2.873030e-001
3.853076e+003, 2.884698e-001
3.855005e+003, 2.889958e-001
3.856933e+003, 2.886101e-001
3.858862e+003, 2.883840e-001
3.860790e+003, 2.880846e-001
3.862719e+003, 2.885266e-001
3.864647e+003, 2.897663e-001
3.866576e+003, 2.907998e-001
3.868504e+003, 2.912756e-001
3.870433e+003, 2.910933e-001
3.872361e+003, 2.905280e-001
3.874290e+003, 2.898116e-001
3.876218e+003, 2.901554e-001
3.878146e+003, 2.905340e-001
3.880075e+003, 2.902516e-001
3.882003e+003, 2.895748e-001
3.883932e+003, 2.898305e-001
3.885860e+003, 2.914858e-001
3.887789e+003, 2.917024e-001
3.889717e+003, 2.910804e-001
3.891646e+003, 2.911381e-001
3.893574e+003, 2.912714e-001
3.895503e+003, 2.915069e-001
3.897431e+003, 2.919222e-001
3.899360e+003, 2.920843e-001
3.901288e+003, 2.912502e-001
3.903217e+003, 2.911277e-001
3.905145e+003, 2.917817e-001
3.907073e+003, 2.918743e-001
3.909002e+003, 2.916370e-001
3.910930e+003, 2.922903e-001
3.912859e+003, 2.926197e-001
3.914787e+003, 2.928308e-001
3.916716e+003, 2.933378e-001
3.918644e+003, 2.936708e-001
3.920573e+003, 2.928677e-001
3.922501e+003, 2.922369e-001
3.924430e+003, 2.922690e-001
3.926358e+003, 2.926386e-001
3.928287e+003, 2.931653e-001
3.930215e+003, 2.945259e-001
3.932144e+003, 2.945696e-001
3.934072e+003, 2.936564e-001
3.936000e+003, 2.932120e-001
3.937929e+003, 2.940200e-001
3.939857e+003, 2.939728e-001
3.941786e+003, 2.929860e-001
3.943714e+003, 2.934482e-001
3.945643e+003, 2.944534e-001
3.947571e+003, 2.942654e-001
3.949500e+003, 2.940432e-001
3.951428e+003, 2.941818e-001
3.953357e+003, 2.949527e-001
3.955285e+003, 2.950728e-001
3.957214e+003, 2.953374e-001
3.959142e+003, 2.957733e-001
3.961071e+003, 2.951614e-001
3.962999e+003, 2.952817e-001
3.964927e+003, 2.957611e-001
3.966856e+003, 2.953865e-001
3.968784e+003, 2.952088e-001
3.970713e+003, 2.951900e-001
3.972641e+003, 2.952084e-001
3.974570e+003, 2.964548e-001
3.976498e+003, 2.974479e-001
3.978427e+003, 2.974716e-001
3.980355e+003, 2.971166e-001
3.982284e+003, 2.970726e-001
3.984212e+003, 2.974973e-001
3.986141e+003, 2.971664e-001
3.988069e+003, 2.965419e-001
3.989998e+003, 2.961113e-001
3.991926e+003, 2.961267e-001
3.993854e+003, 2.960652e-001
3.995783e+003, 2.963213e-001
3.997711e+003, 2.966975e-001
3.999640e+003, 2.968945e-001
##END=



