##NAMES=Humite
##RRUFFID=R040071
##IDEAL CHEMISTRY=Mg_7_(SiO_4_)_3_(F,OH)_2_
##LOCALITY=Tilly Foster mine, Brewster, Putnam County, New York, USA
##OWNER=RRUFF
##SOURCE=University of Arizona Mineral Museum
##DESCRIPTION=Red crystals
##STATUS=The identification of this mineral has been confirmed by X-ray diffraction and chemical analysis
##URL=rruff.info/R040071
##MEASURED CHEMISTRY=(Mg_0.91_Fe_0.09_)_7_(Si_0.99_Ti_0.01_O_4_)_3_(F_0.76_(OH)_0.24_)_2_
3.991926e+002, 0.000000e+000
4.011211e+002, 2.450362e-001
4.030496e+002, 2.461786e-001
4.049780e+002, 2.429909e-001
4.069065e+002, 2.334525e-001
4.088350e+002, 2.256358e-001
4.107634e+002, 2.247550e-001
4.126919e+002, 2.157879e-001
4.146204e+002, 2.079353e-001
4.165488e+002, 2.077749e-001
4.184773e+002, 2.048151e-001
4.204058e+002, 2.031482e-001
4.223342e+002, 2.013183e-001
4.242627e+002, 1.976871e-001
4.261912e+002, 1.972283e-001
4.281196e+002, 1.951232e-001
4.300481e+002, 1.886360e-001
4.319766e+002, 1.835057e-001
4.339050e+002, 1.837357e-001
4.358335e+002, 1.816013e-001
4.377620e+002, 1.770542e-001
4.396904e+002, 1.744884e-001
4.416189e+002, 1.739459e-001
4.435474e+002, 1.725123e-001
4.454758e+002, 1.697218e-001
4.474043e+002, 1.680559e-001
4.493328e+002, 1.656005e-001
4.512612e+002, 1.633701e-001
4.531897e+002, 1.622468e-001
4.551182e+002, 1.607403e-001
4.570466e+002, 1.593937e-001
4.589751e+002, 1.592224e-001
4.609036e+002, 1.605596e-001
4.628320e+002, 1.621881e-001
4.647605e+002, 1.664446e-001
4.666890e+002, 1.706395e-001
4.686174e+002, 1.744004e-001
4.705459e+002, 1.774923e-001
4.724744e+002, 1.792641e-001
4.744028e+002, 1.802690e-001
4.763313e+002, 1.815252e-001
4.782598e+002, 1.807567e-001
4.801882e+002, 1.789694e-001
4.821167e+002, 1.766212e-001
4.840452e+002, 1.727761e-001
4.859736e+002, 1.669471e-001
4.879021e+002, 1.604716e-001
4.898306e+002, 1.530185e-001
4.917590e+002, 1.458053e-001
4.936875e+002, 1.393554e-001
4.956160e+002, 1.338983e-001
4.975444e+002, 1.289039e-001
4.994729e+002, 1.236081e-001
5.014014e+002, 1.193591e-001
5.033298e+002, 1.152599e-001
5.052583e+002, 1.100534e-001
5.071868e+002, 1.056194e-001
5.091152e+002, 1.028538e-001
5.110437e+002, 1.016150e-001
5.129722e+002, 1.028172e-001
5.149006e+002, 1.061990e-001
5.168291e+002, 1.107281e-001
5.187576e+002, 1.173572e-001
5.206860e+002, 1.249953e-001
5.226145e+002, 1.326508e-001
5.245430e+002, 1.396623e-001
5.264714e+002, 1.449845e-001
5.283999e+002, 1.475078e-001
5.303284e+002, 1.482192e-001
5.322568e+002, 1.476645e-001
5.341853e+002, 1.448860e-001
5.361138e+002, 1.411757e-001
5.380422e+002, 1.359371e-001
5.399707e+002, 1.297448e-001
5.418992e+002, 1.236381e-001
5.438276e+002, 1.182022e-001
5.457561e+002, 1.119978e-001
5.476846e+002, 1.063039e-001
5.496130e+002, 1.020787e-001
5.515415e+002, 9.841317e-002
5.534700e+002, 9.371364e-002
5.553984e+002, 8.821828e-002
5.573269e+002, 8.282822e-002
5.592554e+002, 7.744953e-002
5.611838e+002, 7.246369e-002
5.631123e+002, 6.716534e-002
5.650408e+002, 6.264281e-002
5.669692e+002, 5.906697e-002
5.688977e+002, 5.587902e-002
5.708262e+002, 5.314106e-002
5.727546e+002, 5.132927e-002
5.746831e+002, 5.038261e-002
5.766116e+002, 4.942704e-002
5.785400e+002, 4.911155e-002
5.804685e+002, 4.972714e-002
5.823970e+002, 5.102139e-002
5.843254e+002, 5.295355e-002
5.862539e+002, 5.553258e-002
5.881824e+002, 5.944481e-002
5.901108e+002, 6.453587e-002
5.920393e+002, 7.033147e-002
5.939678e+002, 7.702150e-002
5.958962e+002, 8.440134e-002
5.978247e+002, 9.206710e-002
5.997532e+002, 9.874760e-002
6.016816e+002, 1.040460e-001
6.036101e+002, 1.082232e-001
6.055386e+002, 1.110755e-001
6.074670e+002, 1.120644e-001
6.093955e+002, 1.116599e-001
6.113240e+002, 1.100580e-001
6.132524e+002, 1.076438e-001
6.151809e+002, 1.048020e-001
6.171094e+002, 1.011920e-001
6.190378e+002, 9.707146e-002
6.209663e+002, 9.270387e-002
6.228948e+002, 8.792941e-002
6.248232e+002, 8.311465e-002
6.267517e+002, 7.788087e-002
6.286802e+002, 7.245377e-002
6.306086e+002, 6.688079e-002
6.325371e+002, 6.147886e-002
6.344656e+002, 5.649792e-002
6.363940e+002, 5.190073e-002
6.383225e+002, 4.770039e-002
6.402510e+002, 4.385613e-002
6.421794e+002, 4.034480e-002
6.441079e+002, 3.689790e-002
6.460364e+002, 3.397232e-002
6.479648e+002, 3.175343e-002
6.498933e+002, 2.970655e-002
6.518218e+002, 2.819272e-002
6.537502e+002, 2.713988e-002
6.556787e+002, 2.594657e-002
6.576072e+002, 2.479398e-002
6.595356e+002, 2.410948e-002
6.614641e+002, 2.366307e-002
6.633926e+002, 2.309739e-002
6.653210e+002, 2.265403e-002
6.672495e+002, 2.207638e-002
6.691780e+002, 2.168683e-002
6.711064e+002, 2.156954e-002
6.730349e+002, 2.166216e-002
6.749634e+002, 2.228087e-002
6.768918e+002, 2.346230e-002
6.788203e+002, 2.417093e-002
6.807488e+002, 2.339208e-002
6.826772e+002, 2.219628e-002
6.846057e+002, 2.151663e-002
6.865342e+002, 2.144571e-002
6.884626e+002, 2.167149e-002
6.903911e+002, 2.204919e-002
6.923196e+002, 2.243503e-002
6.942480e+002, 2.242550e-002
6.961765e+002, 2.272145e-002
6.981050e+002, 2.316435e-002
7.000334e+002, 2.353573e-002
7.019619e+002, 2.412091e-002
7.038904e+002, 2.482161e-002
7.058188e+002, 2.557254e-002
7.077473e+002, 2.662254e-002
7.096758e+002, 2.791198e-002
7.116042e+002, 2.926176e-002
7.135327e+002, 3.060166e-002
7.154612e+002, 3.191386e-002
7.173896e+002, 3.315006e-002
7.193181e+002, 3.470959e-002
7.212466e+002, 3.669392e-002
7.231750e+002, 3.908467e-002
7.251035e+002, 4.169693e-002
7.270320e+002, 4.491089e-002
7.289604e+002, 4.890635e-002
7.308889e+002, 5.358666e-002
7.328174e+002, 5.893448e-002
7.347458e+002, 6.451928e-002
7.366743e+002, 7.048167e-002
7.386028e+002, 7.676236e-002
7.405313e+002, 8.262298e-002
7.424597e+002, 8.681696e-002
7.443882e+002, 8.896565e-002
7.463167e+002, 8.927418e-002
7.482451e+002, 8.842824e-002
7.501736e+002, 8.726773e-002
7.521021e+002, 8.651137e-002
7.540305e+002, 8.612686e-002
7.559590e+002, 8.550143e-002
7.578875e+002, 8.462639e-002
7.598159e+002, 8.360084e-002
7.617444e+002, 8.168472e-002
7.636729e+002, 7.823212e-002
7.656013e+002, 7.423427e-002
7.675298e+002, 7.024894e-002
7.694583e+002, 6.641573e-002
7.713867e+002, 6.209025e-002
7.733152e+002, 5.734127e-002
7.752437e+002, 5.214342e-002
7.771721e+002, 4.724127e-002
7.791006e+002, 4.389625e-002
7.810291e+002, 4.198796e-002
7.829575e+002, 4.096099e-002
7.848860e+002, 4.072883e-002
7.868145e+002, 4.142483e-002
7.887429e+002, 4.239235e-002
7.906714e+002, 4.344934e-002
7.925999e+002, 4.511257e-002
7.945283e+002, 4.755552e-002
7.964568e+002, 5.052878e-002
7.983853e+002, 5.411048e-002
8.003137e+002, 5.836061e-002
8.022422e+002, 6.297022e-002
8.041707e+002, 6.805460e-002
8.060991e+002, 7.356583e-002
8.080276e+002, 7.939441e-002
8.099561e+002, 8.557931e-002
8.118845e+002, 9.230659e-002
8.138130e+002, 9.958474e-002
8.157415e+002, 1.070805e-001
8.176699e+002, 1.148299e-001
8.195984e+002, 1.229620e-001
8.215269e+002, 1.315226e-001
8.234553e+002, 1.404227e-001
8.253838e+002, 1.496679e-001
8.273123e+002, 1.599905e-001
8.292407e+002, 1.716742e-001
8.311692e+002, 1.840174e-001
8.330977e+002, 1.967322e-001
8.350261e+002, 2.095271e-001
8.369546e+002, 2.226211e-001
8.388831e+002, 2.347503e-001
8.408115e+002, 2.440599e-001
8.427400e+002, 2.492542e-001
8.446685e+002, 2.495969e-001
8.465969e+002, 2.446064e-001
8.485254e+002, 2.356915e-001
8.504539e+002, 2.267754e-001
8.523823e+002, 2.216209e-001
8.543108e+002, 2.219793e-001
8.562393e+002, 2.280738e-001
8.581677e+002, 2.377136e-001
8.600962e+002, 2.483515e-001
8.620247e+002, 2.582127e-001
8.639531e+002, 2.664292e-001
8.658816e+002, 2.729032e-001
8.678101e+002, 2.792323e-001
8.697385e+002, 2.876551e-001
8.716670e+002, 2.988122e-001
8.735955e+002, 3.100874e-001
8.755239e+002, 3.198770e-001
8.774524e+002, 3.272488e-001
8.793809e+002, 3.307299e-001
8.813093e+002, 3.305025e-001
8.832378e+002, 3.273548e-001
8.851663e+002, 3.214149e-001
8.870947e+002, 3.127126e-001
8.890232e+002, 3.019035e-001
8.909517e+002, 2.907127e-001
8.928801e+002, 2.798529e-001
8.948085e+002, 2.697063e-001
8.967370e+002, 2.599500e-001
8.986655e+002, 2.505290e-001
9.005939e+002, 2.417678e-001
9.025224e+002, 2.337485e-001
9.044509e+002, 2.257522e-001
9.063793e+002, 2.177924e-001
9.083078e+002, 2.105127e-001
9.102363e+002, 2.039373e-001
9.121647e+002, 1.973596e-001
9.140932e+002, 1.911721e-001
9.160217e+002, 1.853214e-001
9.179501e+002, 1.796304e-001
9.198786e+002, 1.738086e-001
9.218071e+002, 1.679609e-001
9.237355e+002, 1.622126e-001
9.256640e+002, 1.569525e-001
9.275925e+002, 1.521372e-001
9.295209e+002, 1.480212e-001
9.314494e+002, 1.457995e-001
9.333779e+002, 1.466547e-001
9.353063e+002, 1.499033e-001
9.372348e+002, 1.546645e-001
9.391633e+002, 1.602243e-001
9.410917e+002, 1.663403e-001
9.430202e+002, 1.725872e-001
9.449487e+002, 1.777873e-001
9.468771e+002, 1.808667e-001
9.488056e+002, 1.818740e-001
9.507341e+002, 1.810830e-001
9.526625e+002, 1.796879e-001
9.545910e+002, 1.775598e-001
9.565195e+002, 1.743581e-001
9.584479e+002, 1.705382e-001
9.603764e+002, 1.660881e-001
9.623049e+002, 1.608423e-001
9.642333e+002, 1.550425e-001
9.661618e+002, 1.487637e-001
9.680903e+002, 1.422403e-001
9.700187e+002, 1.361970e-001
9.719472e+002, 1.314573e-001
9.738757e+002, 1.283667e-001
9.758041e+002, 1.269099e-001
9.777326e+002, 1.260411e-001
9.796611e+002, 1.250506e-001
9.815895e+002, 1.235997e-001
9.835180e+002, 1.216000e-001
9.854465e+002, 1.192344e-001
9.873749e+002, 1.170791e-001
9.893034e+002, 1.152674e-001
9.912319e+002, 1.140451e-001
9.931603e+002, 1.131318e-001
9.950888e+002, 1.117964e-001
9.970173e+002, 1.103267e-001
9.989457e+002, 1.088764e-001
1.000874e+003, 1.070354e-001
1.002803e+003, 1.049127e-001
1.004731e+003, 1.026952e-001
1.006660e+003, 1.003487e-001
1.008588e+003, 9.766925e-002
1.010517e+003, 9.452684e-002
1.012445e+003, 9.129077e-002
1.014373e+003, 8.778813e-002
1.016302e+003, 8.394130e-002
1.018230e+003, 8.036394e-002
1.020159e+003, 7.670189e-002
1.022087e+003, 7.283635e-002
1.024016e+003, 6.895311e-002
1.025944e+003, 6.509023e-002
1.027873e+003, 6.113543e-002
1.029801e+003, 5.706085e-002
1.031730e+003, 5.325159e-002
1.033658e+003, 4.968533e-002
1.035587e+003, 4.601699e-002
1.037515e+003, 4.239988e-002
1.039444e+003, 3.912239e-002
1.041372e+003, 3.607920e-002
1.043301e+003, 3.299891e-002
1.045229e+003, 3.027903e-002
1.047157e+003, 2.772556e-002
1.049086e+003, 2.546507e-002
1.051014e+003, 2.352293e-002
1.052943e+003, 2.136833e-002
1.054871e+003, 1.904548e-002
1.056800e+003, 1.726548e-002
1.058728e+003, 1.598158e-002
1.060657e+003, 1.488085e-002
1.062585e+003, 1.375897e-002
1.064514e+003, 1.310966e-002
1.066442e+003, 1.284738e-002
1.068371e+003, 1.255435e-002
1.070299e+003, 1.235711e-002
1.072228e+003, 1.209409e-002
1.074156e+003, 1.203057e-002
1.076084e+003, 1.199533e-002
1.078013e+003, 1.182539e-002
1.079941e+003, 1.170085e-002
1.081870e+003, 1.160324e-002
1.083798e+003, 1.151757e-002
1.085727e+003, 1.125780e-002
1.087655e+003, 1.109145e-002
1.089584e+003, 1.100340e-002
1.091512e+003, 1.080213e-002
1.093441e+003, 1.038417e-002
1.095369e+003, 9.780084e-003
1.097298e+003, 9.279047e-003
1.099226e+003, 8.752752e-003
1.101155e+003, 8.051707e-003
1.103083e+003, 7.490617e-003
1.105011e+003, 6.918663e-003
1.106940e+003, 6.367009e-003
1.108868e+003, 5.925778e-003
1.110797e+003, 5.565488e-003
1.112725e+003, 5.219366e-003
1.114654e+003, 5.110462e-003
1.116582e+003, 5.002823e-003
1.118511e+003, 4.908436e-003
1.120439e+003, 4.880309e-003
1.122368e+003, 4.681374e-003
1.124296e+003, 4.479825e-003
1.126225e+003, 4.416761e-003
1.128153e+003, 4.409398e-003
1.130082e+003, 4.349319e-003
1.132010e+003, 4.266166e-003
1.133938e+003, 4.059131e-003
1.135867e+003, 3.954303e-003
1.137795e+003, 4.189823e-003
1.139724e+003, 4.270370e-003
1.141652e+003, 4.278179e-003
1.143581e+003, 4.284499e-003
1.145509e+003, 4.326039e-003
1.147438e+003, 4.374908e-003
1.149366e+003, 4.375510e-003
1.151295e+003, 4.411341e-003
1.153223e+003, 4.748566e-003
1.155152e+003, 5.086454e-003
1.157080e+003, 5.154139e-003
1.159009e+003, 5.323160e-003
1.160937e+003, 5.547095e-003
1.162865e+003, 5.530687e-003
1.164794e+003, 5.575730e-003
1.166722e+003, 5.696382e-003
1.168651e+003, 5.705690e-003
1.170579e+003, 5.768034e-003
1.172508e+003, 5.816213e-003
1.174436e+003, 5.756441e-003
1.176365e+003, 5.728338e-003
1.178293e+003, 5.656649e-003
1.180222e+003, 5.529482e-003
1.182150e+003, 5.426844e-003
1.184079e+003, 5.171188e-003
1.186007e+003, 5.043804e-003
1.187936e+003, 4.961238e-003
1.189864e+003, 4.761396e-003
1.191792e+003, 4.685237e-003
1.193721e+003, 4.703884e-003
1.195649e+003, 4.554405e-003
1.197578e+003, 4.363368e-003
1.199506e+003, 4.427000e-003
1.201435e+003, 4.540893e-003
1.203363e+003, 4.534758e-003
1.205292e+003, 4.384911e-003
1.207220e+003, 4.343535e-003
1.209149e+003, 4.440941e-003
1.211077e+003, 4.577267e-003
1.213006e+003, 4.570701e-003
1.214934e+003, 4.544681e-003
1.216863e+003, 4.687512e-003
1.218791e+003, 4.804522e-003
1.220719e+003, 4.635755e-003
1.222648e+003, 4.529571e-003
1.224576e+003, 4.516797e-003
1.226505e+003, 4.324849e-003
1.228433e+003, 4.333217e-003
1.230362e+003, 4.446776e-003
1.232290e+003, 4.446181e-003
1.234219e+003, 4.414512e-003
1.236147e+003, 4.574573e-003
1.238076e+003, 4.738011e-003
1.240004e+003, 4.719205e-003
1.241933e+003, 4.800410e-003
1.243861e+003, 4.908098e-003
1.245790e+003, 5.003041e-003
1.247718e+003, 5.180210e-003
1.249646e+003, 5.587539e-003
1.251575e+003, 5.879118e-003
1.253503e+003, 6.110771e-003
1.255432e+003, 6.385642e-003
1.257360e+003, 6.741253e-003
1.259289e+003, 7.110334e-003
1.261217e+003, 7.511985e-003
1.263146e+003, 7.792078e-003
1.265074e+003, 8.058128e-003
1.267003e+003, 8.266665e-003
1.268931e+003, 8.306815e-003
1.270860e+003, 8.189416e-003
1.272788e+003, 7.869622e-003
1.274717e+003, 7.575914e-003
1.276645e+003, 7.235923e-003
1.278573e+003, 6.906084e-003
1.280502e+003, 6.570762e-003
1.282430e+003, 6.433649e-003
1.284359e+003, 6.315539e-003
1.286287e+003, 6.201573e-003
1.288216e+003, 6.075300e-003
1.290144e+003, 6.122258e-003
1.292073e+003, 6.242457e-003
1.294001e+003, 6.306091e-003
1.295930e+003, 6.293405e-003
1.297858e+003, 6.192944e-003
1.299787e+003, 6.366972e-003
1.301715e+003, 6.604809e-003
1.303644e+003, 6.695278e-003
1.305572e+003, 6.832890e-003
1.307500e+003, 7.103140e-003
1.309429e+003, 7.388426e-003
1.311357e+003, 7.635588e-003
1.313286e+003, 7.749560e-003
1.315214e+003, 7.685064e-003
1.317143e+003, 7.601868e-003
1.319071e+003, 7.610175e-003
1.321000e+003, 7.499178e-003
1.322928e+003, 7.507050e-003
1.324857e+003, 7.522430e-003
1.326785e+003, 7.473502e-003
1.328714e+003, 7.594096e-003
1.330642e+003, 7.882881e-003
1.332571e+003, 8.091628e-003
1.334499e+003, 8.174850e-003
1.336427e+003, 8.326414e-003
1.338356e+003, 8.387830e-003
1.340284e+003, 8.499728e-003
1.342213e+003, 8.805440e-003
1.344141e+003, 9.005103e-003
1.346070e+003, 9.186002e-003
1.347998e+003, 9.129595e-003
1.349927e+003, 9.257387e-003
1.351855e+003, 9.784357e-003
1.353784e+003, 1.018532e-002
1.355712e+003, 1.041411e-002
1.357641e+003, 1.067929e-002
1.359569e+003, 1.103767e-002
1.361498e+003, 1.135892e-002
1.363426e+003, 1.175120e-002
1.365354e+003, 1.227443e-002
1.367283e+003, 1.273109e-002
1.369211e+003, 1.319565e-002
1.371140e+003, 1.382965e-002
1.373068e+003, 1.453633e-002
1.374997e+003, 1.511651e-002
1.376925e+003, 1.566878e-002
1.378854e+003, 1.640292e-002
1.380782e+003, 1.711093e-002
1.382711e+003, 1.800769e-002
1.384639e+003, 1.913738e-002
1.386568e+003, 2.023092e-002
1.388496e+003, 2.134993e-002
1.390424e+003, 2.224367e-002
1.392353e+003, 2.326315e-002
1.394281e+003, 2.425091e-002
1.396210e+003, 2.507347e-002
1.398138e+003, 2.570526e-002
1.400067e+003, 2.621598e-002
1.401995e+003, 2.679265e-002
1.403924e+003, 2.748649e-002
1.405852e+003, 2.804991e-002
1.407781e+003, 2.847513e-002
1.409709e+003, 2.878195e-002
1.411638e+003, 2.881863e-002
1.413566e+003, 2.899588e-002
1.415495e+003, 2.932601e-002
1.417423e+003, 2.954439e-002
1.419351e+003, 2.977845e-002
1.421280e+003, 3.003775e-002
1.423208e+003, 3.028002e-002
1.425137e+003, 3.058094e-002
1.427065e+003, 3.082615e-002
1.428994e+003, 3.086542e-002
1.430922e+003, 3.126529e-002
1.432851e+003, 3.156808e-002
1.434779e+003, 3.152385e-002
1.436708e+003, 3.149921e-002
1.438636e+003, 3.141667e-002
1.440565e+003, 3.136466e-002
1.442493e+003, 3.143263e-002
1.444422e+003, 3.114890e-002
1.446350e+003, 3.076378e-002
1.448278e+003, 3.051888e-002
1.450207e+003, 3.008647e-002
1.452135e+003, 2.962985e-002
1.454064e+003, 2.910882e-002
1.455992e+003, 2.862737e-002
1.457921e+003, 2.838034e-002
1.459849e+003, 2.778109e-002
1.461778e+003, 2.708649e-002
1.463706e+003, 2.661287e-002
1.465635e+003, 2.616847e-002
1.467563e+003, 2.541484e-002
1.469492e+003, 2.478399e-002
1.471420e+003, 2.401856e-002
1.473349e+003, 2.320269e-002
1.475277e+003, 2.243891e-002
1.477205e+003, 2.198981e-002
1.479134e+003, 2.144352e-002
1.481062e+003, 2.095314e-002
1.482991e+003, 2.049297e-002
1.484919e+003, 1.987403e-002
1.486848e+003, 1.922402e-002
1.488776e+003, 1.880483e-002
1.490705e+003, 1.847648e-002
1.492633e+003, 1.793183e-002
1.494562e+003, 1.728095e-002
1.496490e+003, 1.689143e-002
1.498419e+003, 1.647905e-002
1.500347e+003, 1.619953e-002
1.502276e+003, 1.578756e-002
1.504204e+003, 1.525037e-002
1.506132e+003, 1.519677e-002
1.508061e+003, 1.501403e-002
1.509989e+003, 1.458383e-002
1.511918e+003, 1.433091e-002
1.513846e+003, 1.401861e-002
1.515775e+003, 1.379576e-002
1.517703e+003, 1.364795e-002
1.519632e+003, 1.326378e-002
1.521560e+003, 1.324161e-002
1.523489e+003, 1.323820e-002
1.525417e+003, 1.321617e-002
1.527346e+003, 1.309350e-002
1.529274e+003, 1.298001e-002
1.531203e+003, 1.270123e-002
1.533131e+003, 1.268360e-002
1.535059e+003, 1.267123e-002
1.536988e+003, 1.245830e-002
1.538916e+003, 1.239543e-002
1.540845e+003, 1.262271e-002
1.542773e+003, 1.280503e-002
1.544702e+003, 1.247974e-002
1.546630e+003, 1.229526e-002
1.548559e+003, 1.225033e-002
1.550487e+003, 1.235930e-002
1.552416e+003, 1.242932e-002
1.554344e+003, 1.263663e-002
1.556273e+003, 1.284778e-002
1.558201e+003, 1.304481e-002
1.560130e+003, 1.306344e-002
1.562058e+003, 1.286881e-002
1.563986e+003, 1.312341e-002
1.565915e+003, 1.336728e-002
1.567843e+003, 1.331638e-002
1.569772e+003, 1.324694e-002
1.571700e+003, 1.308690e-002
1.573629e+003, 1.297667e-002
1.575557e+003, 1.298725e-002
1.577486e+003, 1.323694e-002
1.579414e+003, 1.337872e-002
1.581343e+003, 1.338790e-002
1.583271e+003, 1.324381e-002
1.585200e+003, 1.337510e-002
1.587128e+003, 1.324893e-002
1.589057e+003, 1.332599e-002
1.590985e+003, 1.340720e-002
1.592913e+003, 1.330410e-002
1.594842e+003, 1.309767e-002
1.596770e+003, 1.309549e-002
1.598699e+003, 1.297330e-002
1.600627e+003, 1.285265e-002
1.602556e+003, 1.291370e-002
1.604484e+003, 1.279808e-002
1.606413e+003, 1.258651e-002
1.608341e+003, 1.243404e-002
1.610270e+003, 1.230773e-002
1.612198e+003, 1.222304e-002
1.614127e+003, 1.203386e-002
1.616055e+003, 1.176002e-002
1.617984e+003, 1.167778e-002
1.619912e+003, 1.149172e-002
1.621840e+003, 1.142872e-002
1.623769e+003, 1.126358e-002
1.625697e+003, 1.101772e-002
1.627626e+003, 1.095666e-002
1.629554e+003, 1.074220e-002
1.631483e+003, 1.059961e-002
1.633411e+003, 1.049253e-002
1.635340e+003, 1.049567e-002
1.637268e+003, 1.046149e-002
1.639197e+003, 1.042263e-002
1.641125e+003, 1.032818e-002
1.643054e+003, 9.932013e-003
1.644982e+003, 9.491688e-003
1.646911e+003, 9.329505e-003
1.648839e+003, 9.118332e-003
1.650767e+003, 9.113718e-003
1.652696e+003, 9.247168e-003
1.654624e+003, 9.077360e-003
1.656553e+003, 8.820129e-003
1.658481e+003, 8.940261e-003
1.660410e+003, 8.855950e-003
1.662338e+003, 8.645755e-003
1.664267e+003, 8.557482e-003
1.666195e+003, 8.247010e-003
1.668124e+003, 8.081865e-003
1.670052e+003, 8.340620e-003
1.671981e+003, 8.444165e-003
1.673909e+003, 8.070392e-003
1.675838e+003, 7.822756e-003
1.677766e+003, 7.708890e-003
1.679694e+003, 7.581629e-003
1.681623e+003, 7.541772e-003
1.683551e+003, 7.626718e-003
1.685480e+003, 7.784486e-003
1.687408e+003, 7.421217e-003
1.689337e+003, 7.323439e-003
1.691265e+003, 7.289092e-003
1.693194e+003, 7.291292e-003
1.695122e+003, 7.353214e-003
1.697051e+003, 7.560264e-003
1.698979e+003, 7.198353e-003
1.700908e+003, 7.426332e-003
1.702836e+003, 7.384918e-003
1.704765e+003, 7.546164e-003
1.706693e+003, 7.641602e-003
1.708621e+003, 7.669261e-003
1.710550e+003, 7.494024e-003
1.712478e+003, 7.146919e-003
1.714407e+003, 7.178788e-003
1.716335e+003, 7.478120e-003
1.718264e+003, 7.477587e-003
1.720192e+003, 7.567851e-003
1.722121e+003, 7.775994e-003
1.724049e+003, 7.906241e-003
1.725978e+003, 7.904428e-003
1.727906e+003, 7.540517e-003
1.729835e+003, 7.240968e-003
1.731763e+003, 7.512135e-003
1.733692e+003, 7.680628e-003
1.735620e+003, 7.657558e-003
1.737548e+003, 7.551528e-003
1.739477e+003, 7.541564e-003
1.741405e+003, 7.351789e-003
1.743334e+003, 7.298342e-003
1.745262e+003, 7.185110e-003
1.747191e+003, 7.131438e-003
1.749119e+003, 7.156840e-003
1.751048e+003, 7.098582e-003
1.752976e+003, 7.127800e-003
1.754905e+003, 7.211686e-003
1.756833e+003, 7.128637e-003
1.758762e+003, 7.081477e-003
1.760690e+003, 6.953526e-003
1.762619e+003, 6.703907e-003
1.764547e+003, 6.617596e-003
1.766475e+003, 7.088504e-003
1.768404e+003, 7.133353e-003
1.770332e+003, 6.900447e-003
1.772261e+003, 6.689864e-003
1.774189e+003, 6.524250e-003
1.776118e+003, 6.416530e-003
1.778046e+003, 6.398147e-003
1.779975e+003, 6.639061e-003
1.781903e+003, 6.937038e-003
1.783832e+003, 6.833591e-003
1.785760e+003, 6.921225e-003
1.787689e+003, 7.101405e-003
1.789617e+003, 7.053824e-003
1.791546e+003, 7.055669e-003
1.793474e+003, 7.525399e-003
1.795402e+003, 7.329895e-003
1.797331e+003, 7.182992e-003
1.799259e+003, 7.629126e-003
1.801188e+003, 7.569365e-003
1.803116e+003, 7.511138e-003
1.805045e+003, 7.553715e-003
1.806973e+003, 7.186495e-003
1.808902e+003, 6.983325e-003
1.810830e+003, 6.935680e-003
1.812759e+003, 6.794190e-003
1.814687e+003, 6.693406e-003
1.816616e+003, 6.682487e-003
1.818544e+003, 6.812001e-003
1.820473e+003, 6.936017e-003
1.822401e+003, 6.971785e-003
1.824329e+003, 6.894191e-003
1.826258e+003, 6.447568e-003
1.828186e+003, 6.398562e-003
1.830115e+003, 6.957921e-003
1.832043e+003, 6.979749e-003
1.833972e+003, 6.723310e-003
1.835900e+003, 6.816050e-003
1.837829e+003, 6.883985e-003
1.839757e+003, 7.080593e-003
1.841686e+003, 7.064018e-003
1.843614e+003, 6.906935e-003
1.845543e+003, 7.304635e-003
1.847471e+003, 7.270093e-003
1.849400e+003, 6.848149e-003
1.851328e+003, 7.129719e-003
1.853256e+003, 7.686095e-003
1.855185e+003, 7.780787e-003
1.857113e+003, 7.552797e-003
1.859042e+003, 7.142979e-003
1.860970e+003, 7.053191e-003
1.862899e+003, 7.053874e-003
1.864827e+003, 6.933678e-003
1.866756e+003, 7.192542e-003
1.868684e+003, 7.458698e-003
1.870613e+003, 7.396085e-003
1.872541e+003, 7.030695e-003
1.874470e+003, 6.826916e-003
1.876398e+003, 6.528945e-003
1.878327e+003, 6.891027e-003
1.880255e+003, 7.042316e-003
1.882183e+003, 6.694571e-003
1.884112e+003, 6.247698e-003
1.886040e+003, 6.249799e-003
1.887969e+003, 6.231715e-003
1.889897e+003, 6.337004e-003
1.891826e+003, 6.177252e-003
1.893754e+003, 6.223463e-003
1.895683e+003, 6.249022e-003
1.897611e+003, 5.294121e-003
1.899540e+003, 5.003429e-003
1.901468e+003, 5.034936e-003
1.903397e+003, 5.335241e-003
1.905325e+003, 5.760142e-003
1.907254e+003, 6.218642e-003
1.909182e+003, 6.493406e-003
1.911110e+003, 6.191420e-003
1.913039e+003, 6.268756e-003
1.914967e+003, 6.409297e-003
1.916896e+003, 6.082069e-003
1.918824e+003, 5.701997e-003
1.920753e+003, 5.177875e-003
1.922681e+003, 5.224889e-003
1.924610e+003, 5.309721e-003
1.926538e+003, 5.213813e-003
1.928467e+003, 5.013552e-003
1.930395e+003, 4.379056e-003
1.932324e+003, 4.785319e-003
1.934252e+003, 4.983527e-003
1.936181e+003, 4.592076e-003
1.938109e+003, 4.201626e-003
1.940037e+003, 4.581529e-003
1.941966e+003, 5.176098e-003
1.943894e+003, 5.635188e-003
1.945823e+003, 5.163850e-003
1.947751e+003, 5.303200e-003
1.949680e+003, 6.079723e-003
1.951608e+003, 5.092436e-003
1.953537e+003, 4.261640e-003
1.955465e+003, 3.677947e-003
1.957394e+003, 3.495628e-003
1.959322e+003, 3.703477e-003
1.961251e+003, 3.351083e-003
1.963179e+003, 2.999646e-003
1.965108e+003, 2.684477e-003
1.967036e+003, 4.868467e-003
1.968964e+003, 5.241644e-003
1.970893e+003, 3.537284e-003
1.972821e+003, 3.079558e-003
1.974750e+003, 2.303114e-003
1.976678e+003, 3.135026e-003
1.978607e+003, 5.917665e-003
1.980535e+003, 6.427638e-003
1.982464e+003, 5.580667e-003
1.984392e+003, 4.648410e-003
1.986321e+003, 4.743891e-003
1.988249e+003, 6.090430e-003
1.990178e+003, 5.218612e-003
1.992106e+003, 4.255202e-003
1.994035e+003, 3.730149e-003
1.995963e+003, 3.814207e-003
1.997891e+003, 4.886475e-003
1.999820e+003, 4.095440e-003
2.001748e+003, 2.601929e-003
2.003677e+003, 3.312641e-003
2.005605e+003, 3.306672e-003
2.007534e+003, 3.326199e-003
2.009462e+003, 3.011925e-003
2.011391e+003, 3.082130e-003
2.013319e+003, 3.791279e-003
2.015248e+003, 3.100248e-003
2.017176e+003, 2.856225e-003
2.019105e+003, 3.039791e-003
2.021033e+003, 2.735375e-003
2.022962e+003, 3.716635e-003
2.024890e+003, 4.638090e-003
2.026818e+003, 3.714967e-003
2.028747e+003, 4.922503e-003
2.030675e+003, 6.993356e-003
2.032604e+003, 6.867420e-003
2.034532e+003, 7.020558e-003
2.036461e+003, 6.288501e-003
2.038389e+003, 6.533564e-003
2.040318e+003, 6.982303e-003
2.042246e+003, 7.507236e-003
2.044175e+003, 6.912806e-003
2.046103e+003, 5.488415e-003
2.048032e+003, 5.453702e-003
2.049960e+003, 6.785475e-003
2.051889e+003, 6.911222e-003
2.053817e+003, 6.248678e-003
2.055746e+003, 5.804998e-003
2.057674e+003, 6.916895e-003
2.059603e+003, 7.398692e-003
2.061531e+003, 7.079728e-003
2.063459e+003, 7.167671e-003
2.065388e+003, 7.456371e-003
2.067316e+003, 6.675635e-003
2.069245e+003, 6.931952e-003
2.071173e+003, 7.857302e-003
2.073102e+003, 7.711913e-003
2.075030e+003, 6.931389e-003
2.076959e+003, 6.515455e-003
2.078887e+003, 6.487026e-003
2.080816e+003, 7.150635e-003
2.082744e+003, 7.282479e-003
2.084673e+003, 6.996957e-003
2.086601e+003, 7.403520e-003
2.088530e+003, 7.466393e-003
2.090458e+003, 6.967455e-003
2.092386e+003, 6.538041e-003
2.094315e+003, 6.257688e-003
2.096243e+003, 6.660570e-003
2.098172e+003, 8.494398e-003
2.100100e+003, 8.948741e-003
2.102029e+003, 9.155401e-003
2.103957e+003, 9.828274e-003
2.105886e+003, 8.914779e-003
2.107814e+003, 8.685379e-003
2.109743e+003, 9.516060e-003
2.111671e+003, 9.742753e-003
2.113600e+003, 9.502116e-003
2.115528e+003, 9.312853e-003
2.117457e+003, 8.806442e-003
2.119385e+003, 9.245072e-003
2.121313e+003, 9.637590e-003
2.123242e+003, 9.863850e-003
2.125170e+003, 9.470346e-003
2.127099e+003, 8.338207e-003
2.129027e+003, 6.903728e-003
2.130956e+003, 6.159515e-003
2.132884e+003, 6.897659e-003
2.134813e+003, 7.701399e-003
2.136741e+003, 8.685126e-003
2.138670e+003, 9.161389e-003
2.140598e+003, 7.564309e-003
2.142527e+003, 7.386707e-003
2.144455e+003, 8.081676e-003
2.146384e+003, 7.869668e-003
2.148312e+003, 6.985012e-003
2.150240e+003, 7.605509e-003
2.152169e+003, 9.470610e-003
2.154097e+003, 7.771361e-003
2.156026e+003, 4.969252e-003
2.157954e+003, 5.535054e-003
2.159883e+003, 8.326688e-003
2.161811e+003, 9.139975e-003
2.163740e+003, 8.575444e-003
2.165668e+003, 8.136973e-003
2.167597e+003, 9.341999e-003
2.169525e+003, 1.048570e-002
2.171454e+003, 9.327965e-003
2.173382e+003, 8.330146e-003
2.175311e+003, 9.228148e-003
2.177239e+003, 1.010706e-002
2.179167e+003, 9.673492e-003
2.181096e+003, 8.727844e-003
2.183024e+003, 9.776414e-003
2.184953e+003, 9.973939e-003
2.186881e+003, 9.518166e-003
2.188810e+003, 9.954614e-003
2.190738e+003, 1.014642e-002
2.192667e+003, 9.952852e-003
2.194595e+003, 1.045324e-002
2.196524e+003, 1.041615e-002
2.198452e+003, 1.019210e-002
2.200381e+003, 1.049872e-002
2.202309e+003, 1.065232e-002
2.204238e+003, 1.060321e-002
2.206166e+003, 1.071476e-002
2.208094e+003, 9.603453e-003
2.210023e+003, 8.337849e-003
2.211951e+003, 7.627651e-003
2.213880e+003, 8.466283e-003
2.215808e+003, 9.895074e-003
2.217737e+003, 9.916808e-003
2.219665e+003, 1.051477e-002
2.221594e+003, 1.085288e-002
2.223522e+003, 1.078723e-002
2.225451e+003, 1.112533e-002
2.227379e+003, 1.159658e-002
2.229308e+003, 1.151481e-002
2.231236e+003, 1.101107e-002
2.233165e+003, 1.007686e-002
2.235093e+003, 1.001311e-002
2.237021e+003, 1.061733e-002
2.238950e+003, 1.039633e-002
2.240878e+003, 1.048702e-002
2.242807e+003, 1.062423e-002
2.244735e+003, 1.029270e-002
2.246664e+003, 1.050988e-002
2.248592e+003, 1.029166e-002
2.250521e+003, 1.013814e-002
2.252449e+003, 1.115327e-002
2.254378e+003, 1.152661e-002
2.256306e+003, 1.055907e-002
2.258235e+003, 1.029294e-002
2.260163e+003, 1.009241e-002
2.262092e+003, 1.057811e-002
2.264020e+003, 1.079510e-002
2.265948e+003, 1.105187e-002
2.267877e+003, 1.192620e-002
2.269805e+003, 1.268709e-002
2.271734e+003, 1.240614e-002
2.273662e+003, 1.173038e-002
2.275591e+003, 1.236759e-002
2.277519e+003, 1.253857e-002
2.279448e+003, 1.167982e-002
2.281376e+003, 1.161906e-002
2.283305e+003, 1.262475e-002
2.285233e+003, 1.320746e-002
2.287162e+003, 1.286263e-002
2.289090e+003, 1.229681e-002
2.291019e+003, 1.182782e-002
2.292947e+003, 1.189383e-002
2.294875e+003, 1.167467e-002
2.296804e+003, 1.188817e-002
2.298732e+003, 1.248493e-002
2.300661e+003, 1.250876e-002
2.302589e+003, 1.195344e-002
2.304518e+003, 1.232967e-002
2.306446e+003, 1.254500e-002
2.308375e+003, 1.261905e-002
2.310303e+003, 1.246917e-002
2.312232e+003, 1.217373e-002
2.314160e+003, 1.253351e-002
2.316089e+003, 1.286763e-002
2.318017e+003, 1.281855e-002
2.319946e+003, 1.343395e-002
2.321874e+003, 1.403233e-002
2.323802e+003, 1.361862e-002
2.325731e+003, 1.263435e-002
2.327659e+003, 1.171881e-002
2.329588e+003, 1.158450e-002
2.331516e+003, 1.173865e-002
2.333445e+003, 1.153849e-002
2.335373e+003, 1.158577e-002
2.337302e+003, 1.195660e-002
2.339230e+003, 1.192449e-002
2.341159e+003, 1.203010e-002
2.343087e+003, 1.214788e-002
2.345016e+003, 1.209672e-002
2.346944e+003, 1.190108e-002
2.348873e+003, 1.160392e-002
2.350801e+003, 1.181770e-002
2.352729e+003, 1.181795e-002
2.354658e+003, 1.132244e-002
2.356586e+003, 1.140847e-002
2.358515e+003, 1.237313e-002
2.360443e+003, 1.242121e-002
2.362372e+003, 1.186797e-002
2.364300e+003, 1.176965e-002
2.366229e+003, 1.211974e-002
2.368157e+003, 1.183108e-002
2.370086e+003, 1.127293e-002
2.372014e+003, 1.102715e-002
2.373942e+003, 1.128135e-002
2.375871e+003, 1.148092e-002
2.377799e+003, 1.173172e-002
2.379728e+003, 1.168896e-002
2.381656e+003, 1.147017e-002
2.383585e+003, 1.157327e-002
2.385513e+003, 1.160788e-002
2.387442e+003, 1.149262e-002
2.389370e+003, 1.194432e-002
2.391299e+003, 1.219760e-002
2.393227e+003, 1.201003e-002
2.395156e+003, 1.154228e-002
2.397084e+003, 1.142459e-002
2.399012e+003, 1.156756e-002
2.400941e+003, 1.189697e-002
2.402869e+003, 1.206769e-002
2.404798e+003, 1.230353e-002
2.406726e+003, 1.253483e-002
2.408655e+003, 1.252710e-002
2.410583e+003, 1.274813e-002
2.412512e+003, 1.285438e-002
2.414440e+003, 1.259743e-002
2.416369e+003, 1.285184e-002
2.418297e+003, 1.262348e-002
2.420226e+003, 1.200311e-002
2.422154e+003, 1.217317e-002
2.424083e+003, 1.275082e-002
2.426011e+003, 1.275601e-002
2.427939e+003, 1.347920e-002
2.429868e+003, 1.330131e-002
2.431796e+003, 1.226704e-002
2.433725e+003, 1.245234e-002
2.435653e+003, 1.273262e-002
2.437582e+003, 1.256876e-002
2.439510e+003, 1.265314e-002
2.441439e+003, 1.312670e-002
2.443367e+003, 1.325051e-002
2.445296e+003, 1.277187e-002
2.447224e+003, 1.276586e-002
2.449153e+003, 1.285683e-002
2.451081e+003, 1.334514e-002
2.453010e+003, 1.347285e-002
2.454938e+003, 1.306776e-002
2.456866e+003, 1.304094e-002
2.458795e+003, 1.342938e-002
2.460723e+003, 1.340747e-002
2.462652e+003, 1.307009e-002
2.464580e+003, 1.334943e-002
2.466509e+003, 1.351654e-002
2.468437e+003, 1.363048e-002
2.470366e+003, 1.365887e-002
2.472294e+003, 1.289399e-002
2.474223e+003, 1.240907e-002
2.476151e+003, 1.250921e-002
2.478080e+003, 1.248207e-002
2.480008e+003, 1.232238e-002
2.481937e+003, 1.246539e-002
2.483865e+003, 1.254535e-002
2.485793e+003, 1.305634e-002
2.487722e+003, 1.364623e-002
2.489650e+003, 1.319810e-002
2.491579e+003, 1.374021e-002
2.493507e+003, 1.400190e-002
2.495436e+003, 1.281830e-002
2.497364e+003, 1.196401e-002
2.499293e+003, 1.211317e-002
2.501221e+003, 1.209628e-002
2.503150e+003, 1.248980e-002
2.505078e+003, 1.238943e-002
2.507007e+003, 1.293909e-002
2.508935e+003, 1.309460e-002
2.510864e+003, 1.261051e-002
2.512792e+003, 1.255004e-002
2.514720e+003, 1.298321e-002
2.516649e+003, 1.374368e-002
2.518577e+003, 1.367216e-002
2.520506e+003, 1.312709e-002
2.522434e+003, 1.260149e-002
2.524363e+003, 1.254928e-002
2.526291e+003, 1.299246e-002
2.528220e+003, 1.321229e-002
2.530148e+003, 1.364695e-002
2.532077e+003, 1.375012e-002
2.534005e+003, 1.329079e-002
2.535934e+003, 1.291809e-002
2.537862e+003, 1.280370e-002
2.539791e+003, 1.276686e-002
2.541719e+003, 1.322436e-002
2.543647e+003, 1.313631e-002
2.545576e+003, 1.300117e-002
2.547504e+003, 1.320031e-002
2.549433e+003, 1.282251e-002
2.551361e+003, 1.325990e-002
2.553290e+003, 1.390189e-002
2.555218e+003, 1.308349e-002
2.557147e+003, 1.272049e-002
2.559075e+003, 1.273754e-002
2.561004e+003, 1.245079e-002
2.562932e+003, 1.269687e-002
2.564861e+003, 1.291593e-002
2.566789e+003, 1.370526e-002
2.568718e+003, 1.421802e-002
2.570646e+003, 1.387927e-002
2.572574e+003, 1.347092e-002
2.574503e+003, 1.320951e-002
2.576431e+003, 1.354443e-002
2.578360e+003, 1.316663e-002
2.580288e+003, 1.287141e-002
2.582217e+003, 1.333827e-002
2.584145e+003, 1.367252e-002
2.586074e+003, 1.353120e-002
2.588002e+003, 1.371566e-002
2.589931e+003, 1.325064e-002
2.591859e+003, 1.312400e-002
2.593788e+003, 1.335638e-002
2.595716e+003, 1.351114e-002
2.597645e+003, 1.369079e-002
2.599573e+003, 1.403554e-002
2.601501e+003, 1.431305e-002
2.603430e+003, 1.465377e-002
2.605358e+003, 1.479799e-002
2.607287e+003, 1.442643e-002
2.609215e+003, 1.406152e-002
2.611144e+003, 1.419368e-002
2.613072e+003, 1.451956e-002
2.615001e+003, 1.415586e-002
2.616929e+003, 1.442999e-002
2.618858e+003, 1.472725e-002
2.620786e+003, 1.455636e-002
2.622715e+003, 1.417703e-002
2.624643e+003, 1.431365e-002
2.626572e+003, 1.491443e-002
2.628500e+003, 1.482682e-002
2.630428e+003, 1.433010e-002
2.632357e+003, 1.434335e-002
2.634285e+003, 1.413335e-002
2.636214e+003, 1.354807e-002
2.638142e+003, 1.360035e-002
2.640071e+003, 1.405768e-002
2.641999e+003, 1.407894e-002
2.643928e+003, 1.377868e-002
2.645856e+003, 1.390594e-002
2.647785e+003, 1.454105e-002
2.649713e+003, 1.461735e-002
2.651642e+003, 1.469143e-002
2.653570e+003, 1.461200e-002
2.655499e+003, 1.428779e-002
2.657427e+003, 1.411765e-002
2.659355e+003, 1.403121e-002
2.661284e+003, 1.380425e-002
2.663212e+003, 1.357852e-002
2.665141e+003, 1.348774e-002
2.667069e+003, 1.351762e-002
2.668998e+003, 1.363700e-002
2.670926e+003, 1.416527e-002
2.672855e+003, 1.406532e-002
2.674783e+003, 1.334934e-002
2.676712e+003, 1.339880e-002
2.678640e+003, 1.359234e-002
2.680569e+003, 1.371221e-002
2.682497e+003, 1.387210e-002
2.684426e+003, 1.380611e-002
2.686354e+003, 1.349497e-002
2.688282e+003, 1.342049e-002
2.690211e+003, 1.357855e-002
2.692139e+003, 1.370209e-002
2.694068e+003, 1.390095e-002
2.695996e+003, 1.432048e-002
2.697925e+003, 1.430239e-002
2.699853e+003, 1.393135e-002
2.701782e+003, 1.353000e-002
2.703710e+003, 1.395578e-002
2.705639e+003, 1.402153e-002
2.707567e+003, 1.357049e-002
2.709496e+003, 1.370495e-002
2.711424e+003, 1.443226e-002
2.713353e+003, 1.524244e-002
2.715281e+003, 1.526521e-002
2.717209e+003, 1.475948e-002
2.719138e+003, 1.479952e-002
2.721066e+003, 1.521910e-002
2.722995e+003, 1.553399e-002
2.724923e+003, 1.528860e-002
2.726852e+003, 1.463558e-002
2.728780e+003, 1.432915e-002
2.730709e+003, 1.435741e-002
2.732637e+003, 1.463271e-002
2.734566e+003, 1.469257e-002
2.736494e+003, 1.482136e-002
2.738423e+003, 1.489061e-002
2.740351e+003, 1.489696e-002
2.742280e+003, 1.462786e-002
2.744208e+003, 1.432936e-002
2.746136e+003, 1.441200e-002
2.748065e+003, 1.479903e-002
2.749993e+003, 1.518615e-002
2.751922e+003, 1.515996e-002
2.753850e+003, 1.507605e-002
2.755779e+003, 1.520747e-002
2.757707e+003, 1.476686e-002
2.759636e+003, 1.444508e-002
2.761564e+003, 1.452983e-002
2.763493e+003, 1.516982e-002
2.765421e+003, 1.573861e-002
2.767350e+003, 1.520891e-002
2.769278e+003, 1.459215e-002
2.771207e+003, 1.459608e-002
2.773135e+003, 1.478445e-002
2.775063e+003, 1.518594e-002
2.776992e+003, 1.499673e-002
2.778920e+003, 1.446887e-002
2.780849e+003, 1.456508e-002
2.782777e+003, 1.460486e-002
2.784706e+003, 1.480308e-002
2.786634e+003, 1.488624e-002
2.788563e+003, 1.438078e-002
2.790491e+003, 1.462999e-002
2.792420e+003, 1.527764e-002
2.794348e+003, 1.570916e-002
2.796277e+003, 1.550434e-002
2.798205e+003, 1.511373e-002
2.800134e+003, 1.486424e-002
2.802062e+003, 1.471378e-002
2.803990e+003, 1.480073e-002
2.805919e+003, 1.480894e-002
2.807847e+003, 1.517109e-002
2.809776e+003, 1.509008e-002
2.811704e+003, 1.549458e-002
2.813633e+003, 1.572919e-002
2.815561e+003, 1.587785e-002
2.817490e+003, 1.583614e-002
2.819418e+003, 1.560597e-002
2.821347e+003, 1.515752e-002
2.823275e+003, 1.550643e-002
2.825204e+003, 1.576685e-002
2.827132e+003, 1.567779e-002
2.829061e+003, 1.567947e-002
2.830989e+003, 1.534295e-002
2.832917e+003, 1.553904e-002
2.834846e+003, 1.600287e-002
2.836774e+003, 1.567586e-002
2.838703e+003, 1.550924e-002
2.840631e+003, 1.580156e-002
2.842560e+003, 1.603516e-002
2.844488e+003, 1.629145e-002
2.846417e+003, 1.655998e-002
2.848345e+003, 1.711528e-002
2.850274e+003, 1.681043e-002
2.852202e+003, 1.666299e-002
2.854131e+003, 1.734164e-002
2.856059e+003, 1.764753e-002
2.857988e+003, 1.755668e-002
2.859916e+003, 1.727503e-002
2.861844e+003, 1.686531e-002
2.863773e+003, 1.635095e-002
2.865701e+003, 1.569214e-002
2.867630e+003, 1.548073e-002
2.869558e+003, 1.558328e-002
2.871487e+003, 1.623912e-002
2.873415e+003, 1.620044e-002
2.875344e+003, 1.636827e-002
2.877272e+003, 1.701818e-002
2.879201e+003, 1.665606e-002
2.881129e+003, 1.566129e-002
2.883058e+003, 1.538065e-002
2.884986e+003, 1.606592e-002
2.886915e+003, 1.638548e-002
2.888843e+003, 1.634134e-002
2.890771e+003, 1.647802e-002
2.892700e+003, 1.613120e-002
2.894628e+003, 1.562046e-002
2.896557e+003, 1.577693e-002
2.898485e+003, 1.684325e-002
2.900414e+003, 1.747785e-002
2.902342e+003, 1.732148e-002
2.904271e+003, 1.675740e-002
2.906199e+003, 1.679654e-002
2.908128e+003, 1.681452e-002
2.910056e+003, 1.707369e-002
2.911985e+003, 1.701352e-002
2.913913e+003, 1.668546e-002
2.915842e+003, 1.668622e-002
2.917770e+003, 1.791431e-002
2.919698e+003, 1.902782e-002
2.921627e+003, 1.849158e-002
2.923555e+003, 1.842938e-002
2.925484e+003, 1.830110e-002
2.927412e+003, 1.794223e-002
2.929341e+003, 1.832848e-002
2.931269e+003, 1.786845e-002
2.933198e+003, 1.742483e-002
2.935126e+003, 1.812643e-002
2.937055e+003, 1.796501e-002
2.938983e+003, 1.732001e-002
2.940912e+003, 1.755226e-002
2.942840e+003, 1.732485e-002
2.944769e+003, 1.739772e-002
2.946697e+003, 1.768400e-002
2.948625e+003, 1.745805e-002
2.950554e+003, 1.704378e-002
2.952482e+003, 1.655060e-002
2.954411e+003, 1.742165e-002
2.956339e+003, 1.795393e-002
2.958268e+003, 1.757138e-002
2.960196e+003, 1.743946e-002
2.962125e+003, 1.840935e-002
2.964053e+003, 1.842024e-002
2.965982e+003, 1.776525e-002
2.967910e+003, 1.771689e-002
2.969839e+003, 1.738914e-002
2.971767e+003, 1.662300e-002
2.973696e+003, 1.644077e-002
2.975624e+003, 1.663089e-002
2.977552e+003, 1.605417e-002
2.979481e+003, 1.585618e-002
2.981409e+003, 1.710469e-002
2.983338e+003, 1.792644e-002
2.985266e+003, 1.670282e-002
2.987195e+003, 1.615226e-002
2.989123e+003, 1.622687e-002
2.991052e+003, 1.650652e-002
2.992980e+003, 1.727991e-002
2.994909e+003, 1.770784e-002
2.996837e+003, 1.683596e-002
2.998766e+003, 1.683280e-002
3.000694e+003, 1.682388e-002
3.002623e+003, 1.685264e-002
3.004551e+003, 1.667206e-002
3.006479e+003, 1.702586e-002
3.008408e+003, 1.699265e-002
3.010336e+003, 1.784820e-002
3.012265e+003, 1.844439e-002
3.014193e+003, 1.793830e-002
3.016122e+003, 1.706559e-002
3.018050e+003, 1.664417e-002
3.019979e+003, 1.628212e-002
3.021907e+003, 1.650766e-002
3.023836e+003, 1.722130e-002
3.025764e+003, 1.731284e-002
3.027693e+003, 1.748805e-002
3.029621e+003, 1.800538e-002
3.031550e+003, 1.822847e-002
3.033478e+003, 1.837602e-002
3.035406e+003, 1.845339e-002
3.037335e+003, 1.782230e-002
3.039263e+003, 1.728447e-002
3.041192e+003, 1.734496e-002
3.043120e+003, 1.735524e-002
3.045049e+003, 1.752205e-002
3.046977e+003, 1.752885e-002
3.048906e+003, 1.752755e-002
3.050834e+003, 1.795490e-002
3.052763e+003, 1.829736e-002
3.054691e+003, 1.809200e-002
3.056620e+003, 1.802754e-002
3.058548e+003, 1.705207e-002
3.060477e+003, 1.710802e-002
3.062405e+003, 1.757524e-002
3.064333e+003, 1.768713e-002
3.066262e+003, 1.798874e-002
3.068190e+003, 1.825450e-002
3.070119e+003, 1.797755e-002
3.072047e+003, 1.784493e-002
3.073976e+003, 1.784126e-002
3.075904e+003, 1.765178e-002
3.077833e+003, 1.818832e-002
3.079761e+003, 1.808604e-002
3.081690e+003, 1.703288e-002
3.083618e+003, 1.685501e-002
3.085547e+003, 1.772493e-002
3.087475e+003, 1.824178e-002
3.089404e+003, 1.866405e-002
3.091332e+003, 1.842199e-002
3.093260e+003, 1.837581e-002
3.095189e+003, 1.870181e-002
3.097117e+003, 1.849204e-002
3.099046e+003, 1.827819e-002
3.100974e+003, 1.758546e-002
3.102903e+003, 1.834971e-002
3.104831e+003, 1.922071e-002
3.106760e+003, 1.925990e-002
3.108688e+003, 1.884615e-002
3.110617e+003, 1.827079e-002
3.112545e+003, 1.856827e-002
3.114474e+003, 1.932929e-002
3.116402e+003, 1.937656e-002
3.118331e+003, 1.931172e-002
3.120259e+003, 1.890519e-002
3.122188e+003, 1.880473e-002
3.124116e+003, 1.908916e-002
3.126044e+003, 1.955399e-002
3.127973e+003, 2.028828e-002
3.129901e+003, 2.001270e-002
3.131830e+003, 2.022219e-002
3.133758e+003, 2.071520e-002
3.135687e+003, 2.083291e-002
3.137615e+003, 2.022757e-002
3.139544e+003, 1.990514e-002
3.141472e+003, 1.999278e-002
3.143401e+003, 2.005272e-002
3.145329e+003, 1.980245e-002
3.147258e+003, 1.966076e-002
3.149186e+003, 1.979497e-002
3.151115e+003, 1.941213e-002
3.153043e+003, 1.854001e-002
3.154971e+003, 1.937418e-002
3.156900e+003, 2.006443e-002
3.158828e+003, 1.982362e-002
3.160757e+003, 1.923371e-002
3.162685e+003, 1.930358e-002
3.164614e+003, 1.957857e-002
3.166542e+003, 1.904283e-002
3.168471e+003, 1.873491e-002
3.170399e+003, 1.876538e-002
3.172328e+003, 1.950902e-002
3.174256e+003, 1.933868e-002
3.176185e+003, 1.867203e-002
3.178113e+003, 1.971924e-002
3.180042e+003, 2.066536e-002
3.181970e+003, 2.012813e-002
3.183898e+003, 2.038420e-002
3.185827e+003, 2.103731e-002
3.187755e+003, 2.080438e-002
3.189684e+003, 2.010122e-002
3.191612e+003, 1.975011e-002
3.193541e+003, 1.964484e-002
3.195469e+003, 2.060023e-002
3.197398e+003, 2.107693e-002
3.199326e+003, 2.028805e-002
3.201255e+003, 1.886350e-002
3.203183e+003, 1.865046e-002
3.205112e+003, 1.954164e-002
3.207040e+003, 2.041449e-002
3.208969e+003, 2.001240e-002
3.210897e+003, 1.982520e-002
3.212825e+003, 1.957518e-002
3.214754e+003, 1.992659e-002
3.216682e+003, 2.076078e-002
3.218611e+003, 2.034985e-002
3.220539e+003, 1.885902e-002
3.222468e+003, 1.853151e-002
3.224396e+003, 1.956496e-002
3.226325e+003, 1.965526e-002
3.228253e+003, 1.968708e-002
3.230182e+003, 2.082618e-002
3.232110e+003, 2.084546e-002
3.234039e+003, 1.986179e-002
3.235967e+003, 2.073029e-002
3.237896e+003, 2.103458e-002
3.239824e+003, 2.086721e-002
3.241752e+003, 2.042391e-002
3.243681e+003, 2.012879e-002
3.245609e+003, 2.054619e-002
3.247538e+003, 2.030348e-002
3.249466e+003, 2.002512e-002
3.251395e+003, 2.058238e-002
3.253323e+003, 2.084520e-002
3.255252e+003, 2.084201e-002
3.257180e+003, 2.067770e-002
3.259109e+003, 2.058311e-002
3.261037e+003, 2.065383e-002
3.262966e+003, 2.045828e-002
3.264894e+003, 2.067793e-002
3.266823e+003, 2.140282e-002
3.268751e+003, 2.096076e-002
3.270679e+003, 1.984415e-002
3.272608e+003, 1.995757e-002
3.274536e+003, 2.045840e-002
3.276465e+003, 2.073568e-002
3.278393e+003, 2.102049e-002
3.280322e+003, 2.137584e-002
3.282250e+003, 2.205726e-002
3.284179e+003, 2.275889e-002
3.286107e+003, 2.306226e-002
3.288036e+003, 2.331951e-002
3.289964e+003, 2.281372e-002
3.291893e+003, 2.288716e-002
3.293821e+003, 2.218589e-002
3.295750e+003, 2.228051e-002
3.297678e+003, 2.219988e-002
3.299606e+003, 2.114231e-002
3.301535e+003, 2.105975e-002
3.303463e+003, 2.075040e-002
3.305392e+003, 1.997080e-002
3.307320e+003, 2.029985e-002
3.309249e+003, 2.224036e-002
3.311177e+003, 2.263355e-002
3.313106e+003, 2.160096e-002
3.315034e+003, 2.150984e-002
3.316963e+003, 2.136584e-002
3.318891e+003, 2.140728e-002
3.320820e+003, 2.158703e-002
3.322748e+003, 2.092962e-002
3.324677e+003, 2.164766e-002
3.326605e+003, 2.203006e-002
3.328533e+003, 2.113616e-002
3.330462e+003, 2.161521e-002
3.332390e+003, 2.286089e-002
3.334319e+003, 2.302991e-002
3.336247e+003, 2.279852e-002
3.338176e+003, 2.315152e-002
3.340104e+003, 2.312149e-002
3.342033e+003, 2.327155e-002
3.343961e+003, 2.302446e-002
3.345890e+003, 2.283423e-002
3.347818e+003, 2.261426e-002
3.349747e+003, 2.260892e-002
3.351675e+003, 2.341695e-002
3.353604e+003, 2.192687e-002
3.355532e+003, 2.097227e-002
3.357460e+003, 2.268632e-002
3.359389e+003, 2.284969e-002
3.361317e+003, 2.333901e-002
3.363246e+003, 2.481769e-002
3.365174e+003, 2.475965e-002
3.367103e+003, 2.379334e-002
3.369031e+003, 2.430512e-002
3.370960e+003, 2.440374e-002
3.372888e+003, 2.332998e-002
3.374817e+003, 2.323843e-002
3.376745e+003, 2.276779e-002
3.378674e+003, 2.347456e-002
3.380602e+003, 2.513710e-002
3.382531e+003, 2.578150e-002
3.384459e+003, 2.545857e-002
3.386387e+003, 2.480157e-002
3.388316e+003, 2.387192e-002
3.390244e+003, 2.397062e-002
3.392173e+003, 2.387288e-002
3.394101e+003, 2.339104e-002
3.396030e+003, 2.432035e-002
3.397958e+003, 2.549900e-002
3.399887e+003, 2.515944e-002
3.401815e+003, 2.377218e-002
3.403744e+003, 2.309661e-002
3.405672e+003, 2.282422e-002
3.407601e+003, 2.312457e-002
3.409529e+003, 2.381496e-002
3.411458e+003, 2.427327e-002
3.413386e+003, 2.340164e-002
3.415314e+003, 2.266699e-002
3.417243e+003, 2.126528e-002
3.419171e+003, 2.149144e-002
3.421100e+003, 2.225429e-002
3.423028e+003, 2.212576e-002
3.424957e+003, 2.253182e-002
3.426885e+003, 2.202625e-002
3.428814e+003, 2.124044e-002
3.430742e+003, 2.230171e-002
3.432671e+003, 2.292440e-002
3.434599e+003, 2.304020e-002
3.436528e+003, 2.204545e-002
3.438456e+003, 2.137771e-002
3.440385e+003, 2.090304e-002
3.442313e+003, 2.083413e-002
3.444241e+003, 2.206340e-002
3.446170e+003, 2.268521e-002
3.448098e+003, 2.200855e-002
3.450027e+003, 2.092778e-002
3.451955e+003, 2.061932e-002
3.453884e+003, 1.996442e-002
3.455812e+003, 1.959250e-002
3.457741e+003, 2.103313e-002
3.459669e+003, 2.044933e-002
3.461598e+003, 2.089504e-002
3.463526e+003, 2.222076e-002
3.465455e+003, 2.426743e-002
3.467383e+003, 2.495920e-002
3.469312e+003, 2.331597e-002
3.471240e+003, 2.276520e-002
3.473168e+003, 2.253828e-002
3.475097e+003, 2.261859e-002
3.477025e+003, 2.234813e-002
3.478954e+003, 2.274075e-002
3.480882e+003, 2.304547e-002
3.482811e+003, 2.292518e-002
3.484739e+003, 2.401382e-002
3.486668e+003, 2.395236e-002
3.488596e+003, 2.148347e-002
3.490525e+003, 2.137030e-002
3.492453e+003, 2.218964e-002
3.494382e+003, 2.278366e-002
3.496310e+003, 2.343315e-002
3.498239e+003, 2.340811e-002
3.500167e+003, 2.348530e-002
3.502095e+003, 2.293574e-002
3.504024e+003, 2.215511e-002
3.505952e+003, 2.202852e-002
3.507881e+003, 2.221045e-002
3.509809e+003, 2.325174e-002
3.511738e+003, 2.389796e-002
3.513666e+003, 2.379862e-002
3.515595e+003, 2.370075e-002
3.517523e+003, 2.309453e-002
3.519452e+003, 2.271814e-002
3.521380e+003, 2.189216e-002
3.523309e+003, 2.118856e-002
3.525237e+003, 2.328425e-002
3.527166e+003, 2.627287e-002
3.529094e+003, 2.626516e-002
3.531022e+003, 2.581293e-002
3.532951e+003, 2.662142e-002
3.534879e+003, 2.754351e-002
3.536808e+003, 2.872840e-002
3.538736e+003, 2.848627e-002
3.540665e+003, 2.888693e-002
3.542593e+003, 2.915489e-002
3.544522e+003, 2.979717e-002
3.546450e+003, 3.378640e-002
3.548379e+003, 3.704892e-002
3.550307e+003, 4.100813e-002
3.552236e+003, 4.611470e-002
3.554164e+003, 5.149854e-002
3.556093e+003, 5.577015e-002
3.558021e+003, 5.620445e-002
3.559949e+003, 5.362213e-002
3.561878e+003, 5.134683e-002
3.563806e+003, 5.130694e-002
3.565735e+003, 5.035795e-002
3.567663e+003, 4.876886e-002
3.569592e+003, 4.471623e-002
3.571520e+003, 3.983941e-002
3.573449e+003, 3.626617e-002
3.575377e+003, 3.298729e-002
3.577306e+003, 3.022125e-002
3.579234e+003, 2.586342e-002
3.581163e+003, 2.274780e-002
3.583091e+003, 2.069601e-002
3.585020e+003, 2.060654e-002
3.586948e+003, 2.093219e-002
3.588876e+003, 2.116438e-002
3.590805e+003, 2.176993e-002
3.592733e+003, 1.993803e-002
3.594662e+003, 1.850482e-002
3.596590e+003, 1.960920e-002
3.598519e+003, 1.934405e-002
3.600447e+003, 1.774706e-002
3.602376e+003, 1.849848e-002
3.604304e+003, 1.903130e-002
3.606233e+003, 1.833779e-002
3.608161e+003, 2.073974e-002
3.610090e+003, 1.986023e-002
3.612018e+003, 1.935873e-002
3.613947e+003, 2.100189e-002
3.615875e+003, 2.010158e-002
3.617803e+003, 1.970095e-002
3.619732e+003, 2.006152e-002
3.621660e+003, 1.956993e-002
3.623589e+003, 1.947936e-002
3.625517e+003, 2.031613e-002
3.627446e+003, 1.978974e-002
3.629374e+003, 1.925953e-002
3.631303e+003, 1.822053e-002
3.633231e+003, 1.891185e-002
3.635160e+003, 1.994930e-002
3.637088e+003, 1.998600e-002
3.639017e+003, 2.121918e-002
3.640945e+003, 2.134570e-002
3.642874e+003, 1.870368e-002
3.644802e+003, 1.856534e-002
3.646730e+003, 2.045067e-002
3.648659e+003, 2.005262e-002
3.650587e+003, 1.911551e-002
3.652516e+003, 2.081298e-002
3.654444e+003, 2.235275e-002
3.656373e+003, 2.193068e-002
3.658301e+003, 2.130995e-002
3.660230e+003, 1.977403e-002
3.662158e+003, 2.020968e-002
3.664087e+003, 2.382375e-002
3.666015e+003, 2.696242e-002
3.667944e+003, 2.507293e-002
3.669872e+003, 2.433275e-002
3.671801e+003, 2.466368e-002
3.673729e+003, 2.568495e-002
3.675657e+003, 2.692352e-002
3.677586e+003, 2.764254e-002
3.679514e+003, 2.816833e-002
3.681443e+003, 2.768718e-002
3.683371e+003, 2.825363e-002
3.685300e+003, 3.035518e-002
3.687228e+003, 3.026978e-002
3.689157e+003, 2.858716e-002
3.691085e+003, 2.846908e-002
3.693014e+003, 2.727011e-002
3.694942e+003, 2.471512e-002
3.696871e+003, 2.488840e-002
3.698799e+003, 2.433809e-002
3.700728e+003, 2.323199e-002
3.702656e+003, 2.330421e-002
3.704584e+003, 2.164798e-002
3.706513e+003, 2.021130e-002
3.708441e+003, 2.124316e-002
3.710370e+003, 2.179010e-002
3.712298e+003, 2.085964e-002
3.714227e+003, 2.007313e-002
3.716155e+003, 1.868413e-002
3.718084e+003, 1.732529e-002
3.720012e+003, 1.745019e-002
3.721941e+003, 1.787812e-002
3.723869e+003, 1.750928e-002
3.725798e+003, 1.791856e-002
3.727726e+003, 1.749403e-002
3.729655e+003, 1.655098e-002
3.731583e+003, 1.955434e-002
3.733511e+003, 2.104405e-002
3.735440e+003, 1.942336e-002
3.737368e+003, 1.690293e-002
3.739297e+003, 1.698102e-002
3.741225e+003, 1.809015e-002
3.743154e+003, 1.789525e-002
3.745082e+003, 1.833383e-002
3.747011e+003, 2.013857e-002
3.748939e+003, 1.976637e-002
3.750868e+003, 1.915895e-002
3.752796e+003, 2.084299e-002
3.754725e+003, 2.070643e-002
3.756653e+003, 1.970416e-002
3.758582e+003, 1.965093e-002
3.760510e+003, 2.038148e-002
3.762438e+003, 2.057319e-002
3.764367e+003, 1.999962e-002
3.766295e+003, 2.050867e-002
3.768224e+003, 2.067927e-002
3.770152e+003, 2.078632e-002
3.772081e+003, 1.972562e-002
3.774009e+003, 1.881217e-002
3.775938e+003, 1.910552e-002
3.777866e+003, 2.152146e-002
3.779795e+003, 2.274591e-002
3.781723e+003, 2.058089e-002
3.783652e+003, 1.895655e-002
3.785580e+003, 2.079007e-002
3.787509e+003, 2.172525e-002
3.789437e+003, 2.178871e-002
3.791365e+003, 2.186596e-002
3.793294e+003, 2.108387e-002
3.795222e+003, 1.916656e-002
3.797151e+003, 1.870146e-002
3.799079e+003, 2.064322e-002
3.801008e+003, 2.056776e-002
3.802936e+003, 1.971307e-002
3.804865e+003, 2.071496e-002
3.806793e+003, 2.102810e-002
3.808722e+003, 2.158053e-002
3.810650e+003, 2.254378e-002
3.812579e+003, 2.083803e-002
3.814507e+003, 1.868365e-002
3.816436e+003, 2.007119e-002
3.818364e+003, 2.123318e-002
3.820292e+003, 2.164263e-002
3.822221e+003, 2.051699e-002
3.824149e+003, 1.883217e-002
3.826078e+003, 1.935585e-002
3.828006e+003, 2.062498e-002
3.829935e+003, 2.030894e-002
3.831863e+003, 1.994498e-002
3.833792e+003, 1.994855e-002
3.835720e+003, 2.058912e-002
3.837649e+003, 2.051620e-002
3.839577e+003, 2.103235e-002
3.841506e+003, 2.066881e-002
3.843434e+003, 2.015320e-002
3.845363e+003, 2.020950e-002
3.847291e+003, 2.052693e-002
3.849219e+003, 2.048325e-002
3.851148e+003, 2.053974e-002
3.853076e+003, 1.990513e-002
3.855005e+003, 2.072178e-002
3.856933e+003, 2.240780e-002
3.858862e+003, 2.198863e-002
3.860790e+003, 2.200393e-002
3.862719e+003, 2.222370e-002
3.864647e+003, 2.111206e-002
3.866576e+003, 2.082928e-002
3.868504e+003, 2.111940e-002
3.870433e+003, 2.187614e-002
3.872361e+003, 2.159159e-002
3.874290e+003, 2.025172e-002
3.876218e+003, 2.113001e-002
3.878146e+003, 2.199464e-002
3.880075e+003, 2.070991e-002
3.882003e+003, 2.175560e-002
3.883932e+003, 2.319601e-002
3.885860e+003, 2.253521e-002
3.887789e+003, 2.316365e-002
3.889717e+003, 2.318502e-002
3.891646e+003, 2.185786e-002
3.893574e+003, 2.093554e-002
3.895503e+003, 2.008894e-002
3.897431e+003, 2.074083e-002
3.899360e+003, 2.167726e-002
3.901288e+003, 2.256605e-002
3.903217e+003, 2.383731e-002
3.905145e+003, 2.406197e-002
3.907073e+003, 2.329599e-002
3.909002e+003, 2.099095e-002
3.910930e+003, 2.020141e-002
3.912859e+003, 2.229997e-002
3.914787e+003, 2.271229e-002
3.916716e+003, 2.228717e-002
3.918644e+003, 2.147658e-002
3.920573e+003, 2.013198e-002
3.922501e+003, 1.862306e-002
3.924430e+003, 1.958872e-002
3.926358e+003, 2.246656e-002
3.928287e+003, 2.252338e-002
3.930215e+003, 2.234647e-002
3.932144e+003, 2.464577e-002
3.934072e+003, 2.300590e-002
3.936000e+003, 2.102227e-002
3.937929e+003, 2.036898e-002
3.939857e+003, 1.934502e-002
3.941786e+003, 2.166774e-002
3.943714e+003, 2.394273e-002
3.945643e+003, 2.436326e-002
3.947571e+003, 2.363845e-002
3.949500e+003, 2.061630e-002
3.951428e+003, 2.013971e-002
3.953357e+003, 2.144929e-002
3.955285e+003, 2.185057e-002
3.957214e+003, 2.266438e-002
3.959142e+003, 2.333860e-002
3.961071e+003, 2.306693e-002
3.962999e+003, 2.251851e-002
3.964927e+003, 2.081165e-002
3.966856e+003, 2.075006e-002
3.968784e+003, 1.992632e-002
3.970713e+003, 2.081908e-002
3.972641e+003, 2.154877e-002
3.974570e+003, 2.170973e-002
3.976498e+003, 2.226601e-002
3.978427e+003, 2.127366e-002
3.980355e+003, 2.092761e-002
3.982284e+003, 2.293214e-002
3.984212e+003, 2.406603e-002
3.986141e+003, 2.205989e-002
3.988069e+003, 2.144098e-002
3.989998e+003, 2.145223e-002
3.991926e+003, 2.048388e-002
3.993854e+003, 2.279938e-002
3.995783e+003, 2.383013e-002
3.997711e+003, 2.145073e-002
3.999640e+003, 2.146051e-002
##END=



