##NAMES=Hydrotalcite
##RRUFFID=R050457
##IDEAL CHEMISTRY=Mg_6_Al_2_CO_3_(OH)_16_(H_2_O)_4_
##LOCALITY=Snarum, Norway
##OWNER=RRUFF
##SOURCE=University of Arizona Mineral Museum
##DESCRIPTION=Pearly-white foliated mass
##STATUS=The identification of this mineral has been confirmed by X-ray diffraction and chemical analysis
##URL=rruff.info/R050457
##MEASURED CHEMISTRY=Mg_6.00_(Al_1.60_Fe^3+^_0.40_)_Σ=2_(CO_3_)(OH)_16_·4H_2_O
3.741225e+002, 3.884409e-001
3.760510e+002, 3.793379e-001
3.779795e+002, 3.779387e-001
3.799079e+002, 3.573647e-001
3.818364e+002, 3.666314e-001
3.837649e+002, 3.952776e-001
3.856933e+002, 4.122229e-001
3.876218e+002, 3.906302e-001
3.895503e+002, 3.780054e-001
3.914787e+002, 3.679903e-001
3.934072e+002, 3.780056e-001
3.953357e+002, 3.600889e-001
3.972641e+002, 3.412941e-001
3.991926e+002, 3.283352e-001
4.011211e+002, 3.301798e-001
4.030495e+002, 3.230650e-001
4.049780e+002, 3.143011e-001
4.069065e+002, 3.092920e-001
4.088349e+002, 3.041792e-001
4.107634e+002, 2.993094e-001
4.126919e+002, 2.928849e-001
4.146203e+002, 2.873555e-001
4.165488e+002, 2.795896e-001
4.184773e+002, 2.684541e-001
4.204057e+002, 2.621033e-001
4.223342e+002, 2.583479e-001
4.242627e+002, 2.515795e-001
4.261911e+002, 2.427365e-001
4.281196e+002, 2.373332e-001
4.300481e+002, 2.328323e-001
4.319765e+002, 2.268568e-001
4.339050e+002, 2.221631e-001
4.358335e+002, 2.181837e-001
4.377619e+002, 2.133587e-001
4.396904e+002, 2.091551e-001
4.416189e+002, 2.060351e-001
4.435473e+002, 2.043304e-001
4.454758e+002, 2.012726e-001
4.474043e+002, 1.968671e-001
4.493327e+002, 1.917839e-001
4.512612e+002, 1.872535e-001
4.531897e+002, 1.831120e-001
4.551181e+002, 1.785735e-001
4.570466e+002, 1.729152e-001
4.589751e+002, 1.682294e-001
4.609035e+002, 1.635722e-001
4.628320e+002, 1.590085e-001
4.647605e+002, 1.553662e-001
4.666889e+002, 1.529539e-001
4.686174e+002, 1.507383e-001
4.705459e+002, 1.488812e-001
4.724743e+002, 1.461228e-001
4.744028e+002, 1.429486e-001
4.763313e+002, 1.401529e-001
4.782597e+002, 1.381184e-001
4.801882e+002, 1.368739e-001
4.821167e+002, 1.362632e-001
4.840451e+002, 1.355591e-001
4.859736e+002, 1.346948e-001
4.879021e+002, 1.339926e-001
4.898305e+002, 1.344838e-001
4.917590e+002, 1.350602e-001
4.936875e+002, 1.357127e-001
4.956159e+002, 1.358714e-001
4.975444e+002, 1.361364e-001
4.994729e+002, 1.369573e-001
5.014013e+002, 1.388740e-001
5.033298e+002, 1.414447e-001
5.052583e+002, 1.431077e-001
5.071867e+002, 1.443518e-001
5.091152e+002, 1.460127e-001
5.110437e+002, 1.482696e-001
5.129721e+002, 1.504481e-001
5.149006e+002, 1.529644e-001
5.168290e+002, 1.555262e-001
5.187575e+002, 1.580575e-001
5.206860e+002, 1.600975e-001
5.226144e+002, 1.621030e-001
5.245429e+002, 1.645097e-001
5.264714e+002, 1.669526e-001
5.283998e+002, 1.692956e-001
5.303283e+002, 1.722519e-001
5.322568e+002, 1.752246e-001
5.341852e+002, 1.785409e-001
5.361137e+002, 1.829983e-001
5.380422e+002, 1.880524e-001
5.399706e+002, 1.931243e-001
5.418991e+002, 1.977108e-001
5.438276e+002, 2.017382e-001
5.457560e+002, 2.058700e-001
5.476845e+002, 2.101056e-001
5.496130e+002, 2.139009e-001
5.515414e+002, 2.171189e-001
5.534699e+002, 2.196101e-001
5.553984e+002, 2.203203e-001
5.573268e+002, 2.204541e-001
5.592553e+002, 2.206358e-001
5.611838e+002, 2.205342e-001
5.631122e+002, 2.203105e-001
5.650407e+002, 2.202801e-001
5.669692e+002, 2.213424e-001
5.688976e+002, 2.226761e-001
5.708261e+002, 2.244225e-001
5.727546e+002, 2.259476e-001
5.746830e+002, 2.277396e-001
5.766115e+002, 2.300701e-001
5.785400e+002, 2.324488e-001
5.804684e+002, 2.345382e-001
5.823969e+002, 2.362973e-001
5.843254e+002, 2.382426e-001
5.862538e+002, 2.411871e-001
5.881823e+002, 2.436805e-001
5.901108e+002, 2.459518e-001
5.920392e+002, 2.482115e-001
5.939677e+002, 2.502017e-001
5.958962e+002, 2.519086e-001
5.978246e+002, 2.536161e-001
5.997531e+002, 2.556453e-001
6.016816e+002, 2.575964e-001
6.036100e+002, 2.589999e-001
6.055385e+002, 2.597476e-001
6.074670e+002, 2.601342e-001
6.093954e+002, 2.602305e-001
6.113239e+002, 2.600974e-001
6.132524e+002, 2.593285e-001
6.151808e+002, 2.581875e-001
6.171093e+002, 2.572376e-001
6.190378e+002, 2.557644e-001
6.209662e+002, 2.540247e-001
6.228947e+002, 2.527794e-001
6.248232e+002, 2.511406e-001
6.267516e+002, 2.485946e-001
6.286801e+002, 2.457589e-001
6.306086e+002, 2.430376e-001
6.325370e+002, 2.402250e-001
6.344655e+002, 2.374126e-001
6.363940e+002, 2.342421e-001
6.383224e+002, 2.308254e-001
6.402509e+002, 2.276039e-001
6.421794e+002, 2.241930e-001
6.441078e+002, 2.205880e-001
6.460363e+002, 2.169666e-001
6.479648e+002, 2.136185e-001
6.498932e+002, 2.106319e-001
6.518217e+002, 2.077843e-001
6.537502e+002, 2.046508e-001
6.556786e+002, 2.015371e-001
6.576071e+002, 1.986906e-001
6.595356e+002, 1.961183e-001
6.614641e+002, 1.936449e-001
6.633925e+002, 1.909200e-001
6.653210e+002, 1.885055e-001
6.672495e+002, 1.864059e-001
6.691779e+002, 1.840825e-001
6.711064e+002, 1.815530e-001
6.730349e+002, 1.797298e-001
6.749633e+002, 1.781761e-001
6.768918e+002, 1.766143e-001
6.788203e+002, 1.751874e-001
6.807487e+002, 1.740704e-001
6.826772e+002, 1.727991e-001
6.846057e+002, 1.715213e-001
6.865341e+002, 1.704460e-001
6.884626e+002, 1.690942e-001
6.903911e+002, 1.675752e-001
6.923195e+002, 1.661335e-001
6.942480e+002, 1.646969e-001
6.961765e+002, 1.635528e-001
6.981049e+002, 1.623558e-001
7.000334e+002, 1.611692e-001
7.019619e+002, 1.600674e-001
7.038903e+002, 1.592323e-001
7.058188e+002, 1.584801e-001
7.077473e+002, 1.576505e-001
7.096757e+002, 1.567014e-001
7.116042e+002, 1.560512e-001
7.135327e+002, 1.551511e-001
7.154611e+002, 1.540865e-001
7.173896e+002, 1.530855e-001
7.193181e+002, 1.521454e-001
7.212465e+002, 1.512300e-001
7.231750e+002, 1.506221e-001
7.251035e+002, 1.499055e-001
7.270319e+002, 1.489184e-001
7.289604e+002, 1.480415e-001
7.308889e+002, 1.473939e-001
7.328173e+002, 1.467815e-001
7.347458e+002, 1.461911e-001
7.366743e+002, 1.455382e-001
7.386027e+002, 1.448570e-001
7.405312e+002, 1.442571e-001
7.424597e+002, 1.438266e-001
7.443881e+002, 1.433571e-001
7.463166e+002, 1.430313e-001
7.482451e+002, 1.427159e-001
7.501735e+002, 1.422686e-001
7.521020e+002, 1.419507e-001
7.540305e+002, 1.417399e-001
7.559589e+002, 1.413112e-001
7.578874e+002, 1.407522e-001
7.598159e+002, 1.402572e-001
7.617443e+002, 1.398216e-001
7.636728e+002, 1.391652e-001
7.656013e+002, 1.385205e-001
7.675297e+002, 1.381082e-001
7.694582e+002, 1.374931e-001
7.713867e+002, 1.365287e-001
7.733151e+002, 1.354059e-001
7.752436e+002, 1.344502e-001
7.771721e+002, 1.336983e-001
7.791005e+002, 1.327354e-001
7.810290e+002, 1.318237e-001
7.829575e+002, 1.308099e-001
7.848859e+002, 1.294143e-001
7.868144e+002, 1.280522e-001
7.887429e+002, 1.269884e-001
7.906713e+002, 1.258950e-001
7.925998e+002, 1.246650e-001
7.945283e+002, 1.234229e-001
7.964567e+002, 1.222794e-001
7.983852e+002, 1.209838e-001
8.003137e+002, 1.196993e-001
8.022421e+002, 1.184609e-001
8.041706e+002, 1.173474e-001
8.060991e+002, 1.162179e-001
8.080275e+002, 1.152015e-001
8.099560e+002, 1.143443e-001
8.118845e+002, 1.131332e-001
8.138129e+002, 1.119956e-001
8.157414e+002, 1.110678e-001
8.176699e+002, 1.099449e-001
8.195983e+002, 1.088045e-001
8.215268e+002, 1.079174e-001
8.234553e+002, 1.071293e-001
8.253837e+002, 1.062328e-001
8.273122e+002, 1.053111e-001
8.292407e+002, 1.045208e-001
8.311691e+002, 1.037698e-001
8.330976e+002, 1.028673e-001
8.350261e+002, 1.021651e-001
8.369545e+002, 1.015424e-001
8.388830e+002, 1.009758e-001
8.408115e+002, 1.004807e-001
8.427399e+002, 9.990406e-002
8.446684e+002, 9.934665e-002
8.465969e+002, 9.864638e-002
8.485253e+002, 9.778867e-002
8.504538e+002, 9.717864e-002
8.523823e+002, 9.660993e-002
8.543107e+002, 9.581128e-002
8.562392e+002, 9.500176e-002
8.581677e+002, 9.434942e-002
8.600961e+002, 9.355862e-002
8.620246e+002, 9.263815e-002
8.639531e+002, 9.167600e-002
8.658815e+002, 9.071432e-002
8.678100e+002, 8.972993e-002
8.697385e+002, 8.894908e-002
8.716669e+002, 8.790537e-002
8.735954e+002, 8.684482e-002
8.755239e+002, 8.605852e-002
8.774523e+002, 8.537872e-002
8.793808e+002, 8.438338e-002
8.813093e+002, 8.343749e-002
8.832377e+002, 8.260904e-002
8.851662e+002, 8.191169e-002
8.870947e+002, 8.123583e-002
8.890231e+002, 8.052465e-002
8.909516e+002, 7.985979e-002
8.928801e+002, 7.920314e-002
8.948085e+002, 7.868312e-002
8.967370e+002, 7.824799e-002
8.986655e+002, 7.757860e-002
9.005939e+002, 7.705335e-002
9.025224e+002, 7.646791e-002
9.044509e+002, 7.592054e-002
9.063793e+002, 7.552794e-002
9.083078e+002, 7.521982e-002
9.102363e+002, 7.472677e-002
9.121647e+002, 7.417525e-002
9.140932e+002, 7.373155e-002
9.160217e+002, 7.332283e-002
9.179501e+002, 7.282081e-002
9.198786e+002, 7.222126e-002
9.218071e+002, 7.159004e-002
9.237355e+002, 7.114533e-002
9.256640e+002, 7.083189e-002
9.275925e+002, 7.049219e-002
9.295209e+002, 7.013401e-002
9.314494e+002, 6.986563e-002
9.333779e+002, 6.961102e-002
9.353063e+002, 6.900281e-002
9.372348e+002, 6.862820e-002
9.391633e+002, 6.873389e-002
9.410917e+002, 6.860984e-002
9.430202e+002, 6.845164e-002
9.449487e+002, 6.832409e-002
9.468771e+002, 6.825621e-002
9.488056e+002, 6.819227e-002
9.507341e+002, 6.800520e-002
9.526625e+002, 6.759949e-002
9.545910e+002, 6.729602e-002
9.565195e+002, 6.695346e-002
9.584479e+002, 6.635976e-002
9.603764e+002, 6.574436e-002
9.623049e+002, 6.505910e-002
9.642333e+002, 6.421802e-002
9.661618e+002, 6.312641e-002
9.680903e+002, 6.194645e-002
9.700187e+002, 6.088776e-002
9.719472e+002, 5.984579e-002
9.738757e+002, 5.887609e-002
9.758041e+002, 5.789402e-002
9.777326e+002, 5.720634e-002
9.796611e+002, 5.656601e-002
9.815895e+002, 5.576392e-002
9.835180e+002, 5.536595e-002
9.854465e+002, 5.502148e-002
9.873749e+002, 5.458630e-002
9.893034e+002, 5.438098e-002
9.912319e+002, 5.425048e-002
9.931603e+002, 5.408717e-002
9.950888e+002, 5.386182e-002
9.970173e+002, 5.354235e-002
9.989457e+002, 5.320044e-002
1.000874e+003, 5.289401e-002
1.002803e+003, 5.239358e-002
1.004731e+003, 5.188968e-002
1.006660e+003, 5.092160e-002
1.008588e+003, 4.978010e-002
1.010517e+003, 4.882501e-002
1.012445e+003, 4.788402e-002
1.014373e+003, 4.665316e-002
1.016302e+003, 4.534589e-002
1.018230e+003, 4.405875e-002
1.020159e+003, 4.289335e-002
1.022087e+003, 4.166759e-002
1.024016e+003, 4.060937e-002
1.025944e+003, 3.994080e-002
1.027873e+003, 3.961354e-002
1.029801e+003, 3.953703e-002
1.031730e+003, 3.958803e-002
1.033658e+003, 3.973854e-002
1.035587e+003, 4.009276e-002
1.037515e+003, 4.057141e-002
1.039443e+003, 4.111529e-002
1.041372e+003, 4.167506e-002
1.043300e+003, 4.229118e-002
1.045229e+003, 4.278811e-002
1.047157e+003, 4.310185e-002
1.049086e+003, 4.338343e-002
1.051014e+003, 4.390939e-002
1.052943e+003, 4.436392e-002
1.054871e+003, 4.491796e-002
1.056800e+003, 4.551774e-002
1.058728e+003, 4.594522e-002
1.060657e+003, 4.631266e-002
1.062585e+003, 4.660114e-002
1.064514e+003, 4.697947e-002
1.066442e+003, 4.743690e-002
1.068370e+003, 4.780952e-002
1.070299e+003, 4.849369e-002
1.072227e+003, 4.918483e-002
1.074156e+003, 4.990968e-002
1.076084e+003, 5.072517e-002
1.078013e+003, 5.187007e-002
1.079941e+003, 5.296793e-002
1.081870e+003, 5.406550e-002
1.083798e+003, 5.518738e-002
1.085727e+003, 5.629366e-002
1.087655e+003, 5.745303e-002
1.089584e+003, 5.866724e-002
1.091512e+003, 6.002505e-002
1.093441e+003, 6.156819e-002
1.095369e+003, 6.300379e-002
1.097297e+003, 6.445173e-002
1.099226e+003, 6.601904e-002
1.101154e+003, 6.762494e-002
1.103083e+003, 6.922595e-002
1.105011e+003, 7.092639e-002
1.106940e+003, 7.210181e-002
1.108868e+003, 7.285553e-002
1.110797e+003, 7.307461e-002
1.112725e+003, 7.278633e-002
1.114654e+003, 7.216056e-002
1.116582e+003, 7.104481e-002
1.118511e+003, 6.981712e-002
1.120439e+003, 6.851240e-002
1.122368e+003, 6.708809e-002
1.124296e+003, 6.572587e-002
1.126224e+003, 6.448503e-002
1.128153e+003, 6.337721e-002
1.130081e+003, 6.225082e-002
1.132010e+003, 6.093792e-002
1.133938e+003, 5.949898e-002
1.135867e+003, 5.785569e-002
1.137795e+003, 5.606182e-002
1.139724e+003, 5.428278e-002
1.141652e+003, 5.244680e-002
1.143581e+003, 5.053846e-002
1.145509e+003, 4.871640e-002
1.147438e+003, 4.709453e-002
1.149366e+003, 4.564827e-002
1.151295e+003, 4.430691e-002
1.153223e+003, 4.309156e-002
1.155151e+003, 4.212303e-002
1.157080e+003, 4.116400e-002
1.159008e+003, 4.013603e-002
1.160937e+003, 3.925110e-002
1.162865e+003, 3.846582e-002
1.164794e+003, 3.756279e-002
1.166722e+003, 3.656796e-002
1.168651e+003, 3.575775e-002
1.170579e+003, 3.520361e-002
1.172508e+003, 3.474321e-002
1.174436e+003, 3.438152e-002
1.176365e+003, 3.413401e-002
1.178293e+003, 3.388505e-002
1.180222e+003, 3.359963e-002
1.182150e+003, 3.337342e-002
1.184078e+003, 3.329300e-002
1.186007e+003, 3.325296e-002
1.187935e+003, 3.310917e-002
1.189864e+003, 3.296221e-002
1.191792e+003, 3.280215e-002
1.193721e+003, 3.260592e-002
1.195649e+003, 3.241833e-002
1.197578e+003, 3.225224e-002
1.199506e+003, 3.202397e-002
1.201435e+003, 3.188215e-002
1.203363e+003, 3.171600e-002
1.205292e+003, 3.162909e-002
1.207220e+003, 3.179905e-002
1.209149e+003, 3.212092e-002
1.211077e+003, 3.225878e-002
1.213005e+003, 3.242132e-002
1.214934e+003, 3.263534e-002
1.216862e+003, 3.270239e-002
1.218791e+003, 3.278126e-002
1.220719e+003, 3.298641e-002
1.222648e+003, 3.309269e-002
1.224576e+003, 3.309690e-002
1.226505e+003, 3.313097e-002
1.228433e+003, 3.316675e-002
1.230362e+003, 3.313703e-002
1.232290e+003, 3.322145e-002
1.234219e+003, 3.332886e-002
1.236147e+003, 3.345280e-002
1.238076e+003, 3.357824e-002
1.240004e+003, 3.379048e-002
1.241932e+003, 3.387750e-002
1.243861e+003, 3.391073e-002
1.245789e+003, 3.412466e-002
1.247718e+003, 3.435776e-002
1.249646e+003, 3.460278e-002
1.251575e+003, 3.491174e-002
1.253503e+003, 3.507842e-002
1.255432e+003, 3.520566e-002
1.257360e+003, 3.539230e-002
1.259289e+003, 3.559947e-002
1.261217e+003, 3.581361e-002
1.263146e+003, 3.619873e-002
1.265074e+003, 3.654697e-002
1.267003e+003, 3.687638e-002
1.268931e+003, 3.726074e-002
1.270859e+003, 3.779436e-002
1.272788e+003, 3.833169e-002
1.274716e+003, 3.886560e-002
1.276645e+003, 3.940757e-002
1.278573e+003, 3.997446e-002
1.280502e+003, 4.046125e-002
1.282430e+003, 4.100545e-002
1.284359e+003, 4.163686e-002
1.286287e+003, 4.236195e-002
1.288216e+003, 4.299730e-002
1.290144e+003, 4.367479e-002
1.292073e+003, 4.423062e-002
1.294001e+003, 4.472947e-002
1.295930e+003, 4.532591e-002
1.297858e+003, 4.611218e-002
1.299786e+003, 4.683165e-002
1.301715e+003, 4.745951e-002
1.303643e+003, 4.808116e-002
1.305572e+003, 4.885627e-002
1.307500e+003, 4.997063e-002
1.309429e+003, 5.123500e-002
1.311357e+003, 5.228169e-002
1.313286e+003, 5.346206e-002
1.315214e+003, 5.475897e-002
1.317143e+003, 5.607916e-002
1.319071e+003, 5.764041e-002
1.321000e+003, 5.930145e-002
1.322928e+003, 6.117893e-002
1.324857e+003, 6.354506e-002
1.326785e+003, 6.598347e-002
1.328714e+003, 6.883077e-002
1.330642e+003, 7.212536e-002
1.332570e+003, 7.583201e-002
1.334499e+003, 7.996601e-002
1.336427e+003, 8.471893e-002
1.338356e+003, 9.012316e-002
1.340284e+003, 9.597532e-002
1.342213e+003, 1.021008e-001
1.344141e+003, 1.085494e-001
1.346070e+003, 1.145826e-001
1.347998e+003, 1.199220e-001
1.349927e+003, 1.245411e-001
1.351855e+003, 1.284974e-001
1.353784e+003, 1.322408e-001
1.355712e+003, 1.359997e-001
1.357641e+003, 1.396301e-001
1.359569e+003, 1.427136e-001
1.361497e+003, 1.449943e-001
1.363426e+003, 1.464826e-001
1.365354e+003, 1.467367e-001
1.367283e+003, 1.461035e-001
1.369211e+003, 1.445105e-001
1.371140e+003, 1.421845e-001
1.373068e+003, 1.394060e-001
1.374997e+003, 1.363494e-001
1.376925e+003, 1.330382e-001
1.378854e+003, 1.296869e-001
1.380782e+003, 1.262842e-001
1.382711e+003, 1.229700e-001
1.384639e+003, 1.195849e-001
1.386568e+003, 1.164358e-001
1.388496e+003, 1.130356e-001
1.390424e+003, 1.096867e-001
1.392353e+003, 1.065858e-001
1.394281e+003, 1.036739e-001
1.396210e+003, 1.005470e-001
1.398138e+003, 9.740929e-002
1.400067e+003, 9.416781e-002
1.401995e+003, 9.095332e-002
1.403924e+003, 8.814173e-002
1.405852e+003, 8.526804e-002
1.407781e+003, 8.230194e-002
1.409709e+003, 7.953857e-002
1.411638e+003, 7.669753e-002
1.413566e+003, 7.379142e-002
1.415495e+003, 7.106426e-002
1.417423e+003, 6.879915e-002
1.419351e+003, 6.642351e-002
1.421280e+003, 6.381513e-002
1.423208e+003, 6.152602e-002
1.425137e+003, 5.923619e-002
1.427065e+003, 5.692881e-002
1.428994e+003, 5.502704e-002
1.430922e+003, 5.319942e-002
1.432851e+003, 5.155189e-002
1.434779e+003, 5.030189e-002
1.436708e+003, 4.916568e-002
1.438636e+003, 4.749143e-002
1.440565e+003, 4.608448e-002
1.442493e+003, 4.497075e-002
1.444422e+003, 4.403529e-002
1.446350e+003, 4.314525e-002
1.448278e+003, 4.234506e-002
1.450207e+003, 4.156187e-002
1.452135e+003, 4.093388e-002
1.454064e+003, 4.044740e-002
1.455992e+003, 4.051925e-002
1.457921e+003, 3.996342e-002
1.459849e+003, 3.881106e-002
1.461778e+003, 3.809259e-002
1.463706e+003, 3.782647e-002
1.465635e+003, 3.752769e-002
1.467563e+003, 3.704531e-002
1.469492e+003, 3.673298e-002
1.471420e+003, 3.679636e-002
1.473349e+003, 3.667748e-002
1.475277e+003, 3.631565e-002
1.477205e+003, 3.600227e-002
1.479134e+003, 3.564062e-002
1.481062e+003, 3.550053e-002
1.482991e+003, 3.546404e-002
1.484919e+003, 3.557701e-002
1.486848e+003, 3.588700e-002
1.488776e+003, 3.606185e-002
1.490705e+003, 3.609623e-002
1.492633e+003, 3.586490e-002
1.494562e+003, 3.612623e-002
1.496490e+003, 3.662803e-002
1.498419e+003, 3.671563e-002
1.500347e+003, 3.666732e-002
1.502276e+003, 3.677838e-002
1.504204e+003, 3.744641e-002
1.506132e+003, 3.826096e-002
1.508061e+003, 3.781638e-002
1.509989e+003, 3.697777e-002
1.511918e+003, 3.681266e-002
1.513846e+003, 3.683086e-002
1.515775e+003, 3.714119e-002
1.517703e+003, 3.746049e-002
1.519632e+003, 3.795715e-002
1.521560e+003, 3.858485e-002
1.523489e+003, 3.841075e-002
1.525417e+003, 3.858532e-002
1.527346e+003, 3.886502e-002
1.529274e+003, 3.920579e-002
1.531203e+003, 3.964716e-002
1.533131e+003, 4.020202e-002
1.535059e+003, 4.041778e-002
1.536988e+003, 4.124889e-002
1.538916e+003, 4.282920e-002
1.540845e+003, 4.359671e-002
1.542773e+003, 4.373557e-002
1.544702e+003, 4.437558e-002
1.546630e+003, 4.520142e-002
1.548559e+003, 4.614168e-002
1.550487e+003, 4.728163e-002
1.552416e+003, 4.858797e-002
1.554344e+003, 5.016279e-002
1.556273e+003, 5.195608e-002
1.558201e+003, 5.427043e-002
1.560130e+003, 5.554904e-002
1.562058e+003, 5.605261e-002
1.563986e+003, 5.733425e-002
1.565915e+003, 5.863151e-002
1.567843e+003, 5.992085e-002
1.569772e+003, 6.128098e-002
1.571700e+003, 6.216738e-002
1.573629e+003, 6.318260e-002
1.575557e+003, 6.452638e-002
1.577486e+003, 6.480464e-002
1.579414e+003, 6.475170e-002
1.581343e+003, 6.504306e-002
1.583271e+003, 6.513830e-002
1.585200e+003, 6.498239e-002
1.587128e+003, 6.485182e-002
1.589057e+003, 6.495423e-002
1.590985e+003, 6.505514e-002
1.592913e+003, 6.487449e-002
1.594842e+003, 6.463617e-002
1.596770e+003, 6.455393e-002
1.598699e+003, 6.439800e-002
1.600627e+003, 6.414816e-002
1.602556e+003, 6.402382e-002
1.604484e+003, 6.385205e-002
1.606413e+003, 6.378812e-002
1.608341e+003, 6.364705e-002
1.610270e+003, 6.340715e-002
1.612198e+003, 6.334345e-002
1.614127e+003, 6.331984e-002
1.616055e+003, 6.369018e-002
1.617984e+003, 6.338202e-002
1.619912e+003, 6.280839e-002
1.621840e+003, 6.288664e-002
1.623769e+003, 6.272546e-002
1.625697e+003, 6.233317e-002
1.627626e+003, 6.205713e-002
1.629554e+003, 6.173701e-002
1.631483e+003, 6.149795e-002
1.633411e+003, 6.145710e-002
1.635340e+003, 6.142243e-002
1.637268e+003, 6.066467e-002
1.639197e+003, 5.970478e-002
1.641125e+003, 5.884818e-002
1.643054e+003, 5.818626e-002
1.644982e+003, 5.817864e-002
1.646911e+003, 5.757091e-002
1.648839e+003, 5.607651e-002
1.650767e+003, 5.567520e-002
1.652696e+003, 5.593647e-002
1.654624e+003, 5.393340e-002
1.656553e+003, 5.164720e-002
1.658481e+003, 5.020470e-002
1.660410e+003, 4.901242e-002
1.662338e+003, 4.796052e-002
1.664267e+003, 4.662980e-002
1.666195e+003, 4.541954e-002
1.668124e+003, 4.462844e-002
1.670052e+003, 4.339335e-002
1.671981e+003, 4.172125e-002
1.673909e+003, 4.055737e-002
1.675838e+003, 3.948145e-002
1.677766e+003, 3.784690e-002
1.679694e+003, 3.672238e-002
1.681623e+003, 3.572540e-002
1.683551e+003, 3.544310e-002
1.685480e+003, 3.421545e-002
1.687408e+003, 3.223158e-002
1.689337e+003, 3.105032e-002
1.691265e+003, 3.001288e-002
1.693194e+003, 2.914299e-002
1.695122e+003, 2.909339e-002
1.697051e+003, 2.818654e-002
1.698979e+003, 2.756123e-002
1.700908e+003, 2.682304e-002
1.702836e+003, 2.520381e-002
1.704765e+003, 2.453891e-002
1.706693e+003, 2.382503e-002
1.708621e+003, 2.294833e-002
1.710550e+003, 2.228010e-002
1.712478e+003, 2.178096e-002
1.714407e+003, 2.144422e-002
1.716335e+003, 2.144799e-002
1.718264e+003, 2.099799e-002
1.720192e+003, 2.006914e-002
1.722121e+003, 1.945526e-002
1.724049e+003, 1.906155e-002
1.725978e+003, 1.855769e-002
1.727906e+003, 1.829192e-002
1.729835e+003, 1.821822e-002
1.731763e+003, 1.837589e-002
1.733692e+003, 1.867067e-002
1.735620e+003, 1.788047e-002
1.737548e+003, 1.703376e-002
1.739477e+003, 1.673506e-002
1.741405e+003, 1.616488e-002
1.743334e+003, 1.580499e-002
1.745262e+003, 1.557949e-002
1.747191e+003, 1.537970e-002
1.749119e+003, 1.540852e-002
1.751048e+003, 1.549320e-002
1.752976e+003, 1.513093e-002
1.754905e+003, 1.489644e-002
1.756833e+003, 1.491829e-002
1.758762e+003, 1.481662e-002
1.760690e+003, 1.494971e-002
1.762619e+003, 1.491816e-002
1.764547e+003, 1.456991e-002
1.766475e+003, 1.469180e-002
1.768404e+003, 1.468868e-002
1.770332e+003, 1.451150e-002
1.772261e+003, 1.455395e-002
1.774189e+003, 1.405238e-002
1.776118e+003, 1.346701e-002
1.778046e+003, 1.332286e-002
1.779975e+003, 1.353057e-002
1.781903e+003, 1.338604e-002
1.783832e+003, 1.320212e-002
1.785760e+003, 1.309232e-002
1.787689e+003, 1.279201e-002
1.789617e+003, 1.286702e-002
1.791546e+003, 1.297596e-002
1.793474e+003, 1.256631e-002
1.795402e+003, 1.203496e-002
1.797331e+003, 1.190090e-002
1.799259e+003, 1.195116e-002
1.801188e+003, 1.196616e-002
1.803116e+003, 1.187405e-002
1.805045e+003, 1.163760e-002
1.806973e+003, 1.141352e-002
1.808902e+003, 1.157042e-002
1.810830e+003, 1.145777e-002
1.812759e+003, 1.118031e-002
1.814687e+003, 1.110465e-002
1.816616e+003, 1.111726e-002
1.818544e+003, 1.092934e-002
1.820473e+003, 1.085796e-002
1.822401e+003, 1.083631e-002
1.824329e+003, 1.093800e-002
1.826258e+003, 1.102935e-002
1.828186e+003, 1.101399e-002
1.830115e+003, 1.080615e-002
1.832043e+003, 1.074311e-002
1.833972e+003, 1.100183e-002
1.835900e+003, 1.082742e-002
1.837829e+003, 1.051870e-002
1.839757e+003, 1.046960e-002
1.841686e+003, 1.068861e-002
1.843614e+003, 1.123953e-002
1.845543e+003, 1.084311e-002
1.847471e+003, 1.051240e-002
1.849400e+003, 1.044809e-002
1.851328e+003, 1.005983e-002
1.853256e+003, 1.001213e-002
1.855185e+003, 1.006962e-002
1.857113e+003, 1.009587e-002
1.859042e+003, 1.001757e-002
1.860970e+003, 1.021411e-002
1.862899e+003, 1.020065e-002
1.864827e+003, 1.008685e-002
1.866756e+003, 1.000900e-002
1.868684e+003, 1.018023e-002
1.870613e+003, 1.016377e-002
1.872541e+003, 9.844691e-003
1.874470e+003, 9.840330e-003
1.876398e+003, 9.463714e-003
1.878327e+003, 9.008436e-003
1.880255e+003, 9.141018e-003
1.882183e+003, 9.385193e-003
1.884112e+003, 9.424980e-003
1.886040e+003, 9.182582e-003
1.887969e+003, 9.308719e-003
1.889897e+003, 9.365012e-003
1.891826e+003, 9.516344e-003
1.893754e+003, 9.746041e-003
1.895683e+003, 9.363227e-003
1.897611e+003, 8.892669e-003
1.899540e+003, 9.024235e-003
1.901468e+003, 9.109911e-003
1.903397e+003, 9.120954e-003
1.905325e+003, 9.051749e-003
1.907254e+003, 9.336652e-003
1.909182e+003, 9.064403e-003
1.911110e+003, 8.594020e-003
1.913039e+003, 8.666333e-003
1.914967e+003, 9.016888e-003
1.916896e+003, 9.239019e-003
1.918824e+003, 9.243290e-003
1.920753e+003, 9.036189e-003
1.922681e+003, 9.022272e-003
1.924610e+003, 9.050666e-003
1.926538e+003, 9.178944e-003
1.928467e+003, 9.051870e-003
1.930395e+003, 8.920101e-003
1.932324e+003, 8.705031e-003
1.934252e+003, 8.251244e-003
1.936181e+003, 8.331919e-003
1.938109e+003, 8.226032e-003
1.940037e+003, 7.321712e-003
1.941966e+003, 7.295437e-003
1.943894e+003, 7.533397e-003
1.945823e+003, 7.481879e-003
1.947751e+003, 8.055021e-003
1.949680e+003, 8.384275e-003
1.951608e+003, 8.131921e-003
1.953537e+003, 7.841980e-003
1.955465e+003, 7.278665e-003
1.957394e+003, 7.599001e-003
1.959322e+003, 7.673479e-003
1.961251e+003, 7.434108e-003
1.963179e+003, 7.277925e-003
1.965108e+003, 7.483664e-003
1.967036e+003, 7.364139e-003
1.968964e+003, 6.815254e-003
1.970893e+003, 6.727862e-003
1.972821e+003, 6.623015e-003
1.974750e+003, 6.115135e-003
1.976678e+003, 6.034731e-003
1.978607e+003, 6.475450e-003
1.980535e+003, 7.773199e-003
1.982464e+003, 8.565614e-003
1.984392e+003, 8.731362e-003
1.986321e+003, 8.142476e-003
1.988249e+003, 7.498578e-003
1.990178e+003, 8.358045e-003
1.992106e+003, 9.263575e-003
1.994035e+003, 8.646771e-003
1.995963e+003, 8.847175e-003
1.997891e+003, 8.476342e-003
1.999820e+003, 7.462434e-003
2.001748e+003, 6.793286e-003
2.003677e+003, 6.940392e-003
2.005605e+003, 7.845229e-003
2.007534e+003, 8.795095e-003
2.009462e+003, 7.981291e-003
2.011391e+003, 7.100540e-003
2.013319e+003, 6.611981e-003
2.015248e+003, 7.146352e-003
2.017176e+003, 7.988458e-003
2.019105e+003, 7.453186e-003
2.021033e+003, 7.305846e-003
2.022962e+003, 7.228570e-003
2.024890e+003, 6.917695e-003
2.026818e+003, 6.786951e-003
2.028747e+003, 7.295175e-003
2.030675e+003, 7.747709e-003
2.032604e+003, 7.025730e-003
2.034532e+003, 6.398159e-003
2.036461e+003, 7.422751e-003
2.038389e+003, 9.312563e-003
2.040318e+003, 8.502758e-003
2.042246e+003, 7.454183e-003
2.044175e+003, 7.487123e-003
2.046103e+003, 7.161013e-003
2.048031e+003, 7.531546e-003
2.049960e+003, 8.824936e-003
2.051888e+003, 8.731720e-003
2.053817e+003, 7.886769e-003
2.055745e+003, 7.920769e-003
2.057674e+003, 8.230586e-003
2.059602e+003, 8.176464e-003
2.061531e+003, 8.390491e-003
2.063459e+003, 8.310595e-003
2.065388e+003, 7.672508e-003
2.067316e+003, 7.680255e-003
2.069245e+003, 8.375612e-003
2.071173e+003, 8.826033e-003
2.073102e+003, 9.035101e-003
2.075030e+003, 8.628214e-003
2.076958e+003, 8.534949e-003
2.078887e+003, 9.030953e-003
2.080815e+003, 9.133262e-003
2.082744e+003, 8.740035e-003
2.084672e+003, 8.272951e-003
2.086601e+003, 8.458067e-003
2.088529e+003, 8.856830e-003
2.090458e+003, 8.683946e-003
2.092386e+003, 8.523471e-003
2.094315e+003, 8.624713e-003
2.096243e+003, 8.695194e-003
2.098172e+003, 8.896189e-003
2.100100e+003, 9.068431e-003
2.102029e+003, 8.991216e-003
2.103957e+003, 9.229333e-003
2.105885e+003, 9.593222e-003
2.107814e+003, 9.665861e-003
2.109742e+003, 9.169050e-003
2.111671e+003, 8.925505e-003
2.113599e+003, 9.133526e-003
2.115528e+003, 8.986051e-003
2.117456e+003, 8.837756e-003
2.119385e+003, 8.407686e-003
2.121313e+003, 8.341077e-003
2.123242e+003, 8.402545e-003
2.125170e+003, 8.598461e-003
2.127099e+003, 8.091222e-003
2.129027e+003, 7.355631e-003
2.130956e+003, 7.015802e-003
2.132884e+003, 7.302114e-003
2.134813e+003, 7.840565e-003
2.136741e+003, 7.884817e-003
2.138669e+003, 7.433447e-003
2.140598e+003, 6.904380e-003
2.142526e+003, 6.772592e-003
2.144455e+003, 6.378078e-003
2.146383e+003, 6.883689e-003
2.148312e+003, 7.373188e-003
2.150240e+003, 6.511335e-003
2.152169e+003, 5.912323e-003
2.154097e+003, 5.767582e-003
2.156026e+003, 5.770045e-003
2.157954e+003, 5.917883e-003
2.159883e+003, 6.512262e-003
2.161811e+003, 5.811683e-003
2.163740e+003, 5.357011e-003
2.165668e+003, 6.903386e-003
2.167596e+003, 8.178643e-003
2.169525e+003, 6.678374e-003
2.171453e+003, 5.455161e-003
2.173382e+003, 5.654914e-003
2.175310e+003, 5.781340e-003
2.177239e+003, 5.794507e-003
2.179167e+003, 6.138481e-003
2.181096e+003, 6.471556e-003
2.183024e+003, 5.920904e-003
2.184953e+003, 5.157669e-003
2.186881e+003, 5.113143e-003
2.188810e+003, 5.510586e-003
2.190738e+003, 5.639048e-003
2.192667e+003, 6.270797e-003
2.194595e+003, 6.355306e-003
2.196523e+003, 6.557351e-003
2.198452e+003, 7.129733e-003
2.200380e+003, 7.412316e-003
2.202309e+003, 7.219123e-003
2.204237e+003, 7.001730e-003
2.206166e+003, 6.027385e-003
2.208094e+003, 5.183556e-003
2.210023e+003, 6.095151e-003
2.211951e+003, 7.018225e-003
2.213880e+003, 6.701658e-003
2.215808e+003, 6.105558e-003
2.217737e+003, 6.168780e-003
2.219665e+003, 6.189140e-003
2.221594e+003, 6.437053e-003
2.223522e+003, 7.222073e-003
2.225450e+003, 6.921789e-003
2.227379e+003, 6.574148e-003
2.229307e+003, 6.918811e-003
2.231236e+003, 7.011288e-003
2.233164e+003, 6.974027e-003
2.235093e+003, 7.545747e-003
2.237021e+003, 7.224283e-003
2.238950e+003, 7.050385e-003
2.240878e+003, 7.215587e-003
2.242807e+003, 6.824270e-003
2.244735e+003, 6.697414e-003
2.246664e+003, 6.769772e-003
2.248592e+003, 7.044811e-003
2.250521e+003, 7.673705e-003
2.252449e+003, 7.525596e-003
2.254377e+003, 7.204950e-003
2.256306e+003, 6.947676e-003
2.258234e+003, 7.197685e-003
2.260163e+003, 7.292764e-003
2.262091e+003, 7.251705e-003
2.264020e+003, 7.009663e-003
2.265948e+003, 6.982024e-003
2.267877e+003, 6.838937e-003
2.269805e+003, 6.731386e-003
2.271734e+003, 7.099439e-003
2.273662e+003, 7.428301e-003
2.275591e+003, 7.456197e-003
2.277519e+003, 7.126248e-003
2.279448e+003, 7.039423e-003
2.281376e+003, 6.848919e-003
2.283304e+003, 7.042774e-003
2.285233e+003, 7.450625e-003
2.287161e+003, 7.528228e-003
2.289090e+003, 7.333434e-003
2.291018e+003, 7.554161e-003
2.292947e+003, 7.371980e-003
2.294875e+003, 7.322940e-003
2.296804e+003, 7.701846e-003
2.298732e+003, 7.684736e-003
2.300661e+003, 7.486565e-003
2.302589e+003, 7.695548e-003
2.304518e+003, 7.914525e-003
2.306446e+003, 7.731654e-003
2.308375e+003, 7.749793e-003
2.310303e+003, 8.045797e-003
2.312231e+003, 8.002451e-003
2.314160e+003, 8.030383e-003
2.316088e+003, 8.295687e-003
2.318017e+003, 8.262414e-003
2.319945e+003, 8.543695e-003
2.321874e+003, 9.023026e-003
2.323802e+003, 9.047261e-003
2.325731e+003, 8.811429e-003
2.327659e+003, 8.912330e-003
2.329588e+003, 9.148027e-003
2.331516e+003, 9.309192e-003
2.333445e+003, 9.357212e-003
2.335373e+003, 9.439042e-003
2.337302e+003, 9.400059e-003
2.339230e+003, 9.210057e-003
2.341158e+003, 8.982922e-003
2.343087e+003, 8.957891e-003
2.345015e+003, 8.782444e-003
2.346944e+003, 8.565820e-003
2.348872e+003, 8.284652e-003
2.350801e+003, 8.588000e-003
2.352729e+003, 9.045291e-003
2.354658e+003, 9.247626e-003
2.356586e+003, 9.336317e-003
2.358515e+003, 9.540975e-003
2.360443e+003, 9.640375e-003
2.362372e+003, 9.642082e-003
2.364300e+003, 9.581110e-003
2.366229e+003, 9.455634e-003
2.368157e+003, 9.444575e-003
2.370085e+003, 9.499480e-003
2.372014e+003, 9.127575e-003
2.373942e+003, 8.461377e-003
2.375871e+003, 8.108638e-003
2.377799e+003, 8.214526e-003
2.379728e+003, 8.309668e-003
2.381656e+003, 8.136066e-003
2.383585e+003, 7.971103e-003
2.385513e+003, 8.168082e-003
2.387442e+003, 8.361533e-003
2.389370e+003, 8.251299e-003
2.391299e+003, 8.062494e-003
2.393227e+003, 8.202388e-003
2.395156e+003, 8.422235e-003
2.397084e+003, 8.428917e-003
2.399012e+003, 8.350629e-003
2.400941e+003, 8.671177e-003
2.402869e+003, 8.450189e-003
2.404798e+003, 8.217343e-003
2.406726e+003, 8.681760e-003
2.408655e+003, 8.831046e-003
2.410583e+003, 8.709456e-003
2.412512e+003, 8.850588e-003
2.414440e+003, 8.955102e-003
2.416369e+003, 8.756332e-003
2.418297e+003, 8.894444e-003
2.420226e+003, 9.175927e-003
2.422154e+003, 9.083288e-003
2.424083e+003, 8.701069e-003
2.426011e+003, 8.723523e-003
2.427939e+003, 9.090410e-003
2.429868e+003, 9.415140e-003
2.431796e+003, 9.041017e-003
2.433725e+003, 8.730813e-003
2.435653e+003, 9.141137e-003
2.437582e+003, 9.424644e-003
2.439510e+003, 9.493731e-003
2.441439e+003, 9.502922e-003
2.443367e+003, 9.253206e-003
2.445296e+003, 9.153009e-003
2.447224e+003, 9.357574e-003
2.449153e+003, 9.527196e-003
2.451081e+003, 9.870362e-003
2.453010e+003, 9.604968e-003
2.454938e+003, 9.503989e-003
2.456866e+003, 9.700602e-003
2.458795e+003, 9.579368e-003
2.460723e+003, 9.307022e-003
2.462652e+003, 9.430855e-003
2.464580e+003, 9.582967e-003
2.466509e+003, 9.440049e-003
2.468437e+003, 9.249803e-003
2.470366e+003, 9.232815e-003
2.472294e+003, 9.227933e-003
2.474223e+003, 9.203769e-003
2.476151e+003, 9.249978e-003
2.478080e+003, 9.244648e-003
2.480008e+003, 9.278009e-003
2.481937e+003, 9.204326e-003
2.483865e+003, 9.321108e-003
2.485793e+003, 9.091157e-003
2.487722e+003, 8.729678e-003
2.489650e+003, 8.959567e-003
2.491579e+003, 9.256865e-003
2.493507e+003, 9.199928e-003
2.495436e+003, 8.956964e-003
2.497364e+003, 8.787249e-003
2.499293e+003, 8.882837e-003
2.501221e+003, 9.082029e-003
2.503150e+003, 9.369052e-003
2.505078e+003, 9.397089e-003
2.507007e+003, 9.087801e-003
2.508935e+003, 9.112534e-003
2.510864e+003, 9.129918e-003
2.512792e+003, 9.394515e-003
2.514720e+003, 9.366577e-003
2.516649e+003, 8.898566e-003
2.518577e+003, 8.991096e-003
2.520506e+003, 9.197029e-003
2.522434e+003, 8.861148e-003
2.524363e+003, 8.949525e-003
2.526291e+003, 9.314463e-003
2.528220e+003, 9.502865e-003
2.530148e+003, 9.146533e-003
2.532077e+003, 9.036065e-003
2.534005e+003, 9.240353e-003
2.535934e+003, 9.571679e-003
2.537862e+003, 9.604551e-003
2.539791e+003, 9.300838e-003
2.541719e+003, 9.526252e-003
2.543647e+003, 9.353925e-003
2.545576e+003, 9.070633e-003
2.547504e+003, 9.323202e-003
2.549433e+003, 9.732642e-003
2.551361e+003, 9.757719e-003
2.553290e+003, 9.739719e-003
2.555218e+003, 9.847073e-003
2.557147e+003, 1.012848e-002
2.559075e+003, 9.954624e-003
2.561004e+003, 9.712637e-003
2.562932e+003, 9.956981e-003
2.564861e+003, 9.837723e-003
2.566789e+003, 9.587638e-003
2.568718e+003, 9.753730e-003
2.570646e+003, 1.032310e-002
2.572574e+003, 1.060787e-002
2.574503e+003, 1.060133e-002
2.576431e+003, 1.014036e-002
2.578360e+003, 9.925791e-003
2.580288e+003, 1.014436e-002
2.582217e+003, 1.080965e-002
2.584145e+003, 1.094989e-002
2.586074e+003, 1.071189e-002
2.588002e+003, 1.063303e-002
2.589931e+003, 1.058315e-002
2.591859e+003, 1.085172e-002
2.593788e+003, 1.117011e-002
2.595716e+003, 1.086052e-002
2.597645e+003, 1.078236e-002
2.599573e+003, 1.106369e-002
2.601501e+003, 1.107439e-002
2.603430e+003, 1.110192e-002
2.605358e+003, 1.138799e-002
2.607287e+003, 1.142519e-002
2.609215e+003, 1.123129e-002
2.611144e+003, 1.147359e-002
2.613072e+003, 1.180745e-002
2.615001e+003, 1.174995e-002
2.616929e+003, 1.187371e-002
2.618858e+003, 1.210228e-002
2.620786e+003, 1.196707e-002
2.622715e+003, 1.198762e-002
2.624643e+003, 1.222071e-002
2.626572e+003, 1.229503e-002
2.628500e+003, 1.253347e-002
2.630428e+003, 1.278341e-002
2.632357e+003, 1.294183e-002
2.634285e+003, 1.293645e-002
2.636214e+003, 1.281534e-002
2.638142e+003, 1.285925e-002
2.640071e+003, 1.312715e-002
2.641999e+003, 1.319595e-002
2.643928e+003, 1.313555e-002
2.645856e+003, 1.336336e-002
2.647785e+003, 1.339926e-002
2.649713e+003, 1.339958e-002
2.651642e+003, 1.352869e-002
2.653570e+003, 1.394086e-002
2.655499e+003, 1.420748e-002
2.657427e+003, 1.414726e-002
2.659355e+003, 1.412308e-002
2.661284e+003, 1.425407e-002
2.663212e+003, 1.428654e-002
2.665141e+003, 1.425305e-002
2.667069e+003, 1.441061e-002
2.668998e+003, 1.467810e-002
2.670926e+003, 1.460606e-002
2.672855e+003, 1.436854e-002
2.674783e+003, 1.424143e-002
2.676712e+003, 1.432602e-002
2.678640e+003, 1.454038e-002
2.680569e+003, 1.463483e-002
2.682497e+003, 1.481528e-002
2.684426e+003, 1.486347e-002
2.686354e+003, 1.506707e-002
2.688282e+003, 1.519598e-002
2.690211e+003, 1.505182e-002
2.692139e+003, 1.526997e-002
2.694068e+003, 1.540597e-002
2.695996e+003, 1.542946e-002
2.697925e+003, 1.566549e-002
2.699853e+003, 1.576914e-002
2.701782e+003, 1.594298e-002
2.703710e+003, 1.612126e-002
2.705639e+003, 1.616064e-002
2.707567e+003, 1.603998e-002
2.709496e+003, 1.611090e-002
2.711424e+003, 1.657336e-002
2.713353e+003, 1.685395e-002
2.715281e+003, 1.679354e-002
2.717209e+003, 1.703587e-002
2.719138e+003, 1.724100e-002
2.721066e+003, 1.742145e-002
2.722995e+003, 1.782500e-002
2.724923e+003, 1.785639e-002
2.726852e+003, 1.787093e-002
2.728780e+003, 1.789245e-002
2.730709e+003, 1.784996e-002
2.732637e+003, 1.814356e-002
2.734566e+003, 1.838296e-002
2.736494e+003, 1.855770e-002
2.738423e+003, 1.871316e-002
2.740351e+003, 1.908573e-002
2.742280e+003, 1.933488e-002
2.744208e+003, 1.963765e-002
2.746136e+003, 1.960379e-002
2.748065e+003, 1.927714e-002
2.749993e+003, 1.958172e-002
2.751922e+003, 2.011970e-002
2.753850e+003, 2.019048e-002
2.755779e+003, 2.037352e-002
2.757707e+003, 2.074880e-002
2.759636e+003, 2.098407e-002
2.761564e+003, 2.108569e-002
2.763493e+003, 2.145241e-002
2.765421e+003, 2.154535e-002
2.767350e+003, 2.176938e-002
2.769278e+003, 2.228619e-002
2.771207e+003, 2.235519e-002
2.773135e+003, 2.248062e-002
2.775063e+003, 2.285190e-002
2.776992e+003, 2.309395e-002
2.778920e+003, 2.359173e-002
2.780849e+003, 2.373681e-002
2.782777e+003, 2.361023e-002
2.784706e+003, 2.392336e-002
2.786634e+003, 2.469562e-002
2.788563e+003, 2.498242e-002
2.790491e+003, 2.501119e-002
2.792420e+003, 2.513169e-002
2.794348e+003, 2.542705e-002
2.796277e+003, 2.574312e-002
2.798205e+003, 2.607312e-002
2.800134e+003, 2.642174e-002
2.802062e+003, 2.659961e-002
2.803990e+003, 2.674847e-002
2.805919e+003, 2.720646e-002
2.807847e+003, 2.780683e-002
2.809776e+003, 2.814588e-002
2.811704e+003, 2.818624e-002
2.813633e+003, 2.851498e-002
2.815561e+003, 2.896602e-002
2.817490e+003, 2.907627e-002
2.819418e+003, 2.932289e-002
2.821347e+003, 2.957389e-002
2.823275e+003, 2.957367e-002
2.825204e+003, 2.988080e-002
2.827132e+003, 3.039990e-002
2.829061e+003, 3.108024e-002
2.830989e+003, 3.158925e-002
2.832917e+003, 3.195134e-002
2.834846e+003, 3.203370e-002
2.836774e+003, 3.236248e-002
2.838703e+003, 3.288377e-002
2.840631e+003, 3.296371e-002
2.842560e+003, 3.366495e-002
2.844488e+003, 3.435827e-002
2.846417e+003, 3.467840e-002
2.848345e+003, 3.502610e-002
2.850274e+003, 3.559951e-002
2.852202e+003, 3.626080e-002
2.854131e+003, 3.650782e-002
2.856059e+003, 3.674104e-002
2.857988e+003, 3.694601e-002
2.859916e+003, 3.668227e-002
2.861844e+003, 3.655825e-002
2.863773e+003, 3.709620e-002
2.865701e+003, 3.756722e-002
2.867630e+003, 3.752531e-002
2.869558e+003, 3.779787e-002
2.871487e+003, 3.828741e-002
2.873415e+003, 3.887028e-002
2.875344e+003, 3.936141e-002
2.877272e+003, 3.917814e-002
2.879201e+003, 3.906382e-002
2.881129e+003, 3.932971e-002
2.883058e+003, 3.990471e-002
2.884986e+003, 4.019747e-002
2.886915e+003, 4.036715e-002
2.888843e+003, 4.098397e-002
2.890771e+003, 4.179613e-002
2.892700e+003, 4.195400e-002
2.894628e+003, 4.218853e-002
2.896557e+003, 4.267255e-002
2.898485e+003, 4.323049e-002
2.900414e+003, 4.375175e-002
2.902342e+003, 4.428431e-002
2.904271e+003, 4.475384e-002
2.906199e+003, 4.517709e-002
2.908128e+003, 4.550998e-002
2.910056e+003, 4.585085e-002
2.911985e+003, 4.636844e-002
2.913913e+003, 4.697816e-002
2.915842e+003, 4.773706e-002
2.917770e+003, 4.826294e-002
2.919698e+003, 4.858609e-002
2.921627e+003, 4.954106e-002
2.923555e+003, 4.996552e-002
2.925484e+003, 4.961730e-002
2.927412e+003, 4.958544e-002
2.929341e+003, 4.997972e-002
2.931269e+003, 5.014081e-002
2.933198e+003, 4.997716e-002
2.935126e+003, 4.982128e-002
2.937055e+003, 4.958161e-002
2.938983e+003, 4.944761e-002
2.940912e+003, 4.944642e-002
2.942840e+003, 4.944222e-002
2.944769e+003, 4.967544e-002
2.946697e+003, 4.991736e-002
2.948625e+003, 5.049776e-002
2.950554e+003, 5.106315e-002
2.952482e+003, 5.132752e-002
2.954411e+003, 5.202112e-002
2.956339e+003, 5.244764e-002
2.958268e+003, 5.214014e-002
2.960196e+003, 5.241365e-002
2.962125e+003, 5.307736e-002
2.964053e+003, 5.336410e-002
2.965982e+003, 5.323471e-002
2.967910e+003, 5.309520e-002
2.969839e+003, 5.290769e-002
2.971767e+003, 5.287145e-002
2.973696e+003, 5.330859e-002
2.975624e+003, 5.341641e-002
2.977552e+003, 5.318781e-002
2.979481e+003, 5.338796e-002
2.981409e+003, 5.392518e-002
2.983338e+003, 5.419306e-002
2.985266e+003, 5.421477e-002
2.987195e+003, 5.444380e-002
2.989123e+003, 5.470132e-002
2.991052e+003, 5.488112e-002
2.992980e+003, 5.525459e-002
2.994909e+003, 5.559566e-002
2.996837e+003, 5.564978e-002
2.998766e+003, 5.585378e-002
3.000694e+003, 5.652320e-002
3.002623e+003, 5.714864e-002
3.004551e+003, 5.774961e-002
3.006479e+003, 5.815529e-002
3.008408e+003, 5.784630e-002
3.010336e+003, 5.788326e-002
3.012265e+003, 5.790738e-002
3.014193e+003, 5.758819e-002
3.016122e+003, 5.725936e-002
3.018050e+003, 5.810122e-002
3.019979e+003, 5.936071e-002
3.021907e+003, 5.968819e-002
3.023836e+003, 5.982556e-002
3.025764e+003, 6.045709e-002
3.027693e+003, 6.114797e-002
3.029621e+003, 6.150252e-002
3.031550e+003, 6.189229e-002
3.033478e+003, 6.220979e-002
3.035406e+003, 6.219091e-002
3.037335e+003, 6.250482e-002
3.039263e+003, 6.304222e-002
3.041192e+003, 6.357960e-002
3.043120e+003, 6.360148e-002
3.045049e+003, 6.354702e-002
3.046977e+003, 6.379689e-002
3.048906e+003, 6.451176e-002
3.050834e+003, 6.483795e-002
3.052763e+003, 6.509500e-002
3.054691e+003, 6.552587e-002
3.056620e+003, 6.547104e-002
3.058548e+003, 6.579108e-002
3.060477e+003, 6.646935e-002
3.062405e+003, 6.673983e-002
3.064333e+003, 6.680757e-002
3.066262e+003, 6.669962e-002
3.068190e+003, 6.722035e-002
3.070119e+003, 6.841266e-002
3.072047e+003, 6.883990e-002
3.073976e+003, 6.848452e-002
3.075904e+003, 6.854034e-002
3.077833e+003, 6.894639e-002
3.079761e+003, 6.988253e-002
3.081690e+003, 7.047043e-002
3.083618e+003, 7.054219e-002
3.085547e+003, 7.053629e-002
3.087475e+003, 7.098541e-002
3.089404e+003, 7.116982e-002
3.091332e+003, 7.143512e-002
3.093260e+003, 7.157166e-002
3.095189e+003, 7.212323e-002
3.097117e+003, 7.311047e-002
3.099046e+003, 7.319338e-002
3.100974e+003, 7.290578e-002
3.102903e+003, 7.316524e-002
3.104831e+003, 7.345835e-002
3.106760e+003, 7.385098e-002
3.108688e+003, 7.469092e-002
3.110617e+003, 7.529790e-002
3.112545e+003, 7.519246e-002
3.114474e+003, 7.556996e-002
3.116402e+003, 7.597383e-002
3.118331e+003, 7.610773e-002
3.120259e+003, 7.652446e-002
3.122188e+003, 7.739917e-002
3.124116e+003, 7.813352e-002
3.126044e+003, 7.878476e-002
3.127973e+003, 7.878260e-002
3.129901e+003, 7.853512e-002
3.131830e+003, 7.940269e-002
3.133758e+003, 8.053117e-002
3.135687e+003, 8.076149e-002
3.137615e+003, 8.080364e-002
3.139544e+003, 8.133771e-002
3.141472e+003, 8.172955e-002
3.143401e+003, 8.172308e-002
3.145329e+003, 8.188783e-002
3.147258e+003, 8.252630e-002
3.149186e+003, 8.341982e-002
3.151115e+003, 8.396469e-002
3.153043e+003, 8.467916e-002
3.154971e+003, 8.480422e-002
3.156900e+003, 8.517889e-002
3.158828e+003, 8.607649e-002
3.160757e+003, 8.638851e-002
3.162685e+003, 8.646163e-002
3.164614e+003, 8.721970e-002
3.166542e+003, 8.805324e-002
3.168471e+003, 8.854534e-002
3.170399e+003, 8.890855e-002
3.172328e+003, 8.915638e-002
3.174256e+003, 8.938246e-002
3.176185e+003, 9.009953e-002
3.178113e+003, 9.082401e-002
3.180042e+003, 9.139076e-002
3.181970e+003, 9.208241e-002
3.183898e+003, 9.268441e-002
3.185827e+003, 9.328753e-002
3.187755e+003, 9.353460e-002
3.189684e+003, 9.392432e-002
3.191612e+003, 9.488548e-002
3.193541e+003, 9.532301e-002
3.195469e+003, 9.553832e-002
3.197398e+003, 9.606713e-002
3.199326e+003, 9.687229e-002
3.201255e+003, 9.740919e-002
3.203183e+003, 9.769908e-002
3.205112e+003, 9.854554e-002
3.207040e+003, 9.918024e-002
3.208969e+003, 9.979828e-002
3.210897e+003, 1.006589e-001
3.212825e+003, 1.008025e-001
3.214754e+003, 1.015693e-001
3.216682e+003, 1.021205e-001
3.218611e+003, 1.022213e-001
3.220539e+003, 1.030681e-001
3.222468e+003, 1.036244e-001
3.224396e+003, 1.039691e-001
3.226325e+003, 1.049015e-001
3.228253e+003, 1.055885e-001
3.230182e+003, 1.062682e-001
3.232110e+003, 1.069605e-001
3.234039e+003, 1.074580e-001
3.235967e+003, 1.082734e-001
3.237896e+003, 1.088626e-001
3.239824e+003, 1.092243e-001
3.241752e+003, 1.098449e-001
3.243681e+003, 1.105115e-001
3.245609e+003, 1.113454e-001
3.247538e+003, 1.120309e-001
3.249466e+003, 1.131669e-001
3.251395e+003, 1.141413e-001
3.253323e+003, 1.149056e-001
3.255252e+003, 1.151247e-001
3.257180e+003, 1.155224e-001
3.259109e+003, 1.162118e-001
3.261037e+003, 1.170286e-001
3.262966e+003, 1.176757e-001
3.264894e+003, 1.189296e-001
3.266823e+003, 1.204208e-001
3.268751e+003, 1.208723e-001
3.270679e+003, 1.213434e-001
3.272608e+003, 1.225049e-001
3.274536e+003, 1.235260e-001
3.276465e+003, 1.244371e-001
3.278393e+003, 1.252536e-001
3.280322e+003, 1.261210e-001
3.282250e+003, 1.270393e-001
3.284179e+003, 1.282155e-001
3.286107e+003, 1.294329e-001
3.288036e+003, 1.307206e-001
3.289964e+003, 1.318610e-001
3.291893e+003, 1.324413e-001
3.293821e+003, 1.333830e-001
3.295750e+003, 1.350749e-001
3.297678e+003, 1.364198e-001
3.299606e+003, 1.379308e-001
3.301535e+003, 1.393110e-001
3.303463e+003, 1.397832e-001
3.305392e+003, 1.405309e-001
3.307320e+003, 1.421906e-001
3.309249e+003, 1.438197e-001
3.311177e+003, 1.449620e-001
3.313106e+003, 1.462467e-001
3.315034e+003, 1.473620e-001
3.316963e+003, 1.486414e-001
3.318891e+003, 1.502587e-001
3.320820e+003, 1.514063e-001
3.322748e+003, 1.528865e-001
3.324677e+003, 1.544122e-001
3.326605e+003, 1.559826e-001
3.328533e+003, 1.574612e-001
3.330462e+003, 1.588067e-001
3.332390e+003, 1.608219e-001
3.334319e+003, 1.628443e-001
3.336247e+003, 1.637894e-001
3.338176e+003, 1.652193e-001
3.340104e+003, 1.671694e-001
3.342033e+003, 1.692585e-001
3.343961e+003, 1.707244e-001
3.345890e+003, 1.714253e-001
3.347818e+003, 1.725762e-001
3.349747e+003, 1.745100e-001
3.351675e+003, 1.765307e-001
3.353604e+003, 1.784503e-001
3.355532e+003, 1.797720e-001
3.357460e+003, 1.808770e-001
3.359389e+003, 1.820147e-001
3.361317e+003, 1.838195e-001
3.363246e+003, 1.853366e-001
3.365174e+003, 1.869287e-001
3.367103e+003, 1.885730e-001
3.369031e+003, 1.906526e-001
3.370960e+003, 1.925693e-001
3.372888e+003, 1.943026e-001
3.374817e+003, 1.954889e-001
3.376745e+003, 1.965437e-001
3.378674e+003, 1.983518e-001
3.380602e+003, 1.997445e-001
3.382531e+003, 2.013788e-001
3.384459e+003, 2.030278e-001
3.386387e+003, 2.038385e-001
3.388316e+003, 2.052908e-001
3.390244e+003, 2.071537e-001
3.392173e+003, 2.085245e-001
3.394101e+003, 2.094716e-001
3.396030e+003, 2.107874e-001
3.397958e+003, 2.117856e-001
3.399887e+003, 2.129432e-001
3.401815e+003, 2.142189e-001
3.403744e+003, 2.154624e-001
3.405672e+003, 2.165873e-001
3.407601e+003, 2.175791e-001
3.409529e+003, 2.186643e-001
3.411458e+003, 2.195502e-001
3.413386e+003, 2.205840e-001
3.415314e+003, 2.215942e-001
3.417243e+003, 2.228129e-001
3.419171e+003, 2.236397e-001
3.421100e+003, 2.246102e-001
3.423028e+003, 2.254644e-001
3.424957e+003, 2.260570e-001
3.426885e+003, 2.270272e-001
3.428814e+003, 2.275741e-001
3.430742e+003, 2.278920e-001
3.432671e+003, 2.287373e-001
3.434599e+003, 2.295313e-001
3.436528e+003, 2.300472e-001
3.438456e+003, 2.298831e-001
3.440385e+003, 2.300471e-001
3.442313e+003, 2.310815e-001
3.444241e+003, 2.317642e-001
3.446170e+003, 2.322274e-001
3.448098e+003, 2.324947e-001
3.450027e+003, 2.326665e-001
3.451955e+003, 2.332861e-001
3.453884e+003, 2.334446e-001
3.455812e+003, 2.332317e-001
3.457741e+003, 2.329325e-001
3.459669e+003, 2.324357e-001
3.461598e+003, 2.321323e-001
3.463526e+003, 2.314375e-001
3.465455e+003, 2.309155e-001
3.467383e+003, 2.298625e-001
3.469312e+003, 2.294108e-001
3.471240e+003, 2.299399e-001
3.473168e+003, 2.296084e-001
3.475097e+003, 2.289504e-001
3.477025e+003, 2.279951e-001
3.478954e+003, 2.266456e-001
3.480882e+003, 2.258235e-001
3.482811e+003, 2.258298e-001
3.484739e+003, 2.251995e-001
3.486668e+003, 2.236256e-001
3.488596e+003, 2.223974e-001
3.490525e+003, 2.222889e-001
3.492453e+003, 2.216279e-001
3.494382e+003, 2.192985e-001
3.496310e+003, 2.176692e-001
3.498239e+003, 2.170498e-001
3.500167e+003, 2.158659e-001
3.502095e+003, 2.147302e-001
3.504024e+003, 2.145533e-001
3.505952e+003, 2.143609e-001
3.507881e+003, 2.132366e-001
3.509809e+003, 2.114876e-001
3.511738e+003, 2.096058e-001
3.513666e+003, 2.092161e-001
3.515595e+003, 2.087795e-001
3.517523e+003, 2.078455e-001
3.519452e+003, 2.064582e-001
3.521380e+003, 2.054851e-001
3.523309e+003, 2.044125e-001
3.525237e+003, 2.036645e-001
3.527166e+003, 2.028580e-001
3.529094e+003, 2.016551e-001
3.531022e+003, 2.014483e-001
3.532951e+003, 2.004145e-001
3.534879e+003, 1.991338e-001
3.536808e+003, 1.980739e-001
3.538736e+003, 1.971246e-001
3.540665e+003, 1.963426e-001
3.542593e+003, 1.958128e-001
3.544522e+003, 1.948501e-001
3.546450e+003, 1.935553e-001
3.548379e+003, 1.923261e-001
3.550307e+003, 1.910486e-001
3.552236e+003, 1.899505e-001
3.554164e+003, 1.886846e-001
3.556093e+003, 1.872620e-001
3.558021e+003, 1.862606e-001
3.559949e+003, 1.847490e-001
3.561878e+003, 1.829450e-001
3.563806e+003, 1.819352e-001
3.565735e+003, 1.815594e-001
3.567663e+003, 1.802577e-001
3.569592e+003, 1.778372e-001
3.571520e+003, 1.760148e-001
3.573449e+003, 1.746085e-001
3.575377e+003, 1.730486e-001
3.577306e+003, 1.712383e-001
3.579234e+003, 1.693298e-001
3.581163e+003, 1.676501e-001
3.583091e+003, 1.654944e-001
3.585020e+003, 1.638833e-001
3.586948e+003, 1.626178e-001
3.588876e+003, 1.606876e-001
3.590805e+003, 1.582445e-001
3.592733e+003, 1.568421e-001
3.594662e+003, 1.550940e-001
3.596590e+003, 1.528789e-001
3.598519e+003, 1.508184e-001
3.600447e+003, 1.489303e-001
3.602376e+003, 1.475804e-001
3.604304e+003, 1.457370e-001
3.606233e+003, 1.443390e-001
3.608161e+003, 1.423194e-001
3.610090e+003, 1.392060e-001
3.612018e+003, 1.366806e-001
3.613947e+003, 1.351143e-001
3.615875e+003, 1.336523e-001
3.617803e+003, 1.325230e-001
3.619732e+003, 1.309198e-001
3.621660e+003, 1.275281e-001
3.623589e+003, 1.245723e-001
3.625517e+003, 1.225270e-001
3.627446e+003, 1.206467e-001
3.629374e+003, 1.173055e-001
3.631303e+003, 1.131312e-001
3.633231e+003, 1.106672e-001
3.635160e+003, 1.079159e-001
3.637088e+003, 1.051453e-001
3.639017e+003, 1.017860e-001
3.640945e+003, 9.783709e-002
3.642874e+003, 9.510172e-002
3.644802e+003, 9.223133e-002
3.646730e+003, 8.952355e-002
3.648659e+003, 8.644761e-002
3.650587e+003, 8.189125e-002
3.652516e+003, 7.701210e-002
3.654444e+003, 7.344719e-002
3.656373e+003, 7.004416e-002
3.658301e+003, 6.593242e-002
3.660230e+003, 6.200718e-002
3.662158e+003, 5.764543e-002
3.664087e+003, 5.364723e-002
3.666015e+003, 5.065894e-002
3.667944e+003, 4.818958e-002
3.669872e+003, 4.500188e-002
3.671801e+003, 4.111091e-002
3.673729e+003, 3.962749e-002
3.675657e+003, 3.838902e-002
3.677586e+003, 3.365354e-002
3.679514e+003, 2.939368e-002
3.681443e+003, 2.723514e-002
3.683371e+003, 2.548645e-002
3.685300e+003, 2.250197e-002
3.687228e+003, 2.090419e-002
3.689157e+003, 1.981180e-002
3.691085e+003, 1.714254e-002
3.693014e+003, 1.454792e-002
3.694942e+003, 1.293926e-002
3.696871e+003, 1.164390e-002
3.698799e+003, 1.041485e-002
3.700728e+003, 9.660199e-003
3.702656e+003, 9.215030e-003
3.704584e+003, 8.100984e-003
3.706513e+003, 7.033788e-003
3.708441e+003, 6.129000e-003
3.710370e+003, 5.444693e-003
3.712298e+003, 4.013273e-003
3.714227e+003, 1.836071e-003
3.716155e+003, 3.867612e-004
3.718084e+003, -7.960611e-004
3.720012e+003, -1.531687e-003
3.721941e+003, -1.247379e-003
3.723869e+003, -1.880148e-003
3.725798e+003, -3.332053e-003
3.727726e+003, -3.971166e-003
3.729655e+003, -4.009853e-003
3.731583e+003, -3.870222e-003
3.733511e+003, -3.649594e-003
3.735440e+003, -3.592218e-003
3.737368e+003, -4.384946e-003
3.739297e+003, -5.578456e-003
3.741225e+003, -5.671921e-003
3.743154e+003, -3.548691e-003
3.745082e+003, -3.008515e-003
3.747011e+003, -4.721332e-003
3.748939e+003, -3.836372e-003
3.750868e+003, -3.975633e-003
3.752796e+003, -4.187579e-003
3.754725e+003, -5.217029e-003
3.756653e+003, -5.868408e-003
3.758582e+003, -5.851976e-003
3.760510e+003, -5.279092e-003
3.762438e+003, -5.739677e-003
3.764367e+003, -5.683742e-003
3.766295e+003, -5.398530e-003
3.768224e+003, -5.523282e-003
3.770152e+003, -5.828530e-003
3.772081e+003, -6.822458e-003
3.774009e+003, -7.540497e-003
3.775938e+003, -7.111438e-003
3.777866e+003, -6.466260e-003
3.779795e+003, -6.521370e-003
3.781723e+003, -6.939537e-003
3.783652e+003, -7.124247e-003
3.785580e+003, -7.238557e-003
3.787509e+003, -7.251780e-003
3.789437e+003, -7.166126e-003
3.791365e+003, -7.163680e-003
3.793294e+003, -7.207532e-003
3.795222e+003, -6.119112e-003
3.797151e+003, -5.589570e-003
3.799079e+003, -5.111388e-003
3.801008e+003, -4.894793e-003
3.802936e+003, -6.244930e-003
3.804865e+003, -6.433498e-003
3.806793e+003, -5.255448e-003
3.808722e+003, -6.283201e-003
3.810650e+003, -6.741693e-003
3.812579e+003, -6.114070e-003
3.814507e+003, -4.976568e-003
3.816436e+003, -4.963483e-003
3.818364e+003, -5.675149e-003
3.820292e+003, -5.037471e-003
3.822221e+003, -5.819149e-003
3.824149e+003, -6.760013e-003
3.826078e+003, -6.390698e-003
3.828006e+003, -6.558330e-003
3.829935e+003, -6.600976e-003
3.831863e+003, -6.559691e-003
3.833792e+003, -6.463827e-003
3.835720e+003, -5.688083e-003
3.837649e+003, -4.262959e-003
3.839577e+003, -4.856614e-003
3.841506e+003, -5.823612e-003
3.843434e+003, -5.440986e-003
3.845363e+003, -5.724648e-003
3.847291e+003, -6.039657e-003
3.849219e+003, -5.299641e-003
3.851148e+003, -3.881408e-003
3.853076e+003, -2.379718e-003
3.855005e+003, -3.909701e-003
3.856933e+003, -6.335191e-003
3.858862e+003, -6.602935e-003
3.860790e+003, -5.935899e-003
3.862719e+003, -4.860238e-003
3.864647e+003, -4.149194e-003
3.866576e+003, -4.609646e-003
3.868504e+003, -4.863141e-003
3.870433e+003, -4.978247e-003
3.872361e+003, -4.769156e-003
3.874290e+003, -4.688737e-003
3.876218e+003, -5.889733e-003
3.878146e+003, -6.066835e-003
3.880075e+003, -5.953176e-003
3.882003e+003, -5.759028e-003
3.883932e+003, -4.815924e-003
3.885860e+003, -4.368415e-003
3.887789e+003, -5.482155e-003
3.889717e+003, -5.311467e-003
3.891646e+003, -5.281868e-003
3.893574e+003, -5.598286e-003
3.895503e+003, -5.014229e-003
3.897431e+003, -5.066309e-003
3.899360e+003, -4.944406e-003
3.901288e+003, -4.294190e-003
3.903217e+003, -4.095213e-003
3.905145e+003, -4.590286e-003
3.907073e+003, -5.343818e-003
3.909002e+003, -5.966895e-003
3.910930e+003, -6.186015e-003
3.912859e+003, -5.506514e-003
3.914787e+003, -4.463207e-003
3.916716e+003, -4.838427e-003
3.918644e+003, -5.594324e-003
3.920573e+003, -5.828465e-003
3.922501e+003, -5.197351e-003
3.924430e+003, -5.188524e-003
3.926358e+003, -5.725907e-003
3.928287e+003, -5.661804e-003
3.930215e+003, -4.950729e-003
3.932144e+003, -4.814827e-003
3.934072e+003, -5.504305e-003
3.936000e+003, -6.242525e-003
3.937929e+003, -5.981809e-003
3.939857e+003, -5.761391e-003
3.941786e+003, -5.204939e-003
3.943714e+003, -4.551189e-003
3.945643e+003, -4.314815e-003
3.947571e+003, -4.976870e-003
3.949500e+003, -6.102429e-003
3.951428e+003, -6.729446e-003
3.953357e+003, -6.767987e-003
3.955285e+003, -6.412160e-003
3.957214e+003, -5.875725e-003
3.959142e+003, -6.296259e-003
3.961071e+003, -6.330733e-003
3.962999e+003, -5.913047e-003
3.964927e+003, -6.327915e-003
3.966856e+003, -6.210274e-003
3.968784e+003, -5.698424e-003
3.970713e+003, -5.410606e-003
3.972641e+003, -5.777347e-003
3.974570e+003, -5.932027e-003
3.976498e+003, -5.830409e-003
3.978427e+003, -6.421992e-003
3.980355e+003, -6.698152e-003
3.982284e+003, -6.898435e-003
3.984212e+003, -6.449549e-003
3.986141e+003, -5.789370e-003
3.988069e+003, -5.656140e-003
3.989998e+003, -5.422612e-003
3.991926e+003, -5.725728e-003
3.993854e+003, -5.979632e-003
3.995783e+003, -5.579147e-003
3.997711e+003, -5.448371e-003
3.999640e+003, -5.482329e-003
##END=



