##NAMES=Jamesonite
##RRUFFID=R050481
##IDEAL CHEMISTRY=Pb^2+^_4_Fe^2+^Sb^3+^_6_S^2-^_14_
##LOCALITY=Itos mine, Oruro City, Bolivia
##OWNER=RRUFF
##SOURCE=California Institute of Technology
##DESCRIPTION=A group of gray-black thickly acicular crystals
##STATUS=The identification of this mineral has been confirmed by X-ray diffraction and chemical analysis
##URL=rruff.info/R050481
##MEASURED CHEMISTRY=Pb_4.00_Fe_1.00_(Sb_5.97_As_0.03_)_Î£=6_S_14.00_
3.741225e+002, 1.454850e-001
3.760510e+002, 1.413130e-001
3.779795e+002, 1.474144e-001
3.799079e+002, 1.570185e-001
3.818364e+002, 1.733102e-001
3.837649e+002, 1.728794e-001
3.856933e+002, 1.722139e-001
3.876218e+002, 1.764700e-001
3.895503e+002, 1.808735e-001
3.914787e+002, 1.824693e-001
3.934072e+002, 1.907530e-001
3.953357e+002, 1.955447e-001
3.972641e+002, 1.986652e-001
3.991926e+002, 2.037097e-001
4.011211e+002, 2.039277e-001
4.030495e+002, 2.081745e-001
4.049780e+002, 2.139266e-001
4.069065e+002, 2.161205e-001
4.088349e+002, 2.203071e-001
4.107634e+002, 2.255890e-001
4.126919e+002, 2.308300e-001
4.146203e+002, 2.320575e-001
4.165488e+002, 2.323210e-001
4.184773e+002, 2.337097e-001
4.204057e+002, 2.355120e-001
4.223342e+002, 2.380060e-001
4.242627e+002, 2.415954e-001
4.261911e+002, 2.439488e-001
4.281196e+002, 2.456149e-001
4.300481e+002, 2.487777e-001
4.319765e+002, 2.537347e-001
4.339050e+002, 2.560039e-001
4.358335e+002, 2.569821e-001
4.377619e+002, 2.579097e-001
4.396904e+002, 2.598003e-001
4.416189e+002, 2.609687e-001
4.435473e+002, 2.614596e-001
4.454758e+002, 2.618330e-001
4.474043e+002, 2.660977e-001
4.493327e+002, 2.686496e-001
4.512612e+002, 2.703058e-001
4.531897e+002, 2.733668e-001
4.551181e+002, 2.758638e-001
4.570466e+002, 2.795221e-001
4.589751e+002, 2.832998e-001
4.609035e+002, 2.824913e-001
4.628320e+002, 2.817132e-001
4.647605e+002, 2.827590e-001
4.666889e+002, 2.851610e-001
4.686174e+002, 2.865468e-001
4.705459e+002, 2.885708e-001
4.724743e+002, 2.918650e-001
4.744028e+002, 2.927475e-001
4.763313e+002, 2.939629e-001
4.782597e+002, 2.968532e-001
4.801882e+002, 2.990261e-001
4.821167e+002, 2.995054e-001
4.840451e+002, 3.014157e-001
4.859736e+002, 3.037472e-001
4.879021e+002, 3.049903e-001
4.898305e+002, 3.057277e-001
4.917590e+002, 3.068529e-001
4.936875e+002, 3.103430e-001
4.956159e+002, 3.107186e-001
4.975444e+002, 3.134596e-001
4.994729e+002, 3.166160e-001
5.014013e+002, 3.188912e-001
5.033298e+002, 3.213080e-001
5.052583e+002, 3.234835e-001
5.071867e+002, 3.253707e-001
5.091152e+002, 3.238875e-001
5.110437e+002, 3.247652e-001
5.129721e+002, 3.280089e-001
5.149006e+002, 3.305298e-001
5.168290e+002, 3.326068e-001
5.187575e+002, 3.326036e-001
5.206860e+002, 3.326334e-001
5.226144e+002, 3.335365e-001
5.245429e+002, 3.361401e-001
5.264714e+002, 3.375752e-001
5.283998e+002, 3.383287e-001
5.303283e+002, 3.401242e-001
5.322568e+002, 3.403348e-001
5.341852e+002, 3.429315e-001
5.361137e+002, 3.458227e-001
5.380422e+002, 3.460468e-001
5.399706e+002, 3.459248e-001
5.418991e+002, 3.483844e-001
5.438276e+002, 3.495686e-001
5.457560e+002, 3.505932e-001
5.476845e+002, 3.544030e-001
5.496130e+002, 3.563618e-001
5.515414e+002, 3.572148e-001
5.534699e+002, 3.583994e-001
5.553984e+002, 3.597583e-001
5.573268e+002, 3.616530e-001
5.592553e+002, 3.630870e-001
5.611838e+002, 3.642547e-001
5.631122e+002, 3.643089e-001
5.650407e+002, 3.644980e-001
5.669692e+002, 3.660282e-001
5.688976e+002, 3.674183e-001
5.708261e+002, 3.698341e-001
5.727546e+002, 3.707741e-001
5.746830e+002, 3.718294e-001
5.766115e+002, 3.719588e-001
5.785400e+002, 3.729908e-001
5.804684e+002, 3.738821e-001
5.823969e+002, 3.759025e-001
5.843254e+002, 3.770384e-001
5.862538e+002, 3.790205e-001
5.881823e+002, 3.807288e-001
5.901108e+002, 3.811087e-001
5.920392e+002, 3.826864e-001
5.939677e+002, 3.844760e-001
5.958962e+002, 3.854788e-001
5.978246e+002, 3.858168e-001
5.997531e+002, 3.866641e-001
6.016816e+002, 3.874699e-001
6.036100e+002, 3.878695e-001
6.055385e+002, 3.888946e-001
6.074670e+002, 3.897724e-001
6.093954e+002, 3.888239e-001
6.113239e+002, 3.898982e-001
6.132524e+002, 3.906403e-001
6.151808e+002, 3.908798e-001
6.171093e+002, 3.916083e-001
6.190378e+002, 3.921387e-001
6.209662e+002, 3.922434e-001
6.228947e+002, 3.932837e-001
6.248232e+002, 3.945124e-001
6.267516e+002, 3.953557e-001
6.286801e+002, 3.958174e-001
6.306086e+002, 3.966523e-001
6.325370e+002, 3.967378e-001
6.344655e+002, 3.971409e-001
6.363940e+002, 3.979881e-001
6.383224e+002, 3.984412e-001
6.402509e+002, 3.985668e-001
6.421794e+002, 3.986815e-001
6.441078e+002, 3.992854e-001
6.460363e+002, 3.993111e-001
6.479648e+002, 3.995952e-001
6.498932e+002, 3.996089e-001
6.518217e+002, 3.999050e-001
6.537502e+002, 4.007098e-001
6.556786e+002, 4.012364e-001
6.576071e+002, 4.015167e-001
6.595356e+002, 4.015732e-001
6.614641e+002, 4.021595e-001
6.633925e+002, 4.036433e-001
6.653210e+002, 4.042875e-001
6.672495e+002, 4.050714e-001
6.691779e+002, 4.053437e-001
6.711064e+002, 4.050080e-001
6.730349e+002, 4.057859e-001
6.749633e+002, 4.073249e-001
6.768918e+002, 4.080134e-001
6.788203e+002, 4.084201e-001
6.807487e+002, 4.097049e-001
6.826772e+002, 4.104734e-001
6.846057e+002, 4.109136e-001
6.865341e+002, 4.121149e-001
6.884626e+002, 4.124252e-001
6.903911e+002, 4.125637e-001
6.923195e+002, 4.136329e-001
6.942480e+002, 4.139805e-001
6.961765e+002, 4.148768e-001
6.981049e+002, 4.154963e-001
7.000334e+002, 4.171691e-001
7.019619e+002, 4.169770e-001
7.038903e+002, 4.177680e-001
7.058188e+002, 4.190024e-001
7.077473e+002, 4.191115e-001
7.096757e+002, 4.197410e-001
7.116042e+002, 4.215851e-001
7.135327e+002, 4.227050e-001
7.154611e+002, 4.226736e-001
7.173896e+002, 4.227006e-001
7.193181e+002, 4.235323e-001
7.212465e+002, 4.238250e-001
7.231750e+002, 4.243509e-001
7.251035e+002, 4.258105e-001
7.270319e+002, 4.263863e-001
7.289604e+002, 4.270121e-001
7.308889e+002, 4.277786e-001
7.328173e+002, 4.282024e-001
7.347458e+002, 4.284328e-001
7.366743e+002, 4.294232e-001
7.386027e+002, 4.304330e-001
7.405312e+002, 4.307193e-001
7.424597e+002, 4.302013e-001
7.443881e+002, 4.306462e-001
7.463166e+002, 4.319084e-001
7.482451e+002, 4.323751e-001
7.501735e+002, 4.329163e-001
7.521020e+002, 4.336126e-001
7.540305e+002, 4.336581e-001
7.559589e+002, 4.339483e-001
7.578874e+002, 4.341479e-001
7.598159e+002, 4.346362e-001
7.617443e+002, 4.351837e-001
7.636728e+002, 4.356799e-001
7.656013e+002, 4.360391e-001
7.675297e+002, 4.366111e-001
7.694582e+002, 4.369766e-001
7.713867e+002, 4.375514e-001
7.733151e+002, 4.372575e-001
7.752436e+002, 4.377102e-001
7.771721e+002, 4.390145e-001
7.791005e+002, 4.401342e-001
7.810290e+002, 4.408813e-001
7.829575e+002, 4.419286e-001
7.848859e+002, 4.422076e-001
7.868144e+002, 4.423327e-001
7.887429e+002, 4.430636e-001
7.906713e+002, 4.448153e-001
7.925998e+002, 4.453848e-001
7.945283e+002, 4.450591e-001
7.964567e+002, 4.457650e-001
7.983852e+002, 4.460603e-001
8.003137e+002, 4.466511e-001
8.022421e+002, 4.473211e-001
8.041706e+002, 4.481336e-001
8.060991e+002, 4.488394e-001
8.080275e+002, 4.491630e-001
8.099560e+002, 4.505135e-001
8.118845e+002, 4.515587e-001
8.138129e+002, 4.516557e-001
8.157414e+002, 4.519317e-001
8.176699e+002, 4.522599e-001
8.195983e+002, 4.526936e-001
8.215268e+002, 4.537455e-001
8.234553e+002, 4.547895e-001
8.253837e+002, 4.554836e-001
8.273122e+002, 4.566544e-001
8.292407e+002, 4.572195e-001
8.311691e+002, 4.575794e-001
8.330976e+002, 4.573898e-001
8.350261e+002, 4.587390e-001
8.369545e+002, 4.594717e-001
8.388830e+002, 4.599636e-001
8.408115e+002, 4.610647e-001
8.427399e+002, 4.620972e-001
8.446684e+002, 4.633900e-001
8.465969e+002, 4.644417e-001
8.485253e+002, 4.653502e-001
8.504538e+002, 4.661801e-001
8.523823e+002, 4.671113e-001
8.543107e+002, 4.682013e-001
8.562392e+002, 4.688066e-001
8.581677e+002, 4.710364e-001
8.600961e+002, 4.724608e-001
8.620246e+002, 4.727480e-001
8.639531e+002, 4.734222e-001
8.658815e+002, 4.745725e-001
8.678100e+002, 4.759317e-001
8.697385e+002, 4.766272e-001
8.716669e+002, 4.771374e-001
8.735954e+002, 4.784513e-001
8.755239e+002, 4.800588e-001
8.774523e+002, 4.813105e-001
8.793808e+002, 4.818861e-001
8.813093e+002, 4.827572e-001
8.832377e+002, 4.832986e-001
8.851662e+002, 4.840616e-001
8.870947e+002, 4.853836e-001
8.890231e+002, 4.866891e-001
8.909516e+002, 4.880296e-001
8.928801e+002, 4.891086e-001
8.948085e+002, 4.903492e-001
8.967370e+002, 4.905926e-001
8.986655e+002, 4.911363e-001
9.005939e+002, 4.922369e-001
9.025224e+002, 4.938512e-001
9.044509e+002, 4.950007e-001
9.063793e+002, 4.958496e-001
9.083078e+002, 4.970427e-001
9.102363e+002, 4.982025e-001
9.121647e+002, 4.992915e-001
9.140932e+002, 5.004674e-001
9.160217e+002, 5.015696e-001
9.179501e+002, 5.025559e-001
9.198786e+002, 5.037764e-001
9.218071e+002, 5.051013e-001
9.237355e+002, 5.064366e-001
9.256640e+002, 5.072343e-001
9.275925e+002, 5.079669e-001
9.295209e+002, 5.091851e-001
9.314494e+002, 5.102456e-001
9.333779e+002, 5.114314e-001
9.353063e+002, 5.130264e-001
9.372348e+002, 5.143401e-001
9.391633e+002, 5.151467e-001
9.410917e+002, 5.161304e-001
9.430202e+002, 5.176995e-001
9.449487e+002, 5.191197e-001
9.468771e+002, 5.203707e-001
9.488056e+002, 5.213897e-001
9.507341e+002, 5.227517e-001
9.526625e+002, 5.239133e-001
9.545910e+002, 5.250049e-001
9.565195e+002, 5.268007e-001
9.584479e+002, 5.285252e-001
9.603764e+002, 5.297303e-001
9.623049e+002, 5.305627e-001
9.642333e+002, 5.313236e-001
9.661618e+002, 5.324771e-001
9.680903e+002, 5.341037e-001
9.700187e+002, 5.353705e-001
9.719472e+002, 5.362622e-001
9.738757e+002, 5.375116e-001
9.758041e+002, 5.387261e-001
9.777326e+002, 5.394128e-001
9.796611e+002, 5.404688e-001
9.815895e+002, 5.416507e-001
9.835180e+002, 5.424336e-001
9.854465e+002, 5.432239e-001
9.873749e+002, 5.438841e-001
9.893034e+002, 5.443836e-001
9.912319e+002, 5.451205e-001
9.931603e+002, 5.459961e-001
9.950888e+002, 5.465105e-001
9.970173e+002, 5.473437e-001
9.989457e+002, 5.484355e-001
1.000874e+003, 5.500410e-001
1.002803e+003, 5.519402e-001
1.004731e+003, 5.536789e-001
1.006660e+003, 5.556549e-001
1.008588e+003, 5.575972e-001
1.010517e+003, 5.589215e-001
1.012445e+003, 5.599883e-001
1.014373e+003, 5.613515e-001
1.016302e+003, 5.625554e-001
1.018230e+003, 5.634905e-001
1.020159e+003, 5.643292e-001
1.022087e+003, 5.652181e-001
1.024016e+003, 5.664856e-001
1.025944e+003, 5.682163e-001
1.027873e+003, 5.703963e-001
1.029801e+003, 5.718291e-001
1.031730e+003, 5.730168e-001
1.033658e+003, 5.737598e-001
1.035587e+003, 5.746441e-001
1.037515e+003, 5.755045e-001
1.039443e+003, 5.761024e-001
1.041372e+003, 5.769593e-001
1.043300e+003, 5.775347e-001
1.045229e+003, 5.777272e-001
1.047157e+003, 5.777616e-001
1.049086e+003, 5.778132e-001
1.051014e+003, 5.786572e-001
1.052943e+003, 5.790136e-001
1.054871e+003, 5.789680e-001
1.056800e+003, 5.791543e-001
1.058728e+003, 5.794525e-001
1.060657e+003, 5.802952e-001
1.062585e+003, 5.812739e-001
1.064514e+003, 5.814337e-001
1.066442e+003, 5.815896e-001
1.068370e+003, 5.821050e-001
1.070299e+003, 5.825318e-001
1.072227e+003, 5.830638e-001
1.074156e+003, 5.835475e-001
1.076084e+003, 5.838313e-001
1.078013e+003, 5.845119e-001
1.079941e+003, 5.855755e-001
1.081870e+003, 5.864891e-001
1.083798e+003, 5.871980e-001
1.085727e+003, 5.880405e-001
1.087655e+003, 5.888538e-001
1.089584e+003, 5.892838e-001
1.091512e+003, 5.894227e-001
1.093441e+003, 5.895641e-001
1.095369e+003, 5.900511e-001
1.097297e+003, 5.907398e-001
1.099226e+003, 5.909622e-001
1.101154e+003, 5.906859e-001
1.103083e+003, 5.903434e-001
1.105011e+003, 5.906385e-001
1.106940e+003, 5.909528e-001
1.108868e+003, 5.908822e-001
1.110797e+003, 5.905804e-001
1.112725e+003, 5.903785e-001
1.114654e+003, 5.908047e-001
1.116582e+003, 5.915533e-001
1.118511e+003, 5.918956e-001
1.120439e+003, 5.923136e-001
1.122368e+003, 5.931098e-001
1.124296e+003, 5.934964e-001
1.126224e+003, 5.934694e-001
1.128153e+003, 5.938234e-001
1.130081e+003, 5.946991e-001
1.132010e+003, 5.958675e-001
1.133938e+003, 5.972083e-001
1.135867e+003, 5.983678e-001
1.137795e+003, 5.996349e-001
1.139724e+003, 6.006910e-001
1.141652e+003, 6.014819e-001
1.143581e+003, 6.020690e-001
1.145509e+003, 6.021401e-001
1.147438e+003, 6.020120e-001
1.149366e+003, 6.021311e-001
1.151295e+003, 6.021764e-001
1.153223e+003, 6.016521e-001
1.155151e+003, 6.013472e-001
1.157080e+003, 6.012794e-001
1.159008e+003, 6.011292e-001
1.160937e+003, 6.006923e-001
1.162865e+003, 6.003347e-001
1.164794e+003, 6.001617e-001
1.166722e+003, 6.000975e-001
1.168651e+003, 5.997618e-001
1.170579e+003, 5.993434e-001
1.172508e+003, 5.996257e-001
1.174436e+003, 5.998580e-001
1.176365e+003, 5.998551e-001
1.178293e+003, 6.001842e-001
1.180222e+003, 6.006050e-001
1.182150e+003, 6.007115e-001
1.184078e+003, 6.009170e-001
1.186007e+003, 6.014409e-001
1.187935e+003, 6.020262e-001
1.189864e+003, 6.029673e-001
1.191792e+003, 6.035261e-001
1.193721e+003, 6.038818e-001
1.195649e+003, 6.044864e-001
1.197578e+003, 6.053581e-001
1.199506e+003, 6.059426e-001
1.201435e+003, 6.065085e-001
1.203363e+003, 6.067664e-001
1.205292e+003, 6.067814e-001
1.207220e+003, 6.073021e-001
1.209149e+003, 6.075331e-001
1.211077e+003, 6.075036e-001
1.213005e+003, 6.079603e-001
1.214934e+003, 6.084297e-001
1.216862e+003, 6.090823e-001
1.218791e+003, 6.095049e-001
1.220719e+003, 6.096130e-001
1.222648e+003, 6.102749e-001
1.224576e+003, 6.108356e-001
1.226505e+003, 6.113284e-001
1.228433e+003, 6.119102e-001
1.230362e+003, 6.118267e-001
1.232290e+003, 6.119499e-001
1.234219e+003, 6.123747e-001
1.236147e+003, 6.126876e-001
1.238076e+003, 6.131475e-001
1.240004e+003, 6.141381e-001
1.241932e+003, 6.148389e-001
1.243861e+003, 6.151394e-001
1.245789e+003, 6.153102e-001
1.247718e+003, 6.158450e-001
1.249646e+003, 6.163653e-001
1.251575e+003, 6.169123e-001
1.253503e+003, 6.174726e-001
1.255432e+003, 6.177056e-001
1.257360e+003, 6.183250e-001
1.259289e+003, 6.190872e-001
1.261217e+003, 6.196858e-001
1.263146e+003, 6.198382e-001
1.265074e+003, 6.201258e-001
1.267003e+003, 6.208191e-001
1.268931e+003, 6.216028e-001
1.270859e+003, 6.226445e-001
1.272788e+003, 6.238325e-001
1.274716e+003, 6.250209e-001
1.276645e+003, 6.259863e-001
1.278573e+003, 6.266677e-001
1.280502e+003, 6.271473e-001
1.282430e+003, 6.277980e-001
1.284359e+003, 6.282682e-001
1.286287e+003, 6.284608e-001
1.288216e+003, 6.287013e-001
1.290144e+003, 6.293133e-001
1.292073e+003, 6.302185e-001
1.294001e+003, 6.308313e-001
1.295930e+003, 6.311002e-001
1.297858e+003, 6.316833e-001
1.299786e+003, 6.324744e-001
1.301715e+003, 6.330795e-001
1.303643e+003, 6.334423e-001
1.305572e+003, 6.338224e-001
1.307500e+003, 6.344698e-001
1.309429e+003, 6.352456e-001
1.311357e+003, 6.355952e-001
1.313286e+003, 6.362305e-001
1.315214e+003, 6.368484e-001
1.317143e+003, 6.371580e-001
1.319071e+003, 6.375564e-001
1.321000e+003, 6.380867e-001
1.322928e+003, 6.387531e-001
1.324857e+003, 6.391377e-001
1.326785e+003, 6.396032e-001
1.328714e+003, 6.400759e-001
1.330642e+003, 6.405320e-001
1.332570e+003, 6.413531e-001
1.334499e+003, 6.425003e-001
1.336427e+003, 6.434572e-001
1.338356e+003, 6.438689e-001
1.340284e+003, 6.444781e-001
1.342213e+003, 6.451101e-001
1.344141e+003, 6.458144e-001
1.346070e+003, 6.467418e-001
1.347998e+003, 6.474575e-001
1.349927e+003, 6.483319e-001
1.351855e+003, 6.492040e-001
1.353784e+003, 6.501368e-001
1.355712e+003, 6.510512e-001
1.357641e+003, 6.515712e-001
1.359569e+003, 6.522254e-001
1.361497e+003, 6.530546e-001
1.363426e+003, 6.536604e-001
1.365354e+003, 6.543742e-001
1.367283e+003, 6.553505e-001
1.369211e+003, 6.559575e-001
1.371140e+003, 6.565989e-001
1.373068e+003, 6.574442e-001
1.374997e+003, 6.583157e-001
1.376925e+003, 6.589553e-001
1.378854e+003, 6.596052e-001
1.380782e+003, 6.601514e-001
1.382711e+003, 6.607422e-001
1.384639e+003, 6.610557e-001
1.386568e+003, 6.614515e-001
1.388496e+003, 6.618930e-001
1.390424e+003, 6.623674e-001
1.392353e+003, 6.630496e-001
1.394281e+003, 6.640188e-001
1.396210e+003, 6.649329e-001
1.398138e+003, 6.656948e-001
1.400067e+003, 6.663441e-001
1.401995e+003, 6.669638e-001
1.403924e+003, 6.676053e-001
1.405852e+003, 6.683314e-001
1.407781e+003, 6.692247e-001
1.409709e+003, 6.700234e-001
1.411638e+003, 6.707644e-001
1.413566e+003, 6.715102e-001
1.415495e+003, 6.721596e-001
1.417423e+003, 6.725860e-001
1.419351e+003, 6.733417e-001
1.421280e+003, 6.742709e-001
1.423208e+003, 6.747361e-001
1.425137e+003, 6.753485e-001
1.427065e+003, 6.759472e-001
1.428994e+003, 6.767595e-001
1.430922e+003, 6.775944e-001
1.432851e+003, 6.782280e-001
1.434779e+003, 6.788901e-001
1.436708e+003, 6.797066e-001
1.438636e+003, 6.805694e-001
1.440565e+003, 6.812152e-001
1.442493e+003, 6.816102e-001
1.444422e+003, 6.818987e-001
1.446350e+003, 6.820738e-001
1.448278e+003, 6.824006e-001
1.450207e+003, 6.828122e-001
1.452135e+003, 6.834549e-001
1.454064e+003, 6.839573e-001
1.455992e+003, 6.845558e-001
1.457921e+003, 6.849747e-001
1.459849e+003, 6.850294e-001
1.461778e+003, 6.851368e-001
1.463706e+003, 6.853669e-001
1.465635e+003, 6.859644e-001
1.467563e+003, 6.863814e-001
1.469492e+003, 6.863372e-001
1.471420e+003, 6.863946e-001
1.473349e+003, 6.868193e-001
1.475277e+003, 6.873180e-001
1.477205e+003, 6.877753e-001
1.479134e+003, 6.882731e-001
1.481062e+003, 6.890182e-001
1.482991e+003, 6.896224e-001
1.484919e+003, 6.899170e-001
1.486848e+003, 6.905107e-001
1.488776e+003, 6.912122e-001
1.490705e+003, 6.918350e-001
1.492633e+003, 6.925915e-001
1.494562e+003, 6.935395e-001
1.496490e+003, 6.941088e-001
1.498419e+003, 6.945065e-001
1.500347e+003, 6.951687e-001
1.502276e+003, 6.961340e-001
1.504204e+003, 6.969770e-001
1.506132e+003, 6.979023e-001
1.508061e+003, 6.987771e-001
1.509989e+003, 6.991612e-001
1.511918e+003, 6.996105e-001
1.513846e+003, 7.005000e-001
1.515775e+003, 7.011583e-001
1.517703e+003, 7.019702e-001
1.519632e+003, 7.031625e-001
1.521560e+003, 7.041263e-001
1.523489e+003, 7.047986e-001
1.525417e+003, 7.057607e-001
1.527346e+003, 7.063702e-001
1.529274e+003, 7.071986e-001
1.531203e+003, 7.080305e-001
1.533131e+003, 7.084472e-001
1.535059e+003, 7.091535e-001
1.536988e+003, 7.099194e-001
1.538916e+003, 7.106100e-001
1.540845e+003, 7.113289e-001
1.542773e+003, 7.121600e-001
1.544702e+003, 7.128269e-001
1.546630e+003, 7.138666e-001
1.548559e+003, 7.147250e-001
1.550487e+003, 7.151206e-001
1.552416e+003, 7.155601e-001
1.554344e+003, 7.161150e-001
1.556273e+003, 7.168158e-001
1.558201e+003, 7.177022e-001
1.560130e+003, 7.181568e-001
1.562058e+003, 7.185349e-001
1.563986e+003, 7.191672e-001
1.565915e+003, 7.197668e-001
1.567843e+003, 7.205588e-001
1.569772e+003, 7.216682e-001
1.571700e+003, 7.222742e-001
1.573629e+003, 7.227511e-001
1.575557e+003, 7.235393e-001
1.577486e+003, 7.243859e-001
1.579414e+003, 7.250090e-001
1.581343e+003, 7.261024e-001
1.583271e+003, 7.271253e-001
1.585200e+003, 7.276188e-001
1.587128e+003, 7.280288e-001
1.589057e+003, 7.281013e-001
1.590985e+003, 7.285045e-001
1.592913e+003, 7.295337e-001
1.594842e+003, 7.305890e-001
1.596770e+003, 7.313132e-001
1.598699e+003, 7.318569e-001
1.600627e+003, 7.320266e-001
1.602556e+003, 7.324056e-001
1.604484e+003, 7.329510e-001
1.606413e+003, 7.337723e-001
1.608341e+003, 7.349526e-001
1.610270e+003, 7.355678e-001
1.612198e+003, 7.359164e-001
1.614127e+003, 7.364072e-001
1.616055e+003, 7.366955e-001
1.617984e+003, 7.372688e-001
1.619912e+003, 7.379688e-001
1.621840e+003, 7.383465e-001
1.623769e+003, 7.386725e-001
1.625697e+003, 7.391552e-001
1.627626e+003, 7.395854e-001
1.629554e+003, 7.398447e-001
1.631483e+003, 7.399427e-001
1.633411e+003, 7.405940e-001
1.635340e+003, 7.414464e-001
1.637268e+003, 7.420003e-001
1.639197e+003, 7.420709e-001
1.641125e+003, 7.422324e-001
1.643054e+003, 7.426134e-001
1.644982e+003, 7.427334e-001
1.646911e+003, 7.430894e-001
1.648839e+003, 7.437527e-001
1.650767e+003, 7.440398e-001
1.652696e+003, 7.446693e-001
1.654624e+003, 7.453406e-001
1.656553e+003, 7.455896e-001
1.658481e+003, 7.459935e-001
1.660410e+003, 7.463310e-001
1.662338e+003, 7.464919e-001
1.664267e+003, 7.468803e-001
1.666195e+003, 7.473776e-001
1.668124e+003, 7.478213e-001
1.670052e+003, 7.481030e-001
1.671981e+003, 7.488187e-001
1.673909e+003, 7.498246e-001
1.675838e+003, 7.499971e-001
1.677766e+003, 7.502850e-001
1.679694e+003, 7.513874e-001
1.681623e+003, 7.520209e-001
1.683551e+003, 7.523808e-001
1.685480e+003, 7.530341e-001
1.687408e+003, 7.537150e-001
1.689337e+003, 7.541215e-001
1.691265e+003, 7.547526e-001
1.693194e+003, 7.551842e-001
1.695122e+003, 7.559788e-001
1.697051e+003, 7.570877e-001
1.698979e+003, 7.577522e-001
1.700908e+003, 7.579238e-001
1.702836e+003, 7.586213e-001
1.704765e+003, 7.594620e-001
1.706693e+003, 7.602684e-001
1.708621e+003, 7.611134e-001
1.710550e+003, 7.615042e-001
1.712478e+003, 7.620266e-001
1.714407e+003, 7.625690e-001
1.716335e+003, 7.630784e-001
1.718264e+003, 7.638410e-001
1.720192e+003, 7.642679e-001
1.722121e+003, 7.646248e-001
1.724049e+003, 7.647781e-001
1.725978e+003, 7.649157e-001
1.727906e+003, 7.655139e-001
1.729835e+003, 7.658662e-001
1.731763e+003, 7.657250e-001
1.733692e+003, 7.656444e-001
1.735620e+003, 7.658327e-001
1.737548e+003, 7.662238e-001
1.739477e+003, 7.663176e-001
1.741405e+003, 7.665210e-001
1.743334e+003, 7.659333e-001
1.745262e+003, 7.658424e-001
1.747191e+003, 7.663425e-001
1.749119e+003, 7.663724e-001
1.751048e+003, 7.662380e-001
1.752976e+003, 7.667455e-001
1.754905e+003, 7.670491e-001
1.756833e+003, 7.675895e-001
1.758762e+003, 7.683198e-001
1.760690e+003, 7.690126e-001
1.762619e+003, 7.696535e-001
1.764547e+003, 7.701867e-001
1.766475e+003, 7.703296e-001
1.768404e+003, 7.705554e-001
1.770332e+003, 7.711018e-001
1.772261e+003, 7.718899e-001
1.774189e+003, 7.722502e-001
1.776118e+003, 7.725731e-001
1.778046e+003, 7.729198e-001
1.779975e+003, 7.736651e-001
1.781903e+003, 7.742898e-001
1.783832e+003, 7.748871e-001
1.785760e+003, 7.759824e-001
1.787689e+003, 7.764289e-001
1.789617e+003, 7.762171e-001
1.791546e+003, 7.767807e-001
1.793474e+003, 7.773414e-001
1.795402e+003, 7.775103e-001
1.797331e+003, 7.774293e-001
1.799259e+003, 7.780303e-001
1.801188e+003, 7.789265e-001
1.803116e+003, 7.798601e-001
1.805045e+003, 7.801161e-001
1.806973e+003, 7.802569e-001
1.808902e+003, 7.806770e-001
1.810830e+003, 7.813865e-001
1.812759e+003, 7.818750e-001
1.814687e+003, 7.820473e-001
1.816616e+003, 7.825143e-001
1.818544e+003, 7.829889e-001
1.820473e+003, 7.836970e-001
1.822401e+003, 7.841344e-001
1.824329e+003, 7.843443e-001
1.826258e+003, 7.847657e-001
1.828186e+003, 7.848624e-001
1.830115e+003, 7.854528e-001
1.832043e+003, 7.863333e-001
1.833972e+003, 7.872480e-001
1.835900e+003, 7.874022e-001
1.837829e+003, 7.875747e-001
1.839757e+003, 7.879037e-001
1.841686e+003, 7.884601e-001
1.843614e+003, 7.893560e-001
1.845543e+003, 7.901259e-001
1.847471e+003, 7.903723e-001
1.849400e+003, 7.906754e-001
1.851328e+003, 7.909079e-001
1.853256e+003, 7.912694e-001
1.855185e+003, 7.919520e-001
1.857113e+003, 7.925337e-001
1.859042e+003, 7.926158e-001
1.860970e+003, 7.933878e-001
1.862899e+003, 7.940025e-001
1.864827e+003, 7.942790e-001
1.866756e+003, 7.953454e-001
1.868684e+003, 7.961931e-001
1.870613e+003, 7.963691e-001
1.872541e+003, 7.964848e-001
1.874470e+003, 7.964877e-001
1.876398e+003, 7.975692e-001
1.878327e+003, 7.977437e-001
1.880255e+003, 7.973202e-001
1.882183e+003, 7.971339e-001
1.884112e+003, 7.973180e-001
1.886040e+003, 7.993521e-001
1.887969e+003, 8.015101e-001
1.889897e+003, 8.019516e-001
1.891826e+003, 8.021256e-001
1.893754e+003, 8.029794e-001
1.895683e+003, 8.026454e-001
1.897611e+003, 8.038737e-001
1.899540e+003, 8.052452e-001
1.901468e+003, 8.050569e-001
1.903397e+003, 8.049430e-001
1.905325e+003, 8.067296e-001
1.907254e+003, 8.073804e-001
1.909182e+003, 8.073419e-001
1.911110e+003, 8.078336e-001
1.913039e+003, 8.082882e-001
1.914967e+003, 8.082803e-001
1.916896e+003, 8.090199e-001
1.918824e+003, 8.093904e-001
1.920753e+003, 8.099074e-001
1.922681e+003, 8.105235e-001
1.924610e+003, 8.104042e-001
1.926538e+003, 8.120838e-001
1.928467e+003, 8.137580e-001
1.930395e+003, 8.128073e-001
1.932324e+003, 8.128727e-001
1.934252e+003, 8.147410e-001
1.936181e+003, 8.147967e-001
1.938109e+003, 8.142310e-001
1.940037e+003, 8.146623e-001
1.941966e+003, 8.152541e-001
1.943894e+003, 8.153293e-001
1.945823e+003, 8.149698e-001
1.947751e+003, 8.158404e-001
1.949680e+003, 8.181084e-001
1.951608e+003, 8.175322e-001
1.953537e+003, 8.161475e-001
1.955465e+003, 8.143965e-001
1.957394e+003, 8.162512e-001
1.959322e+003, 8.191359e-001
1.961251e+003, 8.193235e-001
1.963179e+003, 8.185296e-001
1.965108e+003, 8.202850e-001
1.967036e+003, 8.174798e-001
1.968964e+003, 8.146787e-001
1.970893e+003, 8.177531e-001
1.972821e+003, 8.190348e-001
1.974750e+003, 8.193645e-001
1.976678e+003, 8.193221e-001
1.978607e+003, 8.178489e-001
1.980535e+003, 8.186058e-001
1.982464e+003, 8.208740e-001
1.984392e+003, 8.233083e-001
1.986321e+003, 8.237812e-001
1.988249e+003, 8.236982e-001
1.990178e+003, 8.264157e-001
1.992106e+003, 8.288490e-001
1.994035e+003, 8.270705e-001
1.995963e+003, 8.282115e-001
1.997891e+003, 8.305389e-001
1.999820e+003, 8.313679e-001
2.001748e+003, 8.300408e-001
2.003677e+003, 8.264899e-001
2.005605e+003, 8.269061e-001
2.007534e+003, 8.321096e-001
2.009462e+003, 8.342711e-001
2.011391e+003, 8.322840e-001
2.013319e+003, 8.306618e-001
2.015248e+003, 8.297458e-001
2.017176e+003, 8.319012e-001
2.019105e+003, 8.350669e-001
2.021033e+003, 8.346601e-001
2.022962e+003, 8.339332e-001
2.024890e+003, 8.373451e-001
2.026818e+003, 8.361186e-001
2.028747e+003, 8.388548e-001
2.030675e+003, 8.405907e-001
2.032604e+003, 8.393244e-001
2.034532e+003, 8.368863e-001
2.036461e+003, 8.335859e-001
2.038389e+003, 8.360533e-001
2.040318e+003, 8.394029e-001
2.042246e+003, 8.417899e-001
2.044175e+003, 8.427386e-001
2.046103e+003, 8.406690e-001
2.048031e+003, 8.408052e-001
2.049960e+003, 8.446340e-001
2.051888e+003, 8.484047e-001
2.053817e+003, 8.502738e-001
2.055745e+003, 8.518374e-001
2.057674e+003, 8.530914e-001
2.059602e+003, 8.512985e-001
2.061531e+003, 8.494225e-001
2.063459e+003, 8.486789e-001
2.065388e+003, 8.494718e-001
2.067316e+003, 8.514485e-001
2.069245e+003, 8.532224e-001
2.071173e+003, 8.538919e-001
2.073102e+003, 8.532821e-001
2.075030e+003, 8.550625e-001
2.076958e+003, 8.560916e-001
2.078887e+003, 8.576456e-001
2.080815e+003, 8.595408e-001
2.082744e+003, 8.598101e-001
2.084672e+003, 8.617532e-001
2.086601e+003, 8.615367e-001
2.088529e+003, 8.613214e-001
2.090458e+003, 8.619370e-001
2.092386e+003, 8.639067e-001
2.094315e+003, 8.638685e-001
2.096243e+003, 8.638119e-001
2.098172e+003, 8.649434e-001
2.100100e+003, 8.662692e-001
2.102029e+003, 8.677049e-001
2.103957e+003, 8.684299e-001
2.105885e+003, 8.687043e-001
2.107814e+003, 8.690020e-001
2.109742e+003, 8.684341e-001
2.111671e+003, 8.691986e-001
2.113599e+003, 8.702278e-001
2.115528e+003, 8.714560e-001
2.117456e+003, 8.714271e-001
2.119385e+003, 8.716955e-001
2.121313e+003, 8.703132e-001
2.123242e+003, 8.723344e-001
2.125170e+003, 8.750560e-001
2.127099e+003, 8.750474e-001
2.129027e+003, 8.757190e-001
2.130956e+003, 8.773198e-001
2.132884e+003, 8.760875e-001
2.134813e+003, 8.740978e-001
2.136741e+003, 8.751125e-001
2.138669e+003, 8.754868e-001
2.140598e+003, 8.757190e-001
2.142526e+003, 8.752976e-001
2.144455e+003, 8.739194e-001
2.146383e+003, 8.747728e-001
2.148312e+003, 8.776985e-001
2.150240e+003, 8.763977e-001
2.152169e+003, 8.764624e-001
2.154097e+003, 8.809142e-001
2.156026e+003, 8.804227e-001
2.157954e+003, 8.762891e-001
2.159883e+003, 8.748232e-001
2.161811e+003, 8.730001e-001
2.163740e+003, 8.747712e-001
2.165668e+003, 8.794172e-001
2.167596e+003, 8.807648e-001
2.169525e+003, 8.811831e-001
2.171453e+003, 8.798916e-001
2.173382e+003, 8.823649e-001
2.175310e+003, 8.809233e-001
2.177239e+003, 8.818771e-001
2.179167e+003, 8.838054e-001
2.181096e+003, 8.857328e-001
2.183024e+003, 8.866752e-001
2.184953e+003, 8.864229e-001
2.186881e+003, 8.851278e-001
2.188810e+003, 8.858722e-001
2.190738e+003, 8.858169e-001
2.192667e+003, 8.840624e-001
2.194595e+003, 8.867689e-001
2.196523e+003, 8.923481e-001
2.198452e+003, 8.915555e-001
2.200380e+003, 8.906459e-001
2.202309e+003, 8.925973e-001
2.204237e+003, 8.945263e-001
2.206166e+003, 8.933302e-001
2.208094e+003, 8.916577e-001
2.210023e+003, 8.922806e-001
2.211951e+003, 8.934738e-001
2.213880e+003, 8.943183e-001
2.215808e+003, 8.962743e-001
2.217737e+003, 8.994950e-001
2.219665e+003, 9.008712e-001
2.221594e+003, 8.976451e-001
2.223522e+003, 8.957322e-001
2.225450e+003, 8.971651e-001
2.227379e+003, 8.994417e-001
2.229307e+003, 9.006410e-001
2.231236e+003, 8.998662e-001
2.233164e+003, 9.012172e-001
2.235093e+003, 9.035748e-001
2.237021e+003, 9.050314e-001
2.238950e+003, 9.072649e-001
2.240878e+003, 9.081974e-001
2.242807e+003, 9.073381e-001
2.244735e+003, 9.061924e-001
2.246664e+003, 9.075180e-001
2.248592e+003, 9.104657e-001
2.250521e+003, 9.111782e-001
2.252449e+003, 9.105364e-001
2.254377e+003, 9.104477e-001
2.256306e+003, 9.106822e-001
2.258234e+003, 9.103760e-001
2.260163e+003, 9.098980e-001
2.262091e+003, 9.108623e-001
2.264020e+003, 9.122901e-001
2.265948e+003, 9.123335e-001
2.267877e+003, 9.125915e-001
2.269805e+003, 9.157166e-001
2.271734e+003, 9.168432e-001
2.273662e+003, 9.181216e-001
2.275591e+003, 9.191970e-001
2.277519e+003, 9.193202e-001
2.279448e+003, 9.192449e-001
2.281376e+003, 9.194093e-001
2.283304e+003, 9.195135e-001
2.285233e+003, 9.200501e-001
2.287161e+003, 9.200064e-001
2.289090e+003, 9.204984e-001
2.291018e+003, 9.212666e-001
2.292947e+003, 9.225444e-001
2.294875e+003, 9.235294e-001
2.296804e+003, 9.234722e-001
2.298732e+003, 9.237262e-001
2.300661e+003, 9.260691e-001
2.302589e+003, 9.271921e-001
2.304518e+003, 9.270127e-001
2.306446e+003, 9.260737e-001
2.308375e+003, 9.249583e-001
2.310303e+003, 9.244729e-001
2.312231e+003, 9.264501e-001
2.314160e+003, 9.278765e-001
2.316088e+003, 9.279359e-001
2.318017e+003, 9.281678e-001
2.319945e+003, 9.290932e-001
2.321874e+003, 9.288189e-001
2.323802e+003, 9.284123e-001
2.325731e+003, 9.289761e-001
2.327659e+003, 9.301512e-001
2.329588e+003, 9.304787e-001
2.331516e+003, 9.307447e-001
2.333445e+003, 9.315445e-001
2.335373e+003, 9.325697e-001
2.337302e+003, 9.326748e-001
2.339230e+003, 9.326860e-001
2.341158e+003, 9.333720e-001
2.343087e+003, 9.353114e-001
2.345015e+003, 9.365954e-001
2.346944e+003, 9.376103e-001
2.348872e+003, 9.371945e-001
2.350801e+003, 9.370664e-001
2.352729e+003, 9.359508e-001
2.354658e+003, 9.358954e-001
2.356586e+003, 9.369202e-001
2.358515e+003, 9.362566e-001
2.360443e+003, 9.366230e-001
2.362372e+003, 9.378114e-001
2.364300e+003, 9.385201e-001
2.366229e+003, 9.394800e-001
2.368157e+003, 9.409905e-001
2.370085e+003, 9.425487e-001
2.372014e+003, 9.436204e-001
2.373942e+003, 9.444963e-001
2.375871e+003, 9.444087e-001
2.377799e+003, 9.442025e-001
2.379728e+003, 9.450693e-001
2.381656e+003, 9.462019e-001
2.383585e+003, 9.463127e-001
2.385513e+003, 9.475695e-001
2.387442e+003, 9.489064e-001
2.389370e+003, 9.490855e-001
2.391299e+003, 9.491259e-001
2.393227e+003, 9.497660e-001
2.395156e+003, 9.499088e-001
2.397084e+003, 9.494258e-001
2.399012e+003, 9.494414e-001
2.400941e+003, 9.505612e-001
2.402869e+003, 9.496415e-001
2.404798e+003, 9.493469e-001
2.406726e+003, 9.512823e-001
2.408655e+003, 9.526119e-001
2.410583e+003, 9.532055e-001
2.412512e+003, 9.538273e-001
2.414440e+003, 9.548652e-001
2.416369e+003, 9.552861e-001
2.418297e+003, 9.553462e-001
2.420226e+003, 9.551456e-001
2.422154e+003, 9.552876e-001
2.424083e+003, 9.557776e-001
2.426011e+003, 9.565368e-001
2.427939e+003, 9.570987e-001
2.429868e+003, 9.574400e-001
2.431796e+003, 9.594163e-001
2.433725e+003, 9.586743e-001
2.435653e+003, 9.589371e-001
2.437582e+003, 9.584203e-001
2.439510e+003, 9.585614e-001
2.441439e+003, 9.599648e-001
2.443367e+003, 9.608952e-001
2.445296e+003, 9.611920e-001
2.447224e+003, 9.617006e-001
2.449153e+003, 9.620876e-001
2.451081e+003, 9.625171e-001
2.453010e+003, 9.630975e-001
2.454938e+003, 9.643534e-001
2.456866e+003, 9.650902e-001
2.458795e+003, 9.654194e-001
2.460723e+003, 9.661936e-001
2.462652e+003, 9.659056e-001
2.464580e+003, 9.662982e-001
2.466509e+003, 9.673981e-001
2.468437e+003, 9.680794e-001
2.470366e+003, 9.697763e-001
2.472294e+003, 9.706890e-001
2.474223e+003, 9.708390e-001
2.476151e+003, 9.718981e-001
2.478080e+003, 9.723830e-001
2.480008e+003, 9.722273e-001
2.481937e+003, 9.729859e-001
2.483865e+003, 9.734479e-001
2.485793e+003, 9.742832e-001
2.487722e+003, 9.744171e-001
2.489650e+003, 9.757361e-001
2.491579e+003, 9.762948e-001
2.493507e+003, 9.764155e-001
2.495436e+003, 9.769831e-001
2.497364e+003, 9.782284e-001
2.499293e+003, 9.780374e-001
2.501221e+003, 9.775096e-001
2.503150e+003, 9.785053e-001
2.505078e+003, 9.794573e-001
2.507007e+003, 9.795483e-001
2.508935e+003, 9.801334e-001
2.510864e+003, 9.812844e-001
2.512792e+003, 9.822052e-001
2.514720e+003, 9.820946e-001
2.516649e+003, 9.823918e-001
2.518577e+003, 9.833935e-001
2.520506e+003, 9.846250e-001
2.522434e+003, 9.845701e-001
2.524363e+003, 9.852485e-001
2.526291e+003, 9.857144e-001
2.528220e+003, 9.862055e-001
2.530148e+003, 9.860729e-001
2.532077e+003, 9.855324e-001
2.534005e+003, 9.862184e-001
2.535934e+003, 9.867742e-001
2.537862e+003, 9.869506e-001
2.539791e+003, 9.875860e-001
2.541719e+003, 9.881051e-001
2.543647e+003, 9.896712e-001
2.545576e+003, 9.908885e-001
2.547504e+003, 9.905176e-001
2.549433e+003, 9.902199e-001
2.551361e+003, 9.916412e-001
2.553290e+003, 9.924439e-001
2.555218e+003, 9.931208e-001
2.557147e+003, 9.937503e-001
2.559075e+003, 9.936669e-001
2.561004e+003, 9.939356e-001
2.562932e+003, 9.950850e-001
2.564861e+003, 9.955430e-001
2.566789e+003, 9.955812e-001
2.568718e+003, 9.959192e-001
2.570646e+003, 9.961389e-001
2.572574e+003, 9.964913e-001
2.574503e+003, 9.972291e-001
2.576431e+003, 9.976861e-001
2.578360e+003, 9.984033e-001
2.580288e+003, 9.987566e-001
2.582217e+003, 9.996044e-001
2.584145e+003, 1.000555e+000
2.586074e+003, 1.000637e+000
2.588002e+003, 1.000646e+000
2.589931e+003, 1.001410e+000
2.591859e+003, 1.002910e+000
2.593788e+003, 1.003972e+000
2.595716e+003, 1.004745e+000
2.597645e+003, 1.005651e+000
2.599573e+003, 1.005974e+000
2.601501e+003, 1.005675e+000
2.603430e+003, 1.005900e+000
2.605358e+003, 1.007056e+000
2.607287e+003, 1.008004e+000
2.609215e+003, 1.008155e+000
2.611144e+003, 1.008567e+000
2.613072e+003, 1.009387e+000
2.615001e+003, 1.009985e+000
2.616929e+003, 1.011140e+000
2.618858e+003, 1.012767e+000
2.620786e+003, 1.013002e+000
2.622715e+003, 1.013026e+000
2.624643e+003, 1.013477e+000
2.626572e+003, 1.014020e+000
2.628500e+003, 1.015033e+000
2.630428e+003, 1.015411e+000
2.632357e+003, 1.015552e+000
2.634285e+003, 1.016358e+000
2.636214e+003, 1.016872e+000
2.638142e+003, 1.017129e+000
2.640071e+003, 1.018415e+000
2.641999e+003, 1.019317e+000
2.643928e+003, 1.019820e+000
2.645856e+003, 1.020491e+000
2.647785e+003, 1.021338e+000
2.649713e+003, 1.021908e+000
2.651642e+003, 1.022368e+000
2.653570e+003, 1.022504e+000
2.655499e+003, 1.023095e+000
2.657427e+003, 1.024059e+000
2.659355e+003, 1.024647e+000
2.661284e+003, 1.025326e+000
2.663212e+003, 1.025992e+000
2.665141e+003, 1.026303e+000
2.667069e+003, 1.027161e+000
2.668998e+003, 1.027808e+000
2.670926e+003, 1.028106e+000
2.672855e+003, 1.028427e+000
2.674783e+003, 1.028700e+000
2.676712e+003, 1.029361e+000
2.678640e+003, 1.030141e+000
2.680569e+003, 1.030547e+000
2.682497e+003, 1.030549e+000
2.684426e+003, 1.031107e+000
2.686354e+003, 1.031619e+000
2.688282e+003, 1.031651e+000
2.690211e+003, 1.031752e+000
2.692139e+003, 1.032465e+000
2.694068e+003, 1.033941e+000
2.695996e+003, 1.035003e+000
2.697925e+003, 1.035114e+000
2.699853e+003, 1.034970e+000
2.701782e+003, 1.035549e+000
2.703710e+003, 1.036187e+000
2.705639e+003, 1.036950e+000
2.707567e+003, 1.037711e+000
2.709496e+003, 1.039267e+000
2.711424e+003, 1.039668e+000
2.713353e+003, 1.039495e+000
2.715281e+003, 1.040697e+000
2.717209e+003, 1.041287e+000
2.719138e+003, 1.040904e+000
2.721066e+003, 1.041316e+000
2.722995e+003, 1.041738e+000
2.724923e+003, 1.042752e+000
2.726852e+003, 1.044008e+000
2.728780e+003, 1.043972e+000
2.730709e+003, 1.043860e+000
2.732637e+003, 1.044769e+000
2.734566e+003, 1.045738e+000
2.736494e+003, 1.046111e+000
2.738423e+003, 1.046467e+000
2.740351e+003, 1.046483e+000
2.742280e+003, 1.046820e+000
2.744208e+003, 1.048010e+000
2.746136e+003, 1.048301e+000
2.748065e+003, 1.047917e+000
2.749993e+003, 1.048259e+000
2.751922e+003, 1.049150e+000
2.753850e+003, 1.049950e+000
2.755779e+003, 1.050339e+000
2.757707e+003, 1.050507e+000
2.759636e+003, 1.051114e+000
2.761564e+003, 1.051978e+000
2.763493e+003, 1.052970e+000
2.765421e+003, 1.053234e+000
2.767350e+003, 1.053395e+000
2.769278e+003, 1.053808e+000
2.771207e+003, 1.053772e+000
2.773135e+003, 1.054065e+000
2.775063e+003, 1.055057e+000
2.776992e+003, 1.055783e+000
2.778920e+003, 1.056226e+000
2.780849e+003, 1.056317e+000
2.782777e+003, 1.057194e+000
2.784706e+003, 1.058489e+000
2.786634e+003, 1.058610e+000
2.788563e+003, 1.058334e+000
2.790491e+003, 1.058514e+000
2.792420e+003, 1.059283e+000
2.794348e+003, 1.060552e+000
2.796277e+003, 1.061209e+000
2.798205e+003, 1.061383e+000
2.800134e+003, 1.061657e+000
2.802062e+003, 1.062706e+000
2.803990e+003, 1.063496e+000
2.805919e+003, 1.064024e+000
2.807847e+003, 1.064662e+000
2.809776e+003, 1.064863e+000
2.811704e+003, 1.065359e+000
2.813633e+003, 1.066180e+000
2.815561e+003, 1.066986e+000
2.817490e+003, 1.067980e+000
2.819418e+003, 1.068273e+000
2.821347e+003, 1.068210e+000
2.823275e+003, 1.068764e+000
2.825204e+003, 1.069351e+000
2.827132e+003, 1.070004e+000
2.829061e+003, 1.070774e+000
2.830989e+003, 1.071414e+000
2.832917e+003, 1.072244e+000
2.834846e+003, 1.072802e+000
2.836774e+003, 1.073218e+000
2.838703e+003, 1.074517e+000
2.840631e+003, 1.075449e+000
2.842560e+003, 1.076014e+000
2.844488e+003, 1.076324e+000
2.846417e+003, 1.076131e+000
2.848345e+003, 1.077327e+000
2.850274e+003, 1.078461e+000
2.852202e+003, 1.078991e+000
2.854131e+003, 1.079020e+000
2.856059e+003, 1.078736e+000
2.857988e+003, 1.078637e+000
2.859916e+003, 1.079291e+000
2.861844e+003, 1.079767e+000
2.863773e+003, 1.079735e+000
2.865701e+003, 1.080231e+000
2.867630e+003, 1.081249e+000
2.869558e+003, 1.081807e+000
2.871487e+003, 1.081910e+000
2.873415e+003, 1.082503e+000
2.875344e+003, 1.083728e+000
2.877272e+003, 1.084549e+000
2.879201e+003, 1.084266e+000
2.881129e+003, 1.084260e+000
2.883058e+003, 1.085406e+000
2.884986e+003, 1.085790e+000
2.886915e+003, 1.085453e+000
2.888843e+003, 1.086110e+000
2.890771e+003, 1.087803e+000
2.892700e+003, 1.088334e+000
2.894628e+003, 1.088723e+000
2.896557e+003, 1.089937e+000
2.898485e+003, 1.090303e+000
2.900414e+003, 1.089927e+000
2.902342e+003, 1.090605e+000
2.904271e+003, 1.091754e+000
2.906199e+003, 1.092809e+000
2.908128e+003, 1.093598e+000
2.910056e+003, 1.094549e+000
2.911985e+003, 1.094983e+000
2.913913e+003, 1.095032e+000
2.915842e+003, 1.095456e+000
2.917770e+003, 1.096096e+000
2.919698e+003, 1.096533e+000
2.921627e+003, 1.096904e+000
2.923555e+003, 1.097221e+000
2.925484e+003, 1.097091e+000
2.927412e+003, 1.097407e+000
2.929341e+003, 1.097458e+000
2.931269e+003, 1.097318e+000
2.933198e+003, 1.098019e+000
2.935126e+003, 1.097732e+000
2.937055e+003, 1.098112e+000
2.938983e+003, 1.098051e+000
2.940912e+003, 1.097248e+000
2.942840e+003, 1.098323e+000
2.944769e+003, 1.099794e+000
2.946697e+003, 1.100029e+000
2.948625e+003, 1.100004e+000
2.950554e+003, 1.099656e+000
2.952482e+003, 1.099723e+000
2.954411e+003, 1.100399e+000
2.956339e+003, 1.100359e+000
2.958268e+003, 1.100744e+000
2.960196e+003, 1.100826e+000
2.962125e+003, 1.100097e+000
2.964053e+003, 1.100050e+000
2.965982e+003, 1.099803e+000
2.967910e+003, 1.099582e+000
2.969839e+003, 1.100502e+000
2.971767e+003, 1.101187e+000
2.973696e+003, 1.101162e+000
2.975624e+003, 1.101360e+000
2.977552e+003, 1.101585e+000
2.979481e+003, 1.101856e+000
2.981409e+003, 1.102148e+000
2.983338e+003, 1.102086e+000
2.985266e+003, 1.102215e+000
2.987195e+003, 1.103522e+000
2.989123e+003, 1.104545e+000
2.991052e+003, 1.104667e+000
2.992980e+003, 1.104763e+000
2.994909e+003, 1.105515e+000
2.996837e+003, 1.106272e+000
2.998766e+003, 1.106951e+000
3.000694e+003, 1.107283e+000
3.002623e+003, 1.107207e+000
3.004551e+003, 1.107961e+000
3.006479e+003, 1.109186e+000
3.008408e+003, 1.109401e+000
3.010336e+003, 1.109473e+000
3.012265e+003, 1.109952e+000
3.014193e+003, 1.110204e+000
3.016122e+003, 1.110549e+000
3.018050e+003, 1.111331e+000
3.019979e+003, 1.111145e+000
3.021907e+003, 1.111703e+000
3.023836e+003, 1.112312e+000
3.025764e+003, 1.112197e+000
3.027693e+003, 1.112612e+000
3.029621e+003, 1.114328e+000
3.031550e+003, 1.115915e+000
3.033478e+003, 1.116735e+000
3.035406e+003, 1.116757e+000
3.037335e+003, 1.116473e+000
3.039263e+003, 1.116865e+000
3.041192e+003, 1.117786e+000
3.043120e+003, 1.118324e+000
3.045049e+003, 1.118883e+000
3.046977e+003, 1.118871e+000
3.048906e+003, 1.119479e+000
3.050834e+003, 1.119964e+000
3.052763e+003, 1.120274e+000
3.054691e+003, 1.120987e+000
3.056620e+003, 1.121558e+000
3.058548e+003, 1.122024e+000
3.060477e+003, 1.122309e+000
3.062405e+003, 1.121853e+000
3.064333e+003, 1.122389e+000
3.066262e+003, 1.123064e+000
3.068190e+003, 1.122886e+000
3.070119e+003, 1.123019e+000
3.072047e+003, 1.124454e+000
3.073976e+003, 1.126015e+000
3.075904e+003, 1.126172e+000
3.077833e+003, 1.125713e+000
3.079761e+003, 1.126243e+000
3.081690e+003, 1.126681e+000
3.083618e+003, 1.127229e+000
3.085547e+003, 1.127559e+000
3.087475e+003, 1.127596e+000
3.089404e+003, 1.128272e+000
3.091332e+003, 1.128890e+000
3.093260e+003, 1.129194e+000
3.095189e+003, 1.130106e+000
3.097117e+003, 1.129895e+000
3.099046e+003, 1.129431e+000
3.100974e+003, 1.129314e+000
3.102903e+003, 1.130654e+000
3.104831e+003, 1.131940e+000
3.106760e+003, 1.132888e+000
3.108688e+003, 1.133318e+000
3.110617e+003, 1.133757e+000
3.112545e+003, 1.134322e+000
3.114474e+003, 1.135197e+000
3.116402e+003, 1.136065e+000
3.118331e+003, 1.136573e+000
3.120259e+003, 1.137081e+000
3.122188e+003, 1.136288e+000
3.124116e+003, 1.136082e+000
3.126044e+003, 1.137101e+000
3.127973e+003, 1.136735e+000
3.129901e+003, 1.135857e+000
3.131830e+003, 1.136532e+000
3.133758e+003, 1.138714e+000
3.135687e+003, 1.139703e+000
3.137615e+003, 1.140437e+000
3.139544e+003, 1.140462e+000
3.141472e+003, 1.141124e+000
3.143401e+003, 1.142004e+000
3.145329e+003, 1.141966e+000
3.147258e+003, 1.141440e+000
3.149186e+003, 1.141921e+000
3.151115e+003, 1.142055e+000
3.153043e+003, 1.141917e+000
3.154971e+003, 1.142641e+000
3.156900e+003, 1.142735e+000
3.158828e+003, 1.142990e+000
3.160757e+003, 1.143642e+000
3.162685e+003, 1.144087e+000
3.164614e+003, 1.146310e+000
3.166542e+003, 1.147871e+000
3.168471e+003, 1.148001e+000
3.170399e+003, 1.147901e+000
3.172328e+003, 1.148005e+000
3.174256e+003, 1.147045e+000
3.176185e+003, 1.146143e+000
3.178113e+003, 1.147453e+000
3.180042e+003, 1.149089e+000
3.181970e+003, 1.149971e+000
3.183898e+003, 1.150314e+000
3.185827e+003, 1.150975e+000
3.187755e+003, 1.150818e+000
3.189684e+003, 1.149783e+000
3.191612e+003, 1.149395e+000
3.193541e+003, 1.150906e+000
3.195469e+003, 1.152682e+000
3.197398e+003, 1.153477e+000
3.199326e+003, 1.153707e+000
3.201255e+003, 1.153160e+000
3.203183e+003, 1.153132e+000
3.205112e+003, 1.154352e+000
3.207040e+003, 1.155164e+000
3.208969e+003, 1.155653e+000
3.210897e+003, 1.157301e+000
3.212825e+003, 1.158632e+000
3.214754e+003, 1.157537e+000
3.216682e+003, 1.157658e+000
3.218611e+003, 1.158306e+000
3.220539e+003, 1.157977e+000
3.222468e+003, 1.158174e+000
3.224396e+003, 1.158592e+000
3.226325e+003, 1.160130e+000
3.228253e+003, 1.160505e+000
3.230182e+003, 1.160194e+000
3.232110e+003, 1.160872e+000
3.234039e+003, 1.161942e+000
3.235967e+003, 1.161081e+000
3.237896e+003, 1.160385e+000
3.239824e+003, 1.161994e+000
3.241752e+003, 1.163336e+000
3.243681e+003, 1.162754e+000
3.245609e+003, 1.163206e+000
3.247538e+003, 1.164410e+000
3.249466e+003, 1.164969e+000
3.251395e+003, 1.166103e+000
3.253323e+003, 1.166099e+000
3.255252e+003, 1.165455e+000
3.257180e+003, 1.165846e+000
3.259109e+003, 1.165909e+000
3.261037e+003, 1.167347e+000
3.262966e+003, 1.168515e+000
3.264894e+003, 1.169507e+000
3.266823e+003, 1.170315e+000
3.268751e+003, 1.170168e+000
3.270679e+003, 1.170151e+000
3.272608e+003, 1.170578e+000
3.274536e+003, 1.170431e+000
3.276465e+003, 1.170072e+000
3.278393e+003, 1.171577e+000
3.280322e+003, 1.173189e+000
3.282250e+003, 1.172690e+000
3.284179e+003, 1.173619e+000
3.286107e+003, 1.174831e+000
3.288036e+003, 1.175246e+000
3.289964e+003, 1.175666e+000
3.291893e+003, 1.176768e+000
3.293821e+003, 1.175995e+000
3.295750e+003, 1.175643e+000
3.297678e+003, 1.176688e+000
3.299606e+003, 1.177081e+000
3.301535e+003, 1.177890e+000
3.303463e+003, 1.177522e+000
3.305392e+003, 1.177141e+000
3.307320e+003, 1.178174e+000
3.309249e+003, 1.178674e+000
3.311177e+003, 1.179376e+000
3.313106e+003, 1.179785e+000
3.315034e+003, 1.179610e+000
3.316963e+003, 1.179318e+000
3.318891e+003, 1.179848e+000
3.320820e+003, 1.180620e+000
3.322748e+003, 1.181744e+000
3.324677e+003, 1.181310e+000
3.326605e+003, 1.180297e+000
3.328533e+003, 1.181488e+000
3.330462e+003, 1.182910e+000
3.332390e+003, 1.183784e+000
3.334319e+003, 1.184344e+000
3.336247e+003, 1.183918e+000
3.338176e+003, 1.183046e+000
3.340104e+003, 1.184340e+000
3.342033e+003, 1.185474e+000
3.343961e+003, 1.183513e+000
3.345890e+003, 1.183382e+000
3.347818e+003, 1.184886e+000
3.349747e+003, 1.184487e+000
3.351675e+003, 1.184369e+000
3.353604e+003, 1.184730e+000
3.355532e+003, 1.185807e+000
3.357460e+003, 1.188379e+000
3.359389e+003, 1.188168e+000
3.361317e+003, 1.187083e+000
3.363246e+003, 1.187829e+000
3.365174e+003, 1.187829e+000
3.367103e+003, 1.187975e+000
3.369031e+003, 1.187779e+000
3.370960e+003, 1.187800e+000
3.372888e+003, 1.187878e+000
3.374817e+003, 1.187523e+000
3.376745e+003, 1.187651e+000
3.378674e+003, 1.187702e+000
3.380602e+003, 1.187932e+000
3.382531e+003, 1.188615e+000
3.384459e+003, 1.188876e+000
3.386387e+003, 1.188996e+000
3.388316e+003, 1.189684e+000
3.390244e+003, 1.190911e+000
3.392173e+003, 1.191646e+000
3.394101e+003, 1.190908e+000
3.396030e+003, 1.191548e+000
3.397958e+003, 1.193074e+000
3.399887e+003, 1.193607e+000
3.401815e+003, 1.193216e+000
3.403744e+003, 1.192056e+000
3.405672e+003, 1.192580e+000
3.407601e+003, 1.192387e+000
3.409529e+003, 1.191601e+000
3.411458e+003, 1.193004e+000
3.413386e+003, 1.193362e+000
3.415314e+003, 1.195023e+000
3.417243e+003, 1.195721e+000
3.419171e+003, 1.195571e+000
3.421100e+003, 1.196063e+000
3.423028e+003, 1.197185e+000
3.424957e+003, 1.196390e+000
3.426885e+003, 1.195740e+000
3.428814e+003, 1.196375e+000
3.430742e+003, 1.195161e+000
3.432671e+003, 1.194736e+000
3.434599e+003, 1.197638e+000
3.436528e+003, 1.199466e+000
3.438456e+003, 1.199480e+000
3.440385e+003, 1.198344e+000
3.442313e+003, 1.196974e+000
3.444241e+003, 1.198250e+000
3.446170e+003, 1.200200e+000
3.448098e+003, 1.199028e+000
3.450027e+003, 1.198878e+000
3.451955e+003, 1.199766e+000
3.453884e+003, 1.199904e+000
3.455812e+003, 1.199890e+000
3.457741e+003, 1.199611e+000
3.459669e+003, 1.200455e+000
3.461598e+003, 1.201800e+000
3.463526e+003, 1.201820e+000
3.465455e+003, 1.202526e+000
3.467383e+003, 1.202234e+000
3.469312e+003, 1.201260e+000
3.471240e+003, 1.201808e+000
3.473168e+003, 1.203273e+000
3.475097e+003, 1.204124e+000
3.477025e+003, 1.202748e+000
3.478954e+003, 1.202257e+000
3.480882e+003, 1.204944e+000
3.482811e+003, 1.204975e+000
3.484739e+003, 1.202811e+000
3.486668e+003, 1.202920e+000
3.488596e+003, 1.204399e+000
3.490525e+003, 1.204722e+000
3.492453e+003, 1.203928e+000
3.494382e+003, 1.203903e+000
3.496310e+003, 1.204459e+000
3.498239e+003, 1.205235e+000
3.500167e+003, 1.205615e+000
3.502095e+003, 1.206087e+000
3.504024e+003, 1.206072e+000
3.505952e+003, 1.205003e+000
3.507881e+003, 1.204681e+000
3.509809e+003, 1.205042e+000
3.511738e+003, 1.205855e+000
3.513666e+003, 1.206733e+000
3.515595e+003, 1.207154e+000
3.517523e+003, 1.206880e+000
3.519452e+003, 1.206810e+000
3.521380e+003, 1.206303e+000
3.523309e+003, 1.206338e+000
3.525237e+003, 1.206817e+000
3.527166e+003, 1.206409e+000
3.529094e+003, 1.206289e+000
3.531022e+003, 1.206249e+000
3.532951e+003, 1.206847e+000
3.534879e+003, 1.207911e+000
3.536808e+003, 1.209170e+000
3.538736e+003, 1.209314e+000
3.540665e+003, 1.208273e+000
3.542593e+003, 1.207499e+000
3.544522e+003, 1.207650e+000
3.546450e+003, 1.208014e+000
3.548379e+003, 1.208779e+000
3.550307e+003, 1.210063e+000
3.552236e+003, 1.208988e+000
3.554164e+003, 1.208791e+000
3.556093e+003, 1.207759e+000
3.558021e+003, 1.209175e+000
3.559949e+003, 1.211822e+000
3.561878e+003, 1.211635e+000
3.563806e+003, 1.210748e+000
3.565735e+003, 1.211105e+000
3.567663e+003, 1.210286e+000
3.569592e+003, 1.211035e+000
3.571520e+003, 1.213252e+000
3.573449e+003, 1.213510e+000
3.575377e+003, 1.213494e+000
3.577306e+003, 1.214068e+000
3.579234e+003, 1.212429e+000
3.581163e+003, 1.211432e+000
3.583091e+003, 1.211908e+000
3.585020e+003, 1.213164e+000
3.586948e+003, 1.214160e+000
3.588876e+003, 1.213275e+000
3.590805e+003, 1.212380e+000
3.592733e+003, 1.212521e+000
3.594662e+003, 1.214166e+000
3.596590e+003, 1.214890e+000
3.598519e+003, 1.214842e+000
3.600447e+003, 1.215183e+000
3.602376e+003, 1.215755e+000
3.604304e+003, 1.216372e+000
3.606233e+003, 1.217388e+000
3.608161e+003, 1.217380e+000
3.610090e+003, 1.216015e+000
3.612018e+003, 1.214668e+000
3.613947e+003, 1.214070e+000
3.615875e+003, 1.216520e+000
3.617803e+003, 1.217710e+000
3.619732e+003, 1.217707e+000
3.621660e+003, 1.217650e+000
3.623589e+003, 1.219042e+000
3.625517e+003, 1.219593e+000
3.627446e+003, 1.218096e+000
3.629374e+003, 1.218328e+000
3.631303e+003, 1.220777e+000
3.633231e+003, 1.221791e+000
3.635160e+003, 1.222057e+000
3.637088e+003, 1.221193e+000
3.639017e+003, 1.220849e+000
3.640945e+003, 1.221352e+000
3.642874e+003, 1.222013e+000
3.644802e+003, 1.222095e+000
3.646730e+003, 1.221899e+000
3.648659e+003, 1.220542e+000
3.650587e+003, 1.221498e+000
3.652516e+003, 1.223598e+000
3.654444e+003, 1.225253e+000
3.656373e+003, 1.224995e+000
3.658301e+003, 1.224775e+000
3.660230e+003, 1.224920e+000
3.662158e+003, 1.226333e+000
3.664087e+003, 1.226278e+000
3.666015e+003, 1.227582e+000
3.667944e+003, 1.228946e+000
3.669872e+003, 1.228903e+000
3.671801e+003, 1.228735e+000
3.673729e+003, 1.227949e+000
3.675657e+003, 1.228401e+000
3.677586e+003, 1.229898e+000
3.679514e+003, 1.231295e+000
3.681443e+003, 1.233487e+000
3.683371e+003, 1.233755e+000
3.685300e+003, 1.231771e+000
3.687228e+003, 1.230716e+000
3.689157e+003, 1.230218e+000
3.691085e+003, 1.232073e+000
3.693014e+003, 1.233118e+000
3.694942e+003, 1.232161e+000
3.696871e+003, 1.231184e+000
3.698799e+003, 1.232286e+000
3.700728e+003, 1.233820e+000
3.702656e+003, 1.235094e+000
3.704584e+003, 1.235192e+000
3.706513e+003, 1.234522e+000
3.708441e+003, 1.234869e+000
3.710370e+003, 1.236204e+000
3.712298e+003, 1.236092e+000
3.714227e+003, 1.236062e+000
3.716155e+003, 1.236594e+000
3.718084e+003, 1.235757e+000
3.720012e+003, 1.235759e+000
3.721941e+003, 1.238269e+000
3.723869e+003, 1.240569e+000
3.725798e+003, 1.239214e+000
3.727726e+003, 1.238134e+000
3.729655e+003, 1.237907e+000
3.731583e+003, 1.238740e+000
3.733511e+003, 1.239332e+000
3.735440e+003, 1.240173e+000
3.737368e+003, 1.240864e+000
3.739297e+003, 1.241277e+000
3.741225e+003, 1.242244e+000
3.743154e+003, 1.242682e+000
3.745082e+003, 1.243266e+000
3.747011e+003, 1.245096e+000
3.748939e+003, 1.245519e+000
3.750868e+003, 1.244091e+000
3.752796e+003, 1.245114e+000
3.754725e+003, 1.245900e+000
3.756653e+003, 1.244691e+000
3.758582e+003, 1.245573e+000
3.760510e+003, 1.246526e+000
3.762438e+003, 1.246878e+000
3.764367e+003, 1.248735e+000
3.766295e+003, 1.249516e+000
3.768224e+003, 1.248731e+000
3.770152e+003, 1.248335e+000
3.772081e+003, 1.249201e+000
3.774009e+003, 1.250569e+000
3.775938e+003, 1.250056e+000
3.777866e+003, 1.249012e+000
3.779795e+003, 1.249077e+000
3.781723e+003, 1.251282e+000
3.783652e+003, 1.251002e+000
3.785580e+003, 1.250517e+000
3.787509e+003, 1.252030e+000
3.789437e+003, 1.253143e+000
3.791365e+003, 1.254262e+000
3.793294e+003, 1.254330e+000
3.795222e+003, 1.253367e+000
3.797151e+003, 1.253022e+000
3.799079e+003, 1.254599e+000
3.801008e+003, 1.255780e+000
3.802936e+003, 1.257288e+000
3.804865e+003, 1.257528e+000
3.806793e+003, 1.256390e+000
3.808722e+003, 1.256646e+000
3.810650e+003, 1.255573e+000
3.812579e+003, 1.254507e+000
3.814507e+003, 1.255731e+000
3.816436e+003, 1.256984e+000
3.818364e+003, 1.257172e+000
3.820292e+003, 1.257008e+000
3.822221e+003, 1.258450e+000
3.824149e+003, 1.259295e+000
3.826078e+003, 1.258482e+000
3.828006e+003, 1.258612e+000
3.829935e+003, 1.259144e+000
3.831863e+003, 1.260084e+000
3.833792e+003, 1.261920e+000
3.835720e+003, 1.262174e+000
3.837649e+003, 1.261012e+000
3.839577e+003, 1.262097e+000
3.841506e+003, 1.263338e+000
3.843434e+003, 1.263548e+000
3.845363e+003, 1.264661e+000
3.847291e+003, 1.264071e+000
3.849219e+003, 1.263695e+000
3.851148e+003, 1.264959e+000
3.853076e+003, 1.266485e+000
3.855005e+003, 1.266920e+000
3.856933e+003, 1.267752e+000
3.858862e+003, 1.269431e+000
3.860790e+003, 1.267365e+000
3.862719e+003, 1.266455e+000
3.864647e+003, 1.267281e+000
3.866576e+003, 1.268072e+000
3.868504e+003, 1.269015e+000
3.870433e+003, 1.270253e+000
3.872361e+003, 1.271911e+000
3.874290e+003, 1.271053e+000
3.876218e+003, 1.269378e+000
3.878146e+003, 1.269349e+000
3.880075e+003, 1.271008e+000
3.882003e+003, 1.271379e+000
3.883932e+003, 1.270926e+000
3.885860e+003, 1.271280e+000
3.887789e+003, 1.271397e+000
3.889717e+003, 1.272588e+000
3.891646e+003, 1.274335e+000
3.893574e+003, 1.274149e+000
3.895503e+003, 1.272342e+000
3.897431e+003, 1.272512e+000
3.899360e+003, 1.273212e+000
3.901288e+003, 1.272983e+000
3.903217e+003, 1.275364e+000
3.905145e+003, 1.277586e+000
3.907073e+003, 1.277579e+000
3.909002e+003, 1.279190e+000
3.910930e+003, 1.278972e+000
3.912859e+003, 1.277167e+000
3.914787e+003, 1.278631e+000
3.916716e+003, 1.278543e+000
3.918644e+003, 1.278211e+000
3.920573e+003, 1.277853e+000
3.922501e+003, 1.278164e+000
3.924430e+003, 1.279777e+000
3.926358e+003, 1.278902e+000
3.928287e+003, 1.278630e+000
3.930215e+003, 1.278145e+000
3.932144e+003, 1.279079e+000
3.934072e+003, 1.281265e+000
3.936000e+003, 1.283162e+000
3.937929e+003, 1.283386e+000
3.939857e+003, 1.283417e+000
3.941786e+003, 1.283059e+000
3.943714e+003, 1.282532e+000
3.945643e+003, 1.282601e+000
3.947571e+003, 1.282325e+000
3.949500e+003, 1.282732e+000
3.951428e+003, 1.284184e+000
3.953357e+003, 1.284831e+000
3.955285e+003, 1.284723e+000
3.957214e+003, 1.286685e+000
3.959142e+003, 1.288309e+000
3.961071e+003, 1.287438e+000
3.962999e+003, 1.288049e+000
3.964927e+003, 1.287096e+000
3.966856e+003, 1.286504e+000
3.968784e+003, 1.288749e+000
3.970713e+003, 1.289892e+000
3.972641e+003, 1.289456e+000
3.974570e+003, 1.290856e+000
3.976498e+003, 1.290442e+000
3.978427e+003, 1.290495e+000
3.980355e+003, 1.291528e+000
3.982284e+003, 1.292054e+000
3.984212e+003, 1.292527e+000
3.986141e+003, 1.292857e+000
3.988069e+003, 1.291965e+000
3.989998e+003, 1.291211e+000
3.991926e+003, 1.292933e+000
3.993854e+003, 1.291523e+000
3.995783e+003, 1.292339e+000
3.997711e+003, 1.294899e+000
3.999640e+003, 1.294752e+000
##END=



