##NAMES=Jamesonite
##RRUFFID=R050481
##IDEAL CHEMISTRY=Pb^2+^_4_Fe^2+^Sb^3+^_6_S^2-^_14_
##LOCALITY=Itos mine, Oruro City, Bolivia
##OWNER=RRUFF
##SOURCE=California Institute of Technology
##DESCRIPTION=A group of gray-black thickly acicular crystals
##STATUS=The identification of this mineral has been confirmed by X-ray diffraction and chemical analysis
##URL=rruff.info/R050481
##MEASURED CHEMISTRY=Pb_4.00_Fe_1.00_(Sb_5.97_As_0.03_)_Î£=6_S_14.00_
5.014013e+001, 2.673849e-002
5.206860e+001, 3.594813e-002
5.399707e+001, 3.190825e-002
5.592553e+001, 2.165170e-002
5.785400e+001, 2.500773e-002
5.978246e+001, 3.894691e-002
6.171093e+001, 3.460377e-002
6.363940e+001, 3.044489e-002
6.556786e+001, 2.827736e-002
6.749633e+001, 2.915728e-002
6.942480e+001, 3.133613e-002
7.135326e+001, 3.153430e-002
7.328172e+001, 3.116643e-002
7.521019e+001, 3.154020e-002
7.713866e+001, 3.419550e-002
7.906712e+001, 3.589374e-002
8.099559e+001, 3.678929e-002
8.292406e+001, 3.806510e-002
8.485252e+001, 3.869799e-002
8.678099e+001, 4.025565e-002
8.870946e+001, 3.927281e-002
9.063792e+001, 4.002833e-002
9.256638e+001, 4.153519e-002
9.449485e+001, 4.294941e-002
9.642332e+001, 4.339867e-002
9.835178e+001, 4.425559e-002
1.002803e+002, 4.553865e-002
1.022087e+002, 4.709246e-002
1.041372e+002, 4.711663e-002
1.060657e+002, 4.779672e-002
1.079941e+002, 4.826917e-002
1.099226e+002, 4.918043e-002
1.118510e+002, 4.982026e-002
1.137795e+002, 5.089288e-002
1.157080e+002, 5.231788e-002
1.176364e+002, 5.307376e-002
1.195649e+002, 5.484895e-002
1.214934e+002, 5.697547e-002
1.234218e+002, 5.708412e-002
1.253503e+002, 5.847026e-002
1.272788e+002, 6.039467e-002
1.292072e+002, 6.183000e-002
1.311357e+002, 6.306960e-002
1.330642e+002, 6.399321e-002
1.349926e+002, 6.433730e-002
1.369211e+002, 6.504241e-002
1.388496e+002, 6.610195e-002
1.407780e+002, 6.675669e-002
1.427065e+002, 6.698583e-002
1.446350e+002, 6.722870e-002
1.465634e+002, 6.661966e-002
1.484919e+002, 6.665077e-002
1.504204e+002, 6.726921e-002
1.523488e+002, 6.856491e-002
1.542773e+002, 6.947760e-002
1.562058e+002, 7.006730e-002
1.581342e+002, 7.041728e-002
1.600627e+002, 7.095798e-002
1.619912e+002, 7.126890e-002
1.639196e+002, 7.203901e-002
1.658481e+002, 7.272737e-002
1.677766e+002, 7.322095e-002
1.697050e+002, 7.389261e-002
1.716335e+002, 7.451253e-002
1.735620e+002, 7.438017e-002
1.754904e+002, 7.467593e-002
1.774189e+002, 7.488660e-002
1.793474e+002, 7.500875e-002
1.812758e+002, 7.531163e-002
1.832043e+002, 7.639522e-002
1.851328e+002, 7.692345e-002
1.870612e+002, 7.683511e-002
1.889897e+002, 7.645313e-002
1.909182e+002, 7.577901e-002
1.928466e+002, 7.482359e-002
1.947751e+002, 7.423324e-002
1.967036e+002, 7.381205e-002
1.986320e+002, 7.344023e-002
2.005605e+002, 7.305449e-002
2.024890e+002, 7.337677e-002
2.044174e+002, 7.304003e-002
2.063459e+002, 7.292861e-002
2.082744e+002, 7.315896e-002
2.102028e+002, 7.364900e-002
2.121313e+002, 7.428666e-002
2.140598e+002, 7.517648e-002
2.159882e+002, 7.590953e-002
2.179167e+002, 7.637025e-002
2.198452e+002, 7.783560e-002
2.217736e+002, 7.927082e-002
2.237021e+002, 8.011816e-002
2.256305e+002, 8.109803e-002
2.275590e+002, 8.200178e-002
2.294875e+002, 8.263396e-002
2.314159e+002, 8.301674e-002
2.333444e+002, 8.351219e-002
2.352729e+002, 8.424915e-002
2.372013e+002, 8.499629e-002
2.391298e+002, 8.528443e-002
2.410583e+002, 8.589662e-002
2.429867e+002, 8.668050e-002
2.449152e+002, 8.693930e-002
2.468437e+002, 8.695909e-002
2.487721e+002, 8.692767e-002
2.507006e+002, 8.687747e-002
2.526291e+002, 8.753195e-002
2.545575e+002, 8.765987e-002
2.564860e+002, 8.776007e-002
2.584145e+002, 8.756505e-002
2.603429e+002, 8.746897e-002
2.622714e+002, 8.731364e-002
2.641999e+002, 8.695691e-002
2.661283e+002, 8.695038e-002
2.680568e+002, 8.689107e-002
2.699853e+002, 8.607978e-002
2.719137e+002, 8.519177e-002
2.738422e+002, 8.429131e-002
2.757707e+002, 8.363881e-002
2.776991e+002, 8.323934e-002
2.796276e+002, 8.311270e-002
2.815561e+002, 8.298232e-002
2.834845e+002, 8.311057e-002
2.854130e+002, 8.323660e-002
2.873415e+002, 8.338254e-002
2.892699e+002, 8.350137e-002
2.911984e+002, 8.370320e-002
2.931269e+002, 8.366962e-002
2.950553e+002, 8.318294e-002
2.969838e+002, 8.269663e-002
2.989123e+002, 8.254743e-002
3.008407e+002, 8.149666e-002
3.027692e+002, 8.009779e-002
3.046977e+002, 7.928400e-002
3.066261e+002, 7.908662e-002
3.085546e+002, 7.916858e-002
3.104831e+002, 7.951964e-002
3.124115e+002, 8.002339e-002
3.143400e+002, 8.028264e-002
3.162685e+002, 7.970338e-002
3.181969e+002, 7.890696e-002
3.201254e+002, 7.759538e-002
3.220539e+002, 7.534709e-002
3.239823e+002, 7.278916e-002
3.259108e+002, 7.103119e-002
3.278392e+002, 7.011303e-002
3.297677e+002, 7.004265e-002
3.316962e+002, 7.007099e-002
3.336246e+002, 6.900976e-002
3.355531e+002, 6.622553e-002
3.374816e+002, 6.214529e-002
3.394100e+002, 5.804533e-002
3.413385e+002, 5.476952e-002
3.432670e+002, 5.250482e-002
3.451954e+002, 5.146959e-002
3.471239e+002, 5.133510e-002
3.490524e+002, 5.138681e-002
3.509808e+002, 5.154851e-002
3.529093e+002, 5.208847e-002
3.548378e+002, 5.306366e-002
3.567662e+002, 5.376363e-002
3.586947e+002, 5.418411e-002
3.606232e+002, 5.505718e-002
3.625516e+002, 5.603986e-002
3.644801e+002, 5.712799e-002
3.664086e+002, 5.780773e-002
3.683370e+002, 5.855504e-002
3.702655e+002, 5.981525e-002
3.721940e+002, 6.106810e-002
3.741224e+002, 6.238402e-002
3.760509e+002, 6.332853e-002
3.779794e+002, 6.399454e-002
3.799078e+002, 6.475782e-002
3.818363e+002, 6.569359e-002
3.837648e+002, 6.674819e-002
3.856932e+002, 6.767323e-002
3.876217e+002, 6.849634e-002
3.895502e+002, 6.950895e-002
3.914786e+002, 7.032473e-002
3.934071e+002, 7.134693e-002
3.953356e+002, 7.221738e-002
3.972640e+002, 7.312985e-002
3.991925e+002, 7.411032e-002
4.011210e+002, 7.486209e-002
4.030494e+002, 7.576681e-002
4.049779e+002, 7.678474e-002
4.069064e+002, 7.795860e-002
4.088348e+002, 7.887722e-002
4.107633e+002, 7.974768e-002
4.126917e+002, 8.085459e-002
4.146202e+002, 8.181252e-002
4.165487e+002, 8.273209e-002
4.184771e+002, 8.362040e-002
4.204056e+002, 8.474357e-002
4.223341e+002, 8.586803e-002
4.242625e+002, 8.687352e-002
4.261910e+002, 8.768876e-002
4.281195e+002, 8.837824e-002
4.300479e+002, 8.924153e-002
4.319764e+002, 8.985554e-002
4.339049e+002, 9.051745e-002
4.358333e+002, 9.130239e-002
4.377618e+002, 9.190033e-002
4.396903e+002, 9.228871e-002
4.416187e+002, 9.263401e-002
4.435472e+002, 9.318908e-002
4.454757e+002, 9.369039e-002
4.474041e+002, 9.409125e-002
4.493326e+002, 9.452724e-002
4.512611e+002, 9.550687e-002
4.531895e+002, 9.627720e-002
4.551180e+002, 9.648021e-002
4.570465e+002, 9.683201e-002
4.589749e+002, 9.739231e-002
4.609034e+002, 9.795403e-002
4.628319e+002, 9.845957e-002
4.647603e+002, 9.887291e-002
4.666888e+002, 9.932117e-002
4.686173e+002, 1.002919e-001
4.705457e+002, 1.011114e-001
4.724742e+002, 1.018598e-001
4.744027e+002, 1.023244e-001
4.763311e+002, 1.028064e-001
4.782596e+002, 1.034327e-001
4.801881e+002, 1.044920e-001
4.821165e+002, 1.052100e-001
4.840450e+002, 1.055361e-001
4.859735e+002, 1.057322e-001
4.879019e+002, 1.062297e-001
4.898304e+002, 1.070723e-001
4.917589e+002, 1.081891e-001
4.936873e+002, 1.089714e-001
4.956158e+002, 1.095904e-001
4.975443e+002, 1.100928e-001
4.994727e+002, 1.104798e-001
5.014012e+002, 1.109446e-001
5.033297e+002, 1.115131e-001
5.052581e+002, 1.120542e-001
5.071866e+002, 1.128423e-001
5.091151e+002, 1.133877e-001
5.110435e+002, 1.138470e-001
5.129720e+002, 1.139916e-001
5.149005e+002, 1.145157e-001
5.168289e+002, 1.149739e-001
5.187574e+002, 1.151440e-001
5.206859e+002, 1.155847e-001
5.226143e+002, 1.159459e-001
5.245428e+002, 1.165365e-001
5.264713e+002, 1.170697e-001
5.283997e+002, 1.174052e-001
5.303282e+002, 1.176726e-001
5.322567e+002, 1.180859e-001
5.341851e+002, 1.185546e-001
5.361136e+002, 1.185878e-001
5.380421e+002, 1.188208e-001
5.399705e+002, 1.191556e-001
5.418990e+002, 1.197591e-001
5.438275e+002, 1.201559e-001
5.457559e+002, 1.205133e-001
5.476844e+002, 1.213675e-001
5.496129e+002, 1.222620e-001
5.515413e+002, 1.225755e-001
5.534698e+002, 1.230104e-001
5.553983e+002, 1.236956e-001
5.573267e+002, 1.239746e-001
5.592552e+002, 1.244510e-001
5.611837e+002, 1.250074e-001
5.631121e+002, 1.259833e-001
5.650406e+002, 1.268544e-001
5.669691e+002, 1.271710e-001
5.688975e+002, 1.277330e-001
5.708260e+002, 1.283100e-001
5.727545e+002, 1.287190e-001
5.746829e+002, 1.293384e-001
5.766114e+002, 1.296436e-001
5.785399e+002, 1.299930e-001
5.804683e+002, 1.303914e-001
5.823968e+002, 1.308893e-001
5.843253e+002, 1.312800e-001
5.862537e+002, 1.321013e-001
5.881822e+002, 1.330761e-001
5.901107e+002, 1.334315e-001
5.920391e+002, 1.338340e-001
5.939676e+002, 1.341658e-001
5.958961e+002, 1.348378e-001
5.978245e+002, 1.356892e-001
5.997530e+002, 1.364898e-001
6.016815e+002, 1.367043e-001
6.036099e+002, 1.375342e-001
6.055384e+002, 1.383280e-001
6.074669e+002, 1.392886e-001
6.093953e+002, 1.400001e-001
6.113238e+002, 1.394004e-001
6.132523e+002, 1.398221e-001
6.151807e+002, 1.407232e-001
6.171091e+002, 1.418824e-001
6.190376e+002, 1.428078e-001
6.209661e+002, 1.441002e-001
6.228945e+002, 1.452310e-001
6.248230e+002, 1.461929e-001
6.267515e+002, 1.466617e-001
6.286799e+002, 1.468171e-001
6.306084e+002, 1.466328e-001
6.325369e+002, 1.460230e-001
6.344653e+002, 1.457362e-001
6.363938e+002, 1.455319e-001
6.383223e+002, 1.452993e-001
6.402507e+002, 1.453332e-001
6.421792e+002, 1.454833e-001
6.441077e+002, 1.455257e-001
6.460361e+002, 1.458445e-001
6.479646e+002, 1.461951e-001
6.498931e+002, 1.464376e-001
6.518215e+002, 1.465472e-001
6.537500e+002, 1.468440e-001
6.556785e+002, 1.469533e-001
6.576069e+002, 1.469616e-001
6.595354e+002, 1.472891e-001
6.614639e+002, 1.475629e-001
6.633923e+002, 1.479196e-001
6.653208e+002, 1.481671e-001
6.672493e+002, 1.487720e-001
6.691777e+002, 1.495334e-001
6.711062e+002, 1.494449e-001
6.730347e+002, 1.498462e-001
6.749631e+002, 1.505858e-001
6.768916e+002, 1.510047e-001
6.788201e+002, 1.516959e-001
6.807485e+002, 1.523878e-001
6.826770e+002, 1.530120e-001
6.846055e+002, 1.529160e-001
6.865339e+002, 1.525515e-001
6.884624e+002, 1.534512e-001
6.903909e+002, 1.552161e-001
6.923193e+002, 1.559323e-001
6.942478e+002, 1.564626e-001
6.961763e+002, 1.572006e-001
6.981047e+002, 1.584982e-001
7.000332e+002, 1.605283e-001
##END=



