##NAMES=Jamesonite
##RRUFFID=R050432
##IDEAL CHEMISTRY=Pb^2+^_4_Fe^2+^Sb^3+^_6_S^2-^_14_
##LOCALITY=San Jose mine, Oruro District, Bolivia
##OWNER=RRUFF
##SOURCE=University of Arizona Mineral Museum
##DESCRIPTION=Grayish black coarse acicular crystals
##STATUS=The identification of this mineral has been confirmed by X-ray diffraction and chemical analysis
##URL=rruff.info/R050432
##MEASURED CHEMISTRY=Pb_4.00_Fe_1.00_(Sb_5.95_As_0.05_)_Î£=6_S_14.00_
3.741225e+002, 1.159810e-001
3.760510e+002, 1.157912e-001
3.779795e+002, 1.257537e-001
3.799079e+002, 1.279166e-001
3.818364e+002, 1.281601e-001
3.837649e+002, 1.301333e-001
3.856933e+002, 1.371670e-001
3.876218e+002, 1.449665e-001
3.895503e+002, 1.495466e-001
3.914787e+002, 1.549447e-001
3.934072e+002, 1.577429e-001
3.953357e+002, 1.568521e-001
3.972641e+002, 1.641536e-001
3.991926e+002, 1.703398e-001
4.011211e+002, 1.734735e-001
4.030495e+002, 1.781902e-001
4.049780e+002, 1.837116e-001
4.069065e+002, 1.872699e-001
4.088349e+002, 1.927871e-001
4.107634e+002, 1.963980e-001
4.126919e+002, 1.969716e-001
4.146203e+002, 1.979236e-001
4.165488e+002, 2.005122e-001
4.184773e+002, 2.007397e-001
4.204057e+002, 2.022671e-001
4.223342e+002, 2.040034e-001
4.242627e+002, 2.037387e-001
4.261911e+002, 2.058838e-001
4.281196e+002, 2.079185e-001
4.300481e+002, 2.112472e-001
4.319765e+002, 2.121207e-001
4.339050e+002, 2.139118e-001
4.358335e+002, 2.170634e-001
4.377619e+002, 2.207197e-001
4.396904e+002, 2.243378e-001
4.416189e+002, 2.263722e-001
4.435473e+002, 2.294534e-001
4.454758e+002, 2.321599e-001
4.474043e+002, 2.365968e-001
4.493327e+002, 2.394762e-001
4.512612e+002, 2.412015e-001
4.531897e+002, 2.428949e-001
4.551181e+002, 2.448587e-001
4.570466e+002, 2.472536e-001
4.589751e+002, 2.495167e-001
4.609035e+002, 2.503226e-001
4.628320e+002, 2.518816e-001
4.647605e+002, 2.530605e-001
4.666889e+002, 2.553225e-001
4.686174e+002, 2.568958e-001
4.705459e+002, 2.579660e-001
4.724743e+002, 2.600124e-001
4.744028e+002, 2.606907e-001
4.763313e+002, 2.617750e-001
4.782597e+002, 2.644263e-001
4.801882e+002, 2.659652e-001
4.821167e+002, 2.671051e-001
4.840451e+002, 2.687523e-001
4.859736e+002, 2.708957e-001
4.879021e+002, 2.728932e-001
4.898305e+002, 2.751214e-001
4.917590e+002, 2.760298e-001
4.936875e+002, 2.790108e-001
4.956159e+002, 2.808917e-001
4.975444e+002, 2.839881e-001
4.994729e+002, 2.863865e-001
5.014013e+002, 2.884221e-001
5.033298e+002, 2.909749e-001
5.052583e+002, 2.935950e-001
5.071867e+002, 2.972418e-001
5.091152e+002, 2.969286e-001
5.110437e+002, 2.974759e-001
5.129721e+002, 3.003991e-001
5.149006e+002, 3.027070e-001
5.168290e+002, 3.045538e-001
5.187575e+002, 3.057817e-001
5.206860e+002, 3.068226e-001
5.226144e+002, 3.082466e-001
5.245429e+002, 3.107554e-001
5.264714e+002, 3.121229e-001
5.283998e+002, 3.129614e-001
5.303283e+002, 3.153912e-001
5.322568e+002, 3.158630e-001
5.341852e+002, 3.178547e-001
5.361137e+002, 3.202253e-001
5.380422e+002, 3.209964e-001
5.399706e+002, 3.224151e-001
5.418991e+002, 3.254948e-001
5.438276e+002, 3.274658e-001
5.457560e+002, 3.279150e-001
5.476845e+002, 3.291202e-001
5.496130e+002, 3.305053e-001
5.515414e+002, 3.327873e-001
5.534699e+002, 3.354909e-001
5.553984e+002, 3.369983e-001
5.573268e+002, 3.385261e-001
5.592553e+002, 3.393855e-001
5.611838e+002, 3.405688e-001
5.631122e+002, 3.413254e-001
5.650407e+002, 3.433205e-001
5.669692e+002, 3.453046e-001
5.688976e+002, 3.459663e-001
5.708261e+002, 3.478369e-001
5.727546e+002, 3.492390e-001
5.746830e+002, 3.509186e-001
5.766115e+002, 3.512568e-001
5.785400e+002, 3.532228e-001
5.804684e+002, 3.548921e-001
5.823969e+002, 3.558888e-001
5.843254e+002, 3.560299e-001
5.862538e+002, 3.576638e-001
5.881823e+002, 3.588378e-001
5.901108e+002, 3.589452e-001
5.920392e+002, 3.605189e-001
5.939677e+002, 3.622386e-001
5.958962e+002, 3.631195e-001
5.978246e+002, 3.630224e-001
5.997531e+002, 3.628052e-001
6.016816e+002, 3.636882e-001
6.036100e+002, 3.655109e-001
6.055385e+002, 3.668649e-001
6.074670e+002, 3.679733e-001
6.093954e+002, 3.677201e-001
6.113239e+002, 3.680843e-001
6.132524e+002, 3.682803e-001
6.151808e+002, 3.689758e-001
6.171093e+002, 3.701065e-001
6.190378e+002, 3.711463e-001
6.209662e+002, 3.713650e-001
6.228947e+002, 3.721063e-001
6.248232e+002, 3.726901e-001
6.267516e+002, 3.728947e-001
6.286801e+002, 3.734638e-001
6.306086e+002, 3.747723e-001
6.325370e+002, 3.751855e-001
6.344655e+002, 3.764360e-001
6.363940e+002, 3.778608e-001
6.383224e+002, 3.784226e-001
6.402509e+002, 3.786351e-001
6.421794e+002, 3.779332e-001
6.441078e+002, 3.782283e-001
6.460363e+002, 3.791808e-001
6.479648e+002, 3.797727e-001
6.498932e+002, 3.797584e-001
6.518217e+002, 3.803684e-001
6.537502e+002, 3.810582e-001
6.556786e+002, 3.817437e-001
6.576071e+002, 3.825496e-001
6.595356e+002, 3.832573e-001
6.614641e+002, 3.846756e-001
6.633925e+002, 3.852407e-001
6.653210e+002, 3.858664e-001
6.672495e+002, 3.873210e-001
6.691779e+002, 3.876885e-001
6.711064e+002, 3.871875e-001
6.730349e+002, 3.877929e-001
6.749633e+002, 3.894384e-001
6.768918e+002, 3.903430e-001
6.788203e+002, 3.907807e-001
6.807487e+002, 3.920932e-001
6.826772e+002, 3.932486e-001
6.846057e+002, 3.936073e-001
6.865341e+002, 3.944177e-001
6.884626e+002, 3.951844e-001
6.903911e+002, 3.957807e-001
6.923195e+002, 3.969471e-001
6.942480e+002, 3.977640e-001
6.961765e+002, 3.989803e-001
6.981049e+002, 3.999871e-001
7.000334e+002, 4.012028e-001
7.019619e+002, 4.012199e-001
7.038903e+002, 4.020917e-001
7.058188e+002, 4.030940e-001
7.077473e+002, 4.037713e-001
7.096757e+002, 4.045547e-001
7.116042e+002, 4.065487e-001
7.135327e+002, 4.078029e-001
7.154611e+002, 4.084781e-001
7.173896e+002, 4.091768e-001
7.193181e+002, 4.097334e-001
7.212465e+002, 4.100747e-001
7.231750e+002, 4.111341e-001
7.251035e+002, 4.131793e-001
7.270319e+002, 4.136020e-001
7.289604e+002, 4.142364e-001
7.308889e+002, 4.152533e-001
7.328173e+002, 4.157733e-001
7.347458e+002, 4.166099e-001
7.366743e+002, 4.178534e-001
7.386027e+002, 4.192457e-001
7.405312e+002, 4.203544e-001
7.424597e+002, 4.205030e-001
7.443881e+002, 4.211473e-001
7.463166e+002, 4.222700e-001
7.482451e+002, 4.229611e-001
7.501735e+002, 4.239836e-001
7.521020e+002, 4.252520e-001
7.540305e+002, 4.258528e-001
7.559589e+002, 4.260632e-001
7.578874e+002, 4.262310e-001
7.598159e+002, 4.276987e-001
7.617443e+002, 4.287015e-001
7.636728e+002, 4.293359e-001
7.656013e+002, 4.297633e-001
7.675297e+002, 4.309465e-001
7.694582e+002, 4.318443e-001
7.713867e+002, 4.321914e-001
7.733151e+002, 4.324516e-001
7.752436e+002, 4.338418e-001
7.771721e+002, 4.352747e-001
7.791005e+002, 4.363790e-001
7.810290e+002, 4.372508e-001
7.829575e+002, 4.385071e-001
7.848859e+002, 4.389634e-001
7.868144e+002, 4.395897e-001
7.887429e+002, 4.402577e-001
7.906713e+002, 4.417852e-001
7.925998e+002, 4.429428e-001
7.945283e+002, 4.432003e-001
7.964567e+002, 4.441154e-001
7.983852e+002, 4.449186e-001
8.003137e+002, 4.455360e-001
8.022421e+002, 4.461505e-001
8.041706e+002, 4.474690e-001
8.060991e+002, 4.488927e-001
8.080275e+002, 4.495980e-001
8.099560e+002, 4.505103e-001
8.118845e+002, 4.516188e-001
8.138129e+002, 4.520707e-001
8.157414e+002, 4.525199e-001
8.176699e+002, 4.532734e-001
8.195983e+002, 4.541683e-001
8.215268e+002, 4.552153e-001
8.234553e+002, 4.562805e-001
8.253837e+002, 4.573940e-001
8.273122e+002, 4.584845e-001
8.292407e+002, 4.588788e-001
8.311691e+002, 4.596508e-001
8.330976e+002, 4.596562e-001
8.350261e+002, 4.605124e-001
8.369545e+002, 4.612810e-001
8.388830e+002, 4.621045e-001
8.408115e+002, 4.631824e-001
8.427399e+002, 4.644994e-001
8.446684e+002, 4.662603e-001
8.465969e+002, 4.671800e-001
8.485253e+002, 4.674233e-001
8.504538e+002, 4.683037e-001
8.523823e+002, 4.695960e-001
8.543107e+002, 4.707606e-001
8.562392e+002, 4.716948e-001
8.581677e+002, 4.741840e-001
8.600961e+002, 4.752759e-001
8.620246e+002, 4.753342e-001
8.639531e+002, 4.757580e-001
8.658815e+002, 4.770307e-001
8.678100e+002, 4.786257e-001
8.697385e+002, 4.797121e-001
8.716669e+002, 4.806735e-001
8.735954e+002, 4.817631e-001
8.755239e+002, 4.832703e-001
8.774523e+002, 4.848608e-001
8.793808e+002, 4.859836e-001
8.813093e+002, 4.869013e-001
8.832377e+002, 4.876087e-001
8.851662e+002, 4.885048e-001
8.870947e+002, 4.900768e-001
8.890231e+002, 4.915480e-001
8.909516e+002, 4.928934e-001
8.928801e+002, 4.941438e-001
8.948085e+002, 4.950319e-001
8.967370e+002, 4.953399e-001
8.986655e+002, 4.963828e-001
9.005939e+002, 4.977352e-001
9.025224e+002, 4.988242e-001
9.044509e+002, 5.000481e-001
9.063793e+002, 5.014336e-001
9.083078e+002, 5.024084e-001
9.102363e+002, 5.033931e-001
9.121647e+002, 5.046332e-001
9.140932e+002, 5.057618e-001
9.160217e+002, 5.069175e-001
9.179501e+002, 5.082467e-001
9.198786e+002, 5.095095e-001
9.218071e+002, 5.104868e-001
9.237355e+002, 5.113422e-001
9.256640e+002, 5.124333e-001
9.275925e+002, 5.139929e-001
9.295209e+002, 5.153267e-001
9.314494e+002, 5.165455e-001
9.333779e+002, 5.177850e-001
9.353063e+002, 5.190895e-001
9.372348e+002, 5.202456e-001
9.391633e+002, 5.212519e-001
9.410917e+002, 5.223536e-001
9.430202e+002, 5.237654e-001
9.449487e+002, 5.252790e-001
9.468771e+002, 5.264975e-001
9.488056e+002, 5.273929e-001
9.507341e+002, 5.286366e-001
9.526625e+002, 5.302261e-001
9.545910e+002, 5.312935e-001
9.565195e+002, 5.322348e-001
9.584479e+002, 5.334646e-001
9.603764e+002, 5.349057e-001
9.623049e+002, 5.363308e-001
9.642333e+002, 5.375261e-001
9.661618e+002, 5.386042e-001
9.680903e+002, 5.398313e-001
9.700187e+002, 5.407308e-001
9.719472e+002, 5.415865e-001
9.738757e+002, 5.427541e-001
9.758041e+002, 5.440841e-001
9.777326e+002, 5.450908e-001
9.796611e+002, 5.460065e-001
9.815895e+002, 5.469159e-001
9.835180e+002, 5.477119e-001
9.854465e+002, 5.486385e-001
9.873749e+002, 5.495189e-001
9.893034e+002, 5.505651e-001
9.912319e+002, 5.516695e-001
9.931603e+002, 5.527076e-001
9.950888e+002, 5.534009e-001
9.970173e+002, 5.540143e-001
9.989457e+002, 5.549917e-001
1.000874e+003, 5.565810e-001
1.002803e+003, 5.581924e-001
1.004731e+003, 5.596212e-001
1.006660e+003, 5.610541e-001
1.008588e+003, 5.624034e-001
1.010517e+003, 5.635430e-001
1.012445e+003, 5.647326e-001
1.014373e+003, 5.656691e-001
1.016302e+003, 5.664228e-001
1.018230e+003, 5.670713e-001
1.020159e+003, 5.676614e-001
1.022087e+003, 5.683036e-001
1.024016e+003, 5.691288e-001
1.025944e+003, 5.700865e-001
1.027873e+003, 5.709582e-001
1.029801e+003, 5.716614e-001
1.031730e+003, 5.724159e-001
1.033658e+003, 5.732476e-001
1.035587e+003, 5.739397e-001
1.037515e+003, 5.746179e-001
1.039443e+003, 5.753629e-001
1.041372e+003, 5.760190e-001
1.043300e+003, 5.767692e-001
1.045229e+003, 5.776515e-001
1.047157e+003, 5.786726e-001
1.049086e+003, 5.793352e-001
1.051014e+003, 5.799463e-001
1.052943e+003, 5.804188e-001
1.054871e+003, 5.808937e-001
1.056800e+003, 5.818954e-001
1.058728e+003, 5.828437e-001
1.060657e+003, 5.834774e-001
1.062585e+003, 5.838105e-001
1.064514e+003, 5.844983e-001
1.066442e+003, 5.857183e-001
1.068370e+003, 5.866216e-001
1.070299e+003, 5.871326e-001
1.072227e+003, 5.876341e-001
1.074156e+003, 5.884911e-001
1.076084e+003, 5.892969e-001
1.078013e+003, 5.898671e-001
1.079941e+003, 5.904776e-001
1.081870e+003, 5.910646e-001
1.083798e+003, 5.916424e-001
1.085727e+003, 5.923902e-001
1.087655e+003, 5.929379e-001
1.089584e+003, 5.936784e-001
1.091512e+003, 5.943263e-001
1.093441e+003, 5.950870e-001
1.095369e+003, 5.956112e-001
1.097297e+003, 5.961548e-001
1.099226e+003, 5.970271e-001
1.101154e+003, 5.976639e-001
1.103083e+003, 5.981234e-001
1.105011e+003, 5.987985e-001
1.106940e+003, 5.995223e-001
1.108868e+003, 6.001598e-001
1.110797e+003, 6.006513e-001
1.112725e+003, 6.009962e-001
1.114654e+003, 6.018559e-001
1.116582e+003, 6.025625e-001
1.118511e+003, 6.032376e-001
1.120439e+003, 6.040277e-001
1.122368e+003, 6.048127e-001
1.124296e+003, 6.053597e-001
1.126224e+003, 6.059082e-001
1.128153e+003, 6.070805e-001
1.130081e+003, 6.081029e-001
1.132010e+003, 6.088356e-001
1.133938e+003, 6.099004e-001
1.135867e+003, 6.108803e-001
1.137795e+003, 6.121076e-001
1.139724e+003, 6.134984e-001
1.141652e+003, 6.149097e-001
1.143581e+003, 6.161650e-001
1.145509e+003, 6.170583e-001
1.147438e+003, 6.176484e-001
1.149366e+003, 6.182936e-001
1.151295e+003, 6.184621e-001
1.153223e+003, 6.185257e-001
1.155151e+003, 6.188645e-001
1.157080e+003, 6.191873e-001
1.159008e+003, 6.193779e-001
1.160937e+003, 6.196629e-001
1.162865e+003, 6.200599e-001
1.164794e+003, 6.201774e-001
1.166722e+003, 6.202936e-001
1.168651e+003, 6.208607e-001
1.170579e+003, 6.212220e-001
1.172508e+003, 6.217147e-001
1.174436e+003, 6.224540e-001
1.176365e+003, 6.227356e-001
1.178293e+003, 6.234967e-001
1.180222e+003, 6.241060e-001
1.182150e+003, 6.246852e-001
1.184078e+003, 6.254646e-001
1.186007e+003, 6.263895e-001
1.187935e+003, 6.270549e-001
1.189864e+003, 6.277280e-001
1.191792e+003, 6.287682e-001
1.193721e+003, 6.297503e-001
1.195649e+003, 6.305798e-001
1.197578e+003, 6.316012e-001
1.199506e+003, 6.325278e-001
1.201435e+003, 6.330973e-001
1.203363e+003, 6.335326e-001
1.205292e+003, 6.341824e-001
1.207220e+003, 6.349504e-001
1.209149e+003, 6.355063e-001
1.211077e+003, 6.357559e-001
1.213005e+003, 6.363092e-001
1.214934e+003, 6.367758e-001
1.216862e+003, 6.372043e-001
1.218791e+003, 6.378212e-001
1.220719e+003, 6.385698e-001
1.222648e+003, 6.392337e-001
1.224576e+003, 6.398149e-001
1.226505e+003, 6.403029e-001
1.228433e+003, 6.411387e-001
1.230362e+003, 6.418427e-001
1.232290e+003, 6.422573e-001
1.234219e+003, 6.427990e-001
1.236147e+003, 6.433902e-001
1.238076e+003, 6.441032e-001
1.240004e+003, 6.449057e-001
1.241932e+003, 6.455824e-001
1.243861e+003, 6.462391e-001
1.245789e+003, 6.468471e-001
1.247718e+003, 6.471279e-001
1.249646e+003, 6.474947e-001
1.251575e+003, 6.483336e-001
1.253503e+003, 6.489648e-001
1.255432e+003, 6.492587e-001
1.257360e+003, 6.497345e-001
1.259289e+003, 6.503087e-001
1.261217e+003, 6.509004e-001
1.263146e+003, 6.515269e-001
1.265074e+003, 6.521627e-001
1.267003e+003, 6.527535e-001
1.268931e+003, 6.535498e-001
1.270859e+003, 6.544491e-001
1.272788e+003, 6.552060e-001
1.274716e+003, 6.558750e-001
1.276645e+003, 6.564553e-001
1.278573e+003, 6.572522e-001
1.280502e+003, 6.580862e-001
1.282430e+003, 6.588454e-001
1.284359e+003, 6.598033e-001
1.286287e+003, 6.607866e-001
1.288216e+003, 6.615173e-001
1.290144e+003, 6.622319e-001
1.292073e+003, 6.630386e-001
1.294001e+003, 6.640009e-001
1.295930e+003, 6.648638e-001
1.297858e+003, 6.656226e-001
1.299786e+003, 6.666986e-001
1.301715e+003, 6.674476e-001
1.303643e+003, 6.679907e-001
1.305572e+003, 6.686896e-001
1.307500e+003, 6.696727e-001
1.309429e+003, 6.705238e-001
1.311357e+003, 6.712885e-001
1.313286e+003, 6.721117e-001
1.315214e+003, 6.727745e-001
1.317143e+003, 6.733347e-001
1.319071e+003, 6.741024e-001
1.321000e+003, 6.749690e-001
1.322928e+003, 6.756505e-001
1.324857e+003, 6.764203e-001
1.326785e+003, 6.773745e-001
1.328714e+003, 6.781958e-001
1.330642e+003, 6.787808e-001
1.332570e+003, 6.798849e-001
1.334499e+003, 6.808703e-001
1.336427e+003, 6.815007e-001
1.338356e+003, 6.824075e-001
1.340284e+003, 6.834242e-001
1.342213e+003, 6.842114e-001
1.344141e+003, 6.849279e-001
1.346070e+003, 6.858844e-001
1.347998e+003, 6.867779e-001
1.349927e+003, 6.875048e-001
1.351855e+003, 6.883313e-001
1.353784e+003, 6.890856e-001
1.355712e+003, 6.898099e-001
1.357641e+003, 6.906797e-001
1.359569e+003, 6.915977e-001
1.361497e+003, 6.925489e-001
1.363426e+003, 6.935062e-001
1.365354e+003, 6.945114e-001
1.367283e+003, 6.954809e-001
1.369211e+003, 6.962147e-001
1.371140e+003, 6.972123e-001
1.373068e+003, 6.984314e-001
1.374997e+003, 6.994716e-001
1.376925e+003, 7.001493e-001
1.378854e+003, 7.007634e-001
1.380782e+003, 7.011059e-001
1.382711e+003, 7.014605e-001
1.384639e+003, 7.023005e-001
1.386568e+003, 7.030894e-001
1.388496e+003, 7.037109e-001
1.390424e+003, 7.045290e-001
1.392353e+003, 7.055632e-001
1.394281e+003, 7.064340e-001
1.396210e+003, 7.071700e-001
1.398138e+003, 7.081904e-001
1.400067e+003, 7.089782e-001
1.401995e+003, 7.097269e-001
1.403924e+003, 7.105694e-001
1.405852e+003, 7.110907e-001
1.407781e+003, 7.119289e-001
1.409709e+003, 7.129441e-001
1.411638e+003, 7.137071e-001
1.413566e+003, 7.143773e-001
1.415495e+003, 7.148682e-001
1.417423e+003, 7.155641e-001
1.419351e+003, 7.163758e-001
1.421280e+003, 7.170123e-001
1.423208e+003, 7.176365e-001
1.425137e+003, 7.182295e-001
1.427065e+003, 7.187419e-001
1.428994e+003, 7.193322e-001
1.430922e+003, 7.203676e-001
1.432851e+003, 7.214179e-001
1.434779e+003, 7.220403e-001
1.436708e+003, 7.226812e-001
1.438636e+003, 7.233765e-001
1.440565e+003, 7.242540e-001
1.442493e+003, 7.250847e-001
1.444422e+003, 7.260513e-001
1.446350e+003, 7.266933e-001
1.448278e+003, 7.271693e-001
1.450207e+003, 7.282056e-001
1.452135e+003, 7.293754e-001
1.454064e+003, 7.301447e-001
1.455992e+003, 7.309616e-001
1.457921e+003, 7.314179e-001
1.459849e+003, 7.317510e-001
1.461778e+003, 7.321485e-001
1.463706e+003, 7.323513e-001
1.465635e+003, 7.324049e-001
1.467563e+003, 7.322242e-001
1.469492e+003, 7.319891e-001
1.471420e+003, 7.321524e-001
1.473349e+003, 7.322988e-001
1.475277e+003, 7.326496e-001
1.477205e+003, 7.333091e-001
1.479134e+003, 7.339908e-001
1.481062e+003, 7.346563e-001
1.482991e+003, 7.351863e-001
1.484919e+003, 7.358262e-001
1.486848e+003, 7.365505e-001
1.488776e+003, 7.372940e-001
1.490705e+003, 7.379306e-001
1.492633e+003, 7.388626e-001
1.494562e+003, 7.398882e-001
1.496490e+003, 7.407512e-001
1.498419e+003, 7.416562e-001
1.500347e+003, 7.426267e-001
1.502276e+003, 7.434600e-001
1.504204e+003, 7.442462e-001
1.506132e+003, 7.449868e-001
1.508061e+003, 7.457778e-001
1.509989e+003, 7.468585e-001
1.511918e+003, 7.478855e-001
1.513846e+003, 7.487316e-001
1.515775e+003, 7.495514e-001
1.517703e+003, 7.502592e-001
1.519632e+003, 7.509744e-001
1.521560e+003, 7.517915e-001
1.523489e+003, 7.526432e-001
1.525417e+003, 7.534066e-001
1.527346e+003, 7.541934e-001
1.529274e+003, 7.550101e-001
1.531203e+003, 7.558549e-001
1.533131e+003, 7.563239e-001
1.535059e+003, 7.568854e-001
1.536988e+003, 7.578363e-001
1.538916e+003, 7.586318e-001
1.540845e+003, 7.592697e-001
1.542773e+003, 7.600349e-001
1.544702e+003, 7.608722e-001
1.546630e+003, 7.615693e-001
1.548559e+003, 7.621604e-001
1.550487e+003, 7.626327e-001
1.552416e+003, 7.631862e-001
1.554344e+003, 7.638856e-001
1.556273e+003, 7.646445e-001
1.558201e+003, 7.651058e-001
1.560130e+003, 7.654496e-001
1.562058e+003, 7.661732e-001
1.563986e+003, 7.667373e-001
1.565915e+003, 7.670615e-001
1.567843e+003, 7.675931e-001
1.569772e+003, 7.683569e-001
1.571700e+003, 7.690449e-001
1.573629e+003, 7.699058e-001
1.575557e+003, 7.706975e-001
1.577486e+003, 7.712721e-001
1.579414e+003, 7.719411e-001
1.581343e+003, 7.726113e-001
1.583271e+003, 7.731822e-001
1.585200e+003, 7.736275e-001
1.587128e+003, 7.743139e-001
1.589057e+003, 7.753811e-001
1.590985e+003, 7.759044e-001
1.592913e+003, 7.763063e-001
1.594842e+003, 7.772979e-001
1.596770e+003, 7.782183e-001
1.598699e+003, 7.788450e-001
1.600627e+003, 7.794880e-001
1.602556e+003, 7.803356e-001
1.604484e+003, 7.812597e-001
1.606413e+003, 7.821451e-001
1.608341e+003, 7.829054e-001
1.610270e+003, 7.834017e-001
1.612198e+003, 7.840045e-001
1.614127e+003, 7.847325e-001
1.616055e+003, 7.853046e-001
1.617984e+003, 7.860291e-001
1.619912e+003, 7.867981e-001
1.621840e+003, 7.875277e-001
1.623769e+003, 7.880038e-001
1.625697e+003, 7.887388e-001
1.627626e+003, 7.895398e-001
1.629554e+003, 7.901417e-001
1.631483e+003, 7.906985e-001
1.633411e+003, 7.912901e-001
1.635340e+003, 7.917578e-001
1.637268e+003, 7.923013e-001
1.639197e+003, 7.930906e-001
1.641125e+003, 7.935418e-001
1.643054e+003, 7.942663e-001
1.644982e+003, 7.953772e-001
1.646911e+003, 7.960700e-001
1.648839e+003, 7.962584e-001
1.650767e+003, 7.966436e-001
1.652696e+003, 7.972569e-001
1.654624e+003, 7.978322e-001
1.656553e+003, 7.983273e-001
1.658481e+003, 7.987766e-001
1.660410e+003, 7.991884e-001
1.662338e+003, 7.992515e-001
1.664267e+003, 7.996868e-001
1.666195e+003, 8.004152e-001
1.668124e+003, 8.008566e-001
1.670052e+003, 8.013436e-001
1.671981e+003, 8.018767e-001
1.673909e+003, 8.022988e-001
1.675838e+003, 8.028603e-001
1.677766e+003, 8.032483e-001
1.679694e+003, 8.037465e-001
1.681623e+003, 8.044205e-001
1.683551e+003, 8.050984e-001
1.685480e+003, 8.056322e-001
1.687408e+003, 8.061971e-001
1.689337e+003, 8.065368e-001
1.691265e+003, 8.068823e-001
1.693194e+003, 8.074179e-001
1.695122e+003, 8.080180e-001
1.697051e+003, 8.087004e-001
1.698979e+003, 8.092974e-001
1.700908e+003, 8.100010e-001
1.702836e+003, 8.106256e-001
1.704765e+003, 8.110300e-001
1.706693e+003, 8.113463e-001
1.708621e+003, 8.122261e-001
1.710550e+003, 8.130771e-001
1.712478e+003, 8.134608e-001
1.714407e+003, 8.139687e-001
1.716335e+003, 8.145618e-001
1.718264e+003, 8.150690e-001
1.720192e+003, 8.155637e-001
1.722121e+003, 8.165440e-001
1.724049e+003, 8.172690e-001
1.725978e+003, 8.177212e-001
1.727906e+003, 8.180381e-001
1.729835e+003, 8.184922e-001
1.731763e+003, 8.190163e-001
1.733692e+003, 8.192669e-001
1.735620e+003, 8.196067e-001
1.737548e+003, 8.199033e-001
1.739477e+003, 8.199778e-001
1.741405e+003, 8.203600e-001
1.743334e+003, 8.203874e-001
1.745262e+003, 8.202947e-001
1.747191e+003, 8.205973e-001
1.749119e+003, 8.210849e-001
1.751048e+003, 8.213570e-001
1.752976e+003, 8.217529e-001
1.754905e+003, 8.223689e-001
1.756833e+003, 8.227655e-001
1.758762e+003, 8.231235e-001
1.760690e+003, 8.239036e-001
1.762619e+003, 8.243077e-001
1.764547e+003, 8.246213e-001
1.766475e+003, 8.253762e-001
1.768404e+003, 8.261033e-001
1.770332e+003, 8.267179e-001
1.772261e+003, 8.273680e-001
1.774189e+003, 8.278124e-001
1.776118e+003, 8.283205e-001
1.778046e+003, 8.285365e-001
1.779975e+003, 8.290989e-001
1.781903e+003, 8.298634e-001
1.783832e+003, 8.304836e-001
1.785760e+003, 8.307575e-001
1.787689e+003, 8.310503e-001
1.789617e+003, 8.312480e-001
1.791546e+003, 8.319191e-001
1.793474e+003, 8.330052e-001
1.795402e+003, 8.338275e-001
1.797331e+003, 8.342466e-001
1.799259e+003, 8.343045e-001
1.801188e+003, 8.346009e-001
1.803116e+003, 8.353282e-001
1.805045e+003, 8.357871e-001
1.806973e+003, 8.363889e-001
1.808902e+003, 8.370881e-001
1.810830e+003, 8.371380e-001
1.812759e+003, 8.375224e-001
1.814687e+003, 8.379338e-001
1.816616e+003, 8.381435e-001
1.818544e+003, 8.388319e-001
1.820473e+003, 8.396618e-001
1.822401e+003, 8.397512e-001
1.824329e+003, 8.400068e-001
1.826258e+003, 8.407968e-001
1.828186e+003, 8.417524e-001
1.830115e+003, 8.424827e-001
1.832043e+003, 8.426541e-001
1.833972e+003, 8.428448e-001
1.835900e+003, 8.434497e-001
1.837829e+003, 8.437646e-001
1.839757e+003, 8.439655e-001
1.841686e+003, 8.444437e-001
1.843614e+003, 8.451712e-001
1.845543e+003, 8.454325e-001
1.847471e+003, 8.452362e-001
1.849400e+003, 8.456684e-001
1.851328e+003, 8.467577e-001
1.853256e+003, 8.478572e-001
1.855185e+003, 8.481799e-001
1.857113e+003, 8.490057e-001
1.859042e+003, 8.496680e-001
1.860970e+003, 8.494703e-001
1.862899e+003, 8.499869e-001
1.864827e+003, 8.510407e-001
1.866756e+003, 8.514529e-001
1.868684e+003, 8.514565e-001
1.870613e+003, 8.514468e-001
1.872541e+003, 8.517438e-001
1.874470e+003, 8.530457e-001
1.876398e+003, 8.538494e-001
1.878327e+003, 8.531016e-001
1.880255e+003, 8.534831e-001
1.882183e+003, 8.545052e-001
1.884112e+003, 8.556029e-001
1.886040e+003, 8.570665e-001
1.887969e+003, 8.570664e-001
1.889897e+003, 8.572258e-001
1.891826e+003, 8.582425e-001
1.893754e+003, 8.584705e-001
1.895683e+003, 8.590656e-001
1.897611e+003, 8.601267e-001
1.899540e+003, 8.612996e-001
1.901468e+003, 8.618957e-001
1.903397e+003, 8.616194e-001
1.905325e+003, 8.630766e-001
1.907254e+003, 8.638202e-001
1.909182e+003, 8.633138e-001
1.911110e+003, 8.632126e-001
1.913039e+003, 8.644644e-001
1.914967e+003, 8.659974e-001
1.916896e+003, 8.666338e-001
1.918824e+003, 8.666263e-001
1.920753e+003, 8.670279e-001
1.922681e+003, 8.680024e-001
1.924610e+003, 8.671513e-001
1.926538e+003, 8.674904e-001
1.928467e+003, 8.687648e-001
1.930395e+003, 8.688570e-001
1.932324e+003, 8.701727e-001
1.934252e+003, 8.716679e-001
1.936181e+003, 8.716203e-001
1.938109e+003, 8.729401e-001
1.940037e+003, 8.730494e-001
1.941966e+003, 8.723044e-001
1.943894e+003, 8.715892e-001
1.945823e+003, 8.726518e-001
1.947751e+003, 8.737684e-001
1.949680e+003, 8.747354e-001
1.951608e+003, 8.752073e-001
1.953537e+003, 8.752731e-001
1.955465e+003, 8.735881e-001
1.957394e+003, 8.754026e-001
1.959322e+003, 8.778437e-001
1.961251e+003, 8.780798e-001
1.963179e+003, 8.776957e-001
1.965108e+003, 8.798974e-001
1.967036e+003, 8.792963e-001
1.968964e+003, 8.757520e-001
1.970893e+003, 8.778659e-001
1.972821e+003, 8.799586e-001
1.974750e+003, 8.799516e-001
1.976678e+003, 8.806860e-001
1.978607e+003, 8.816583e-001
1.980535e+003, 8.836818e-001
1.982464e+003, 8.846840e-001
1.984392e+003, 8.856414e-001
1.986321e+003, 8.873711e-001
1.988249e+003, 8.860490e-001
1.990178e+003, 8.858007e-001
1.992106e+003, 8.888915e-001
1.994035e+003, 8.898426e-001
1.995963e+003, 8.892195e-001
1.997891e+003, 8.926159e-001
1.999820e+003, 8.953420e-001
2.001748e+003, 8.918324e-001
2.003677e+003, 8.876422e-001
2.005605e+003, 8.890045e-001
2.007534e+003, 8.937036e-001
2.009462e+003, 8.951737e-001
2.011391e+003, 8.961514e-001
2.013319e+003, 8.961771e-001
2.015248e+003, 8.945103e-001
2.017176e+003, 8.940967e-001
2.019105e+003, 8.933903e-001
2.021033e+003, 8.929827e-001
2.022962e+003, 8.951450e-001
2.024890e+003, 8.986407e-001
2.026818e+003, 8.982009e-001
2.028747e+003, 9.016558e-001
2.030675e+003, 9.042710e-001
2.032604e+003, 9.045178e-001
2.034532e+003, 9.026092e-001
2.036461e+003, 8.979384e-001
2.038389e+003, 8.980143e-001
2.040318e+003, 9.004614e-001
2.042246e+003, 9.022558e-001
2.044175e+003, 9.049166e-001
2.046103e+003, 9.035567e-001
2.048031e+003, 9.026017e-001
2.049960e+003, 9.049484e-001
2.051888e+003, 9.069318e-001
2.053817e+003, 9.080660e-001
2.055745e+003, 9.084239e-001
2.057674e+003, 9.095250e-001
2.059602e+003, 9.086903e-001
2.061531e+003, 9.062623e-001
2.063459e+003, 9.049008e-001
2.065388e+003, 9.064298e-001
2.067316e+003, 9.096797e-001
2.069245e+003, 9.124402e-001
2.071173e+003, 9.136122e-001
2.073102e+003, 9.125692e-001
2.075030e+003, 9.141931e-001
2.076958e+003, 9.144979e-001
2.078887e+003, 9.142680e-001
2.080815e+003, 9.164074e-001
2.082744e+003, 9.173025e-001
2.084672e+003, 9.189680e-001
2.086601e+003, 9.194051e-001
2.088529e+003, 9.186661e-001
2.090458e+003, 9.186502e-001
2.092386e+003, 9.199252e-001
2.094315e+003, 9.198884e-001
2.096243e+003, 9.197032e-001
2.098172e+003, 9.221622e-001
2.100100e+003, 9.245923e-001
2.102029e+003, 9.242788e-001
2.103957e+003, 9.240987e-001
2.105885e+003, 9.250923e-001
2.107814e+003, 9.252390e-001
2.109742e+003, 9.244255e-001
2.111671e+003, 9.240732e-001
2.113599e+003, 9.251057e-001
2.115528e+003, 9.274178e-001
2.117456e+003, 9.274777e-001
2.119385e+003, 9.275967e-001
2.121313e+003, 9.274176e-001
2.123242e+003, 9.299312e-001
2.125170e+003, 9.312142e-001
2.127099e+003, 9.301492e-001
2.129027e+003, 9.311999e-001
2.130956e+003, 9.333547e-001
2.132884e+003, 9.331816e-001
2.134813e+003, 9.317622e-001
2.136741e+003, 9.312354e-001
2.138669e+003, 9.321452e-001
2.140598e+003, 9.334010e-001
2.142526e+003, 9.334210e-001
2.144455e+003, 9.336504e-001
2.146383e+003, 9.337304e-001
2.148312e+003, 9.344929e-001
2.150240e+003, 9.329336e-001
2.152169e+003, 9.321828e-001
2.154097e+003, 9.380180e-001
2.156026e+003, 9.425093e-001
2.157954e+003, 9.408833e-001
2.159883e+003, 9.370643e-001
2.161811e+003, 9.361840e-001
2.163740e+003, 9.362316e-001
2.165668e+003, 9.393768e-001
2.167596e+003, 9.400014e-001
2.169525e+003, 9.398757e-001
2.171453e+003, 9.390892e-001
2.173382e+003, 9.405935e-001
2.175310e+003, 9.389885e-001
2.177239e+003, 9.406384e-001
2.179167e+003, 9.429942e-001
2.181096e+003, 9.415374e-001
2.183024e+003, 9.417890e-001
2.184953e+003, 9.446697e-001
2.186881e+003, 9.454253e-001
2.188810e+003, 9.468319e-001
2.190738e+003, 9.444844e-001
2.192667e+003, 9.420198e-001
2.194595e+003, 9.454864e-001
2.196523e+003, 9.491515e-001
2.198452e+003, 9.488492e-001
2.200380e+003, 9.494077e-001
2.202309e+003, 9.505937e-001
2.204237e+003, 9.500687e-001
2.206166e+003, 9.490108e-001
2.208094e+003, 9.489786e-001
2.210023e+003, 9.492816e-001
2.211951e+003, 9.501996e-001
2.213880e+003, 9.509482e-001
2.215808e+003, 9.518144e-001
2.217737e+003, 9.544259e-001
2.219665e+003, 9.561920e-001
2.221594e+003, 9.547575e-001
2.223522e+003, 9.558110e-001
2.225450e+003, 9.557816e-001
2.227379e+003, 9.555575e-001
2.229307e+003, 9.576374e-001
2.231236e+003, 9.567367e-001
2.233164e+003, 9.568189e-001
2.235093e+003, 9.600928e-001
2.237021e+003, 9.608245e-001
2.238950e+003, 9.619985e-001
2.240878e+003, 9.624555e-001
2.242807e+003, 9.619817e-001
2.244735e+003, 9.620231e-001
2.246664e+003, 9.629006e-001
2.248592e+003, 9.644547e-001
2.250521e+003, 9.650655e-001
2.252449e+003, 9.639964e-001
2.254377e+003, 9.642286e-001
2.256306e+003, 9.638697e-001
2.258234e+003, 9.632699e-001
2.260163e+003, 9.641961e-001
2.262091e+003, 9.646262e-001
2.264020e+003, 9.646495e-001
2.265948e+003, 9.653374e-001
2.267877e+003, 9.657140e-001
2.269805e+003, 9.684048e-001
2.271734e+003, 9.702017e-001
2.273662e+003, 9.710581e-001
2.275591e+003, 9.721290e-001
2.277519e+003, 9.734628e-001
2.279448e+003, 9.732530e-001
2.281376e+003, 9.732184e-001
2.283304e+003, 9.733816e-001
2.285233e+003, 9.730501e-001
2.287161e+003, 9.726904e-001
2.289090e+003, 9.727708e-001
2.291018e+003, 9.731909e-001
2.292947e+003, 9.738755e-001
2.294875e+003, 9.739757e-001
2.296804e+003, 9.742650e-001
2.298732e+003, 9.743887e-001
2.300661e+003, 9.767278e-001
2.302589e+003, 9.785448e-001
2.304518e+003, 9.775380e-001
2.306446e+003, 9.765280e-001
2.308375e+003, 9.770487e-001
2.310303e+003, 9.775473e-001
2.312231e+003, 9.779955e-001
2.314160e+003, 9.786095e-001
2.316088e+003, 9.791756e-001
2.318017e+003, 9.801117e-001
2.319945e+003, 9.812776e-001
2.321874e+003, 9.807856e-001
2.323802e+003, 9.803621e-001
2.325731e+003, 9.814990e-001
2.327659e+003, 9.830381e-001
2.329588e+003, 9.833735e-001
2.331516e+003, 9.832772e-001
2.333445e+003, 9.835117e-001
2.335373e+003, 9.842507e-001
2.337302e+003, 9.849199e-001
2.339230e+003, 9.854347e-001
2.341158e+003, 9.856753e-001
2.343087e+003, 9.868815e-001
2.345015e+003, 9.877387e-001
2.346944e+003, 9.887043e-001
2.348872e+003, 9.884151e-001
2.350801e+003, 9.880925e-001
2.352729e+003, 9.877527e-001
2.354658e+003, 9.884900e-001
2.356586e+003, 9.898571e-001
2.358515e+003, 9.904044e-001
2.360443e+003, 9.901053e-001
2.362372e+003, 9.904503e-001
2.364300e+003, 9.921223e-001
2.366229e+003, 9.925473e-001
2.368157e+003, 9.928966e-001
2.370085e+003, 9.937524e-001
2.372014e+003, 9.942291e-001
2.373942e+003, 9.945533e-001
2.375871e+003, 9.947322e-001
2.377799e+003, 9.949841e-001
2.379728e+003, 9.959685e-001
2.381656e+003, 9.967499e-001
2.383585e+003, 9.966756e-001
2.385513e+003, 9.982362e-001
2.387442e+003, 9.991660e-001
2.389370e+003, 9.991941e-001
2.391299e+003, 9.988367e-001
2.393227e+003, 9.988625e-001
2.395156e+003, 9.996442e-001
2.397084e+003, 9.991980e-001
2.399012e+003, 9.996896e-001
2.400941e+003, 1.001057e+000
2.402869e+003, 9.996647e-001
2.404798e+003, 9.989454e-001
2.406726e+003, 1.001058e+000
2.408655e+003, 1.002853e+000
2.410583e+003, 1.003712e+000
2.412512e+003, 1.003587e+000
2.414440e+003, 1.003915e+000
2.416369e+003, 1.004402e+000
2.418297e+003, 1.004397e+000
2.420226e+003, 1.003834e+000
2.422154e+003, 1.003720e+000
2.424083e+003, 1.004910e+000
2.426011e+003, 1.005763e+000
2.427939e+003, 1.006452e+000
2.429868e+003, 1.007212e+000
2.431796e+003, 1.008251e+000
2.433725e+003, 1.006792e+000
2.435653e+003, 1.006874e+000
2.437582e+003, 1.007973e+000
2.439510e+003, 1.008242e+000
2.441439e+003, 1.009215e+000
2.443367e+003, 1.010000e+000
2.445296e+003, 1.010246e+000
2.447224e+003, 1.010902e+000
2.449153e+003, 1.010963e+000
2.451081e+003, 1.011038e+000
2.453010e+003, 1.011757e+000
2.454938e+003, 1.012047e+000
2.456866e+003, 1.012473e+000
2.458795e+003, 1.013502e+000
2.460723e+003, 1.013861e+000
2.462652e+003, 1.014404e+000
2.464580e+003, 1.014850e+000
2.466509e+003, 1.015206e+000
2.468437e+003, 1.015943e+000
2.470366e+003, 1.016782e+000
2.472294e+003, 1.016760e+000
2.474223e+003, 1.016727e+000
2.476151e+003, 1.017465e+000
2.478080e+003, 1.017771e+000
2.480008e+003, 1.018208e+000
2.481937e+003, 1.019554e+000
2.483865e+003, 1.020312e+000
2.485793e+003, 1.020295e+000
2.487722e+003, 1.020523e+000
2.489650e+003, 1.021628e+000
2.491579e+003, 1.022487e+000
2.493507e+003, 1.022734e+000
2.495436e+003, 1.023535e+000
2.497364e+003, 1.023478e+000
2.499293e+003, 1.023291e+000
2.501221e+003, 1.024387e+000
2.503150e+003, 1.024997e+000
2.505078e+003, 1.025061e+000
2.507007e+003, 1.025392e+000
2.508935e+003, 1.025339e+000
2.510864e+003, 1.025890e+000
2.512792e+003, 1.027241e+000
2.514720e+003, 1.027804e+000
2.516649e+003, 1.027387e+000
2.518577e+003, 1.027324e+000
2.520506e+003, 1.027933e+000
2.522434e+003, 1.028368e+000
2.524363e+003, 1.028852e+000
2.526291e+003, 1.029633e+000
2.528220e+003, 1.030105e+000
2.530148e+003, 1.030493e+000
2.532077e+003, 1.031241e+000
2.534005e+003, 1.032103e+000
2.535934e+003, 1.033049e+000
2.537862e+003, 1.032988e+000
2.539791e+003, 1.032892e+000
2.541719e+003, 1.033627e+000
2.543647e+003, 1.034509e+000
2.545576e+003, 1.034401e+000
2.547504e+003, 1.033740e+000
2.549433e+003, 1.034275e+000
2.551361e+003, 1.035897e+000
2.553290e+003, 1.037197e+000
2.555218e+003, 1.037364e+000
2.557147e+003, 1.037531e+000
2.559075e+003, 1.038358e+000
2.561004e+003, 1.039159e+000
2.562932e+003, 1.040017e+000
2.564861e+003, 1.041087e+000
2.566789e+003, 1.041492e+000
2.568718e+003, 1.041919e+000
2.570646e+003, 1.042015e+000
2.572574e+003, 1.041287e+000
2.574503e+003, 1.041805e+000
2.576431e+003, 1.043514e+000
2.578360e+003, 1.044627e+000
2.580288e+003, 1.044315e+000
2.582217e+003, 1.044017e+000
2.584145e+003, 1.045015e+000
2.586074e+003, 1.046498e+000
2.588002e+003, 1.046976e+000
2.589931e+003, 1.046878e+000
2.591859e+003, 1.047072e+000
2.593788e+003, 1.047798e+000
2.595716e+003, 1.048024e+000
2.597645e+003, 1.048850e+000
2.599573e+003, 1.050017e+000
2.601501e+003, 1.050426e+000
2.603430e+003, 1.050838e+000
2.605358e+003, 1.051377e+000
2.607287e+003, 1.052116e+000
2.609215e+003, 1.052884e+000
2.611144e+003, 1.053255e+000
2.613072e+003, 1.054266e+000
2.615001e+003, 1.055113e+000
2.616929e+003, 1.055540e+000
2.618858e+003, 1.055534e+000
2.620786e+003, 1.055746e+000
2.622715e+003, 1.056569e+000
2.624643e+003, 1.057555e+000
2.626572e+003, 1.058292e+000
2.628500e+003, 1.058910e+000
2.630428e+003, 1.059999e+000
2.632357e+003, 1.060931e+000
2.634285e+003, 1.061385e+000
2.636214e+003, 1.061621e+000
2.638142e+003, 1.062042e+000
2.640071e+003, 1.062377e+000
2.641999e+003, 1.062926e+000
2.643928e+003, 1.063354e+000
2.645856e+003, 1.064434e+000
2.647785e+003, 1.065130e+000
2.649713e+003, 1.065267e+000
2.651642e+003, 1.065989e+000
2.653570e+003, 1.066868e+000
2.655499e+003, 1.067196e+000
2.657427e+003, 1.067611e+000
2.659355e+003, 1.068262e+000
2.661284e+003, 1.068456e+000
2.663212e+003, 1.068898e+000
2.665141e+003, 1.069453e+000
2.667069e+003, 1.069369e+000
2.668998e+003, 1.069568e+000
2.670926e+003, 1.070032e+000
2.672855e+003, 1.070591e+000
2.674783e+003, 1.071002e+000
2.676712e+003, 1.071502e+000
2.678640e+003, 1.072457e+000
2.680569e+003, 1.072836e+000
2.682497e+003, 1.073062e+000
2.684426e+003, 1.073402e+000
2.686354e+003, 1.073942e+000
2.688282e+003, 1.074446e+000
2.690211e+003, 1.074729e+000
2.692139e+003, 1.075595e+000
2.694068e+003, 1.076166e+000
2.695996e+003, 1.076370e+000
2.697925e+003, 1.076641e+000
2.699853e+003, 1.076781e+000
2.701782e+003, 1.077248e+000
2.703710e+003, 1.078026e+000
2.705639e+003, 1.078452e+000
2.707567e+003, 1.078628e+000
2.709496e+003, 1.079251e+000
2.711424e+003, 1.079803e+000
2.713353e+003, 1.080187e+000
2.715281e+003, 1.080381e+000
2.717209e+003, 1.080959e+000
2.719138e+003, 1.081903e+000
2.721066e+003, 1.082193e+000
2.722995e+003, 1.082530e+000
2.724923e+003, 1.083016e+000
2.726852e+003, 1.083591e+000
2.728780e+003, 1.083607e+000
2.730709e+003, 1.083817e+000
2.732637e+003, 1.084660e+000
2.734566e+003, 1.085210e+000
2.736494e+003, 1.085493e+000
2.738423e+003, 1.085961e+000
2.740351e+003, 1.086298e+000
2.742280e+003, 1.086095e+000
2.744208e+003, 1.086329e+000
2.746136e+003, 1.086920e+000
2.748065e+003, 1.087669e+000
2.749993e+003, 1.088094e+000
2.751922e+003, 1.088597e+000
2.753850e+003, 1.089156e+000
2.755779e+003, 1.089957e+000
2.757707e+003, 1.090223e+000
2.759636e+003, 1.090376e+000
2.761564e+003, 1.090962e+000
2.763493e+003, 1.091492e+000
2.765421e+003, 1.091951e+000
2.767350e+003, 1.092216e+000
2.769278e+003, 1.092626e+000
2.771207e+003, 1.093057e+000
2.773135e+003, 1.093232e+000
2.775063e+003, 1.093437e+000
2.776992e+003, 1.094003e+000
2.778920e+003, 1.094474e+000
2.780849e+003, 1.094936e+000
2.782777e+003, 1.096113e+000
2.784706e+003, 1.096495e+000
2.786634e+003, 1.096537e+000
2.788563e+003, 1.097519e+000
2.790491e+003, 1.097847e+000
2.792420e+003, 1.098224e+000
2.794348e+003, 1.099086e+000
2.796277e+003, 1.099754e+000
2.798205e+003, 1.099917e+000
2.800134e+003, 1.100228e+000
2.802062e+003, 1.101085e+000
2.803990e+003, 1.101720e+000
2.805919e+003, 1.102275e+000
2.807847e+003, 1.102683e+000
2.809776e+003, 1.102887e+000
2.811704e+003, 1.103294e+000
2.813633e+003, 1.103306e+000
2.815561e+003, 1.103614e+000
2.817490e+003, 1.104648e+000
2.819418e+003, 1.105832e+000
2.821347e+003, 1.106302e+000
2.823275e+003, 1.106379e+000
2.825204e+003, 1.107703e+000
2.827132e+003, 1.108913e+000
2.829061e+003, 1.109135e+000
2.830989e+003, 1.109477e+000
2.832917e+003, 1.110793e+000
2.834846e+003, 1.112307e+000
2.836774e+003, 1.112955e+000
2.838703e+003, 1.113716e+000
2.840631e+003, 1.114402e+000
2.842560e+003, 1.115127e+000
2.844488e+003, 1.115516e+000
2.846417e+003, 1.115671e+000
2.848345e+003, 1.116133e+000
2.850274e+003, 1.116274e+000
2.852202e+003, 1.116506e+000
2.854131e+003, 1.116344e+000
2.856059e+003, 1.116056e+000
2.857988e+003, 1.116586e+000
2.859916e+003, 1.116810e+000
2.861844e+003, 1.116494e+000
2.863773e+003, 1.116913e+000
2.865701e+003, 1.117851e+000
2.867630e+003, 1.118608e+000
2.869558e+003, 1.118750e+000
2.871487e+003, 1.118925e+000
2.873415e+003, 1.119655e+000
2.875344e+003, 1.120445e+000
2.877272e+003, 1.120644e+000
2.879201e+003, 1.121276e+000
2.881129e+003, 1.122337e+000
2.883058e+003, 1.122986e+000
2.884986e+003, 1.122626e+000
2.886915e+003, 1.122812e+000
2.888843e+003, 1.124166e+000
2.890771e+003, 1.125475e+000
2.892700e+003, 1.125754e+000
2.894628e+003, 1.126059e+000
2.896557e+003, 1.127568e+000
2.898485e+003, 1.128251e+000
2.900414e+003, 1.128375e+000
2.902342e+003, 1.128996e+000
2.904271e+003, 1.129744e+000
2.906199e+003, 1.130780e+000
2.908128e+003, 1.131611e+000
2.910056e+003, 1.131980e+000
2.911985e+003, 1.131888e+000
2.913913e+003, 1.131580e+000
2.915842e+003, 1.131911e+000
2.917770e+003, 1.131788e+000
2.919698e+003, 1.131655e+000
2.921627e+003, 1.132058e+000
2.923555e+003, 1.132337e+000
2.925484e+003, 1.132773e+000
2.927412e+003, 1.132210e+000
2.929341e+003, 1.130867e+000
2.931269e+003, 1.130224e+000
2.933198e+003, 1.129834e+000
2.935126e+003, 1.129535e+000
2.937055e+003, 1.129028e+000
2.938983e+003, 1.128710e+000
2.940912e+003, 1.129573e+000
2.942840e+003, 1.130278e+000
2.944769e+003, 1.130736e+000
2.946697e+003, 1.131365e+000
2.948625e+003, 1.132095e+000
2.950554e+003, 1.132062e+000
2.952482e+003, 1.132066e+000
2.954411e+003, 1.131969e+000
2.956339e+003, 1.132116e+000
2.958268e+003, 1.132234e+000
2.960196e+003, 1.131834e+000
2.962125e+003, 1.131910e+000
2.964053e+003, 1.131492e+000
2.965982e+003, 1.131231e+000
2.967910e+003, 1.131791e+000
2.969839e+003, 1.131582e+000
2.971767e+003, 1.131541e+000
2.973696e+003, 1.132352e+000
2.975624e+003, 1.132404e+000
2.977552e+003, 1.132121e+000
2.979481e+003, 1.132730e+000
2.981409e+003, 1.133016e+000
2.983338e+003, 1.133051e+000
2.985266e+003, 1.133574e+000
2.987195e+003, 1.134240e+000
2.989123e+003, 1.134722e+000
2.991052e+003, 1.135061e+000
2.992980e+003, 1.135600e+000
2.994909e+003, 1.136390e+000
2.996837e+003, 1.136701e+000
2.998766e+003, 1.136838e+000
3.000694e+003, 1.136875e+000
3.002623e+003, 1.137875e+000
3.004551e+003, 1.139236e+000
3.006479e+003, 1.139748e+000
3.008408e+003, 1.139761e+000
3.010336e+003, 1.140162e+000
3.012265e+003, 1.140463e+000
3.014193e+003, 1.141048e+000
3.016122e+003, 1.141429e+000
3.018050e+003, 1.141343e+000
3.019979e+003, 1.142263e+000
3.021907e+003, 1.142369e+000
3.023836e+003, 1.142192e+000
3.025764e+003, 1.142719e+000
3.027693e+003, 1.143939e+000
3.029621e+003, 1.144227e+000
3.031550e+003, 1.144002e+000
3.033478e+003, 1.144612e+000
3.035406e+003, 1.145029e+000
3.037335e+003, 1.145939e+000
3.039263e+003, 1.146244e+000
3.041192e+003, 1.146504e+000
3.043120e+003, 1.147066e+000
3.045049e+003, 1.147432e+000
3.046977e+003, 1.147645e+000
3.048906e+003, 1.148396e+000
3.050834e+003, 1.149176e+000
3.052763e+003, 1.149512e+000
3.054691e+003, 1.149835e+000
3.056620e+003, 1.150131e+000
3.058548e+003, 1.150629e+000
3.060477e+003, 1.151114e+000
3.062405e+003, 1.151350e+000
3.064333e+003, 1.151151e+000
3.066262e+003, 1.152094e+000
3.068190e+003, 1.153274e+000
3.070119e+003, 1.153527e+000
3.072047e+003, 1.153814e+000
3.073976e+003, 1.154347e+000
3.075904e+003, 1.154972e+000
3.077833e+003, 1.155280e+000
3.079761e+003, 1.155550e+000
3.081690e+003, 1.155599e+000
3.083618e+003, 1.155663e+000
3.085547e+003, 1.156298e+000
3.087475e+003, 1.157259e+000
3.089404e+003, 1.157312e+000
3.091332e+003, 1.157352e+000
3.093260e+003, 1.157795e+000
3.095189e+003, 1.158298e+000
3.097117e+003, 1.158941e+000
3.099046e+003, 1.159762e+000
3.100974e+003, 1.160182e+000
3.102903e+003, 1.160296e+000
3.104831e+003, 1.160478e+000
3.106760e+003, 1.160855e+000
3.108688e+003, 1.161494e+000
3.110617e+003, 1.161860e+000
3.112545e+003, 1.162780e+000
3.114474e+003, 1.162860e+000
3.116402e+003, 1.162802e+000
3.118331e+003, 1.163221e+000
3.120259e+003, 1.163941e+000
3.122188e+003, 1.164397e+000
3.124116e+003, 1.165180e+000
3.126044e+003, 1.166086e+000
3.127973e+003, 1.165770e+000
3.129901e+003, 1.165918e+000
3.131830e+003, 1.166825e+000
3.133758e+003, 1.167954e+000
3.135687e+003, 1.168127e+000
3.137615e+003, 1.167536e+000
3.139544e+003, 1.168154e+000
3.141472e+003, 1.168909e+000
3.143401e+003, 1.169188e+000
3.145329e+003, 1.169039e+000
3.147258e+003, 1.169256e+000
3.149186e+003, 1.170211e+000
3.151115e+003, 1.171391e+000
3.153043e+003, 1.171880e+000
3.154971e+003, 1.171542e+000
3.156900e+003, 1.171841e+000
3.158828e+003, 1.171995e+000
3.160757e+003, 1.172409e+000
3.162685e+003, 1.173250e+000
3.164614e+003, 1.173184e+000
3.166542e+003, 1.173582e+000
3.168471e+003, 1.174454e+000
3.170399e+003, 1.174657e+000
3.172328e+003, 1.175533e+000
3.174256e+003, 1.176492e+000
3.176185e+003, 1.176022e+000
3.178113e+003, 1.175874e+000
3.180042e+003, 1.176678e+000
3.181970e+003, 1.176772e+000
3.183898e+003, 1.176305e+000
3.185827e+003, 1.176835e+000
3.187755e+003, 1.178292e+000
3.189684e+003, 1.179132e+000
3.191612e+003, 1.179261e+000
3.193541e+003, 1.180064e+000
3.195469e+003, 1.180873e+000
3.197398e+003, 1.180568e+000
3.199326e+003, 1.180142e+000
3.201255e+003, 1.180246e+000
3.203183e+003, 1.180135e+000
3.205112e+003, 1.180956e+000
3.207040e+003, 1.182422e+000
3.208969e+003, 1.182351e+000
3.210897e+003, 1.182226e+000
3.212825e+003, 1.182566e+000
3.214754e+003, 1.182751e+000
3.216682e+003, 1.183313e+000
3.218611e+003, 1.183674e+000
3.220539e+003, 1.184434e+000
3.222468e+003, 1.185595e+000
3.224396e+003, 1.185600e+000
3.226325e+003, 1.185435e+000
3.228253e+003, 1.186291e+000
3.230182e+003, 1.187812e+000
3.232110e+003, 1.187857e+000
3.234039e+003, 1.187635e+000
3.235967e+003, 1.187416e+000
3.237896e+003, 1.188097e+000
3.239824e+003, 1.188757e+000
3.241752e+003, 1.188738e+000
3.243681e+003, 1.189046e+000
3.245609e+003, 1.188991e+000
3.247538e+003, 1.188738e+000
3.249466e+003, 1.189675e+000
3.251395e+003, 1.191013e+000
3.253323e+003, 1.191827e+000
3.255252e+003, 1.192235e+000
3.257180e+003, 1.192093e+000
3.259109e+003, 1.192078e+000
3.261037e+003, 1.192415e+000
3.262966e+003, 1.193582e+000
3.264894e+003, 1.194174e+000
3.266823e+003, 1.193939e+000
3.268751e+003, 1.193766e+000
3.270679e+003, 1.194306e+000
3.272608e+003, 1.194643e+000
3.274536e+003, 1.194694e+000
3.276465e+003, 1.195652e+000
3.278393e+003, 1.196060e+000
3.280322e+003, 1.196886e+000
3.282250e+003, 1.197550e+000
3.284179e+003, 1.197793e+000
3.286107e+003, 1.198104e+000
3.288036e+003, 1.198626e+000
3.289964e+003, 1.199180e+000
3.291893e+003, 1.199301e+000
3.293821e+003, 1.199420e+000
3.295750e+003, 1.199256e+000
3.297678e+003, 1.200234e+000
3.299606e+003, 1.200988e+000
3.301535e+003, 1.201824e+000
3.303463e+003, 1.201815e+000
3.305392e+003, 1.200193e+000
3.307320e+003, 1.199818e+000
3.309249e+003, 1.200810e+000
3.311177e+003, 1.201896e+000
3.313106e+003, 1.202403e+000
3.315034e+003, 1.202828e+000
3.316963e+003, 1.204152e+000
3.318891e+003, 1.204277e+000
3.320820e+003, 1.203782e+000
3.322748e+003, 1.204032e+000
3.324677e+003, 1.204162e+000
3.326605e+003, 1.204369e+000
3.328533e+003, 1.203720e+000
3.330462e+003, 1.203918e+000
3.332390e+003, 1.205818e+000
3.334319e+003, 1.206404e+000
3.336247e+003, 1.205718e+000
3.338176e+003, 1.205810e+000
3.340104e+003, 1.207523e+000
3.342033e+003, 1.208745e+000
3.343961e+003, 1.208883e+000
3.345890e+003, 1.208778e+000
3.347818e+003, 1.208470e+000
3.349747e+003, 1.208746e+000
3.351675e+003, 1.208360e+000
3.353604e+003, 1.208446e+000
3.355532e+003, 1.209457e+000
3.357460e+003, 1.209038e+000
3.359389e+003, 1.208762e+000
3.361317e+003, 1.209219e+000
3.363246e+003, 1.209558e+000
3.365174e+003, 1.209995e+000
3.367103e+003, 1.210735e+000
3.369031e+003, 1.211621e+000
3.370960e+003, 1.211624e+000
3.372888e+003, 1.211239e+000
3.374817e+003, 1.211927e+000
3.376745e+003, 1.213135e+000
3.378674e+003, 1.213332e+000
3.380602e+003, 1.213478e+000
3.382531e+003, 1.214244e+000
3.384459e+003, 1.214509e+000
3.386387e+003, 1.213986e+000
3.388316e+003, 1.214654e+000
3.390244e+003, 1.215168e+000
3.392173e+003, 1.215293e+000
3.394101e+003, 1.215971e+000
3.396030e+003, 1.216270e+000
3.397958e+003, 1.215835e+000
3.399887e+003, 1.215305e+000
3.401815e+003, 1.215093e+000
3.403744e+003, 1.216143e+000
3.405672e+003, 1.216949e+000
3.407601e+003, 1.217419e+000
3.409529e+003, 1.217453e+000
3.411458e+003, 1.217015e+000
3.413386e+003, 1.217441e+000
3.415314e+003, 1.217818e+000
3.417243e+003, 1.217531e+000
3.419171e+003, 1.218511e+000
3.421100e+003, 1.219708e+000
3.423028e+003, 1.219760e+000
3.424957e+003, 1.218997e+000
3.426885e+003, 1.219745e+000
3.428814e+003, 1.220476e+000
3.430742e+003, 1.221049e+000
3.432671e+003, 1.221141e+000
3.434599e+003, 1.221644e+000
3.436528e+003, 1.221841e+000
3.438456e+003, 1.221363e+000
3.440385e+003, 1.221720e+000
3.442313e+003, 1.222475e+000
3.444241e+003, 1.222630e+000
3.446170e+003, 1.222390e+000
3.448098e+003, 1.222544e+000
3.450027e+003, 1.223471e+000
3.451955e+003, 1.224427e+000
3.453884e+003, 1.223896e+000
3.455812e+003, 1.223014e+000
3.457741e+003, 1.223461e+000
3.459669e+003, 1.224383e+000
3.461598e+003, 1.224708e+000
3.463526e+003, 1.225151e+000
3.465455e+003, 1.225832e+000
3.467383e+003, 1.226190e+000
3.469312e+003, 1.226794e+000
3.471240e+003, 1.226884e+000
3.473168e+003, 1.226825e+000
3.475097e+003, 1.227382e+000
3.477025e+003, 1.227307e+000
3.478954e+003, 1.228008e+000
3.480882e+003, 1.228530e+000
3.482811e+003, 1.227726e+000
3.484739e+003, 1.227596e+000
3.486668e+003, 1.227849e+000
3.488596e+003, 1.227756e+000
3.490525e+003, 1.227662e+000
3.492453e+003, 1.228306e+000
3.494382e+003, 1.229081e+000
3.496310e+003, 1.229651e+000
3.498239e+003, 1.230109e+000
3.500167e+003, 1.230114e+000
3.502095e+003, 1.229585e+000
3.504024e+003, 1.230199e+000
3.505952e+003, 1.230979e+000
3.507881e+003, 1.231148e+000
3.509809e+003, 1.231774e+000
3.511738e+003, 1.232154e+000
3.513666e+003, 1.231411e+000
3.515595e+003, 1.231048e+000
3.517523e+003, 1.230975e+000
3.519452e+003, 1.231739e+000
3.521380e+003, 1.232490e+000
3.523309e+003, 1.233674e+000
3.525237e+003, 1.233545e+000
3.527166e+003, 1.233007e+000
3.529094e+003, 1.233182e+000
3.531022e+003, 1.234330e+000
3.532951e+003, 1.234740e+000
3.534879e+003, 1.234255e+000
3.536808e+003, 1.234995e+000
3.538736e+003, 1.235632e+000
3.540665e+003, 1.235274e+000
3.542593e+003, 1.235358e+000
3.544522e+003, 1.236041e+000
3.546450e+003, 1.236060e+000
3.548379e+003, 1.235875e+000
3.550307e+003, 1.236446e+000
3.552236e+003, 1.237396e+000
3.554164e+003, 1.237003e+000
3.556093e+003, 1.236836e+000
3.558021e+003, 1.237446e+000
3.559949e+003, 1.237826e+000
3.561878e+003, 1.237747e+000
3.563806e+003, 1.237131e+000
3.565735e+003, 1.237106e+000
3.567663e+003, 1.238553e+000
3.569592e+003, 1.239217e+000
3.571520e+003, 1.239723e+000
3.573449e+003, 1.240401e+000
3.575377e+003, 1.240840e+000
3.577306e+003, 1.240345e+000
3.579234e+003, 1.240413e+000
3.581163e+003, 1.241321e+000
3.583091e+003, 1.241209e+000
3.585020e+003, 1.241423e+000
3.586948e+003, 1.242788e+000
3.588876e+003, 1.242803e+000
3.590805e+003, 1.242164e+000
3.592733e+003, 1.243913e+000
3.594662e+003, 1.244776e+000
3.596590e+003, 1.244862e+000
3.598519e+003, 1.245891e+000
3.600447e+003, 1.245887e+000
3.602376e+003, 1.245654e+000
3.604304e+003, 1.245113e+000
3.606233e+003, 1.244212e+000
3.608161e+003, 1.244880e+000
3.610090e+003, 1.245476e+000
3.612018e+003, 1.246661e+000
3.613947e+003, 1.248261e+000
3.615875e+003, 1.248972e+000
3.617803e+003, 1.248993e+000
3.619732e+003, 1.249084e+000
3.621660e+003, 1.248822e+000
3.623589e+003, 1.249369e+000
3.625517e+003, 1.248945e+000
3.627446e+003, 1.248160e+000
3.629374e+003, 1.249060e+000
3.631303e+003, 1.249918e+000
3.633231e+003, 1.249769e+000
3.635160e+003, 1.250886e+000
3.637088e+003, 1.251597e+000
3.639017e+003, 1.251545e+000
3.640945e+003, 1.251763e+000
3.642874e+003, 1.251053e+000
3.644802e+003, 1.251943e+000
3.646730e+003, 1.253068e+000
3.648659e+003, 1.253161e+000
3.650587e+003, 1.253105e+000
3.652516e+003, 1.253790e+000
3.654444e+003, 1.254917e+000
3.656373e+003, 1.255235e+000
3.658301e+003, 1.255740e+000
3.660230e+003, 1.256165e+000
3.662158e+003, 1.256453e+000
3.664087e+003, 1.256426e+000
3.666015e+003, 1.256135e+000
3.667944e+003, 1.257214e+000
3.669872e+003, 1.258409e+000
3.671801e+003, 1.257711e+000
3.673729e+003, 1.259032e+000
3.675657e+003, 1.260463e+000
3.677586e+003, 1.260438e+000
3.679514e+003, 1.259776e+000
3.681443e+003, 1.259231e+000
3.683371e+003, 1.259662e+000
3.685300e+003, 1.260199e+000
3.687228e+003, 1.260087e+000
3.689157e+003, 1.259862e+000
3.691085e+003, 1.259951e+000
3.693014e+003, 1.261611e+000
3.694942e+003, 1.262895e+000
3.696871e+003, 1.263060e+000
3.698799e+003, 1.262963e+000
3.700728e+003, 1.262885e+000
3.702656e+003, 1.263968e+000
3.704584e+003, 1.264116e+000
3.706513e+003, 1.263764e+000
3.708441e+003, 1.264456e+000
3.710370e+003, 1.265154e+000
3.712298e+003, 1.264452e+000
3.714227e+003, 1.265663e+000
3.716155e+003, 1.266744e+000
3.718084e+003, 1.267040e+000
3.720012e+003, 1.268608e+000
3.721941e+003, 1.269500e+000
3.723869e+003, 1.269791e+000
3.725798e+003, 1.269719e+000
3.727726e+003, 1.269464e+000
3.729655e+003, 1.269948e+000
3.731583e+003, 1.270064e+000
3.733511e+003, 1.270783e+000
3.735440e+003, 1.272219e+000
3.737368e+003, 1.272364e+000
3.739297e+003, 1.272633e+000
3.741225e+003, 1.273313e+000
3.743154e+003, 1.272824e+000
3.745082e+003, 1.272249e+000
3.747011e+003, 1.272043e+000
3.748939e+003, 1.272381e+000
3.750868e+003, 1.274014e+000
3.752796e+003, 1.274834e+000
3.754725e+003, 1.273373e+000
3.756653e+003, 1.273214e+000
3.758582e+003, 1.273515e+000
3.760510e+003, 1.273000e+000
3.762438e+003, 1.273812e+000
3.764367e+003, 1.274311e+000
3.766295e+003, 1.274229e+000
3.768224e+003, 1.275415e+000
3.770152e+003, 1.275761e+000
3.772081e+003, 1.275872e+000
3.774009e+003, 1.276638e+000
3.775938e+003, 1.276597e+000
3.777866e+003, 1.276760e+000
3.779795e+003, 1.276867e+000
3.781723e+003, 1.277336e+000
3.783652e+003, 1.278752e+000
3.785580e+003, 1.279659e+000
3.787509e+003, 1.279817e+000
3.789437e+003, 1.279184e+000
3.791365e+003, 1.278670e+000
3.793294e+003, 1.279226e+000
3.795222e+003, 1.279819e+000
3.797151e+003, 1.280323e+000
3.799079e+003, 1.281516e+000
3.801008e+003, 1.281628e+000
3.802936e+003, 1.281396e+000
3.804865e+003, 1.281984e+000
3.806793e+003, 1.282909e+000
3.808722e+003, 1.282245e+000
3.810650e+003, 1.282575e+000
3.812579e+003, 1.283137e+000
3.814507e+003, 1.283200e+000
3.816436e+003, 1.282941e+000
3.818364e+003, 1.284584e+000
3.820292e+003, 1.286172e+000
3.822221e+003, 1.284708e+000
3.824149e+003, 1.283654e+000
3.826078e+003, 1.283937e+000
3.828006e+003, 1.284339e+000
3.829935e+003, 1.285571e+000
3.831863e+003, 1.287285e+000
3.833792e+003, 1.287763e+000
3.835720e+003, 1.288725e+000
3.837649e+003, 1.289277e+000
3.839577e+003, 1.287041e+000
3.841506e+003, 1.286172e+000
3.843434e+003, 1.287188e+000
3.845363e+003, 1.287535e+000
3.847291e+003, 1.286973e+000
3.849219e+003, 1.288235e+000
3.851148e+003, 1.289895e+000
3.853076e+003, 1.290233e+000
3.855005e+003, 1.290434e+000
3.856933e+003, 1.290447e+000
3.858862e+003, 1.290269e+000
3.860790e+003, 1.290657e+000
3.862719e+003, 1.290869e+000
3.864647e+003, 1.291348e+000
3.866576e+003, 1.291834e+000
3.868504e+003, 1.292598e+000
3.870433e+003, 1.293171e+000
3.872361e+003, 1.293335e+000
3.874290e+003, 1.293550e+000
3.876218e+003, 1.293221e+000
3.878146e+003, 1.294354e+000
3.880075e+003, 1.294968e+000
3.882003e+003, 1.293393e+000
3.883932e+003, 1.292891e+000
3.885860e+003, 1.294821e+000
3.887789e+003, 1.296179e+000
3.889717e+003, 1.296319e+000
3.891646e+003, 1.296262e+000
3.893574e+003, 1.295638e+000
3.895503e+003, 1.296587e+000
3.897431e+003, 1.297777e+000
3.899360e+003, 1.298714e+000
3.901288e+003, 1.299418e+000
3.903217e+003, 1.299576e+000
3.905145e+003, 1.299788e+000
3.907073e+003, 1.299524e+000
3.909002e+003, 1.299253e+000
3.910930e+003, 1.299442e+000
3.912859e+003, 1.299157e+000
3.914787e+003, 1.298186e+000
3.916716e+003, 1.297616e+000
3.918644e+003, 1.298598e+000
3.920573e+003, 1.299680e+000
3.922501e+003, 1.301452e+000
3.924430e+003, 1.302388e+000
3.926358e+003, 1.301686e+000
3.928287e+003, 1.301052e+000
3.930215e+003, 1.302064e+000
3.932144e+003, 1.302380e+000
3.934072e+003, 1.301210e+000
3.936000e+003, 1.301592e+000
3.937929e+003, 1.303279e+000
3.939857e+003, 1.304373e+000
3.941786e+003, 1.304440e+000
3.943714e+003, 1.304629e+000
3.945643e+003, 1.305059e+000
3.947571e+003, 1.305217e+000
3.949500e+003, 1.305264e+000
3.951428e+003, 1.305242e+000
3.953357e+003, 1.304539e+000
3.955285e+003, 1.304493e+000
3.957214e+003, 1.305952e+000
3.959142e+003, 1.307659e+000
3.961071e+003, 1.308499e+000
3.962999e+003, 1.307398e+000
3.964927e+003, 1.306870e+000
3.966856e+003, 1.306709e+000
3.968784e+003, 1.307081e+000
3.970713e+003, 1.308319e+000
3.972641e+003, 1.308849e+000
3.974570e+003, 1.308101e+000
3.976498e+003, 1.308550e+000
3.978427e+003, 1.309248e+000
3.980355e+003, 1.309899e+000
3.982284e+003, 1.310776e+000
3.984212e+003, 1.310555e+000
3.986141e+003, 1.309805e+000
3.988069e+003, 1.310220e+000
3.989998e+003, 1.310687e+000
3.991926e+003, 1.312039e+000
3.993854e+003, 1.312676e+000
3.995783e+003, 1.311990e+000
3.997711e+003, 1.312888e+000
3.999640e+003, 1.314275e+000
##END=



