##NAMES=Jamesonite
##RRUFFID=R050431
##IDEAL CHEMISTRY=Pb^2+^_4_Fe^2+^Sb^3+^_6_S^2-^_14_
##LOCALITY=Trinacria mine, Lake Poopo, Oruro, Bolivia
##OWNER=RRUFF
##SOURCE=University of Arizona Mineral Museum
##DESCRIPTION=Aggregate of black coarse prismatic crystals, intimately mixed with sphalerite
##STATUS=The identification of this mineral has been confirmed by X-ray diffraction and chemical analysis
##URL=rruff.info/R050431
##MEASURED CHEMISTRY=lighter phase: (Pb_3.70_Zn_0.30_)_Σ=4_(Fe_0.97_Cu_0.03_)_Σ=1_Sb_6.00_S_14.00_ ; darker phase: (Zn_0.81_Fe_0.17_Cu_0.02_)_Σ=1_S_1.00_
399.1926, 0.1380127
401.1211, 0.1408430
403.0496, 0.1415202
404.9780, 0.1450770
406.9065, 0.1513099
408.8350, 0.1554317
410.7634, 0.1583243
412.6919, 0.1622886
414.6204, 0.1687578
416.5488, 0.1762252
418.4773, 0.1788133
420.4058, 0.1812138
422.3342, 0.1888132
424.2627, 0.1921161
426.1912, 0.1942906
428.1196, 0.1977455
430.0481, 0.2026082
431.9766, 0.2072079
433.9050, 0.2105335
435.8335, 0.2128637
437.7620, 0.2160979
439.6904, 0.2228548
441.6189, 0.2280537
443.5474, 0.2309492
445.4758, 0.2321097
447.4043, 0.2293366
449.3328, 0.2324149
451.2612, 0.2387670
453.1897, 0.2431657
455.1182, 0.2445520
457.0466, 0.2462996
458.9751, 0.2510394
460.9036, 0.2556673
462.8320, 0.2594043
464.7605, 0.2620417
466.6890, 0.2655000
468.6174, 0.2674103
470.5459, 0.2689646
472.4744, 0.2720588
474.4028, 0.2744246
476.3313, 0.2776458
478.2598, 0.2792483
480.1882, 0.2811121
482.1167, 0.2846792
484.0452, 0.2874202
485.9736, 0.2879342
487.9021, 0.2897259
489.8306, 0.2932394
491.7590, 0.2947162
493.6875, 0.2973520
495.6160, 0.3007601
497.5444, 0.3030092
499.4729, 0.3056501
501.4014, 0.3082063
503.3298, 0.3114993
505.2583, 0.3140124
507.1868, 0.3161342
509.1152, 0.3172587
511.0437, 0.3180775
512.9722, 0.3202772
514.9006, 0.3211901
516.8291, 0.3221716
518.7576, 0.3257834
520.6860, 0.3285493
522.6145, 0.3292310
524.5430, 0.3300487
526.4714, 0.3316884
528.3999, 0.3344930
530.3284, 0.3381149
532.2568, 0.3394909
534.1853, 0.3411958
536.1138, 0.3428412
538.0422, 0.3441871
539.9707, 0.3447681
541.8992, 0.3460462
543.8276, 0.3489267
545.7561, 0.3508695
547.6846, 0.3517873
549.6130, 0.3539461
551.5415, 0.3585342
553.4700, 0.3598859
555.3984, 0.3599674
557.3269, 0.3621369
559.2554, 0.3640603
561.1838, 0.3651286
563.1123, 0.3669124
565.0408, 0.3680791
566.9692, 0.3689388
568.8977, 0.3718900
570.8262, 0.3753745
572.7546, 0.3761319
574.6831, 0.3776165
576.6116, 0.3789633
578.5400, 0.3788862
580.4685, 0.3805699
582.3970, 0.3838094
584.3254, 0.3846993
586.2539, 0.3847796
588.1824, 0.3875258
590.1108, 0.3898963
592.0393, 0.3904401
593.9678, 0.3916895
595.8962, 0.3916241
597.8247, 0.3914159
599.7532, 0.3915440
601.6816, 0.3921582
603.6101, 0.3926614
605.5386, 0.3918553
607.4670, 0.3924540
609.3955, 0.3941050
611.3240, 0.3952923
613.2524, 0.3967356
615.1809, 0.3981938
617.1094, 0.3997686
619.0378, 0.4007513
620.9663, 0.4004364
622.8948, 0.4014639
624.8232, 0.4021179
626.7517, 0.4021704
628.6802, 0.4026033
630.6086, 0.4041736
632.5371, 0.4043113
634.4656, 0.4030924
636.3940, 0.4039699
638.3225, 0.4052047
640.2510, 0.4057495
642.1794, 0.4060190
644.1079, 0.4059005
646.0364, 0.4062087
647.9648, 0.4064902
649.8933, 0.4066097
651.8218, 0.4069008
653.7502, 0.4084104
655.6787, 0.4097166
657.6072, 0.4107678
659.5356, 0.4113438
661.4641, 0.4116060
663.3926, 0.4126938
665.3210, 0.4139896
667.2495, 0.4148166
669.1780, 0.4156431
671.1064, 0.4171432
673.0349, 0.4178290
674.9634, 0.4180290
676.8918, 0.4184346
678.8203, 0.4205538
680.7488, 0.4217310
682.6772, 0.4217137
684.6057, 0.4221316
686.5342, 0.4232672
688.4626, 0.4238814
690.3911, 0.4241111
692.3196, 0.4245672
694.2480, 0.4250064
696.1765, 0.4264518
698.1050, 0.4268861
700.0334, 0.4277205
701.9619, 0.4294176
703.8904, 0.4307279
705.8188, 0.4315778
707.7473, 0.4327746
709.6758, 0.4339845
711.6042, 0.4344850
713.5327, 0.4355895
715.4612, 0.4360820
717.3896, 0.4364140
719.3181, 0.4370426
721.2466, 0.4381178
723.1750, 0.4386047
725.1035, 0.4390515
727.0320, 0.4399324
728.9604, 0.4414470
730.8889, 0.4433766
732.8174, 0.4440293
734.7458, 0.4431445
736.6743, 0.4435662
738.6028, 0.4443008
740.5313, 0.4454292
742.4597, 0.4458745
744.3882, 0.4469254
746.3167, 0.4485117
748.2451, 0.4495653
750.1736, 0.4498396
752.1021, 0.4504486
754.0305, 0.4512112
755.9590, 0.4522482
757.8875, 0.4533058
759.8159, 0.4534751
761.7444, 0.4538039
763.6729, 0.4542278
765.6013, 0.4551047
767.5298, 0.4565854
769.4583, 0.4567137
771.3867, 0.4573006
773.3152, 0.4577612
775.2437, 0.4583266
777.1721, 0.4594768
779.1006, 0.4605503
781.0291, 0.4616824
782.9575, 0.4625943
784.8860, 0.4623838
786.8145, 0.4628502
788.7429, 0.4639018
790.6714, 0.4657179
792.5999, 0.4668551
794.5283, 0.4662546
796.4568, 0.4659646
798.3853, 0.4665002
800.3137, 0.4679081
802.2422, 0.4697402
804.1707, 0.4703667
806.0991, 0.4699258
808.0276, 0.4706250
809.9561, 0.4722961
811.8845, 0.4725579
813.8130, 0.4726572
815.7415, 0.4741192
817.6699, 0.4751838
819.5984, 0.4749008
821.5269, 0.4758921
823.4553, 0.4777486
825.3838, 0.4785213
827.3123, 0.4789527
829.2407, 0.4800155
831.1692, 0.4809481
833.0977, 0.4808866
835.0261, 0.4810070
836.9546, 0.4823862
838.8831, 0.4837948
840.8115, 0.4845929
842.7400, 0.4851991
844.6685, 0.4859233
846.5969, 0.4868352
848.5254, 0.4876182
850.4539, 0.4881353
852.3823, 0.4899441
854.3108, 0.4911014
856.2393, 0.4915864
858.1677, 0.4923758
860.0962, 0.4927512
862.0247, 0.4940367
863.9531, 0.4962821
865.8816, 0.4968568
867.8101, 0.4966799
869.7385, 0.4986677
871.6670, 0.5004468
873.5955, 0.5010574
875.5239, 0.5017366
877.4524, 0.5030019
879.3809, 0.5030586
881.3093, 0.5031528
883.2378, 0.5046161
885.1663, 0.5053286
887.0947, 0.5059246
889.0232, 0.5066255
890.9517, 0.5072459
892.8801, 0.5081679
894.8085, 0.5094000
896.7370, 0.5108387
898.6655, 0.5114927
900.5939, 0.5118517
902.5224, 0.5129334
904.4509, 0.5134243
906.3793, 0.5140902
908.3078, 0.5156683
910.2363, 0.5173349
912.1647, 0.5185704
914.0932, 0.5203161
916.0217, 0.5211053
917.9501, 0.5215522
919.8786, 0.5229205
921.8071, 0.5238116
923.7355, 0.5238991
925.6640, 0.5243551
927.5925, 0.5258953
929.5209, 0.5270808
931.4494, 0.5280541
933.3779, 0.5293008
935.3063, 0.5301372
937.2348, 0.5309099
939.1633, 0.5319371
941.0917, 0.5323364
943.0202, 0.5326364
944.9487, 0.5337073
946.8771, 0.5348953
948.8056, 0.5358148
950.7341, 0.5369363
952.6625, 0.5384226
954.5910, 0.5394370
956.5195, 0.5408334
958.4479, 0.5421813
960.3764, 0.5434036
962.3049, 0.5443434
964.2333, 0.5457339
966.1618, 0.5467774
968.0903, 0.5473113
970.0187, 0.5481148
971.9472, 0.5491909
973.8757, 0.5494565
975.8041, 0.5498312
977.7326, 0.5509264
979.6611, 0.5518968
981.5895, 0.5525697
983.5180, 0.5531629
985.4465, 0.5544060
987.3749, 0.5556207
989.3034, 0.5561195
991.2319, 0.5567281
993.1603, 0.5576146
995.0888, 0.5584862
997.0173, 0.5596175
998.9457, 0.5606193
1000.874, 0.5619418
1002.803, 0.5633023
1004.731, 0.5644026
1006.660, 0.5657802
1008.588, 0.5673493
1010.517, 0.5692226
1012.445, 0.5700290
1014.373, 0.5705253
1016.302, 0.5715993
1018.230, 0.5721396
1020.159, 0.5728106
1022.087, 0.5740613
1024.016, 0.5745701
1025.944, 0.5747102
1027.873, 0.5757518
1029.801, 0.5769656
1031.730, 0.5782670
1033.658, 0.5796161
1035.587, 0.5812044
1037.515, 0.5822391
1039.444, 0.5828930
1041.372, 0.5838208
1043.301, 0.5846973
1045.229, 0.5848894
1047.157, 0.5850336
1049.086, 0.5856760
1051.014, 0.5864646
1052.943, 0.5866247
1054.871, 0.5869034
1056.800, 0.5878533
1058.728, 0.5880909
1060.657, 0.5882823
1062.585, 0.5892633
1064.514, 0.5903528
1066.442, 0.5903819
1068.371, 0.5898818
1070.299, 0.5907512
1072.228, 0.5916885
1074.156, 0.5920823
1076.084, 0.5919997
1078.013, 0.5921397
1079.941, 0.5926138
1081.870, 0.5929608
1083.798, 0.5929257
1085.727, 0.5934246
1087.655, 0.5941959
1089.584, 0.5947201
1091.512, 0.5952730
1093.441, 0.5953412
1095.369, 0.5955724
1097.298, 0.5965887
1099.226, 0.5966160
1101.155, 0.5966611
1103.083, 0.5971391
1105.011, 0.5975428
1106.940, 0.5980250
1108.868, 0.5976824
1110.797, 0.5976682
1112.725, 0.5985739
1114.654, 0.5989211
1116.582, 0.5990849
1118.511, 0.5993825
1120.439, 0.5998222
1122.368, 0.6008534
1124.296, 0.6012644
1126.225, 0.6010085
1128.153, 0.6015471
1130.082, 0.6025601
1132.010, 0.6039315
1133.938, 0.6053419
1135.867, 0.6065878
1137.795, 0.6075618
1139.724, 0.6086787
1141.652, 0.6101573
1143.581, 0.6109053
1145.509, 0.6107509
1147.438, 0.6106812
1149.366, 0.6113307
1151.295, 0.6117940
1153.223, 0.6119233
1155.152, 0.6120719
1157.080, 0.6121946
1159.009, 0.6125919
1160.937, 0.6125082
1162.865, 0.6122528
1164.794, 0.6123116
1166.722, 0.6124868
1168.651, 0.6120886
1170.579, 0.6121213
1172.508, 0.6124147
1174.436, 0.6122494
1176.365, 0.6120915
1178.293, 0.6120448
1180.222, 0.6121414
1182.150, 0.6122498
1184.079, 0.6124802
1186.007, 0.6129837
1187.936, 0.6131083
1189.864, 0.6134694
1191.792, 0.6139861
1193.721, 0.6145410
1195.649, 0.6145039
1197.578, 0.6145012
1199.506, 0.6150953
1201.435, 0.6156210
1203.363, 0.6161677
1205.292, 0.6161294
1207.220, 0.6160886
1209.149, 0.6160928
1211.077, 0.6161354
1213.006, 0.6165344
1214.934, 0.6169057
1216.863, 0.6167809
1218.791, 0.6165242
1220.719, 0.6169044
1222.648, 0.6178390
1224.576, 0.6181214
1226.505, 0.6179931
1228.433, 0.6183612
1230.362, 0.6185609
1232.290, 0.6189907
1234.219, 0.6198604
1236.147, 0.6203559
1238.076, 0.6207786
1240.004, 0.6213827
1241.933, 0.6213360
1243.861, 0.6217342
1245.790, 0.6224164
1247.718, 0.6227345
1249.646, 0.6229386
1251.575, 0.6231750
1253.503, 0.6236717
1255.432, 0.6245130
1257.360, 0.6244640
1259.289, 0.6246430
1261.217, 0.6248530
1263.146, 0.6250843
1265.074, 0.6252142
1267.003, 0.6251013
1268.931, 0.6255758
1270.860, 0.6261255
1272.788, 0.6269366
1274.717, 0.6278421
1276.645, 0.6283849
1278.573, 0.6289204
1280.502, 0.6298530
1282.430, 0.6309081
1284.359, 0.6312643
1286.287, 0.6315638
1288.216, 0.6325647
1290.144, 0.6332251
1292.073, 0.6338149
1294.001, 0.6344455
1295.930, 0.6347119
1297.858, 0.6352457
1299.787, 0.6361802
1301.715, 0.6369472
1303.644, 0.6373690
1305.572, 0.6377614
1307.500, 0.6383880
1309.429, 0.6385251
1311.357, 0.6385273
1313.286, 0.6392193
1315.214, 0.6398377
1317.143, 0.6406062
1319.071, 0.6417750
1321.000, 0.6421618
1322.928, 0.6429703
1324.857, 0.6432589
1326.785, 0.6435475
1328.714, 0.6445257
1330.642, 0.6455268
1332.571, 0.6463079
1334.499, 0.6472227
1336.427, 0.6477944
1338.356, 0.6480818
1340.284, 0.6482014
1342.213, 0.6493703
1344.141, 0.6503268
1346.070, 0.6507525
1347.998, 0.6512642
1349.927, 0.6518838
1351.855, 0.6529913
1353.784, 0.6540867
1355.712, 0.6548573
1357.641, 0.6551048
1359.569, 0.6555014
1361.498, 0.6565496
1363.426, 0.6579303
1365.354, 0.6588946
1367.283, 0.6590579
1369.211, 0.6594544
1371.140, 0.6604683
1373.068, 0.6613716
1374.997, 0.6624028
1376.925, 0.6634419
1378.854, 0.6640100
1380.782, 0.6638985
1382.711, 0.6639641
1384.639, 0.6640566
1386.568, 0.6642267
1388.496, 0.6647778
1390.424, 0.6651145
1392.353, 0.6656683
1394.281, 0.6669329
1396.210, 0.6680310
1398.138, 0.6689131
1400.067, 0.6695608
1401.995, 0.6697744
1403.924, 0.6706483
1405.852, 0.6717247
1407.781, 0.6723418
1409.709, 0.6731086
1411.638, 0.6738910
1413.566, 0.6746643
1415.495, 0.6752372
1417.423, 0.6756893
1419.351, 0.6767139
1421.280, 0.6774419
1423.208, 0.6774083
1425.137, 0.6781446
1427.065, 0.6794182
1428.994, 0.6792179
1430.922, 0.6799365
1432.851, 0.6817158
1434.779, 0.6829759
1436.708, 0.6832199
1438.636, 0.6836911
1440.565, 0.6845570
1442.493, 0.6853182
1444.422, 0.6854593
1446.350, 0.6858727
1448.278, 0.6867804
1450.207, 0.6875318
1452.135, 0.6879241
1454.064, 0.6884390
1455.992, 0.6887236
1457.921, 0.6893418
1459.849, 0.6901582
1461.778, 0.6902272
1463.706, 0.6904301
1465.635, 0.6905653
1467.563, 0.6901160
1469.492, 0.6894678
1471.420, 0.6890538
1473.349, 0.6887766
1475.277, 0.6889172
1477.205, 0.6892827
1479.134, 0.6899446
1481.062, 0.6908013
1482.991, 0.6911248
1484.919, 0.6913716
1486.848, 0.6919362
1488.776, 0.6923937
1490.705, 0.6934284
1492.633, 0.6940390
1494.562, 0.6950472
1496.490, 0.6956507
1498.419, 0.6957853
1500.347, 0.6959751
1502.276, 0.6968265
1504.204, 0.6975608
1506.132, 0.6980951
1508.061, 0.6989372
1509.989, 0.6989704
1511.918, 0.6989558
1513.846, 0.6994944
1515.775, 0.7001784
1517.703, 0.7010476
1519.632, 0.7023681
1521.560, 0.7028035
1523.489, 0.7029873
1525.417, 0.7040824
1527.346, 0.7046102
1529.274, 0.7056565
1531.203, 0.7065305
1533.131, 0.7071946
1535.059, 0.7076131
1536.988, 0.7081100
1538.916, 0.7083458
1540.845, 0.7086015
1542.773, 0.7097088
1544.702, 0.7109623
1546.630, 0.7114477
1548.559, 0.7117784
1550.487, 0.7121688
1552.416, 0.7125368
1554.344, 0.7126015
1556.273, 0.7130522
1558.201, 0.7139480
1560.130, 0.7149520
1562.058, 0.7155155
1563.986, 0.7155836
1565.915, 0.7159139
1567.843, 0.7169484
1569.772, 0.7171773
1571.700, 0.7174520
1573.629, 0.7186435
1575.557, 0.7195939
1577.486, 0.7200115
1579.414, 0.7203572
1581.343, 0.7208264
1583.271, 0.7211198
1585.200, 0.7219843
1587.128, 0.7226362
1589.057, 0.7225465
1590.985, 0.7228189
1592.913, 0.7237410
1594.842, 0.7245188
1596.770, 0.7247938
1598.699, 0.7249786
1600.627, 0.7257118
1602.556, 0.7268543
1604.484, 0.7271869
1606.413, 0.7272078
1608.341, 0.7278344
1610.270, 0.7289189
1612.198, 0.7298713
1614.127, 0.7302606
1616.055, 0.7303522
1617.984, 0.7301484
1619.912, 0.7308378
1621.840, 0.7316366
1623.769, 0.7320585
1625.697, 0.7328241
1627.626, 0.7331078
1629.554, 0.7336701
1631.483, 0.7345148
1633.411, 0.7349677
1635.340, 0.7352659
1637.268, 0.7357262
1639.197, 0.7357763
1641.125, 0.7362351
1643.054, 0.7364529
1644.982, 0.7365065
1646.911, 0.7374268
1648.839, 0.7383131
1650.767, 0.7381401
1652.696, 0.7378602
1654.624, 0.7381801
1656.553, 0.7391546
1658.481, 0.7402222
1660.410, 0.7403170
1662.338, 0.7408559
1664.267, 0.7415569
1666.195, 0.7420735
1668.124, 0.7424768
1670.052, 0.7427188
1671.981, 0.7440248
1673.909, 0.7447995
1675.838, 0.7447202
1677.766, 0.7449403
1679.694, 0.7451711
1681.623, 0.7461746
1683.551, 0.7475699
1685.480, 0.7477621
1687.408, 0.7473144
1689.337, 0.7474365
1691.265, 0.7480119
1693.194, 0.7485736
1695.122, 0.7490819
1697.051, 0.7495705
1698.979, 0.7501214
1700.908, 0.7508293
1702.836, 0.7515495
1704.765, 0.7522152
1706.693, 0.7529988
1708.621, 0.7532955
1710.550, 0.7536320
1712.478, 0.7538124
1714.407, 0.7542436
1716.335, 0.7553341
1718.264, 0.7556406
1720.192, 0.7558498
1722.121, 0.7561308
1724.049, 0.7569643
1725.978, 0.7584714
1727.906, 0.7586765
1729.835, 0.7587988
1731.763, 0.7592022
1733.692, 0.7590119
1735.620, 0.7598867
1737.548, 0.7604483
1739.477, 0.7605887
1741.405, 0.7607690
1743.334, 0.7614512
1745.262, 0.7608433
1747.191, 0.7601050
1749.119, 0.7605071
1751.048, 0.7611060
1752.976, 0.7609524
1754.905, 0.7609024
1756.833, 0.7613811
1758.762, 0.7618515
1760.690, 0.7623335
1762.619, 0.7630072
1764.547, 0.7636236
1766.475, 0.7639287
1768.404, 0.7646154
1770.332, 0.7643670
1772.261, 0.7646760
1774.189, 0.7658299
1776.118, 0.7654569
1778.046, 0.7651662
1779.975, 0.7655872
1781.903, 0.7654554
1783.832, 0.7658792
1785.760, 0.7667659
1787.689, 0.7668313
1789.617, 0.7664296
1791.546, 0.7670207
1793.474, 0.7684667
1795.402, 0.7687307
1797.331, 0.7678649
1799.259, 0.7683500
1801.188, 0.7697608
1803.116, 0.7704444
1805.045, 0.7699482
1806.973, 0.7703565
1808.902, 0.7724066
1810.830, 0.7730076
1812.759, 0.7712194
1814.687, 0.7720469
1816.616, 0.7730729
1818.544, 0.7714218
1820.473, 0.7709604
1822.401, 0.7719408
1824.329, 0.7724736
1826.258, 0.7729432
1828.186, 0.7730401
1830.115, 0.7738252
1832.043, 0.7747329
1833.972, 0.7753961
1835.900, 0.7755173
1837.829, 0.7754344
1839.757, 0.7749354
1841.686, 0.7758157
1843.614, 0.7771295
1845.543, 0.7772016
1847.471, 0.7765020
1849.400, 0.7777866
1851.328, 0.7789207
1853.256, 0.7803343
1855.185, 0.7801025
1857.113, 0.7795439
1859.042, 0.7800983
1860.970, 0.7807835
1862.899, 0.7799804
1864.827, 0.7798911
1866.756, 0.7801583
1868.684, 0.7803654
1870.613, 0.7806549
1872.541, 0.7810185
1874.470, 0.7813569
1876.398, 0.7825381
1878.327, 0.7837154
1880.255, 0.7858297
1882.183, 0.7862619
1884.112, 0.7856544
1886.040, 0.7841464
1887.969, 0.7834024
1889.897, 0.7842683
1891.826, 0.7835224
1893.754, 0.7834559
1895.683, 0.7851833
1897.611, 0.7856802
1899.540, 0.7848167
1901.468, 0.7854831
1903.397, 0.7871678
1905.325, 0.7881069
1907.254, 0.7885765
1909.182, 0.7881007
1911.110, 0.7882007
1913.039, 0.7877900
1914.967, 0.7876049
1916.896, 0.7868116
1918.824, 0.7873553
1920.753, 0.7886840
1922.681, 0.7891201
1924.610, 0.7873394
1926.538, 0.7864714
1928.467, 0.7864734
1930.395, 0.7870082
1932.324, 0.7863383
1934.252, 0.7856987
1936.181, 0.7864629
1938.109, 0.7855633
1940.037, 0.7828307
1941.966, 0.7804857
1943.894, 0.7803131
1945.823, 0.7820509
1947.751, 0.7831212
1949.680, 0.7845057
1951.608, 0.7840616
1953.537, 0.7803673
1955.465, 0.7802880
1957.394, 0.7808207
1959.322, 0.7774466
1961.251, 0.7768782
1963.179, 0.7784691
1965.108, 0.7777402
1967.036, 0.7751125
1968.964, 0.7722958
1970.893, 0.7720747
1972.821, 0.7760709
1974.750, 0.7820386
1976.678, 0.7794384
1978.607, 0.7768949
1980.535, 0.7804272
1982.464, 0.7854052
1984.392, 0.7848699
1986.321, 0.7851101
1988.249, 0.7865056
1990.178, 0.7840432
1992.106, 0.7798988
1994.035, 0.7823085
1995.963, 0.7864921
1997.891, 0.7885203
1999.820, 0.7871319
2001.748, 0.7856647
2003.677, 0.7853705
2005.605, 0.7832962
2007.534, 0.7831463
2009.462, 0.7802112
2011.391, 0.7768911
2013.319, 0.7748656
2015.248, 0.7754403
2017.176, 0.7809581
2019.105, 0.7840691
2021.033, 0.7843116
2022.962, 0.7858577
2024.890, 0.7893639
2026.818, 0.7898074
2028.747, 0.7878164
2030.675, 0.7888961
2032.604, 0.7885300
2034.532, 0.7887189
2036.461, 0.7886308
2038.389, 0.7867298
2040.318, 0.7892551
2042.246, 0.7941155
2044.175, 0.7959865
2046.103, 0.7974247
2048.032, 0.8021520
2049.960, 0.8058593
2051.889, 0.8065585
2053.817, 0.8044789
2055.746, 0.8071364
2057.674, 0.8141468
2059.603, 0.8162427
2061.531, 0.8173792
2063.459, 0.8164924
2065.388, 0.8157480
2067.316, 0.8150902
2069.245, 0.8150018
2071.173, 0.8197255
2073.102, 0.8240489
2075.030, 0.8224790
2076.959, 0.8230560
2078.887, 0.8255019
2080.816, 0.8273581
2082.744, 0.8272240
2084.673, 0.8287878
2086.601, 0.8291855
2088.530, 0.8273486
2090.458, 0.8265144
2092.386, 0.8269328
2094.315, 0.8268150
2096.243, 0.8275061
2098.172, 0.8290506
2100.100, 0.8302961
2102.029, 0.8293085
2103.957, 0.8312043
2105.886, 0.8320357
2107.814, 0.8331572
2109.743, 0.8348264
2111.671, 0.8361037
2113.600, 0.8391611
2115.528, 0.8392740
2117.457, 0.8364028
2119.385, 0.8345323
2121.313, 0.8359342
2123.242, 0.8365508
2125.170, 0.8376498
2127.099, 0.8407966
2129.027, 0.8403098
2130.956, 0.8371254
2132.884, 0.8352557
2134.813, 0.8318539
2136.741, 0.8278305
2138.670, 0.8271308
2140.598, 0.8256596
2142.527, 0.8271381
2144.455, 0.8286217
2146.384, 0.8252423
2148.312, 0.8207912
2150.240, 0.8206902
2152.169, 0.8176308
2154.097, 0.8103692
2156.026, 0.7990685
2157.954, 0.7969144
2159.883, 0.8088302
2161.811, 0.8206156
2163.740, 0.8259429
2165.668, 0.8270352
2167.597, 0.8231574
2169.525, 0.8238639
2171.454, 0.8241051
2173.382, 0.8240387
2175.311, 0.8292964
2177.239, 0.8325295
2179.167, 0.8294508
2181.096, 0.8237371
2183.024, 0.8285519
2184.953, 0.8326083
2186.881, 0.8327792
2188.810, 0.8325608
2190.738, 0.8317401
2192.667, 0.8353700
2194.595, 0.8404145
2196.524, 0.8436902
2198.452, 0.8440502
2200.381, 0.8415504
2202.309, 0.8405889
2204.238, 0.8422477
2206.166, 0.8406749
2208.094, 0.8391940
2210.023, 0.8435034
2211.951, 0.8486826
2213.880, 0.8508929
2215.808, 0.8519074
2217.737, 0.8552411
2219.665, 0.8536068
2221.594, 0.8501313
2223.522, 0.8522554
2225.451, 0.8544097
2227.379, 0.8547295
2229.308, 0.8584008
2231.236, 0.8608285
2233.165, 0.8582574
2235.093, 0.8580985
2237.021, 0.8615083
2238.950, 0.8638735
2240.878, 0.8648880
2242.807, 0.8690628
2244.735, 0.8699641
2246.664, 0.8693269
2248.592, 0.8668324
2250.521, 0.8661982
2252.449, 0.8685968
2254.378, 0.8715832
2256.306, 0.8735803
2258.235, 0.8758239
2260.163, 0.8763078
2262.092, 0.8770801
2264.020, 0.8763289
2265.948, 0.8774691
2267.877, 0.8794963
2269.805, 0.8796692
2271.734, 0.8809819
2273.662, 0.8830509
2275.591, 0.8844013
2277.519, 0.8839648
2279.448, 0.8859863
2281.376, 0.8882959
2283.305, 0.8901786
2285.233, 0.8902341
2287.162, 0.8902416
2289.090, 0.8915152
2291.019, 0.8923678
2292.947, 0.8929132
2294.875, 0.8937463
2296.804, 0.8936346
2298.732, 0.8948218
2300.661, 0.8961209
2302.589, 0.8966677
2304.518, 0.8985391
2306.446, 0.9002302
2308.375, 0.9010775
2310.303, 0.9018165
2312.232, 0.9022110
2314.160, 0.9023780
2316.089, 0.9026687
2318.017, 0.9031827
2319.946, 0.9043142
2321.874, 0.9070445
2323.802, 0.9091819
2325.731, 0.9102200
2327.659, 0.9100137
2329.588, 0.9095964
2331.516, 0.9102085
2333.445, 0.9102668
2335.373, 0.9110094
2337.302, 0.9120978
2339.230, 0.9125338
2341.159, 0.9124800
2343.087, 0.9133689
2345.016, 0.9140552
2346.944, 0.9147657
2348.873, 0.9156131
2350.801, 0.9167133
2352.729, 0.9161617
2354.658, 0.9152997
2356.586, 0.9169195
2358.515, 0.9187978
2360.443, 0.9186403
2362.372, 0.9190013
2364.300, 0.9178557
2366.229, 0.9177471
2368.157, 0.9195522
2370.086, 0.9188169
2372.014, 0.9172627
2373.942, 0.9188316
2375.871, 0.9206812
2377.799, 0.9209795
2379.728, 0.9197055
2381.656, 0.9194421
2383.585, 0.9207908
2385.513, 0.9210693
2387.442, 0.9214038
2389.370, 0.9215527
2391.299, 0.9219664
2393.227, 0.9220271
2395.156, 0.9221110
2397.084, 0.9231946
2399.012, 0.9242476
2400.941, 0.9250145
2402.869, 0.9258780
2404.798, 0.9251811
2406.726, 0.9250740
2408.655, 0.9257310
2410.583, 0.9278377
2412.512, 0.9283608
2414.440, 0.9289647
2416.369, 0.9308556
2418.297, 0.9317058
2420.226, 0.9322500
2422.154, 0.9307725
2424.083, 0.9301292
2426.011, 0.9302772
2427.939, 0.9300509
2429.868, 0.9313749
2431.796, 0.9330992
2433.725, 0.9357296
2435.653, 0.9347585
2437.582, 0.9308231
2439.510, 0.9325882
2441.439, 0.9337322
2443.367, 0.9354509
2445.296, 0.9376479
2447.224, 0.9389436
2449.153, 0.9384179
2451.081, 0.9363956
2453.010, 0.9366043
2454.938, 0.9377137
2456.866, 0.9376404
2458.795, 0.9399045
2460.723, 0.9418043
2462.652, 0.9410472
2464.580, 0.9404691
2466.509, 0.9406987
2468.437, 0.9413212
2470.366, 0.9426366
2472.294, 0.9433355
2474.223, 0.9445245
2476.151, 0.9454803
2478.080, 0.9467932
2480.008, 0.9457344
2481.937, 0.9454246
2483.865, 0.9433625
2485.793, 0.9416771
2487.722, 0.9423602
2489.650, 0.9442286
2491.579, 0.9459960
2493.507, 0.9460161
2495.436, 0.9469817
2497.364, 0.9489806
2499.293, 0.9492638
2501.221, 0.9498047
2503.150, 0.9508705
2505.078, 0.9498258
2507.007, 0.9514619
2508.935, 0.9543648
2510.864, 0.9569857
2512.792, 0.9572203
2514.720, 0.9564997
2516.649, 0.9558994
2518.577, 0.9540177
2520.506, 0.9519424
2522.434, 0.9538732
2524.363, 0.9568040
2526.291, 0.9590294
2528.220, 0.9601771
2530.148, 0.9598988
2532.077, 0.9588752
2534.005, 0.9596368
2535.934, 0.9606302
2537.862, 0.9617870
2539.791, 0.9623734
2541.719, 0.9619452
2543.647, 0.9604035
2545.576, 0.9603155
2547.504, 0.9618915
2549.433, 0.9632131
2551.361, 0.9644299
2553.290, 0.9636370
2555.218, 0.9624888
2557.147, 0.9638457
2559.075, 0.9664499
2561.004, 0.9681274
2562.932, 0.9690037
2564.861, 0.9679687
2566.789, 0.9674686
2568.718, 0.9704988
2570.646, 0.9734229
2572.574, 0.9726441
2574.503, 0.9712897
2576.431, 0.9716231
2578.360, 0.9718128
2580.288, 0.9698269
2582.217, 0.9684324
2584.145, 0.9712192
2586.074, 0.9741760
2588.002, 0.9759942
2589.931, 0.9774963
2591.859, 0.9784850
2593.788, 0.9792665
2595.716, 0.9767007
2597.645, 0.9770979
2599.573, 0.9787667
2601.501, 0.9800196
2603.430, 0.9828596
2605.358, 0.9850109
2607.287, 0.9834512
2609.215, 0.9815841
2611.144, 0.9832777
2613.072, 0.9851884
2615.001, 0.9852741
2616.929, 0.9845838
2618.858, 0.9867193
2620.786, 0.9862968
2622.715, 0.9858706
2624.643, 0.9886261
2626.572, 0.9904843
2628.500, 0.9894609
2630.428, 0.9893868
2632.357, 0.9903488
2634.285, 0.9915586
2636.214, 0.9923051
2638.142, 0.9922112
2640.071, 0.9924399
2641.999, 0.9951234
2643.928, 0.9957478
2645.856, 0.9955332
2647.785, 0.9965279
2649.713, 0.9985839
2651.642, 0.9985964
2653.570, 0.9990432
2655.499, 1.000145
2657.427, 0.9999625
2659.355, 0.9999942
2661.284, 0.9997206
2663.212, 0.9998154
2665.141, 1.000740
2667.069, 1.001359
2668.998, 1.001432
2670.926, 1.001863
2672.855, 1.002682
2674.783, 1.003024
2676.712, 1.003560
2678.640, 1.004298
2680.569, 1.005504
2682.497, 1.006217
2684.426, 1.006325
2686.354, 1.007405
2688.282, 1.007648
2690.211, 1.007460
2692.139, 1.008531
2694.068, 1.008387
2695.996, 1.008148
2697.925, 1.009579
2699.853, 1.011192
2701.782, 1.011586
2703.710, 1.010943
2705.639, 1.011896
2707.567, 1.012214
2709.496, 1.011025
2711.424, 1.012007
2713.353, 1.014007
2715.281, 1.014849
2717.209, 1.015100
2719.138, 1.014440
2721.066, 1.013313
2722.995, 1.013527
2724.923, 1.015215
2726.852, 1.016122
2728.780, 1.017058
2730.709, 1.018417
2732.637, 1.018692
2734.566, 1.017295
2736.494, 1.018224
2738.423, 1.020066
2740.351, 1.020709
2742.280, 1.021056
2744.208, 1.021389
2746.136, 1.021924
2748.065, 1.022204
2749.993, 1.022231
2751.922, 1.020351
2753.850, 1.020473
2755.779, 1.023335
2757.707, 1.024755
2759.636, 1.024464
2761.564, 1.023619
2763.493, 1.024454
2765.421, 1.025839
2767.350, 1.025849
2769.278, 1.025395
2771.207, 1.026546
2773.135, 1.028022
2775.063, 1.028746
2776.992, 1.029716
2778.920, 1.029339
2780.849, 1.029194
2782.777, 1.030644
2784.706, 1.030416
2786.634, 1.030750
2788.563, 1.031332
2790.491, 1.032575
2792.420, 1.034304
2794.348, 1.033450
2796.277, 1.032564
2798.205, 1.033771
2800.134, 1.033667
2802.062, 1.034059
2803.990, 1.035677
2805.919, 1.036443
2807.847, 1.036574
2809.776, 1.037990
2811.704, 1.038455
2813.633, 1.039031
2815.561, 1.037583
2817.490, 1.035933
2819.418, 1.037906
2821.347, 1.040371
2823.275, 1.041085
2825.204, 1.042201
2827.132, 1.042120
2829.061, 1.042577
2830.989, 1.045351
2832.917, 1.046287
2834.846, 1.045646
2836.774, 1.044610
2838.703, 1.045204
2840.631, 1.048074
2842.560, 1.050389
2844.488, 1.050854
2846.417, 1.050642
2848.345, 1.050084
2850.274, 1.050342
2852.202, 1.050742
2854.131, 1.050775
2856.059, 1.050073
2857.988, 1.048411
2859.916, 1.049002
2861.844, 1.050645
2863.773, 1.052408
2865.701, 1.052633
2867.630, 1.052862
2869.558, 1.053578
2871.487, 1.053930
2873.415, 1.053501
2875.344, 1.055383
2877.272, 1.055038
2879.201, 1.054569
2881.129, 1.055581
2883.058, 1.055735
2884.986, 1.056095
2886.915, 1.055982
2888.843, 1.055815
2890.771, 1.059328
2892.700, 1.061549
2894.628, 1.060540
2896.557, 1.059745
2898.485, 1.060706
2900.414, 1.062333
2902.342, 1.063715
2904.271, 1.064646
2906.199, 1.064605
2908.128, 1.064736
2910.056, 1.065714
2911.985, 1.066746
2913.913, 1.065963
2915.842, 1.063948
2917.770, 1.064333
2919.698, 1.067238
2921.627, 1.069502
2923.555, 1.065923
2925.484, 1.061567
2927.412, 1.061846
2929.341, 1.061884
2931.269, 1.061516
2933.198, 1.063786
2935.126, 1.065392
2937.055, 1.063367
2938.983, 1.060655
2940.912, 1.060108
2942.840, 1.062056
2944.769, 1.065317
2946.697, 1.065883
2948.625, 1.064869
2950.554, 1.065086
2952.482, 1.066679
2954.411, 1.067672
2956.339, 1.068379
2958.268, 1.068115
2960.196, 1.067075
2962.125, 1.065772
2964.053, 1.064646
2965.982, 1.065131
2967.910, 1.064439
2969.839, 1.065747
2971.767, 1.068328
2973.696, 1.069089
2975.624, 1.067924
2977.552, 1.068721
2979.481, 1.069646
2981.409, 1.068135
2983.338, 1.070019
2985.266, 1.071634
2987.195, 1.070864
2989.123, 1.072710
2991.052, 1.073746
2992.980, 1.074642
2994.909, 1.076052
2996.837, 1.075790
2998.766, 1.074373
3000.694, 1.071699
3002.623, 1.071767
3004.551, 1.074197
3006.479, 1.075451
3008.408, 1.075409
3010.336, 1.077369
3012.265, 1.078434
3014.193, 1.077613
3016.122, 1.077384
3018.050, 1.076720
3019.979, 1.079468
3021.907, 1.079568
3023.836, 1.080726
3025.764, 1.082366
3027.693, 1.082565
3029.621, 1.081795
3031.550, 1.081804
3033.478, 1.082482
3035.406, 1.082157
3037.335, 1.082601
3039.263, 1.084412
3041.192, 1.084809
3043.120, 1.085634
3045.049, 1.087031
3046.977, 1.087620
3048.906, 1.088556
3050.834, 1.088280
3052.763, 1.088168
3054.691, 1.090664
3056.620, 1.088348
3058.548, 1.084164
3060.477, 1.086986
3062.405, 1.089902
3064.333, 1.089680
3066.262, 1.089953
3068.190, 1.092782
3070.119, 1.093633
3072.047, 1.093110
3073.976, 1.093447
3075.904, 1.093680
3077.833, 1.095259
3079.761, 1.095853
3081.690, 1.095120
3083.618, 1.098035
3085.547, 1.098811
3087.475, 1.097534
3089.404, 1.097506
3091.332, 1.097687
3093.260, 1.097209
3095.189, 1.096771
3097.117, 1.097473
3099.046, 1.098062
3100.974, 1.098617
3102.903, 1.101634
3104.831, 1.103697
3106.760, 1.100356
3108.688, 1.100293
3110.617, 1.102392
3112.545, 1.103111
3114.474, 1.105487
3116.402, 1.104761
3118.331, 1.102481
3120.259, 1.105075
3122.188, 1.106992
3124.116, 1.107003
3126.044, 1.109026
3127.973, 1.109023
3129.901, 1.107216
3131.830, 1.106107
3133.758, 1.107450
3135.687, 1.109762
3137.615, 1.112897
3139.544, 1.114075
3141.472, 1.112947
3143.401, 1.110017
3145.329, 1.111170
3147.258, 1.111855
3149.186, 1.110207
3151.115, 1.112460
3153.043, 1.113992
3154.971, 1.113019
3156.900, 1.112778
3158.828, 1.113848
3160.757, 1.113545
3162.685, 1.112080
3164.614, 1.113360
3166.542, 1.116345
3168.471, 1.115181
3170.399, 1.111210
3172.328, 1.112609
3174.256, 1.116300
3176.185, 1.116604
3178.113, 1.116458
3180.042, 1.118215
3181.970, 1.121069
3183.898, 1.118775
3185.827, 1.116986
3187.755, 1.119580
3189.684, 1.120186
3191.612, 1.120926
3193.541, 1.121812
3195.469, 1.122589
3197.398, 1.123988
3199.326, 1.123801
3201.255, 1.123410
3203.183, 1.124856
3205.112, 1.126738
3207.040, 1.125908
3208.969, 1.121391
3210.897, 1.120074
3212.825, 1.122522
3214.754, 1.125838
3216.682, 1.127341
3218.611, 1.129533
3220.539, 1.129829
3222.468, 1.127164
3224.396, 1.127814
3226.325, 1.130097
3228.253, 1.130440
3230.182, 1.128676
3232.110, 1.130020
3234.039, 1.131701
3235.967, 1.132268
3237.896, 1.133601
3239.824, 1.133734
3241.752, 1.132740
3243.681, 1.131983
3245.609, 1.133529
3247.538, 1.139104
3249.466, 1.140138
3251.395, 1.137263
3253.323, 1.134097
3255.252, 1.136041
3257.180, 1.138359
3259.109, 1.139297
3261.037, 1.136738
3262.966, 1.137088
3264.894, 1.140304
3266.823, 1.140388
3268.751, 1.142678
3270.679, 1.145169
3272.608, 1.143944
3274.536, 1.140934
3276.465, 1.139678
3278.393, 1.139787
3280.322, 1.140969
3282.250, 1.143450
3284.179, 1.146721
3286.107, 1.146053
3288.036, 1.144553
3289.964, 1.142995
3291.893, 1.148207
3293.821, 1.148531
3295.750, 1.145172
3297.678, 1.146559
3299.606, 1.146938
3301.535, 1.146764
3303.463, 1.146208
3305.392, 1.146536
3307.320, 1.151620
3309.249, 1.149949
3311.177, 1.148555
3313.106, 1.149992
3315.034, 1.149746
3316.963, 1.150292
3318.891, 1.151376
3320.820, 1.151012
3322.748, 1.152594
3324.677, 1.155307
3326.605, 1.156269
3328.533, 1.154875
3330.462, 1.152017
3332.390, 1.152159
3334.319, 1.154161
3336.247, 1.154202
3338.176, 1.157572
3340.104, 1.158956
3342.033, 1.157658
3343.961, 1.157541
3345.890, 1.156759
3347.818, 1.158995
3349.747, 1.160279
3351.675, 1.157473
3353.604, 1.159091
3355.532, 1.160042
3357.460, 1.161740
3359.389, 1.163286
3361.317, 1.162457
3363.246, 1.160320
3365.174, 1.157115
3367.103, 1.159071
3369.031, 1.163136
3370.960, 1.163849
3372.888, 1.162324
3374.817, 1.162012
3376.745, 1.164356
3378.674, 1.162548
3380.602, 1.163934
3382.531, 1.164187
3384.459, 1.161425
3386.387, 1.159590
3388.316, 1.162597
3390.244, 1.166318
3392.173, 1.166587
3394.101, 1.165102
3396.030, 1.165413
3397.958, 1.166684
3399.887, 1.166290
3401.815, 1.167831
3403.744, 1.168514
3405.672, 1.169772
3407.601, 1.171357
3409.529, 1.171824
3411.458, 1.172354
3413.386, 1.172727
3415.314, 1.174788
3417.243, 1.173517
3419.171, 1.171479
3421.100, 1.171051
3423.028, 1.170400
3424.957, 1.174358
3426.885, 1.177006
3428.814, 1.175574
3430.742, 1.174692
3432.671, 1.178446
3434.599, 1.177129
3436.528, 1.171433
3438.456, 1.170841
3440.385, 1.174977
3442.313, 1.178087
3444.241, 1.178371
3446.170, 1.175752
3448.098, 1.172347
3450.027, 1.175284
3451.955, 1.177179
3453.884, 1.176597
3455.812, 1.179472
3457.741, 1.186376
3459.669, 1.189327
3461.598, 1.184163
3463.526, 1.182181
3465.455, 1.187452
3467.383, 1.187792
3469.312, 1.183611
3471.240, 1.184117
3473.168, 1.179705
3475.097, 1.177758
3477.025, 1.183571
3478.954, 1.183362
3480.882, 1.182196
3482.811, 1.187337
3484.739, 1.191084
3486.668, 1.189117
3488.596, 1.187591
3490.525, 1.191672
3492.453, 1.195691
3494.382, 1.194427
3496.310, 1.189241
3498.239, 1.186733
3500.167, 1.189163
3502.095, 1.191256
3504.024, 1.189912
3505.952, 1.188143
3507.881, 1.185082
3509.809, 1.187919
3511.738, 1.194463
3513.666, 1.194108
3515.595, 1.191524
3517.523, 1.193326
3519.452, 1.198492
3521.380, 1.199719
3523.309, 1.193047
3525.237, 1.192258
3527.166, 1.195159
3529.094, 1.196898
3531.022, 1.192523
3532.951, 1.188518
3534.879, 1.190310
3536.808, 1.195346
3538.736, 1.197548
3540.665, 1.196001
3542.593, 1.193928
3544.522, 1.196194
3546.450, 1.195383
3548.379, 1.192511
3550.307, 1.195457
3552.236, 1.203811
3554.164, 1.205844
3556.093, 1.197707
3558.021, 1.198891
3559.949, 1.201184
3561.878, 1.200321
3563.806, 1.200720
3565.735, 1.202372
3567.663, 1.204558
3569.592, 1.205283
3571.520, 1.204675
3573.449, 1.204277
3575.377, 1.201845
3577.306, 1.204959
3579.234, 1.205505
3581.163, 1.200130
3583.091, 1.198353
3585.020, 1.204632
3586.948, 1.214617
3588.876, 1.213570
3590.805, 1.210547
3592.733, 1.207808
3594.662, 1.208083
3596.590, 1.209180
3598.519, 1.208598
3600.447, 1.209248
3602.376, 1.208398
3604.304, 1.210298
3606.233, 1.212141
3608.161, 1.210154
3610.090, 1.208107
3612.018, 1.211955
3613.947, 1.215146
3615.875, 1.215611
3617.803, 1.212485
3619.732, 1.212559
3621.660, 1.217596
3623.589, 1.218773
3625.517, 1.217148
3627.446, 1.214394
3629.374, 1.213794
3631.303, 1.219946
3633.231, 1.223801
3635.160, 1.221932
3637.088, 1.219228
3639.017, 1.219020
3640.945, 1.221183
3642.874, 1.223903
3644.802, 1.226837
3646.730, 1.226102
3648.659, 1.225239
3650.587, 1.225328
3652.516, 1.223689
3654.444, 1.221295
3656.373, 1.222676
3658.301, 1.224017
3660.230, 1.225718
3662.158, 1.226527
3664.087, 1.222990
3666.015, 1.223729
3667.944, 1.231254
3669.872, 1.238520
3671.801, 1.233737
3673.729, 1.227144
3675.657, 1.228489
3677.586, 1.230973
3679.514, 1.234368
3681.443, 1.230156
3683.371, 1.223429
3685.300, 1.227519
3687.228, 1.230717
3689.157, 1.234652
3691.085, 1.236786
3693.014, 1.231602
3694.942, 1.231351
3696.871, 1.232505
3698.799, 1.234165
3700.728, 1.232331
3702.656, 1.235237
3704.584, 1.242089
3706.513, 1.239352
3708.441, 1.234020
3710.370, 1.233974
3712.298, 1.240780
3714.227, 1.238580
3716.155, 1.235641
3718.084, 1.239343
3720.012, 1.245408
3721.941, 1.245404
3723.869, 1.245136
3725.798, 1.244967
3727.726, 1.243825
3729.655, 1.243396
3731.583, 1.245746
3733.511, 1.247985
3735.440, 1.246421
3737.368, 1.244056
3739.297, 1.241693
3741.225, 1.246844
3743.154, 1.251750
3745.082, 1.249474
3747.011, 1.250905
3748.939, 1.256027
3750.868, 1.254777
3752.796, 1.252918
3754.725, 1.249460
3756.653, 1.251759
3758.582, 1.255139
3760.510, 1.258001
3762.438, 1.260749
3764.367, 1.259088
3766.295, 1.257663
3768.224, 1.256809
3770.152, 1.257993
3772.081, 1.258249
3774.009, 1.256249
3775.938, 1.257591
3777.866, 1.253466
3779.795, 1.247850
3781.723, 1.251715
3783.652, 1.258596
3785.580, 1.261659
3787.509, 1.266051
3789.437, 1.263054
3791.365, 1.256676
3793.294, 1.260483
3795.222, 1.263464
3797.151, 1.260185
3799.079, 1.264614
3801.008, 1.268129
3802.936, 1.264449
3804.865, 1.264759
3806.793, 1.267018
3808.722, 1.264130
3810.650, 1.260630
3812.579, 1.269635
3814.507, 1.278323
3816.436, 1.272857
3818.364, 1.264066
3820.292, 1.260713
3822.221, 1.260734
3824.149, 1.266830
3826.078, 1.271977
3828.006, 1.272362
3829.935, 1.268946
3831.863, 1.268482
3833.792, 1.273651
3835.720, 1.273145
3837.649, 1.271937
3839.577, 1.272833
3841.506, 1.278369
3843.434, 1.280890
3845.363, 1.277290
3847.291, 1.271609
3849.219, 1.271300
3851.148, 1.277159
3853.076, 1.280955
3855.005, 1.284140
3856.933, 1.280654
3858.862, 1.279512
3860.790, 1.277756
3862.719, 1.279276
3864.647, 1.279651
3866.576, 1.278504
3868.504, 1.282005
3870.433, 1.284445
3872.361, 1.283739
3874.290, 1.282219
3876.218, 1.284579
3878.146, 1.282744
3880.075, 1.279491
3882.003, 1.280207
3883.932, 1.282340
3885.860, 1.287335
3887.789, 1.289296
3889.717, 1.292860
3891.646, 1.287942
3893.574, 1.290781
3895.503, 1.296716
3897.431, 1.290629
3899.360, 1.285472
3901.288, 1.287654
3903.217, 1.291223
3905.145, 1.292781
3907.073, 1.293729
3909.002, 1.294240
3910.930, 1.295936
3912.859, 1.297292
3914.787, 1.293651
3916.716, 1.292070
3918.644, 1.294753
3920.573, 1.298414
3922.501, 1.298842
3924.430, 1.294932
3926.358, 1.299617
3928.287, 1.301857
3930.215, 1.300187
3932.144, 1.295678
3934.072, 1.300338
3936.000, 1.304545
3937.929, 1.301960
3939.857, 1.301326
3941.786, 1.307774
3943.714, 1.310707
3945.643, 1.313860
3947.571, 1.315048
3949.500, 1.310110
3951.428, 1.304860
3953.357, 1.307826
3955.285, 1.305583
3957.214, 1.306203
3959.142, 1.306534
3961.071, 1.305318
3962.999, 1.307605
3964.927, 1.309448
3966.856, 1.308640
3968.784, 1.313386
3970.713, 1.306893
3972.641, 1.306940
3974.570, 1.314767
3976.498, 1.316038
3978.427, 1.316098
3980.355, 1.311552
3982.284, 1.304106
3984.212, 1.307890
3986.141, 1.319108
3988.069, 1.317890
3989.998, 1.308480
3991.926, 1.305460
3993.854, 1.314834
3995.783, 1.323496
3997.711, 1.322704
3999.640, 1.323342
##END=



