##NAMES=Kernite
##RRUFFID=R050661
##IDEAL CHEMISTRY=Na_2_B_4_O_6_(OH)_2_&#183;3H_2_O
##LOCALITY=Boron, Kern County, California, USA
##OWNER=RRUFF
##SOURCE=Marcus Origlieri
##DESCRIPTION=Colorless cleavage fragment
##STATUS=The identification of this mineral has been confirmed by X-ray diffraction.
##URL=rruff.info/R050661
3.741225e+002, 1.328099e-002
3.760510e+002, 1.829624e-002
3.779795e+002, 2.805475e-002
3.799079e+002, 2.592513e-002
3.818364e+002, 2.445222e-002
3.837649e+002, 2.432648e-002
3.856933e+002, 2.480715e-002
3.876218e+002, 2.488406e-002
3.895503e+002, 2.612790e-002
3.914787e+002, 2.733394e-002
3.934072e+002, 2.680739e-002
3.953357e+002, 2.403576e-002
3.972641e+002, 2.313537e-002
3.991926e+002, 2.363688e-002
4.011211e+002, 2.284075e-002
4.030495e+002, 2.236490e-002
4.049780e+002, 2.277448e-002
4.069065e+002, 2.251552e-002
4.088349e+002, 2.133566e-002
4.107634e+002, 2.125526e-002
4.126919e+002, 2.202477e-002
4.146203e+002, 2.204739e-002
4.165488e+002, 2.203401e-002
4.184773e+002, 2.157978e-002
4.204057e+002, 2.412602e-002
4.223342e+002, 2.571920e-002
4.242627e+002, 2.559639e-002
4.261911e+002, 2.660716e-002
4.281196e+002, 2.793455e-002
4.300481e+002, 2.851811e-002
4.319765e+002, 2.749994e-002
4.339050e+002, 2.692784e-002
4.358335e+002, 2.696883e-002
4.377619e+002, 2.720369e-002
4.396904e+002, 2.796322e-002
4.416189e+002, 2.922723e-002
4.435473e+002, 3.037764e-002
4.454758e+002, 3.136837e-002
4.474043e+002, 3.412206e-002
4.493327e+002, 3.692375e-002
4.512612e+002, 3.965091e-002
4.531897e+002, 4.472054e-002
4.551181e+002, 5.194893e-002
4.570466e+002, 5.779971e-002
4.589751e+002, 5.850388e-002
4.609035e+002, 5.376823e-002
4.628320e+002, 4.808678e-002
4.647605e+002, 4.351050e-002
4.666889e+002, 4.120053e-002
4.686174e+002, 4.121426e-002
4.705459e+002, 4.198908e-002
4.724743e+002, 4.340800e-002
4.744028e+002, 4.552377e-002
4.763313e+002, 4.749362e-002
4.782597e+002, 4.991885e-002
4.801882e+002, 5.413517e-002
4.821167e+002, 5.983732e-002
4.840451e+002, 6.415264e-002
4.859736e+002, 6.619846e-002
4.879021e+002, 6.828221e-002
4.898305e+002, 7.138930e-002
4.917590e+002, 7.517263e-002
4.936875e+002, 7.834440e-002
4.956159e+002, 7.865245e-002
4.975444e+002, 7.640966e-002
4.994729e+002, 7.246652e-002
5.014013e+002, 6.779050e-002
5.033298e+002, 6.388117e-002
5.052583e+002, 6.141185e-002
5.071867e+002, 6.039105e-002
5.091152e+002, 6.081304e-002
5.110437e+002, 6.200532e-002
5.129721e+002, 6.254610e-002
5.149006e+002, 6.329618e-002
5.168290e+002, 6.480593e-002
5.187575e+002, 6.630454e-002
5.206860e+002, 6.776371e-002
5.226144e+002, 6.874420e-002
5.245429e+002, 7.007211e-002
5.264714e+002, 7.176513e-002
5.283998e+002, 7.393543e-002
5.303283e+002, 7.614279e-002
5.322568e+002, 7.800109e-002
5.341852e+002, 7.994542e-002
5.361137e+002, 8.252076e-002
5.380422e+002, 8.513305e-002
5.399706e+002, 8.765274e-002
5.418991e+002, 9.072590e-002
5.438276e+002, 9.510970e-002
5.457560e+002, 1.017086e-001
5.476845e+002, 1.132564e-001
5.496130e+002, 1.313969e-001
5.515414e+002, 1.485514e-001
5.534699e+002, 1.453381e-001
5.553984e+002, 1.214788e-001
5.573268e+002, 9.923085e-002
5.592553e+002, 8.711852e-002
5.611838e+002, 8.186951e-002
5.631122e+002, 8.083694e-002
5.650407e+002, 8.324055e-002
5.669692e+002, 8.787002e-002
5.688976e+002, 9.236231e-002
5.708261e+002, 9.161589e-002
5.727546e+002, 8.550319e-002
5.746830e+002, 8.020124e-002
5.766115e+002, 7.880298e-002
5.785400e+002, 7.997708e-002
5.804684e+002, 8.171707e-002
5.823969e+002, 8.366148e-002
5.843254e+002, 8.578541e-002
5.862538e+002, 8.671243e-002
5.881823e+002, 8.577149e-002
5.901108e+002, 8.329763e-002
5.920392e+002, 8.042175e-002
5.939677e+002, 7.889997e-002
5.958962e+002, 7.935277e-002
5.978246e+002, 8.192229e-002
5.997531e+002, 8.606085e-002
6.016816e+002, 9.109727e-002
6.036100e+002, 9.704623e-002
6.055385e+002, 1.033970e-001
6.074670e+002, 1.103563e-001
6.093954e+002, 1.177615e-001
6.113239e+002, 1.250896e-001
6.132524e+002, 1.327457e-001
6.151808e+002, 1.404320e-001
6.171093e+002, 1.448301e-001
6.190378e+002, 1.418526e-001
6.209662e+002, 1.327445e-001
6.228947e+002, 1.242042e-001
6.248232e+002, 1.197100e-001
6.267516e+002, 1.183574e-001
6.286801e+002, 1.184452e-001
6.306086e+002, 1.192110e-001
6.325370e+002, 1.208066e-001
6.344655e+002, 1.235428e-001
6.363940e+002, 1.266587e-001
6.383224e+002, 1.301201e-001
6.402509e+002, 1.333692e-001
6.421794e+002, 1.361412e-001
6.441078e+002, 1.383296e-001
6.460363e+002, 1.400127e-001
6.479648e+002, 1.408752e-001
6.498932e+002, 1.408904e-001
6.518217e+002, 1.407951e-001
6.537502e+002, 1.402807e-001
6.556786e+002, 1.392582e-001
6.576071e+002, 1.383070e-001
6.595356e+002, 1.377055e-001
6.614641e+002, 1.371028e-001
6.633925e+002, 1.367065e-001
6.653210e+002, 1.368779e-001
6.672495e+002, 1.377118e-001
6.691779e+002, 1.393391e-001
6.711064e+002, 1.420845e-001
6.730349e+002, 1.467719e-001
6.749633e+002, 1.536357e-001
6.768918e+002, 1.632053e-001
6.788203e+002, 1.756171e-001
6.807487e+002, 1.898117e-001
6.826772e+002, 2.032828e-001
6.846057e+002, 2.128326e-001
6.865341e+002, 2.151552e-001
6.884626e+002, 2.100372e-001
6.903911e+002, 2.007077e-001
6.923195e+002, 1.894352e-001
6.942480e+002, 1.761452e-001
6.961765e+002, 1.601416e-001
6.981049e+002, 1.427068e-001
7.000334e+002, 1.270042e-001
7.019619e+002, 1.140944e-001
7.038903e+002, 1.041351e-001
7.058188e+002, 9.729089e-002
7.077473e+002, 9.348822e-002
7.096757e+002, 9.221153e-002
7.116042e+002, 9.288201e-002
7.135327e+002, 9.502304e-002
7.154611e+002, 9.908858e-002
7.173896e+002, 1.056488e-001
7.193181e+002, 1.152994e-001
7.212465e+002, 1.276219e-001
7.231750e+002, 1.366140e-001
7.251035e+002, 1.351527e-001
7.270319e+002, 1.251593e-001
7.289604e+002, 1.153884e-001
7.308889e+002, 1.104828e-001
7.328173e+002, 1.099554e-001
7.347458e+002, 1.123231e-001
7.366743e+002, 1.156790e-001
7.386027e+002, 1.173509e-001
7.405312e+002, 1.151196e-001
7.424597e+002, 1.098735e-001
7.443881e+002, 1.043430e-001
7.463166e+002, 1.006174e-001
7.482451e+002, 9.909279e-002
7.501735e+002, 9.901480e-002
7.521020e+002, 9.997266e-002
7.540305e+002, 1.016603e-001
7.559589e+002, 1.033985e-001
7.578874e+002, 1.051151e-001
7.598159e+002, 1.067562e-001
7.617443e+002, 1.078137e-001
7.636728e+002, 1.085171e-001
7.656013e+002, 1.089840e-001
7.675297e+002, 1.088453e-001
7.694582e+002, 1.079784e-001
7.713867e+002, 1.068181e-001
7.733151e+002, 1.056781e-001
7.752436e+002, 1.046238e-001
7.771721e+002, 1.036492e-001
7.791005e+002, 1.025855e-001
7.810290e+002, 1.016660e-001
7.829575e+002, 1.012402e-001
7.848859e+002, 1.012748e-001
7.868144e+002, 1.015420e-001
7.887429e+002, 1.021797e-001
7.906713e+002, 1.034381e-001
7.925998e+002, 1.050589e-001
7.945283e+002, 1.069414e-001
7.964567e+002, 1.094089e-001
7.983852e+002, 1.124791e-001
8.003137e+002, 1.161018e-001
8.022421e+002, 1.198786e-001
8.041706e+002, 1.236041e-001
8.060991e+002, 1.272327e-001
8.080275e+002, 1.307949e-001
8.099560e+002, 1.344917e-001
8.118845e+002, 1.383294e-001
8.138129e+002, 1.426535e-001
8.157414e+002, 1.477276e-001
8.176699e+002, 1.532229e-001
8.195983e+002, 1.587307e-001
8.215268e+002, 1.638874e-001
8.234553e+002, 1.680406e-001
8.253837e+002, 1.704567e-001
8.273122e+002, 1.707400e-001
8.292407e+002, 1.689615e-001
8.311691e+002, 1.651870e-001
8.330976e+002, 1.598468e-001
8.350261e+002, 1.539561e-001
8.369545e+002, 1.478529e-001
8.388830e+002, 1.421260e-001
8.408115e+002, 1.372191e-001
8.427399e+002, 1.331622e-001
8.446684e+002, 1.301961e-001
8.465969e+002, 1.288275e-001
8.485253e+002, 1.284012e-001
8.504538e+002, 1.286940e-001
8.523823e+002, 1.297699e-001
8.543107e+002, 1.314142e-001
8.562392e+002, 1.332496e-001
8.581677e+002, 1.352091e-001
8.600961e+002, 1.374649e-001
8.620246e+002, 1.402993e-001
8.639531e+002, 1.439532e-001
8.658815e+002, 1.483169e-001
8.678100e+002, 1.528516e-001
8.697385e+002, 1.570647e-001
8.716669e+002, 1.599678e-001
8.735954e+002, 1.609457e-001
8.755239e+002, 1.598058e-001
8.774523e+002, 1.567030e-001
8.793808e+002, 1.527301e-001
8.813093e+002, 1.480731e-001
8.832377e+002, 1.431529e-001
8.851662e+002, 1.380806e-001
8.870947e+002, 1.326654e-001
8.890231e+002, 1.274063e-001
8.909516e+002, 1.227099e-001
8.928801e+002, 1.188799e-001
8.948085e+002, 1.159225e-001
8.967370e+002, 1.138392e-001
8.986655e+002, 1.127221e-001
9.005939e+002, 1.126991e-001
9.025224e+002, 1.138572e-001
9.044509e+002, 1.161317e-001
9.063793e+002, 1.195905e-001
9.083078e+002, 1.242265e-001
9.102363e+002, 1.301321e-001
9.121647e+002, 1.371323e-001
9.140932e+002, 1.453867e-001
9.160217e+002, 1.551121e-001
9.179501e+002, 1.658355e-001
9.198786e+002, 1.778854e-001
9.218071e+002, 1.913547e-001
9.237355e+002, 2.060498e-001
9.256640e+002, 2.221282e-001
9.275925e+002, 2.392670e-001
9.295209e+002, 2.568369e-001
9.314494e+002, 2.743137e-001
9.333779e+002, 2.915923e-001
9.353063e+002, 3.088233e-001
9.372348e+002, 3.257492e-001
9.391633e+002, 3.420331e-001
9.410917e+002, 3.570056e-001
9.430202e+002, 3.693640e-001
9.449487e+002, 3.777207e-001
9.468771e+002, 3.823211e-001
9.488056e+002, 3.831918e-001
9.507341e+002, 3.808211e-001
9.526625e+002, 3.759614e-001
9.545910e+002, 3.691488e-001
9.565195e+002, 3.605686e-001
9.584479e+002, 3.520715e-001
9.603764e+002, 3.458901e-001
9.623049e+002, 3.444124e-001
9.642333e+002, 3.484592e-001
9.661618e+002, 3.565391e-001
9.680903e+002, 3.650674e-001
9.700187e+002, 3.698399e-001
9.719472e+002, 3.673454e-001
9.738757e+002, 3.571080e-001
9.758041e+002, 3.409663e-001
9.777326e+002, 3.224260e-001
9.796611e+002, 3.056084e-001
9.815895e+002, 2.933870e-001
9.835180e+002, 2.861645e-001
9.854465e+002, 2.831703e-001
9.873749e+002, 2.825205e-001
9.893034e+002, 2.830903e-001
9.912319e+002, 2.843664e-001
9.931603e+002, 2.865035e-001
9.950888e+002, 2.904547e-001
9.970173e+002, 2.973203e-001
9.989457e+002, 3.074633e-001
1.000874e+003, 3.204291e-001
1.002803e+003, 3.342431e-001
1.004731e+003, 3.467803e-001
1.006660e+003, 3.561953e-001
1.008588e+003, 3.616674e-001
1.010517e+003, 3.626314e-001
1.012445e+003, 3.593400e-001
1.014373e+003, 3.522727e-001
1.016302e+003, 3.424613e-001
1.018230e+003, 3.307732e-001
1.020159e+003, 3.181912e-001
1.022087e+003, 3.056071e-001
1.024016e+003, 2.936252e-001
1.025944e+003, 2.823361e-001
1.027873e+003, 2.718861e-001
1.029801e+003, 2.613499e-001
1.031730e+003, 2.510127e-001
1.033658e+003, 2.411132e-001
1.035587e+003, 2.316345e-001
1.037515e+003, 2.223227e-001
1.039443e+003, 2.133532e-001
1.041372e+003, 2.047288e-001
1.043300e+003, 1.963825e-001
1.045229e+003, 1.882373e-001
1.047157e+003, 1.804588e-001
1.049086e+003, 1.729001e-001
1.051014e+003, 1.659627e-001
1.052943e+003, 1.596184e-001
1.054871e+003, 1.536500e-001
1.056800e+003, 1.481243e-001
1.058728e+003, 1.432406e-001
1.060657e+003, 1.389805e-001
1.062585e+003, 1.352782e-001
1.064514e+003, 1.319219e-001
1.066442e+003, 1.286120e-001
1.068370e+003, 1.255401e-001
1.070299e+003, 1.229760e-001
1.072227e+003, 1.203025e-001
1.074156e+003, 1.172482e-001
1.076084e+003, 1.141129e-001
1.078013e+003, 1.109332e-001
1.079941e+003, 1.078567e-001
1.081870e+003, 1.045073e-001
1.083798e+003, 1.007163e-001
1.085727e+003, 9.686221e-002
1.087655e+003, 9.284659e-002
1.089584e+003, 8.861890e-002
1.091512e+003, 8.448765e-002
1.093441e+003, 8.015071e-002
1.095369e+003, 7.585461e-002
1.097297e+003, 7.179031e-002
1.099226e+003, 6.775499e-002
1.101154e+003, 6.385934e-002
1.103083e+003, 6.030152e-002
1.105011e+003, 5.689231e-002
1.106940e+003, 5.382639e-002
1.108868e+003, 5.112652e-002
1.110797e+003, 4.882021e-002
1.112725e+003, 4.697020e-002
1.114654e+003, 4.555909e-002
1.116582e+003, 4.450378e-002
1.118511e+003, 4.353333e-002
1.120439e+003, 4.254286e-002
1.122368e+003, 4.173705e-002
1.124296e+003, 4.099300e-002
1.126224e+003, 4.047507e-002
1.128153e+003, 4.021612e-002
1.130081e+003, 3.999298e-002
1.132010e+003, 3.989368e-002
1.133938e+003, 4.038691e-002
1.135867e+003, 4.117365e-002
1.137795e+003, 4.218021e-002
1.139724e+003, 4.334475e-002
1.141652e+003, 4.449278e-002
1.143581e+003, 4.579186e-002
1.145509e+003, 4.711186e-002
1.147438e+003, 4.827368e-002
1.149366e+003, 4.895730e-002
1.151295e+003, 4.931340e-002
1.153223e+003, 4.974586e-002
1.155151e+003, 5.013113e-002
1.157080e+003, 5.024443e-002
1.159008e+003, 5.009476e-002
1.160937e+003, 4.971712e-002
1.162865e+003, 4.915220e-002
1.164794e+003, 4.824546e-002
1.166722e+003, 4.699740e-002
1.168651e+003, 4.547044e-002
1.170579e+003, 4.358545e-002
1.172508e+003, 4.125684e-002
1.174436e+003, 3.887018e-002
1.176365e+003, 3.655389e-002
1.178293e+003, 3.455827e-002
1.180222e+003, 3.293300e-002
1.182150e+003, 3.152049e-002
1.184078e+003, 3.036660e-002
1.186007e+003, 2.944378e-002
1.187935e+003, 2.872741e-002
1.189864e+003, 2.821647e-002
1.191792e+003, 2.785861e-002
1.193721e+003, 2.745697e-002
1.195649e+003, 2.709618e-002
1.197578e+003, 2.686821e-002
1.199506e+003, 2.659117e-002
1.201435e+003, 2.635080e-002
1.203363e+003, 2.606357e-002
1.205292e+003, 2.576798e-002
1.207220e+003, 2.560168e-002
1.209149e+003, 2.557430e-002
1.211077e+003, 2.553408e-002
1.213005e+003, 2.553529e-002
1.214934e+003, 2.550558e-002
1.216862e+003, 2.553900e-002
1.218791e+003, 2.562012e-002
1.220719e+003, 2.581504e-002
1.222648e+003, 2.603440e-002
1.224576e+003, 2.621296e-002
1.226505e+003, 2.641641e-002
1.228433e+003, 2.670492e-002
1.230362e+003, 2.693032e-002
1.232290e+003, 2.718152e-002
1.234219e+003, 2.748580e-002
1.236147e+003, 2.778271e-002
1.238076e+003, 2.806159e-002
1.240004e+003, 2.850344e-002
1.241932e+003, 2.905324e-002
1.243861e+003, 2.954363e-002
1.245789e+003, 2.999042e-002
1.247718e+003, 3.045774e-002
1.249646e+003, 3.102922e-002
1.251575e+003, 3.175470e-002
1.253503e+003, 3.252703e-002
1.255432e+003, 3.333099e-002
1.257360e+003, 3.417166e-002
1.259289e+003, 3.500957e-002
1.261217e+003, 3.588948e-002
1.263146e+003, 3.701432e-002
1.265074e+003, 3.825821e-002
1.267003e+003, 3.946211e-002
1.268931e+003, 4.064319e-002
1.270859e+003, 4.199119e-002
1.272788e+003, 4.360248e-002
1.274716e+003, 4.543247e-002
1.276645e+003, 4.730828e-002
1.278573e+003, 4.921587e-002
1.280502e+003, 5.139504e-002
1.282430e+003, 5.394105e-002
1.284359e+003, 5.667553e-002
1.286287e+003, 5.969942e-002
1.288216e+003, 6.308275e-002
1.290144e+003, 6.716201e-002
1.292073e+003, 7.178126e-002
1.294001e+003, 7.696585e-002
1.295930e+003, 8.277698e-002
1.297858e+003, 8.945975e-002
1.299786e+003, 9.750003e-002
1.301715e+003, 1.070366e-001
1.303643e+003, 1.177979e-001
1.305572e+003, 1.301818e-001
1.307500e+003, 1.444476e-001
1.309429e+003, 1.605639e-001
1.311357e+003, 1.783362e-001
1.313286e+003, 1.968392e-001
1.315214e+003, 2.140590e-001
1.317143e+003, 2.285122e-001
1.319071e+003, 2.407065e-001
1.321000e+003, 2.529157e-001
1.322928e+003, 2.666891e-001
1.324857e+003, 2.817814e-001
1.326785e+003, 2.963201e-001
1.328714e+003, 3.085024e-001
1.330642e+003, 3.167484e-001
1.332570e+003, 3.209031e-001
1.334499e+003, 3.214939e-001
1.336427e+003, 3.198737e-001
1.338356e+003, 3.173092e-001
1.340284e+003, 3.150959e-001
1.342213e+003, 3.142108e-001
1.344141e+003, 3.153608e-001
1.346070e+003, 3.183605e-001
1.347998e+003, 3.222783e-001
1.349927e+003, 3.252681e-001
1.351855e+003, 3.262847e-001
1.353784e+003, 3.245784e-001
1.355712e+003, 3.201777e-001
1.357641e+003, 3.136394e-001
1.359569e+003, 3.056394e-001
1.361497e+003, 2.967208e-001
1.363426e+003, 2.884299e-001
1.365354e+003, 2.817181e-001
1.367283e+003, 2.766788e-001
1.369211e+003, 2.726768e-001
1.371140e+003, 2.682404e-001
1.373068e+003, 2.617306e-001
1.374997e+003, 2.528228e-001
1.376925e+003, 2.416037e-001
1.378854e+003, 2.287934e-001
1.380782e+003, 2.152675e-001
1.382711e+003, 2.015757e-001
1.384639e+003, 1.879327e-001
1.386568e+003, 1.745933e-001
1.388496e+003, 1.621584e-001
1.390424e+003, 1.510479e-001
1.392353e+003, 1.411095e-001
1.394281e+003, 1.323269e-001
1.396210e+003, 1.250125e-001
1.398138e+003, 1.186695e-001
1.400067e+003, 1.128068e-001
1.401995e+003, 1.075397e-001
1.403924e+003, 1.023740e-001
1.405852e+003, 9.746175e-002
1.407781e+003, 9.279695e-002
1.409709e+003, 8.842145e-002
1.411638e+003, 8.452401e-002
1.413566e+003, 8.115283e-002
1.415495e+003, 7.846872e-002
1.417423e+003, 7.642049e-002
1.419351e+003, 7.510302e-002
1.421280e+003, 7.465570e-002
1.423208e+003, 7.407521e-002
1.425137e+003, 7.302082e-002
1.427065e+003, 7.097443e-002
1.428994e+003, 6.790906e-002
1.430922e+003, 6.419224e-002
1.432851e+003, 5.999453e-002
1.434779e+003, 5.545457e-002
1.436708e+003, 5.116961e-002
1.438636e+003, 4.775350e-002
1.440565e+003, 4.454003e-002
1.442493e+003, 4.149246e-002
1.444422e+003, 3.896049e-002
1.446350e+003, 3.690042e-002
1.448278e+003, 3.527418e-002
1.450207e+003, 3.422686e-002
1.452135e+003, 3.353948e-002
1.454064e+003, 3.309033e-002
1.455992e+003, 3.274822e-002
1.457921e+003, 3.315255e-002
1.459849e+003, 3.392944e-002
1.461778e+003, 3.410196e-002
1.463706e+003, 3.373032e-002
1.465635e+003, 3.315466e-002
1.467563e+003, 3.258755e-002
1.469492e+003, 3.158661e-002
1.471420e+003, 3.035136e-002
1.473349e+003, 2.940245e-002
1.475277e+003, 2.889518e-002
1.477205e+003, 2.863327e-002
1.479134e+003, 2.860573e-002
1.481062e+003, 2.845336e-002
1.482991e+003, 2.801238e-002
1.484919e+003, 2.689816e-002
1.486848e+003, 2.525938e-002
1.488776e+003, 2.340266e-002
1.490705e+003, 2.175917e-002
1.492633e+003, 2.043843e-002
1.494562e+003, 1.919928e-002
1.496490e+003, 1.793532e-002
1.498419e+003, 1.715233e-002
1.500347e+003, 1.677432e-002
1.502276e+003, 1.631223e-002
1.504204e+003, 1.545506e-002
1.506132e+003, 1.453533e-002
1.508061e+003, 1.443139e-002
1.509989e+003, 1.454094e-002
1.511918e+003, 1.428278e-002
1.513846e+003, 1.406267e-002
1.515775e+003, 1.377551e-002
1.517703e+003, 1.365739e-002
1.519632e+003, 1.340163e-002
1.521560e+003, 1.300099e-002
1.523489e+003, 1.306355e-002
1.525417e+003, 1.306560e-002
1.527346e+003, 1.312387e-002
1.529274e+003, 1.322557e-002
1.531203e+003, 1.302900e-002
1.533131e+003, 1.268873e-002
1.535059e+003, 1.284800e-002
1.536988e+003, 1.279006e-002
1.538916e+003, 1.206444e-002
1.540845e+003, 1.191328e-002
1.542773e+003, 1.223439e-002
1.544702e+003, 1.253430e-002
1.546630e+003, 1.298439e-002
1.548559e+003, 1.309925e-002
1.550487e+003, 1.298336e-002
1.552416e+003, 1.282915e-002
1.554344e+003, 1.265935e-002
1.556273e+003, 1.262036e-002
1.558201e+003, 1.204259e-002
1.560130e+003, 1.221906e-002
1.562058e+003, 1.310531e-002
1.563986e+003, 1.336604e-002
1.565915e+003, 1.349387e-002
1.567843e+003, 1.351207e-002
1.569772e+003, 1.347585e-002
1.571700e+003, 1.375427e-002
1.573629e+003, 1.383872e-002
1.575557e+003, 1.348745e-002
1.577486e+003, 1.380026e-002
1.579414e+003, 1.438316e-002
1.581343e+003, 1.457480e-002
1.583271e+003, 1.465774e-002
1.585200e+003, 1.473558e-002
1.587128e+003, 1.494899e-002
1.589057e+003, 1.507585e-002
1.590985e+003, 1.519599e-002
1.592913e+003, 1.526734e-002
1.594842e+003, 1.545088e-002
1.596770e+003, 1.570126e-002
1.598699e+003, 1.588984e-002
1.600627e+003, 1.600875e-002
1.602556e+003, 1.615172e-002
1.604484e+003, 1.618579e-002
1.606413e+003, 1.621767e-002
1.608341e+003, 1.635169e-002
1.610270e+003, 1.649595e-002
1.612198e+003, 1.665273e-002
1.614127e+003, 1.662418e-002
1.616055e+003, 1.624098e-002
1.617984e+003, 1.656591e-002
1.619912e+003, 1.700195e-002
1.621840e+003, 1.688353e-002
1.623769e+003, 1.681329e-002
1.625697e+003, 1.687623e-002
1.627626e+003, 1.687096e-002
1.629554e+003, 1.712025e-002
1.631483e+003, 1.750036e-002
1.633411e+003, 1.733046e-002
1.635340e+003, 1.687483e-002
1.637268e+003, 1.707936e-002
1.639197e+003, 1.755805e-002
1.641125e+003, 1.787929e-002
1.643054e+003, 1.798845e-002
1.644982e+003, 1.759091e-002
1.646911e+003, 1.742901e-002
1.648839e+003, 1.793090e-002
1.650767e+003, 1.764073e-002
1.652696e+003, 1.675286e-002
1.654624e+003, 1.749811e-002
1.656553e+003, 1.848735e-002
1.658481e+003, 1.889035e-002
1.660410e+003, 1.895789e-002
1.662338e+003, 1.863070e-002
1.664267e+003, 1.879119e-002
1.666195e+003, 1.912558e-002
1.668124e+003, 1.924988e-002
1.670052e+003, 1.937221e-002
1.671981e+003, 1.948283e-002
1.673909e+003, 1.938607e-002
1.675838e+003, 1.965584e-002
1.677766e+003, 2.028936e-002
1.679694e+003, 2.050396e-002
1.681623e+003, 2.055386e-002
1.683551e+003, 2.016313e-002
1.685480e+003, 2.051887e-002
1.687408e+003, 2.159126e-002
1.689337e+003, 2.236829e-002
1.691265e+003, 2.304487e-002
1.693194e+003, 2.337925e-002
1.695122e+003, 2.340889e-002
1.697051e+003, 2.435974e-002
1.698979e+003, 2.503310e-002
1.700908e+003, 2.534726e-002
1.702836e+003, 2.592835e-002
1.704765e+003, 2.571696e-002
1.706693e+003, 2.536799e-002
1.708621e+003, 2.448194e-002
1.710550e+003, 2.307936e-002
1.712478e+003, 2.152179e-002
1.714407e+003, 1.988094e-002
1.716335e+003, 1.788168e-002
1.718264e+003, 1.654350e-002
1.720192e+003, 1.598095e-002
1.722121e+003, 1.511063e-002
1.724049e+003, 1.409594e-002
1.725978e+003, 1.333844e-002
1.727906e+003, 1.266927e-002
1.729835e+003, 1.203379e-002
1.731763e+003, 1.112588e-002
1.733692e+003, 1.014612e-002
1.735620e+003, 1.003437e-002
1.737548e+003, 1.004955e-002
1.739477e+003, 9.594979e-003
1.741405e+003, 9.377921e-003
1.743334e+003, 9.303976e-003
1.745262e+003, 9.419418e-003
1.747191e+003, 9.375433e-003
1.749119e+003, 9.082781e-003
1.751048e+003, 8.788466e-003
1.752976e+003, 9.040385e-003
1.754905e+003, 9.218930e-003
1.756833e+003, 9.164017e-003
1.758762e+003, 9.187170e-003
1.760690e+003, 9.121435e-003
1.762619e+003, 9.187162e-003
1.764547e+003, 9.306217e-003
1.766475e+003, 9.036562e-003
1.768404e+003, 8.724143e-003
1.770332e+003, 8.449881e-003
1.772261e+003, 8.161754e-003
1.774189e+003, 8.357392e-003
1.776118e+003, 8.679585e-003
1.778046e+003, 8.851264e-003
1.779975e+003, 8.711436e-003
1.781903e+003, 8.478367e-003
1.783832e+003, 8.475352e-003
1.785760e+003, 8.547029e-003
1.787689e+003, 8.717919e-003
1.789617e+003, 8.634800e-003
1.791546e+003, 8.246845e-003
1.793474e+003, 8.071725e-003
1.795402e+003, 8.284681e-003
1.797331e+003, 8.258491e-003
1.799259e+003, 7.865100e-003
1.801188e+003, 7.814635e-003
1.803116e+003, 8.070694e-003
1.805045e+003, 8.119210e-003
1.806973e+003, 8.017124e-003
1.808902e+003, 7.927168e-003
1.810830e+003, 8.172877e-003
1.812759e+003, 8.191595e-003
1.814687e+003, 7.864882e-003
1.816616e+003, 7.685526e-003
1.818544e+003, 7.750760e-003
1.820473e+003, 7.922002e-003
1.822401e+003, 7.984556e-003
1.824329e+003, 7.693135e-003
1.826258e+003, 7.564716e-003
1.828186e+003, 7.587994e-003
1.830115e+003, 7.364859e-003
1.832043e+003, 7.484258e-003
1.833972e+003, 7.492751e-003
1.835900e+003, 7.518621e-003
1.837829e+003, 7.946911e-003
1.839757e+003, 7.869736e-003
1.841686e+003, 7.410376e-003
1.843614e+003, 7.046628e-003
1.845543e+003, 7.102489e-003
1.847471e+003, 7.082738e-003
1.849400e+003, 7.067814e-003
1.851328e+003, 7.139298e-003
1.853256e+003, 7.203362e-003
1.855185e+003, 7.364812e-003
1.857113e+003, 7.187311e-003
1.859042e+003, 7.070858e-003
1.860970e+003, 7.129762e-003
1.862899e+003, 7.048666e-003
1.864827e+003, 6.909126e-003
1.866756e+003, 6.799624e-003
1.868684e+003, 6.754327e-003
1.870613e+003, 6.797985e-003
1.872541e+003, 6.843410e-003
1.874470e+003, 6.699149e-003
1.876398e+003, 6.392482e-003
1.878327e+003, 6.371390e-003
1.880255e+003, 6.751045e-003
1.882183e+003, 6.646361e-003
1.884112e+003, 6.461673e-003
1.886040e+003, 6.305480e-003
1.887969e+003, 6.133167e-003
1.889897e+003, 5.801275e-003
1.891826e+003, 5.836803e-003
1.893754e+003, 5.904497e-003
1.895683e+003, 6.006360e-003
1.897611e+003, 6.369509e-003
1.899540e+003, 6.391141e-003
1.901468e+003, 6.101994e-003
1.903397e+003, 6.252737e-003
1.905325e+003, 6.162073e-003
1.907254e+003, 6.081663e-003
1.909182e+003, 6.491992e-003
1.911110e+003, 6.400017e-003
1.913039e+003, 6.404047e-003
1.914967e+003, 6.259934e-003
1.916896e+003, 5.861060e-003
1.918824e+003, 6.022430e-003
1.920753e+003, 6.144903e-003
1.922681e+003, 5.845389e-003
1.924610e+003, 5.728797e-003
1.926538e+003, 5.522206e-003
1.928467e+003, 5.621841e-003
1.930395e+003, 5.785303e-003
1.932324e+003, 5.495222e-003
1.934252e+003, 5.275981e-003
1.936181e+003, 4.907148e-003
1.938109e+003, 5.289280e-003
1.940037e+003, 5.357356e-003
1.941966e+003, 4.935273e-003
1.943894e+003, 4.805882e-003
1.945823e+003, 4.694592e-003
1.947751e+003, 4.317610e-003
1.949680e+003, 4.519559e-003
1.951608e+003, 4.550945e-003
1.953537e+003, 4.239486e-003
1.955465e+003, 4.140271e-003
1.957394e+003, 4.211030e-003
1.959322e+003, 3.937551e-003
1.961251e+003, 3.596201e-003
1.963179e+003, 3.293230e-003
1.965108e+003, 3.056090e-003
1.967036e+003, 2.790886e-003
1.968964e+003, 3.318784e-003
1.970893e+003, 3.315545e-003
1.972821e+003, 2.298527e-003
1.974750e+003, 2.312386e-003
1.976678e+003, 3.859395e-003
1.978607e+003, 4.803816e-003
1.980535e+003, 5.216023e-003
1.982464e+003, 4.349003e-003
1.984392e+003, 4.099773e-003
1.986321e+003, 4.566583e-003
1.988249e+003, 3.946775e-003
1.990178e+003, 4.476415e-003
1.992106e+003, 5.015295e-003
1.994035e+003, 4.188406e-003
1.995963e+003, 3.765256e-003
1.997891e+003, 2.801525e-003
1.999820e+003, 3.023629e-003
2.001748e+003, 3.906944e-003
2.003677e+003, 3.082626e-003
2.005605e+003, 1.771532e-003
2.007534e+003, 1.587293e-003
2.009462e+003, 2.975806e-003
2.011391e+003, 3.889614e-003
2.013319e+003, 3.024024e-003
2.015248e+003, 1.665641e-003
2.017176e+003, 1.690070e-003
2.019105e+003, 2.569284e-003
2.021033e+003, 1.475608e-003
2.022962e+003, 6.380785e-004
2.024890e+003, 1.564653e-003
2.026818e+003, 2.663430e-003
2.028747e+003, 3.700658e-003
2.030675e+003, 4.162674e-003
2.032604e+003, 3.445659e-003
2.034532e+003, 3.166088e-003
2.036461e+003, 3.762840e-003
2.038389e+003, 4.831061e-003
2.040318e+003, 5.122800e-003
2.042246e+003, 4.723593e-003
2.044175e+003, 5.043587e-003
2.046103e+003, 5.784946e-003
2.048031e+003, 6.844593e-003
2.049960e+003, 7.569487e-003
2.051888e+003, 6.739032e-003
2.053817e+003, 6.161154e-003
2.055745e+003, 6.560305e-003
2.057674e+003, 6.907255e-003
2.059602e+003, 7.040210e-003
2.061531e+003, 7.656302e-003
2.063459e+003, 8.420527e-003
2.065388e+003, 8.727083e-003
2.067316e+003, 8.751001e-003
2.069245e+003, 8.451750e-003
2.071173e+003, 8.296776e-003
2.073102e+003, 8.910066e-003
2.075030e+003, 9.193856e-003
2.076958e+003, 8.984332e-003
2.078887e+003, 9.535077e-003
2.080815e+003, 9.318264e-003
2.082744e+003, 9.178886e-003
2.084672e+003, 9.751647e-003
2.086601e+003, 9.384340e-003
2.088529e+003, 8.802645e-003
2.090458e+003, 8.974100e-003
2.092386e+003, 8.969705e-003
2.094315e+003, 9.137421e-003
2.096243e+003, 9.662768e-003
2.098172e+003, 9.797436e-003
2.100100e+003, 1.019415e-002
2.102029e+003, 1.101687e-002
2.103957e+003, 1.148621e-002
2.105885e+003, 1.127441e-002
2.107814e+003, 1.120724e-002
2.109742e+003, 1.125620e-002
2.111671e+003, 1.136835e-002
2.113599e+003, 1.154871e-002
2.115528e+003, 1.112373e-002
2.117456e+003, 1.092901e-002
2.119385e+003, 1.117102e-002
2.121313e+003, 1.143023e-002
2.123242e+003, 1.116101e-002
2.125170e+003, 1.096719e-002
2.127099e+003, 1.079443e-002
2.129027e+003, 1.011880e-002
2.130956e+003, 9.395283e-003
2.132884e+003, 8.639063e-003
2.134813e+003, 9.119433e-003
2.136741e+003, 1.009663e-002
2.138669e+003, 1.054699e-002
2.140598e+003, 1.001017e-002
2.142526e+003, 8.842153e-003
2.144455e+003, 8.482911e-003
2.146383e+003, 9.101351e-003
2.148312e+003, 9.503949e-003
2.150240e+003, 9.613539e-003
2.152169e+003, 9.478005e-003
2.154097e+003, 8.492604e-003
2.156026e+003, 6.760075e-003
2.157954e+003, 9.032515e-003
2.159883e+003, 1.273877e-002
2.161811e+003, 1.311667e-002
2.163740e+003, 1.190349e-002
2.165668e+003, 1.173258e-002
2.167596e+003, 1.239630e-002
2.169525e+003, 1.224171e-002
2.171453e+003, 1.142333e-002
2.173382e+003, 1.113962e-002
2.175310e+003, 1.154627e-002
2.177239e+003, 1.230139e-002
2.179167e+003, 1.223717e-002
2.181096e+003, 1.227435e-002
2.183024e+003, 1.249098e-002
2.184953e+003, 1.243321e-002
2.186881e+003, 1.320500e-002
2.188810e+003, 1.338411e-002
2.190738e+003, 1.387992e-002
2.192667e+003, 1.465182e-002
2.194595e+003, 1.443656e-002
2.196523e+003, 1.400918e-002
2.198452e+003, 1.427225e-002
2.200380e+003, 1.373611e-002
2.202309e+003, 1.392576e-002
2.204237e+003, 1.465572e-002
2.206166e+003, 1.439342e-002
2.208094e+003, 1.383525e-002
2.210023e+003, 1.407834e-002
2.211951e+003, 1.396776e-002
2.213880e+003, 1.382105e-002
2.215808e+003, 1.442793e-002
2.217737e+003, 1.463855e-002
2.219665e+003, 1.452965e-002
2.221594e+003, 1.464884e-002
2.223522e+003, 1.402192e-002
2.225450e+003, 1.372775e-002
2.227379e+003, 1.441218e-002
2.229307e+003, 1.471230e-002
2.231236e+003, 1.477157e-002
2.233164e+003, 1.465347e-002
2.235093e+003, 1.472808e-002
2.237021e+003, 1.473469e-002
2.238950e+003, 1.497918e-002
2.240878e+003, 1.563781e-002
2.242807e+003, 1.594349e-002
2.244735e+003, 1.597534e-002
2.246664e+003, 1.615419e-002
2.248592e+003, 1.579158e-002
2.250521e+003, 1.528955e-002
2.252449e+003, 1.486313e-002
2.254377e+003, 1.520286e-002
2.256306e+003, 1.594469e-002
2.258234e+003, 1.594889e-002
2.260163e+003, 1.576736e-002
2.262091e+003, 1.601780e-002
2.264020e+003, 1.563565e-002
2.265948e+003, 1.525740e-002
2.267877e+003, 1.555166e-002
2.269805e+003, 1.608679e-002
2.271734e+003, 1.617965e-002
2.273662e+003, 1.624240e-002
2.275591e+003, 1.653323e-002
2.277519e+003, 1.664132e-002
2.279448e+003, 1.658260e-002
2.281376e+003, 1.677213e-002
2.283304e+003, 1.692459e-002
2.285233e+003, 1.737956e-002
2.287161e+003, 1.729443e-002
2.289090e+003, 1.690715e-002
2.291018e+003, 1.641678e-002
2.292947e+003, 1.622385e-002
2.294875e+003, 1.626895e-002
2.296804e+003, 1.631852e-002
2.298732e+003, 1.601104e-002
2.300661e+003, 1.592587e-002
2.302589e+003, 1.595147e-002
2.304518e+003, 1.607640e-002
2.306446e+003, 1.623354e-002
2.308375e+003, 1.662023e-002
2.310303e+003, 1.654936e-002
2.312231e+003, 1.630159e-002
2.314160e+003, 1.633240e-002
2.316088e+003, 1.678977e-002
2.318017e+003, 1.702456e-002
2.319945e+003, 1.708454e-002
2.321874e+003, 1.724233e-002
2.323802e+003, 1.735738e-002
2.325731e+003, 1.687965e-002
2.327659e+003, 1.652575e-002
2.329588e+003, 1.631075e-002
2.331516e+003, 1.630321e-002
2.333445e+003, 1.648878e-002
2.335373e+003, 1.638641e-002
2.337302e+003, 1.638444e-002
2.339230e+003, 1.637110e-002
2.341158e+003, 1.629567e-002
2.343087e+003, 1.611276e-002
2.345015e+003, 1.600935e-002
2.346944e+003, 1.603002e-002
2.348872e+003, 1.603647e-002
2.350801e+003, 1.598642e-002
2.352729e+003, 1.604507e-002
2.354658e+003, 1.616538e-002
2.356586e+003, 1.613316e-002
2.358515e+003, 1.613390e-002
2.360443e+003, 1.601545e-002
2.362372e+003, 1.562305e-002
2.364300e+003, 1.547283e-002
2.366229e+003, 1.535580e-002
2.368157e+003, 1.532149e-002
2.370085e+003, 1.509590e-002
2.372014e+003, 1.495961e-002
2.373942e+003, 1.500146e-002
2.375871e+003, 1.494128e-002
2.377799e+003, 1.459264e-002
2.379728e+003, 1.460160e-002
2.381656e+003, 1.506750e-002
2.383585e+003, 1.517988e-002
2.385513e+003, 1.497666e-002
2.387442e+003, 1.462936e-002
2.389370e+003, 1.441477e-002
2.391299e+003, 1.447220e-002
2.393227e+003, 1.455954e-002
2.395156e+003, 1.456910e-002
2.397084e+003, 1.409235e-002
2.399012e+003, 1.363503e-002
2.400941e+003, 1.360383e-002
2.402869e+003, 1.374496e-002
2.404798e+003, 1.416605e-002
2.406726e+003, 1.454074e-002
2.408655e+003, 1.466432e-002
2.410583e+003, 1.448767e-002
2.412512e+003, 1.428118e-002
2.414440e+003, 1.433720e-002
2.416369e+003, 1.441196e-002
2.418297e+003, 1.438033e-002
2.420226e+003, 1.454302e-002
2.422154e+003, 1.463777e-002
2.424083e+003, 1.449535e-002
2.426011e+003, 1.437119e-002
2.427939e+003, 1.414940e-002
2.429868e+003, 1.402014e-002
2.431796e+003, 1.439885e-002
2.433725e+003, 1.471800e-002
2.435653e+003, 1.450325e-002
2.437582e+003, 1.457902e-002
2.439510e+003, 1.482266e-002
2.441439e+003, 1.509947e-002
2.443367e+003, 1.515106e-002
2.445296e+003, 1.487762e-002
2.447224e+003, 1.498877e-002
2.449153e+003, 1.497384e-002
2.451081e+003, 1.468792e-002
2.453010e+003, 1.470178e-002
2.454938e+003, 1.474402e-002
2.456866e+003, 1.469287e-002
2.458795e+003, 1.515210e-002
2.460723e+003, 1.516672e-002
2.462652e+003, 1.494085e-002
2.464580e+003, 1.507139e-002
2.466509e+003, 1.500022e-002
2.468437e+003, 1.474698e-002
2.470366e+003, 1.479866e-002
2.472294e+003, 1.481711e-002
2.474223e+003, 1.460726e-002
2.476151e+003, 1.418044e-002
2.478080e+003, 1.422202e-002
2.480008e+003, 1.419920e-002
2.481937e+003, 1.400960e-002
2.483865e+003, 1.411146e-002
2.485793e+003, 1.457597e-002
2.487722e+003, 1.459672e-002
2.489650e+003, 1.443380e-002
2.491579e+003, 1.455534e-002
2.493507e+003, 1.443288e-002
2.495436e+003, 1.411118e-002
2.497364e+003, 1.438493e-002
2.499293e+003, 1.443406e-002
2.501221e+003, 1.408739e-002
2.503150e+003, 1.416581e-002
2.505078e+003, 1.434004e-002
2.507007e+003, 1.442440e-002
2.508935e+003, 1.422441e-002
2.510864e+003, 1.405793e-002
2.512792e+003, 1.393801e-002
2.514720e+003, 1.387309e-002
2.516649e+003, 1.397739e-002
2.518577e+003, 1.433598e-002
2.520506e+003, 1.424982e-002
2.522434e+003, 1.414489e-002
2.524363e+003, 1.430603e-002
2.526291e+003, 1.434851e-002
2.528220e+003, 1.442006e-002
2.530148e+003, 1.455253e-002
2.532077e+003, 1.404421e-002
2.534005e+003, 1.414335e-002
2.535934e+003, 1.463886e-002
2.537862e+003, 1.419631e-002
2.539791e+003, 1.370461e-002
2.541719e+003, 1.396242e-002
2.543647e+003, 1.445741e-002
2.545576e+003, 1.429961e-002
2.547504e+003, 1.413209e-002
2.549433e+003, 1.445906e-002
2.551361e+003, 1.447925e-002
2.553290e+003, 1.435640e-002
2.555218e+003, 1.436296e-002
2.557147e+003, 1.426617e-002
2.559075e+003, 1.416339e-002
2.561004e+003, 1.426422e-002
2.562932e+003, 1.465264e-002
2.564861e+003, 1.475916e-002
2.566789e+003, 1.463970e-002
2.568718e+003, 1.507360e-002
2.570646e+003, 1.482111e-002
2.572574e+003, 1.456267e-002
2.574503e+003, 1.488795e-002
2.576431e+003, 1.488068e-002
2.578360e+003, 1.454063e-002
2.580288e+003, 1.445252e-002
2.582217e+003, 1.460945e-002
2.584145e+003, 1.490007e-002
2.586074e+003, 1.495339e-002
2.588002e+003, 1.486113e-002
2.589931e+003, 1.520156e-002
2.591859e+003, 1.512505e-002
2.593788e+003, 1.469538e-002
2.595716e+003, 1.485253e-002
2.597645e+003, 1.559158e-002
2.599573e+003, 1.558700e-002
2.601501e+003, 1.504714e-002
2.603430e+003, 1.499797e-002
2.605358e+003, 1.531451e-002
2.607287e+003, 1.528539e-002
2.609215e+003, 1.524263e-002
2.611144e+003, 1.534466e-002
2.613072e+003, 1.500808e-002
2.615001e+003, 1.487859e-002
2.616929e+003, 1.525659e-002
2.618858e+003, 1.530327e-002
2.620786e+003, 1.522680e-002
2.622715e+003, 1.535673e-002
2.624643e+003, 1.540072e-002
2.626572e+003, 1.548446e-002
2.628500e+003, 1.548153e-002
2.630428e+003, 1.514936e-002
2.632357e+003, 1.483375e-002
2.634285e+003, 1.501741e-002
2.636214e+003, 1.562604e-002
2.638142e+003, 1.561966e-002
2.640071e+003, 1.558133e-002
2.641999e+003, 1.556627e-002
2.643928e+003, 1.572328e-002
2.645856e+003, 1.578603e-002
2.647785e+003, 1.573465e-002
2.649713e+003, 1.587260e-002
2.651642e+003, 1.597599e-002
2.653570e+003, 1.597067e-002
2.655499e+003, 1.596604e-002
2.657427e+003, 1.598657e-002
2.659355e+003, 1.586836e-002
2.661284e+003, 1.600557e-002
2.663212e+003, 1.603801e-002
2.665141e+003, 1.598668e-002
2.667069e+003, 1.589745e-002
2.668998e+003, 1.562719e-002
2.670926e+003, 1.573150e-002
2.672855e+003, 1.616208e-002
2.674783e+003, 1.633246e-002
2.676712e+003, 1.620708e-002
2.678640e+003, 1.648420e-002
2.680569e+003, 1.684826e-002
2.682497e+003, 1.672756e-002
2.684426e+003, 1.677098e-002
2.686354e+003, 1.676452e-002
2.688282e+003, 1.666099e-002
2.690211e+003, 1.676888e-002
2.692139e+003, 1.681845e-002
2.694068e+003, 1.705185e-002
2.695996e+003, 1.727518e-002
2.697925e+003, 1.738651e-002
2.699853e+003, 1.725005e-002
2.701782e+003, 1.745671e-002
2.703710e+003, 1.770069e-002
2.705639e+003, 1.796608e-002
2.707567e+003, 1.812747e-002
2.709496e+003, 1.822044e-002
2.711424e+003, 1.825977e-002
2.713353e+003, 1.867021e-002
2.715281e+003, 1.910493e-002
2.717209e+003, 1.892535e-002
2.719138e+003, 1.883945e-002
2.721066e+003, 1.921610e-002
2.722995e+003, 1.950266e-002
2.724923e+003, 1.966931e-002
2.726852e+003, 1.999433e-002
2.728780e+003, 2.006797e-002
2.730709e+003, 1.997320e-002
2.732637e+003, 2.027693e-002
2.734566e+003, 2.081736e-002
2.736494e+003, 2.101531e-002
2.738423e+003, 2.097444e-002
2.740351e+003, 2.106822e-002
2.742280e+003, 2.151291e-002
2.744208e+003, 2.174897e-002
2.746136e+003, 2.166297e-002
2.748065e+003, 2.203596e-002
2.749993e+003, 2.250882e-002
2.751922e+003, 2.242249e-002
2.753850e+003, 2.241236e-002
2.755779e+003, 2.271427e-002
2.757707e+003, 2.289929e-002
2.759636e+003, 2.321807e-002
2.761564e+003, 2.350496e-002
2.763493e+003, 2.381733e-002
2.765421e+003, 2.407287e-002
2.767350e+003, 2.415496e-002
2.769278e+003, 2.421018e-002
2.771207e+003, 2.459313e-002
2.773135e+003, 2.489444e-002
2.775063e+003, 2.501060e-002
2.776992e+003, 2.526624e-002
2.778920e+003, 2.559750e-002
2.780849e+003, 2.580361e-002
2.782777e+003, 2.606766e-002
2.784706e+003, 2.620745e-002
2.786634e+003, 2.615634e-002
2.788563e+003, 2.623459e-002
2.790491e+003, 2.664850e-002
2.792420e+003, 2.712212e-002
2.794348e+003, 2.727294e-002
2.796277e+003, 2.753579e-002
2.798205e+003, 2.754254e-002
2.800134e+003, 2.757633e-002
2.802062e+003, 2.809650e-002
2.803990e+003, 2.840624e-002
2.805919e+003, 2.846546e-002
2.807847e+003, 2.880410e-002
2.809776e+003, 2.909054e-002
2.811704e+003, 2.934018e-002
2.813633e+003, 2.960145e-002
2.815561e+003, 2.973825e-002
2.817490e+003, 2.976551e-002
2.819418e+003, 2.990238e-002
2.821347e+003, 3.039567e-002
2.823275e+003, 3.043428e-002
2.825204e+003, 3.040641e-002
2.827132e+003, 3.061914e-002
2.829061e+003, 3.102076e-002
2.830989e+003, 3.151415e-002
2.832917e+003, 3.154890e-002
2.834846e+003, 3.149888e-002
2.836774e+003, 3.145184e-002
2.838703e+003, 3.139362e-002
2.840631e+003, 3.120092e-002
2.842560e+003, 3.103471e-002
2.844488e+003, 3.074730e-002
2.846417e+003, 3.043828e-002
2.848345e+003, 2.987470e-002
2.850274e+003, 2.957115e-002
2.852202e+003, 2.959096e-002
2.854131e+003, 2.977118e-002
2.856059e+003, 3.046322e-002
2.857988e+003, 3.121053e-002
2.859916e+003, 3.212085e-002
2.861844e+003, 3.307605e-002
2.863773e+003, 3.362711e-002
2.865701e+003, 3.380604e-002
2.867630e+003, 3.430455e-002
2.869558e+003, 3.452829e-002
2.871487e+003, 3.469089e-002
2.873415e+003, 3.519053e-002
2.875344e+003, 3.599837e-002
2.877272e+003, 3.661218e-002
2.879201e+003, 3.692124e-002
2.881129e+003, 3.708049e-002
2.883058e+003, 3.719062e-002
2.884986e+003, 3.772372e-002
2.886915e+003, 3.833542e-002
2.888843e+003, 3.858775e-002
2.890771e+003, 3.868117e-002
2.892700e+003, 3.901887e-002
2.894628e+003, 3.938141e-002
2.896557e+003, 3.977262e-002
2.898485e+003, 3.994155e-002
2.900414e+003, 4.012417e-002
2.902342e+003, 4.023097e-002
2.904271e+003, 4.048385e-002
2.906199e+003, 4.093111e-002
2.908128e+003, 4.110898e-002
2.910056e+003, 4.125199e-002
2.911985e+003, 4.102854e-002
2.913913e+003, 4.051697e-002
2.915842e+003, 4.033551e-002
2.917770e+003, 4.049323e-002
2.919698e+003, 4.071888e-002
2.921627e+003, 4.120659e-002
2.923555e+003, 4.189831e-002
2.925484e+003, 4.273450e-002
2.927412e+003, 4.376411e-002
2.929341e+003, 4.495258e-002
2.931269e+003, 4.628373e-002
2.933198e+003, 4.736330e-002
2.935126e+003, 4.886886e-002
2.937055e+003, 5.055109e-002
2.938983e+003, 5.176539e-002
2.940912e+003, 5.268495e-002
2.942840e+003, 5.382594e-002
2.944769e+003, 5.509617e-002
2.946697e+003, 5.574370e-002
2.948625e+003, 5.637537e-002
2.950554e+003, 5.703539e-002
2.952482e+003, 5.798707e-002
2.954411e+003, 5.922905e-002
2.956339e+003, 6.012980e-002
2.958268e+003, 6.096483e-002
2.960196e+003, 6.209637e-002
2.962125e+003, 6.317347e-002
2.964053e+003, 6.432141e-002
2.965982e+003, 6.564535e-002
2.967910e+003, 6.675950e-002
2.969839e+003, 6.762890e-002
2.971767e+003, 6.834083e-002
2.973696e+003, 6.914888e-002
2.975624e+003, 6.991976e-002
2.977552e+003, 7.048121e-002
2.979481e+003, 7.094613e-002
2.981409e+003, 7.182902e-002
2.983338e+003, 7.266985e-002
2.985266e+003, 7.296500e-002
2.987195e+003, 7.326702e-002
2.989123e+003, 7.373137e-002
2.991052e+003, 7.409524e-002
2.992980e+003, 7.387962e-002
2.994909e+003, 7.375130e-002
2.996837e+003, 7.345067e-002
2.998766e+003, 7.296651e-002
3.000694e+003, 7.258888e-002
3.002623e+003, 7.214072e-002
3.004551e+003, 7.164447e-002
3.006479e+003, 7.107747e-002
3.008408e+003, 7.061393e-002
3.010336e+003, 7.027275e-002
3.012265e+003, 6.990730e-002
3.014193e+003, 6.946993e-002
3.016122e+003, 6.897377e-002
3.018050e+003, 6.808746e-002
3.019979e+003, 6.669505e-002
3.021907e+003, 6.596301e-002
3.023836e+003, 6.554899e-002
3.025764e+003, 6.497095e-002
3.027693e+003, 6.436197e-002
3.029621e+003, 6.375247e-002
3.031550e+003, 6.304352e-002
3.033478e+003, 6.265444e-002
3.035406e+003, 6.246015e-002
3.037335e+003, 6.190544e-002
3.039263e+003, 6.125722e-002
3.041192e+003, 6.104595e-002
3.043120e+003, 6.075882e-002
3.045049e+003, 6.042816e-002
3.046977e+003, 5.996232e-002
3.048906e+003, 5.962814e-002
3.050834e+003, 5.951846e-002
3.052763e+003, 5.956973e-002
3.054691e+003, 5.960577e-002
3.056620e+003, 5.944331e-002
3.058548e+003, 5.907253e-002
3.060477e+003, 5.882832e-002
3.062405e+003, 5.910416e-002
3.064333e+003, 5.916845e-002
3.066262e+003, 5.916893e-002
3.068190e+003, 5.930202e-002
3.070119e+003, 5.901781e-002
3.072047e+003, 5.901808e-002
3.073976e+003, 5.932450e-002
3.075904e+003, 5.939741e-002
3.077833e+003, 5.916046e-002
3.079761e+003, 5.945225e-002
3.081690e+003, 5.990064e-002
3.083618e+003, 6.007254e-002
3.085547e+003, 6.003741e-002
3.087475e+003, 6.010852e-002
3.089404e+003, 6.000679e-002
3.091332e+003, 6.045841e-002
3.093260e+003, 6.108336e-002
3.095189e+003, 6.136563e-002
3.097117e+003, 6.160657e-002
3.099046e+003, 6.202305e-002
3.100974e+003, 6.267216e-002
3.102903e+003, 6.335087e-002
3.104831e+003, 6.362706e-002
3.106760e+003, 6.387173e-002
3.108688e+003, 6.415904e-002
3.110617e+003, 6.476822e-002
3.112545e+003, 6.554259e-002
3.114474e+003, 6.572315e-002
3.116402e+003, 6.594598e-002
3.118331e+003, 6.637933e-002
3.120259e+003, 6.695144e-002
3.122188e+003, 6.752507e-002
3.124116e+003, 6.765502e-002
3.126044e+003, 6.799100e-002
3.127973e+003, 6.883658e-002
3.129901e+003, 6.956093e-002
3.131830e+003, 7.014977e-002
3.133758e+003, 7.079004e-002
3.135687e+003, 7.140601e-002
3.137615e+003, 7.196320e-002
3.139544e+003, 7.251320e-002
3.141472e+003, 7.314330e-002
3.143401e+003, 7.351153e-002
3.145329e+003, 7.413923e-002
3.147258e+003, 7.489356e-002
3.149186e+003, 7.548550e-002
3.151115e+003, 7.617346e-002
3.153043e+003, 7.725773e-002
3.154971e+003, 7.801481e-002
3.156900e+003, 7.894407e-002
3.158828e+003, 7.943495e-002
3.160757e+003, 8.034030e-002
3.162685e+003, 8.127682e-002
3.164614e+003, 8.187182e-002
3.166542e+003, 8.255071e-002
3.168471e+003, 8.299490e-002
3.170399e+003, 8.380537e-002
3.172328e+003, 8.493777e-002
3.174256e+003, 8.573417e-002
3.176185e+003, 8.645155e-002
3.178113e+003, 8.773740e-002
3.180042e+003, 8.868728e-002
3.181970e+003, 8.955716e-002
3.183898e+003, 9.076215e-002
3.185827e+003, 9.172472e-002
3.187755e+003, 9.272963e-002
3.189684e+003, 9.390496e-002
3.191612e+003, 9.471371e-002
3.193541e+003, 9.564373e-002
3.195469e+003, 9.719309e-002
3.197398e+003, 9.861493e-002
3.199326e+003, 9.980237e-002
3.201255e+003, 1.014255e-001
3.203183e+003, 1.029294e-001
3.205112e+003, 1.039676e-001
3.207040e+003, 1.049735e-001
3.208969e+003, 1.062823e-001
3.210897e+003, 1.080172e-001
3.212825e+003, 1.095271e-001
3.214754e+003, 1.108164e-001
3.216682e+003, 1.128258e-001
3.218611e+003, 1.150618e-001
3.220539e+003, 1.166739e-001
3.222468e+003, 1.183275e-001
3.224396e+003, 1.203543e-001
3.226325e+003, 1.220472e-001
3.228253e+003, 1.236989e-001
3.230182e+003, 1.259644e-001
3.232110e+003, 1.283816e-001
3.234039e+003, 1.301733e-001
3.235967e+003, 1.320166e-001
3.237896e+003, 1.340968e-001
3.239824e+003, 1.367423e-001
3.241752e+003, 1.394637e-001
3.243681e+003, 1.416373e-001
3.245609e+003, 1.437671e-001
3.247538e+003, 1.458970e-001
3.249466e+003, 1.479925e-001
3.251395e+003, 1.503554e-001
3.253323e+003, 1.523660e-001
3.255252e+003, 1.544940e-001
3.257180e+003, 1.560711e-001
3.259109e+003, 1.569867e-001
3.261037e+003, 1.580808e-001
3.262966e+003, 1.595744e-001
3.264894e+003, 1.607373e-001
3.266823e+003, 1.615585e-001
3.268751e+003, 1.624398e-001
3.270679e+003, 1.632193e-001
3.272608e+003, 1.633169e-001
3.274536e+003, 1.631512e-001
3.276465e+003, 1.635361e-001
3.278393e+003, 1.641025e-001
3.280322e+003, 1.641738e-001
3.282250e+003, 1.641791e-001
3.284179e+003, 1.641013e-001
3.286107e+003, 1.638662e-001
3.288036e+003, 1.637065e-001
3.289964e+003, 1.635563e-001
3.291893e+003, 1.637072e-001
3.293821e+003, 1.634669e-001
3.295750e+003, 1.628935e-001
3.297678e+003, 1.623539e-001
3.299606e+003, 1.616139e-001
3.301535e+003, 1.609117e-001
3.303463e+003, 1.599022e-001
3.305392e+003, 1.587949e-001
3.307320e+003, 1.571276e-001
3.309249e+003, 1.556491e-001
3.311177e+003, 1.550464e-001
3.313106e+003, 1.540902e-001
3.315034e+003, 1.527688e-001
3.316963e+003, 1.516574e-001
3.318891e+003, 1.503850e-001
3.320820e+003, 1.490271e-001
3.322748e+003, 1.478038e-001
3.324677e+003, 1.468279e-001
3.326605e+003, 1.454570e-001
3.328533e+003, 1.441062e-001
3.330462e+003, 1.431003e-001
3.332390e+003, 1.412152e-001
3.334319e+003, 1.398112e-001
3.336247e+003, 1.390123e-001
3.338176e+003, 1.379686e-001
3.340104e+003, 1.362945e-001
3.342033e+003, 1.347536e-001
3.343961e+003, 1.336659e-001
3.345890e+003, 1.326236e-001
3.347818e+003, 1.312251e-001
3.349747e+003, 1.295167e-001
3.351675e+003, 1.276039e-001
3.353604e+003, 1.258187e-001
3.355532e+003, 1.245091e-001
3.357460e+003, 1.231887e-001
3.359389e+003, 1.210244e-001
3.361317e+003, 1.187367e-001
3.363246e+003, 1.171587e-001
3.365174e+003, 1.158062e-001
3.367103e+003, 1.138251e-001
3.369031e+003, 1.121203e-001
3.370960e+003, 1.108362e-001
3.372888e+003, 1.095732e-001
3.374817e+003, 1.082568e-001
3.376745e+003, 1.068347e-001
3.378674e+003, 1.052579e-001
3.380602e+003, 1.037925e-001
3.382531e+003, 1.023289e-001
3.384459e+003, 1.016742e-001
3.386387e+003, 1.012257e-001
3.388316e+003, 1.002605e-001
3.390244e+003, 9.919091e-002
3.392173e+003, 9.872960e-002
3.394101e+003, 9.805427e-002
3.396030e+003, 9.731682e-002
3.397958e+003, 9.740961e-002
3.399887e+003, 9.706421e-002
3.401815e+003, 9.739531e-002
3.403744e+003, 9.756835e-002
3.405672e+003, 9.733856e-002
3.407601e+003, 9.743638e-002
3.409529e+003, 9.732960e-002
3.411458e+003, 9.670977e-002
3.413386e+003, 9.586517e-002
3.415314e+003, 9.568707e-002
3.417243e+003, 9.578881e-002
3.419171e+003, 9.558815e-002
3.421100e+003, 9.486795e-002
3.423028e+003, 9.334457e-002
3.424957e+003, 9.208278e-002
3.426885e+003, 9.063918e-002
3.428814e+003, 8.864726e-002
3.430742e+003, 8.672079e-002
3.432671e+003, 8.535924e-002
3.434599e+003, 8.358825e-002
3.436528e+003, 8.158076e-002
3.438456e+003, 8.005452e-002
3.440385e+003, 7.839939e-002
3.442313e+003, 7.715147e-002
3.444241e+003, 7.585665e-002
3.446170e+003, 7.395676e-002
3.448098e+003, 7.192846e-002
3.450027e+003, 6.954550e-002
3.451955e+003, 6.773789e-002
3.453884e+003, 6.631741e-002
3.455812e+003, 6.440862e-002
3.457741e+003, 6.260169e-002
3.459669e+003, 6.111812e-002
3.461598e+003, 6.037782e-002
3.463526e+003, 5.902036e-002
3.465455e+003, 5.766667e-002
3.467383e+003, 5.665733e-002
3.469312e+003, 5.512390e-002
3.471240e+003, 5.391455e-002
3.473168e+003, 5.290077e-002
3.475097e+003, 5.156030e-002
3.477025e+003, 5.093863e-002
3.478954e+003, 5.036503e-002
3.480882e+003, 4.974677e-002
3.482811e+003, 4.887503e-002
3.484739e+003, 4.787743e-002
3.486668e+003, 4.770743e-002
3.488596e+003, 4.741260e-002
3.490525e+003, 4.684609e-002
3.492453e+003, 4.585055e-002
3.494382e+003, 4.502595e-002
3.496310e+003, 4.462734e-002
3.498239e+003, 4.413220e-002
3.500167e+003, 4.365301e-002
3.502095e+003, 4.336147e-002
3.504024e+003, 4.321381e-002
3.505952e+003, 4.256990e-002
3.507881e+003, 4.176882e-002
3.509809e+003, 4.125388e-002
3.511738e+003, 4.114553e-002
3.513666e+003, 4.143427e-002
3.515595e+003, 4.158676e-002
3.517523e+003, 4.219799e-002
3.519452e+003, 4.319774e-002
3.521380e+003, 4.379390e-002
3.523309e+003, 4.461541e-002
3.525237e+003, 4.659304e-002
3.527166e+003, 4.913948e-002
3.529094e+003, 5.260855e-002
3.531022e+003, 5.676317e-002
3.532951e+003, 6.117827e-002
3.534879e+003, 6.644340e-002
3.536808e+003, 7.219797e-002
3.538736e+003, 7.821403e-002
3.540665e+003, 8.473368e-002
3.542593e+003, 9.051325e-002
3.544522e+003, 9.403346e-002
3.546450e+003, 9.477403e-002
3.548379e+003, 9.334238e-002
3.550307e+003, 9.018018e-002
3.552236e+003, 8.491445e-002
3.554164e+003, 7.848266e-002
3.556093e+003, 7.036754e-002
3.558021e+003, 6.171251e-002
3.559949e+003, 5.408024e-002
3.561878e+003, 4.763307e-002
3.563806e+003, 4.237138e-002
3.565735e+003, 3.696866e-002
3.567663e+003, 3.283231e-002
3.569592e+003, 3.066449e-002
3.571520e+003, 2.929938e-002
3.573449e+003, 2.730738e-002
3.575377e+003, 2.503455e-002
3.577306e+003, 2.420869e-002
3.579234e+003, 2.401891e-002
3.581163e+003, 2.346256e-002
3.583091e+003, 2.220259e-002
3.585020e+003, 2.036209e-002
3.586948e+003, 1.920330e-002
3.588876e+003, 1.907903e-002
3.590805e+003, 1.829986e-002
3.592733e+003, 1.687703e-002
3.594662e+003, 1.694183e-002
3.596590e+003, 1.736395e-002
3.598519e+003, 1.695145e-002
3.600447e+003, 1.633789e-002
3.602376e+003, 1.575839e-002
3.604304e+003, 1.509962e-002
3.606233e+003, 1.353995e-002
3.608161e+003, 1.286456e-002
3.610090e+003, 1.348530e-002
3.612018e+003, 1.396264e-002
3.613947e+003, 1.369961e-002
3.615875e+003, 1.234760e-002
3.617803e+003, 1.129340e-002
3.619732e+003, 1.168035e-002
3.621660e+003, 1.245844e-002
3.623589e+003, 1.235011e-002
3.625517e+003, 1.174392e-002
3.627446e+003, 1.073066e-002
3.629374e+003, 9.825276e-003
3.631303e+003, 1.060422e-002
3.633231e+003, 1.120418e-002
3.635160e+003, 1.106227e-002
3.637088e+003, 1.028180e-002
3.639017e+003, 1.015218e-002
3.640945e+003, 9.662261e-003
3.642874e+003, 9.700776e-003
3.644802e+003, 9.693031e-003
3.646730e+003, 8.755885e-003
3.648659e+003, 8.133727e-003
3.650587e+003, 8.624912e-003
3.652516e+003, 9.905582e-003
3.654444e+003, 1.002913e-002
3.656373e+003, 9.383875e-003
3.658301e+003, 8.776475e-003
3.660230e+003, 8.243759e-003
3.662158e+003, 8.617356e-003
3.664087e+003, 9.166278e-003
3.666015e+003, 9.188207e-003
3.667944e+003, 8.904343e-003
3.669872e+003, 8.566312e-003
3.671801e+003, 8.464646e-003
3.673729e+003, 8.196712e-003
3.675657e+003, 7.899530e-003
3.677586e+003, 9.103477e-003
3.679514e+003, 9.800066e-003
3.681443e+003, 1.005559e-002
3.683371e+003, 9.738750e-003
3.685300e+003, 9.561789e-003
3.687228e+003, 8.354181e-003
3.689157e+003, 7.593338e-003
3.691085e+003, 8.335751e-003
3.693014e+003, 9.047156e-003
3.694942e+003, 9.429044e-003
3.696871e+003, 9.623727e-003
3.698799e+003, 9.317955e-003
3.700728e+003, 9.201951e-003
3.702656e+003, 1.007514e-002
3.704584e+003, 1.053513e-002
3.706513e+003, 9.738403e-003
3.708441e+003, 9.240534e-003
3.710370e+003, 8.956280e-003
3.712298e+003, 9.438939e-003
3.714227e+003, 1.003901e-002
3.716155e+003, 9.510054e-003
3.718084e+003, 9.310158e-003
3.720012e+003, 9.251266e-003
3.721941e+003, 9.175444e-003
3.723869e+003, 9.307396e-003
3.725798e+003, 1.022060e-002
3.727726e+003, 1.052721e-002
3.729655e+003, 9.885740e-003
3.731583e+003, 9.484117e-003
3.733511e+003, 9.495613e-003
3.735440e+003, 9.171007e-003
3.737368e+003, 9.343377e-003
3.739297e+003, 9.548464e-003
3.741225e+003, 9.153796e-003
3.743154e+003, 7.948868e-003
3.745082e+003, 7.714559e-003
3.747011e+003, 8.290832e-003
3.748939e+003, 7.773052e-003
3.750868e+003, 8.223793e-003
3.752796e+003, 8.783128e-003
3.754725e+003, 9.549065e-003
3.756653e+003, 9.662901e-003
3.758582e+003, 9.270281e-003
3.760510e+003, 9.830007e-003
3.762438e+003, 1.069225e-002
3.764367e+003, 1.007250e-002
3.766295e+003, 9.779847e-003
3.768224e+003, 9.595328e-003
3.770152e+003, 9.333369e-003
3.772081e+003, 9.926897e-003
3.774009e+003, 1.069543e-002
3.775938e+003, 1.073691e-002
3.777866e+003, 1.044506e-002
3.779795e+003, 1.075292e-002
3.781723e+003, 1.146588e-002
3.783652e+003, 1.176527e-002
3.785580e+003, 1.175523e-002
3.787509e+003, 1.150389e-002
3.789437e+003, 1.171890e-002
3.791365e+003, 1.138595e-002
3.793294e+003, 1.015546e-002
3.795222e+003, 1.023098e-002
3.797151e+003, 1.077266e-002
3.799079e+003, 1.029686e-002
3.801008e+003, 9.465613e-003
3.802936e+003, 1.044070e-002
3.804865e+003, 1.156943e-002
3.806793e+003, 1.070493e-002
3.808722e+003, 1.007500e-002
3.810650e+003, 1.051652e-002
3.812579e+003, 1.041035e-002
3.814507e+003, 9.637159e-003
3.816436e+003, 9.428362e-003
3.818364e+003, 1.003852e-002
3.820292e+003, 1.030799e-002
3.822221e+003, 1.083869e-002
3.824149e+003, 1.122950e-002
3.826078e+003, 1.057530e-002
3.828006e+003, 1.046498e-002
3.829935e+003, 1.146676e-002
3.831863e+003, 1.210446e-002
3.833792e+003, 1.176190e-002
3.835720e+003, 1.103138e-002
3.837649e+003, 9.964745e-003
3.839577e+003, 9.849195e-003
3.841506e+003, 1.068148e-002
3.843434e+003, 1.073196e-002
3.845363e+003, 1.074670e-002
3.847291e+003, 1.166596e-002
3.849219e+003, 1.147352e-002
3.851148e+003, 9.724082e-003
3.853076e+003, 8.331381e-003
3.855005e+003, 9.215884e-003
3.856933e+003, 1.110693e-002
3.858862e+003, 1.206636e-002
3.860790e+003, 1.172789e-002
3.862719e+003, 1.137136e-002
3.864647e+003, 1.059440e-002
3.866576e+003, 1.030886e-002
3.868504e+003, 9.961437e-003
3.870433e+003, 9.695641e-003
3.872361e+003, 1.127613e-002
3.874290e+003, 1.221249e-002
3.876218e+003, 1.204923e-002
3.878146e+003, 1.175499e-002
3.880075e+003, 1.179113e-002
3.882003e+003, 1.148939e-002
3.883932e+003, 1.063587e-002
3.885860e+003, 1.069998e-002
3.887789e+003, 1.156073e-002
3.889717e+003, 1.108029e-002
3.891646e+003, 1.078144e-002
3.893574e+003, 1.142375e-002
3.895503e+003, 1.138263e-002
3.897431e+003, 1.118026e-002
3.899360e+003, 1.124874e-002
3.901288e+003, 1.142061e-002
3.903217e+003, 1.191525e-002
3.905145e+003, 1.153013e-002
3.907073e+003, 1.158079e-002
3.909002e+003, 1.194282e-002
3.910930e+003, 1.192561e-002
3.912859e+003, 1.212670e-002
3.914787e+003, 1.228292e-002
3.916716e+003, 1.184419e-002
3.918644e+003, 1.173249e-002
3.920573e+003, 1.165782e-002
3.922501e+003, 1.183826e-002
3.924430e+003, 1.183544e-002
3.926358e+003, 1.210197e-002
3.928287e+003, 1.226811e-002
3.930215e+003, 1.283915e-002
3.932144e+003, 1.304250e-002
3.934072e+003, 1.359120e-002
3.936000e+003, 1.313257e-002
3.937929e+003, 1.183437e-002
3.939857e+003, 1.195401e-002
3.941786e+003, 1.232158e-002
3.943714e+003, 1.278293e-002
3.945643e+003, 1.281131e-002
3.947571e+003, 1.203747e-002
3.949500e+003, 1.215801e-002
3.951428e+003, 1.311992e-002
3.953357e+003, 1.347391e-002
3.955285e+003, 1.273527e-002
3.957214e+003, 1.211019e-002
3.959142e+003, 1.199746e-002
3.961071e+003, 1.300514e-002
3.962999e+003, 1.303780e-002
3.964927e+003, 1.242991e-002
3.966856e+003, 1.258093e-002
3.968784e+003, 1.344365e-002
3.970713e+003, 1.378171e-002
3.972641e+003, 1.363967e-002
3.974570e+003, 1.339901e-002
3.976498e+003, 1.316572e-002
3.978427e+003, 1.257235e-002
3.980355e+003, 1.222656e-002
3.982284e+003, 1.270323e-002
3.984212e+003, 1.289438e-002
3.986141e+003, 1.311593e-002
3.988069e+003, 1.312388e-002
3.989998e+003, 1.306668e-002
3.991926e+003, 1.324786e-002
3.993854e+003, 1.317945e-002
3.995783e+003, 1.350388e-002
3.997711e+003, 1.316762e-002
3.999640e+003, 1.293296e-002
##END=



