##NAMES=Kornerupine
##RRUFFID=R050214
##IDEAL CHEMISTRY=(Mg,Fe^2+^,Al,[box])_10_(Si,Al,B)_5_O_21_(OH,F)_2_
##LOCALITY=Sri Lanka
##OWNER=RRUFF
##SOURCE=Jibamitra Ganguly
##DESCRIPTION=Water-worn single crystal fragment
##STATUS=The identification of this mineral has been confirmed by X-ray diffraction and chemical analysis
##URL=rruff.info/R050214
##MEASURED CHEMISTRY=(Mg_3.63_[box]_0.21_Fe^2+^_0.14_Na_0.02_)_4_Al_6.00_(Si_2.44_Al_1.97_B_0.59_)_5_O_21_(OH) ;   B and Li not measured; B estimated by charge balance
5.014013e+001, 1.165119e-002
5.206860e+001, 1.334101e-002
5.399707e+001, 1.163963e-002
5.592553e+001, 1.852837e-002
5.785400e+001, 2.915689e-002
5.978246e+001, 3.209152e-002
6.171093e+001, 2.644473e-002
6.363940e+001, 2.705434e-002
6.556786e+001, 2.650648e-002
6.749633e+001, 2.299318e-002
6.942480e+001, 2.243299e-002
7.135326e+001, 2.556305e-002
7.328172e+001, 2.896709e-002
7.521019e+001, 2.897783e-002
7.713866e+001, 3.131551e-002
7.906712e+001, 3.519283e-002
8.099559e+001, 3.501757e-002
8.292406e+001, 3.525962e-002
8.485252e+001, 3.594154e-002
8.678099e+001, 3.570096e-002
8.870946e+001, 3.553531e-002
9.063792e+001, 3.487439e-002
9.256638e+001, 3.429135e-002
9.449485e+001, 3.529237e-002
9.642332e+001, 3.742750e-002
9.835178e+001, 3.757861e-002
1.002803e+002, 3.648519e-002
1.022087e+002, 3.748417e-002
1.041372e+002, 3.850866e-002
1.060657e+002, 3.967747e-002
1.079941e+002, 4.004978e-002
1.099226e+002, 3.968236e-002
1.118510e+002, 4.020758e-002
1.137795e+002, 4.116387e-002
1.157080e+002, 4.201751e-002
1.176364e+002, 4.387269e-002
1.195649e+002, 4.510799e-002
1.214934e+002, 4.595939e-002
1.234218e+002, 4.652471e-002
1.253503e+002, 4.764577e-002
1.272788e+002, 4.862680e-002
1.292072e+002, 5.022090e-002
1.311357e+002, 5.142249e-002
1.330642e+002, 5.242973e-002
1.349926e+002, 5.329600e-002
1.369211e+002, 5.520374e-002
1.388496e+002, 5.544683e-002
1.407780e+002, 5.638208e-002
1.427065e+002, 5.817933e-002
1.446350e+002, 5.936753e-002
1.465634e+002, 5.931378e-002
1.484919e+002, 6.050900e-002
1.504204e+002, 6.221822e-002
1.523488e+002, 6.286526e-002
1.542773e+002, 6.289922e-002
1.562058e+002, 6.453253e-002
1.581342e+002, 6.649823e-002
1.600627e+002, 6.794906e-002
1.619912e+002, 6.875119e-002
1.639196e+002, 6.987469e-002
1.658481e+002, 7.059924e-002
1.677766e+002, 7.156710e-002
1.697050e+002, 7.275336e-002
1.716335e+002, 7.429987e-002
1.735620e+002, 7.394969e-002
1.754904e+002, 7.377367e-002
1.774189e+002, 7.433551e-002
1.793474e+002, 7.448608e-002
1.812758e+002, 7.311147e-002
1.832043e+002, 7.197485e-002
1.851328e+002, 7.154065e-002
1.870612e+002, 7.187831e-002
1.889897e+002, 7.202221e-002
1.909182e+002, 7.247387e-002
1.928466e+002, 7.347611e-002
1.947751e+002, 7.423530e-002
1.967036e+002, 7.464445e-002
1.986320e+002, 7.572607e-002
2.005605e+002, 7.679943e-002
2.024890e+002, 7.780046e-002
2.044174e+002, 7.803462e-002
2.063459e+002, 7.836471e-002
2.082744e+002, 7.836476e-002
2.102028e+002, 7.806336e-002
2.121313e+002, 7.756176e-002
2.140598e+002, 7.727026e-002
2.159882e+002, 7.701799e-002
2.179167e+002, 7.736492e-002
2.198452e+002, 7.733867e-002
2.217736e+002, 7.719383e-002
2.237021e+002, 7.740434e-002
2.256305e+002, 7.834152e-002
2.275590e+002, 7.894427e-002
2.294875e+002, 7.971630e-002
2.314159e+002, 8.073325e-002
2.333444e+002, 8.119726e-002
2.352729e+002, 8.123973e-002
2.372013e+002, 8.211211e-002
2.391298e+002, 8.368411e-002
2.410583e+002, 8.493052e-002
2.429867e+002, 8.591493e-002
2.449152e+002, 8.707687e-002
2.468437e+002, 8.812591e-002
2.487721e+002, 8.884695e-002
2.507006e+002, 8.930485e-002
2.526291e+002, 9.007522e-002
2.545575e+002, 9.040533e-002
2.564860e+002, 9.030915e-002
2.584145e+002, 8.989549e-002
2.603429e+002, 8.983009e-002
2.622714e+002, 8.973625e-002
2.641999e+002, 8.956069e-002
2.661283e+002, 8.993417e-002
2.680568e+002, 9.122242e-002
2.699853e+002, 9.209870e-002
2.719137e+002, 9.283776e-002
2.738422e+002, 9.360847e-002
2.757707e+002, 9.453820e-002
2.776991e+002, 9.530328e-002
2.796276e+002, 9.627978e-002
2.815561e+002, 9.729654e-002
2.834845e+002, 9.815198e-002
2.854130e+002, 9.872282e-002
2.873415e+002, 9.950764e-002
2.892699e+002, 1.004113e-001
2.911984e+002, 1.013275e-001
2.931269e+002, 1.021705e-001
2.950553e+002, 1.030234e-001
2.969838e+002, 1.035171e-001
2.989123e+002, 1.045895e-001
3.008407e+002, 1.052914e-001
3.027692e+002, 1.058983e-001
3.046977e+002, 1.064933e-001
3.066261e+002, 1.075368e-001
3.085546e+002, 1.086334e-001
3.104831e+002, 1.093254e-001
3.124115e+002, 1.094896e-001
3.143400e+002, 1.097778e-001
3.162685e+002, 1.098926e-001
3.181969e+002, 1.102842e-001
3.201254e+002, 1.108021e-001
3.220539e+002, 1.114054e-001
3.239823e+002, 1.115714e-001
3.259108e+002, 1.119881e-001
3.278392e+002, 1.124606e-001
3.297677e+002, 1.126560e-001
3.316962e+002, 1.128189e-001
3.336246e+002, 1.135736e-001
3.355531e+002, 1.142234e-001
3.374816e+002, 1.147329e-001
3.394100e+002, 1.149658e-001
3.413385e+002, 1.153112e-001
3.432670e+002, 1.159298e-001
3.451954e+002, 1.165179e-001
3.471239e+002, 1.169107e-001
3.490524e+002, 1.177040e-001
3.509808e+002, 1.184512e-001
3.529093e+002, 1.192726e-001
3.548378e+002, 1.197603e-001
3.567662e+002, 1.202169e-001
3.586947e+002, 1.213546e-001
3.606232e+002, 1.222673e-001
3.625516e+002, 1.228347e-001
3.644801e+002, 1.234710e-001
3.664086e+002, 1.239002e-001
3.683370e+002, 1.242930e-001
3.702655e+002, 1.249355e-001
3.721940e+002, 1.255635e-001
3.741224e+002, 1.263509e-001
3.760509e+002, 1.272629e-001
3.779794e+002, 1.277279e-001
3.799078e+002, 1.284308e-001
3.818363e+002, 1.288725e-001
3.837648e+002, 1.291692e-001
3.856932e+002, 1.291433e-001
3.876217e+002, 1.290075e-001
3.895502e+002, 1.286324e-001
3.914786e+002, 1.281128e-001
3.934071e+002, 1.272261e-001
3.953356e+002, 1.263048e-001
3.972640e+002, 1.255903e-001
3.991925e+002, 1.251559e-001
4.011210e+002, 1.244535e-001
4.030494e+002, 1.242012e-001
4.049779e+002, 1.239825e-001
4.069064e+002, 1.236149e-001
4.088348e+002, 1.227264e-001
4.107633e+002, 1.215960e-001
4.126917e+002, 1.204150e-001
4.146202e+002, 1.194693e-001
4.165487e+002, 1.189471e-001
4.184771e+002, 1.180445e-001
4.204056e+002, 1.169270e-001
4.223341e+002, 1.164852e-001
4.242625e+002, 1.163696e-001
4.261910e+002, 1.162438e-001
4.281195e+002, 1.161890e-001
4.300479e+002, 1.166601e-001
4.319764e+002, 1.171353e-001
4.339049e+002, 1.177467e-001
4.358333e+002, 1.183661e-001
4.377618e+002, 1.186717e-001
4.396903e+002, 1.188465e-001
4.416187e+002, 1.191816e-001
4.435472e+002, 1.194994e-001
4.454757e+002, 1.194891e-001
4.474041e+002, 1.197540e-001
4.493326e+002, 1.203246e-001
4.512611e+002, 1.203426e-001
4.531895e+002, 1.198245e-001
4.551180e+002, 1.191624e-001
4.570465e+002, 1.182954e-001
4.589749e+002, 1.174080e-001
4.609034e+002, 1.165912e-001
4.628319e+002, 1.155187e-001
4.647603e+002, 1.147419e-001
4.666888e+002, 1.148009e-001
4.686173e+002, 1.150110e-001
4.705457e+002, 1.151138e-001
4.724742e+002, 1.153104e-001
4.744027e+002, 1.161268e-001
4.763311e+002, 1.172535e-001
4.782596e+002, 1.183528e-001
4.801881e+002, 1.192321e-001
4.821165e+002, 1.191660e-001
4.840450e+002, 1.185654e-001
4.859735e+002, 1.179152e-001
4.879019e+002, 1.164925e-001
4.898304e+002, 1.147508e-001
4.917589e+002, 1.131456e-001
4.936873e+002, 1.110582e-001
4.956158e+002, 1.093806e-001
4.975443e+002, 1.085339e-001
4.994727e+002, 1.079336e-001
5.014012e+002, 1.072660e-001
5.033297e+002, 1.068968e-001
5.052581e+002, 1.074372e-001
5.071866e+002, 1.079340e-001
5.091151e+002, 1.075298e-001
5.110435e+002, 1.070344e-001
5.129720e+002, 1.065713e-001
5.149005e+002, 1.058256e-001
5.168289e+002, 1.045849e-001
5.187574e+002, 1.029964e-001
5.206859e+002, 1.011422e-001
5.226143e+002, 9.939904e-002
5.245428e+002, 9.760855e-002
5.264713e+002, 9.571940e-002
5.283997e+002, 9.362558e-002
5.303282e+002, 9.221991e-002
5.322567e+002, 9.146170e-002
5.341851e+002, 9.136601e-002
5.361136e+002, 9.210053e-002
5.380421e+002, 9.279287e-002
5.399705e+002, 9.316646e-002
5.418990e+002, 9.443181e-002
5.438275e+002, 9.567571e-002
5.457559e+002, 9.627891e-002
5.476844e+002, 9.691829e-002
5.496129e+002, 9.723350e-002
5.515413e+002, 9.754850e-002
5.534698e+002, 9.833200e-002
5.553983e+002, 9.921931e-002
5.573267e+002, 1.002019e-001
5.592552e+002, 1.013715e-001
5.611837e+002, 1.025795e-001
5.631121e+002, 1.037985e-001
5.650406e+002, 1.049257e-001
5.669691e+002, 1.065763e-001
5.688975e+002, 1.084220e-001
5.708260e+002, 1.099515e-001
5.727545e+002, 1.109216e-001
5.746829e+002, 1.113643e-001
5.766114e+002, 1.118166e-001
5.785399e+002, 1.119544e-001
5.804683e+002, 1.117181e-001
5.823968e+002, 1.118919e-001
5.843253e+002, 1.121337e-001
5.862537e+002, 1.125700e-001
5.881822e+002, 1.130033e-001
5.901107e+002, 1.133260e-001
5.920391e+002, 1.137830e-001
5.939676e+002, 1.143167e-001
5.958961e+002, 1.148989e-001
5.978245e+002, 1.149005e-001
5.997530e+002, 1.149880e-001
6.016815e+002, 1.152085e-001
6.036099e+002, 1.150369e-001
6.055384e+002, 1.146792e-001
6.074669e+002, 1.152074e-001
6.093953e+002, 1.157155e-001
6.113238e+002, 1.159362e-001
6.132523e+002, 1.160122e-001
6.151807e+002, 1.158118e-001
6.171091e+002, 1.154980e-001
6.190376e+002, 1.145610e-001
6.209661e+002, 1.135629e-001
6.228945e+002, 1.133871e-001
6.248230e+002, 1.135863e-001
6.267515e+002, 1.142223e-001
6.286799e+002, 1.151651e-001
6.306084e+002, 1.154710e-001
6.325369e+002, 1.155660e-001
6.344653e+002, 1.158171e-001
6.363938e+002, 1.158069e-001
6.383223e+002, 1.158588e-001
6.402507e+002, 1.158125e-001
6.421792e+002, 1.154778e-001
6.441077e+002, 1.150107e-001
6.460361e+002, 1.141602e-001
6.479646e+002, 1.129226e-001
6.498931e+002, 1.118101e-001
6.518215e+002, 1.107568e-001
6.537500e+002, 1.094651e-001
6.556785e+002, 1.078738e-001
6.576069e+002, 1.060909e-001
6.595354e+002, 1.042801e-001
6.614639e+002, 1.022460e-001
6.633923e+002, 1.000834e-001
6.653208e+002, 9.773342e-002
6.672493e+002, 9.489110e-002
6.691777e+002, 9.254668e-002
6.711062e+002, 9.057099e-002
6.730347e+002, 8.913741e-002
6.749631e+002, 8.798848e-002
6.768916e+002, 8.721886e-002
6.788201e+002, 8.744711e-002
6.807485e+002, 8.893785e-002
6.826770e+002, 9.083318e-002
6.846055e+002, 9.223322e-002
6.865339e+002, 9.412824e-002
6.884624e+002, 9.711474e-002
6.903909e+002, 1.005195e-001
6.923193e+002, 1.048299e-001
6.942478e+002, 1.091123e-001
6.961763e+002, 1.132877e-001
6.981047e+002, 1.182251e-001
7.000332e+002, 1.219725e-001
##END=



