##NAMES=Kovdorskite
##RRUFFID=R050505
##IDEAL CHEMISTRY=Mg_2_PO_4_(OH)&#183;3H_2_O
##LOCALITY=Kovdor Massif, Kola Peninsula, Russia
##OWNER=RRUFF
##SOURCE=Bob Downs
##DESCRIPTION=Colorless prismatic crystals, slightly pink in color when viewed in bulk. This sample was used in the structural study by Morrison et al (2012)
##STATUS=The identification of this mineral has been confirmed by X-ray diffraction and chemical analysis
##URL=rruff.info/R050505
##MEASURED CHEMISTRY=Mg_2.00_P_1.00_O_4_(OH)Â·2.67H_2_O ; trace amounts of Mn; H_2_O estimated by difference
399.1926, 0.1617939
401.1211, 0.1890862
403.0496, 0.1899953
404.9780, 0.1948571
406.9065, 0.1990387
408.8350, 0.2045594
410.7634, 0.2110335
412.6919, 0.2183545
414.6204, 0.2213412
416.5488, 0.2202347
418.4773, 0.2181985
420.4058, 0.2118328
422.3342, 0.2028951
424.2627, 0.1898771
426.1912, 0.1786731
428.1196, 0.1701128
430.0481, 0.1614524
431.9766, 0.1545010
433.9050, 0.1515625
435.8335, 0.1526142
437.7620, 0.1566114
439.6904, 0.1658951
441.6189, 0.1790351
443.5474, 0.1930509
445.4758, 0.2070523
447.4043, 0.2165173
449.3328, 0.2156760
451.2612, 0.2085624
453.1897, 0.1977600
455.1182, 0.1861431
457.0466, 0.1731443
458.9751, 0.1635562
460.9036, 0.1551084
462.8320, 0.1458619
464.7605, 0.1369509
466.6890, 0.1290682
468.6174, 0.1221584
470.5459, 0.1167616
472.4744, 0.1127547
474.4028, 0.1109480
476.3313, 0.1111733
478.2598, 0.1124528
480.1882, 0.1136666
482.1167, 0.1136011
484.0452, 0.1121641
485.9736, 0.1096898
487.9021, 0.1069242
489.8306, 0.1043108
491.7590, 0.1015953
493.6875, 9.8846488E-02
495.6160, 9.6087649E-02
497.5444, 9.4284780E-02
499.4729, 9.4101988E-02
501.4014, 9.4404019E-02
503.3298, 9.6728168E-02
505.2583, 9.9898197E-02
507.1868, 0.1030123
509.1152, 0.1073706
511.0437, 0.1124858
512.9722, 0.1192799
514.9006, 0.1261135
516.8291, 0.1331605
518.7576, 0.1409729
520.6860, 0.1468719
522.6145, 0.1514297
524.5430, 0.1542861
526.4714, 0.1562562
528.3999, 0.1588929
530.3284, 0.1616904
532.2568, 0.1658449
534.1853, 0.1726744
536.1138, 0.1789659
538.0422, 0.1868372
539.9707, 0.1974932
541.8992, 0.2083982
543.8276, 0.2180771
545.7561, 0.2253582
547.6846, 0.2317889
549.6130, 0.2369802
551.5415, 0.2402575
553.4700, 0.2413655
555.3984, 0.2400474
557.3269, 0.2355479
559.2554, 0.2293987
561.1838, 0.2230836
563.1123, 0.2158922
565.0408, 0.2077519
566.9692, 0.1992487
568.8977, 0.1900764
570.8262, 0.1808385
572.7546, 0.1717226
574.6831, 0.1630717
576.6116, 0.1557786
578.5400, 0.1490275
580.4685, 0.1432073
582.3970, 0.1381936
584.3254, 0.1334437
586.2539, 0.1288362
588.1824, 0.1235255
590.1108, 0.1183867
592.0393, 0.1135712
593.9678, 0.1081690
595.8962, 0.1028530
597.8247, 9.7864643E-02
599.7532, 9.3099073E-02
601.6816, 8.9223944E-02
603.6101, 8.6329140E-02
605.5386, 8.3826549E-02
607.4670, 8.1922077E-02
609.3955, 8.0870651E-02
611.3240, 8.0796093E-02
613.2524, 8.1041172E-02
615.1809, 8.0680951E-02
617.1094, 8.0509856E-02
619.0378, 8.0779649E-02
620.9663, 8.0966637E-02
622.8948, 8.1424311E-02
624.8232, 8.2263418E-02
626.7517, 8.3108597E-02
628.6802, 8.4881298E-02
630.6086, 8.7435648E-02
632.5371, 9.0404987E-02
634.4656, 9.3689479E-02
636.3940, 9.6391313E-02
638.3225, 9.8939553E-02
640.2510, 0.1013401
642.1794, 0.1034630
644.1079, 0.1048591
646.0364, 0.1054559
647.9648, 0.1054938
649.8933, 0.1050752
651.8218, 0.1042120
653.7502, 0.1029500
655.6787, 0.1015373
657.6072, 9.9224873E-02
659.5356, 9.6828550E-02
661.4641, 9.4635457E-02
663.3926, 9.2213973E-02
665.3210, 9.0262324E-02
667.2495, 8.8277154E-02
669.1780, 8.6008228E-02
671.1064, 8.3550952E-02
673.0349, 8.1799217E-02
674.9634, 8.0307327E-02
676.8918, 7.8640103E-02
678.8203, 7.7001087E-02
680.7488, 7.5653806E-02
682.6772, 7.4520983E-02
684.6057, 7.3213063E-02
686.5342, 7.1914680E-02
688.4626, 7.1195252E-02
690.3911, 7.0726231E-02
692.3196, 7.0210040E-02
694.2480, 6.9719523E-02
696.1765, 6.9076598E-02
698.1050, 6.8461709E-02
700.0334, 6.8189397E-02
701.9619, 6.8027288E-02
703.8904, 6.7918673E-02
705.8188, 6.8318456E-02
707.7473, 6.8955660E-02
709.6758, 6.9452710E-02
711.6042, 6.9941841E-02
713.5327, 7.0673980E-02
715.4612, 7.1539968E-02
717.3896, 7.2285406E-02
719.3181, 7.3464014E-02
721.2466, 7.3999763E-02
723.1750, 7.4197367E-02
725.1035, 7.4261189E-02
727.0320, 7.4251659E-02
728.9604, 7.3915534E-02
730.8889, 7.3421210E-02
732.8174, 7.2919197E-02
734.7458, 7.2166920E-02
736.6743, 7.1726047E-02
738.6028, 7.1640350E-02
740.5313, 7.1439892E-02
742.4597, 7.1315557E-02
744.3882, 7.2008044E-02
746.3167, 7.3062994E-02
748.2451, 7.3621742E-02
750.1736, 7.4561827E-02
752.1021, 7.6060377E-02
754.0305, 7.7771433E-02
755.9590, 7.9669528E-02
757.8875, 8.1393227E-02
759.8159, 8.2895599E-02
761.7444, 8.4543303E-02
763.6729, 8.6206533E-02
765.6013, 8.7515622E-02
767.5298, 8.8829324E-02
769.4583, 9.0400882E-02
771.3867, 9.1658533E-02
773.3152, 9.2266306E-02
775.2437, 9.2693970E-02
777.1721, 9.3217611E-02
779.1006, 9.3421862E-02
781.0291, 9.3035974E-02
782.9575, 9.1931880E-02
784.8860, 9.0963453E-02
786.8145, 8.9977019E-02
788.7429, 8.8845968E-02
790.6714, 8.7640703E-02
792.5999, 8.6270407E-02
794.5283, 8.5025012E-02
796.4568, 8.4228933E-02
798.3853, 8.3182417E-02
800.3137, 8.2132317E-02
802.2422, 8.1357792E-02
804.1707, 8.0670148E-02
806.0991, 7.9976350E-02
808.0276, 7.9390138E-02
809.9561, 7.8786582E-02
811.8845, 7.8244321E-02
813.8130, 7.7593990E-02
815.7415, 7.6869749E-02
817.6699, 7.5878173E-02
819.5984, 7.5063698E-02
821.5269, 7.3992617E-02
823.4553, 7.2548769E-02
825.3838, 7.0949860E-02
827.3123, 6.9419257E-02
829.2407, 6.7693561E-02
831.1692, 6.5797843E-02
833.0977, 6.3496493E-02
835.0261, 6.1687861E-02
836.9546, 5.9945889E-02
838.8831, 5.7924662E-02
840.8115, 5.5849779E-02
842.7400, 5.4106131E-02
844.6685, 5.2404791E-02
846.5969, 5.0628990E-02
848.5254, 4.9282901E-02
850.4539, 4.8138950E-02
852.3823, 4.7078218E-02
854.3108, 4.6077169E-02
856.2393, 4.5199059E-02
858.1677, 4.4240151E-02
860.0962, 4.3670211E-02
862.0247, 4.3319840E-02
863.9531, 4.3104380E-02
865.8816, 4.2892430E-02
867.8101, 4.2669650E-02
869.7385, 4.2277951E-02
871.6670, 4.2259891E-02
873.5955, 4.2218741E-02
875.5239, 4.1923039E-02
877.4524, 4.1879650E-02
879.3809, 4.1436002E-02
881.3093, 4.0947020E-02
883.2378, 4.0719811E-02
885.1663, 4.0487640E-02
887.0947, 3.9913211E-02
889.0232, 3.9310899E-02
890.9517, 3.8471531E-02
892.8801, 3.8107440E-02
894.8085, 3.8096141E-02
896.7370, 3.7616950E-02
898.6655, 3.6817901E-02
900.5939, 3.6260471E-02
902.5224, 3.6091529E-02
904.4509, 3.6083099E-02
906.3793, 3.5849869E-02
908.3078, 3.5698850E-02
910.2363, 3.5538152E-02
912.1647, 3.5525631E-02
914.0932, 3.5712339E-02
916.0217, 3.6171950E-02
917.9501, 3.6702450E-02
919.8786, 3.7346099E-02
921.8071, 3.8244590E-02
923.7355, 3.9059181E-02
925.6640, 4.0128749E-02
927.5925, 4.1547202E-02
929.5209, 4.3028641E-02
931.4494, 4.4747900E-02
933.3779, 4.6703849E-02
935.3063, 4.8791319E-02
937.2348, 5.1134739E-02
939.1633, 5.3635929E-02
941.0917, 5.6346159E-02
943.0202, 5.9391141E-02
944.9487, 6.2573880E-02
946.8771, 6.5963030E-02
948.8056, 6.9101200E-02
950.7341, 7.2084107E-02
952.6625, 7.4925311E-02
954.5910, 7.7376626E-02
956.5195, 7.9583950E-02
958.4479, 8.1697591E-02
960.3764, 8.3907738E-02
962.3049, 8.5799597E-02
964.2333, 8.7804362E-02
966.1618, 9.0333194E-02
968.0903, 9.3118601E-02
970.0187, 9.5904343E-02
971.9472, 9.9532701E-02
973.8757, 0.1037907
975.8041, 0.1081229
977.7326, 0.1128681
979.6611, 0.1184182
981.5895, 0.1249176
983.5180, 0.1320685
985.4465, 0.1400318
987.3749, 0.1491304
989.3034, 0.1588284
991.2319, 0.1693387
993.1603, 0.1810080
995.0888, 0.1934906
997.0173, 0.2068284
998.9457, 0.2205445
1000.874, 0.2342924
1002.803, 0.2469724
1004.731, 0.2574738
1006.660, 0.2659979
1008.588, 0.2726611
1010.517, 0.2769908
1012.445, 0.2792721
1014.373, 0.2795626
1016.302, 0.2786375
1018.230, 0.2763949
1020.159, 0.2724770
1022.087, 0.2679395
1024.016, 0.2633028
1025.944, 0.2588549
1027.873, 0.2546076
1029.801, 0.2501053
1031.730, 0.2449740
1033.658, 0.2393512
1035.587, 0.2329862
1037.515, 0.2258734
1039.444, 0.2185984
1041.372, 0.2110005
1043.301, 0.2027418
1045.229, 0.1935100
1047.157, 0.1835625
1049.086, 0.1735774
1051.014, 0.1636836
1052.943, 0.1538902
1054.871, 0.1447279
1056.800, 0.1364722
1058.728, 0.1294389
1060.657, 0.1236465
1062.585, 0.1185154
1064.514, 0.1133847
1066.442, 0.1073607
1068.371, 0.1002254
1070.299, 9.2603222E-02
1072.228, 8.5023783E-02
1074.156, 7.7843763E-02
1076.084, 7.0754059E-02
1078.013, 6.3613169E-02
1079.941, 5.6557890E-02
1081.870, 4.9911361E-02
1083.798, 4.4082101E-02
1085.727, 3.8995881E-02
1087.655, 3.4551959E-02
1089.584, 3.0856291E-02
1091.512, 2.7691590E-02
1093.441, 2.4896100E-02
1095.369, 2.2765109E-02
1097.298, 2.0816110E-02
1099.226, 1.9032260E-02
1101.155, 1.7563241E-02
1103.083, 1.6322769E-02
1105.011, 1.5387490E-02
1106.940, 1.4862750E-02
1108.868, 1.4135200E-02
1110.797, 1.3236090E-02
1112.725, 1.2822840E-02
1114.654, 1.2640680E-02
1116.582, 1.2036930E-02
1118.511, 1.1205580E-02
1120.439, 1.0978660E-02
1122.368, 1.0827070E-02
1124.296, 1.0261470E-02
1126.225, 9.7965794E-03
1128.153, 9.5510837E-03
1130.082, 9.3854340E-03
1132.010, 9.1992421E-03
1133.938, 9.1092298E-03
1135.867, 8.7364679E-03
1137.795, 8.2058934E-03
1139.724, 7.8983782E-03
1141.652, 7.7727772E-03
1143.581, 7.5377459E-03
1145.509, 7.1495380E-03
1147.438, 6.9834539E-03
1149.366, 6.9219712E-03
1151.295, 6.8289670E-03
1153.223, 6.7414050E-03
1155.152, 6.6437591E-03
1157.080, 6.4336490E-03
1159.009, 6.5765241E-03
1160.937, 6.3842270E-03
1162.865, 6.1477302E-03
1164.794, 6.1812112E-03
1166.722, 6.0026608E-03
1168.651, 5.6903209E-03
1170.579, 5.4961438E-03
1172.508, 5.4315678E-03
1174.436, 5.4669320E-03
1176.365, 5.3726989E-03
1178.293, 5.3113610E-03
1180.222, 5.4249731E-03
1182.150, 5.4891421E-03
1184.079, 5.6167981E-03
1186.007, 5.7949401E-03
1187.936, 5.5337902E-03
1189.864, 5.2228761E-03
1191.792, 5.3200228E-03
1193.721, 5.4911412E-03
1195.649, 5.7081338E-03
1197.578, 5.7656472E-03
1199.506, 5.4412400E-03
1201.435, 5.2584652E-03
1203.363, 5.4569221E-03
1205.292, 5.6252172E-03
1207.220, 5.5145919E-03
1209.149, 5.3677089E-03
1211.077, 5.4955119E-03
1213.006, 5.5056028E-03
1214.934, 5.2946960E-03
1216.863, 5.1732408E-03
1218.791, 5.2748360E-03
1220.719, 5.2978890E-03
1222.648, 5.3956308E-03
1224.576, 5.5214660E-03
1226.505, 5.5077011E-03
1228.433, 5.5299331E-03
1230.362, 5.7275929E-03
1232.290, 5.6551490E-03
1234.219, 5.4899082E-03
1236.147, 5.3317500E-03
1238.076, 5.2338471E-03
1240.004, 5.4168180E-03
1241.933, 5.5279620E-03
1243.861, 5.7071252E-03
1245.790, 5.6865639E-03
1247.718, 5.6082229E-03
1249.646, 5.4954109E-03
1251.575, 5.4160100E-03
1253.503, 5.4686549E-03
1255.432, 5.7433560E-03
1257.360, 5.9910798E-03
1259.289, 6.0461690E-03
1261.217, 6.0737240E-03
1263.146, 6.1513600E-03
1265.074, 6.1918669E-03
1267.003, 6.2678829E-03
1268.931, 6.3709891E-03
1270.860, 6.1356141E-03
1272.788, 6.2552560E-03
1274.717, 6.5234471E-03
1276.645, 6.4730551E-03
1278.573, 6.3077272E-03
1280.502, 6.2440792E-03
1282.430, 6.4698881E-03
1284.359, 6.5618982E-03
1286.287, 6.4499392E-03
1288.216, 6.5504648E-03
1290.144, 6.5048258E-03
1292.073, 6.3635861E-03
1294.001, 6.3438131E-03
1295.930, 6.3259532E-03
1297.858, 6.2680491E-03
1299.787, 6.1309710E-03
1301.715, 6.3370080E-03
1303.644, 6.6374359E-03
1305.572, 6.6785938E-03
1307.500, 6.3614929E-03
1309.429, 6.4983042E-03
1311.357, 6.5064239E-03
1313.286, 6.4153401E-03
1315.214, 6.6304342E-03
1317.143, 6.4777462E-03
1319.071, 6.1998442E-03
1321.000, 6.4486400E-03
1322.928, 6.7814388E-03
1324.857, 7.0198621E-03
1326.785, 7.0092091E-03
1328.714, 6.9720270E-03
1330.642, 6.9770580E-03
1332.571, 6.8552610E-03
1334.499, 6.6835489E-03
1336.427, 6.9681341E-03
1338.356, 7.1960362E-03
1340.284, 7.1292552E-03
1342.213, 6.8570739E-03
1344.141, 6.9917659E-03
1346.070, 7.1813851E-03
1347.998, 7.1675288E-03
1349.927, 7.0683518E-03
1351.855, 7.0650750E-03
1353.784, 7.3835878E-03
1355.712, 7.5795422E-03
1357.641, 7.3521500E-03
1359.569, 6.9902781E-03
1361.498, 6.9202208E-03
1363.426, 7.3347660E-03
1365.354, 7.5835031E-03
1367.283, 7.6068789E-03
1369.211, 7.6632421E-03
1371.140, 7.5680129E-03
1373.068, 7.4987179E-03
1374.997, 7.6796529E-03
1376.925, 7.7397358E-03
1378.854, 7.9412898E-03
1380.782, 8.0253268E-03
1382.711, 8.1638191E-03
1384.639, 8.3282320E-03
1386.568, 8.4841158E-03
1388.496, 8.8239731E-03
1390.424, 8.7699881E-03
1392.353, 8.7836022E-03
1394.281, 8.8027539E-03
1396.210, 8.9691915E-03
1398.138, 9.3006687E-03
1400.067, 9.4283521E-03
1401.995, 9.5339594E-03
1403.924, 9.6322754E-03
1405.852, 9.4845816E-03
1407.781, 9.2671514E-03
1409.709, 9.3656406E-03
1411.638, 9.4755394E-03
1413.566, 9.6825380E-03
1415.495, 9.9316919E-03
1417.423, 9.8019540E-03
1419.351, 9.6637383E-03
1421.280, 9.8348456E-03
1423.208, 9.9780513E-03
1425.137, 1.0041770E-02
1427.065, 1.0006440E-02
1428.994, 1.0118470E-02
1430.922, 1.0207210E-02
1432.851, 1.0506210E-02
1434.779, 1.0631420E-02
1436.708, 1.0455490E-02
1438.636, 1.0481450E-02
1440.565, 1.0636130E-02
1442.493, 1.0846270E-02
1444.422, 1.0908150E-02
1446.350, 1.0820910E-02
1448.278, 1.0712120E-02
1450.207, 1.0662310E-02
1452.135, 1.0768740E-02
1454.064, 1.0779170E-02
1455.992, 1.0772120E-02
1457.921, 1.0777840E-02
1459.849, 1.0830470E-02
1461.778, 1.0850490E-02
1463.706, 1.0794460E-02
1465.635, 1.0925960E-02
1467.563, 1.1108350E-02
1469.492, 1.1450780E-02
1471.420, 1.1581070E-02
1473.349, 1.1569850E-02
1475.277, 1.1766650E-02
1477.205, 1.2122870E-02
1479.134, 1.2195480E-02
1481.062, 1.2025260E-02
1482.991, 1.2028850E-02
1484.919, 1.2466360E-02
1486.848, 1.2900880E-02
1488.776, 1.3213540E-02
1490.705, 1.3090970E-02
1492.633, 1.2988310E-02
1494.562, 1.3086240E-02
1496.490, 1.3353310E-02
1498.419, 1.3546550E-02
1500.347, 1.3891870E-02
1502.276, 1.3870520E-02
1504.204, 1.3796430E-02
1506.132, 1.3995800E-02
1508.061, 1.4076670E-02
1509.989, 1.4078820E-02
1511.918, 1.4053350E-02
1513.846, 1.4330680E-02
1515.775, 1.4621400E-02
1517.703, 1.4547970E-02
1519.632, 1.4636830E-02
1521.560, 1.4924580E-02
1523.489, 1.4929510E-02
1525.417, 1.4975650E-02
1527.346, 1.5205240E-02
1529.274, 1.5491140E-02
1531.203, 1.5830860E-02
1533.131, 1.6071880E-02
1535.059, 1.6354499E-02
1536.988, 1.6338721E-02
1538.916, 1.6287170E-02
1540.845, 1.6446430E-02
1542.773, 1.6863409E-02
1544.702, 1.7018709E-02
1546.630, 1.7106980E-02
1548.559, 1.7414119E-02
1550.487, 1.7369270E-02
1552.416, 1.7274341E-02
1554.344, 1.7831899E-02
1556.273, 1.8294791E-02
1558.201, 1.8720569E-02
1560.130, 1.8930459E-02
1562.058, 1.9078091E-02
1563.986, 1.9130850E-02
1565.915, 1.9312641E-02
1567.843, 1.9614501E-02
1569.772, 1.9741639E-02
1571.700, 1.9971929E-02
1573.629, 2.0449020E-02
1575.557, 2.1275060E-02
1577.486, 2.1812281E-02
1579.414, 2.2082590E-02
1581.343, 2.2360081E-02
1583.271, 2.2946550E-02
1585.200, 2.3626430E-02
1587.128, 2.4281230E-02
1589.057, 2.4884559E-02
1590.985, 2.5212729E-02
1592.913, 2.5939349E-02
1594.842, 2.6925080E-02
1596.770, 2.7735241E-02
1598.699, 2.8169829E-02
1600.627, 2.8602090E-02
1602.556, 2.9258450E-02
1604.484, 2.9932359E-02
1606.413, 3.0252600E-02
1608.341, 3.1019960E-02
1610.270, 3.2191131E-02
1612.198, 3.3217240E-02
1614.127, 3.3812288E-02
1616.055, 3.4740411E-02
1617.984, 3.5460591E-02
1619.912, 3.6066081E-02
1621.840, 3.6779229E-02
1623.769, 3.7468009E-02
1625.697, 3.8032640E-02
1627.626, 3.8786530E-02
1629.554, 3.9751690E-02
1631.483, 4.0436018E-02
1633.411, 4.1027289E-02
1635.340, 4.1606579E-02
1637.268, 4.2004030E-02
1639.197, 4.2555358E-02
1641.125, 4.3202508E-02
1643.054, 4.3684691E-02
1644.982, 4.4380032E-02
1646.911, 4.5182779E-02
1648.839, 4.5153230E-02
1650.767, 4.5052961E-02
1652.696, 4.5254540E-02
1654.624, 4.4973880E-02
1656.553, 4.4319890E-02
1658.481, 4.3576039E-02
1660.410, 4.3108180E-02
1662.338, 4.2796150E-02
1664.267, 4.2155869E-02
1666.195, 4.0970050E-02
1668.124, 3.9685961E-02
1670.052, 3.8706459E-02
1671.981, 3.7268739E-02
1673.909, 3.6182340E-02
1675.838, 3.5342369E-02
1677.766, 3.4009621E-02
1679.694, 3.2623559E-02
1681.623, 3.1892288E-02
1683.551, 3.1454150E-02
1685.480, 3.0306039E-02
1687.408, 2.8998960E-02
1689.337, 2.8095771E-02
1691.265, 2.7409460E-02
1693.194, 2.6828090E-02
1695.122, 2.5853010E-02
1697.051, 2.5112949E-02
1698.979, 2.4716889E-02
1700.908, 2.3924621E-02
1702.836, 2.2856729E-02
1704.765, 2.2212939E-02
1706.693, 2.1649700E-02
1708.621, 2.0948840E-02
1710.550, 1.9877249E-02
1712.478, 1.9392559E-02
1714.407, 1.9518889E-02
1716.335, 1.9018071E-02
1718.264, 1.8250519E-02
1720.192, 1.7643610E-02
1722.121, 1.7394921E-02
1724.049, 1.7158169E-02
1725.978, 1.6756071E-02
1727.906, 1.6241319E-02
1729.835, 1.6157949E-02
1731.763, 1.5657470E-02
1733.692, 1.4748000E-02
1735.620, 1.3870650E-02
1737.548, 1.3663080E-02
1739.477, 1.3435840E-02
1741.405, 1.2906630E-02
1743.334, 1.2440910E-02
1745.262, 1.2091630E-02
1747.191, 1.2217300E-02
1749.119, 1.2471410E-02
1751.048, 1.2369810E-02
1752.976, 1.2384960E-02
1754.905, 1.2181420E-02
1756.833, 1.2438960E-02
1758.762, 1.2069830E-02
1760.690, 1.1913450E-02
1762.619, 1.2334320E-02
1764.547, 1.2444780E-02
1766.475, 1.2584570E-02
1768.404, 1.2674380E-02
1770.332, 1.2247150E-02
1772.261, 1.1763100E-02
1774.189, 1.1702370E-02
1776.118, 1.1623320E-02
1778.046, 1.1457250E-02
1779.975, 1.1401620E-02
1781.903, 1.1396780E-02
1783.832, 1.1485470E-02
1785.760, 1.1387220E-02
1787.689, 1.0908940E-02
1789.617, 1.0915950E-02
1791.546, 1.1344720E-02
1793.474, 1.1280660E-02
1795.402, 1.0698740E-02
1797.331, 1.0822180E-02
1799.259, 1.0781440E-02
1801.188, 1.0490750E-02
1803.116, 1.0746460E-02
1805.045, 1.1084480E-02
1806.973, 1.0638900E-02
1808.902, 1.0238750E-02
1810.830, 1.0243770E-02
1812.759, 1.0064300E-02
1814.687, 1.0012640E-02
1816.616, 1.0344310E-02
1818.544, 1.0122660E-02
1820.473, 1.0077370E-02
1822.401, 1.0410780E-02
1824.329, 1.0655860E-02
1826.258, 1.0417180E-02
1828.186, 1.0127860E-02
1830.115, 1.0123250E-02
1832.043, 1.0262920E-02
1833.972, 1.0406940E-02
1835.900, 1.0431190E-02
1837.829, 1.0318400E-02
1839.757, 9.9650957E-03
1841.686, 9.6735153E-03
1843.614, 9.6148923E-03
1845.543, 9.2814164E-03
1847.471, 9.5283296E-03
1849.400, 9.5777772E-03
1851.328, 9.5125930E-03
1853.256, 9.6124187E-03
1855.185, 1.0078970E-02
1857.113, 1.1409660E-02
1859.042, 1.1193380E-02
1860.970, 9.7744968E-03
1862.899, 9.7240256E-03
1864.827, 9.2837047E-03
1866.756, 8.7995566E-03
1868.684, 8.4452527E-03
1870.613, 8.3708642E-03
1872.541, 8.3560487E-03
1874.470, 8.8067874E-03
1876.398, 9.1928393E-03
1878.327, 9.3269227E-03
1880.255, 9.1849584E-03
1882.183, 9.7415652E-03
1884.112, 9.2462897E-03
1886.040, 8.5754739E-03
1887.969, 8.2450397E-03
1889.897, 8.4357131E-03
1891.826, 7.9056118E-03
1893.754, 7.7599860E-03
1895.683, 8.3498536E-03
1897.611, 7.9107424E-03
1899.540, 7.6697799E-03
1901.468, 7.6018972E-03
1903.397, 8.0920914E-03
1905.325, 8.0849892E-03
1907.254, 7.7103670E-03
1909.182, 7.3775272E-03
1911.110, 6.8168840E-03
1913.039, 7.2685000E-03
1914.967, 7.9602264E-03
1916.896, 7.4816090E-03
1918.824, 7.1638841E-03
1920.753, 6.9724340E-03
1922.681, 6.2829042E-03
1924.610, 7.2501930E-03
1926.538, 7.9844147E-03
1928.467, 7.3702410E-03
1930.395, 7.3766420E-03
1932.324, 7.5127529E-03
1934.252, 6.0575530E-03
1936.181, 5.9149200E-03
1938.109, 7.8487825E-03
1940.037, 8.3009666E-03
1941.966, 8.0936346E-03
1943.894, 7.5407778E-03
1945.823, 6.7202351E-03
1947.751, 7.6949690E-03
1949.680, 8.7893680E-03
1951.608, 6.8935351E-03
1953.537, 5.0021182E-03
1955.465, 5.1918491E-03
1957.394, 2.9726941E-03
1959.322, 2.5645751E-03
1961.251, 4.2449278E-03
1963.179, 4.1677821E-03
1965.108, 5.0510671E-03
1967.036, 3.4066821E-03
1968.964, 9.0208888E-04
1970.893, 1.9179600E-03
1972.821, 2.9942221E-03
1974.750, 2.3007081E-03
1976.678, 2.4823879E-03
1978.607, 5.4009240E-03
1980.535, 7.3517212E-03
1982.464, 6.1772452E-03
1984.392, 4.4403360E-03
1986.321, 3.2311019E-03
1988.249, 3.2241221E-03
1990.178, 4.5547020E-03
1992.106, 4.9849548E-03
1994.035, 3.4200749E-03
1995.963, 3.4330760E-03
1997.891, 4.0550991E-03
1999.820, 3.7208900E-03
2001.748, 2.1025550E-03
2003.677, 1.6636610E-03
2005.605, 4.2328070E-04
2007.534, 2.1152890E-05
2009.462, 2.9289741E-03
2011.391, 3.0542309E-03
2013.319, 3.1465819E-04
2015.248, 1.0261720E-03
2017.176, 2.9738829E-03
2019.105, 3.6436340E-03
2021.033, 4.9963407E-04
2022.962, -2.0559831E-03
2024.890, -2.7015640E-03
2026.818, 7.4681397E-05
2028.747, 2.5168341E-03
2030.675, 1.7544370E-03
2032.604, 2.3930981E-03
2034.532, 3.0253790E-03
2036.461, 3.0442250E-03
2038.389, 1.3495330E-03
2040.318, 2.1877261E-03
2042.246, 2.8691520E-03
2044.175, 1.7735660E-03
2046.103, 3.3822460E-03
2048.032, 4.2290711E-03
2049.960, 4.2251372E-03
2051.889, 3.6537780E-03
2053.817, 3.5778841E-03
2055.746, 5.5550770E-03
2057.674, 6.7714988E-03
2059.603, 5.5240928E-03
2061.531, 5.4543531E-03
2063.459, 6.9470708E-03
2065.388, 5.8437409E-03
2067.316, 5.3699422E-03
2069.245, 6.5187798E-03
2071.173, 7.3038279E-03
2073.102, 8.0733960E-03
2075.030, 7.8339716E-03
2076.959, 7.1159080E-03
2078.887, 7.8917518E-03
2080.816, 7.9931114E-03
2082.744, 7.5640189E-03
2084.673, 9.7619118E-03
2086.601, 1.0531210E-02
2088.530, 9.4678327E-03
2090.458, 9.0158638E-03
2092.386, 8.5075721E-03
2094.315, 7.4305590E-03
2096.243, 8.0002407E-03
2098.172, 8.1715900E-03
2100.100, 7.5652371E-03
2102.029, 7.9812165E-03
2103.957, 9.0754908E-03
2105.886, 8.7501118E-03
2107.814, 9.2749810E-03
2109.743, 9.7107245E-03
2111.671, 9.7902454E-03
2113.600, 1.0380150E-02
2115.528, 1.0957440E-02
2117.457, 1.0621290E-02
2119.385, 1.0342730E-02
2121.313, 1.0614260E-02
2123.242, 1.0196010E-02
2125.170, 9.6125174E-03
2127.099, 9.3589844E-03
2129.027, 8.7125218E-03
2130.956, 6.9890390E-03
2132.884, 5.6640422E-03
2134.813, 6.2920279E-03
2136.741, 6.2914388E-03
2138.670, 7.3127672E-03
2140.598, 6.6431230E-03
2142.527, 6.9832848E-03
2144.455, 9.0600979E-03
2146.384, 8.3036013E-03
2148.312, 6.7490111E-03
2150.240, 6.0059442E-03
2152.169, 6.5659201E-03
2154.097, 7.9540862E-03
2156.026, 9.7063901E-03
2157.954, 1.0157400E-02
2159.883, 1.1685510E-02
2161.811, 1.2418020E-02
2163.740, 1.4161530E-02
2165.668, 1.5399070E-02
2167.597, 1.4587440E-02
2169.525, 1.1018830E-02
2171.454, 7.6969191E-03
2173.382, 9.2742303E-03
2175.311, 1.2562460E-02
2177.239, 1.2136450E-02
2179.167, 1.1115800E-02
2181.096, 1.1176890E-02
2183.024, 1.0355330E-02
2184.953, 1.0299040E-02
2186.881, 1.2245250E-02
2188.810, 1.4188020E-02
2190.738, 1.4191380E-02
2192.667, 1.3371150E-02
2194.595, 1.3159350E-02
2196.524, 1.3113870E-02
2198.452, 1.4844730E-02
2200.381, 1.5589420E-02
2202.309, 1.2837300E-02
2204.238, 1.2068890E-02
2206.166, 1.3853950E-02
2208.094, 1.6521331E-02
2210.023, 1.4803650E-02
2211.951, 1.4578860E-02
2213.880, 1.5749861E-02
2215.808, 1.6468581E-02
2217.737, 1.7115140E-02
2219.665, 1.6846770E-02
2221.594, 1.5077780E-02
2223.522, 1.3738430E-02
2225.451, 1.3003510E-02
2227.379, 1.5173640E-02
2229.308, 1.6804580E-02
2231.236, 1.6726900E-02
2233.165, 1.6405430E-02
2235.093, 1.6990090E-02
2237.021, 1.6556500E-02
2238.950, 1.7336469E-02
2240.878, 1.7123541E-02
2242.807, 1.6320810E-02
2244.735, 1.6454799E-02
2246.664, 1.7784121E-02
2248.592, 1.8089650E-02
2250.521, 1.7869931E-02
2252.449, 1.7246591E-02
2254.378, 1.7681411E-02
2256.306, 1.8341210E-02
2258.235, 1.7503770E-02
2260.163, 1.7421670E-02
2262.092, 1.7141631E-02
2264.020, 1.6685970E-02
2265.948, 1.7680891E-02
2267.877, 1.8259799E-02
2269.805, 1.8110231E-02
2271.734, 1.8288400E-02
2273.662, 1.9860080E-02
2275.591, 1.9490959E-02
2277.519, 1.9672349E-02
2279.448, 2.0135200E-02
2281.376, 2.0356691E-02
2283.305, 2.0670099E-02
2285.233, 2.1189680E-02
2287.162, 2.1123881E-02
2289.090, 2.0833770E-02
2291.019, 2.1393780E-02
2292.947, 2.1936990E-02
2294.875, 2.0899311E-02
2296.804, 2.0239120E-02
2298.732, 2.0949529E-02
2300.661, 2.1976190E-02
2302.589, 2.2075649E-02
2304.518, 2.0752760E-02
2306.446, 2.1122379E-02
2308.375, 2.1858880E-02
2310.303, 2.0852610E-02
2312.232, 2.0934630E-02
2314.160, 2.2794440E-02
2316.089, 2.3422400E-02
2318.017, 2.2964120E-02
2319.946, 2.3067450E-02
2321.874, 2.3299729E-02
2323.802, 2.3458879E-02
2325.731, 2.3048099E-02
2327.659, 2.2905629E-02
2329.588, 2.3195390E-02
2331.516, 2.4045451E-02
2333.445, 2.4780460E-02
2335.373, 2.4314810E-02
2337.302, 2.3322590E-02
2339.230, 2.3042729E-02
2341.159, 2.2892240E-02
2343.087, 2.3047211E-02
2345.016, 2.2908499E-02
2346.944, 2.2820130E-02
2348.873, 2.3033820E-02
2350.801, 2.2912281E-02
2352.729, 2.2807270E-02
2354.658, 2.3449481E-02
2356.586, 2.3961671E-02
2358.515, 2.4396880E-02
2360.443, 2.4735579E-02
2362.372, 2.5298711E-02
2364.300, 2.4868689E-02
2366.229, 2.3988200E-02
2368.157, 2.3665329E-02
2370.086, 2.4009220E-02
2372.014, 2.4400260E-02
2373.942, 2.4452310E-02
2375.871, 2.3998370E-02
2377.799, 2.3650270E-02
2379.728, 2.3597980E-02
2381.656, 2.3280161E-02
2383.585, 2.3025939E-02
2385.513, 2.2578510E-02
2387.442, 2.2135461E-02
2389.370, 2.2918331E-02
2391.299, 2.3620229E-02
2393.227, 2.3711640E-02
2395.156, 2.2967899E-02
2397.084, 2.2358021E-02
2399.012, 2.2167880E-02
2400.941, 2.2677621E-02
2402.869, 2.3832260E-02
2404.798, 2.4668060E-02
2406.726, 2.3970060E-02
2408.655, 2.3125499E-02
2410.583, 2.2884861E-02
2412.512, 2.2982340E-02
2414.440, 2.3325410E-02
2416.369, 2.3703080E-02
2418.297, 2.4175810E-02
2420.226, 2.4106311E-02
2422.154, 2.4087990E-02
2424.083, 2.3590790E-02
2426.011, 2.3695299E-02
2427.939, 2.3557169E-02
2429.868, 2.3243230E-02
2431.796, 2.3832660E-02
2433.725, 2.4228310E-02
2435.653, 2.3363670E-02
2437.582, 2.3577960E-02
2439.510, 2.4281019E-02
2441.439, 2.3981599E-02
2443.367, 2.4350559E-02
2445.296, 2.4278671E-02
2447.224, 2.3189200E-02
2449.153, 2.2763250E-02
2451.081, 2.3830120E-02
2453.010, 2.3341050E-02
2454.938, 2.3732530E-02
2456.866, 2.4793250E-02
2458.795, 2.4382440E-02
2460.723, 2.3635739E-02
2462.652, 2.4430539E-02
2464.580, 2.5397280E-02
2466.509, 2.4906700E-02
2468.437, 2.4726279E-02
2470.366, 2.4789320E-02
2472.294, 2.3594810E-02
2474.223, 2.2583770E-02
2476.151, 2.2505110E-02
2478.080, 2.2032831E-02
2480.008, 2.3702610E-02
2481.937, 2.5061140E-02
2483.865, 2.4486059E-02
2485.793, 2.4487050E-02
2487.722, 2.4144961E-02
2489.650, 2.3683380E-02
2491.579, 2.3546040E-02
2493.507, 2.3291230E-02
2495.436, 2.3370240E-02
2497.364, 2.4195980E-02
2499.293, 2.4176991E-02
2501.221, 2.4088360E-02
2503.150, 2.3765421E-02
2505.078, 2.3542900E-02
2507.007, 2.3758059E-02
2508.935, 2.5959400E-02
2510.864, 2.7092390E-02
2512.792, 2.5866561E-02
2514.720, 2.3741150E-02
2516.649, 2.3271410E-02
2518.577, 2.5037600E-02
2520.506, 2.4392780E-02
2522.434, 2.2602350E-02
2524.363, 2.3154700E-02
2526.291, 2.4601821E-02
2528.220, 2.5054259E-02
2530.148, 2.5259420E-02
2532.077, 2.4720199E-02
2534.005, 2.3290820E-02
2535.934, 2.3196390E-02
2537.862, 2.4017209E-02
2539.791, 2.4975400E-02
2541.719, 2.5444910E-02
2543.647, 2.5287339E-02
2545.576, 2.5864741E-02
2547.504, 2.6168659E-02
2549.433, 2.6796689E-02
2551.361, 2.6789250E-02
2553.290, 2.6559910E-02
2555.218, 2.7473601E-02
2557.147, 2.8105950E-02
2559.075, 2.6839320E-02
2561.004, 2.5267331E-02
2562.932, 2.5945131E-02
2564.861, 2.6922980E-02
2566.789, 2.6904101E-02
2568.718, 2.6726320E-02
2570.646, 2.7017040E-02
2572.574, 2.7260009E-02
2574.503, 2.7776269E-02
2576.431, 2.7697230E-02
2578.360, 2.7669970E-02
2580.288, 2.7620301E-02
2582.217, 2.7035311E-02
2584.145, 2.7491340E-02
2586.074, 2.7724819E-02
2588.002, 2.8221190E-02
2589.931, 2.8388649E-02
2591.859, 2.8436299E-02
2593.788, 2.8069800E-02
2595.716, 2.7901720E-02
2597.645, 2.7331039E-02
2599.573, 2.7335530E-02
2601.501, 2.9096611E-02
2603.430, 2.9817291E-02
2605.358, 2.8909819E-02
2607.287, 2.8836399E-02
2609.215, 2.9135611E-02
2611.144, 2.9306989E-02
2613.072, 3.0496079E-02
2615.001, 3.0216189E-02
2616.929, 2.9222270E-02
2618.858, 2.9624039E-02
2620.786, 3.1237470E-02
2622.715, 3.1584460E-02
2624.643, 3.0210789E-02
2626.572, 2.9802511E-02
2628.500, 3.0061590E-02
2630.428, 3.0512970E-02
2632.357, 3.1774029E-02
2634.285, 3.2572061E-02
2636.214, 3.1994920E-02
2638.142, 3.1352978E-02
2640.071, 3.1271439E-02
2641.999, 3.2014001E-02
2643.928, 3.1992599E-02
2645.856, 3.1828631E-02
2647.785, 3.1842452E-02
2649.713, 3.2095380E-02
2651.642, 3.2349411E-02
2653.570, 3.2231070E-02
2655.499, 3.2509591E-02
2657.427, 3.3333741E-02
2659.355, 3.3527181E-02
2661.284, 3.3656441E-02
2663.212, 3.3599611E-02
2665.141, 3.3059709E-02
2667.069, 3.2872599E-02
2668.998, 3.3968430E-02
2670.926, 3.4847450E-02
2672.855, 3.4201201E-02
2674.783, 3.4070078E-02
2676.712, 3.4491539E-02
2678.640, 3.4776341E-02
2680.569, 3.4515899E-02
2682.497, 3.4434430E-02
2684.426, 3.4912132E-02
2686.354, 3.5404779E-02
2688.282, 3.5627890E-02
2690.211, 3.6105499E-02
2692.139, 3.6449291E-02
2694.068, 3.6494460E-02
2695.996, 3.6267359E-02
2697.925, 3.5851810E-02
2699.853, 3.7098922E-02
2701.782, 3.7576601E-02
2703.710, 3.6534961E-02
2705.639, 3.7350241E-02
2707.567, 3.8045760E-02
2709.496, 3.7591469E-02
2711.424, 3.6760561E-02
2713.353, 3.7117701E-02
2715.281, 3.8829580E-02
2717.209, 3.9850581E-02
2719.138, 3.9547712E-02
2721.066, 3.9098430E-02
2722.995, 3.9216071E-02
2724.923, 3.9381430E-02
2726.852, 4.0116720E-02
2728.780, 4.0478170E-02
2730.709, 3.9985601E-02
2732.637, 3.9537270E-02
2734.566, 3.9750259E-02
2736.494, 4.0738780E-02
2738.423, 4.1167341E-02
2740.351, 4.0388528E-02
2742.280, 4.0214669E-02
2744.208, 4.0858749E-02
2746.136, 4.1791771E-02
2748.065, 4.2585880E-02
2749.993, 4.2512860E-02
2751.922, 4.3110620E-02
2753.850, 4.4031601E-02
2755.779, 4.2951230E-02
2757.707, 4.2616881E-02
2759.636, 4.3038249E-02
2761.564, 4.2910889E-02
2763.493, 4.3264609E-02
2765.421, 4.4274379E-02
2767.350, 4.5253638E-02
2769.278, 4.5702931E-02
2771.207, 4.5136411E-02
2773.135, 4.5559261E-02
2775.063, 4.5316629E-02
2776.992, 4.4097692E-02
2778.920, 4.4013571E-02
2780.849, 4.4870999E-02
2782.777, 4.5475408E-02
2784.706, 4.5565251E-02
2786.634, 4.5739692E-02
2788.563, 4.6177771E-02
2790.491, 4.6651751E-02
2792.420, 4.6843920E-02
2794.348, 4.7158789E-02
2796.277, 4.6512581E-02
2798.205, 4.7042500E-02
2800.134, 4.7643080E-02
2802.062, 4.8503142E-02
2803.990, 4.9606450E-02
2805.919, 4.9045369E-02
2807.847, 4.9708720E-02
2809.776, 5.0293989E-02
2811.704, 5.0150260E-02
2813.633, 4.9888551E-02
2815.561, 4.9941301E-02
2817.490, 5.0365072E-02
2819.418, 5.1661871E-02
2821.347, 5.1386409E-02
2823.275, 5.0486442E-02
2825.204, 5.1195379E-02
2827.132, 5.1787060E-02
2829.061, 5.2520081E-02
2830.989, 5.3764090E-02
2832.917, 5.3765111E-02
2834.846, 5.3701401E-02
2836.774, 5.3918000E-02
2838.703, 5.4154910E-02
2840.631, 5.3665530E-02
2842.560, 5.3476799E-02
2844.488, 5.3599339E-02
2846.417, 5.3157829E-02
2848.345, 5.3893860E-02
2850.274, 5.5119101E-02
2852.202, 5.5749010E-02
2854.131, 5.5365451E-02
2856.059, 5.5111129E-02
2857.988, 5.5796251E-02
2859.916, 5.6294899E-02
2861.844, 5.6948211E-02
2863.773, 5.6884691E-02
2865.701, 5.6449089E-02
2867.630, 5.6806929E-02
2869.558, 5.6348331E-02
2871.487, 5.6543540E-02
2873.415, 5.7792600E-02
2875.344, 5.8665309E-02
2877.272, 5.9457529E-02
2879.201, 5.9722450E-02
2881.129, 5.9621371E-02
2883.058, 5.9869859E-02
2884.986, 5.9902601E-02
2886.915, 5.9775680E-02
2888.843, 5.9464078E-02
2890.771, 6.0088839E-02
2892.700, 6.0921710E-02
2894.628, 6.1248560E-02
2896.557, 6.1151240E-02
2898.485, 6.0739711E-02
2900.414, 6.0952891E-02
2902.342, 6.1417520E-02
2904.271, 6.2195480E-02
2906.199, 6.3123390E-02
2908.128, 6.3886359E-02
2910.056, 6.4033709E-02
2911.985, 6.4332858E-02
2913.913, 6.5264598E-02
2915.842, 6.4897798E-02
2917.770, 6.4776279E-02
2919.698, 6.5599412E-02
2921.627, 6.5544687E-02
2923.555, 6.4824060E-02
2925.484, 6.5045767E-02
2927.412, 6.5329768E-02
2929.341, 6.4911388E-02
2931.269, 6.5476403E-02
2933.198, 6.5961413E-02
2935.126, 6.5601550E-02
2937.055, 6.5144010E-02
2938.983, 6.5904424E-02
2940.912, 6.6321559E-02
2942.840, 6.6244878E-02
2944.769, 6.6972263E-02
2946.697, 6.8158723E-02
2948.625, 6.7713536E-02
2950.554, 6.6990927E-02
2952.482, 6.6475458E-02
2954.411, 6.6700697E-02
2956.339, 6.7154773E-02
2958.268, 6.7396753E-02
2960.196, 6.7942306E-02
2962.125, 6.8848439E-02
2964.053, 6.8555146E-02
2965.982, 6.7906857E-02
2967.910, 6.7860931E-02
2969.839, 6.8299033E-02
2971.767, 6.9190651E-02
2973.696, 6.8680540E-02
2975.624, 6.8393894E-02
2977.552, 6.8101771E-02
2979.481, 6.9125071E-02
2981.409, 6.9265157E-02
2983.338, 6.7813560E-02
2985.266, 6.7259438E-02
2987.195, 6.8971023E-02
2989.123, 6.9483243E-02
2991.052, 6.8524450E-02
2992.980, 6.9399931E-02
2994.909, 6.8360738E-02
2996.837, 6.8770804E-02
2998.766, 6.9673717E-02
3000.694, 6.7904353E-02
3002.623, 6.6876538E-02
3004.551, 6.7505233E-02
3006.479, 6.8023227E-02
3008.408, 6.6998146E-02
3010.336, 6.7197353E-02
3012.265, 6.7892663E-02
3014.193, 6.8793908E-02
3016.122, 6.8753839E-02
3018.050, 6.7207180E-02
3019.979, 6.6839620E-02
3021.907, 6.7795888E-02
3023.836, 6.8090640E-02
3025.764, 6.6937760E-02
3027.693, 6.5645732E-02
3029.621, 6.5558627E-02
3031.550, 6.5852299E-02
3033.478, 6.4572141E-02
3035.406, 6.4686388E-02
3037.335, 6.5730803E-02
3039.263, 6.6926993E-02
3041.192, 6.6748857E-02
3043.120, 6.5983638E-02
3045.049, 6.5400943E-02
3046.977, 6.6016354E-02
3048.906, 6.5687761E-02
3050.834, 6.5223567E-02
3052.763, 6.6098817E-02
3054.691, 6.6451952E-02
3056.620, 6.5687910E-02
3058.548, 6.6257022E-02
3060.477, 6.6642068E-02
3062.405, 6.6933773E-02
3064.333, 6.4580813E-02
3066.262, 6.2882237E-02
3068.190, 6.2885687E-02
3070.119, 6.3189872E-02
3072.047, 6.4664178E-02
3073.976, 6.5768301E-02
3075.904, 6.4894572E-02
3077.833, 6.3739114E-02
3079.761, 6.3609108E-02
3081.690, 6.4481780E-02
3083.618, 6.4713277E-02
3085.547, 6.3537307E-02
3087.475, 6.3016184E-02
3089.404, 6.2877692E-02
3091.332, 6.3167028E-02
3093.260, 6.4428717E-02
3095.189, 6.3961133E-02
3097.117, 6.3691787E-02
3099.046, 6.5113664E-02
3100.974, 6.5485537E-02
3102.903, 6.5408103E-02
3104.831, 6.4477250E-02
3106.760, 6.3449271E-02
3108.688, 6.3286610E-02
3110.617, 6.5815523E-02
3112.545, 6.6784836E-02
3114.474, 6.5449700E-02
3116.402, 6.6616647E-02
3118.331, 6.7630343E-02
3120.259, 6.7898050E-02
3122.188, 6.8012834E-02
3124.116, 6.6952527E-02
3126.044, 6.7648239E-02
3127.973, 6.7993097E-02
3129.901, 6.7281790E-02
3131.830, 6.7514353E-02
3133.758, 6.7492709E-02
3135.687, 6.7681663E-02
3137.615, 6.8390548E-02
3139.544, 6.9677569E-02
3141.472, 7.0210047E-02
3143.401, 7.0766307E-02
3145.329, 7.2544798E-02
3147.258, 7.2879083E-02
3149.186, 7.3089629E-02
3151.115, 7.3760018E-02
3153.043, 7.4803703E-02
3154.971, 7.5580977E-02
3156.900, 7.5647853E-02
3158.828, 7.6399103E-02
3160.757, 7.8441039E-02
3162.685, 8.0901861E-02
3164.614, 8.2130156E-02
3166.542, 8.3302394E-02
3168.471, 8.4523007E-02
3170.399, 8.4784240E-02
3172.328, 8.4977344E-02
3174.256, 8.6033598E-02
3176.185, 8.8841893E-02
3178.113, 9.1566093E-02
3180.042, 9.2244551E-02
3181.970, 9.1214247E-02
3183.898, 9.2557982E-02
3185.827, 9.6074820E-02
3187.755, 9.8483913E-02
3189.684, 9.7777493E-02
3191.612, 9.7236060E-02
3193.541, 9.9038653E-02
3195.469, 0.1007094
3197.398, 0.1020212
3199.326, 0.1026097
3201.255, 0.1021581
3203.183, 0.1016614
3205.112, 0.1015975
3207.040, 0.1013194
3208.969, 0.1006349
3210.897, 0.1003601
3212.825, 0.1010911
3214.754, 0.1015594
3216.682, 9.9716596E-02
3218.611, 9.7526640E-02
3220.539, 9.7131699E-02
3222.468, 9.5291823E-02
3224.396, 9.3011118E-02
3226.325, 9.1797739E-02
3228.253, 9.0737373E-02
3230.182, 9.0278633E-02
3232.110, 9.0342008E-02
3234.039, 8.9232102E-02
3235.967, 8.6332791E-02
3237.896, 8.6329363E-02
3239.824, 8.6543337E-02
3241.752, 8.4351517E-02
3243.681, 8.2610823E-02
3245.609, 8.1687316E-02
3247.538, 8.1545897E-02
3249.466, 7.9828963E-02
3251.395, 7.7868819E-02
3253.323, 7.7637441E-02
3255.252, 7.7838108E-02
3257.180, 7.8370310E-02
3259.109, 7.8251563E-02
3261.037, 7.7251777E-02
3262.966, 7.6628320E-02
3264.894, 7.5603247E-02
3266.823, 7.3849477E-02
3268.751, 7.2531000E-02
3270.679, 7.1761742E-02
3272.608, 7.2403647E-02
3274.536, 7.3413663E-02
3276.465, 7.2574213E-02
3278.393, 7.2743699E-02
3280.322, 7.3233813E-02
3282.250, 7.1950763E-02
3284.179, 7.0808381E-02
3286.107, 7.0260458E-02
3288.036, 6.9009170E-02
3289.964, 6.9808371E-02
3291.893, 6.8963751E-02
3293.821, 6.7301624E-02
3295.750, 6.7628577E-02
3297.678, 6.8982437E-02
3299.606, 7.0070483E-02
3301.535, 7.0357643E-02
3303.463, 7.0005961E-02
3305.392, 7.0400380E-02
3307.320, 7.0530407E-02
3309.249, 7.0784278E-02
3311.177, 6.8757899E-02
3313.106, 6.6850074E-02
3315.034, 6.7568019E-02
3316.963, 6.8616129E-02
3318.891, 6.8199843E-02
3320.820, 6.6765293E-02
3322.748, 6.9335438E-02
3324.677, 6.9274656E-02
3326.605, 6.7808248E-02
3328.533, 6.8101063E-02
3330.462, 6.8996422E-02
3332.390, 6.8154283E-02
3334.319, 6.7363508E-02
3336.247, 6.8938777E-02
3338.176, 7.0495032E-02
3340.104, 6.9843464E-02
3342.033, 6.8846293E-02
3343.961, 7.0606403E-02
3345.890, 7.1290523E-02
3347.818, 7.1106538E-02
3349.747, 7.0002928E-02
3351.675, 6.9865167E-02
3353.604, 7.0543453E-02
3355.532, 7.0756279E-02
3357.460, 7.2805792E-02
3359.389, 7.3903300E-02
3361.317, 7.4695744E-02
3363.246, 7.3488720E-02
3365.174, 7.2414078E-02
3367.103, 7.0827886E-02
3369.031, 7.3203392E-02
3370.960, 7.5994886E-02
3372.888, 7.5873584E-02
3374.817, 7.5377919E-02
3376.745, 7.5205572E-02
3378.674, 7.4818701E-02
3380.602, 7.4173443E-02
3382.531, 7.4753404E-02
3384.459, 7.7016696E-02
3386.387, 7.8383707E-02
3388.316, 7.8288972E-02
3390.244, 7.9700962E-02
3392.173, 7.7200532E-02
3394.101, 7.3874280E-02
3396.030, 7.5642772E-02
3397.958, 7.7837832E-02
3399.887, 7.7864550E-02
3401.815, 7.7385649E-02
3403.744, 7.6101549E-02
3405.672, 7.6612838E-02
3407.601, 7.6537907E-02
3409.529, 7.4620873E-02
3411.458, 7.5007968E-02
3413.386, 7.4431144E-02
3415.314, 7.2479889E-02
3417.243, 7.0931651E-02
3419.171, 7.1754083E-02
3421.100, 7.1722090E-02
3423.028, 7.0200510E-02
3424.957, 7.1095578E-02
3426.885, 7.0551753E-02
3428.814, 6.8453722E-02
3430.742, 6.5910257E-02
3432.671, 6.5060116E-02
3434.599, 6.5173469E-02
3436.528, 6.6457666E-02
3438.456, 6.6593587E-02
3440.385, 6.4825907E-02
3442.313, 6.4006530E-02
3444.241, 6.4659759E-02
3446.170, 6.4571142E-02
3448.098, 6.4313740E-02
3450.027, 6.3736133E-02
3451.955, 6.1229531E-02
3453.884, 6.1088629E-02
3455.812, 5.9831060E-02
3457.741, 5.6146272E-02
3459.669, 5.7529312E-02
3461.598, 5.8301508E-02
3463.526, 5.7479098E-02
3465.455, 5.5145390E-02
3467.383, 5.1297251E-02
3469.312, 5.3117540E-02
3471.240, 5.3970329E-02
3473.168, 5.0571728E-02
3475.097, 5.2196071E-02
3477.025, 5.3666651E-02
3478.954, 5.0786272E-02
3480.882, 4.9129471E-02
3482.811, 4.8219860E-02
3484.739, 4.5769390E-02
3486.668, 4.5243151E-02
3488.596, 4.5566540E-02
3490.525, 4.5681480E-02
3492.453, 4.5578521E-02
3494.382, 4.3931570E-02
3496.310, 4.1331138E-02
3498.239, 3.8792271E-02
3500.167, 3.8232461E-02
3502.095, 3.8538542E-02
3504.024, 4.0197428E-02
3505.952, 3.9598491E-02
3507.881, 3.7769262E-02
3509.809, 3.8055532E-02
3511.738, 3.7252299E-02
3513.666, 3.5645530E-02
3515.595, 3.4195710E-02
3517.523, 3.0874019E-02
3519.452, 2.9680301E-02
3521.380, 3.2730211E-02
3523.309, 3.3250809E-02
3525.237, 3.0869739E-02
3527.166, 3.2949720E-02
3529.094, 3.5031151E-02
3531.022, 3.1269740E-02
3532.951, 2.9847730E-02
3534.879, 3.2669749E-02
3536.808, 3.2936580E-02
3538.736, 3.0350391E-02
3540.665, 2.7894670E-02
3542.593, 2.8904781E-02
3544.522, 2.9329371E-02
3546.450, 2.6836431E-02
3548.379, 2.6576109E-02
3550.307, 2.5297569E-02
3552.236, 2.2909479E-02
3554.164, 2.3043239E-02
3556.093, 2.5333639E-02
3558.021, 2.7314151E-02
3559.949, 2.7026560E-02
3561.878, 2.6664490E-02
3563.806, 2.5132220E-02
3565.735, 2.4395140E-02
3567.663, 2.0846291E-02
3569.592, 1.8495031E-02
3571.520, 1.7792970E-02
3573.449, 1.6722640E-02
3575.377, 1.5453860E-02
3577.306, 2.1023739E-02
3579.234, 2.3465101E-02
3581.163, 2.2294400E-02
3583.091, 2.0709271E-02
3585.020, 1.9896530E-02
3586.948, 1.9583691E-02
3588.876, 2.0048380E-02
3590.805, 1.8282279E-02
3592.733, 1.5967550E-02
3594.662, 1.4764980E-02
3596.590, 1.4329170E-02
3598.519, 1.4868090E-02
3600.447, 1.5554990E-02
3602.376, 1.7149420E-02
3604.304, 1.8297359E-02
3606.233, 1.7833199E-02
3608.161, 1.5988650E-02
3610.090, 1.2909420E-02
3612.018, 1.4335320E-02
3613.947, 1.9286500E-02
3615.875, 1.9443311E-02
3617.803, 1.4658320E-02
3619.732, 1.1412250E-02
3621.660, 1.3352540E-02
3623.589, 1.3683840E-02
3625.517, 1.2158730E-02
3627.446, 1.1318530E-02
3629.374, 1.1851160E-02
3631.303, 1.1314570E-02
3633.231, 1.1260680E-02
3635.160, 1.2526600E-02
3637.088, 1.2135240E-02
3639.017, 1.0611570E-02
3640.945, 1.0597520E-02
3642.874, 1.1821660E-02
3644.802, 1.2513330E-02
3646.730, 1.3954560E-02
3648.659, 1.3113050E-02
3650.587, 1.1393420E-02
3652.516, 1.2469550E-02
3654.444, 1.2835710E-02
3656.373, 1.4195210E-02
3658.301, 1.5482380E-02
3660.230, 1.7615760E-02
3662.158, 1.8556930E-02
3664.087, 1.4610820E-02
3666.015, 1.3887190E-02
3667.944, 1.5589580E-02
3669.872, 1.4453750E-02
3671.801, 1.1922650E-02
3673.729, 1.1609220E-02
3675.657, 1.4640250E-02
3677.586, 1.8320519E-02
3679.514, 1.8438160E-02
3681.443, 2.0426109E-02
3683.371, 2.6915930E-02
3685.300, 3.5046160E-02
3687.228, 4.5808710E-02
3689.157, 6.5782793E-02
3691.085, 8.4994189E-02
3693.014, 7.6265164E-02
3694.942, 4.9203221E-02
3696.871, 2.9672490E-02
3698.799, 2.5142411E-02
3700.728, 2.4119191E-02
3702.656, 2.1041309E-02
3704.584, 1.6747929E-02
3706.513, 1.4895150E-02
3708.441, 1.3493680E-02
3710.370, 1.1162140E-02
3712.298, 1.2419650E-02
3714.227, 1.2518620E-02
3716.155, 9.8742396E-03
3718.084, 1.0629440E-02
3720.012, 1.2902870E-02
3721.941, 1.2028920E-02
3723.869, 1.1469530E-02
3725.798, 1.4677130E-02
3727.726, 1.5602710E-02
3729.655, 1.3386440E-02
3731.583, 1.3996750E-02
3733.511, 1.3443940E-02
3735.440, 1.2316850E-02
3737.368, 9.4207227E-03
3739.297, 7.3307161E-03
3741.225, 6.6927089E-03
3743.154, 1.0264090E-02
3745.082, 1.3514260E-02
3747.011, 1.2658520E-02
3748.939, 1.0195830E-02
3750.868, 1.0166180E-02
3752.796, 1.4082340E-02
3754.725, 1.4054440E-02
3756.653, 1.3614260E-02
3758.582, 1.6854500E-02
3760.510, 1.4223400E-02
3762.438, 8.9366799E-03
3764.367, 7.9346308E-03
3766.295, 1.1131980E-02
3768.224, 1.2890120E-02
3770.152, 1.3097430E-02
3772.081, 8.9045390E-03
3774.009, 7.4427342E-03
3775.938, 1.0970790E-02
3777.866, 1.2688330E-02
3779.795, 1.1659810E-02
3781.723, 1.1672700E-02
3783.652, 9.9563384E-03
3785.580, 1.1400270E-02
3787.509, 1.4710020E-02
3789.437, 1.6098090E-02
3791.365, 1.5537930E-02
3793.294, 1.2759270E-02
3795.222, 1.2145540E-02
3797.151, 1.4178470E-02
3799.079, 1.6186850E-02
3801.008, 1.6841421E-02
3802.936, 1.5713830E-02
3804.865, 1.5235040E-02
3806.793, 1.5917219E-02
3808.722, 1.5047350E-02
3810.650, 1.3257850E-02
3812.579, 1.4652280E-02
3814.507, 1.4745760E-02
3816.436, 1.3218190E-02
3818.364, 1.2798210E-02
3820.292, 1.3184600E-02
3822.221, 1.3957620E-02
3824.149, 1.4587700E-02
3826.078, 1.3263340E-02
3828.006, 1.3294710E-02
3829.935, 1.4588140E-02
3831.863, 1.3243980E-02
3833.792, 1.1910050E-02
3835.720, 1.2489610E-02
3837.649, 1.1663610E-02
3839.577, 1.0333010E-02
3841.506, 9.9286633E-03
3843.434, 1.0542920E-02
3845.363, 1.0750800E-02
3847.291, 1.2434300E-02
3849.219, 1.2620050E-02
3851.148, 1.5483080E-02
3853.076, 1.8277070E-02
3855.005, 2.0238070E-02
3856.933, 2.0788699E-02
3858.862, 1.6848991E-02
3860.790, 1.2909600E-02
3862.719, 1.4250330E-02
3864.647, 1.6443070E-02
3866.576, 1.5512520E-02
3868.504, 1.0966190E-02
3870.433, 9.4507160E-03
3872.361, 1.0851210E-02
3874.290, 1.5086310E-02
3876.218, 1.3958070E-02
3878.146, 1.1332820E-02
3880.075, 1.1439020E-02
3882.003, 1.4167240E-02
3883.932, 1.7707240E-02
3885.860, 1.7977450E-02
3887.789, 1.6660569E-02
3889.717, 1.5569340E-02
3891.646, 1.4411530E-02
3893.574, 1.3515790E-02
3895.503, 1.2674640E-02
3897.431, 1.2840700E-02
3899.360, 1.2547260E-02
3901.288, 1.5152180E-02
3903.217, 1.9055910E-02
3905.145, 1.5519700E-02
3907.073, 1.2089600E-02
3909.002, 1.2292940E-02
3910.930, 1.3188130E-02
3912.859, 1.3431400E-02
3914.787, 1.3598320E-02
3916.716, 1.4672050E-02
3918.644, 1.6536331E-02
3920.573, 1.5703980E-02
3922.501, 1.4749830E-02
3924.430, 1.5988100E-02
3926.358, 1.6479420E-02
3928.287, 1.7322920E-02
3930.215, 1.7737441E-02
3932.144, 1.5399670E-02
3934.072, 1.5278590E-02
3936.000, 1.7062901E-02
3937.929, 1.7768171E-02
3939.857, 1.6690170E-02
3941.786, 1.6510019E-02
3943.714, 1.8096400E-02
3945.643, 1.5820500E-02
3947.571, 1.5701240E-02
3949.500, 1.5845610E-02
3951.428, 1.3988120E-02
3953.357, 1.4637290E-02
3955.285, 1.4977940E-02
3957.214, 1.2494880E-02
3959.142, 1.2833600E-02
3961.071, 1.4147040E-02
3962.999, 1.2596870E-02
3964.927, 1.0001990E-02
3966.856, 1.1019700E-02
3968.784, 1.3551400E-02
3970.713, 1.4911480E-02
3972.641, 1.3423950E-02
3974.570, 1.2924070E-02
3976.498, 1.6172430E-02
3978.427, 1.9134499E-02
3980.355, 1.6490070E-02
3982.284, 1.1803850E-02
3984.212, 9.9241026E-03
3986.141, 1.2964630E-02
3988.069, 1.7318649E-02
3989.998, 1.7359210E-02
3991.926, 1.5333930E-02
3993.854, 1.0981240E-02
3995.783, 1.2894210E-02
3997.711, 1.6724469E-02
3999.640, 1.6732531E-02
##END=



