##NAMES=Lamprophyllite
##RRUFFID=R070284
##IDEAL CHEMISTRY=(SrNa)Ti^4+^_2_Na_3_Ti^4+^(Si_2_O_7_)_2_O_2_(OH)_2_
##LOCALITY=Lovozero Massif,  Kola Peninsula,  Murmanskaja Oblast',  Northern Region,  Russia
##OWNER=RRUFF
##SOURCE=Michael Scott
##DESCRIPTION=Stellate groups of transparent brown bladed crystals
##STATUS=The identification of this mineral has been confirmed by X-ray diffraction and chemical analysis
##URL=rruff.info/R070284
##MEASURED CHEMISTRY=(Na_2.35_Mn_0.36_Mg_0.17_Ca_0.12_)(Sr_1.08_Na_0.35_K_0.09_Ba_0.01_)(Ti_2.80_Fe_0.26_Al_0.02_)Si_3.87_O_16_[(OH)_1.14_F_0.86_]
3.741225e+002, 1.141369e-001
3.760510e+002, 1.203773e-001
3.779795e+002, 1.281840e-001
3.799079e+002, 1.312712e-001
3.818364e+002, 1.258607e-001
3.837649e+002, 1.193595e-001
3.856933e+002, 1.222126e-001
3.876218e+002, 1.256028e-001
3.895503e+002, 1.253044e-001
3.914787e+002, 1.255747e-001
3.934072e+002, 1.212881e-001
3.953357e+002, 1.244824e-001
3.972641e+002, 1.238799e-001
3.991926e+002, 1.174746e-001
4.011211e+002, 1.211736e-001
4.030495e+002, 1.221771e-001
4.049780e+002, 1.214415e-001
4.069065e+002, 1.227685e-001
4.088349e+002, 1.190760e-001
4.107634e+002, 1.173171e-001
4.126919e+002, 1.158732e-001
4.146203e+002, 1.129256e-001
4.165488e+002, 1.106004e-001
4.184773e+002, 1.076449e-001
4.204057e+002, 1.045809e-001
4.223342e+002, 1.037529e-001
4.242627e+002, 1.020467e-001
4.261911e+002, 9.932514e-002
4.281196e+002, 9.730019e-002
4.300481e+002, 9.446340e-002
4.319765e+002, 9.201989e-002
4.339050e+002, 9.097336e-002
4.358335e+002, 9.041390e-002
4.377619e+002, 8.811758e-002
4.396904e+002, 8.572166e-002
4.416189e+002, 8.459857e-002
4.435473e+002, 8.381005e-002
4.454758e+002, 8.228049e-002
4.474043e+002, 8.156607e-002
4.493327e+002, 8.108304e-002
4.512612e+002, 8.107541e-002
4.531897e+002, 8.073501e-002
4.551181e+002, 8.013305e-002
4.570466e+002, 8.068598e-002
4.589751e+002, 8.137330e-002
4.609035e+002, 8.181843e-002
4.628320e+002, 8.090892e-002
4.647605e+002, 7.808281e-002
4.666889e+002, 7.428312e-002
4.686174e+002, 7.044712e-002
4.705459e+002, 6.674425e-002
4.724743e+002, 6.377071e-002
4.744028e+002, 6.061580e-002
4.763313e+002, 5.704748e-002
4.782597e+002, 5.398377e-002
4.801882e+002, 5.161689e-002
4.821167e+002, 4.972332e-002
4.840451e+002, 4.867998e-002
4.859736e+002, 4.836508e-002
4.879021e+002, 4.883120e-002
4.898305e+002, 4.987245e-002
4.917590e+002, 5.154761e-002
4.936875e+002, 5.367583e-002
4.956159e+002, 5.632159e-002
4.975444e+002, 5.918587e-002
4.994729e+002, 6.224956e-002
5.014013e+002, 6.492823e-002
5.033298e+002, 6.656348e-002
5.052583e+002, 6.743023e-002
5.071867e+002, 6.829379e-002
5.091152e+002, 6.910265e-002
5.110437e+002, 7.012259e-002
5.129721e+002, 7.121375e-002
5.149006e+002, 7.253765e-002
5.168290e+002, 7.406406e-002
5.187575e+002, 7.583385e-002
5.206860e+002, 7.788860e-002
5.226144e+002, 7.988544e-002
5.245429e+002, 8.150582e-002
5.264714e+002, 8.300763e-002
5.283998e+002, 8.467500e-002
5.303283e+002, 8.577494e-002
5.322568e+002, 8.681673e-002
5.341852e+002, 8.818795e-002
5.361137e+002, 8.991903e-002
5.380422e+002, 9.127677e-002
5.399706e+002, 9.242538e-002
5.418991e+002, 9.406096e-002
5.438276e+002, 9.602430e-002
5.457560e+002, 9.799307e-002
5.476845e+002, 1.004104e-001
5.496130e+002, 1.023950e-001
5.515414e+002, 1.040789e-001
5.534699e+002, 1.053429e-001
5.553984e+002, 1.058265e-001
5.573268e+002, 1.057350e-001
5.592553e+002, 1.053388e-001
5.611838e+002, 1.038148e-001
5.631122e+002, 1.019995e-001
5.650407e+002, 1.001377e-001
5.669692e+002, 9.765042e-002
5.688976e+002, 9.501527e-002
5.708261e+002, 9.215491e-002
5.727546e+002, 8.909892e-002
5.746830e+002, 8.622602e-002
5.766115e+002, 8.330639e-002
5.785400e+002, 8.015592e-002
5.804684e+002, 7.678510e-002
5.823969e+002, 7.318271e-002
5.843254e+002, 6.959383e-002
5.862538e+002, 6.641240e-002
5.881823e+002, 6.302255e-002
5.901108e+002, 5.968007e-002
5.920392e+002, 5.658044e-002
5.939677e+002, 5.368163e-002
5.958962e+002, 5.100073e-002
5.978246e+002, 4.839642e-002
5.997531e+002, 4.601455e-002
6.016816e+002, 4.388021e-002
6.036100e+002, 4.196152e-002
6.055385e+002, 4.036530e-002
6.074670e+002, 3.870415e-002
6.093954e+002, 3.689237e-002
6.113239e+002, 3.552831e-002
6.132524e+002, 3.451757e-002
6.151808e+002, 3.374225e-002
6.171093e+002, 3.299357e-002
6.190378e+002, 3.239410e-002
6.209662e+002, 3.209782e-002
6.228947e+002, 3.210446e-002
6.248232e+002, 3.223288e-002
6.267516e+002, 3.249171e-002
6.286801e+002, 3.285572e-002
6.306086e+002, 3.303146e-002
6.325370e+002, 3.340005e-002
6.344655e+002, 3.396896e-002
6.363940e+002, 3.449859e-002
6.383224e+002, 3.506644e-002
6.402509e+002, 3.576448e-002
6.421794e+002, 3.662279e-002
6.441078e+002, 3.747629e-002
6.460363e+002, 3.827307e-002
6.479648e+002, 3.915749e-002
6.498932e+002, 4.017758e-002
6.518217e+002, 4.137274e-002
6.537502e+002, 4.262145e-002
6.556786e+002, 4.374042e-002
6.576071e+002, 4.476398e-002
6.595356e+002, 4.586054e-002
6.614641e+002, 4.723632e-002
6.633925e+002, 4.871339e-002
6.653210e+002, 5.001909e-002
6.672495e+002, 5.124166e-002
6.691779e+002, 5.249843e-002
6.711064e+002, 5.386347e-002
6.730349e+002, 5.519246e-002
6.749633e+002, 5.642780e-002
6.768918e+002, 5.769872e-002
6.788203e+002, 5.889207e-002
6.807487e+002, 5.993852e-002
6.826772e+002, 6.110366e-002
6.846057e+002, 6.215274e-002
6.865341e+002, 6.293751e-002
6.884626e+002, 6.376204e-002
6.903911e+002, 6.462950e-002
6.923195e+002, 6.521715e-002
6.942480e+002, 6.574532e-002
6.961765e+002, 6.620771e-002
6.981049e+002, 6.656416e-002
7.000334e+002, 6.642444e-002
7.019619e+002, 6.571600e-002
7.038903e+002, 6.433962e-002
7.058188e+002, 6.221817e-002
7.077473e+002, 5.970222e-002
7.096757e+002, 5.721520e-002
7.116042e+002, 5.496175e-002
7.135327e+002, 5.307783e-002
7.154611e+002, 5.182838e-002
7.173896e+002, 5.130208e-002
7.193181e+002, 5.157262e-002
7.212465e+002, 5.263131e-002
7.231750e+002, 5.403614e-002
7.251035e+002, 5.570174e-002
7.270319e+002, 5.755592e-002
7.289604e+002, 5.949818e-002
7.308889e+002, 6.147472e-002
7.328173e+002, 6.356030e-002
7.347458e+002, 6.575471e-002
7.366743e+002, 6.784486e-002
7.386027e+002, 6.980743e-002
7.405312e+002, 7.195143e-002
7.424597e+002, 7.417812e-002
7.443881e+002, 7.627303e-002
7.463166e+002, 7.828533e-002
7.482451e+002, 8.031932e-002
7.501735e+002, 8.237465e-002
7.521020e+002, 8.439969e-002
7.540305e+002, 8.631232e-002
7.559589e+002, 8.811466e-002
7.578874e+002, 8.997404e-002
7.598159e+002, 9.174427e-002
7.617443e+002, 9.355734e-002
7.636728e+002, 9.540199e-002
7.656013e+002, 9.715256e-002
7.675297e+002, 9.898560e-002
7.694582e+002, 1.007352e-001
7.713867e+002, 1.024339e-001
7.733151e+002, 1.041822e-001
7.752436e+002, 1.057831e-001
7.771721e+002, 1.074454e-001
7.791005e+002, 1.093117e-001
7.810290e+002, 1.109245e-001
7.829575e+002, 1.123562e-001
7.848859e+002, 1.139792e-001
7.868144e+002, 1.154075e-001
7.887429e+002, 1.169699e-001
7.906713e+002, 1.186300e-001
7.925998e+002, 1.198688e-001
7.945283e+002, 1.210955e-001
7.964567e+002, 1.225309e-001
7.983852e+002, 1.239943e-001
8.003137e+002, 1.254929e-001
8.022421e+002, 1.271677e-001
8.041706e+002, 1.286885e-001
8.060991e+002, 1.301856e-001
8.080275e+002, 1.319302e-001
8.099560e+002, 1.337726e-001
8.118845e+002, 1.355413e-001
8.138129e+002, 1.374603e-001
8.157414e+002, 1.394529e-001
8.176699e+002, 1.414223e-001
8.195983e+002, 1.434850e-001
8.215268e+002, 1.456084e-001
8.234553e+002, 1.477900e-001
8.253837e+002, 1.500686e-001
8.273122e+002, 1.523481e-001
8.292407e+002, 1.546361e-001
8.311691e+002, 1.567247e-001
8.330976e+002, 1.588446e-001
8.350261e+002, 1.609525e-001
8.369545e+002, 1.628510e-001
8.388830e+002, 1.647380e-001
8.408115e+002, 1.665110e-001
8.427399e+002, 1.681768e-001
8.446684e+002, 1.695011e-001
8.465969e+002, 1.702299e-001
8.485253e+002, 1.706185e-001
8.504538e+002, 1.709334e-001
8.523823e+002, 1.712572e-001
8.543107e+002, 1.714175e-001
8.562392e+002, 1.717933e-001
8.581677e+002, 1.727222e-001
8.600961e+002, 1.740229e-001
8.620246e+002, 1.755178e-001
8.639531e+002, 1.768354e-001
8.658815e+002, 1.779531e-001
8.678100e+002, 1.786521e-001
8.697385e+002, 1.786689e-001
8.716669e+002, 1.779813e-001
8.735954e+002, 1.765036e-001
8.755239e+002, 1.745377e-001
8.774523e+002, 1.722975e-001
8.793808e+002, 1.697134e-001
8.813093e+002, 1.672442e-001
8.832377e+002, 1.651741e-001
8.851662e+002, 1.634563e-001
8.870947e+002, 1.620249e-001
8.890231e+002, 1.611029e-001
8.909516e+002, 1.607026e-001
8.928801e+002, 1.605603e-001
8.948085e+002, 1.609919e-001
8.967370e+002, 1.619072e-001
8.986655e+002, 1.633344e-001
9.005939e+002, 1.651357e-001
9.025224e+002, 1.671345e-001
9.044509e+002, 1.691160e-001
9.063793e+002, 1.709893e-001
9.083078e+002, 1.726699e-001
9.102363e+002, 1.741400e-001
9.121647e+002, 1.754375e-001
9.140932e+002, 1.764888e-001
9.160217e+002, 1.771471e-001
9.179501e+002, 1.776931e-001
9.198786e+002, 1.779309e-001
9.218071e+002, 1.779847e-001
9.237355e+002, 1.778775e-001
9.256640e+002, 1.774814e-001
9.275925e+002, 1.769718e-001
9.295209e+002, 1.764455e-001
9.314494e+002, 1.757116e-001
9.333779e+002, 1.747796e-001
9.353063e+002, 1.737068e-001
9.372348e+002, 1.727464e-001
9.391633e+002, 1.715687e-001
9.410917e+002, 1.701244e-001
9.430202e+002, 1.686479e-001
9.449487e+002, 1.667878e-001
9.468771e+002, 1.644993e-001
9.488056e+002, 1.621477e-001
9.507341e+002, 1.598924e-001
9.526625e+002, 1.575092e-001
9.545910e+002, 1.549858e-001
9.565195e+002, 1.522004e-001
9.584479e+002, 1.488599e-001
9.603764e+002, 1.451048e-001
9.623049e+002, 1.410319e-001
9.642333e+002, 1.366384e-001
9.661618e+002, 1.320639e-001
9.680903e+002, 1.273067e-001
9.700187e+002, 1.224810e-001
9.719472e+002, 1.176134e-001
9.738757e+002, 1.127820e-001
9.758041e+002, 1.081806e-001
9.777326e+002, 1.036234e-001
9.796611e+002, 9.926309e-002
9.815895e+002, 9.544272e-002
9.835180e+002, 9.210974e-002
9.854465e+002, 8.934289e-002
9.873749e+002, 8.708878e-002
9.893034e+002, 8.543525e-002
9.912319e+002, 8.444571e-002
9.931603e+002, 8.384456e-002
9.950888e+002, 8.363671e-002
9.970173e+002, 8.365563e-002
9.989457e+002, 8.389116e-002
1.000874e+003, 8.412040e-002
1.002803e+003, 8.405933e-002
1.004731e+003, 8.370456e-002
1.006660e+003, 8.304098e-002
1.008588e+003, 8.203153e-002
1.010517e+003, 8.054266e-002
1.012445e+003, 7.873166e-002
1.014373e+003, 7.662499e-002
1.016302e+003, 7.417917e-002
1.018230e+003, 7.162634e-002
1.020159e+003, 6.903106e-002
1.022087e+003, 6.653994e-002
1.024016e+003, 6.420217e-002
1.025944e+003, 6.201420e-002
1.027873e+003, 6.004402e-002
1.029801e+003, 5.833647e-002
1.031730e+003, 5.674415e-002
1.033658e+003, 5.534833e-002
1.035587e+003, 5.390389e-002
1.037515e+003, 5.258314e-002
1.039443e+003, 5.142316e-002
1.041372e+003, 5.006628e-002
1.043300e+003, 4.844452e-002
1.045229e+003, 4.679939e-002
1.047157e+003, 4.501866e-002
1.049086e+003, 4.311007e-002
1.051014e+003, 4.136897e-002
1.052943e+003, 3.967474e-002
1.054871e+003, 3.776947e-002
1.056800e+003, 3.588393e-002
1.058728e+003, 3.421669e-002
1.060657e+003, 3.272790e-002
1.062585e+003, 3.117864e-002
1.064514e+003, 2.954442e-002
1.066442e+003, 2.789245e-002
1.068370e+003, 2.627280e-002
1.070299e+003, 2.494569e-002
1.072227e+003, 2.366021e-002
1.074156e+003, 2.218029e-002
1.076084e+003, 2.071078e-002
1.078013e+003, 1.948655e-002
1.079941e+003, 1.841837e-002
1.081870e+003, 1.725947e-002
1.083798e+003, 1.616030e-002
1.085727e+003, 1.512158e-002
1.087655e+003, 1.415360e-002
1.089584e+003, 1.335880e-002
1.091512e+003, 1.260742e-002
1.093441e+003, 1.179700e-002
1.095369e+003, 1.102633e-002
1.097297e+003, 1.036498e-002
1.099226e+003, 9.862809e-003
1.101154e+003, 9.394206e-003
1.103083e+003, 8.982117e-003
1.105011e+003, 8.598807e-003
1.106940e+003, 8.320631e-003
1.108868e+003, 8.014938e-003
1.110797e+003, 7.764893e-003
1.112725e+003, 7.492096e-003
1.114654e+003, 7.192760e-003
1.116582e+003, 6.789283e-003
1.118511e+003, 6.567410e-003
1.120439e+003, 6.303848e-003
1.122368e+003, 6.015550e-003
1.124296e+003, 5.807679e-003
1.126224e+003, 5.610517e-003
1.128153e+003, 5.473854e-003
1.130081e+003, 5.290516e-003
1.132010e+003, 4.994048e-003
1.133938e+003, 4.846128e-003
1.135867e+003, 4.795004e-003
1.137795e+003, 4.625970e-003
1.139724e+003, 4.399969e-003
1.141652e+003, 4.162339e-003
1.143581e+003, 3.898795e-003
1.145509e+003, 3.757500e-003
1.147438e+003, 3.641487e-003
1.149366e+003, 3.512053e-003
1.151295e+003, 3.464088e-003
1.153223e+003, 3.429492e-003
1.155151e+003, 3.227166e-003
1.157080e+003, 3.080624e-003
1.159008e+003, 2.931343e-003
1.160937e+003, 2.889987e-003
1.162865e+003, 2.806828e-003
1.164794e+003, 2.738721e-003
1.166722e+003, 2.743605e-003
1.168651e+003, 2.660082e-003
1.170579e+003, 2.404671e-003
1.172508e+003, 2.233907e-003
1.174436e+003, 2.225934e-003
1.176365e+003, 2.177446e-003
1.178293e+003, 2.118247e-003
1.180222e+003, 2.091557e-003
1.182150e+003, 2.016715e-003
1.184078e+003, 1.941747e-003
1.186007e+003, 1.919862e-003
1.187935e+003, 1.887072e-003
1.189864e+003, 1.871340e-003
1.191792e+003, 1.784099e-003
1.193721e+003, 1.660829e-003
1.195649e+003, 1.600840e-003
1.197578e+003, 1.595143e-003
1.199506e+003, 1.671231e-003
1.201435e+003, 1.751001e-003
1.203363e+003, 1.730488e-003
1.205292e+003, 1.608943e-003
1.207220e+003, 1.516273e-003
1.209149e+003, 1.499169e-003
1.211077e+003, 1.520957e-003
1.213005e+003, 1.531803e-003
1.214934e+003, 1.553335e-003
1.216862e+003, 1.624995e-003
1.218791e+003, 1.659897e-003
1.220719e+003, 1.609333e-003
1.222648e+003, 1.525087e-003
1.224576e+003, 1.419914e-003
1.226505e+003, 1.426959e-003
1.228433e+003, 1.450752e-003
1.230362e+003, 1.425315e-003
1.232290e+003, 1.456125e-003
1.234219e+003, 1.512207e-003
1.236147e+003, 1.448444e-003
1.238076e+003, 1.468721e-003
1.240004e+003, 1.501208e-003
1.241932e+003, 1.468633e-003
1.243861e+003, 1.412068e-003
1.245789e+003, 1.428991e-003
1.247718e+003, 1.523316e-003
1.249646e+003, 1.599585e-003
1.251575e+003, 1.594359e-003
1.253503e+003, 1.492353e-003
1.255432e+003, 1.519385e-003
1.257360e+003, 1.652081e-003
1.259289e+003, 1.718902e-003
1.261217e+003, 1.730045e-003
1.263146e+003, 1.670849e-003
1.265074e+003, 1.617105e-003
1.267003e+003, 1.680498e-003
1.268931e+003, 1.733540e-003
1.270859e+003, 1.836380e-003
1.272788e+003, 1.949616e-003
1.274716e+003, 1.812291e-003
1.276645e+003, 1.727190e-003
1.278573e+003, 1.790445e-003
1.280502e+003, 1.900931e-003
1.282430e+003, 1.917523e-003
1.284359e+003, 1.888765e-003
1.286287e+003, 1.888907e-003
1.288216e+003, 1.876792e-003
1.290144e+003, 1.867121e-003
1.292073e+003, 1.917163e-003
1.294001e+003, 1.935814e-003
1.295930e+003, 1.888935e-003
1.297858e+003, 1.907581e-003
1.299786e+003, 2.005450e-003
1.301715e+003, 2.113270e-003
1.303643e+003, 2.085922e-003
1.305572e+003, 2.093349e-003
1.307500e+003, 2.190242e-003
1.309429e+003, 2.227620e-003
1.311357e+003, 2.211665e-003
1.313286e+003, 2.186392e-003
1.315214e+003, 2.202245e-003
1.317143e+003, 2.191368e-003
1.319071e+003, 2.237662e-003
1.321000e+003, 2.302059e-003
1.322928e+003, 2.382047e-003
1.324857e+003, 2.447455e-003
1.326785e+003, 2.427001e-003
1.328714e+003, 2.354269e-003
1.330642e+003, 2.319925e-003
1.332570e+003, 2.401891e-003
1.334499e+003, 2.476413e-003
1.336427e+003, 2.455445e-003
1.338356e+003, 2.457384e-003
1.340284e+003, 2.458250e-003
1.342213e+003, 2.622142e-003
1.344141e+003, 2.774726e-003
1.346070e+003, 2.861483e-003
1.347998e+003, 2.889910e-003
1.349927e+003, 2.990155e-003
1.351855e+003, 3.045078e-003
1.353784e+003, 3.046626e-003
1.355712e+003, 3.033221e-003
1.357641e+003, 3.193101e-003
1.359569e+003, 3.173768e-003
1.361497e+003, 3.017644e-003
1.363426e+003, 2.977421e-003
1.365354e+003, 3.302085e-003
1.367283e+003, 3.452639e-003
1.369211e+003, 3.409688e-003
1.371140e+003, 3.394203e-003
1.373068e+003, 3.361093e-003
1.374997e+003, 3.452184e-003
1.376925e+003, 3.714235e-003
1.378854e+003, 3.879532e-003
1.380782e+003, 3.885695e-003
1.382711e+003, 3.899837e-003
1.384639e+003, 3.778717e-003
1.386568e+003, 3.490015e-003
1.388496e+003, 3.704156e-003
1.390424e+003, 4.121438e-003
1.392353e+003, 4.101142e-003
1.394281e+003, 3.848872e-003
1.396210e+003, 4.083253e-003
1.398138e+003, 4.182038e-003
1.400067e+003, 4.298147e-003
1.401995e+003, 4.501150e-003
1.403924e+003, 4.388181e-003
1.405852e+003, 4.499221e-003
1.407781e+003, 4.781570e-003
1.409709e+003, 4.799560e-003
1.411638e+003, 4.784252e-003
1.413566e+003, 4.828364e-003
1.415495e+003, 4.717682e-003
1.417423e+003, 4.126142e-003
1.419351e+003, 3.704378e-003
1.421280e+003, 4.390351e-003
1.423208e+003, 4.792150e-003
1.425137e+003, 4.840950e-003
1.427065e+003, 4.905929e-003
1.428994e+003, 4.848468e-003
1.430922e+003, 4.839004e-003
1.432851e+003, 4.828587e-003
1.434779e+003, 4.397243e-003
1.436708e+003, 3.937245e-003
1.438636e+003, 4.633866e-003
1.440565e+003, 5.116465e-003
1.442493e+003, 5.144999e-003
1.444422e+003, 5.179093e-003
1.446350e+003, 5.104062e-003
1.448278e+003, 4.890105e-003
1.450207e+003, 5.033241e-003
1.452135e+003, 4.973637e-003
1.454064e+003, 4.510060e-003
1.455992e+003, 3.134766e-003
1.457921e+003, 3.270445e-003
1.459849e+003, 4.569270e-003
1.461778e+003, 4.940127e-003
1.463706e+003, 4.518525e-003
1.465635e+003, 4.535581e-003
1.467563e+003, 4.906803e-003
1.469492e+003, 4.523635e-003
1.471420e+003, 3.560515e-003
1.473349e+003, 3.217222e-003
1.475277e+003, 3.787248e-003
1.477205e+003, 4.262279e-003
1.479134e+003, 4.568965e-003
1.481062e+003, 4.507857e-003
1.482991e+003, 4.547772e-003
1.484919e+003, 4.445576e-003
1.486848e+003, 4.090318e-003
1.488776e+003, 3.831777e-003
1.490705e+003, 3.963951e-003
1.492633e+003, 4.433363e-003
1.494562e+003, 4.118217e-003
1.496490e+003, 3.517774e-003
1.498419e+003, 3.789174e-003
1.500347e+003, 4.213360e-003
1.502276e+003, 4.415395e-003
1.504204e+003, 3.335544e-003
1.506132e+003, 1.729971e-003
1.508061e+003, 2.527262e-003
1.509989e+003, 3.860154e-003
1.511918e+003, 4.063002e-003
1.513846e+003, 4.073635e-003
1.515775e+003, 3.856656e-003
1.517703e+003, 3.806328e-003
1.519632e+003, 3.296679e-003
1.521560e+003, 2.743497e-003
1.523489e+003, 3.574285e-003
1.525417e+003, 3.949319e-003
1.527346e+003, 4.306038e-003
1.529274e+003, 4.746248e-003
1.531203e+003, 4.668692e-003
1.533131e+003, 4.131969e-003
1.535059e+003, 4.480157e-003
1.536988e+003, 4.182438e-003
1.538916e+003, 2.515552e-003
1.540845e+003, 2.559550e-003
1.542773e+003, 3.903960e-003
1.544702e+003, 4.772685e-003
1.546630e+003, 5.491319e-003
1.548559e+003, 5.876583e-003
1.550487e+003, 6.009484e-003
1.552416e+003, 5.895267e-003
1.554344e+003, 5.484438e-003
1.556273e+003, 4.911273e-003
1.558201e+003, 3.109965e-003
1.560130e+003, 3.548464e-003
1.562058e+003, 5.727296e-003
1.563986e+003, 6.316747e-003
1.565915e+003, 6.394505e-003
1.567843e+003, 6.078589e-003
1.569772e+003, 5.779183e-003
1.571700e+003, 6.428749e-003
1.573629e+003, 6.270545e-003
1.575557e+003, 4.922388e-003
1.577486e+003, 5.467454e-003
1.579414e+003, 6.645699e-003
1.581343e+003, 6.758311e-003
1.583271e+003, 6.713946e-003
1.585200e+003, 6.610909e-003
1.587128e+003, 6.599838e-003
1.589057e+003, 6.576973e-003
1.590985e+003, 6.595386e-003
1.592913e+003, 6.508804e-003
1.594842e+003, 6.462330e-003
1.596770e+003, 6.458662e-003
1.598699e+003, 6.419627e-003
1.600627e+003, 6.358109e-003
1.602556e+003, 6.315292e-003
1.604484e+003, 6.231053e-003
1.606413e+003, 6.191337e-003
1.608341e+003, 6.049963e-003
1.610270e+003, 6.043493e-003
1.612198e+003, 6.158449e-003
1.614127e+003, 5.750377e-003
1.616055e+003, 4.486508e-003
1.617984e+003, 4.900899e-003
1.619912e+003, 5.950461e-003
1.621840e+003, 5.646862e-003
1.623769e+003, 5.540559e-003
1.625697e+003, 5.866767e-003
1.627626e+003, 6.000334e-003
1.629554e+003, 6.205248e-003
1.631483e+003, 6.346975e-003
1.633411e+003, 5.659270e-003
1.635340e+003, 4.686918e-003
1.637268e+003, 5.317058e-003
1.639197e+003, 6.148661e-003
1.641125e+003, 6.135272e-003
1.643054e+003, 5.916062e-003
1.644982e+003, 4.962205e-003
1.646911e+003, 4.494464e-003
1.648839e+003, 5.182812e-003
1.650767e+003, 4.147969e-003
1.652696e+003, 1.748056e-003
1.654624e+003, 3.328080e-003
1.656553e+003, 5.598598e-003
1.658481e+003, 5.961528e-003
1.660410e+003, 5.592670e-003
1.662338e+003, 5.254150e-003
1.664267e+003, 5.579376e-003
1.666195e+003, 5.768682e-003
1.668124e+003, 5.049156e-003
1.670052e+003, 4.837930e-003
1.671981e+003, 5.304270e-003
1.673909e+003, 4.810411e-003
1.675838e+003, 4.513619e-003
1.677766e+003, 5.348103e-003
1.679694e+003, 5.431232e-003
1.681623e+003, 4.804310e-003
1.683551e+003, 2.890629e-003
1.685480e+003, 3.130417e-003
1.687408e+003, 4.899354e-003
1.689337e+003, 5.192338e-003
1.691265e+003, 5.369119e-003
1.693194e+003, 5.071767e-003
1.695122e+003, 3.443562e-003
1.697051e+003, 3.520360e-003
1.698979e+003, 3.174033e-003
1.700908e+003, 2.812989e-003
1.702836e+003, 4.506801e-003
1.704765e+003, 4.778832e-003
1.706693e+003, 4.983584e-003
1.708621e+003, 5.204803e-003
1.710550e+003, 5.286422e-003
1.712478e+003, 5.005904e-003
1.714407e+003, 4.428386e-003
1.716335e+003, 3.261575e-003
1.718264e+003, 3.345070e-003
1.720192e+003, 4.753472e-003
1.722121e+003, 5.125378e-003
1.724049e+003, 5.072970e-003
1.725978e+003, 5.229915e-003
1.727906e+003, 5.074808e-003
1.729835e+003, 4.595788e-003
1.731763e+003, 3.534888e-003
1.733692e+003, 2.132416e-003
1.735620e+003, 2.994579e-003
1.737548e+003, 3.929022e-003
1.739477e+003, 3.252932e-003
1.741405e+003, 3.256480e-003
1.743334e+003, 3.502213e-003
1.745262e+003, 3.549719e-003
1.747191e+003, 3.274334e-003
1.749119e+003, 2.872710e-003
1.751048e+003, 2.634456e-003
1.752976e+003, 3.415973e-003
1.754905e+003, 3.783119e-003
1.756833e+003, 3.657767e-003
1.758762e+003, 3.985894e-003
1.760690e+003, 3.624355e-003
1.762619e+003, 3.679378e-003
1.764547e+003, 4.292454e-003
1.766475e+003, 4.004788e-003
1.768404e+003, 3.652715e-003
1.770332e+003, 3.414501e-003
1.772261e+003, 2.836922e-003
1.774189e+003, 3.550970e-003
1.776118e+003, 4.187929e-003
1.778046e+003, 4.244249e-003
1.779975e+003, 4.085076e-003
1.781903e+003, 4.138114e-003
1.783832e+003, 4.361298e-003
1.785760e+003, 4.418854e-003
1.787689e+003, 4.571319e-003
1.789617e+003, 4.249153e-003
1.791546e+003, 3.492206e-003
1.793474e+003, 3.649688e-003
1.795402e+003, 4.305420e-003
1.797331e+003, 4.224895e-003
1.799259e+003, 4.132631e-003
1.801188e+003, 4.190939e-003
1.803116e+003, 4.385497e-003
1.805045e+003, 4.447327e-003
1.806973e+003, 4.493867e-003
1.808902e+003, 4.396615e-003
1.810830e+003, 4.381089e-003
1.812759e+003, 4.315030e-003
1.814687e+003, 3.962634e-003
1.816616e+003, 3.892863e-003
1.818544e+003, 4.330861e-003
1.820473e+003, 4.555831e-003
1.822401e+003, 4.633721e-003
1.824329e+003, 4.254933e-003
1.826258e+003, 4.363044e-003
1.828186e+003, 4.253698e-003
1.830115e+003, 4.066535e-003
1.832043e+003, 4.325168e-003
1.833972e+003, 4.482237e-003
1.835900e+003, 4.618057e-003
1.837829e+003, 4.653839e-003
1.839757e+003, 4.577239e-003
1.841686e+003, 4.170513e-003
1.843614e+003, 3.579466e-003
1.845543e+003, 3.970277e-003
1.847471e+003, 4.487097e-003
1.849400e+003, 4.590381e-003
1.851328e+003, 4.576537e-003
1.853256e+003, 4.787844e-003
1.855185e+003, 4.772420e-003
1.857113e+003, 4.665413e-003
1.859042e+003, 5.020813e-003
1.860970e+003, 4.939719e-003
1.862899e+003, 4.904782e-003
1.864827e+003, 5.055898e-003
1.866756e+003, 4.532006e-003
1.868684e+003, 4.266383e-003
1.870613e+003, 4.586560e-003
1.872541e+003, 4.711659e-003
1.874470e+003, 4.682591e-003
1.876398e+003, 4.815421e-003
1.878327e+003, 4.715262e-003
1.880255e+003, 4.784835e-003
1.882183e+003, 4.692264e-003
1.884112e+003, 4.476466e-003
1.886040e+003, 4.543383e-003
1.887969e+003, 4.700459e-003
1.889897e+003, 4.408615e-003
1.891826e+003, 4.187150e-003
1.893754e+003, 4.497734e-003
1.895683e+003, 4.588527e-003
1.897611e+003, 4.392411e-003
1.899540e+003, 4.497426e-003
1.901468e+003, 4.423381e-003
1.903397e+003, 4.665610e-003
1.905325e+003, 4.699543e-003
1.907254e+003, 4.504888e-003
1.909182e+003, 4.423519e-003
1.911110e+003, 4.485667e-003
1.913039e+003, 4.661008e-003
1.914967e+003, 4.717520e-003
1.916896e+003, 4.519617e-003
1.918824e+003, 4.642752e-003
1.920753e+003, 4.480272e-003
1.922681e+003, 4.073163e-003
1.924610e+003, 3.871955e-003
1.926538e+003, 3.678593e-003
1.928467e+003, 3.725790e-003
1.930395e+003, 4.031274e-003
1.932324e+003, 4.159283e-003
1.934252e+003, 4.563954e-003
1.936181e+003, 4.402684e-003
1.938109e+003, 3.882533e-003
1.940037e+003, 3.722383e-003
1.941966e+003, 4.019619e-003
1.943894e+003, 4.294624e-003
1.945823e+003, 3.947214e-003
1.947751e+003, 3.853483e-003
1.949680e+003, 3.640445e-003
1.951608e+003, 3.739713e-003
1.953537e+003, 4.026985e-003
1.955465e+003, 3.387163e-003
1.957394e+003, 2.463958e-003
1.959322e+003, 2.425108e-003
1.961251e+003, 2.864700e-003
1.963179e+003, 3.322028e-003
1.965108e+003, 3.583330e-003
1.967036e+003, 3.194367e-003
1.968964e+003, 2.914785e-003
1.970893e+003, 3.658608e-003
1.972821e+003, 3.366037e-003
1.974750e+003, 2.791328e-003
1.976678e+003, 3.628896e-003
1.978607e+003, 6.204120e-003
1.980535e+003, 7.699799e-003
1.982464e+003, 6.954248e-003
1.984392e+003, 5.555609e-003
1.986321e+003, 4.720693e-003
1.988249e+003, 4.663477e-003
1.990178e+003, 5.020853e-003
1.992106e+003, 5.579996e-003
1.994035e+003, 5.305951e-003
1.995963e+003, 4.867767e-003
1.997891e+003, 4.669485e-003
1.999820e+003, 4.048822e-003
2.001748e+003, 3.298448e-003
2.003677e+003, 3.107868e-003
2.005605e+003, 2.881827e-003
2.007534e+003, 3.457867e-003
2.009462e+003, 4.073356e-003
2.011391e+003, 4.155769e-003
2.013319e+003, 4.492088e-003
2.015248e+003, 5.176395e-003
2.017176e+003, 5.005380e-003
2.019105e+003, 4.229341e-003
2.021033e+003, 3.241490e-003
2.022962e+003, 3.450816e-003
2.024890e+003, 3.971415e-003
2.026818e+003, 4.003621e-003
2.028747e+003, 3.466346e-003
2.030675e+003, 3.542704e-003
2.032604e+003, 3.980463e-003
2.034532e+003, 4.986683e-003
2.036461e+003, 5.828693e-003
2.038389e+003, 5.525329e-003
2.040318e+003, 4.061928e-003
2.042246e+003, 3.847820e-003
2.044175e+003, 4.208131e-003
2.046103e+003, 4.805778e-003
2.048031e+003, 5.949459e-003
2.049960e+003, 6.276554e-003
2.051888e+003, 4.846875e-003
2.053817e+003, 4.283498e-003
2.055745e+003, 5.385378e-003
2.057674e+003, 5.259656e-003
2.059602e+003, 4.211832e-003
2.061531e+003, 4.286430e-003
2.063459e+003, 4.917844e-003
2.065388e+003, 5.299094e-003
2.067316e+003, 5.296870e-003
2.069245e+003, 4.803911e-003
2.071173e+003, 5.268097e-003
2.073102e+003, 5.533171e-003
2.075030e+003, 5.349369e-003
2.076958e+003, 5.456341e-003
2.078887e+003, 5.283397e-003
2.080815e+003, 5.003261e-003
2.082744e+003, 5.078429e-003
2.084672e+003, 5.303778e-003
2.086601e+003, 5.242235e-003
2.088529e+003, 5.463650e-003
2.090458e+003, 5.111478e-003
2.092386e+003, 4.362212e-003
2.094315e+003, 4.185607e-003
2.096243e+003, 4.866124e-003
2.098172e+003, 5.219539e-003
2.100100e+003, 5.512311e-003
2.102029e+003, 6.146352e-003
2.103957e+003, 5.988693e-003
2.105885e+003, 5.527250e-003
2.107814e+003, 5.602342e-003
2.109742e+003, 5.747176e-003
2.111671e+003, 5.751472e-003
2.113599e+003, 6.017874e-003
2.115528e+003, 5.909935e-003
2.117456e+003, 5.461618e-003
2.119385e+003, 4.924892e-003
2.121313e+003, 4.891172e-003
2.123242e+003, 5.241063e-003
2.125170e+003, 5.140539e-003
2.127099e+003, 4.109913e-003
2.129027e+003, 2.670854e-003
2.130956e+003, 1.736344e-003
2.132884e+003, 1.782539e-003
2.134813e+003, 2.601309e-003
2.136741e+003, 4.069669e-003
2.138669e+003, 4.327564e-003
2.140598e+003, 4.180843e-003
2.142526e+003, 4.314222e-003
2.144455e+003, 3.901142e-003
2.146383e+003, 3.362813e-003
2.148312e+003, 3.136222e-003
2.150240e+003, 2.929244e-003
2.152169e+003, 2.250775e-003
2.154097e+003, 9.798580e-004
2.156026e+003, -6.770783e-005
2.157954e+003, 1.684780e-003
2.159883e+003, 5.951576e-003
2.161811e+003, 7.510921e-003
2.163740e+003, 8.478345e-003
2.165668e+003, 8.721518e-003
2.167596e+003, 7.895716e-003
2.169525e+003, 7.616620e-003
2.171453e+003, 6.191098e-003
2.173382e+003, 5.072902e-003
2.175310e+003, 5.468118e-003
2.177239e+003, 5.921508e-003
2.179167e+003, 5.200549e-003
2.181096e+003, 5.354593e-003
2.183024e+003, 6.884998e-003
2.184953e+003, 7.345185e-003
2.186881e+003, 6.252809e-003
2.188810e+003, 5.589320e-003
2.190738e+003, 5.551608e-003
2.192667e+003, 6.077526e-003
2.194595e+003, 6.453814e-003
2.196523e+003, 6.119180e-003
2.198452e+003, 5.562023e-003
2.200380e+003, 5.785122e-003
2.202309e+003, 6.104566e-003
2.204237e+003, 6.094118e-003
2.206166e+003, 5.732642e-003
2.208094e+003, 6.521583e-003
2.210023e+003, 7.161577e-003
2.211951e+003, 6.529211e-003
2.213880e+003, 6.147295e-003
2.215808e+003, 6.013829e-003
2.217737e+003, 6.361550e-003
2.219665e+003, 6.364801e-003
2.221594e+003, 6.167823e-003
2.223522e+003, 6.327714e-003
2.225450e+003, 7.353131e-003
2.227379e+003, 7.574161e-003
2.229307e+003, 7.048914e-003
2.231236e+003, 7.089482e-003
2.233164e+003, 6.744917e-003
2.235093e+003, 6.297828e-003
2.237021e+003, 6.741777e-003
2.238950e+003, 6.616422e-003
2.240878e+003, 6.353644e-003
2.242807e+003, 6.620776e-003
2.244735e+003, 6.665027e-003
2.246664e+003, 6.794567e-003
2.248592e+003, 6.569206e-003
2.250521e+003, 6.337048e-003
2.252449e+003, 6.525467e-003
2.254377e+003, 6.930023e-003
2.256306e+003, 6.977430e-003
2.258234e+003, 7.223798e-003
2.260163e+003, 7.126466e-003
2.262091e+003, 6.838989e-003
2.264020e+003, 7.096077e-003
2.265948e+003, 7.501770e-003
2.267877e+003, 7.362863e-003
2.269805e+003, 7.556357e-003
2.271734e+003, 7.622616e-003
2.273662e+003, 7.433846e-003
2.275591e+003, 7.523330e-003
2.277519e+003, 7.652886e-003
2.279448e+003, 7.706625e-003
2.281376e+003, 8.056225e-003
2.283304e+003, 8.533715e-003
2.285233e+003, 8.672509e-003
2.287161e+003, 8.436609e-003
2.289090e+003, 8.054617e-003
2.291018e+003, 7.911038e-003
2.292947e+003, 8.149592e-003
2.294875e+003, 8.101401e-003
2.296804e+003, 7.761417e-003
2.298732e+003, 7.985942e-003
2.300661e+003, 8.223943e-003
2.302589e+003, 8.346065e-003
2.304518e+003, 7.897120e-003
2.306446e+003, 7.763552e-003
2.308375e+003, 8.145237e-003
2.310303e+003, 8.164693e-003
2.312231e+003, 7.991484e-003
2.314160e+003, 8.077673e-003
2.316088e+003, 8.349301e-003
2.318017e+003, 8.487827e-003
2.319945e+003, 8.619070e-003
2.321874e+003, 9.004161e-003
2.323802e+003, 9.227226e-003
2.325731e+003, 8.206740e-003
2.327659e+003, 7.251306e-003
2.329588e+003, 6.890443e-003
2.331516e+003, 6.791538e-003
2.333445e+003, 6.879422e-003
2.335373e+003, 6.876610e-003
2.337302e+003, 6.898032e-003
2.339230e+003, 6.899192e-003
2.341158e+003, 6.886756e-003
2.343087e+003, 7.002086e-003
2.345015e+003, 7.150234e-003
2.346944e+003, 7.282113e-003
2.348872e+003, 7.291461e-003
2.350801e+003, 7.186604e-003
2.352729e+003, 7.046335e-003
2.354658e+003, 7.140798e-003
2.356586e+003, 7.189570e-003
2.358515e+003, 6.714981e-003
2.360443e+003, 6.345509e-003
2.362372e+003, 6.131611e-003
2.364300e+003, 6.045990e-003
2.366229e+003, 5.988618e-003
2.368157e+003, 6.100042e-003
2.370085e+003, 6.272008e-003
2.372014e+003, 6.427825e-003
2.373942e+003, 6.632195e-003
2.375871e+003, 6.807530e-003
2.377799e+003, 6.995779e-003
2.379728e+003, 7.091550e-003
2.381656e+003, 6.954365e-003
2.383585e+003, 7.013181e-003
2.385513e+003, 7.354151e-003
2.387442e+003, 7.555685e-003
2.389370e+003, 7.502295e-003
2.391299e+003, 7.256436e-003
2.393227e+003, 6.870938e-003
2.395156e+003, 7.012839e-003
2.397084e+003, 7.360193e-003
2.399012e+003, 7.626379e-003
2.400941e+003, 7.516158e-003
2.402869e+003, 7.233232e-003
2.404798e+003, 7.012808e-003
2.406726e+003, 7.124959e-003
2.408655e+003, 7.229016e-003
2.410583e+003, 7.469574e-003
2.412512e+003, 7.529160e-003
2.414440e+003, 7.648223e-003
2.416369e+003, 7.915731e-003
2.418297e+003, 7.844060e-003
2.420226e+003, 7.770979e-003
2.422154e+003, 7.843380e-003
2.424083e+003, 7.898899e-003
2.426011e+003, 7.943888e-003
2.427939e+003, 7.821173e-003
2.429868e+003, 7.539292e-003
2.431796e+003, 7.670969e-003
2.433725e+003, 7.766104e-003
2.435653e+003, 7.938268e-003
2.437582e+003, 8.106920e-003
2.439510e+003, 8.109593e-003
2.441439e+003, 8.058893e-003
2.443367e+003, 7.720272e-003
2.445296e+003, 7.497212e-003
2.447224e+003, 7.645535e-003
2.449153e+003, 7.984009e-003
2.451081e+003, 8.027241e-003
2.453010e+003, 8.375100e-003
2.454938e+003, 8.654360e-003
2.456866e+003, 8.500960e-003
2.458795e+003, 8.461109e-003
2.460723e+003, 8.281155e-003
2.462652e+003, 8.164882e-003
2.464580e+003, 8.254884e-003
2.466509e+003, 8.144210e-003
2.468437e+003, 7.799022e-003
2.470366e+003, 7.674751e-003
2.472294e+003, 8.011240e-003
2.474223e+003, 8.190203e-003
2.476151e+003, 7.693849e-003
2.478080e+003, 7.199071e-003
2.480008e+003, 7.779397e-003
2.481937e+003, 8.076460e-003
2.483865e+003, 7.888429e-003
2.485793e+003, 7.774537e-003
2.487722e+003, 7.776445e-003
2.489650e+003, 7.475078e-003
2.491579e+003, 7.439100e-003
2.493507e+003, 7.779265e-003
2.495436e+003, 7.720103e-003
2.497364e+003, 7.564044e-003
2.499293e+003, 7.678446e-003
2.501221e+003, 7.964132e-003
2.503150e+003, 8.160689e-003
2.505078e+003, 8.360358e-003
2.507007e+003, 7.940153e-003
2.508935e+003, 7.684304e-003
2.510864e+003, 7.891471e-003
2.512792e+003, 8.154894e-003
2.514720e+003, 7.977963e-003
2.516649e+003, 7.926549e-003
2.518577e+003, 7.928354e-003
2.520506e+003, 7.943945e-003
2.522434e+003, 8.296212e-003
2.524363e+003, 8.141780e-003
2.526291e+003, 7.905187e-003
2.528220e+003, 8.003552e-003
2.530148e+003, 8.220197e-003
2.532077e+003, 8.314068e-003
2.534005e+003, 8.449309e-003
2.535934e+003, 8.381149e-003
2.537862e+003, 8.246706e-003
2.539791e+003, 8.324027e-003
2.541719e+003, 8.469597e-003
2.543647e+003, 8.570525e-003
2.545576e+003, 8.765459e-003
2.547504e+003, 8.519808e-003
2.549433e+003, 8.113082e-003
2.551361e+003, 8.003414e-003
2.553290e+003, 8.315509e-003
2.555218e+003, 8.428616e-003
2.557147e+003, 8.498022e-003
2.559075e+003, 8.477456e-003
2.561004e+003, 8.419436e-003
2.562932e+003, 8.448047e-003
2.564861e+003, 8.515242e-003
2.566789e+003, 8.351946e-003
2.568718e+003, 8.563331e-003
2.570646e+003, 8.860815e-003
2.572574e+003, 8.747587e-003
2.574503e+003, 8.612669e-003
2.576431e+003, 8.517046e-003
2.578360e+003, 8.506360e-003
2.580288e+003, 8.721185e-003
2.582217e+003, 8.780563e-003
2.584145e+003, 8.743320e-003
2.586074e+003, 8.947103e-003
2.588002e+003, 9.060691e-003
2.589931e+003, 9.145094e-003
2.591859e+003, 8.983765e-003
2.593788e+003, 8.653166e-003
2.595716e+003, 8.860881e-003
2.597645e+003, 9.220000e-003
2.599573e+003, 9.229422e-003
2.601501e+003, 8.985653e-003
2.603430e+003, 9.391801e-003
2.605358e+003, 9.417634e-003
2.607287e+003, 9.007502e-003
2.609215e+003, 9.117565e-003
2.611144e+003, 9.299000e-003
2.613072e+003, 9.249763e-003
2.615001e+003, 9.435231e-003
2.616929e+003, 9.345464e-003
2.618858e+003, 9.147196e-003
2.620786e+003, 9.327708e-003
2.622715e+003, 9.536312e-003
2.624643e+003, 9.499667e-003
2.626572e+003, 9.291044e-003
2.628500e+003, 9.422074e-003
2.630428e+003, 9.696167e-003
2.632357e+003, 9.645199e-003
2.634285e+003, 9.611925e-003
2.636214e+003, 9.814912e-003
2.638142e+003, 1.002673e-002
2.640071e+003, 1.020107e-002
2.641999e+003, 1.032840e-002
2.643928e+003, 1.015264e-002
2.645856e+003, 9.759558e-003
2.647785e+003, 9.548142e-003
2.649713e+003, 9.880456e-003
2.651642e+003, 1.003029e-002
2.653570e+003, 9.906342e-003
2.655499e+003, 9.881017e-003
2.657427e+003, 1.002373e-002
2.659355e+003, 1.009050e-002
2.661284e+003, 9.867986e-003
2.663212e+003, 9.611354e-003
2.665141e+003, 9.460987e-003
2.667069e+003, 9.252366e-003
2.668998e+003, 9.158351e-003
2.670926e+003, 9.083248e-003
2.672855e+003, 9.024578e-003
2.674783e+003, 9.069852e-003
2.676712e+003, 9.239187e-003
2.678640e+003, 9.254955e-003
2.680569e+003, 9.164187e-003
2.682497e+003, 9.216773e-003
2.684426e+003, 9.440301e-003
2.686354e+003, 9.610997e-003
2.688282e+003, 9.662697e-003
2.690211e+003, 9.711338e-003
2.692139e+003, 9.808439e-003
2.694068e+003, 9.876654e-003
2.695996e+003, 9.786758e-003
2.697925e+003, 9.700214e-003
2.699853e+003, 9.748015e-003
2.701782e+003, 9.844812e-003
2.703710e+003, 9.815310e-003
2.705639e+003, 9.747311e-003
2.707567e+003, 9.790220e-003
2.709496e+003, 9.800247e-003
2.711424e+003, 9.946843e-003
2.713353e+003, 1.004050e-002
2.715281e+003, 1.023774e-002
2.717209e+003, 1.013516e-002
2.719138e+003, 9.795034e-003
2.721066e+003, 9.752966e-003
2.722995e+003, 1.006040e-002
2.724923e+003, 1.044117e-002
2.726852e+003, 1.056911e-002
2.728780e+003, 1.058267e-002
2.730709e+003, 1.044782e-002
2.732637e+003, 1.025216e-002
2.734566e+003, 1.029500e-002
2.736494e+003, 1.037503e-002
2.738423e+003, 1.038951e-002
2.740351e+003, 1.036617e-002
2.742280e+003, 1.032707e-002
2.744208e+003, 1.041096e-002
2.746136e+003, 1.050382e-002
2.748065e+003, 1.043389e-002
2.749993e+003, 1.026873e-002
2.751922e+003, 1.048684e-002
2.753850e+003, 1.073594e-002
2.755779e+003, 1.068860e-002
2.757707e+003, 1.055188e-002
2.759636e+003, 1.077430e-002
2.761564e+003, 1.083203e-002
2.763493e+003, 1.094534e-002
2.765421e+003, 1.110653e-002
2.767350e+003, 1.115806e-002
2.769278e+003, 1.097496e-002
2.771207e+003, 1.111223e-002
2.773135e+003, 1.134711e-002
2.775063e+003, 1.124875e-002
2.776992e+003, 1.076665e-002
2.778920e+003, 1.067778e-002
2.780849e+003, 1.101427e-002
2.782777e+003, 1.102764e-002
2.784706e+003, 1.109888e-002
2.786634e+003, 1.110032e-002
2.788563e+003, 1.102956e-002
2.790491e+003, 1.106375e-002
2.792420e+003, 1.118444e-002
2.794348e+003, 1.129672e-002
2.796277e+003, 1.138523e-002
2.798205e+003, 1.142197e-002
2.800134e+003, 1.128708e-002
2.802062e+003, 1.110359e-002
2.803990e+003, 1.131826e-002
2.805919e+003, 1.160306e-002
2.807847e+003, 1.169727e-002
2.809776e+003, 1.177907e-002
2.811704e+003, 1.190966e-002
2.813633e+003, 1.186875e-002
2.815561e+003, 1.185533e-002
2.817490e+003, 1.199328e-002
2.819418e+003, 1.206527e-002
2.821347e+003, 1.228116e-002
2.823275e+003, 1.234870e-002
2.825204e+003, 1.219746e-002
2.827132e+003, 1.228343e-002
2.829061e+003, 1.258014e-002
2.830989e+003, 1.262275e-002
2.832917e+003, 1.256076e-002
2.834846e+003, 1.270023e-002
2.836774e+003, 1.272974e-002
2.838703e+003, 1.278795e-002
2.840631e+003, 1.303048e-002
2.842560e+003, 1.347017e-002
2.844488e+003, 1.365063e-002
2.846417e+003, 1.397440e-002
2.848345e+003, 1.404589e-002
2.850274e+003, 1.399799e-002
2.852202e+003, 1.438675e-002
2.854131e+003, 1.461960e-002
2.856059e+003, 1.459575e-002
2.857988e+003, 1.454258e-002
2.859916e+003, 1.441056e-002
2.861844e+003, 1.443243e-002
2.863773e+003, 1.441972e-002
2.865701e+003, 1.436825e-002
2.867630e+003, 1.414311e-002
2.869558e+003, 1.423012e-002
2.871487e+003, 1.437966e-002
2.873415e+003, 1.425009e-002
2.875344e+003, 1.428515e-002
2.877272e+003, 1.430926e-002
2.879201e+003, 1.434173e-002
2.881129e+003, 1.426795e-002
2.883058e+003, 1.408612e-002
2.884986e+003, 1.404132e-002
2.886915e+003, 1.429305e-002
2.888843e+003, 1.488742e-002
2.890771e+003, 1.506066e-002
2.892700e+003, 1.498409e-002
2.894628e+003, 1.508844e-002
2.896557e+003, 1.560786e-002
2.898485e+003, 1.566560e-002
2.900414e+003, 1.553060e-002
2.902342e+003, 1.562927e-002
2.904271e+003, 1.614758e-002
2.906199e+003, 1.621630e-002
2.908128e+003, 1.597327e-002
2.910056e+003, 1.592605e-002
2.911985e+003, 1.611072e-002
2.913913e+003, 1.639933e-002
2.915842e+003, 1.692039e-002
2.917770e+003, 1.759046e-002
2.919698e+003, 1.789997e-002
2.921627e+003, 1.798773e-002
2.923555e+003, 1.823998e-002
2.925484e+003, 1.800873e-002
2.927412e+003, 1.791617e-002
2.929341e+003, 1.809614e-002
2.931269e+003, 1.753842e-002
2.933198e+003, 1.722564e-002
2.935126e+003, 1.690576e-002
2.937055e+003, 1.627656e-002
2.938983e+003, 1.608390e-002
2.940912e+003, 1.617170e-002
2.942840e+003, 1.588900e-002
2.944769e+003, 1.564545e-002
2.946697e+003, 1.572635e-002
2.948625e+003, 1.586648e-002
2.950554e+003, 1.619441e-002
2.952482e+003, 1.608550e-002
2.954411e+003, 1.598792e-002
2.956339e+003, 1.623207e-002
2.958268e+003, 1.644666e-002
2.960196e+003, 1.623664e-002
2.962125e+003, 1.580529e-002
2.964053e+003, 1.579904e-002
2.965982e+003, 1.559008e-002
2.967910e+003, 1.535490e-002
2.969839e+003, 1.487277e-002
2.971767e+003, 1.444362e-002
2.973696e+003, 1.445409e-002
2.975624e+003, 1.455895e-002
2.977552e+003, 1.447715e-002
2.979481e+003, 1.433582e-002
2.981409e+003, 1.421421e-002
2.983338e+003, 1.444266e-002
2.985266e+003, 1.461630e-002
2.987195e+003, 1.461994e-002
2.989123e+003, 1.417750e-002
2.991052e+003, 1.376776e-002
2.992980e+003, 1.382015e-002
2.994909e+003, 1.394725e-002
2.996837e+003, 1.424070e-002
2.998766e+003, 1.424346e-002
3.000694e+003, 1.400321e-002
3.002623e+003, 1.399702e-002
3.004551e+003, 1.389141e-002
3.006479e+003, 1.373004e-002
3.008408e+003, 1.389844e-002
3.010336e+003, 1.417658e-002
3.012265e+003, 1.430994e-002
3.014193e+003, 1.435661e-002
3.016122e+003, 1.401316e-002
3.018050e+003, 1.368913e-002
3.019979e+003, 1.405127e-002
3.021907e+003, 1.439624e-002
3.023836e+003, 1.476621e-002
3.025764e+003, 1.490725e-002
3.027693e+003, 1.483355e-002
3.029621e+003, 1.455099e-002
3.031550e+003, 1.433944e-002
3.033478e+003, 1.462582e-002
3.035406e+003, 1.538199e-002
3.037335e+003, 1.526347e-002
3.039263e+003, 1.502312e-002
3.041192e+003, 1.525800e-002
3.043120e+003, 1.564048e-002
3.045049e+003, 1.554369e-002
3.046977e+003, 1.489962e-002
3.048906e+003, 1.481700e-002
3.050834e+003, 1.474753e-002
3.052763e+003, 1.470750e-002
3.054691e+003, 1.456935e-002
3.056620e+003, 1.483261e-002
3.058548e+003, 1.567680e-002
3.060477e+003, 1.564321e-002
3.062405e+003, 1.540638e-002
3.064333e+003, 1.553256e-002
3.066262e+003, 1.548373e-002
3.068190e+003, 1.529627e-002
3.070119e+003, 1.544107e-002
3.072047e+003, 1.557263e-002
3.073976e+003, 1.586242e-002
3.075904e+003, 1.611682e-002
3.077833e+003, 1.623571e-002
3.079761e+003, 1.607698e-002
3.081690e+003, 1.586128e-002
3.083618e+003, 1.556707e-002
3.085547e+003, 1.572495e-002
3.087475e+003, 1.604906e-002
3.089404e+003, 1.618246e-002
3.091332e+003, 1.649252e-002
3.093260e+003, 1.641707e-002
3.095189e+003, 1.625125e-002
3.097117e+003, 1.612773e-002
3.099046e+003, 1.602481e-002
3.100974e+003, 1.626085e-002
3.102903e+003, 1.645348e-002
3.104831e+003, 1.668090e-002
3.106760e+003, 1.678668e-002
3.108688e+003, 1.657033e-002
3.110617e+003, 1.627000e-002
3.112545e+003, 1.659086e-002
3.114474e+003, 1.723102e-002
3.116402e+003, 1.757305e-002
3.118331e+003, 1.756858e-002
3.120259e+003, 1.746730e-002
3.122188e+003, 1.735140e-002
3.124116e+003, 1.739529e-002
3.126044e+003, 1.746673e-002
3.127973e+003, 1.735718e-002
3.129901e+003, 1.703707e-002
3.131830e+003, 1.693185e-002
3.133758e+003, 1.737752e-002
3.135687e+003, 1.766841e-002
3.137615e+003, 1.764513e-002
3.139544e+003, 1.736117e-002
3.141472e+003, 1.713400e-002
3.143401e+003, 1.740991e-002
3.145329e+003, 1.767266e-002
3.147258e+003, 1.797923e-002
3.149186e+003, 1.810808e-002
3.151115e+003, 1.811428e-002
3.153043e+003, 1.811233e-002
3.154971e+003, 1.836338e-002
3.156900e+003, 1.847422e-002
3.158828e+003, 1.825069e-002
3.160757e+003, 1.825534e-002
3.162685e+003, 1.876163e-002
3.164614e+003, 1.888274e-002
3.166542e+003, 1.843669e-002
3.168471e+003, 1.821120e-002
3.170399e+003, 1.849602e-002
3.172328e+003, 1.818542e-002
3.174256e+003, 1.815323e-002
3.176185e+003, 1.838415e-002
3.178113e+003, 1.828636e-002
3.180042e+003, 1.838430e-002
3.181970e+003, 1.870482e-002
3.183898e+003, 1.888487e-002
3.185827e+003, 1.903796e-002
3.187755e+003, 1.922634e-002
3.189684e+003, 1.894031e-002
3.191612e+003, 1.883856e-002
3.193541e+003, 1.905561e-002
3.195469e+003, 1.935583e-002
3.197398e+003, 1.971340e-002
3.199326e+003, 1.955749e-002
3.201255e+003, 1.920639e-002
3.203183e+003, 1.925569e-002
3.205112e+003, 1.890556e-002
3.207040e+003, 1.884897e-002
3.208969e+003, 1.899858e-002
3.210897e+003, 1.901885e-002
3.212825e+003, 1.952565e-002
3.214754e+003, 1.975523e-002
3.216682e+003, 1.957440e-002
3.218611e+003, 1.936376e-002
3.220539e+003, 1.941657e-002
3.222468e+003, 1.940403e-002
3.224396e+003, 1.936045e-002
3.226325e+003, 1.974978e-002
3.228253e+003, 1.973453e-002
3.230182e+003, 1.979399e-002
3.232110e+003, 2.011982e-002
3.234039e+003, 2.018829e-002
3.235967e+003, 2.015396e-002
3.237896e+003, 2.016538e-002
3.239824e+003, 1.939073e-002
3.241752e+003, 1.947584e-002
3.243681e+003, 2.007452e-002
3.245609e+003, 2.000473e-002
3.247538e+003, 2.005430e-002
3.249466e+003, 2.042123e-002
3.251395e+003, 2.026366e-002
3.253323e+003, 1.999528e-002
3.255252e+003, 2.065282e-002
3.257180e+003, 2.109226e-002
3.259109e+003, 2.041833e-002
3.261037e+003, 2.029571e-002
3.262966e+003, 2.041984e-002
3.264894e+003, 1.995774e-002
3.266823e+003, 1.989551e-002
3.268751e+003, 2.007621e-002
3.270679e+003, 2.034114e-002
3.272608e+003, 2.090940e-002
3.274536e+003, 2.112559e-002
3.276465e+003, 2.047090e-002
3.278393e+003, 1.955415e-002
3.280322e+003, 1.983449e-002
3.282250e+003, 2.038354e-002
3.284179e+003, 2.002129e-002
3.286107e+003, 2.005514e-002
3.288036e+003, 2.048285e-002
3.289964e+003, 2.069599e-002
3.291893e+003, 2.074205e-002
3.293821e+003, 2.092871e-002
3.295750e+003, 2.155031e-002
3.297678e+003, 2.164298e-002
3.299606e+003, 2.131627e-002
3.301535e+003, 2.099953e-002
3.303463e+003, 2.090323e-002
3.305392e+003, 2.151833e-002
3.307320e+003, 2.176866e-002
3.309249e+003, 2.149130e-002
3.311177e+003, 2.169671e-002
3.313106e+003, 2.177510e-002
3.315034e+003, 2.199223e-002
3.316963e+003, 2.193171e-002
3.318891e+003, 2.116889e-002
3.320820e+003, 2.113603e-002
3.322748e+003, 2.168693e-002
3.324677e+003, 2.199505e-002
3.326605e+003, 2.194373e-002
3.328533e+003, 2.169869e-002
3.330462e+003, 2.133194e-002
3.332390e+003, 2.152987e-002
3.334319e+003, 2.177877e-002
3.336247e+003, 2.133217e-002
3.338176e+003, 2.099464e-002
3.340104e+003, 2.127502e-002
3.342033e+003, 2.189696e-002
3.343961e+003, 2.148242e-002
3.345890e+003, 2.099259e-002
3.347818e+003, 2.122850e-002
3.349747e+003, 2.122683e-002
3.351675e+003, 2.148530e-002
3.353604e+003, 2.154057e-002
3.355532e+003, 2.138188e-002
3.357460e+003, 2.144049e-002
3.359389e+003, 2.155843e-002
3.361317e+003, 2.181837e-002
3.363246e+003, 2.169436e-002
3.365174e+003, 2.081853e-002
3.367103e+003, 2.058419e-002
3.369031e+003, 2.091596e-002
3.370960e+003, 2.087736e-002
3.372888e+003, 2.056886e-002
3.374817e+003, 2.031793e-002
3.376745e+003, 2.097761e-002
3.378674e+003, 2.135171e-002
3.380602e+003, 2.129515e-002
3.382531e+003, 2.137891e-002
3.384459e+003, 2.134889e-002
3.386387e+003, 2.120332e-002
3.388316e+003, 2.141268e-002
3.390244e+003, 2.171178e-002
3.392173e+003, 2.172531e-002
3.394101e+003, 2.152505e-002
3.396030e+003, 2.111569e-002
3.397958e+003, 2.112906e-002
3.399887e+003, 2.137043e-002
3.401815e+003, 2.140453e-002
3.403744e+003, 2.123246e-002
3.405672e+003, 2.103826e-002
3.407601e+003, 2.092895e-002
3.409529e+003, 2.078551e-002
3.411458e+003, 2.085376e-002
3.413386e+003, 2.102661e-002
3.415314e+003, 2.125502e-002
3.417243e+003, 2.089322e-002
3.419171e+003, 2.056641e-002
3.421100e+003, 2.122303e-002
3.423028e+003, 2.074388e-002
3.424957e+003, 2.029505e-002
3.426885e+003, 2.048113e-002
3.428814e+003, 2.018793e-002
3.430742e+003, 1.970185e-002
3.432671e+003, 2.040445e-002
3.434599e+003, 2.137747e-002
3.436528e+003, 2.146226e-002
3.438456e+003, 2.091602e-002
3.440385e+003, 2.024327e-002
3.442313e+003, 2.005177e-002
3.444241e+003, 2.057905e-002
3.446170e+003, 2.076736e-002
3.448098e+003, 2.064664e-002
3.450027e+003, 2.061348e-002
3.451955e+003, 2.070552e-002
3.453884e+003, 2.109537e-002
3.455812e+003, 2.133020e-002
3.457741e+003, 2.069312e-002
3.459669e+003, 2.000146e-002
3.461598e+003, 2.034839e-002
3.463526e+003, 2.048916e-002
3.465455e+003, 2.009769e-002
3.467383e+003, 1.940929e-002
3.469312e+003, 1.937783e-002
3.471240e+003, 1.933725e-002
3.473168e+003, 1.973558e-002
3.475097e+003, 2.001760e-002
3.477025e+003, 1.988253e-002
3.478954e+003, 2.027481e-002
3.480882e+003, 2.031987e-002
3.482811e+003, 1.986116e-002
3.484739e+003, 2.010926e-002
3.486668e+003, 2.040763e-002
3.488596e+003, 2.006632e-002
3.490525e+003, 2.012031e-002
3.492453e+003, 1.995262e-002
3.494382e+003, 2.003594e-002
3.496310e+003, 2.044765e-002
3.498239e+003, 2.018498e-002
3.500167e+003, 1.994299e-002
3.502095e+003, 1.937557e-002
3.504024e+003, 1.951266e-002
3.505952e+003, 1.994313e-002
3.507881e+003, 1.994016e-002
3.509809e+003, 1.938525e-002
3.511738e+003, 1.935648e-002
3.513666e+003, 1.966028e-002
3.515595e+003, 1.968458e-002
3.517523e+003, 1.918100e-002
3.519452e+003, 1.924456e-002
3.521380e+003, 1.981529e-002
3.523309e+003, 1.942016e-002
3.525237e+003, 1.950353e-002
3.527166e+003, 2.009603e-002
3.529094e+003, 2.018528e-002
3.531022e+003, 1.972943e-002
3.532951e+003, 1.958767e-002
3.534879e+003, 1.945406e-002
3.536808e+003, 1.944287e-002
3.538736e+003, 1.954406e-002
3.540665e+003, 1.911111e-002
3.542593e+003, 1.911221e-002
3.544522e+003, 1.914793e-002
3.546450e+003, 1.918656e-002
3.548379e+003, 1.935019e-002
3.550307e+003, 1.913990e-002
3.552236e+003, 1.878933e-002
3.554164e+003, 1.797066e-002
3.556093e+003, 1.807401e-002
3.558021e+003, 1.848397e-002
3.559949e+003, 1.799740e-002
3.561878e+003, 1.765680e-002
3.563806e+003, 1.806631e-002
3.565735e+003, 1.813436e-002
3.567663e+003, 1.766209e-002
3.569592e+003, 1.754995e-002
3.571520e+003, 1.748601e-002
3.573449e+003, 1.658770e-002
3.575377e+003, 1.597259e-002
3.577306e+003, 1.627526e-002
3.579234e+003, 1.627353e-002
3.581163e+003, 1.668455e-002
3.583091e+003, 1.676400e-002
3.585020e+003, 1.601737e-002
3.586948e+003, 1.574723e-002
3.588876e+003, 1.577131e-002
3.590805e+003, 1.563390e-002
3.592733e+003, 1.588803e-002
3.594662e+003, 1.574152e-002
3.596590e+003, 1.575919e-002
3.598519e+003, 1.578312e-002
3.600447e+003, 1.577789e-002
3.602376e+003, 1.553075e-002
3.604304e+003, 1.546270e-002
3.606233e+003, 1.544367e-002
3.608161e+003, 1.470955e-002
3.610090e+003, 1.435304e-002
3.612018e+003, 1.373237e-002
3.613947e+003, 1.444124e-002
3.615875e+003, 1.512540e-002
3.617803e+003, 1.426988e-002
3.619732e+003, 1.353624e-002
3.621660e+003, 1.368225e-002
3.623589e+003, 1.416110e-002
3.625517e+003, 1.441866e-002
3.627446e+003, 1.347605e-002
3.629374e+003, 1.276458e-002
3.631303e+003, 1.384392e-002
3.633231e+003, 1.437858e-002
3.635160e+003, 1.382449e-002
3.637088e+003, 1.382559e-002
3.639017e+003, 1.398999e-002
3.640945e+003, 1.344257e-002
3.642874e+003, 1.328720e-002
3.644802e+003, 1.333947e-002
3.646730e+003, 1.358806e-002
3.648659e+003, 1.370210e-002
3.650587e+003, 1.306234e-002
3.652516e+003, 1.255249e-002
3.654444e+003, 1.259278e-002
3.656373e+003, 1.240857e-002
3.658301e+003, 1.330019e-002
3.660230e+003, 1.386644e-002
3.662158e+003, 1.315065e-002
3.664087e+003, 1.250468e-002
3.666015e+003, 1.227635e-002
3.667944e+003, 1.197028e-002
3.669872e+003, 1.133300e-002
3.671801e+003, 1.092061e-002
3.673729e+003, 1.118075e-002
3.675657e+003, 1.062596e-002
3.677586e+003, 1.087369e-002
3.679514e+003, 1.151064e-002
3.681443e+003, 1.139524e-002
3.683371e+003, 1.118769e-002
3.685300e+003, 1.198742e-002
3.687228e+003, 1.089079e-002
3.689157e+003, 1.048248e-002
3.691085e+003, 1.108615e-002
3.693014e+003, 1.111003e-002
3.694942e+003, 1.177628e-002
3.696871e+003, 1.193220e-002
3.698799e+003, 1.181438e-002
3.700728e+003, 1.187731e-002
3.702656e+003, 1.168428e-002
3.704584e+003, 1.136554e-002
3.706513e+003, 1.086115e-002
3.708441e+003, 1.086333e-002
3.710370e+003, 1.083732e-002
3.712298e+003, 1.050045e-002
3.714227e+003, 1.082978e-002
3.716155e+003, 1.138936e-002
3.718084e+003, 1.156143e-002
3.720012e+003, 1.154764e-002
3.721941e+003, 1.141636e-002
3.723869e+003, 1.132506e-002
3.725798e+003, 1.184526e-002
3.727726e+003, 1.216927e-002
3.729655e+003, 1.125145e-002
3.731583e+003, 1.082127e-002
3.733511e+003, 1.173861e-002
3.735440e+003, 1.096495e-002
3.737368e+003, 1.084864e-002
3.739297e+003, 1.196389e-002
3.741225e+003, 1.197847e-002
3.743154e+003, 1.023290e-002
3.745082e+003, 9.312922e-003
3.747011e+003, 1.027989e-002
3.748939e+003, 1.020797e-002
3.750868e+003, 1.046691e-002
3.752796e+003, 1.023723e-002
3.754725e+003, 1.105848e-002
3.756653e+003, 1.135678e-002
3.758582e+003, 1.111912e-002
3.760510e+003, 1.089726e-002
3.762438e+003, 1.132838e-002
3.764367e+003, 1.178143e-002
3.766295e+003, 1.197333e-002
3.768224e+003, 1.162336e-002
3.770152e+003, 1.068614e-002
3.772081e+003, 1.067404e-002
3.774009e+003, 1.125642e-002
3.775938e+003, 1.128012e-002
3.777866e+003, 1.112180e-002
3.779795e+003, 1.071170e-002
3.781723e+003, 1.133453e-002
3.783652e+003, 1.214759e-002
3.785580e+003, 1.188197e-002
3.787509e+003, 1.159121e-002
3.789437e+003, 1.161330e-002
3.791365e+003, 1.174184e-002
3.793294e+003, 1.157466e-002
3.795222e+003, 1.084743e-002
3.797151e+003, 1.072713e-002
3.799079e+003, 1.118079e-002
3.801008e+003, 1.041391e-002
3.802936e+003, 1.024532e-002
3.804865e+003, 1.100011e-002
3.806793e+003, 1.069594e-002
3.808722e+003, 1.051893e-002
3.810650e+003, 1.107986e-002
3.812579e+003, 1.191769e-002
3.814507e+003, 1.069056e-002
3.816436e+003, 9.643098e-003
3.818364e+003, 1.063284e-002
3.820292e+003, 1.104578e-002
3.822221e+003, 1.136851e-002
3.824149e+003, 1.163331e-002
3.826078e+003, 1.130031e-002
3.828006e+003, 1.200473e-002
3.829935e+003, 1.233874e-002
3.831863e+003, 1.177753e-002
3.833792e+003, 1.144108e-002
3.835720e+003, 1.039512e-002
3.837649e+003, 9.578433e-003
3.839577e+003, 1.077167e-002
3.841506e+003, 1.168302e-002
3.843434e+003, 1.162075e-002
3.845363e+003, 1.158776e-002
3.847291e+003, 1.192959e-002
3.849219e+003, 1.182451e-002
3.851148e+003, 1.071574e-002
3.853076e+003, 9.351932e-003
3.855005e+003, 9.425750e-003
3.856933e+003, 1.118599e-002
3.858862e+003, 1.174875e-002
3.860790e+003, 1.144084e-002
3.862719e+003, 1.128982e-002
3.864647e+003, 1.139090e-002
3.866576e+003, 1.161712e-002
3.868504e+003, 1.107363e-002
3.870433e+003, 1.077539e-002
3.872361e+003, 1.202049e-002
3.874290e+003, 1.215589e-002
3.876218e+003, 1.181332e-002
3.878146e+003, 1.161482e-002
3.880075e+003, 1.145949e-002
3.882003e+003, 1.172522e-002
3.883932e+003, 1.170413e-002
3.885860e+003, 1.157780e-002
3.887789e+003, 1.138742e-002
3.889717e+003, 1.128297e-002
3.891646e+003, 1.132476e-002
3.893574e+003, 1.124325e-002
3.895503e+003, 1.147225e-002
3.897431e+003, 1.165108e-002
3.899360e+003, 1.135480e-002
3.901288e+003, 1.131239e-002
3.903217e+003, 1.131857e-002
3.905145e+003, 1.080780e-002
3.907073e+003, 1.072214e-002
3.909002e+003, 1.117381e-002
3.910930e+003, 1.126167e-002
3.912859e+003, 1.149166e-002
3.914787e+003, 1.178292e-002
3.916716e+003, 1.200419e-002
3.918644e+003, 1.143741e-002
3.920573e+003, 1.064784e-002
3.922501e+003, 1.136790e-002
3.924430e+003, 1.155092e-002
3.926358e+003, 1.122412e-002
3.928287e+003, 1.121639e-002
3.930215e+003, 1.128520e-002
3.932144e+003, 1.109279e-002
3.934072e+003, 1.117995e-002
3.936000e+003, 1.144079e-002
3.937929e+003, 1.150784e-002
3.939857e+003, 1.170618e-002
3.941786e+003, 1.189875e-002
3.943714e+003, 1.206159e-002
3.945643e+003, 1.190143e-002
3.947571e+003, 1.154191e-002
3.949500e+003, 1.161185e-002
3.951428e+003, 1.203773e-002
3.953357e+003, 1.183232e-002
3.955285e+003, 1.141603e-002
3.957214e+003, 1.199662e-002
3.959142e+003, 1.201467e-002
3.961071e+003, 1.101405e-002
3.962999e+003, 1.099767e-002
3.964927e+003, 1.179677e-002
3.966856e+003, 1.199451e-002
3.968784e+003, 1.223178e-002
3.970713e+003, 1.256507e-002
3.972641e+003, 1.220304e-002
3.974570e+003, 1.200443e-002
3.976498e+003, 1.226155e-002
3.978427e+003, 1.223577e-002
3.980355e+003, 1.148178e-002
3.982284e+003, 1.164145e-002
3.984212e+003, 1.223342e-002
3.986141e+003, 1.220345e-002
3.988069e+003, 1.154879e-002
3.989998e+003, 1.150020e-002
3.991926e+003, 1.228326e-002
3.993854e+003, 1.257084e-002
3.995783e+003, 1.170613e-002
3.997711e+003, 1.223603e-002
3.999640e+003, 1.315394e-002
##END=



