##NAMES=Laumontite
##RRUFFID=R040020
##IDEAL CHEMISTRY=Ca(Si_4_Al_2_)O_12_&#183;4H_2_O
##LOCALITY=Pine Creek Tungsten mine, Bishop, Inyo County, California, USA
##OWNER=RRUFF
##SOURCE=University of Arizona Mineral Museum
##DESCRIPTION=Pale gray long prism coated with smaller crystals
##STATUS=The identification of this mineral has been confirmed by X-ray diffraction and chemical analysis
##URL=rruff.info/R040020
##MEASURED CHEMISTRY=(Ca_0.99_K_0.01_)_Σ=1_(Si_4.01_Al_1.99_)O_12_·4H_2_O; H_2_O estimated by difference
3.991926e+002, 0.000000e+000
4.011211e+002, 2.575824e-001
4.030496e+002, 2.587712e-001
4.049780e+002, 2.409608e-001
4.069065e+002, 2.276494e-001
4.088350e+002, 2.178575e-001
4.107634e+002, 2.203816e-001
4.126919e+002, 2.260373e-001
4.146204e+002, 2.288991e-001
4.165488e+002, 2.431748e-001
4.184773e+002, 2.614598e-001
4.204058e+002, 2.697923e-001
4.223342e+002, 2.783338e-001
4.242627e+002, 2.776743e-001
4.261912e+002, 2.716703e-001
4.281196e+002, 2.668121e-001
4.300481e+002, 2.590751e-001
4.319766e+002, 2.501852e-001
4.339050e+002, 2.392012e-001
4.358335e+002, 2.283355e-001
4.377620e+002, 2.200120e-001
4.396904e+002, 2.081611e-001
4.416189e+002, 1.912884e-001
4.435474e+002, 1.774069e-001
4.454758e+002, 1.663705e-001
4.474043e+002, 1.554143e-001
4.493328e+002, 1.461019e-001
4.512612e+002, 1.387116e-001
4.531897e+002, 1.328732e-001
4.551182e+002, 1.276975e-001
4.570466e+002, 1.235991e-001
4.589751e+002, 1.208676e-001
4.609036e+002, 1.189102e-001
4.628320e+002, 1.170590e-001
4.647605e+002, 1.145663e-001
4.666890e+002, 1.133397e-001
4.686174e+002, 1.142282e-001
4.705459e+002, 1.166951e-001
4.724744e+002, 1.210660e-001
4.744028e+002, 1.257885e-001
4.763313e+002, 1.296149e-001
4.782598e+002, 1.326836e-001
4.801882e+002, 1.352054e-001
4.821167e+002, 1.370807e-001
4.840452e+002, 1.387431e-001
4.859736e+002, 1.404082e-001
4.879021e+002, 1.400326e-001
4.898306e+002, 1.379574e-001
4.917590e+002, 1.339229e-001
4.936875e+002, 1.278562e-001
4.956160e+002, 1.218629e-001
4.975444e+002, 1.166133e-001
4.994729e+002, 1.125463e-001
5.014014e+002, 1.093866e-001
5.033298e+002, 1.071297e-001
5.052583e+002, 1.061439e-001
5.071868e+002, 1.061441e-001
5.091152e+002, 1.068045e-001
5.110437e+002, 1.083713e-001
5.129722e+002, 1.106087e-001
5.149006e+002, 1.135854e-001
5.168291e+002, 1.166991e-001
5.187576e+002, 1.190545e-001
5.206860e+002, 1.202932e-001
5.226145e+002, 1.200489e-001
5.245430e+002, 1.180884e-001
5.264714e+002, 1.140000e-001
5.283999e+002, 1.100985e-001
5.303284e+002, 1.068546e-001
5.322568e+002, 1.031319e-001
5.341853e+002, 1.003811e-001
5.361138e+002, 9.891238e-002
5.380422e+002, 9.815805e-002
5.399707e+002, 9.790835e-002
5.418992e+002, 9.783913e-002
5.438276e+002, 9.795590e-002
5.457561e+002, 9.926843e-002
5.476846e+002, 1.020833e-001
5.496130e+002, 1.051065e-001
5.515415e+002, 1.083163e-001
5.534700e+002, 1.119673e-001
5.553984e+002, 1.159447e-001
5.573269e+002, 1.203255e-001
5.592554e+002, 1.236970e-001
5.611838e+002, 1.251048e-001
5.631123e+002, 1.241765e-001
5.650408e+002, 1.214607e-001
5.669692e+002, 1.185099e-001
5.688977e+002, 1.155971e-001
5.708262e+002, 1.122884e-001
5.727546e+002, 1.089418e-001
5.746831e+002, 1.050434e-001
5.766116e+002, 1.003068e-001
5.785400e+002, 9.485501e-002
5.804685e+002, 8.881456e-002
5.823970e+002, 8.334730e-002
5.843254e+002, 7.913218e-002
5.862539e+002, 7.539587e-002
5.881824e+002, 7.297957e-002
5.901108e+002, 7.140820e-002
5.920393e+002, 7.005862e-002
5.939678e+002, 6.936103e-002
5.958962e+002, 6.913987e-002
5.978247e+002, 6.863543e-002
5.997532e+002, 6.799867e-002
6.016816e+002, 6.726006e-002
6.036101e+002, 6.648743e-002
6.055386e+002, 6.601761e-002
6.074670e+002, 6.585756e-002
6.093955e+002, 6.574894e-002
6.113240e+002, 6.564911e-002
6.132524e+002, 6.554598e-002
6.151809e+002, 6.507029e-002
6.171094e+002, 6.463296e-002
6.190378e+002, 6.379673e-002
6.209663e+002, 6.255433e-002
6.228948e+002, 6.126805e-002
6.248232e+002, 5.949423e-002
6.267517e+002, 5.781449e-002
6.286802e+002, 5.699018e-002
6.306086e+002, 5.586969e-002
6.325371e+002, 5.484359e-002
6.344656e+002, 5.413781e-002
6.363940e+002, 5.349819e-002
6.383225e+002, 5.308004e-002
6.402510e+002, 5.270622e-002
6.421794e+002, 5.209266e-002
6.441079e+002, 5.174363e-002
6.460364e+002, 5.180625e-002
6.479648e+002, 5.188515e-002
6.498933e+002, 5.190700e-002
6.518218e+002, 5.210219e-002
6.537502e+002, 5.231837e-002
6.556787e+002, 5.228938e-002
6.576072e+002, 5.259999e-002
6.595356e+002, 5.308951e-002
6.614641e+002, 5.343900e-002
6.633926e+002, 5.369745e-002
6.653210e+002, 5.391525e-002
6.672495e+002, 5.413401e-002
6.691780e+002, 5.462340e-002
6.711064e+002, 5.515054e-002
6.730349e+002, 5.555813e-002
6.749634e+002, 5.611403e-002
6.768918e+002, 5.667571e-002
6.788203e+002, 5.749618e-002
6.807488e+002, 5.811557e-002
6.826772e+002, 5.841746e-002
6.846057e+002, 5.913542e-002
6.865342e+002, 6.001752e-002
6.884626e+002, 6.078243e-002
6.903911e+002, 6.149387e-002
6.923196e+002, 6.253204e-002
6.942480e+002, 6.343132e-002
6.961765e+002, 6.408001e-002
6.981050e+002, 6.496736e-002
7.000334e+002, 6.605814e-002
7.019619e+002, 6.731107e-002
7.038904e+002, 6.848944e-002
7.058188e+002, 6.949741e-002
7.077473e+002, 7.130763e-002
7.096758e+002, 7.338471e-002
7.116042e+002, 7.551101e-002
7.135327e+002, 7.828400e-002
7.154612e+002, 8.135903e-002
7.173896e+002, 8.442415e-002
7.193181e+002, 8.757777e-002
7.212466e+002, 9.125090e-002
7.231750e+002, 9.515918e-002
7.251035e+002, 9.894054e-002
7.270320e+002, 1.038445e-001
7.289604e+002, 1.095974e-001
7.308889e+002, 1.154904e-001
7.328174e+002, 1.219049e-001
7.347458e+002, 1.294604e-001
7.366743e+002, 1.382860e-001
7.386028e+002, 1.481637e-001
7.405313e+002, 1.593678e-001
7.424597e+002, 1.719943e-001
7.443882e+002, 1.861446e-001
7.463167e+002, 2.013412e-001
7.482451e+002, 2.171343e-001
7.501736e+002, 2.337417e-001
7.521021e+002, 2.493412e-001
7.540305e+002, 2.615875e-001
7.559590e+002, 2.695338e-001
7.578875e+002, 2.717464e-001
7.598159e+002, 2.674782e-001
7.617444e+002, 2.572812e-001
7.636729e+002, 2.421114e-001
7.656013e+002, 2.245316e-001
7.675298e+002, 2.068264e-001
7.694583e+002, 1.895989e-001
7.713867e+002, 1.733041e-001
7.733152e+002, 1.579611e-001
7.752437e+002, 1.426287e-001
7.771721e+002, 1.275608e-001
7.791006e+002, 1.130042e-001
7.810291e+002, 9.908375e-002
7.829575e+002, 8.684821e-002
7.848860e+002, 7.642572e-002
7.868145e+002, 6.774631e-002
7.887429e+002, 6.094862e-002
7.906714e+002, 5.544870e-002
7.925999e+002, 5.135739e-002
7.945283e+002, 4.811743e-002
7.964568e+002, 4.535922e-002
7.983853e+002, 4.296946e-002
8.003137e+002, 4.064100e-002
8.022422e+002, 3.856226e-002
8.041707e+002, 3.678450e-002
8.060991e+002, 3.546720e-002
8.080276e+002, 3.435372e-002
8.099561e+002, 3.335778e-002
8.118845e+002, 3.272865e-002
8.138130e+002, 3.213211e-002
8.157415e+002, 3.186361e-002
8.176699e+002, 3.160302e-002
8.195984e+002, 3.156393e-002
8.215269e+002, 3.161449e-002
8.234553e+002, 3.155626e-002
8.253838e+002, 3.151746e-002
8.273123e+002, 3.181154e-002
8.292407e+002, 3.227796e-002
8.311692e+002, 3.268365e-002
8.330977e+002, 3.305189e-002
8.350261e+002, 3.350897e-002
8.369546e+002, 3.401097e-002
8.388831e+002, 3.461835e-002
8.408115e+002, 3.530109e-002
8.427400e+002, 3.602949e-002
8.446685e+002, 3.673543e-002
8.465969e+002, 3.745577e-002
8.485254e+002, 3.835824e-002
8.504539e+002, 3.938134e-002
8.523823e+002, 4.052275e-002
8.543108e+002, 4.168089e-002
8.562393e+002, 4.298078e-002
8.581677e+002, 4.429642e-002
8.600962e+002, 4.556531e-002
8.620247e+002, 4.711146e-002
8.639531e+002, 4.890002e-002
8.658816e+002, 5.079826e-002
8.678101e+002, 5.249706e-002
8.697385e+002, 5.439209e-002
8.716670e+002, 5.677271e-002
8.735955e+002, 5.911649e-002
8.755239e+002, 6.153647e-002
8.774524e+002, 6.430679e-002
8.793809e+002, 6.740690e-002
8.813093e+002, 7.045355e-002
8.832378e+002, 7.373776e-002
8.851663e+002, 7.722375e-002
8.870947e+002, 8.115122e-002
8.890232e+002, 8.521950e-002
8.909517e+002, 8.954702e-002
8.928801e+002, 9.462306e-002
8.948085e+002, 1.002113e-001
8.967370e+002, 1.060443e-001
8.986655e+002, 1.123179e-001
9.005939e+002, 1.192117e-001
9.025224e+002, 1.267935e-001
9.044509e+002, 1.350069e-001
9.063793e+002, 1.437602e-001
9.083078e+002, 1.533381e-001
9.102363e+002, 1.635952e-001
9.121647e+002, 1.748087e-001
9.140932e+002, 1.869134e-001
9.160217e+002, 1.999176e-001
9.179501e+002, 2.141822e-001
9.198786e+002, 2.294828e-001
9.218071e+002, 2.456288e-001
9.237355e+002, 2.623487e-001
9.256640e+002, 2.791202e-001
9.275925e+002, 2.956726e-001
9.295209e+002, 3.121603e-001
9.314494e+002, 3.298370e-001
9.333779e+002, 3.491186e-001
9.353063e+002, 3.700802e-001
9.372348e+002, 3.923048e-001
9.391633e+002, 4.144300e-001
9.410917e+002, 4.350886e-001
9.430202e+002, 4.528141e-001
9.449487e+002, 4.652773e-001
9.468771e+002, 4.724782e-001
9.488056e+002, 4.741258e-001
9.507341e+002, 4.707418e-001
9.526625e+002, 4.643400e-001
9.545910e+002, 4.556287e-001
9.565195e+002, 4.454128e-001
9.584479e+002, 4.346117e-001
9.603764e+002, 4.234287e-001
9.623049e+002, 4.128589e-001
9.642333e+002, 4.027338e-001
9.661618e+002, 3.928758e-001
9.680903e+002, 3.839520e-001
9.700187e+002, 3.761325e-001
9.719472e+002, 3.691842e-001
9.738757e+002, 3.635906e-001
9.758041e+002, 3.591759e-001
9.777326e+002, 3.557495e-001
9.796611e+002, 3.536510e-001
9.815895e+002, 3.526931e-001
9.835180e+002, 3.528286e-001
9.854465e+002, 3.530364e-001
9.873749e+002, 3.528714e-001
9.893034e+002, 3.521560e-001
9.912319e+002, 3.496716e-001
9.931603e+002, 3.443808e-001
9.950888e+002, 3.357916e-001
9.970173e+002, 3.246042e-001
9.989457e+002, 3.113414e-001
1.000874e+003, 2.968205e-001
1.002803e+003, 2.822509e-001
1.004731e+003, 2.687573e-001
1.006660e+003, 2.575447e-001
1.008588e+003, 2.495845e-001
1.010517e+003, 2.443758e-001
1.012445e+003, 2.421257e-001
1.014373e+003, 2.431299e-001
1.016302e+003, 2.472817e-001
1.018230e+003, 2.541678e-001
1.020159e+003, 2.627967e-001
1.022087e+003, 2.718829e-001
1.024016e+003, 2.802163e-001
1.025944e+003, 2.866450e-001
1.027873e+003, 2.904559e-001
1.029801e+003, 2.905708e-001
1.031730e+003, 2.860795e-001
1.033658e+003, 2.768269e-001
1.035587e+003, 2.642514e-001
1.037515e+003, 2.499222e-001
1.039444e+003, 2.350675e-001
1.041372e+003, 2.210817e-001
1.043301e+003, 2.092062e-001
1.045229e+003, 1.994306e-001
1.047157e+003, 1.915920e-001
1.049086e+003, 1.854997e-001
1.051014e+003, 1.803841e-001
1.052943e+003, 1.756427e-001
1.054871e+003, 1.712385e-001
1.056800e+003, 1.666476e-001
1.058728e+003, 1.623259e-001
1.060657e+003, 1.588309e-001
1.062585e+003, 1.562690e-001
1.064514e+003, 1.546461e-001
1.066442e+003, 1.536361e-001
1.068371e+003, 1.526270e-001
1.070299e+003, 1.514035e-001
1.072228e+003, 1.500295e-001
1.074156e+003, 1.494180e-001
1.076084e+003, 1.496806e-001
1.078013e+003, 1.502611e-001
1.079941e+003, 1.505687e-001
1.081870e+003, 1.504303e-001
1.083798e+003, 1.499211e-001
1.085727e+003, 1.494337e-001
1.087655e+003, 1.488078e-001
1.089584e+003, 1.475083e-001
1.091512e+003, 1.452559e-001
1.093441e+003, 1.412830e-001
1.095369e+003, 1.349434e-001
1.097298e+003, 1.269123e-001
1.099226e+003, 1.183957e-001
1.101155e+003, 1.103506e-001
1.103083e+003, 1.032901e-001
1.105011e+003, 9.760664e-002
1.106940e+003, 9.373636e-002
1.108868e+003, 9.173077e-002
1.110797e+003, 9.172268e-002
1.112725e+003, 9.365991e-002
1.114654e+003, 9.754849e-002
1.116582e+003, 1.037092e-001
1.118511e+003, 1.121066e-001
1.120439e+003, 1.222027e-001
1.122368e+003, 1.328218e-001
1.124296e+003, 1.423194e-001
1.126225e+003, 1.487049e-001
1.128153e+003, 1.505067e-001
1.130082e+003, 1.477092e-001
1.132010e+003, 1.412861e-001
1.133938e+003, 1.327386e-001
1.135867e+003, 1.230881e-001
1.137795e+003, 1.129009e-001
1.139724e+003, 1.030110e-001
1.141652e+003, 9.349456e-002
1.143581e+003, 8.416097e-002
1.145509e+003, 7.522964e-002
1.147438e+003, 6.701943e-002
1.149366e+003, 5.963892e-002
1.151295e+003, 5.306161e-002
1.153223e+003, 4.741460e-002
1.155152e+003, 4.254254e-002
1.157080e+003, 3.853790e-002
1.159009e+003, 3.538402e-002
1.160937e+003, 3.266024e-002
1.162865e+003, 3.029690e-002
1.164794e+003, 2.826647e-002
1.166722e+003, 2.660052e-002
1.168651e+003, 2.523530e-002
1.170579e+003, 2.403274e-002
1.172508e+003, 2.289378e-002
1.174436e+003, 2.186799e-002
1.176365e+003, 2.099361e-002
1.178293e+003, 2.020347e-002
1.180222e+003, 1.961569e-002
1.182150e+003, 1.898677e-002
1.184079e+003, 1.828481e-002
1.186007e+003, 1.771137e-002
1.187936e+003, 1.700639e-002
1.189864e+003, 1.639261e-002
1.191792e+003, 1.593276e-002
1.193721e+003, 1.556207e-002
1.195649e+003, 1.524433e-002
1.197578e+003, 1.489742e-002
1.199506e+003, 1.447302e-002
1.201435e+003, 1.419425e-002
1.203363e+003, 1.392053e-002
1.205292e+003, 1.358229e-002
1.207220e+003, 1.325156e-002
1.209149e+003, 1.295846e-002
1.211077e+003, 1.264013e-002
1.213006e+003, 1.234056e-002
1.214934e+003, 1.217515e-002
1.216863e+003, 1.194859e-002
1.218791e+003, 1.165089e-002
1.220719e+003, 1.139734e-002
1.222648e+003, 1.116412e-002
1.224576e+003, 1.108553e-002
1.226505e+003, 1.099559e-002
1.228433e+003, 1.075558e-002
1.230362e+003, 1.046304e-002
1.232290e+003, 1.017241e-002
1.234219e+003, 9.969819e-003
1.236147e+003, 9.886026e-003
1.238076e+003, 9.708241e-003
1.240004e+003, 9.545270e-003
1.241933e+003, 9.348266e-003
1.243861e+003, 9.050971e-003
1.245790e+003, 8.711170e-003
1.247718e+003, 8.665574e-003
1.249646e+003, 8.761299e-003
1.251575e+003, 8.670266e-003
1.253503e+003, 8.479008e-003
1.255432e+003, 8.300650e-003
1.257360e+003, 8.130732e-003
1.259289e+003, 8.163222e-003
1.261217e+003, 8.016071e-003
1.263146e+003, 7.800101e-003
1.265074e+003, 7.695865e-003
1.267003e+003, 7.708911e-003
1.268931e+003, 7.753124e-003
1.270860e+003, 7.701278e-003
1.272788e+003, 7.541856e-003
1.274717e+003, 7.545818e-003
1.276645e+003, 7.482393e-003
1.278573e+003, 7.358813e-003
1.280502e+003, 7.436329e-003
1.282430e+003, 7.449721e-003
1.284359e+003, 7.278539e-003
1.286287e+003, 7.263174e-003
1.288216e+003, 7.201484e-003
1.290144e+003, 7.101285e-003
1.292073e+003, 7.079594e-003
1.294001e+003, 6.966255e-003
1.295930e+003, 6.853491e-003
1.297858e+003, 6.879065e-003
1.299787e+003, 6.863722e-003
1.301715e+003, 6.804262e-003
1.303644e+003, 6.814520e-003
1.305572e+003, 6.938656e-003
1.307500e+003, 6.952367e-003
1.309429e+003, 6.899898e-003
1.311357e+003, 6.805362e-003
1.313286e+003, 6.728695e-003
1.315214e+003, 6.753699e-003
1.317143e+003, 6.781665e-003
1.319071e+003, 6.984305e-003
1.321000e+003, 6.981538e-003
1.322928e+003, 6.860336e-003
1.324857e+003, 6.812604e-003
1.326785e+003, 6.836297e-003
1.328714e+003, 6.853158e-003
1.330642e+003, 6.733404e-003
1.332571e+003, 6.619616e-003
1.334499e+003, 6.625226e-003
1.336427e+003, 6.548807e-003
1.338356e+003, 6.464803e-003
1.340284e+003, 6.484881e-003
1.342213e+003, 6.588456e-003
1.344141e+003, 6.656712e-003
1.346070e+003, 6.609297e-003
1.347998e+003, 6.661268e-003
1.349927e+003, 6.923048e-003
1.351855e+003, 6.933991e-003
1.353784e+003, 6.807474e-003
1.355712e+003, 6.901142e-003
1.357641e+003, 6.790852e-003
1.359569e+003, 6.630809e-003
1.361498e+003, 6.748412e-003
1.363426e+003, 6.911791e-003
1.365354e+003, 6.924862e-003
1.367283e+003, 6.833341e-003
1.369211e+003, 6.870969e-003
1.371140e+003, 6.963549e-003
1.373068e+003, 6.886997e-003
1.374997e+003, 6.833647e-003
1.376925e+003, 6.864634e-003
1.378854e+003, 7.029987e-003
1.380782e+003, 7.104300e-003
1.382711e+003, 7.147720e-003
1.384639e+003, 7.205917e-003
1.386568e+003, 7.017674e-003
1.388496e+003, 7.176372e-003
1.390424e+003, 7.198381e-003
1.392353e+003, 7.121761e-003
1.394281e+003, 7.159832e-003
1.396210e+003, 7.359211e-003
1.398138e+003, 7.369542e-003
1.400067e+003, 7.378723e-003
1.401995e+003, 7.335647e-003
1.403924e+003, 7.427808e-003
1.405852e+003, 7.595801e-003
1.407781e+003, 7.651512e-003
1.409709e+003, 7.614447e-003
1.411638e+003, 7.639593e-003
1.413566e+003, 7.708500e-003
1.415495e+003, 7.731332e-003
1.417423e+003, 7.875917e-003
1.419351e+003, 7.983729e-003
1.421280e+003, 7.989079e-003
1.423208e+003, 7.950430e-003
1.425137e+003, 7.891924e-003
1.427065e+003, 7.715800e-003
1.428994e+003, 7.824504e-003
1.430922e+003, 7.944569e-003
1.432851e+003, 7.878765e-003
1.434779e+003, 8.009957e-003
1.436708e+003, 8.371454e-003
1.438636e+003, 8.359624e-003
1.440565e+003, 8.330300e-003
1.442493e+003, 8.487692e-003
1.444422e+003, 8.372795e-003
1.446350e+003, 8.224839e-003
1.448278e+003, 8.342695e-003
1.450207e+003, 8.448224e-003
1.452135e+003, 8.575392e-003
1.454064e+003, 8.572533e-003
1.455992e+003, 8.442682e-003
1.457921e+003, 8.554915e-003
1.459849e+003, 8.629681e-003
1.461778e+003, 8.622019e-003
1.463706e+003, 8.493559e-003
1.465635e+003, 8.373263e-003
1.467563e+003, 8.303308e-003
1.469492e+003, 8.390884e-003
1.471420e+003, 8.387675e-003
1.473349e+003, 8.337143e-003
1.475277e+003, 8.159704e-003
1.477205e+003, 8.235106e-003
1.479134e+003, 8.078381e-003
1.481062e+003, 7.889370e-003
1.482991e+003, 7.866178e-003
1.484919e+003, 7.734894e-003
1.486848e+003, 7.667933e-003
1.488776e+003, 7.766348e-003
1.490705e+003, 7.984675e-003
1.492633e+003, 7.992763e-003
1.494562e+003, 7.778896e-003
1.496490e+003, 7.765987e-003
1.498419e+003, 7.941443e-003
1.500347e+003, 7.920299e-003
1.502276e+003, 7.750663e-003
1.504204e+003, 7.723561e-003
1.506132e+003, 7.939775e-003
1.508061e+003, 8.045985e-003
1.509989e+003, 8.079346e-003
1.511918e+003, 8.317568e-003
1.513846e+003, 8.418827e-003
1.515775e+003, 8.318987e-003
1.517703e+003, 8.447875e-003
1.519632e+003, 8.328048e-003
1.521560e+003, 8.468702e-003
1.523489e+003, 8.448852e-003
1.525417e+003, 8.507920e-003
1.527346e+003, 8.691561e-003
1.529274e+003, 8.840304e-003
1.531203e+003, 8.904125e-003
1.533131e+003, 8.988925e-003
1.535059e+003, 9.215320e-003
1.536988e+003, 9.461609e-003
1.538916e+003, 9.645204e-003
1.540845e+003, 1.001149e-002
1.542773e+003, 1.007890e-002
1.544702e+003, 9.954019e-003
1.546630e+003, 1.006142e-002
1.548559e+003, 1.015983e-002
1.550487e+003, 1.023246e-002
1.552416e+003, 1.011431e-002
1.554344e+003, 1.031976e-002
1.556273e+003, 1.050070e-002
1.558201e+003, 1.068063e-002
1.560130e+003, 1.102369e-002
1.562058e+003, 1.106011e-002
1.563986e+003, 1.101563e-002
1.565915e+003, 1.102015e-002
1.567843e+003, 1.115076e-002
1.569772e+003, 1.153414e-002
1.571700e+003, 1.157749e-002
1.573629e+003, 1.168707e-002
1.575557e+003, 1.235584e-002
1.577486e+003, 1.292056e-002
1.579414e+003, 1.281070e-002
1.581343e+003, 1.301682e-002
1.583271e+003, 1.331707e-002
1.585200e+003, 1.362304e-002
1.587128e+003, 1.384689e-002
1.589057e+003, 1.401773e-002
1.590985e+003, 1.426469e-002
1.592913e+003, 1.467739e-002
1.594842e+003, 1.506256e-002
1.596770e+003, 1.542377e-002
1.598699e+003, 1.590628e-002
1.600627e+003, 1.633704e-002
1.602556e+003, 1.676448e-002
1.604484e+003, 1.743233e-002
1.606413e+003, 1.803008e-002
1.608341e+003, 1.856294e-002
1.610270e+003, 1.916682e-002
1.612198e+003, 2.007102e-002
1.614127e+003, 2.128002e-002
1.616055e+003, 2.259975e-002
1.617984e+003, 2.423024e-002
1.619912e+003, 2.580102e-002
1.621840e+003, 2.769326e-002
1.623769e+003, 2.993297e-002
1.625697e+003, 3.229331e-002
1.627626e+003, 3.482744e-002
1.629554e+003, 3.747025e-002
1.631483e+003, 4.022975e-002
1.633411e+003, 4.321276e-002
1.635340e+003, 4.621879e-002
1.637268e+003, 4.900119e-002
1.639197e+003, 5.169818e-002
1.641125e+003, 5.405355e-002
1.643054e+003, 5.600597e-002
1.644982e+003, 5.751007e-002
1.646911e+003, 5.877230e-002
1.648839e+003, 5.909298e-002
1.650767e+003, 5.876596e-002
1.652696e+003, 5.815801e-002
1.654624e+003, 5.662971e-002
1.656553e+003, 5.384634e-002
1.658481e+003, 5.046959e-002
1.660410e+003, 4.661568e-002
1.662338e+003, 4.250340e-002
1.664267e+003, 3.854111e-002
1.666195e+003, 3.498826e-002
1.668124e+003, 3.172442e-002
1.670052e+003, 2.874807e-002
1.671981e+003, 2.617407e-002
1.673909e+003, 2.407995e-002
1.675838e+003, 2.212602e-002
1.677766e+003, 2.003852e-002
1.679694e+003, 1.852426e-002
1.681623e+003, 1.724927e-002
1.683551e+003, 1.622849e-002
1.685480e+003, 1.548565e-002
1.687408e+003, 1.417864e-002
1.689337e+003, 1.331279e-002
1.691265e+003, 1.285770e-002
1.693194e+003, 1.219981e-002
1.695122e+003, 1.170906e-002
1.697051e+003, 1.166829e-002
1.698979e+003, 1.108788e-002
1.700908e+003, 1.114025e-002
1.702836e+003, 1.065960e-002
1.704765e+003, 1.047074e-002
1.706693e+003, 1.036518e-002
1.708621e+003, 1.013348e-002
1.710550e+003, 1.015481e-002
1.712478e+003, 1.039022e-002
1.714407e+003, 1.041642e-002
1.716335e+003, 1.005293e-002
1.718264e+003, 9.974395e-003
1.720192e+003, 9.947814e-003
1.722121e+003, 9.927046e-003
1.724049e+003, 9.895043e-003
1.725978e+003, 9.820955e-003
1.727906e+003, 9.625491e-003
1.729835e+003, 9.666140e-003
1.731763e+003, 9.480359e-003
1.733692e+003, 9.049130e-003
1.735620e+003, 9.052456e-003
1.737548e+003, 9.110267e-003
1.739477e+003, 9.044484e-003
1.741405e+003, 8.430056e-003
1.743334e+003, 8.258367e-003
1.745262e+003, 8.268900e-003
1.747191e+003, 8.071847e-003
1.749119e+003, 7.813479e-003
1.751048e+003, 7.051268e-003
1.752976e+003, 6.588987e-003
1.754905e+003, 6.391854e-003
1.756833e+003, 6.443568e-003
1.758762e+003, 6.538203e-003
1.760690e+003, 6.434458e-003
1.762619e+003, 6.152179e-003
1.764547e+003, 5.906943e-003
1.766475e+003, 6.019676e-003
1.768404e+003, 6.015031e-003
1.770332e+003, 5.988393e-003
1.772261e+003, 6.133302e-003
1.774189e+003, 5.652549e-003
1.776118e+003, 5.398885e-003
1.778046e+003, 5.530938e-003
1.779975e+003, 5.235885e-003
1.781903e+003, 5.187559e-003
1.783832e+003, 5.621127e-003
1.785760e+003, 5.384197e-003
1.787689e+003, 4.642203e-003
1.789617e+003, 4.746885e-003
1.791546e+003, 5.098524e-003
1.793474e+003, 5.236242e-003
1.795402e+003, 5.060299e-003
1.797331e+003, 4.630742e-003
1.799259e+003, 4.142781e-003
1.801188e+003, 4.302080e-003
1.803116e+003, 4.653865e-003
1.805045e+003, 4.390593e-003
1.806973e+003, 4.063969e-003
1.808902e+003, 3.868549e-003
1.810830e+003, 3.966071e-003
1.812759e+003, 4.027133e-003
1.814687e+003, 3.891214e-003
1.816616e+003, 3.687693e-003
1.818544e+003, 3.815246e-003
1.820473e+003, 4.421036e-003
1.822401e+003, 4.310681e-003
1.824329e+003, 4.040432e-003
1.826258e+003, 4.112086e-003
1.828186e+003, 3.751131e-003
1.830115e+003, 3.842921e-003
1.832043e+003, 3.875040e-003
1.833972e+003, 4.283054e-003
1.835900e+003, 4.227330e-003
1.837829e+003, 3.880704e-003
1.839757e+003, 3.572976e-003
1.841686e+003, 3.178662e-003
1.843614e+003, 3.123488e-003
1.845543e+003, 3.239810e-003
1.847471e+003, 3.113678e-003
1.849400e+003, 2.744789e-003
1.851328e+003, 2.382708e-003
1.853256e+003, 2.462152e-003
1.855185e+003, 2.672163e-003
1.857113e+003, 2.447444e-003
1.859042e+003, 2.258919e-003
1.860970e+003, 2.344675e-003
1.862899e+003, 2.279965e-003
1.864827e+003, 2.000849e-003
1.866756e+003, 1.874340e-003
1.868684e+003, 1.944030e-003
1.870613e+003, 2.261339e-003
1.872541e+003, 2.142279e-003
1.874470e+003, 1.853807e-003
1.876398e+003, 1.818905e-003
1.878327e+003, 1.487067e-003
1.880255e+003, 1.147849e-003
1.882183e+003, 1.491285e-003
1.884112e+003, 1.864355e-003
1.886040e+003, 1.663013e-003
1.887969e+003, 1.691741e-003
1.889897e+003, 1.346750e-003
1.891826e+003, 1.260319e-003
1.893754e+003, 1.916326e-003
1.895683e+003, 1.640625e-003
1.897611e+003, 7.052732e-004
1.899540e+003, 1.002800e-003
1.901468e+003, 7.525111e-004
1.903397e+003, 1.870111e-004
1.905325e+003, 4.509655e-004
1.907254e+003, -7.374121e-005
1.909182e+003, -1.253568e-004
1.911110e+003, 5.461110e-004
1.913039e+003, 3.572048e-004
1.914967e+003, -4.212471e-005
1.916896e+003, 5.381087e-005
1.918824e+003, 1.165193e-003
1.920753e+003, 1.566747e-003
1.922681e+003, 1.318269e-003
1.924610e+003, 1.886140e-004
1.926538e+003, -7.114058e-004
1.928467e+003, -4.228868e-004
1.930395e+003, -1.203902e-003
1.932324e+003, -2.416768e-003
1.934252e+003, -2.253867e-003
1.936181e+003, -1.619495e-003
1.938109e+003, -1.836139e-003
1.940037e+003, -2.698861e-003
1.941966e+003, -3.177641e-003
1.943894e+003, -3.081284e-003
1.945823e+003, -4.253875e-003
1.947751e+003, -4.338000e-003
1.949680e+003, -3.694850e-003
1.951608e+003, -3.749456e-003
1.953537e+003, -3.866398e-003
1.955465e+003, -3.609525e-003
1.957394e+003, -4.262395e-003
1.959322e+003, -5.183719e-003
1.961251e+003, -5.085398e-003
1.963179e+003, -4.489587e-003
1.965108e+003, -4.581740e-003
1.967036e+003, -5.318869e-003
1.968964e+003, -5.388701e-003
1.970893e+003, -6.617182e-003
1.972821e+003, -7.730402e-003
1.974750e+003, -6.471753e-003
1.976678e+003, -5.919828e-003
1.978607e+003, -4.349836e-003
1.980535e+003, -3.279338e-003
1.982464e+003, -4.226317e-003
1.984392e+003, -4.058634e-003
1.986321e+003, -3.843795e-003
1.988249e+003, -5.003136e-003
1.990178e+003, -4.157842e-003
1.992106e+003, -3.647017e-003
1.994035e+003, -3.220776e-003
1.995963e+003, -3.850736e-003
1.997891e+003, -5.379911e-003
1.999820e+003, -5.301058e-003
2.001748e+003, -4.964308e-003
2.003677e+003, -5.900647e-003
2.005605e+003, -6.828504e-003
2.007534e+003, -5.134874e-003
2.009462e+003, -4.114537e-003
2.011391e+003, -4.589371e-003
2.013319e+003, -7.117185e-003
2.015248e+003, -7.747853e-003
2.017176e+003, -5.710821e-003
2.019105e+003, -5.008176e-003
2.021033e+003, -5.580602e-003
2.022962e+003, -6.629100e-003
2.024890e+003, -6.632238e-003
2.026818e+003, -6.353758e-003
2.028747e+003, -5.491670e-003
2.030675e+003, -5.282856e-003
2.032604e+003, -4.779099e-003
2.034532e+003, -3.736029e-003
2.036461e+003, -4.685895e-003
2.038389e+003, -4.772010e-003
2.040318e+003, -4.539197e-003
2.042246e+003, -3.639910e-003
2.044175e+003, -3.101038e-003
2.046103e+003, -2.961241e-003
2.048032e+003, -3.049012e-003
2.049960e+003, -1.622476e-003
2.051889e+003, -5.143459e-004
2.053817e+003, -5.085581e-004
2.055746e+003, -9.945276e-004
2.057674e+003, -9.134660e-004
2.059603e+003, -6.647086e-004
2.061531e+003, -8.055390e-004
2.063459e+003, -6.345065e-004
2.065388e+003, -3.616170e-004
2.067316e+003, -7.666904e-005
2.069245e+003, 9.257747e-005
2.071173e+003, 1.559566e-005
2.073102e+003, 2.331192e-004
2.075030e+003, 1.370934e-003
2.076959e+003, 1.479050e-003
2.078887e+003, 1.232906e-003
2.080816e+003, 1.964176e-003
2.082744e+003, 1.576089e-003
2.084673e+003, 1.173962e-003
2.086601e+003, 2.305276e-003
2.088530e+003, 3.141511e-003
2.090458e+003, 3.467259e-003
2.092386e+003, 2.645163e-003
2.094315e+003, 2.114240e-003
2.096243e+003, 1.865458e-003
2.098172e+003, 2.363390e-003
2.100100e+003, 1.883124e-003
2.102029e+003, 1.360024e-003
2.103957e+003, 2.275078e-003
2.105886e+003, 2.296055e-003
2.107814e+003, 1.957036e-003
2.109743e+003, 1.920372e-003
2.111671e+003, 1.832809e-003
2.113600e+003, 2.369288e-003
2.115528e+003, 2.369205e-003
2.117457e+003, 1.778019e-003
2.119385e+003, 1.693808e-003
2.121313e+003, 1.487081e-003
2.123242e+003, 8.786179e-004
2.125170e+003, 5.713199e-004
2.127099e+003, 2.031491e-004
2.129027e+003, -1.287505e-003
2.130956e+003, -2.880174e-003
2.132884e+003, -3.641585e-003
2.134813e+003, -1.955729e-003
2.136741e+003, -1.496809e-003
2.138670e+003, -2.367678e-003
2.140598e+003, -3.309201e-003
2.142527e+003, -3.678674e-003
2.144455e+003, -2.684163e-003
2.146384e+003, -1.730444e-003
2.148312e+003, -2.963129e-003
2.150240e+003, -3.529732e-003
2.152169e+003, -4.343693e-003
2.154097e+003, -6.116523e-003
2.156026e+003, -8.456284e-003
2.157954e+003, -6.501112e-003
2.159883e+003, -3.427394e-003
2.161811e+003, -1.642961e-003
2.163740e+003, -3.323004e-004
2.165668e+003, -1.837481e-003
2.167597e+003, -2.913578e-003
2.169525e+003, -2.196893e-003
2.171454e+003, -1.630517e-003
2.173382e+003, -9.394159e-004
2.175311e+003, -1.381952e-004
2.177239e+003, -3.952078e-004
2.179167e+003, -1.074981e-003
2.181096e+003, -9.150094e-004
2.183024e+003, -2.417945e-004
2.184953e+003, -2.237978e-003
2.186881e+003, -3.725141e-003
2.188810e+003, -3.791630e-003
2.190738e+003, -4.572698e-004
2.192667e+003, 2.203627e-003
2.194595e+003, 9.853132e-004
2.196524e+003, 9.038602e-004
2.198452e+003, -1.495933e-004
2.200381e+003, -1.426495e-004
2.202309e+003, 1.350463e-003
2.204238e+003, 1.794962e-003
2.206166e+003, 2.657286e-003
2.208094e+003, 2.414800e-003
2.210023e+003, 1.712511e-003
2.211951e+003, 1.726064e-003
2.213880e+003, 1.259177e-003
2.215808e+003, 2.565959e-003
2.217737e+003, 4.374554e-003
2.219665e+003, 4.205759e-003
2.221594e+003, 3.301119e-003
2.223522e+003, 3.462371e-003
2.225451e+003, 4.124383e-003
2.227379e+003, 3.839078e-003
2.229308e+003, 2.812261e-003
2.231236e+003, 3.488850e-003
2.233165e+003, 4.523968e-003
2.235093e+003, 3.603588e-003
2.237021e+003, 3.731066e-003
2.238950e+003, 4.408934e-003
2.240878e+003, 4.012884e-003
2.242807e+003, 3.144698e-003
2.244735e+003, 2.441698e-003
2.246664e+003, 2.540257e-003
2.248592e+003, 2.780535e-003
2.250521e+003, 2.584185e-003
2.252449e+003, 2.561994e-003
2.254378e+003, 2.884630e-003
2.256306e+003, 2.678906e-003
2.258235e+003, 2.674465e-003
2.260163e+003, 3.906032e-003
2.262092e+003, 3.660050e-003
2.264020e+003, 2.839794e-003
2.265948e+003, 3.390832e-003
2.267877e+003, 3.847006e-003
2.269805e+003, 3.420841e-003
2.271734e+003, 3.984476e-003
2.273662e+003, 4.669287e-003
2.275591e+003, 4.841526e-003
2.277519e+003, 4.723730e-003
2.279448e+003, 5.067827e-003
2.281376e+003, 5.402431e-003
2.283305e+003, 6.029279e-003
2.285233e+003, 6.513781e-003
2.287162e+003, 6.548868e-003
2.289090e+003, 6.261272e-003
2.291019e+003, 6.344911e-003
2.292947e+003, 6.557183e-003
2.294875e+003, 6.213035e-003
2.296804e+003, 6.367915e-003
2.298732e+003, 6.737927e-003
2.300661e+003, 6.538504e-003
2.302589e+003, 6.029950e-003
2.304518e+003, 6.082031e-003
2.306446e+003, 7.354800e-003
2.308375e+003, 8.035282e-003
2.310303e+003, 8.205787e-003
2.312232e+003, 8.361581e-003
2.314160e+003, 7.857676e-003
2.316089e+003, 8.400048e-003
2.318017e+003, 9.199270e-003
2.319946e+003, 9.337254e-003
2.321874e+003, 9.842341e-003
2.323802e+003, 9.993482e-003
2.325731e+003, 8.686509e-003
2.327659e+003, 7.656939e-003
2.329588e+003, 7.389500e-003
2.331516e+003, 7.419599e-003
2.333445e+003, 7.648791e-003
2.335373e+003, 7.553671e-003
2.337302e+003, 7.515837e-003
2.339230e+003, 7.482297e-003
2.341159e+003, 7.378274e-003
2.343087e+003, 7.135787e-003
2.345016e+003, 7.311437e-003
2.346944e+003, 7.713137e-003
2.348873e+003, 7.380302e-003
2.350801e+003, 6.913641e-003
2.352729e+003, 6.335380e-003
2.354658e+003, 6.479201e-003
2.356586e+003, 6.770941e-003
2.358515e+003, 7.190260e-003
2.360443e+003, 7.386946e-003
2.362372e+003, 7.373503e-003
2.364300e+003, 6.830643e-003
2.366229e+003, 6.532730e-003
2.368157e+003, 6.624582e-003
2.370086e+003, 6.885984e-003
2.372014e+003, 7.014075e-003
2.373942e+003, 6.520178e-003
2.375871e+003, 6.367089e-003
2.377799e+003, 6.831660e-003
2.379728e+003, 6.804544e-003
2.381656e+003, 6.608889e-003
2.383585e+003, 6.248708e-003
2.385513e+003, 5.947387e-003
2.387442e+003, 6.095237e-003
2.389370e+003, 5.768875e-003
2.391299e+003, 5.324446e-003
2.393227e+003, 5.764970e-003
2.395156e+003, 6.324587e-003
2.397084e+003, 6.372282e-003
2.399012e+003, 5.608841e-003
2.400941e+003, 5.357088e-003
2.402869e+003, 5.790037e-003
2.404798e+003, 6.111057e-003
2.406726e+003, 6.030455e-003
2.408655e+003, 5.491193e-003
2.410583e+003, 5.295358e-003
2.412512e+003, 5.983289e-003
2.414440e+003, 6.460875e-003
2.416369e+003, 6.023617e-003
2.418297e+003, 5.555227e-003
2.420226e+003, 5.521527e-003
2.422154e+003, 6.101488e-003
2.424083e+003, 5.875400e-003
2.426011e+003, 5.756407e-003
2.427939e+003, 5.840986e-003
2.429868e+003, 6.038893e-003
2.431796e+003, 6.008274e-003
2.433725e+003, 5.925536e-003
2.435653e+003, 6.313283e-003
2.437582e+003, 6.003239e-003
2.439510e+003, 5.923856e-003
2.441439e+003, 5.915686e-003
2.443367e+003, 5.983131e-003
2.445296e+003, 6.366319e-003
2.447224e+003, 6.028458e-003
2.449153e+003, 6.512138e-003
2.451081e+003, 6.866976e-003
2.453010e+003, 6.775200e-003
2.454938e+003, 7.390406e-003
2.456866e+003, 7.167288e-003
2.458795e+003, 7.149130e-003
2.460723e+003, 6.792899e-003
2.462652e+003, 6.074922e-003
2.464580e+003, 6.019318e-003
2.466509e+003, 6.255410e-003
2.468437e+003, 6.080971e-003
2.470366e+003, 6.263547e-003
2.472294e+003, 6.431019e-003
2.474223e+003, 6.312992e-003
2.476151e+003, 6.443860e-003
2.478080e+003, 7.060067e-003
2.480008e+003, 6.617014e-003
2.481937e+003, 6.319526e-003
2.483865e+003, 6.480332e-003
2.485793e+003, 6.688477e-003
2.487722e+003, 6.741855e-003
2.489650e+003, 7.207798e-003
2.491579e+003, 6.420648e-003
2.493507e+003, 6.066966e-003
2.495436e+003, 6.739884e-003
2.497364e+003, 7.168659e-003
2.499293e+003, 7.007153e-003
2.501221e+003, 6.708980e-003
2.503150e+003, 6.363453e-003
2.505078e+003, 6.519570e-003
2.507007e+003, 6.554758e-003
2.508935e+003, 6.107437e-003
2.510864e+003, 6.409678e-003
2.512792e+003, 6.406813e-003
2.514720e+003, 5.975567e-003
2.516649e+003, 5.651192e-003
2.518577e+003, 5.596136e-003
2.520506e+003, 5.664723e-003
2.522434e+003, 5.752739e-003
2.524363e+003, 5.938016e-003
2.526291e+003, 7.062556e-003
2.528220e+003, 7.571234e-003
2.530148e+003, 6.593176e-003
2.532077e+003, 6.579886e-003
2.534005e+003, 7.525665e-003
2.535934e+003, 7.839052e-003
2.537862e+003, 7.625940e-003
2.539791e+003, 7.259798e-003
2.541719e+003, 7.556209e-003
2.543647e+003, 8.296658e-003
2.545576e+003, 7.946337e-003
2.547504e+003, 7.588284e-003
2.549433e+003, 6.955791e-003
2.551361e+003, 6.994400e-003
2.553290e+003, 7.691303e-003
2.555218e+003, 7.391773e-003
2.557147e+003, 7.376540e-003
2.559075e+003, 7.264743e-003
2.561004e+003, 7.084972e-003
2.562932e+003, 7.657418e-003
2.564861e+003, 7.708876e-003
2.566789e+003, 7.067856e-003
2.568718e+003, 6.806301e-003
2.570646e+003, 7.401083e-003
2.572574e+003, 7.121020e-003
2.574503e+003, 7.330699e-003
2.576431e+003, 8.411087e-003
2.578360e+003, 8.161507e-003
2.580288e+003, 7.817240e-003
2.582217e+003, 7.729087e-003
2.584145e+003, 7.928172e-003
2.586074e+003, 8.459493e-003
2.588002e+003, 8.050380e-003
2.589931e+003, 7.760475e-003
2.591859e+003, 7.988947e-003
2.593788e+003, 7.819890e-003
2.595716e+003, 7.960126e-003
2.597645e+003, 8.514691e-003
2.599573e+003, 8.660750e-003
2.601501e+003, 7.783087e-003
2.603430e+003, 7.098538e-003
2.605358e+003, 7.540838e-003
2.607287e+003, 7.733244e-003
2.609215e+003, 8.234806e-003
2.611144e+003, 8.663733e-003
2.613072e+003, 8.179304e-003
2.615001e+003, 8.305958e-003
2.616929e+003, 8.563845e-003
2.618858e+003, 8.541744e-003
2.620786e+003, 9.103396e-003
2.622715e+003, 9.020484e-003
2.624643e+003, 8.615819e-003
2.626572e+003, 8.631970e-003
2.628500e+003, 8.642610e-003
2.630428e+003, 8.287454e-003
2.632357e+003, 8.171066e-003
2.634285e+003, 8.465263e-003
2.636214e+003, 8.645797e-003
2.638142e+003, 8.477217e-003
2.640071e+003, 8.596311e-003
2.641999e+003, 8.815437e-003
2.643928e+003, 9.419861e-003
2.645856e+003, 9.520873e-003
2.647785e+003, 9.155889e-003
2.649713e+003, 9.124771e-003
2.651642e+003, 9.143456e-003
2.653570e+003, 9.318241e-003
2.655499e+003, 9.401478e-003
2.657427e+003, 8.987246e-003
2.659355e+003, 8.701283e-003
2.661284e+003, 8.623637e-003
2.663212e+003, 8.292722e-003
2.665141e+003, 8.686048e-003
2.667069e+003, 8.801054e-003
2.668998e+003, 8.567736e-003
2.670926e+003, 8.577584e-003
2.672855e+003, 8.443890e-003
2.674783e+003, 8.120429e-003
2.676712e+003, 8.140842e-003
2.678640e+003, 8.313680e-003
2.680569e+003, 8.383629e-003
2.682497e+003, 8.535597e-003
2.684426e+003, 8.354035e-003
2.686354e+003, 8.249773e-003
2.688282e+003, 8.445440e-003
2.690211e+003, 8.554578e-003
2.692139e+003, 8.773513e-003
2.694068e+003, 8.640852e-003
2.695996e+003, 8.163610e-003
2.697925e+003, 8.152076e-003
2.699853e+003, 8.336101e-003
2.701782e+003, 8.275700e-003
2.703710e+003, 8.053556e-003
2.705639e+003, 7.893131e-003
2.707567e+003, 7.970202e-003
2.709496e+003, 8.244091e-003
2.711424e+003, 7.920324e-003
2.713353e+003, 7.775989e-003
2.715281e+003, 7.786768e-003
2.717209e+003, 8.090145e-003
2.719138e+003, 8.813763e-003
2.721066e+003, 8.657158e-003
2.722995e+003, 7.790546e-003
2.724923e+003, 7.564059e-003
2.726852e+003, 8.208561e-003
2.728780e+003, 8.766775e-003
2.730709e+003, 8.825841e-003
2.732637e+003, 8.724348e-003
2.734566e+003, 8.554356e-003
2.736494e+003, 8.611350e-003
2.738423e+003, 8.624732e-003
2.740351e+003, 8.887381e-003
2.742280e+003, 8.764840e-003
2.744208e+003, 8.544044e-003
2.746136e+003, 8.942632e-003
2.748065e+003, 9.095890e-003
2.749993e+003, 9.030384e-003
2.751922e+003, 9.109025e-003
2.753850e+003, 8.879779e-003
2.755779e+003, 9.071006e-003
2.757707e+003, 9.238027e-003
2.759636e+003, 9.117056e-003
2.761564e+003, 8.920970e-003
2.763493e+003, 8.986705e-003
2.765421e+003, 8.958726e-003
2.767350e+003, 8.695900e-003
2.769278e+003, 8.192996e-003
2.771207e+003, 8.780997e-003
2.773135e+003, 9.597270e-003
2.775063e+003, 9.361689e-003
2.776992e+003, 9.617575e-003
2.778920e+003, 9.668714e-003
2.780849e+003, 8.836986e-003
2.782777e+003, 9.076087e-003
2.784706e+003, 9.716749e-003
2.786634e+003, 9.934598e-003
2.788563e+003, 1.013237e-002
2.790491e+003, 1.016838e-002
2.792420e+003, 9.597521e-003
2.794348e+003, 9.557115e-003
2.796277e+003, 9.921150e-003
2.798205e+003, 1.038471e-002
2.800134e+003, 1.014223e-002
2.802062e+003, 9.691122e-003
2.803990e+003, 9.300495e-003
2.805919e+003, 9.111107e-003
2.807847e+003, 9.621014e-003
2.809776e+003, 9.933382e-003
2.811704e+003, 9.969224e-003
2.813633e+003, 9.562381e-003
2.815561e+003, 9.410796e-003
2.817490e+003, 1.000621e-002
2.819418e+003, 9.858321e-003
2.821347e+003, 9.402628e-003
2.823275e+003, 9.314979e-003
2.825204e+003, 1.002625e-002
2.827132e+003, 1.022398e-002
2.829061e+003, 1.026848e-002
2.830989e+003, 1.027964e-002
2.832917e+003, 9.784698e-003
2.834846e+003, 9.558846e-003
2.836774e+003, 1.012209e-002
2.838703e+003, 1.036143e-002
2.840631e+003, 9.830130e-003
2.842560e+003, 9.887692e-003
2.844488e+003, 1.025415e-002
2.846417e+003, 1.028250e-002
2.848345e+003, 1.046012e-002
2.850274e+003, 1.014855e-002
2.852202e+003, 9.580614e-003
2.854131e+003, 9.376583e-003
2.856059e+003, 9.294531e-003
2.857988e+003, 1.003530e-002
2.859916e+003, 1.047079e-002
2.861844e+003, 1.053466e-002
2.863773e+003, 1.019146e-002
2.865701e+003, 1.005923e-002
2.867630e+003, 1.043206e-002
2.869558e+003, 1.054224e-002
2.871487e+003, 1.037701e-002
2.873415e+003, 1.044283e-002
2.875344e+003, 1.104295e-002
2.877272e+003, 1.179186e-002
2.879201e+003, 1.169903e-002
2.881129e+003, 1.110639e-002
2.883058e+003, 1.065216e-002
2.884986e+003, 1.037963e-002
2.886915e+003, 1.069332e-002
2.888843e+003, 1.045403e-002
2.890771e+003, 1.008515e-002
2.892700e+003, 1.023585e-002
2.894628e+003, 1.066560e-002
2.896557e+003, 1.146172e-002
2.898485e+003, 1.136343e-002
2.900414e+003, 1.072724e-002
2.902342e+003, 1.048184e-002
2.904271e+003, 1.077198e-002
2.906199e+003, 1.130836e-002
2.908128e+003, 1.091400e-002
2.910056e+003, 1.082135e-002
2.911985e+003, 1.099008e-002
2.913913e+003, 1.102541e-002
2.915842e+003, 1.091020e-002
2.917770e+003, 1.048122e-002
2.919698e+003, 9.594455e-003
2.921627e+003, 9.563435e-003
2.923555e+003, 1.083511e-002
2.925484e+003, 1.170846e-002
2.927412e+003, 1.119861e-002
2.929341e+003, 1.106293e-002
2.931269e+003, 1.224635e-002
2.933198e+003, 1.266524e-002
2.935126e+003, 1.273358e-002
2.937055e+003, 1.222778e-002
2.938983e+003, 1.154983e-002
2.940912e+003, 1.216090e-002
2.942840e+003, 1.291115e-002
2.944769e+003, 1.274408e-002
2.946697e+003, 1.194996e-002
2.948625e+003, 1.191892e-002
2.950554e+003, 1.234133e-002
2.952482e+003, 1.231029e-002
2.954411e+003, 1.237131e-002
2.956339e+003, 1.250431e-002
2.958268e+003, 1.269143e-002
2.960196e+003, 1.242534e-002
2.962125e+003, 1.222019e-002
2.964053e+003, 1.254705e-002
2.965982e+003, 1.316468e-002
2.967910e+003, 1.360360e-002
2.969839e+003, 1.333044e-002
2.971767e+003, 1.268541e-002
2.973696e+003, 1.293765e-002
2.975624e+003, 1.257085e-002
2.977552e+003, 1.237837e-002
2.979481e+003, 1.298765e-002
2.981409e+003, 1.349607e-002
2.983338e+003, 1.357752e-002
2.985266e+003, 1.403838e-002
2.987195e+003, 1.399992e-002
2.989123e+003, 1.342441e-002
2.991052e+003, 1.377208e-002
2.992980e+003, 1.364997e-002
2.994909e+003, 1.316878e-002
2.996837e+003, 1.381508e-002
2.998766e+003, 1.468557e-002
3.000694e+003, 1.443843e-002
3.002623e+003, 1.371616e-002
3.004551e+003, 1.324125e-002
3.006479e+003, 1.392850e-002
3.008408e+003, 1.456838e-002
3.010336e+003, 1.453768e-002
3.012265e+003, 1.479540e-002
3.014193e+003, 1.474982e-002
3.016122e+003, 1.473874e-002
3.018050e+003, 1.454672e-002
3.019979e+003, 1.462017e-002
3.021907e+003, 1.478463e-002
3.023836e+003, 1.509038e-002
3.025764e+003, 1.517202e-002
3.027693e+003, 1.426995e-002
3.029621e+003, 1.456129e-002
3.031550e+003, 1.578656e-002
3.033478e+003, 1.598684e-002
3.035406e+003, 1.522190e-002
3.037335e+003, 1.567491e-002
3.039263e+003, 1.681122e-002
3.041192e+003, 1.629792e-002
3.043120e+003, 1.563335e-002
3.045049e+003, 1.584573e-002
3.046977e+003, 1.557573e-002
3.048906e+003, 1.612450e-002
3.050834e+003, 1.706005e-002
3.052763e+003, 1.750688e-002
3.054691e+003, 1.754471e-002
3.056620e+003, 1.702643e-002
3.058548e+003, 1.715852e-002
3.060477e+003, 1.827954e-002
3.062405e+003, 1.809088e-002
3.064333e+003, 1.688882e-002
3.066262e+003, 1.704856e-002
3.068190e+003, 1.789763e-002
3.070119e+003, 1.846956e-002
3.072047e+003, 1.844763e-002
3.073976e+003, 1.904499e-002
3.075904e+003, 1.922980e-002
3.077833e+003, 1.871091e-002
3.079761e+003, 1.917058e-002
3.081690e+003, 1.989129e-002
3.083618e+003, 2.020451e-002
3.085547e+003, 2.028046e-002
3.087475e+003, 1.978888e-002
3.089404e+003, 2.033096e-002
3.091332e+003, 2.071922e-002
3.093260e+003, 1.994642e-002
3.095189e+003, 1.990379e-002
3.097117e+003, 2.026379e-002
3.099046e+003, 2.029184e-002
3.100974e+003, 2.063110e-002
3.102903e+003, 2.066116e-002
3.104831e+003, 2.044304e-002
3.106760e+003, 2.096116e-002
3.108688e+003, 2.162211e-002
3.110617e+003, 2.105470e-002
3.112545e+003, 2.044829e-002
3.114474e+003, 2.085809e-002
3.116402e+003, 2.163327e-002
3.118331e+003, 2.152551e-002
3.120259e+003, 2.169198e-002
3.122188e+003, 2.255924e-002
3.124116e+003, 2.337038e-002
3.126044e+003, 2.337037e-002
3.127973e+003, 2.337993e-002
3.129901e+003, 2.320055e-002
3.131830e+003, 2.383397e-002
3.133758e+003, 2.400420e-002
3.135687e+003, 2.447387e-002
3.137615e+003, 2.528333e-002
3.139544e+003, 2.527482e-002
3.141472e+003, 2.542226e-002
3.143401e+003, 2.536285e-002
3.145329e+003, 2.543213e-002
3.147258e+003, 2.513381e-002
3.149186e+003, 2.547852e-002
3.151115e+003, 2.637986e-002
3.153043e+003, 2.703615e-002
3.154971e+003, 2.716092e-002
3.156900e+003, 2.663679e-002
3.158828e+003, 2.663396e-002
3.160757e+003, 2.794888e-002
3.162685e+003, 2.873350e-002
3.164614e+003, 2.797346e-002
3.166542e+003, 2.768890e-002
3.168471e+003, 2.868584e-002
3.170399e+003, 2.924518e-002
3.172328e+003, 3.023028e-002
3.174256e+003, 3.009353e-002
3.176185e+003, 2.945906e-002
3.178113e+003, 2.957592e-002
3.180042e+003, 3.089501e-002
3.181970e+003, 3.124855e-002
3.183898e+003, 3.078501e-002
3.185827e+003, 3.113560e-002
3.187755e+003, 3.187497e-002
3.189684e+003, 3.208558e-002
3.191612e+003, 3.116024e-002
3.193541e+003, 3.079915e-002
3.195469e+003, 3.113250e-002
3.197398e+003, 3.188769e-002
3.199326e+003, 3.279829e-002
3.201255e+003, 3.328927e-002
3.203183e+003, 3.345652e-002
3.205112e+003, 3.349821e-002
3.207040e+003, 3.382786e-002
3.208969e+003, 3.466387e-002
3.210897e+003, 3.448020e-002
3.212825e+003, 3.481565e-002
3.214754e+003, 3.568712e-002
3.216682e+003, 3.620010e-002
3.218611e+003, 3.641620e-002
3.220539e+003, 3.724864e-002
3.222468e+003, 3.797522e-002
3.224396e+003, 3.671678e-002
3.226325e+003, 3.663998e-002
3.228253e+003, 3.758768e-002
3.230182e+003, 3.775824e-002
3.232110e+003, 3.832491e-002
3.234039e+003, 3.961686e-002
3.235967e+003, 4.057473e-002
3.237896e+003, 4.054237e-002
3.239824e+003, 4.012020e-002
3.241752e+003, 4.011403e-002
3.243681e+003, 4.075453e-002
3.245609e+003, 4.081783e-002
3.247538e+003, 4.096648e-002
3.249466e+003, 4.102152e-002
3.251395e+003, 4.234943e-002
3.253323e+003, 4.396743e-002
3.255252e+003, 4.367964e-002
3.257180e+003, 4.356337e-002
3.259109e+003, 4.387630e-002
3.261037e+003, 4.412117e-002
3.262966e+003, 4.384983e-002
3.264894e+003, 4.393265e-002
3.266823e+003, 4.464206e-002
3.268751e+003, 4.526852e-002
3.270679e+003, 4.561526e-002
3.272608e+003, 4.562020e-002
3.274536e+003, 4.579733e-002
3.276465e+003, 4.696982e-002
3.278393e+003, 4.831154e-002
3.280322e+003, 4.739373e-002
3.282250e+003, 4.667153e-002
3.284179e+003, 4.689708e-002
3.286107e+003, 4.670016e-002
3.288036e+003, 4.655005e-002
3.289964e+003, 4.695233e-002
3.291893e+003, 4.715006e-002
3.293821e+003, 4.714148e-002
3.295750e+003, 4.710136e-002
3.297678e+003, 4.720424e-002
3.299606e+003, 4.645850e-002
3.301535e+003, 4.665584e-002
3.303463e+003, 4.668762e-002
3.305392e+003, 4.700772e-002
3.307320e+003, 4.764810e-002
3.309249e+003, 4.855631e-002
3.311177e+003, 4.773542e-002
3.313106e+003, 4.752856e-002
3.315034e+003, 4.867709e-002
3.316963e+003, 5.062056e-002
3.318891e+003, 5.113405e-002
3.320820e+003, 5.107643e-002
3.322748e+003, 5.147412e-002
3.324677e+003, 5.104012e-002
3.326605e+003, 5.136905e-002
3.328533e+003, 5.257148e-002
3.330462e+003, 5.259484e-002
3.332390e+003, 5.254344e-002
3.334319e+003, 5.337096e-002
3.336247e+003, 5.497906e-002
3.338176e+003, 5.610405e-002
3.340104e+003, 5.641096e-002
3.342033e+003, 5.727534e-002
3.343961e+003, 5.703836e-002
3.345890e+003, 5.691399e-002
3.347818e+003, 5.816502e-002
3.349747e+003, 5.886720e-002
3.351675e+003, 5.950281e-002
3.353604e+003, 5.926583e-002
3.355532e+003, 5.874534e-002
3.357460e+003, 5.896327e-002
3.359389e+003, 6.013607e-002
3.361317e+003, 6.079053e-002
3.363246e+003, 6.082517e-002
3.365174e+003, 6.076986e-002
3.367103e+003, 6.163165e-002
3.369031e+003, 6.227734e-002
3.370960e+003, 6.217917e-002
3.372888e+003, 6.316973e-002
3.374817e+003, 6.387042e-002
3.376745e+003, 6.319951e-002
3.378674e+003, 6.277276e-002
3.380602e+003, 6.347690e-002
3.382531e+003, 6.404361e-002
3.384459e+003, 6.468534e-002
3.386387e+003, 6.545118e-002
3.388316e+003, 6.617395e-002
3.390244e+003, 6.671992e-002
3.392173e+003, 6.715985e-002
3.394101e+003, 6.704777e-002
3.396030e+003, 6.727991e-002
3.397958e+003, 6.726710e-002
3.399887e+003, 6.728481e-002
3.401815e+003, 6.778652e-002
3.403744e+003, 6.881034e-002
3.405672e+003, 7.058341e-002
3.407601e+003, 7.062635e-002
3.409529e+003, 7.042536e-002
3.411458e+003, 7.059679e-002
3.413386e+003, 7.103818e-002
3.415314e+003, 7.140927e-002
3.417243e+003, 7.176019e-002
3.419171e+003, 7.132911e-002
3.421100e+003, 7.237910e-002
3.423028e+003, 7.399927e-002
3.424957e+003, 7.394253e-002
3.426885e+003, 7.404158e-002
3.428814e+003, 7.412086e-002
3.430742e+003, 7.462435e-002
3.432671e+003, 7.462569e-002
3.434599e+003, 7.438225e-002
3.436528e+003, 7.421470e-002
3.438456e+003, 7.411161e-002
3.440385e+003, 7.450726e-002
3.442313e+003, 7.272927e-002
3.444241e+003, 7.167757e-002
3.446170e+003, 7.189793e-002
3.448098e+003, 7.267126e-002
3.450027e+003, 7.414058e-002
3.451955e+003, 7.470933e-002
3.453884e+003, 7.336395e-002
3.455812e+003, 7.253571e-002
3.457741e+003, 7.286792e-002
3.459669e+003, 7.258418e-002
3.461598e+003, 7.234631e-002
3.463526e+003, 7.216995e-002
3.465455e+003, 7.254127e-002
3.467383e+003, 7.232269e-002
3.469312e+003, 7.177907e-002
3.471240e+003, 7.113438e-002
3.473168e+003, 7.107222e-002
3.475097e+003, 7.041542e-002
3.477025e+003, 7.047482e-002
3.478954e+003, 7.150701e-002
3.480882e+003, 7.216294e-002
3.482811e+003, 7.150565e-002
3.484739e+003, 7.110579e-002
3.486668e+003, 7.157805e-002
3.488596e+003, 7.221987e-002
3.490525e+003, 7.128367e-002
3.492453e+003, 6.988978e-002
3.494382e+003, 6.992985e-002
3.496310e+003, 6.953465e-002
3.498239e+003, 6.941682e-002
3.500167e+003, 7.092375e-002
3.502095e+003, 7.093067e-002
3.504024e+003, 7.029621e-002
3.505952e+003, 7.003964e-002
3.507881e+003, 6.940961e-002
3.509809e+003, 6.997687e-002
3.511738e+003, 6.934059e-002
3.513666e+003, 6.920914e-002
3.515595e+003, 7.109824e-002
3.517523e+003, 7.146893e-002
3.519452e+003, 7.061217e-002
3.521380e+003, 6.974748e-002
3.523309e+003, 6.929710e-002
3.525237e+003, 7.024820e-002
3.527166e+003, 7.202642e-002
3.529094e+003, 7.187165e-002
3.531022e+003, 7.137804e-002
3.532951e+003, 7.179865e-002
3.534879e+003, 7.192962e-002
3.536808e+003, 7.195290e-002
3.538736e+003, 7.213524e-002
3.540665e+003, 7.229902e-002
3.542593e+003, 7.205401e-002
3.544522e+003, 7.129672e-002
3.546450e+003, 7.049256e-002
3.548379e+003, 7.044415e-002
3.550307e+003, 6.936351e-002
3.552236e+003, 6.856494e-002
3.554164e+003, 6.854612e-002
3.556093e+003, 6.853451e-002
3.558021e+003, 6.721763e-002
3.559949e+003, 6.628762e-002
3.561878e+003, 6.483376e-002
3.563806e+003, 6.386892e-002
3.565735e+003, 6.206624e-002
3.567663e+003, 6.174707e-002
3.569592e+003, 6.105929e-002
3.571520e+003, 5.790249e-002
3.573449e+003, 5.634640e-002
3.575377e+003, 5.503910e-002
3.577306e+003, 5.212311e-002
3.579234e+003, 5.023174e-002
3.581163e+003, 5.056455e-002
3.583091e+003, 5.086664e-002
3.585020e+003, 5.006836e-002
3.586948e+003, 4.897214e-002
3.588876e+003, 4.692693e-002
3.590805e+003, 4.537319e-002
3.592733e+003, 4.440767e-002
3.594662e+003, 4.289160e-002
3.596590e+003, 4.244864e-002
3.598519e+003, 4.153931e-002
3.600447e+003, 4.045862e-002
3.602376e+003, 3.961528e-002
3.604304e+003, 3.741247e-002
3.606233e+003, 3.438511e-002
3.608161e+003, 3.286447e-002
3.610090e+003, 3.142026e-002
3.612018e+003, 2.939742e-002
3.613947e+003, 3.158420e-002
3.615875e+003, 3.039957e-002
3.617803e+003, 2.704237e-002
3.619732e+003, 2.639476e-002
3.621660e+003, 2.681889e-002
3.623589e+003, 2.532117e-002
3.625517e+003, 2.444303e-002
3.627446e+003, 2.472927e-002
3.629374e+003, 2.405327e-002
3.631303e+003, 2.241889e-002
3.633231e+003, 2.195318e-002
3.635160e+003, 1.902211e-002
3.637088e+003, 1.619654e-002
3.639017e+003, 1.629328e-002
3.640945e+003, 1.761100e-002
3.642874e+003, 1.643384e-002
3.644802e+003, 1.399505e-002
3.646730e+003, 1.502809e-002
3.648659e+003, 1.706298e-002
3.650587e+003, 1.573866e-002
3.652516e+003, 1.316139e-002
3.654444e+003, 1.216030e-002
3.656373e+003, 1.247548e-002
3.658301e+003, 1.139804e-002
3.660230e+003, 1.139246e-002
3.662158e+003, 1.191704e-002
3.664087e+003, 1.107130e-002
3.666015e+003, 1.148744e-002
3.667944e+003, 1.308124e-002
3.669872e+003, 1.293389e-002
3.671801e+003, 1.065544e-002
3.673729e+003, 9.182902e-003
3.675657e+003, 1.071202e-002
3.677586e+003, 9.983834e-003
3.679514e+003, 9.553768e-003
3.681443e+003, 1.034125e-002
3.683371e+003, 1.052439e-002
3.685300e+003, 1.016598e-002
3.687228e+003, 9.693326e-003
3.689157e+003, 8.709934e-003
3.691085e+003, 7.745485e-003
3.693014e+003, 7.364191e-003
3.694942e+003, 9.674384e-003
3.696871e+003, 1.133767e-002
3.698799e+003, 9.469886e-003
3.700728e+003, 7.454488e-003
3.702656e+003, 8.764192e-003
3.704584e+003, 1.033781e-002
3.706513e+003, 9.761089e-003
3.708441e+003, 8.103013e-003
3.710370e+003, 8.764345e-003
3.712298e+003, 9.794380e-003
3.714227e+003, 8.637863e-003
3.716155e+003, 9.185673e-003
3.718084e+003, 1.090421e-002
3.720012e+003, 9.316524e-003
3.721941e+003, 8.936604e-003
3.723869e+003, 1.005965e-002
3.725798e+003, 9.706413e-003
3.727726e+003, 7.821370e-003
3.729655e+003, 7.689201e-003
3.731583e+003, 8.870916e-003
3.733511e+003, 8.753722e-003
3.735440e+003, 8.786180e-003
3.737368e+003, 1.004416e-002
3.739297e+003, 1.045824e-002
3.741225e+003, 1.016235e-002
3.743154e+003, 9.946685e-003
3.745082e+003, 1.044761e-002
3.747011e+003, 1.056798e-002
3.748939e+003, 1.070784e-002
3.750868e+003, 8.410234e-003
3.752796e+003, 7.854249e-003
3.754725e+003, 8.827397e-003
3.756653e+003, 1.015170e-002
3.758582e+003, 1.026744e-002
3.760510e+003, 9.139027e-003
3.762438e+003, 8.513426e-003
3.764367e+003, 8.472605e-003
3.766295e+003, 9.053098e-003
3.768224e+003, 1.133067e-002
3.770152e+003, 1.352495e-002
3.772081e+003, 1.149604e-002
3.774009e+003, 8.042905e-003
3.775938e+003, 9.262771e-003
3.777866e+003, 1.072151e-002
3.779795e+003, 8.551404e-003
3.781723e+003, 8.434493e-003
3.783652e+003, 1.042620e-002
3.785580e+003, 1.119081e-002
3.787509e+003, 9.689768e-003
3.789437e+003, 8.626919e-003
3.791365e+003, 9.291576e-003
3.793294e+003, 9.704982e-003
3.795222e+003, 8.868343e-003
3.797151e+003, 8.059101e-003
3.799079e+003, 7.098845e-003
3.801008e+003, 7.702149e-003
3.802936e+003, 9.155714e-003
3.804865e+003, 1.022333e-002
3.806793e+003, 9.725126e-003
3.808722e+003, 1.057847e-002
3.810650e+003, 1.118826e-002
3.812579e+003, 1.045371e-002
3.814507e+003, 1.027316e-002
3.816436e+003, 1.000219e-002
3.818364e+003, 8.155855e-003
3.820292e+003, 7.996303e-003
3.822221e+003, 1.027350e-002
3.824149e+003, 1.062493e-002
3.826078e+003, 1.003274e-002
3.828006e+003, 9.939802e-003
3.829935e+003, 9.928684e-003
3.831863e+003, 1.006292e-002
3.833792e+003, 9.841652e-003
3.835720e+003, 1.037951e-002
3.837649e+003, 9.732483e-003
3.839577e+003, 8.317809e-003
3.841506e+003, 8.644325e-003
3.843434e+003, 9.228490e-003
3.845363e+003, 8.592940e-003
3.847291e+003, 6.774997e-003
3.849219e+003, 6.228456e-003
3.851148e+003, 7.501408e-003
3.853076e+003, 8.478872e-003
3.855005e+003, 9.501785e-003
3.856933e+003, 9.826123e-003
3.858862e+003, 8.648789e-003
3.860790e+003, 6.893928e-003
3.862719e+003, 7.423754e-003
3.864647e+003, 9.010760e-003
3.866576e+003, 1.020364e-002
3.868504e+003, 1.034956e-002
3.870433e+003, 9.122190e-003
3.872361e+003, 8.552719e-003
3.874290e+003, 9.238640e-003
3.876218e+003, 8.524711e-003
3.878146e+003, 8.798819e-003
3.880075e+003, 1.022666e-002
3.882003e+003, 9.376352e-003
3.883932e+003, 9.657586e-003
3.885860e+003, 1.120162e-002
3.887789e+003, 1.143088e-002
3.889717e+003, 9.456296e-003
3.891646e+003, 7.962656e-003
3.893574e+003, 9.013007e-003
3.895503e+003, 9.549286e-003
3.897431e+003, 7.788973e-003
3.899360e+003, 7.495962e-003
3.901288e+003, 8.325598e-003
3.903217e+003, 9.759940e-003
3.905145e+003, 8.719137e-003
3.907073e+003, 8.790100e-003
3.909002e+003, 1.060137e-002
3.910930e+003, 9.420789e-003
3.912859e+003, 7.493060e-003
3.914787e+003, 9.769990e-003
3.916716e+003, 1.194332e-002
3.918644e+003, 1.290506e-002
3.920573e+003, 1.273492e-002
3.922501e+003, 1.190931e-002
3.924430e+003, 1.082445e-002
3.926358e+003, 1.010463e-002
3.928287e+003, 9.934505e-003
3.930215e+003, 9.852676e-003
3.932144e+003, 1.004274e-002
3.934072e+003, 9.440201e-003
3.936000e+003, 8.790788e-003
3.937929e+003, 8.339436e-003
3.939857e+003, 8.173713e-003
3.941786e+003, 7.921777e-003
3.943714e+003, 8.179724e-003
3.945643e+003, 9.337642e-003
3.947571e+003, 9.750535e-003
3.949500e+003, 9.216081e-003
3.951428e+003, 9.215988e-003
3.953357e+003, 9.858973e-003
3.955285e+003, 9.062320e-003
3.957214e+003, 7.689867e-003
3.959142e+003, 8.803019e-003
3.961071e+003, 9.166804e-003
3.962999e+003, 9.774291e-003
3.964927e+003, 1.066058e-002
3.966856e+003, 9.380583e-003
3.968784e+003, 1.005839e-002
3.970713e+003, 1.122806e-002
3.972641e+003, 1.198591e-002
3.974570e+003, 1.256997e-002
3.976498e+003, 1.218952e-002
3.978427e+003, 9.646430e-003
3.980355e+003, 7.766446e-003
3.982284e+003, 6.452811e-003
3.984212e+003, 6.274194e-003
3.986141e+003, 7.965345e-003
3.988069e+003, 9.599634e-003
3.989998e+003, 8.893115e-003
3.991926e+003, 9.291168e-003
3.993854e+003, 9.059542e-003
3.995783e+003, 7.850275e-003
3.997711e+003, 7.661871e-003
3.999640e+003, 7.664174e-003
##END=



