##NAMES=Lawsonite
##RRUFFID=R050042
##IDEAL CHEMISTRY=CaAl_2_Si_2_O_7_(OH)_2_&#183;H_2_O
##LOCALITY=California, USA
##OWNER=RRUFF
##SOURCE=University of Arizona Mineral Museum
##DESCRIPTION=White to colorless fragments
##STATUS=The identification of this mineral has been confirmed by X-ray diffraction and chemical analysis
##URL=rruff.info/R050042
##MEASURED CHEMISTRY=(Ca_0.98_Fe^2+^_0.02_)Al_2.00_Si_2.00_O_7_(OH)_2_Â·H_2_O
3.991926e+002, 0.000000e+000
4.011211e+002, 1.978723e-001
4.030496e+002, 1.988682e-001
4.049780e+002, 1.978341e-001
4.069065e+002, 1.990779e-001
4.088350e+002, 1.978208e-001
4.107634e+002, 1.959907e-001
4.126919e+002, 1.952038e-001
4.146204e+002, 1.972978e-001
4.165488e+002, 2.008788e-001
4.184773e+002, 2.070243e-001
4.204058e+002, 2.091977e-001
4.223342e+002, 2.037580e-001
4.242627e+002, 1.979718e-001
4.261912e+002, 1.964581e-001
4.281196e+002, 1.928711e-001
4.300481e+002, 1.906085e-001
4.319766e+002, 1.964562e-001
4.339050e+002, 2.029947e-001
4.358335e+002, 2.066438e-001
4.377620e+002, 2.113921e-001
4.396904e+002, 2.161328e-001
4.416189e+002, 2.186441e-001
4.435474e+002, 2.202711e-001
4.454758e+002, 2.210371e-001
4.474043e+002, 2.207432e-001
4.493328e+002, 2.227408e-001
4.512612e+002, 2.246085e-001
4.531897e+002, 2.253546e-001
4.551182e+002, 2.257512e-001
4.570466e+002, 2.264875e-001
4.589751e+002, 2.261539e-001
4.609036e+002, 2.259923e-001
4.628320e+002, 2.263324e-001
4.647605e+002, 2.257668e-001
4.666890e+002, 2.252458e-001
4.686174e+002, 2.245328e-001
4.705459e+002, 2.227206e-001
4.724744e+002, 2.215619e-001
4.744028e+002, 2.207456e-001
4.763313e+002, 2.201199e-001
4.782598e+002, 2.191633e-001
4.801882e+002, 2.178899e-001
4.821167e+002, 2.159425e-001
4.840452e+002, 2.141186e-001
4.859736e+002, 2.129879e-001
4.879021e+002, 2.118063e-001
4.898306e+002, 2.101914e-001
4.917590e+002, 2.084730e-001
4.936875e+002, 2.068913e-001
4.956160e+002, 2.052423e-001
4.975444e+002, 2.039665e-001
4.994729e+002, 2.036865e-001
5.014014e+002, 2.030221e-001
5.033298e+002, 2.008884e-001
5.052583e+002, 1.976666e-001
5.071868e+002, 1.956948e-001
5.091152e+002, 1.940378e-001
5.110437e+002, 1.915176e-001
5.129722e+002, 1.895457e-001
5.149006e+002, 1.869059e-001
5.168291e+002, 1.843369e-001
5.187576e+002, 1.825385e-001
5.206860e+002, 1.805842e-001
5.226145e+002, 1.787860e-001
5.245430e+002, 1.781449e-001
5.264714e+002, 1.785004e-001
5.283999e+002, 1.798448e-001
5.303284e+002, 1.815436e-001
5.322568e+002, 1.826890e-001
5.341853e+002, 1.833639e-001
5.361138e+002, 1.830062e-001
5.380422e+002, 1.828174e-001
5.399707e+002, 1.825003e-001
5.418992e+002, 1.825189e-001
5.438276e+002, 1.831377e-001
5.457561e+002, 1.842685e-001
5.476846e+002, 1.861603e-001
5.496130e+002, 1.893342e-001
5.515415e+002, 1.928800e-001
5.534700e+002, 1.962781e-001
5.553984e+002, 2.020072e-001
5.573269e+002, 2.079303e-001
5.592554e+002, 2.132746e-001
5.611838e+002, 2.179530e-001
5.631123e+002, 2.211191e-001
5.650408e+002, 2.238420e-001
5.669692e+002, 2.249748e-001
5.688977e+002, 2.250210e-001
5.708262e+002, 2.245101e-001
5.727546e+002, 2.220497e-001
5.746831e+002, 2.191939e-001
5.766116e+002, 2.164142e-001
5.785400e+002, 2.136573e-001
5.804685e+002, 2.109702e-001
5.823970e+002, 2.081313e-001
5.843254e+002, 2.051312e-001
5.862539e+002, 2.020770e-001
5.881824e+002, 1.996047e-001
5.901108e+002, 1.966567e-001
5.920393e+002, 1.931223e-001
5.939678e+002, 1.903255e-001
5.958962e+002, 1.876956e-001
5.978247e+002, 1.847185e-001
5.997532e+002, 1.817528e-001
6.016816e+002, 1.790465e-001
6.036101e+002, 1.758617e-001
6.055386e+002, 1.720925e-001
6.074670e+002, 1.683239e-001
6.093955e+002, 1.650047e-001
6.113240e+002, 1.611495e-001
6.132524e+002, 1.567659e-001
6.151809e+002, 1.527245e-001
6.171094e+002, 1.488666e-001
6.190378e+002, 1.442251e-001
6.209663e+002, 1.397372e-001
6.228948e+002, 1.353270e-001
6.248232e+002, 1.307046e-001
6.267517e+002, 1.258435e-001
6.286802e+002, 1.211306e-001
6.306086e+002, 1.163193e-001
6.325371e+002, 1.113951e-001
6.344656e+002, 1.067344e-001
6.363940e+002, 1.027258e-001
6.383225e+002, 9.870720e-002
6.402510e+002, 9.436283e-002
6.421794e+002, 9.056787e-002
6.441079e+002, 8.698332e-002
6.460364e+002, 8.344474e-002
6.479648e+002, 8.017629e-002
6.498933e+002, 7.754707e-002
6.518218e+002, 7.495677e-002
6.537502e+002, 7.267915e-002
6.556787e+002, 7.065430e-002
6.576072e+002, 6.837743e-002
6.595356e+002, 6.625313e-002
6.614641e+002, 6.485778e-002
6.633926e+002, 6.315506e-002
6.653210e+002, 6.155674e-002
6.672495e+002, 6.045290e-002
6.691780e+002, 5.948456e-002
6.711064e+002, 5.874749e-002
6.730349e+002, 5.818422e-002
6.749634e+002, 5.747225e-002
6.768918e+002, 5.656606e-002
6.788203e+002, 5.568181e-002
6.807488e+002, 5.465625e-002
6.826772e+002, 5.303948e-002
6.846057e+002, 5.128954e-002
6.865342e+002, 4.941901e-002
6.884626e+002, 4.711642e-002
6.903911e+002, 4.493783e-002
6.923196e+002, 4.311321e-002
6.942480e+002, 4.133620e-002
6.961765e+002, 3.986785e-002
6.981050e+002, 3.861092e-002
7.000334e+002, 3.771288e-002
7.019619e+002, 3.718661e-002
7.038904e+002, 3.675605e-002
7.058188e+002, 3.625169e-002
7.077473e+002, 3.603394e-002
7.096758e+002, 3.637723e-002
7.116042e+002, 3.639517e-002
7.135327e+002, 3.659929e-002
7.154612e+002, 3.705746e-002
7.173896e+002, 3.731478e-002
7.193181e+002, 3.777755e-002
7.212466e+002, 3.848245e-002
7.231750e+002, 3.894056e-002
7.251035e+002, 3.933617e-002
7.270320e+002, 3.990678e-002
7.289604e+002, 4.056724e-002
7.308889e+002, 4.134694e-002
7.328174e+002, 4.200711e-002
7.347458e+002, 4.268808e-002
7.366743e+002, 4.342384e-002
7.386028e+002, 4.404775e-002
7.405313e+002, 4.465420e-002
7.424597e+002, 4.568577e-002
7.443882e+002, 4.658433e-002
7.463167e+002, 4.712075e-002
7.482451e+002, 4.738137e-002
7.501736e+002, 4.767800e-002
7.521021e+002, 4.842440e-002
7.540305e+002, 4.902238e-002
7.559590e+002, 4.916268e-002
7.578875e+002, 4.929649e-002
7.598159e+002, 4.968531e-002
7.617444e+002, 5.009263e-002
7.636729e+002, 5.072583e-002
7.656013e+002, 5.130518e-002
7.675298e+002, 5.178912e-002
7.694583e+002, 5.242237e-002
7.713867e+002, 5.311581e-002
7.733152e+002, 5.376775e-002
7.752437e+002, 5.443411e-002
7.771721e+002, 5.530755e-002
7.791006e+002, 5.636919e-002
7.810291e+002, 5.745009e-002
7.829575e+002, 5.839624e-002
7.848860e+002, 5.960931e-002
7.868145e+002, 6.107702e-002
7.887429e+002, 6.252757e-002
7.906714e+002, 6.371319e-002
7.925999e+002, 6.512024e-002
7.945283e+002, 6.693104e-002
7.964568e+002, 6.875595e-002
7.983853e+002, 7.071050e-002
8.003137e+002, 7.264078e-002
8.022422e+002, 7.451128e-002
8.041707e+002, 7.675679e-002
8.060991e+002, 7.895887e-002
8.080276e+002, 8.129843e-002
8.099561e+002, 8.392908e-002
8.118845e+002, 8.670559e-002
8.138130e+002, 8.971807e-002
8.157415e+002, 9.304294e-002
8.176699e+002, 9.662009e-002
8.195984e+002, 1.000782e-001
8.215269e+002, 1.037673e-001
8.234553e+002, 1.078290e-001
8.253838e+002, 1.119652e-001
8.273123e+002, 1.164408e-001
8.292407e+002, 1.211694e-001
8.311692e+002, 1.265248e-001
8.330977e+002, 1.320817e-001
8.350261e+002, 1.376695e-001
8.369546e+002, 1.438930e-001
8.388831e+002, 1.502882e-001
8.408115e+002, 1.566210e-001
8.427400e+002, 1.641619e-001
8.446685e+002, 1.721120e-001
8.465969e+002, 1.794211e-001
8.485254e+002, 1.873865e-001
8.504539e+002, 1.959920e-001
8.523823e+002, 2.045104e-001
8.543108e+002, 2.132553e-001
8.562393e+002, 2.223245e-001
8.581677e+002, 2.312545e-001
8.600962e+002, 2.402896e-001
8.620247e+002, 2.497300e-001
8.639531e+002, 2.593547e-001
8.658816e+002, 2.684990e-001
8.678101e+002, 2.771994e-001
8.697385e+002, 2.849810e-001
8.716670e+002, 2.919441e-001
8.735955e+002, 2.982270e-001
8.755239e+002, 3.027000e-001
8.774524e+002, 3.043776e-001
8.793809e+002, 3.035602e-001
8.813093e+002, 3.003531e-001
8.832378e+002, 2.949950e-001
8.851663e+002, 2.879351e-001
8.870947e+002, 2.795138e-001
8.890232e+002, 2.705878e-001
8.909517e+002, 2.622453e-001
8.928801e+002, 2.543831e-001
8.948085e+002, 2.467426e-001
8.967370e+002, 2.398606e-001
8.986655e+002, 2.346985e-001
9.005939e+002, 2.311224e-001
9.025224e+002, 2.292843e-001
9.044509e+002, 2.301790e-001
9.063793e+002, 2.334647e-001
9.083078e+002, 2.384046e-001
9.102363e+002, 2.442718e-001
9.121647e+002, 2.495063e-001
9.140932e+002, 2.535376e-001
9.160217e+002, 2.562355e-001
9.179501e+002, 2.571508e-001
9.198786e+002, 2.571168e-001
9.218071e+002, 2.563517e-001
9.237355e+002, 2.552007e-001
9.256640e+002, 2.536190e-001
9.275925e+002, 2.519289e-001
9.295209e+002, 2.505482e-001
9.314494e+002, 2.491781e-001
9.333779e+002, 2.475858e-001
9.353063e+002, 2.456733e-001
9.372348e+002, 2.437172e-001
9.391633e+002, 2.416069e-001
9.410917e+002, 2.390377e-001
9.430202e+002, 2.360470e-001
9.449487e+002, 2.329312e-001
9.468771e+002, 2.296502e-001
9.488056e+002, 2.265334e-001
9.507341e+002, 2.231029e-001
9.526625e+002, 2.192870e-001
9.545910e+002, 2.153769e-001
9.565195e+002, 2.110573e-001
9.584479e+002, 2.067610e-001
9.603764e+002, 2.024041e-001
9.623049e+002, 1.977417e-001
9.642333e+002, 1.929516e-001
9.661618e+002, 1.882109e-001
9.680903e+002, 1.837036e-001
9.700187e+002, 1.799253e-001
9.719472e+002, 1.764808e-001
9.738757e+002, 1.731149e-001
9.758041e+002, 1.701165e-001
9.777326e+002, 1.673346e-001
9.796611e+002, 1.646091e-001
9.815895e+002, 1.620805e-001
9.835180e+002, 1.598916e-001
9.854465e+002, 1.581760e-001
9.873749e+002, 1.565799e-001
9.893034e+002, 1.549278e-001
9.912319e+002, 1.534574e-001
9.931603e+002, 1.523920e-001
9.950888e+002, 1.510241e-001
9.970173e+002, 1.497362e-001
9.989457e+002, 1.488281e-001
1.000874e+003, 1.474627e-001
1.002803e+003, 1.458858e-001
1.004731e+003, 1.441954e-001
1.006660e+003, 1.417745e-001
1.008588e+003, 1.388355e-001
1.010517e+003, 1.351655e-001
1.012445e+003, 1.306309e-001
1.014373e+003, 1.254312e-001
1.016302e+003, 1.198026e-001
1.018230e+003, 1.137088e-001
1.020159e+003, 1.073064e-001
1.022087e+003, 1.010106e-001
1.024016e+003, 9.498392e-002
1.025944e+003, 8.918080e-002
1.027873e+003, 8.336703e-002
1.029801e+003, 7.786383e-002
1.031730e+003, 7.286432e-002
1.033658e+003, 6.821655e-002
1.035587e+003, 6.386501e-002
1.037515e+003, 5.983513e-002
1.039444e+003, 5.598737e-002
1.041372e+003, 5.259334e-002
1.043301e+003, 4.971252e-002
1.045229e+003, 4.688978e-002
1.047157e+003, 4.416510e-002
1.049086e+003, 4.184970e-002
1.051014e+003, 4.000191e-002
1.052943e+003, 3.805025e-002
1.054871e+003, 3.625287e-002
1.056800e+003, 3.465403e-002
1.058728e+003, 3.332245e-002
1.060657e+003, 3.194584e-002
1.062585e+003, 3.033857e-002
1.064514e+003, 2.907509e-002
1.066442e+003, 2.801977e-002
1.068371e+003, 2.714420e-002
1.070299e+003, 2.623438e-002
1.072228e+003, 2.514889e-002
1.074156e+003, 2.423635e-002
1.076084e+003, 2.350216e-002
1.078013e+003, 2.277163e-002
1.079941e+003, 2.204866e-002
1.081870e+003, 2.141583e-002
1.083798e+003, 2.088152e-002
1.085727e+003, 2.035810e-002
1.087655e+003, 1.976183e-002
1.089584e+003, 1.922597e-002
1.091512e+003, 1.867256e-002
1.093441e+003, 1.806479e-002
1.095369e+003, 1.762470e-002
1.097298e+003, 1.728166e-002
1.099226e+003, 1.691122e-002
1.101155e+003, 1.646675e-002
1.103083e+003, 1.584294e-002
1.105011e+003, 1.555638e-002
1.106940e+003, 1.522296e-002
1.108868e+003, 1.478749e-002
1.110797e+003, 1.462533e-002
1.112725e+003, 1.418573e-002
1.114654e+003, 1.372212e-002
1.116582e+003, 1.333333e-002
1.118511e+003, 1.290907e-002
1.120439e+003, 1.265779e-002
1.122368e+003, 1.249290e-002
1.124296e+003, 1.233768e-002
1.126225e+003, 1.214578e-002
1.128153e+003, 1.181208e-002
1.130082e+003, 1.138539e-002
1.132010e+003, 1.099505e-002
1.133938e+003, 1.068302e-002
1.135867e+003, 1.041472e-002
1.137795e+003, 1.005054e-002
1.139724e+003, 9.863148e-003
1.141652e+003, 9.622082e-003
1.143581e+003, 9.145975e-003
1.145509e+003, 8.954780e-003
1.147438e+003, 8.812247e-003
1.149366e+003, 8.477686e-003
1.151295e+003, 8.145411e-003
1.153223e+003, 7.944356e-003
1.155152e+003, 7.712312e-003
1.157080e+003, 7.364511e-003
1.159009e+003, 6.965007e-003
1.160937e+003, 6.678898e-003
1.162865e+003, 6.546244e-003
1.164794e+003, 6.284786e-003
1.166722e+003, 5.989728e-003
1.168651e+003, 5.838627e-003
1.170579e+003, 5.734649e-003
1.172508e+003, 5.485439e-003
1.174436e+003, 5.207986e-003
1.176365e+003, 5.032974e-003
1.178293e+003, 4.870257e-003
1.180222e+003, 4.635288e-003
1.182150e+003, 4.442382e-003
1.184079e+003, 4.430588e-003
1.186007e+003, 4.142661e-003
1.187936e+003, 3.967311e-003
1.189864e+003, 3.861797e-003
1.191792e+003, 3.568567e-003
1.193721e+003, 3.481332e-003
1.195649e+003, 3.531327e-003
1.197578e+003, 3.558336e-003
1.199506e+003, 3.436299e-003
1.201435e+003, 3.236724e-003
1.203363e+003, 3.250717e-003
1.205292e+003, 3.212006e-003
1.207220e+003, 2.922338e-003
1.209149e+003, 2.868476e-003
1.211077e+003, 2.951002e-003
1.213006e+003, 2.864834e-003
1.214934e+003, 2.753060e-003
1.216863e+003, 2.659777e-003
1.218791e+003, 2.515279e-003
1.220719e+003, 2.461910e-003
1.222648e+003, 2.544123e-003
1.224576e+003, 2.499558e-003
1.226505e+003, 2.485263e-003
1.228433e+003, 2.594574e-003
1.230362e+003, 2.646205e-003
1.232290e+003, 2.481182e-003
1.234219e+003, 2.388117e-003
1.236147e+003, 2.317365e-003
1.238076e+003, 2.343209e-003
1.240004e+003, 2.270052e-003
1.241933e+003, 2.179893e-003
1.243861e+003, 2.215873e-003
1.245790e+003, 2.237393e-003
1.247718e+003, 2.121991e-003
1.249646e+003, 2.018968e-003
1.251575e+003, 2.074912e-003
1.253503e+003, 2.197876e-003
1.255432e+003, 2.235503e-003
1.257360e+003, 2.373008e-003
1.259289e+003, 2.460408e-003
1.261217e+003, 2.448031e-003
1.263146e+003, 2.514572e-003
1.265074e+003, 2.547355e-003
1.267003e+003, 2.601357e-003
1.268931e+003, 2.726077e-003
1.270860e+003, 2.616105e-003
1.272788e+003, 2.644539e-003
1.274717e+003, 2.503199e-003
1.276645e+003, 2.247934e-003
1.278573e+003, 2.311982e-003
1.280502e+003, 2.439141e-003
1.282430e+003, 2.465357e-003
1.284359e+003, 2.679709e-003
1.286287e+003, 2.716634e-003
1.288216e+003, 2.594561e-003
1.290144e+003, 2.677150e-003
1.292073e+003, 2.683168e-003
1.294001e+003, 2.569129e-003
1.295930e+003, 2.487107e-003
1.297858e+003, 2.554105e-003
1.299787e+003, 2.722967e-003
1.301715e+003, 2.812419e-003
1.303644e+003, 2.701052e-003
1.305572e+003, 2.746930e-003
1.307500e+003, 2.817777e-003
1.309429e+003, 2.808191e-003
1.311357e+003, 2.751828e-003
1.313286e+003, 2.705296e-003
1.315214e+003, 2.688043e-003
1.317143e+003, 2.689057e-003
1.319071e+003, 2.844297e-003
1.321000e+003, 3.065723e-003
1.322928e+003, 3.077001e-003
1.324857e+003, 3.117813e-003
1.326785e+003, 3.242640e-003
1.328714e+003, 3.150933e-003
1.330642e+003, 3.043288e-003
1.332571e+003, 3.085928e-003
1.334499e+003, 3.148651e-003
1.336427e+003, 3.211570e-003
1.338356e+003, 3.288121e-003
1.340284e+003, 3.253794e-003
1.342213e+003, 3.180194e-003
1.344141e+003, 3.206656e-003
1.346070e+003, 3.353354e-003
1.347998e+003, 3.448482e-003
1.349927e+003, 3.356715e-003
1.351855e+003, 3.450053e-003
1.353784e+003, 3.677109e-003
1.355712e+003, 3.677042e-003
1.357641e+003, 3.687190e-003
1.359569e+003, 3.728668e-003
1.361498e+003, 3.761114e-003
1.363426e+003, 3.834977e-003
1.365354e+003, 3.938877e-003
1.367283e+003, 3.865928e-003
1.369211e+003, 3.831502e-003
1.371140e+003, 3.964368e-003
1.373068e+003, 4.153350e-003
1.374997e+003, 4.204739e-003
1.376925e+003, 4.213186e-003
1.378854e+003, 4.201489e-003
1.380782e+003, 4.148623e-003
1.382711e+003, 4.294665e-003
1.384639e+003, 4.442258e-003
1.386568e+003, 4.325514e-003
1.388496e+003, 4.221529e-003
1.390424e+003, 4.550422e-003
1.392353e+003, 4.668174e-003
1.394281e+003, 4.606451e-003
1.396210e+003, 4.681407e-003
1.398138e+003, 4.892809e-003
1.400067e+003, 4.957884e-003
1.401995e+003, 4.895630e-003
1.403924e+003, 4.946231e-003
1.405852e+003, 4.975160e-003
1.407781e+003, 5.002291e-003
1.409709e+003, 5.146306e-003
1.411638e+003, 5.249040e-003
1.413566e+003, 5.195091e-003
1.415495e+003, 5.241450e-003
1.417423e+003, 5.480694e-003
1.419351e+003, 5.585880e-003
1.421280e+003, 5.811875e-003
1.423208e+003, 5.876639e-003
1.425137e+003, 5.805603e-003
1.427065e+003, 5.672227e-003
1.428994e+003, 5.577990e-003
1.430922e+003, 5.652372e-003
1.432851e+003, 5.762311e-003
1.434779e+003, 5.797461e-003
1.436708e+003, 5.738844e-003
1.438636e+003, 5.795210e-003
1.440565e+003, 6.101545e-003
1.442493e+003, 6.173164e-003
1.444422e+003, 6.049004e-003
1.446350e+003, 6.001504e-003
1.448278e+003, 6.023122e-003
1.450207e+003, 5.981192e-003
1.452135e+003, 5.934673e-003
1.454064e+003, 6.036612e-003
1.455992e+003, 6.026502e-003
1.457921e+003, 5.877547e-003
1.459849e+003, 6.021573e-003
1.461778e+003, 6.208088e-003
1.463706e+003, 6.393284e-003
1.465635e+003, 6.437589e-003
1.467563e+003, 6.221415e-003
1.469492e+003, 5.992868e-003
1.471420e+003, 6.104014e-003
1.473349e+003, 6.168024e-003
1.475277e+003, 6.154508e-003
1.477205e+003, 6.172438e-003
1.479134e+003, 6.477525e-003
1.481062e+003, 6.607871e-003
1.482991e+003, 6.608353e-003
1.484919e+003, 6.702858e-003
1.486848e+003, 6.916625e-003
1.488776e+003, 6.893860e-003
1.490705e+003, 6.929866e-003
1.492633e+003, 7.049995e-003
1.494562e+003, 7.181179e-003
1.496490e+003, 7.184140e-003
1.498419e+003, 7.047009e-003
1.500347e+003, 6.981799e-003
1.502276e+003, 7.152226e-003
1.504204e+003, 7.452023e-003
1.506132e+003, 7.731491e-003
1.508061e+003, 7.863312e-003
1.509989e+003, 7.850493e-003
1.511918e+003, 7.819582e-003
1.513846e+003, 7.939600e-003
1.515775e+003, 8.100217e-003
1.517703e+003, 8.133538e-003
1.519632e+003, 8.236152e-003
1.521560e+003, 8.347542e-003
1.523489e+003, 8.619956e-003
1.525417e+003, 8.770864e-003
1.527346e+003, 8.951005e-003
1.529274e+003, 9.222631e-003
1.531203e+003, 9.283908e-003
1.533131e+003, 9.436647e-003
1.535059e+003, 9.580959e-003
1.536988e+003, 9.941143e-003
1.538916e+003, 1.021847e-002
1.540845e+003, 1.008255e-002
1.542773e+003, 1.011737e-002
1.544702e+003, 1.041475e-002
1.546630e+003, 1.065579e-002
1.548559e+003, 1.092846e-002
1.550487e+003, 1.101918e-002
1.552416e+003, 1.122724e-002
1.554344e+003, 1.130094e-002
1.556273e+003, 1.149980e-002
1.558201e+003, 1.164655e-002
1.560130e+003, 1.170444e-002
1.562058e+003, 1.203474e-002
1.563986e+003, 1.223808e-002
1.565915e+003, 1.228742e-002
1.567843e+003, 1.239123e-002
1.569772e+003, 1.250805e-002
1.571700e+003, 1.263890e-002
1.573629e+003, 1.279521e-002
1.575557e+003, 1.286548e-002
1.577486e+003, 1.305223e-002
1.579414e+003, 1.330010e-002
1.581343e+003, 1.345960e-002
1.583271e+003, 1.353538e-002
1.585200e+003, 1.354370e-002
1.587128e+003, 1.349599e-002
1.589057e+003, 1.347485e-002
1.590985e+003, 1.388001e-002
1.592913e+003, 1.416004e-002
1.594842e+003, 1.416864e-002
1.596770e+003, 1.430194e-002
1.598699e+003, 1.408766e-002
1.600627e+003, 1.397209e-002
1.602556e+003, 1.400382e-002
1.604484e+003, 1.389414e-002
1.606413e+003, 1.374279e-002
1.608341e+003, 1.361836e-002
1.610270e+003, 1.352301e-002
1.612198e+003, 1.341601e-002
1.614127e+003, 1.316932e-002
1.616055e+003, 1.297009e-002
1.617984e+003, 1.283885e-002
1.619912e+003, 1.273043e-002
1.621840e+003, 1.255158e-002
1.623769e+003, 1.243047e-002
1.625697e+003, 1.222690e-002
1.627626e+003, 1.203789e-002
1.629554e+003, 1.170228e-002
1.631483e+003, 1.136052e-002
1.633411e+003, 1.136976e-002
1.635340e+003, 1.134172e-002
1.637268e+003, 1.087256e-002
1.639197e+003, 1.053155e-002
1.641125e+003, 1.047651e-002
1.643054e+003, 1.036541e-002
1.644982e+003, 1.021910e-002
1.646911e+003, 1.002031e-002
1.648839e+003, 9.955056e-003
1.650767e+003, 9.924989e-003
1.652696e+003, 9.643156e-003
1.654624e+003, 9.482691e-003
1.656553e+003, 9.379377e-003
1.658481e+003, 8.993765e-003
1.660410e+003, 8.806874e-003
1.662338e+003, 8.580334e-003
1.664267e+003, 8.367582e-003
1.666195e+003, 8.286492e-003
1.668124e+003, 8.217668e-003
1.670052e+003, 7.951180e-003
1.671981e+003, 7.780721e-003
1.673909e+003, 7.785626e-003
1.675838e+003, 7.665213e-003
1.677766e+003, 7.394738e-003
1.679694e+003, 7.152330e-003
1.681623e+003, 7.160438e-003
1.683551e+003, 7.309131e-003
1.685480e+003, 7.044678e-003
1.687408e+003, 6.991273e-003
1.689337e+003, 6.758076e-003
1.691265e+003, 6.551125e-003
1.693194e+003, 6.666497e-003
1.695122e+003, 6.801905e-003
1.697051e+003, 6.479498e-003
1.698979e+003, 6.313025e-003
1.700908e+003, 6.050288e-003
1.702836e+003, 6.024790e-003
1.704765e+003, 5.961387e-003
1.706693e+003, 6.113531e-003
1.708621e+003, 5.953726e-003
1.710550e+003, 5.604288e-003
1.712478e+003, 5.608087e-003
1.714407e+003, 5.705417e-003
1.716335e+003, 5.672184e-003
1.718264e+003, 5.446794e-003
1.720192e+003, 5.407964e-003
1.722121e+003, 5.263968e-003
1.724049e+003, 5.260364e-003
1.725978e+003, 5.512378e-003
1.727906e+003, 5.468536e-003
1.729835e+003, 5.033810e-003
1.731763e+003, 4.979293e-003
1.733692e+003, 4.898197e-003
1.735620e+003, 4.714488e-003
1.737548e+003, 4.809387e-003
1.739477e+003, 4.514979e-003
1.741405e+003, 4.353561e-003
1.743334e+003, 4.300507e-003
1.745262e+003, 4.146280e-003
1.747191e+003, 4.165845e-003
1.749119e+003, 4.331469e-003
1.751048e+003, 4.524066e-003
1.752976e+003, 4.412912e-003
1.754905e+003, 4.330574e-003
1.756833e+003, 4.502953e-003
1.758762e+003, 4.904795e-003
1.760690e+003, 4.908162e-003
1.762619e+003, 4.742092e-003
1.764547e+003, 4.775989e-003
1.766475e+003, 4.606481e-003
1.768404e+003, 4.483828e-003
1.770332e+003, 4.586638e-003
1.772261e+003, 4.743682e-003
1.774189e+003, 4.750805e-003
1.776118e+003, 4.906200e-003
1.778046e+003, 5.017415e-003
1.779975e+003, 5.136798e-003
1.781903e+003, 4.972942e-003
1.783832e+003, 4.949821e-003
1.785760e+003, 5.068100e-003
1.787689e+003, 5.158368e-003
1.789617e+003, 4.875672e-003
1.791546e+003, 4.812771e-003
1.793474e+003, 4.983154e-003
1.795402e+003, 4.840646e-003
1.797331e+003, 4.836684e-003
1.799259e+003, 4.774367e-003
1.801188e+003, 4.795949e-003
1.803116e+003, 4.955079e-003
1.805045e+003, 4.960836e-003
1.806973e+003, 4.899549e-003
1.808902e+003, 4.818925e-003
1.810830e+003, 4.889732e-003
1.812759e+003, 4.894838e-003
1.814687e+003, 4.772371e-003
1.816616e+003, 4.860066e-003
1.818544e+003, 5.031948e-003
1.820473e+003, 5.228205e-003
1.822401e+003, 5.404618e-003
1.824329e+003, 5.591531e-003
1.826258e+003, 5.227284e-003
1.828186e+003, 5.118471e-003
1.830115e+003, 5.296258e-003
1.832043e+003, 5.148290e-003
1.833972e+003, 4.828816e-003
1.835900e+003, 4.873822e-003
1.837829e+003, 5.093553e-003
1.839757e+003, 5.155143e-003
1.841686e+003, 5.331045e-003
1.843614e+003, 5.628020e-003
1.845543e+003, 5.377857e-003
1.847471e+003, 5.025382e-003
1.849400e+003, 4.844849e-003
1.851328e+003, 4.854710e-003
1.853256e+003, 4.999856e-003
1.855185e+003, 4.706378e-003
1.857113e+003, 4.880135e-003
1.859042e+003, 5.263175e-003
1.860970e+003, 5.014045e-003
1.862899e+003, 4.668545e-003
1.864827e+003, 4.829742e-003
1.866756e+003, 5.195339e-003
1.868684e+003, 5.458897e-003
1.870613e+003, 5.259786e-003
1.872541e+003, 4.754847e-003
1.874470e+003, 4.998372e-003
1.876398e+003, 5.546947e-003
1.878327e+003, 5.703510e-003
1.880255e+003, 5.309964e-003
1.882183e+003, 4.308825e-003
1.884112e+003, 4.012901e-003
1.886040e+003, 4.065257e-003
1.887969e+003, 3.817229e-003
1.889897e+003, 4.087606e-003
1.891826e+003, 4.582025e-003
1.893754e+003, 4.537387e-003
1.895683e+003, 4.248691e-003
1.897611e+003, 4.533118e-003
1.899540e+003, 4.749231e-003
1.901468e+003, 4.436345e-003
1.903397e+003, 3.774596e-003
1.905325e+003, 3.631425e-003
1.907254e+003, 3.747997e-003
1.909182e+003, 3.848064e-003
1.911110e+003, 3.634898e-003
1.913039e+003, 3.779043e-003
1.914967e+003, 4.091500e-003
1.916896e+003, 4.020333e-003
1.918824e+003, 4.196524e-003
1.920753e+003, 4.205591e-003
1.922681e+003, 4.421430e-003
1.924610e+003, 3.699069e-003
1.926538e+003, 3.541802e-003
1.928467e+003, 4.394145e-003
1.930395e+003, 4.174262e-003
1.932324e+003, 3.330430e-003
1.934252e+003, 3.467999e-003
1.936181e+003, 4.436687e-003
1.938109e+003, 4.068621e-003
1.940037e+003, 2.908357e-003
1.941966e+003, 2.078253e-003
1.943894e+003, 2.750688e-003
1.945823e+003, 2.771711e-003
1.947751e+003, 2.824390e-003
1.949680e+003, 2.509305e-003
1.951608e+003, 2.631464e-003
1.953537e+003, 2.704289e-003
1.955465e+003, 1.246699e-003
1.957394e+003, 1.012580e-003
1.959322e+003, 1.828285e-003
1.961251e+003, 2.077276e-003
1.963179e+003, 1.961943e-003
1.965108e+003, 2.484340e-003
1.967036e+003, 3.406766e-003
1.968964e+003, 2.782747e-003
1.970893e+003, 2.606319e-003
1.972821e+003, 3.218024e-003
1.974750e+003, 3.113806e-003
1.976678e+003, 4.774234e-003
1.978607e+003, 6.191785e-003
1.980535e+003, 5.169774e-003
1.982464e+003, 3.617200e-003
1.984392e+003, 3.255035e-003
1.986321e+003, 2.619600e-003
1.988249e+003, 2.597965e-003
1.990178e+003, 2.347115e-003
1.992106e+003, 1.722457e-003
1.994035e+003, 3.211787e-003
1.995963e+003, 4.509232e-003
1.997891e+003, 4.429948e-003
1.999820e+003, 2.766545e-003
2.001748e+003, 8.313808e-004
2.003677e+003, -4.968300e-005
2.005605e+003, 7.846474e-004
2.007534e+003, 2.362272e-003
2.009462e+003, 3.203404e-003
2.011391e+003, 3.621208e-003
2.013319e+003, 2.806429e-003
2.015248e+003, 1.918660e-003
2.017176e+003, 1.257914e-003
2.019105e+003, 7.620511e-004
2.021033e+003, 1.712209e-003
2.022962e+003, 2.734432e-003
2.024890e+003, 3.074218e-003
2.026818e+003, 2.312547e-003
2.028747e+003, 1.915937e-003
2.030675e+003, 2.475389e-003
2.032604e+003, 2.123365e-003
2.034532e+003, 2.006227e-003
2.036461e+003, 4.460723e-003
2.038389e+003, 4.785907e-003
2.040318e+003, 4.961279e-003
2.042246e+003, 4.394191e-003
2.044175e+003, 2.981236e-003
2.046103e+003, 4.216466e-003
2.048032e+003, 5.203190e-003
2.049960e+003, 6.235565e-003
2.051889e+003, 6.171528e-003
2.053817e+003, 6.647386e-003
2.055746e+003, 6.054949e-003
2.057674e+003, 4.939339e-003
2.059603e+003, 4.647776e-003
2.061531e+003, 5.480426e-003
2.063459e+003, 6.924269e-003
2.065388e+003, 6.880750e-003
2.067316e+003, 6.052675e-003
2.069245e+003, 5.119976e-003
2.071173e+003, 5.258847e-003
2.073102e+003, 5.535627e-003
2.075030e+003, 4.667372e-003
2.076959e+003, 5.420416e-003
2.078887e+003, 6.341266e-003
2.080816e+003, 6.855855e-003
2.082744e+003, 7.631096e-003
2.084673e+003, 7.851707e-003
2.086601e+003, 7.148494e-003
2.088530e+003, 7.170910e-003
2.090458e+003, 7.426743e-003
2.092386e+003, 7.230722e-003
2.094315e+003, 7.495859e-003
2.096243e+003, 8.778102e-003
2.098172e+003, 9.132452e-003
2.100100e+003, 8.030278e-003
2.102029e+003, 8.284181e-003
2.103957e+003, 8.529549e-003
2.105886e+003, 8.372927e-003
2.107814e+003, 8.174500e-003
2.109743e+003, 7.597935e-003
2.111671e+003, 7.713368e-003
2.113600e+003, 8.810739e-003
2.115528e+003, 8.532787e-003
2.117457e+003, 7.818430e-003
2.119385e+003, 7.873322e-003
2.121313e+003, 8.245773e-003
2.123242e+003, 8.119244e-003
2.125170e+003, 7.988266e-003
2.127099e+003, 7.328656e-003
2.129027e+003, 5.809798e-003
2.130956e+003, 5.097820e-003
2.132884e+003, 6.380004e-003
2.134813e+003, 7.599621e-003
2.136741e+003, 7.373277e-003
2.138670e+003, 6.526056e-003
2.140598e+003, 6.104616e-003
2.142527e+003, 5.787930e-003
2.144455e+003, 6.869171e-003
2.146384e+003, 8.157051e-003
2.148312e+003, 7.940639e-003
2.150240e+003, 6.598244e-003
2.152169e+003, 5.331414e-003
2.154097e+003, 3.634825e-003
2.156026e+003, 2.832669e-003
2.157954e+003, 4.730170e-003
2.159883e+003, 7.921839e-003
2.161811e+003, 7.296759e-003
2.163740e+003, 7.796680e-003
2.165668e+003, 8.629400e-003
2.167597e+003, 8.291028e-003
2.169525e+003, 8.254079e-003
2.171454e+003, 8.182791e-003
2.173382e+003, 8.089082e-003
2.175311e+003, 7.528472e-003
2.177239e+003, 8.603197e-003
2.179167e+003, 9.426224e-003
2.181096e+003, 9.570414e-003
2.183024e+003, 9.858924e-003
2.184953e+003, 9.044915e-003
2.186881e+003, 8.436906e-003
2.188810e+003, 7.858440e-003
2.190738e+003, 7.224763e-003
2.192667e+003, 8.788608e-003
2.194595e+003, 1.018796e-002
2.196524e+003, 9.709326e-003
2.198452e+003, 8.740318e-003
2.200381e+003, 6.703470e-003
2.202309e+003, 5.578541e-003
2.204238e+003, 6.786273e-003
2.206166e+003, 8.905982e-003
2.208094e+003, 9.447198e-003
2.210023e+003, 8.654702e-003
2.211951e+003, 8.619781e-003
2.213880e+003, 9.898451e-003
2.215808e+003, 9.561142e-003
2.217737e+003, 8.577614e-003
2.219665e+003, 8.070091e-003
2.221594e+003, 8.825356e-003
2.223522e+003, 8.932890e-003
2.225451e+003, 8.867855e-003
2.227379e+003, 9.271901e-003
2.229308e+003, 9.479338e-003
2.231236e+003, 9.276184e-003
2.233165e+003, 9.582114e-003
2.235093e+003, 9.574433e-003
2.237021e+003, 9.903497e-003
2.238950e+003, 9.843105e-003
2.240878e+003, 9.528594e-003
2.242807e+003, 8.643777e-003
2.244735e+003, 8.266303e-003
2.246664e+003, 8.546385e-003
2.248592e+003, 8.479076e-003
2.250521e+003, 7.949759e-003
2.252449e+003, 8.180853e-003
2.254378e+003, 9.297161e-003
2.256306e+003, 9.375635e-003
2.258235e+003, 9.632976e-003
2.260163e+003, 1.025472e-002
2.262092e+003, 1.030998e-002
2.264020e+003, 1.027418e-002
2.265948e+003, 1.037037e-002
2.267877e+003, 1.050765e-002
2.269805e+003, 1.043220e-002
2.271734e+003, 1.013462e-002
2.273662e+003, 1.023043e-002
2.275591e+003, 1.046356e-002
2.277519e+003, 1.101799e-002
2.279448e+003, 1.050061e-002
2.281376e+003, 1.011327e-002
2.283305e+003, 1.087922e-002
2.285233e+003, 1.103240e-002
2.287162e+003, 1.084938e-002
2.289090e+003, 1.153071e-002
2.291019e+003, 1.140816e-002
2.292947e+003, 1.080827e-002
2.294875e+003, 1.109047e-002
2.296804e+003, 1.142466e-002
2.298732e+003, 1.159978e-002
2.300661e+003, 1.164057e-002
2.302589e+003, 1.094461e-002
2.304518e+003, 1.085783e-002
2.306446e+003, 1.094599e-002
2.308375e+003, 1.092010e-002
2.310303e+003, 1.109128e-002
2.312232e+003, 1.131053e-002
2.314160e+003, 1.124532e-002
2.316089e+003, 1.129659e-002
2.318017e+003, 1.159286e-002
2.319946e+003, 1.204535e-002
2.321874e+003, 1.235896e-002
2.323802e+003, 1.246119e-002
2.325731e+003, 1.182984e-002
2.327659e+003, 1.111739e-002
2.329588e+003, 1.089521e-002
2.331516e+003, 1.097079e-002
2.333445e+003, 1.108489e-002
2.335373e+003, 1.131235e-002
2.337302e+003, 1.149030e-002
2.339230e+003, 1.125996e-002
2.341159e+003, 1.083997e-002
2.343087e+003, 1.048971e-002
2.345016e+003, 1.060045e-002
2.346944e+003, 1.071599e-002
2.348873e+003, 1.074581e-002
2.350801e+003, 1.088947e-002
2.352729e+003, 1.062509e-002
2.354658e+003, 1.102989e-002
2.356586e+003, 1.128535e-002
2.358515e+003, 1.129784e-002
2.360443e+003, 1.091937e-002
2.362372e+003, 1.085411e-002
2.364300e+003, 1.107121e-002
2.366229e+003, 1.060243e-002
2.368157e+003, 1.076652e-002
2.370086e+003, 1.093861e-002
2.372014e+003, 1.095336e-002
2.373942e+003, 1.109696e-002
2.375871e+003, 1.113978e-002
2.377799e+003, 1.114583e-002
2.379728e+003, 1.149252e-002
2.381656e+003, 1.095239e-002
2.383585e+003, 1.006477e-002
2.385513e+003, 1.061221e-002
2.387442e+003, 1.108247e-002
2.389370e+003, 1.075013e-002
2.391299e+003, 1.049253e-002
2.393227e+003, 1.058865e-002
2.395156e+003, 1.105035e-002
2.397084e+003, 1.086871e-002
2.399012e+003, 1.058748e-002
2.400941e+003, 1.097197e-002
2.402869e+003, 1.147757e-002
2.404798e+003, 1.158219e-002
2.406726e+003, 1.126830e-002
2.408655e+003, 1.148988e-002
2.410583e+003, 1.176183e-002
2.412512e+003, 1.152182e-002
2.414440e+003, 1.135041e-002
2.416369e+003, 1.123965e-002
2.418297e+003, 1.134213e-002
2.420226e+003, 1.164680e-002
2.422154e+003, 1.149493e-002
2.424083e+003, 1.152300e-002
2.426011e+003, 1.156635e-002
2.427939e+003, 1.124813e-002
2.429868e+003, 1.111215e-002
2.431796e+003, 1.219893e-002
2.433725e+003, 1.302321e-002
2.435653e+003, 1.261453e-002
2.437582e+003, 1.185805e-002
2.439510e+003, 1.153993e-002
2.441439e+003, 1.200551e-002
2.443367e+003, 1.264531e-002
2.445296e+003, 1.268361e-002
2.447224e+003, 1.258467e-002
2.449153e+003, 1.283329e-002
2.451081e+003, 1.283112e-002
2.453010e+003, 1.216859e-002
2.454938e+003, 1.202913e-002
2.456866e+003, 1.218304e-002
2.458795e+003, 1.243968e-002
2.460723e+003, 1.249844e-002
2.462652e+003, 1.302078e-002
2.464580e+003, 1.244522e-002
2.466509e+003, 1.145872e-002
2.468437e+003, 1.154139e-002
2.470366e+003, 1.177716e-002
2.472294e+003, 1.178626e-002
2.474223e+003, 1.239973e-002
2.476151e+003, 1.235494e-002
2.478080e+003, 1.178747e-002
2.480008e+003, 1.195180e-002
2.481937e+003, 1.247443e-002
2.483865e+003, 1.244115e-002
2.485793e+003, 1.224573e-002
2.487722e+003, 1.121881e-002
2.489650e+003, 1.110706e-002
2.491579e+003, 1.150567e-002
2.493507e+003, 1.189459e-002
2.495436e+003, 1.204935e-002
2.497364e+003, 1.226035e-002
2.499293e+003, 1.265722e-002
2.501221e+003, 1.237060e-002
2.503150e+003, 1.211848e-002
2.505078e+003, 1.286427e-002
2.507007e+003, 1.278374e-002
2.508935e+003, 1.182038e-002
2.510864e+003, 1.242943e-002
2.512792e+003, 1.354506e-002
2.514720e+003, 1.329467e-002
2.516649e+003, 1.258767e-002
2.518577e+003, 1.270175e-002
2.520506e+003, 1.267568e-002
2.522434e+003, 1.257731e-002
2.524363e+003, 1.268938e-002
2.526291e+003, 1.300296e-002
2.528220e+003, 1.346848e-002
2.530148e+003, 1.304556e-002
2.532077e+003, 1.190589e-002
2.534005e+003, 1.248133e-002
2.535934e+003, 1.337834e-002
2.537862e+003, 1.307678e-002
2.539791e+003, 1.315251e-002
2.541719e+003, 1.266139e-002
2.543647e+003, 1.243393e-002
2.545576e+003, 1.252315e-002
2.547504e+003, 1.295274e-002
2.549433e+003, 1.270774e-002
2.551361e+003, 1.243509e-002
2.553290e+003, 1.350077e-002
2.555218e+003, 1.391754e-002
2.557147e+003, 1.393695e-002
2.559075e+003, 1.429569e-002
2.561004e+003, 1.429018e-002
2.562932e+003, 1.339233e-002
2.564861e+003, 1.371115e-002
2.566789e+003, 1.368861e-002
2.568718e+003, 1.364748e-002
2.570646e+003, 1.352049e-002
2.572574e+003, 1.341946e-002
2.574503e+003, 1.417878e-002
2.576431e+003, 1.507419e-002
2.578360e+003, 1.497367e-002
2.580288e+003, 1.436212e-002
2.582217e+003, 1.422660e-002
2.584145e+003, 1.381515e-002
2.586074e+003, 1.425789e-002
2.588002e+003, 1.478193e-002
2.589931e+003, 1.495724e-002
2.591859e+003, 1.478291e-002
2.593788e+003, 1.468618e-002
2.595716e+003, 1.498560e-002
2.597645e+003, 1.503067e-002
2.599573e+003, 1.487758e-002
2.601501e+003, 1.488908e-002
2.603430e+003, 1.495739e-002
2.605358e+003, 1.511058e-002
2.607287e+003, 1.510443e-002
2.609215e+003, 1.553011e-002
2.611144e+003, 1.572418e-002
2.613072e+003, 1.573998e-002
2.615001e+003, 1.543959e-002
2.616929e+003, 1.522741e-002
2.618858e+003, 1.513454e-002
2.620786e+003, 1.526625e-002
2.622715e+003, 1.598403e-002
2.624643e+003, 1.618682e-002
2.626572e+003, 1.586013e-002
2.628500e+003, 1.546755e-002
2.630428e+003, 1.561074e-002
2.632357e+003, 1.635336e-002
2.634285e+003, 1.623877e-002
2.636214e+003, 1.585697e-002
2.638142e+003, 1.608024e-002
2.640071e+003, 1.622928e-002
2.641999e+003, 1.634680e-002
2.643928e+003, 1.639430e-002
2.645856e+003, 1.667228e-002
2.647785e+003, 1.648112e-002
2.649713e+003, 1.618681e-002
2.651642e+003, 1.618967e-002
2.653570e+003, 1.658818e-002
2.655499e+003, 1.643999e-002
2.657427e+003, 1.610338e-002
2.659355e+003, 1.663034e-002
2.661284e+003, 1.688458e-002
2.663212e+003, 1.665965e-002
2.665141e+003, 1.635974e-002
2.667069e+003, 1.598331e-002
2.668998e+003, 1.597228e-002
2.670926e+003, 1.642792e-002
2.672855e+003, 1.667344e-002
2.674783e+003, 1.682907e-002
2.676712e+003, 1.724010e-002
2.678640e+003, 1.695491e-002
2.680569e+003, 1.662589e-002
2.682497e+003, 1.667056e-002
2.684426e+003, 1.685429e-002
2.686354e+003, 1.705898e-002
2.688282e+003, 1.747229e-002
2.690211e+003, 1.722778e-002
2.692139e+003, 1.735882e-002
2.694068e+003, 1.727255e-002
2.695996e+003, 1.725541e-002
2.697925e+003, 1.773230e-002
2.699853e+003, 1.800493e-002
2.701782e+003, 1.822773e-002
2.703710e+003, 1.854312e-002
2.705639e+003, 1.834606e-002
2.707567e+003, 1.781039e-002
2.709496e+003, 1.805874e-002
2.711424e+003, 1.861514e-002
2.713353e+003, 1.903594e-002
2.715281e+003, 1.920684e-002
2.717209e+003, 1.902890e-002
2.719138e+003, 1.869093e-002
2.721066e+003, 1.856160e-002
2.722995e+003, 1.865992e-002
2.724923e+003, 1.884353e-002
2.726852e+003, 1.901550e-002
2.728780e+003, 1.938143e-002
2.730709e+003, 1.950824e-002
2.732637e+003, 1.948655e-002
2.734566e+003, 1.925901e-002
2.736494e+003, 1.963499e-002
2.738423e+003, 1.995256e-002
2.740351e+003, 1.965894e-002
2.742280e+003, 1.958992e-002
2.744208e+003, 1.943734e-002
2.746136e+003, 1.994953e-002
2.748065e+003, 2.067030e-002
2.749993e+003, 2.063723e-002
2.751922e+003, 2.057255e-002
2.753850e+003, 2.066359e-002
2.755779e+003, 2.068335e-002
2.757707e+003, 2.026207e-002
2.759636e+003, 2.018582e-002
2.761564e+003, 2.044560e-002
2.763493e+003, 2.050638e-002
2.765421e+003, 2.056724e-002
2.767350e+003, 2.085090e-002
2.769278e+003, 2.089667e-002
2.771207e+003, 2.088546e-002
2.773135e+003, 2.093172e-002
2.775063e+003, 2.172068e-002
2.776992e+003, 2.222562e-002
2.778920e+003, 2.244247e-002
2.780849e+003, 2.225786e-002
2.782777e+003, 2.154527e-002
2.784706e+003, 2.137577e-002
2.786634e+003, 2.182293e-002
2.788563e+003, 2.264163e-002
2.790491e+003, 2.305602e-002
2.792420e+003, 2.283596e-002
2.794348e+003, 2.252561e-002
2.796277e+003, 2.233750e-002
2.798205e+003, 2.264209e-002
2.800134e+003, 2.317221e-002
2.802062e+003, 2.340667e-002
2.803990e+003, 2.385354e-002
2.805919e+003, 2.396016e-002
2.807847e+003, 2.374005e-002
2.809776e+003, 2.395820e-002
2.811704e+003, 2.396001e-002
2.813633e+003, 2.413871e-002
2.815561e+003, 2.455761e-002
2.817490e+003, 2.512627e-002
2.819418e+003, 2.550520e-002
2.821347e+003, 2.521025e-002
2.823275e+003, 2.451387e-002
2.825204e+003, 2.456134e-002
2.827132e+003, 2.504682e-002
2.829061e+003, 2.563554e-002
2.830989e+003, 2.541263e-002
2.832917e+003, 2.552862e-002
2.834846e+003, 2.677989e-002
2.836774e+003, 2.722992e-002
2.838703e+003, 2.644345e-002
2.840631e+003, 2.594992e-002
2.842560e+003, 2.623706e-002
2.844488e+003, 2.610402e-002
2.846417e+003, 2.598889e-002
2.848345e+003, 2.659637e-002
2.850274e+003, 2.672265e-002
2.852202e+003, 2.685678e-002
2.854131e+003, 2.735160e-002
2.856059e+003, 2.736486e-002
2.857988e+003, 2.713757e-002
2.859916e+003, 2.689733e-002
2.861844e+003, 2.681359e-002
2.863773e+003, 2.696377e-002
2.865701e+003, 2.692000e-002
2.867630e+003, 2.699481e-002
2.869558e+003, 2.738092e-002
2.871487e+003, 2.795711e-002
2.873415e+003, 2.801115e-002
2.875344e+003, 2.774527e-002
2.877272e+003, 2.803187e-002
2.879201e+003, 2.822964e-002
2.881129e+003, 2.838922e-002
2.883058e+003, 2.834445e-002
2.884986e+003, 2.871655e-002
2.886915e+003, 2.900661e-002
2.888843e+003, 2.904295e-002
2.890771e+003, 2.896279e-002
2.892700e+003, 2.873114e-002
2.894628e+003, 2.856248e-002
2.896557e+003, 2.882680e-002
2.898485e+003, 2.900929e-002
2.900414e+003, 2.901937e-002
2.902342e+003, 2.949235e-002
2.904271e+003, 3.033843e-002
2.906199e+003, 3.015797e-002
2.908128e+003, 2.949926e-002
2.910056e+003, 2.937057e-002
2.911985e+003, 2.948649e-002
2.913913e+003, 2.950339e-002
2.915842e+003, 3.006337e-002
2.917770e+003, 3.040271e-002
2.919698e+003, 3.006208e-002
2.921627e+003, 3.020674e-002
2.923555e+003, 2.998738e-002
2.925484e+003, 2.908897e-002
2.927412e+003, 2.903101e-002
2.929341e+003, 2.913245e-002
2.931269e+003, 2.867626e-002
2.933198e+003, 2.870870e-002
2.935126e+003, 2.905341e-002
2.937055e+003, 2.928085e-002
2.938983e+003, 2.969011e-002
2.940912e+003, 2.936738e-002
2.942840e+003, 2.995167e-002
2.944769e+003, 3.087123e-002
2.946697e+003, 3.076567e-002
2.948625e+003, 3.031128e-002
2.950554e+003, 3.053103e-002
2.952482e+003, 3.091420e-002
2.954411e+003, 3.086274e-002
2.956339e+003, 3.095610e-002
2.958268e+003, 3.148711e-002
2.960196e+003, 3.160203e-002
2.962125e+003, 3.156437e-002
2.964053e+003, 3.172609e-002
2.965982e+003, 3.144982e-002
2.967910e+003, 3.094691e-002
2.969839e+003, 3.062839e-002
2.971767e+003, 3.080744e-002
2.973696e+003, 3.113054e-002
2.975624e+003, 3.137025e-002
2.977552e+003, 3.156653e-002
2.979481e+003, 3.093805e-002
2.981409e+003, 3.107810e-002
2.983338e+003, 3.190057e-002
2.985266e+003, 3.244308e-002
2.987195e+003, 3.189627e-002
2.989123e+003, 3.118925e-002
2.991052e+003, 3.118695e-002
2.992980e+003, 3.120862e-002
2.994909e+003, 3.133078e-002
2.996837e+003, 3.161149e-002
2.998766e+003, 3.188208e-002
3.000694e+003, 3.237548e-002
3.002623e+003, 3.239395e-002
3.004551e+003, 3.231334e-002
3.006479e+003, 3.270587e-002
3.008408e+003, 3.284493e-002
3.010336e+003, 3.247236e-002
3.012265e+003, 3.278466e-002
3.014193e+003, 3.386861e-002
3.016122e+003, 3.371600e-002
3.018050e+003, 3.290056e-002
3.019979e+003, 3.332947e-002
3.021907e+003, 3.346854e-002
3.023836e+003, 3.361595e-002
3.025764e+003, 3.379629e-002
3.027693e+003, 3.353969e-002
3.029621e+003, 3.347997e-002
3.031550e+003, 3.354168e-002
3.033478e+003, 3.363120e-002
3.035406e+003, 3.411132e-002
3.037335e+003, 3.464562e-002
3.039263e+003, 3.469546e-002
3.041192e+003, 3.431737e-002
3.043120e+003, 3.427906e-002
3.045049e+003, 3.493638e-002
3.046977e+003, 3.492833e-002
3.048906e+003, 3.411574e-002
3.050834e+003, 3.329197e-002
3.052763e+003, 3.366703e-002
3.054691e+003, 3.461345e-002
3.056620e+003, 3.514210e-002
3.058548e+003, 3.481749e-002
3.060477e+003, 3.438960e-002
3.062405e+003, 3.454826e-002
3.064333e+003, 3.533940e-002
3.066262e+003, 3.563729e-002
3.068190e+003, 3.520509e-002
3.070119e+003, 3.533613e-002
3.072047e+003, 3.584169e-002
3.073976e+003, 3.569291e-002
3.075904e+003, 3.566975e-002
3.077833e+003, 3.614264e-002
3.079761e+003, 3.663476e-002
3.081690e+003, 3.650989e-002
3.083618e+003, 3.571085e-002
3.085547e+003, 3.600300e-002
3.087475e+003, 3.683829e-002
3.089404e+003, 3.672779e-002
3.091332e+003, 3.691086e-002
3.093260e+003, 3.748411e-002
3.095189e+003, 3.708595e-002
3.097117e+003, 3.688006e-002
3.099046e+003, 3.745485e-002
3.100974e+003, 3.752910e-002
3.102903e+003, 3.743958e-002
3.104831e+003, 3.709883e-002
3.106760e+003, 3.701777e-002
3.108688e+003, 3.709593e-002
3.110617e+003, 3.732685e-002
3.112545e+003, 3.768995e-002
3.114474e+003, 3.739311e-002
3.116402e+003, 3.699192e-002
3.118331e+003, 3.815641e-002
3.120259e+003, 3.914541e-002
3.122188e+003, 3.886484e-002
3.124116e+003, 3.823751e-002
3.126044e+003, 3.817024e-002
3.127973e+003, 3.882353e-002
3.129901e+003, 3.937101e-002
3.131830e+003, 3.914918e-002
3.133758e+003, 3.818562e-002
3.135687e+003, 3.738733e-002
3.137615e+003, 3.808116e-002
3.139544e+003, 3.962776e-002
3.141472e+003, 3.896682e-002
3.143401e+003, 3.865455e-002
3.145329e+003, 3.888324e-002
3.147258e+003, 3.809701e-002
3.149186e+003, 3.853980e-002
3.151115e+003, 3.954967e-002
3.153043e+003, 3.936144e-002
3.154971e+003, 3.928324e-002
3.156900e+003, 3.935448e-002
3.158828e+003, 3.907260e-002
3.160757e+003, 3.996674e-002
3.162685e+003, 4.090191e-002
3.164614e+003, 4.022356e-002
3.166542e+003, 3.986095e-002
3.168471e+003, 4.062985e-002
3.170399e+003, 4.067378e-002
3.172328e+003, 4.020671e-002
3.174256e+003, 3.986382e-002
3.176185e+003, 4.035076e-002
3.178113e+003, 4.105629e-002
3.180042e+003, 4.126657e-002
3.181970e+003, 4.082898e-002
3.183898e+003, 4.045126e-002
3.185827e+003, 4.036164e-002
3.187755e+003, 4.037808e-002
3.189684e+003, 3.993299e-002
3.191612e+003, 3.958983e-002
3.193541e+003, 3.986565e-002
3.195469e+003, 4.000134e-002
3.197398e+003, 4.135608e-002
3.199326e+003, 4.169917e-002
3.201255e+003, 4.083495e-002
3.203183e+003, 4.106072e-002
3.205112e+003, 4.137574e-002
3.207040e+003, 4.155648e-002
3.208969e+003, 4.115491e-002
3.210897e+003, 4.107784e-002
3.212825e+003, 4.123894e-002
3.214754e+003, 4.178262e-002
3.216682e+003, 4.306323e-002
3.218611e+003, 4.295346e-002
3.220539e+003, 4.272312e-002
3.222468e+003, 4.328549e-002
3.224396e+003, 4.303025e-002
3.226325e+003, 4.284070e-002
3.228253e+003, 4.273644e-002
3.230182e+003, 4.266112e-002
3.232110e+003, 4.281473e-002
3.234039e+003, 4.280410e-002
3.235967e+003, 4.275980e-002
3.237896e+003, 4.260390e-002
3.239824e+003, 4.232726e-002
3.241752e+003, 4.285862e-002
3.243681e+003, 4.224852e-002
3.245609e+003, 4.184863e-002
3.247538e+003, 4.227944e-002
3.249466e+003, 4.254166e-002
3.251395e+003, 4.254175e-002
3.253323e+003, 4.232162e-002
3.255252e+003, 4.164983e-002
3.257180e+003, 4.157300e-002
3.259109e+003, 4.162142e-002
3.261037e+003, 4.213001e-002
3.262966e+003, 4.221504e-002
3.264894e+003, 4.221014e-002
3.266823e+003, 4.318491e-002
3.268751e+003, 4.251271e-002
3.270679e+003, 4.068135e-002
3.272608e+003, 4.080721e-002
3.274536e+003, 4.168810e-002
3.276465e+003, 4.231804e-002
3.278393e+003, 4.158310e-002
3.280322e+003, 4.128039e-002
3.282250e+003, 4.214565e-002
3.284179e+003, 4.269218e-002
3.286107e+003, 4.233151e-002
3.288036e+003, 4.098494e-002
3.289964e+003, 4.038583e-002
3.291893e+003, 4.076269e-002
3.293821e+003, 4.117354e-002
3.295750e+003, 4.152604e-002
3.297678e+003, 4.107805e-002
3.299606e+003, 4.091774e-002
3.301535e+003, 4.035549e-002
3.303463e+003, 4.030208e-002
3.305392e+003, 4.148820e-002
3.307320e+003, 4.254944e-002
3.309249e+003, 4.210155e-002
3.311177e+003, 4.128055e-002
3.313106e+003, 4.133203e-002
3.315034e+003, 4.123589e-002
3.316963e+003, 4.110632e-002
3.318891e+003, 4.135860e-002
3.320820e+003, 4.035188e-002
3.322748e+003, 3.996275e-002
3.324677e+003, 4.052282e-002
3.326605e+003, 4.001909e-002
3.328533e+003, 4.072801e-002
3.330462e+003, 4.138057e-002
3.332390e+003, 4.084335e-002
3.334319e+003, 4.030276e-002
3.336247e+003, 4.069027e-002
3.338176e+003, 4.113983e-002
3.340104e+003, 4.036262e-002
3.342033e+003, 4.050766e-002
3.343961e+003, 3.988264e-002
3.345890e+003, 3.949475e-002
3.347818e+003, 4.000825e-002
3.349747e+003, 3.903072e-002
3.351675e+003, 3.972824e-002
3.353604e+003, 4.026467e-002
3.355532e+003, 3.998118e-002
3.357460e+003, 4.033634e-002
3.359389e+003, 4.023730e-002
3.361317e+003, 3.935092e-002
3.363246e+003, 3.979247e-002
3.365174e+003, 4.088056e-002
3.367103e+003, 4.124747e-002
3.369031e+003, 4.127999e-002
3.370960e+003, 4.069401e-002
3.372888e+003, 4.028584e-002
3.374817e+003, 4.068084e-002
3.376745e+003, 4.076442e-002
3.378674e+003, 4.045510e-002
3.380602e+003, 4.160346e-002
3.382531e+003, 4.324577e-002
3.384459e+003, 4.188507e-002
3.386387e+003, 4.081531e-002
3.388316e+003, 4.083703e-002
3.390244e+003, 4.062604e-002
3.392173e+003, 4.128256e-002
3.394101e+003, 4.143814e-002
3.396030e+003, 4.214218e-002
3.397958e+003, 4.167145e-002
3.399887e+003, 4.127473e-002
3.401815e+003, 4.162187e-002
3.403744e+003, 4.117758e-002
3.405672e+003, 4.108474e-002
3.407601e+003, 4.204648e-002
3.409529e+003, 4.266962e-002
3.411458e+003, 4.225500e-002
3.413386e+003, 4.194834e-002
3.415314e+003, 4.242050e-002
3.417243e+003, 4.331297e-002
3.419171e+003, 4.442378e-002
3.421100e+003, 4.446388e-002
3.423028e+003, 4.362460e-002
3.424957e+003, 4.346479e-002
3.426885e+003, 4.376882e-002
3.428814e+003, 4.447306e-002
3.430742e+003, 4.540247e-002
3.432671e+003, 4.507805e-002
3.434599e+003, 4.436509e-002
3.436528e+003, 4.402606e-002
3.438456e+003, 4.450845e-002
3.440385e+003, 4.554064e-002
3.442313e+003, 4.557665e-002
3.444241e+003, 4.496920e-002
3.446170e+003, 4.479259e-002
3.448098e+003, 4.539197e-002
3.450027e+003, 4.663994e-002
3.451955e+003, 4.801127e-002
3.453884e+003, 4.751505e-002
3.455812e+003, 4.701185e-002
3.457741e+003, 4.789989e-002
3.459669e+003, 4.806589e-002
3.461598e+003, 4.787098e-002
3.463526e+003, 4.760173e-002
3.465455e+003, 4.786640e-002
3.467383e+003, 4.924793e-002
3.469312e+003, 5.000161e-002
3.471240e+003, 4.964988e-002
3.473168e+003, 4.896325e-002
3.475097e+003, 4.936255e-002
3.477025e+003, 5.065830e-002
3.478954e+003, 5.111189e-002
3.480882e+003, 5.084188e-002
3.482811e+003, 5.159966e-002
3.484739e+003, 5.113360e-002
3.486668e+003, 5.035115e-002
3.488596e+003, 4.994880e-002
3.490525e+003, 5.100720e-002
3.492453e+003, 5.215327e-002
3.494382e+003, 5.207853e-002
3.496310e+003, 5.197613e-002
3.498239e+003, 5.220847e-002
3.500167e+003, 5.324855e-002
3.502095e+003, 5.449796e-002
3.504024e+003, 5.536772e-002
3.505952e+003, 5.593544e-002
3.507881e+003, 5.591978e-002
3.509809e+003, 5.607240e-002
3.511738e+003, 5.659211e-002
3.513666e+003, 5.668186e-002
3.515595e+003, 5.722582e-002
3.517523e+003, 5.876209e-002
3.519452e+003, 5.945637e-002
3.521380e+003, 6.067700e-002
3.523309e+003, 6.209446e-002
3.525237e+003, 6.261862e-002
3.527166e+003, 6.281029e-002
3.529094e+003, 6.275471e-002
3.531022e+003, 6.241148e-002
3.532951e+003, 6.362788e-002
3.534879e+003, 6.457324e-002
3.536808e+003, 6.547651e-002
3.538736e+003, 6.683361e-002
3.540665e+003, 6.695277e-002
3.542593e+003, 6.750140e-002
3.544522e+003, 6.843159e-002
3.546450e+003, 6.765598e-002
3.548379e+003, 6.744955e-002
3.550307e+003, 6.716721e-002
3.552236e+003, 6.710842e-002
3.554164e+003, 6.718195e-002
3.556093e+003, 6.606187e-002
3.558021e+003, 6.570915e-002
3.559949e+003, 6.635823e-002
3.561878e+003, 6.548925e-002
3.563806e+003, 6.513489e-002
3.565735e+003, 6.509671e-002
3.567663e+003, 6.428396e-002
3.569592e+003, 6.286177e-002
3.571520e+003, 6.147243e-002
3.573449e+003, 5.887432e-002
3.575377e+003, 5.739379e-002
3.577306e+003, 5.656486e-002
3.579234e+003, 5.456047e-002
3.581163e+003, 5.286979e-002
3.583091e+003, 5.025515e-002
3.585020e+003, 4.866076e-002
3.586948e+003, 4.671275e-002
3.588876e+003, 4.312575e-002
3.590805e+003, 4.101567e-002
3.592733e+003, 3.920595e-002
3.594662e+003, 3.667243e-002
3.596590e+003, 3.557444e-002
3.598519e+003, 3.410918e-002
3.600447e+003, 3.292665e-002
3.602376e+003, 3.105939e-002
3.604304e+003, 2.952435e-002
3.606233e+003, 2.994250e-002
3.608161e+003, 2.882334e-002
3.610090e+003, 2.647648e-002
3.612018e+003, 2.440162e-002
3.613947e+003, 2.243013e-002
3.615875e+003, 2.153384e-002
3.617803e+003, 2.029447e-002
3.619732e+003, 1.813507e-002
3.621660e+003, 1.679027e-002
3.623589e+003, 1.737054e-002
3.625517e+003, 1.791018e-002
3.627446e+003, 1.621102e-002
3.629374e+003, 1.353497e-002
3.631303e+003, 1.253822e-002
3.633231e+003, 1.315985e-002
3.635160e+003, 1.342481e-002
3.637088e+003, 1.272734e-002
3.639017e+003, 1.190918e-002
3.640945e+003, 1.221354e-002
3.642874e+003, 1.216125e-002
3.644802e+003, 1.137013e-002
3.646730e+003, 1.074911e-002
3.648659e+003, 9.502564e-003
3.650587e+003, 8.667056e-003
3.652516e+003, 9.669607e-003
3.654444e+003, 9.737874e-003
3.656373e+003, 9.339452e-003
3.658301e+003, 9.421732e-003
3.660230e+003, 9.625872e-003
3.662158e+003, 9.562281e-003
3.664087e+003, 9.362197e-003
3.666015e+003, 8.783807e-003
3.667944e+003, 8.760979e-003
3.669872e+003, 7.910885e-003
3.671801e+003, 6.640081e-003
3.673729e+003, 8.054468e-003
3.675657e+003, 8.318783e-003
3.677586e+003, 9.241321e-003
3.679514e+003, 9.608855e-003
3.681443e+003, 9.300987e-003
3.683371e+003, 8.000146e-003
3.685300e+003, 6.881176e-003
3.687228e+003, 6.641089e-003
3.689157e+003, 6.224353e-003
3.691085e+003, 6.506806e-003
3.693014e+003, 7.874833e-003
3.694942e+003, 7.608380e-003
3.696871e+003, 7.402958e-003
3.698799e+003, 7.810199e-003
3.700728e+003, 7.232456e-003
3.702656e+003, 6.294226e-003
3.704584e+003, 6.328053e-003
3.706513e+003, 6.780747e-003
3.708441e+003, 8.380541e-003
3.710370e+003, 8.302184e-003
3.712298e+003, 7.021009e-003
3.714227e+003, 7.944997e-003
3.716155e+003, 7.424718e-003
3.718084e+003, 6.235580e-003
3.720012e+003, 5.643503e-003
3.721941e+003, 4.621334e-003
3.723869e+003, 4.626525e-003
3.725798e+003, 5.563034e-003
3.727726e+003, 7.175953e-003
3.729655e+003, 8.854855e-003
3.731583e+003, 9.843247e-003
3.733511e+003, 8.215443e-003
3.735440e+003, 6.612824e-003
3.737368e+003, 5.412417e-003
3.739297e+003, 5.317631e-003
3.741225e+003, 5.613833e-003
3.743154e+003, 5.699994e-003
3.745082e+003, 3.809633e-003
3.747011e+003, 4.053163e-003
3.748939e+003, 4.547936e-003
3.750868e+003, 4.682792e-003
3.752796e+003, 5.121452e-003
3.754725e+003, 5.177022e-003
3.756653e+003, 3.923130e-003
3.758582e+003, 4.042295e-003
3.760510e+003, 3.535431e-003
3.762438e+003, 3.814126e-003
3.764367e+003, 4.385626e-003
3.766295e+003, 4.771954e-003
3.768224e+003, 6.055777e-003
3.770152e+003, 5.281063e-003
3.772081e+003, 5.090863e-003
3.774009e+003, 5.892161e-003
3.775938e+003, 4.931411e-003
3.777866e+003, 4.911284e-003
3.779795e+003, 6.317795e-003
3.781723e+003, 6.834141e-003
3.783652e+003, 5.132665e-003
3.785580e+003, 4.313795e-003
3.787509e+003, 4.350484e-003
3.789437e+003, 4.362249e-003
3.791365e+003, 5.545514e-003
3.793294e+003, 5.991133e-003
3.795222e+003, 6.321006e-003
3.797151e+003, 7.267273e-003
3.799079e+003, 6.622639e-003
3.801008e+003, 4.606553e-003
3.802936e+003, 3.395686e-003
3.804865e+003, 3.772708e-003
3.806793e+003, 4.180763e-003
3.808722e+003, 5.137813e-003
3.810650e+003, 5.631175e-003
3.812579e+003, 5.353013e-003
3.814507e+003, 5.585958e-003
3.816436e+003, 4.325445e-003
3.818364e+003, 2.666629e-003
3.820292e+003, 2.573024e-003
3.822221e+003, 4.812690e-003
3.824149e+003, 6.550165e-003
3.826078e+003, 6.377337e-003
3.828006e+003, 5.859277e-003
3.829935e+003, 5.832060e-003
3.831863e+003, 4.844640e-003
3.833792e+003, 5.174267e-003
3.835720e+003, 5.296508e-003
3.837649e+003, 6.295913e-003
3.839577e+003, 6.667752e-003
3.841506e+003, 4.938609e-003
3.843434e+003, 4.185094e-003
3.845363e+003, 3.992652e-003
3.847291e+003, 4.366819e-003
3.849219e+003, 5.704546e-003
3.851148e+003, 6.501901e-003
3.853076e+003, 6.315594e-003
3.855005e+003, 5.779888e-003
3.856933e+003, 6.539253e-003
3.858862e+003, 6.678585e-003
3.860790e+003, 6.846549e-003
3.862719e+003, 5.947829e-003
3.864647e+003, 5.896829e-003
3.866576e+003, 6.067969e-003
3.868504e+003, 5.806100e-003
3.870433e+003, 5.346975e-003
3.872361e+003, 5.856202e-003
3.874290e+003, 5.874543e-003
3.876218e+003, 5.540052e-003
3.878146e+003, 5.150232e-003
3.880075e+003, 5.096811e-003
3.882003e+003, 5.340240e-003
3.883932e+003, 5.815409e-003
3.885860e+003, 5.737103e-003
3.887789e+003, 6.093017e-003
3.889717e+003, 5.404358e-003
3.891646e+003, 5.112392e-003
3.893574e+003, 5.106112e-003
3.895503e+003, 5.426913e-003
3.897431e+003, 7.640921e-003
3.899360e+003, 7.846124e-003
3.901288e+003, 6.851413e-003
3.903217e+003, 4.967938e-003
3.905145e+003, 4.607770e-003
3.907073e+003, 5.952253e-003
3.909002e+003, 6.650932e-003
3.910930e+003, 6.094716e-003
3.912859e+003, 6.917617e-003
3.914787e+003, 6.167143e-003
3.916716e+003, 4.428545e-003
3.918644e+003, 4.790525e-003
3.920573e+003, 4.497848e-003
3.922501e+003, 5.911728e-003
3.924430e+003, 8.162724e-003
3.926358e+003, 7.198758e-003
3.928287e+003, 5.078733e-003
3.930215e+003, 4.422065e-003
3.932144e+003, 4.911675e-003
3.934072e+003, 5.509039e-003
3.936000e+003, 6.201166e-003
3.937929e+003, 6.187883e-003
3.939857e+003, 6.877951e-003
3.941786e+003, 7.086226e-003
3.943714e+003, 6.411970e-003
3.945643e+003, 6.530503e-003
3.947571e+003, 6.388732e-003
3.949500e+003, 5.731539e-003
3.951428e+003, 5.693936e-003
3.953357e+003, 5.645309e-003
3.955285e+003, 7.041056e-003
3.957214e+003, 7.070524e-003
3.959142e+003, 5.572251e-003
3.961071e+003, 5.814746e-003
3.962999e+003, 5.330204e-003
3.964927e+003, 4.468301e-003
3.966856e+003, 5.357283e-003
3.968784e+003, 5.721149e-003
3.970713e+003, 5.299573e-003
3.972641e+003, 5.263329e-003
3.974570e+003, 7.411460e-003
3.976498e+003, 9.609122e-003
3.978427e+003, 8.428293e-003
3.980355e+003, 6.595531e-003
3.982284e+003, 5.683036e-003
3.984212e+003, 5.002261e-003
3.986141e+003, 5.421432e-003
3.988069e+003, 7.003616e-003
3.989998e+003, 7.534941e-003
3.991926e+003, 7.161105e-003
3.993854e+003, 6.760000e-003
3.995783e+003, 5.959172e-003
3.997711e+003, 6.362408e-003
3.999640e+003, 6.366884e-003
##END=



