##NAMES=Leadhillite
##RRUFFID=R060047
##IDEAL CHEMISTRY=Pb^2+^_4_(S^6+^O_4_)(CO_3_)_2_(OH)_2_
##LOCALITY=Tsumeb mine, Tsumeb, Otavi District, Oshikoto, Namibia
##OWNER=RRUFF
##SOURCE=University of Arizona Mineral Museum
##DESCRIPTION=Grayish-blue cleavage fragment
##STATUS=The identification of this mineral has been confirmed by X-ray diffraction and chemical analysis
##URL=rruff.info/R060047
##MEASURED CHEMISTRY=Pb_4.00_(S_1.00_O_4_)(CO_3_)_2_(OH)_2_
3.991926e+002, 1.182751e-001
4.011211e+002, 1.334589e-001
4.030495e+002, 1.264599e-001
4.049780e+002, 9.913442e-002
4.069065e+002, 1.089283e-001
4.088349e+002, 1.261433e-001
4.107634e+002, 1.203939e-001
4.126919e+002, 1.150804e-001
4.146203e+002, 1.177773e-001
4.165488e+002, 1.157401e-001
4.184773e+002, 1.165495e-001
4.204057e+002, 1.239888e-001
4.223342e+002, 1.192393e-001
4.242627e+002, 1.077732e-001
4.261911e+002, 1.081831e-001
4.281196e+002, 1.039229e-001
4.300481e+002, 9.565780e-002
4.319765e+002, 9.004798e-002
4.339050e+002, 8.286475e-002
4.358335e+002, 8.015683e-002
4.377619e+002, 7.747932e-002
4.396904e+002, 7.242489e-002
4.416189e+002, 6.596009e-002
4.435473e+002, 5.776604e-002
4.454758e+002, 5.331058e-002
4.474043e+002, 5.235268e-002
4.493327e+002, 4.847201e-002
4.512612e+002, 4.644744e-002
4.531897e+002, 5.028411e-002
4.551181e+002, 4.800734e-002
4.570466e+002, 4.587209e-002
4.589751e+002, 4.586523e-002
4.609035e+002, 4.162115e-002
4.628320e+002, 3.878122e-002
4.647605e+002, 4.135239e-002
4.666889e+002, 4.281481e-002
4.686174e+002, 3.898646e-002
4.705459e+002, 3.923694e-002
4.724743e+002, 4.089141e-002
4.744028e+002, 3.815025e-002
4.763313e+002, 3.853912e-002
4.782597e+002, 4.061473e-002
4.801882e+002, 3.954943e-002
4.821167e+002, 3.913353e-002
4.840451e+002, 4.114188e-002
4.859736e+002, 4.091253e-002
4.879021e+002, 3.959914e-002
4.898305e+002, 4.051571e-002
4.917590e+002, 4.240556e-002
4.936875e+002, 4.349277e-002
4.956159e+002, 4.448241e-002
4.975444e+002, 4.559300e-002
4.994729e+002, 4.617160e-002
5.014013e+002, 4.775015e-002
5.033298e+002, 4.921781e-002
5.052583e+002, 4.933596e-002
5.071867e+002, 5.084663e-002
5.091152e+002, 5.381954e-002
5.110437e+002, 5.574604e-002
5.129721e+002, 5.593593e-002
5.149006e+002, 5.716155e-002
5.168290e+002, 5.972032e-002
5.187575e+002, 6.178761e-002
5.206860e+002, 6.391641e-002
5.226144e+002, 6.648880e-002
5.245429e+002, 6.780035e-002
5.264714e+002, 6.888986e-002
5.283998e+002, 7.210648e-002
5.303283e+002, 7.532895e-002
5.322568e+002, 7.693814e-002
5.341852e+002, 7.885244e-002
5.361137e+002, 8.160275e-002
5.380422e+002, 8.471475e-002
5.399706e+002, 8.703406e-002
5.418991e+002, 9.077225e-002
5.438276e+002, 9.390146e-002
5.457560e+002, 9.680189e-002
5.476845e+002, 9.950264e-002
5.496130e+002, 1.018528e-001
5.515414e+002, 1.051967e-001
5.534699e+002, 1.093274e-001
5.553984e+002, 1.125509e-001
5.573268e+002, 1.151148e-001
5.592553e+002, 1.188776e-001
5.611838e+002, 1.234371e-001
5.631122e+002, 1.276031e-001
5.650407e+002, 1.306493e-001
5.669692e+002, 1.346817e-001
5.688976e+002, 1.395051e-001
5.708261e+002, 1.430206e-001
5.727546e+002, 1.478743e-001
5.746830e+002, 1.542888e-001
5.766115e+002, 1.591813e-001
5.785400e+002, 1.646177e-001
5.804684e+002, 1.719728e-001
5.823969e+002, 1.783643e-001
5.843254e+002, 1.839586e-001
5.862538e+002, 1.916900e-001
5.881823e+002, 2.004499e-001
5.901108e+002, 2.065860e-001
5.920392e+002, 2.119770e-001
5.939677e+002, 2.167928e-001
5.958962e+002, 2.192265e-001
5.978246e+002, 2.194522e-001
5.997531e+002, 2.183444e-001
6.016816e+002, 2.133379e-001
6.036100e+002, 2.026601e-001
6.055385e+002, 1.886564e-001
6.074670e+002, 1.724407e-001
6.093954e+002, 1.575137e-001
6.113239e+002, 1.492994e-001
6.132524e+002, 1.462860e-001
6.151808e+002, 1.445099e-001
6.171093e+002, 1.440706e-001
6.190378e+002, 1.461245e-001
6.209662e+002, 1.475373e-001
6.228947e+002, 1.477023e-001
6.248232e+002, 1.487763e-001
6.267516e+002, 1.502603e-001
6.286801e+002, 1.508914e-001
6.306086e+002, 1.506487e-001
6.325370e+002, 1.467738e-001
6.344655e+002, 1.350627e-001
6.363940e+002, 1.173660e-001
6.383224e+002, 1.008954e-001
6.402509e+002, 8.929975e-002
6.421794e+002, 8.165935e-002
6.441078e+002, 7.708003e-002
6.460363e+002, 7.557953e-002
6.479648e+002, 7.555001e-002
6.498932e+002, 7.636311e-002
6.518217e+002, 7.774176e-002
6.537502e+002, 7.958224e-002
6.556786e+002, 8.205340e-002
6.576071e+002, 8.472542e-002
6.595356e+002, 8.771096e-002
6.614641e+002, 9.129269e-002
6.633925e+002, 9.557028e-002
6.653210e+002, 1.016652e-001
6.672495e+002, 1.095286e-001
6.691779e+002, 1.188905e-001
6.711064e+002, 1.316890e-001
6.730349e+002, 1.528857e-001
6.749633e+002, 1.879550e-001
6.768918e+002, 2.425270e-001
6.788203e+002, 3.013361e-001
6.807487e+002, 3.068528e-001
6.826772e+002, 2.444566e-001
6.846057e+002, 1.786180e-001
6.865341e+002, 1.379613e-001
6.884626e+002, 1.171695e-001
6.903911e+002, 1.036015e-001
6.923195e+002, 9.227174e-002
6.942480e+002, 8.621617e-002
6.961765e+002, 8.091640e-002
6.981049e+002, 7.621421e-002
7.000334e+002, 7.462477e-002
7.019619e+002, 7.980971e-002
7.038903e+002, 9.428810e-002
7.058188e+002, 1.018064e-001
7.077473e+002, 8.879347e-002
7.096757e+002, 7.243384e-002
7.116042e+002, 6.263112e-002
7.135327e+002, 5.781592e-002
7.154611e+002, 5.571721e-002
7.173896e+002, 5.502947e-002
7.193181e+002, 5.485129e-002
7.212465e+002, 5.510971e-002
7.231750e+002, 5.506405e-002
7.251035e+002, 5.482348e-002
7.270319e+002, 5.475120e-002
7.289604e+002, 5.488884e-002
7.308889e+002, 5.504294e-002
7.328173e+002, 5.461789e-002
7.347458e+002, 5.465325e-002
7.366743e+002, 5.537790e-002
7.386027e+002, 5.597968e-002
7.405312e+002, 5.604056e-002
7.424597e+002, 5.589665e-002
7.443881e+002, 5.560516e-002
7.463166e+002, 5.541307e-002
7.482451e+002, 5.558026e-002
7.501735e+002, 5.587678e-002
7.521020e+002, 5.606375e-002
7.540305e+002, 5.572638e-002
7.559589e+002, 5.546310e-002
7.578874e+002, 5.597983e-002
7.598159e+002, 5.634626e-002
7.617443e+002, 5.639455e-002
7.636728e+002, 5.663016e-002
7.656013e+002, 5.710848e-002
7.675297e+002, 5.789064e-002
7.694582e+002, 5.897572e-002
7.713867e+002, 5.963289e-002
7.733151e+002, 6.028093e-002
7.752436e+002, 6.097174e-002
7.771721e+002, 6.226309e-002
7.791005e+002, 6.330314e-002
7.810290e+002, 6.398750e-002
7.829575e+002, 6.510630e-002
7.848859e+002, 6.624641e-002
7.868144e+002, 6.720630e-002
7.887429e+002, 6.868407e-002
7.906713e+002, 7.060083e-002
7.925998e+002, 7.180140e-002
7.945283e+002, 7.316396e-002
7.964567e+002, 7.541262e-002
7.983852e+002, 7.750335e-002
8.003137e+002, 7.941315e-002
8.022421e+002, 8.170681e-002
8.041706e+002, 8.438952e-002
8.060991e+002, 8.691961e-002
8.080275e+002, 8.988963e-002
8.099560e+002, 9.355438e-002
8.118845e+002, 9.732790e-002
8.138129e+002, 1.005703e-001
8.157414e+002, 1.030320e-001
8.176699e+002, 1.059345e-001
8.195983e+002, 1.100892e-001
8.215268e+002, 1.153936e-001
8.234553e+002, 1.214484e-001
8.253837e+002, 1.285497e-001
8.273122e+002, 1.379186e-001
8.292407e+002, 1.498858e-001
8.311691e+002, 1.657331e-001
8.330976e+002, 1.853393e-001
8.350261e+002, 2.054453e-001
8.369545e+002, 2.146708e-001
8.388830e+002, 2.012853e-001
8.408115e+002, 1.662959e-001
8.427399e+002, 1.243734e-001
8.446684e+002, 9.405279e-002
8.465969e+002, 7.968577e-002
8.485253e+002, 7.612347e-002
8.504538e+002, 8.008614e-002
8.523823e+002, 8.741167e-002
8.543107e+002, 8.938523e-002
8.562392e+002, 9.118320e-002
8.581677e+002, 9.918954e-002
8.600961e+002, 9.766345e-002
8.620246e+002, 8.096251e-002
8.639531e+002, 6.817001e-002
8.658815e+002, 6.432078e-002
8.678100e+002, 6.368940e-002
8.697385e+002, 6.424534e-002
8.716669e+002, 6.503343e-002
8.735954e+002, 6.554788e-002
8.755239e+002, 6.657932e-002
8.774523e+002, 6.797297e-002
8.793808e+002, 6.875844e-002
8.813093e+002, 6.948079e-002
8.832377e+002, 7.086877e-002
8.851662e+002, 7.199574e-002
8.870947e+002, 7.321747e-002
8.890231e+002, 7.418890e-002
8.909516e+002, 7.437967e-002
8.928801e+002, 7.449649e-002
8.948085e+002, 7.503673e-002
8.967370e+002, 7.595352e-002
8.986655e+002, 7.691785e-002
9.005939e+002, 7.742702e-002
9.025224e+002, 7.787742e-002
9.044509e+002, 7.833394e-002
9.063793e+002, 7.936268e-002
9.083078e+002, 8.082210e-002
9.102363e+002, 8.194412e-002
9.121647e+002, 8.315644e-002
9.140932e+002, 8.438218e-002
9.160217e+002, 8.561109e-002
9.179501e+002, 8.735082e-002
9.198786e+002, 8.879749e-002
9.218071e+002, 9.043221e-002
9.237355e+002, 9.238992e-002
9.256640e+002, 9.476501e-002
9.275925e+002, 9.739978e-002
9.295209e+002, 9.942722e-002
9.314494e+002, 1.018667e-001
9.333779e+002, 1.052756e-001
9.353063e+002, 1.090465e-001
9.372348e+002, 1.132264e-001
9.391633e+002, 1.182068e-001
9.410917e+002, 1.233683e-001
9.430202e+002, 1.283988e-001
9.449487e+002, 1.343246e-001
9.468771e+002, 1.413781e-001
9.488056e+002, 1.483514e-001
9.507341e+002, 1.549750e-001
9.526625e+002, 1.618530e-001
9.545910e+002, 1.693018e-001
9.565195e+002, 1.770402e-001
9.584479e+002, 1.850549e-001
9.603764e+002, 1.922419e-001
9.623049e+002, 1.955108e-001
9.642333e+002, 1.914202e-001
9.661618e+002, 1.789114e-001
9.680903e+002, 1.621663e-001
9.700187e+002, 1.488693e-001
9.719472e+002, 1.416402e-001
9.738757e+002, 1.393746e-001
9.758041e+002, 1.407242e-001
9.777326e+002, 1.446250e-001
9.796611e+002, 1.500213e-001
9.815895e+002, 1.558433e-001
9.835180e+002, 1.623683e-001
9.854465e+002, 1.702208e-001
9.873749e+002, 1.787021e-001
9.893034e+002, 1.870380e-001
9.912319e+002, 1.958117e-001
9.931603e+002, 2.055305e-001
9.950888e+002, 2.152866e-001
9.970173e+002, 2.248856e-001
9.989457e+002, 2.346705e-001
1.000874e+003, 2.446722e-001
1.002803e+003, 2.547487e-001
1.004731e+003, 2.646326e-001
1.006660e+003, 2.744944e-001
1.008588e+003, 2.842669e-001
1.010517e+003, 2.943160e-001
1.012445e+003, 3.037014e-001
1.014373e+003, 3.124658e-001
1.016302e+003, 3.212946e-001
1.018230e+003, 3.305279e-001
1.020159e+003, 3.393390e-001
1.022087e+003, 3.463340e-001
1.024016e+003, 3.518936e-001
1.025944e+003, 3.572262e-001
1.027873e+003, 3.629644e-001
1.029801e+003, 3.669450e-001
1.031730e+003, 3.681355e-001
1.033658e+003, 3.672780e-001
1.035587e+003, 3.652248e-001
1.037515e+003, 3.619545e-001
1.039443e+003, 3.572214e-001
1.041372e+003, 3.503394e-001
1.043300e+003, 3.428787e-001
1.045229e+003, 3.363127e-001
1.047157e+003, 3.307859e-001
1.049086e+003, 3.246678e-001
1.051014e+003, 3.190190e-001
1.052943e+003, 3.171519e-001
1.054871e+003, 3.158352e-001
1.056800e+003, 3.066498e-001
1.058728e+003, 2.945500e-001
1.060657e+003, 2.878503e-001
1.062585e+003, 2.843392e-001
1.064514e+003, 2.814039e-001
1.066442e+003, 2.789554e-001
1.068370e+003, 2.774803e-001
1.070299e+003, 2.766772e-001
1.072227e+003, 2.764007e-001
1.074156e+003, 2.768280e-001
1.076084e+003, 2.781480e-001
1.078013e+003, 2.795770e-001
1.079941e+003, 2.803418e-001
1.081870e+003, 2.801487e-001
1.083798e+003, 2.799083e-001
1.085727e+003, 2.788144e-001
1.087655e+003, 2.759106e-001
1.089584e+003, 2.723740e-001
1.091512e+003, 2.675743e-001
1.093441e+003, 2.623003e-001
1.095369e+003, 2.572391e-001
1.097297e+003, 2.516484e-001
1.099226e+003, 2.459143e-001
1.101154e+003, 2.406010e-001
1.103083e+003, 2.353049e-001
1.105011e+003, 2.302063e-001
1.106940e+003, 2.252594e-001
1.108868e+003, 2.206900e-001
1.110797e+003, 2.168847e-001
1.112725e+003, 2.129027e-001
1.114654e+003, 2.089798e-001
1.116582e+003, 2.054116e-001
1.118511e+003, 2.020790e-001
1.120439e+003, 1.996926e-001
1.122368e+003, 1.975589e-001
1.124296e+003, 1.952352e-001
1.126224e+003, 1.936328e-001
1.128153e+003, 1.927276e-001
1.130081e+003, 1.910985e-001
1.132010e+003, 1.895903e-001
1.133938e+003, 1.887049e-001
1.135867e+003, 1.875320e-001
1.137795e+003, 1.864705e-001
1.139724e+003, 1.856871e-001
1.141652e+003, 1.844336e-001
1.143581e+003, 1.829487e-001
1.145509e+003, 1.818360e-001
1.147438e+003, 1.806566e-001
1.149366e+003, 1.798071e-001
1.151295e+003, 1.787821e-001
1.153223e+003, 1.767138e-001
1.155151e+003, 1.743300e-001
1.157080e+003, 1.718831e-001
1.159008e+003, 1.690806e-001
1.160937e+003, 1.669410e-001
1.162865e+003, 1.656923e-001
1.164794e+003, 1.637723e-001
1.166722e+003, 1.619604e-001
1.168651e+003, 1.605454e-001
1.170579e+003, 1.591967e-001
1.172508e+003, 1.570143e-001
1.174436e+003, 1.544743e-001
1.176365e+003, 1.519140e-001
1.178293e+003, 1.490083e-001
1.180222e+003, 1.453163e-001
1.182150e+003, 1.410696e-001
1.184078e+003, 1.367367e-001
1.186007e+003, 1.326153e-001
1.187935e+003, 1.281871e-001
1.189864e+003, 1.237978e-001
1.191792e+003, 1.190085e-001
1.193721e+003, 1.138465e-001
1.195649e+003, 1.087873e-001
1.197578e+003, 1.038325e-001
1.199506e+003, 9.897675e-002
1.201435e+003, 9.446469e-002
1.203363e+003, 9.033197e-002
1.205292e+003, 8.701156e-002
1.207220e+003, 8.450914e-002
1.209149e+003, 8.223566e-002
1.211077e+003, 8.052250e-002
1.213005e+003, 7.968793e-002
1.214934e+003, 7.924304e-002
1.216862e+003, 7.881194e-002
1.218791e+003, 7.863545e-002
1.220719e+003, 7.879610e-002
1.222648e+003, 7.908297e-002
1.224576e+003, 7.948896e-002
1.226505e+003, 8.042048e-002
1.228433e+003, 8.130559e-002
1.230362e+003, 8.232456e-002
1.232290e+003, 8.325539e-002
1.234219e+003, 8.410282e-002
1.236147e+003, 8.529846e-002
1.238076e+003, 8.675049e-002
1.240004e+003, 8.858009e-002
1.241932e+003, 9.033058e-002
1.243861e+003, 9.204348e-002
1.245789e+003, 9.370652e-002
1.247718e+003, 9.578370e-002
1.249646e+003, 9.828750e-002
1.251575e+003, 1.007191e-001
1.253503e+003, 1.027079e-001
1.255432e+003, 1.050572e-001
1.257360e+003, 1.077744e-001
1.259289e+003, 1.106674e-001
1.261217e+003, 1.137939e-001
1.263146e+003, 1.169258e-001
1.265074e+003, 1.204978e-001
1.267003e+003, 1.235741e-001
1.268931e+003, 1.268509e-001
1.270859e+003, 1.307490e-001
1.272788e+003, 1.347799e-001
1.274716e+003, 1.390217e-001
1.276645e+003, 1.429561e-001
1.278573e+003, 1.469613e-001
1.280502e+003, 1.511544e-001
1.282430e+003, 1.555791e-001
1.284359e+003, 1.598964e-001
1.286287e+003, 1.641678e-001
1.288216e+003, 1.688077e-001
1.290144e+003, 1.738320e-001
1.292073e+003, 1.790151e-001
1.294001e+003, 1.845605e-001
1.295930e+003, 1.903480e-001
1.297858e+003, 1.958596e-001
1.299786e+003, 2.015662e-001
1.301715e+003, 2.075835e-001
1.303643e+003, 2.134464e-001
1.305572e+003, 2.193251e-001
1.307500e+003, 2.258555e-001
1.309429e+003, 2.324947e-001
1.311357e+003, 2.388725e-001
1.313286e+003, 2.451458e-001
1.315214e+003, 2.514617e-001
1.317143e+003, 2.578434e-001
1.319071e+003, 2.643268e-001
1.321000e+003, 2.711814e-001
1.322928e+003, 2.784952e-001
1.324857e+003, 2.856933e-001
1.326785e+003, 2.927239e-001
1.328714e+003, 3.004650e-001
1.330642e+003, 3.088470e-001
1.332570e+003, 3.174277e-001
1.334499e+003, 3.258862e-001
1.336427e+003, 3.345695e-001
1.338356e+003, 3.431661e-001
1.340284e+003, 3.522170e-001
1.342213e+003, 3.618366e-001
1.344141e+003, 3.717915e-001
1.346070e+003, 3.821278e-001
1.347998e+003, 3.929101e-001
1.349927e+003, 4.043235e-001
1.351855e+003, 4.158525e-001
1.353784e+003, 4.283481e-001
1.355712e+003, 4.423606e-001
1.357641e+003, 4.562750e-001
1.359569e+003, 4.696397e-001
1.361497e+003, 4.835092e-001
1.363426e+003, 4.974157e-001
1.365354e+003, 5.101898e-001
1.367283e+003, 5.225714e-001
1.369211e+003, 5.335178e-001
1.371140e+003, 5.429500e-001
1.373068e+003, 5.517941e-001
1.374997e+003, 5.602332e-001
1.376925e+003, 5.678398e-001
1.378854e+003, 5.739284e-001
1.380782e+003, 5.779241e-001
1.382711e+003, 5.809228e-001
1.384639e+003, 5.822375e-001
1.386568e+003, 5.820141e-001
1.388496e+003, 5.798347e-001
1.390424e+003, 5.761737e-001
1.392353e+003, 5.705721e-001
1.394281e+003, 5.627008e-001
1.396210e+003, 5.532625e-001
1.398138e+003, 5.433719e-001
1.400067e+003, 5.319667e-001
1.401995e+003, 5.196326e-001
1.403924e+003, 5.059530e-001
1.405852e+003, 4.902219e-001
1.407781e+003, 4.737831e-001
1.409709e+003, 4.565669e-001
1.411638e+003, 4.386087e-001
1.413566e+003, 4.204859e-001
1.415495e+003, 4.022958e-001
1.417423e+003, 3.847641e-001
1.419351e+003, 3.680404e-001
1.421280e+003, 3.519058e-001
1.423208e+003, 3.362502e-001
1.425137e+003, 3.220189e-001
1.427065e+003, 3.086933e-001
1.428994e+003, 2.958243e-001
1.430922e+003, 2.832103e-001
1.432851e+003, 2.714138e-001
1.434779e+003, 2.604282e-001
1.436708e+003, 2.499398e-001
1.438636e+003, 2.396567e-001
1.440565e+003, 2.293323e-001
1.442493e+003, 2.184633e-001
1.444422e+003, 2.079415e-001
1.446350e+003, 1.976759e-001
1.448278e+003, 1.879803e-001
1.450207e+003, 1.783020e-001
1.452135e+003, 1.686131e-001
1.454064e+003, 1.592591e-001
1.455992e+003, 1.504278e-001
1.457921e+003, 1.415349e-001
1.459849e+003, 1.331346e-001
1.461778e+003, 1.255569e-001
1.463706e+003, 1.187635e-001
1.465635e+003, 1.120138e-001
1.467563e+003, 1.057497e-001
1.469492e+003, 1.001020e-001
1.471420e+003, 9.473214e-002
1.473349e+003, 8.980073e-002
1.475277e+003, 8.533055e-002
1.477205e+003, 8.148761e-002
1.479134e+003, 7.793033e-002
1.481062e+003, 7.422622e-002
1.482991e+003, 7.083812e-002
1.484919e+003, 6.748255e-002
1.486848e+003, 6.428786e-002
1.488776e+003, 6.155328e-002
1.490705e+003, 5.880201e-002
1.492633e+003, 5.616319e-002
1.494562e+003, 5.396395e-002
1.496490e+003, 5.206363e-002
1.498419e+003, 5.003132e-002
1.500347e+003, 4.779126e-002
1.502276e+003, 4.609611e-002
1.504204e+003, 4.423352e-002
1.506132e+003, 4.238773e-002
1.508061e+003, 4.060351e-002
1.509989e+003, 3.907003e-002
1.511918e+003, 3.766926e-002
1.513846e+003, 3.664916e-002
1.515775e+003, 3.586091e-002
1.517703e+003, 3.461188e-002
1.519632e+003, 3.325671e-002
1.521560e+003, 3.171009e-002
1.523489e+003, 3.036548e-002
1.525417e+003, 2.984937e-002
1.527346e+003, 2.927832e-002
1.529274e+003, 2.821891e-002
1.531203e+003, 2.701132e-002
1.533131e+003, 2.648060e-002
1.535059e+003, 2.603965e-002
1.536988e+003, 2.553694e-002
1.538916e+003, 2.538459e-002
1.540845e+003, 2.496812e-002
1.542773e+003, 2.427812e-002
1.544702e+003, 2.358571e-002
1.546630e+003, 2.308834e-002
1.548559e+003, 2.274003e-002
1.550487e+003, 2.239137e-002
1.552416e+003, 2.202178e-002
1.554344e+003, 2.199524e-002
1.556273e+003, 2.176516e-002
1.558201e+003, 2.125307e-002
1.560130e+003, 2.093066e-002
1.562058e+003, 2.087166e-002
1.563986e+003, 2.089689e-002
1.565915e+003, 2.110514e-002
1.567843e+003, 2.079657e-002
1.569772e+003, 2.022207e-002
1.571700e+003, 2.014183e-002
1.573629e+003, 2.019511e-002
1.575557e+003, 2.003959e-002
1.577486e+003, 1.999523e-002
1.579414e+003, 2.028682e-002
1.581343e+003, 2.030949e-002
1.583271e+003, 1.994661e-002
1.585200e+003, 1.982564e-002
1.587128e+003, 1.996792e-002
1.589057e+003, 2.004427e-002
1.590985e+003, 1.984380e-002
1.592913e+003, 1.967624e-002
1.594842e+003, 1.954182e-002
1.596770e+003, 1.932413e-002
1.598699e+003, 1.923506e-002
1.600627e+003, 1.956988e-002
1.602556e+003, 1.968675e-002
1.604484e+003, 1.983005e-002
1.606413e+003, 1.982060e-002
1.608341e+003, 1.938082e-002
1.610270e+003, 1.909320e-002
1.612198e+003, 1.935403e-002
1.614127e+003, 1.953692e-002
1.616055e+003, 1.923257e-002
1.617984e+003, 1.933702e-002
1.619912e+003, 1.977585e-002
1.621840e+003, 1.965339e-002
1.623769e+003, 1.957906e-002
1.625697e+003, 1.975951e-002
1.627626e+003, 1.952189e-002
1.629554e+003, 1.926605e-002
1.631483e+003, 1.945396e-002
1.633411e+003, 1.959150e-002
1.635340e+003, 1.998448e-002
1.637268e+003, 2.049689e-002
1.639197e+003, 2.072840e-002
1.641125e+003, 2.040398e-002
1.643054e+003, 2.004812e-002
1.644982e+003, 2.010074e-002
1.646911e+003, 2.046912e-002
1.648839e+003, 2.078267e-002
1.650767e+003, 2.059546e-002
1.652696e+003, 2.035915e-002
1.654624e+003, 2.040919e-002
1.656553e+003, 2.075605e-002
1.658481e+003, 2.112662e-002
1.660410e+003, 2.101636e-002
1.662338e+003, 2.104695e-002
1.664267e+003, 2.109419e-002
1.666195e+003, 2.107856e-002
1.668124e+003, 2.120398e-002
1.670052e+003, 2.123202e-002
1.671981e+003, 2.089998e-002
1.673909e+003, 2.145241e-002
1.675838e+003, 2.193777e-002
1.677766e+003, 2.192210e-002
1.679694e+003, 2.201298e-002
1.681623e+003, 2.190750e-002
1.683551e+003, 2.195775e-002
1.685480e+003, 2.212678e-002
1.687408e+003, 2.249408e-002
1.689337e+003, 2.293774e-002
1.691265e+003, 2.313844e-002
1.693194e+003, 2.384312e-002
1.695122e+003, 2.401794e-002
1.697051e+003, 2.363720e-002
1.698979e+003, 2.404706e-002
1.700908e+003, 2.434696e-002
1.702836e+003, 2.404079e-002
1.704765e+003, 2.403791e-002
1.706693e+003, 2.464698e-002
1.708621e+003, 2.487713e-002
1.710550e+003, 2.503961e-002
1.712478e+003, 2.534841e-002
1.714407e+003, 2.587265e-002
1.716335e+003, 2.595039e-002
1.718264e+003, 2.619074e-002
1.720192e+003, 2.683699e-002
1.722121e+003, 2.777839e-002
1.724049e+003, 2.852922e-002
1.725978e+003, 3.021371e-002
1.727906e+003, 3.299144e-002
1.729835e+003, 3.557663e-002
1.731763e+003, 3.754970e-002
1.733692e+003, 3.958112e-002
1.735620e+003, 4.121923e-002
1.737548e+003, 4.133848e-002
1.739477e+003, 4.018918e-002
1.741405e+003, 3.885328e-002
1.743334e+003, 3.711652e-002
1.745262e+003, 3.551652e-002
1.747191e+003, 3.510204e-002
1.749119e+003, 3.494937e-002
1.751048e+003, 3.540075e-002
1.752976e+003, 3.548970e-002
1.754905e+003, 3.432563e-002
1.756833e+003, 3.260278e-002
1.758762e+003, 3.067731e-002
1.760690e+003, 2.865904e-002
1.762619e+003, 2.753436e-002
1.764547e+003, 2.673576e-002
1.766475e+003, 2.645612e-002
1.768404e+003, 2.638172e-002
1.770332e+003, 2.648632e-002
1.772261e+003, 2.648618e-002
1.774189e+003, 2.633754e-002
1.776118e+003, 2.618015e-002
1.778046e+003, 2.591566e-002
1.779975e+003, 2.612920e-002
1.781903e+003, 2.621724e-002
1.783832e+003, 2.624158e-002
1.785760e+003, 2.643774e-002
1.787689e+003, 2.692473e-002
1.789617e+003, 2.732245e-002
1.791546e+003, 2.709019e-002
1.793474e+003, 2.698270e-002
1.795402e+003, 2.741373e-002
1.797331e+003, 2.725222e-002
1.799259e+003, 2.717782e-002
1.801188e+003, 2.673024e-002
1.803116e+003, 2.651655e-002
1.805045e+003, 2.682362e-002
1.806973e+003, 2.758736e-002
1.808902e+003, 2.772688e-002
1.810830e+003, 2.767608e-002
1.812759e+003, 2.761174e-002
1.814687e+003, 2.714357e-002
1.816616e+003, 2.687274e-002
1.818544e+003, 2.673701e-002
1.820473e+003, 2.720495e-002
1.822401e+003, 2.787813e-002
1.824329e+003, 2.775493e-002
1.826258e+003, 2.740690e-002
1.828186e+003, 2.763728e-002
1.830115e+003, 2.822399e-002
1.832043e+003, 2.869608e-002
1.833972e+003, 2.841092e-002
1.835900e+003, 2.855364e-002
1.837829e+003, 2.873954e-002
1.839757e+003, 2.825901e-002
1.841686e+003, 2.844315e-002
1.843614e+003, 2.898480e-002
1.845543e+003, 2.919552e-002
1.847471e+003, 2.987269e-002
1.849400e+003, 3.030264e-002
1.851328e+003, 2.967502e-002
1.853256e+003, 2.917320e-002
1.855185e+003, 2.934953e-002
1.857113e+003, 2.929382e-002
1.859042e+003, 2.945539e-002
1.860970e+003, 2.876878e-002
1.862899e+003, 2.785851e-002
1.864827e+003, 2.865177e-002
1.866756e+003, 3.039107e-002
1.868684e+003, 3.082929e-002
1.870613e+003, 3.088332e-002
1.872541e+003, 3.026229e-002
1.874470e+003, 3.000703e-002
1.876398e+003, 3.088700e-002
1.878327e+003, 3.121692e-002
1.880255e+003, 3.112321e-002
1.882183e+003, 3.213868e-002
1.884112e+003, 3.190179e-002
1.886040e+003, 3.110427e-002
1.887969e+003, 3.067220e-002
1.889897e+003, 3.036835e-002
1.891826e+003, 3.050590e-002
1.893754e+003, 3.074300e-002
1.895683e+003, 2.990403e-002
1.897611e+003, 2.838803e-002
1.899540e+003, 2.847375e-002
1.901468e+003, 2.940215e-002
1.903397e+003, 3.090445e-002
1.905325e+003, 3.176842e-002
1.907254e+003, 3.067387e-002
1.909182e+003, 2.964048e-002
1.911110e+003, 2.919810e-002
1.913039e+003, 2.956517e-002
1.914967e+003, 3.059069e-002
1.916896e+003, 3.183496e-002
1.918824e+003, 3.262963e-002
1.920753e+003, 3.235433e-002
1.922681e+003, 3.166725e-002
1.924610e+003, 3.186018e-002
1.926538e+003, 3.121491e-002
1.928467e+003, 3.103672e-002
1.930395e+003, 3.204340e-002
1.932324e+003, 3.157779e-002
1.934252e+003, 3.083492e-002
1.936181e+003, 3.154137e-002
1.938109e+003, 3.265584e-002
1.940037e+003, 3.229041e-002
1.941966e+003, 3.164303e-002
1.943894e+003, 3.254618e-002
1.945823e+003, 3.300272e-002
1.947751e+003, 3.347751e-002
1.949680e+003, 3.353297e-002
1.951608e+003, 3.270026e-002
1.953537e+003, 3.171310e-002
1.955465e+003, 3.152886e-002
1.957394e+003, 3.214218e-002
1.959322e+003, 3.400822e-002
1.961251e+003, 3.293146e-002
1.963179e+003, 3.017561e-002
1.965108e+003, 3.056299e-002
1.967036e+003, 3.145667e-002
1.968964e+003, 3.115483e-002
1.970893e+003, 2.948120e-002
1.972821e+003, 3.088780e-002
1.974750e+003, 3.238159e-002
1.976678e+003, 3.316586e-002
1.978607e+003, 3.379044e-002
1.980535e+003, 3.492599e-002
1.982464e+003, 3.652196e-002
1.984392e+003, 3.698546e-002
1.986321e+003, 3.516059e-002
1.988249e+003, 3.505770e-002
1.990178e+003, 3.853987e-002
1.992106e+003, 4.013059e-002
1.994035e+003, 3.906338e-002
1.995963e+003, 3.633234e-002
1.997891e+003, 3.382403e-002
1.999820e+003, 3.453234e-002
2.001748e+003, 3.570488e-002
2.003677e+003, 3.503579e-002
2.005605e+003, 3.410859e-002
2.007534e+003, 3.303565e-002
2.009462e+003, 3.164075e-002
2.011391e+003, 3.184210e-002
2.013319e+003, 3.550009e-002
2.015248e+003, 3.731238e-002
2.017176e+003, 3.602957e-002
2.019105e+003, 3.596294e-002
2.021033e+003, 3.673268e-002
2.022962e+003, 3.594359e-002
2.024890e+003, 3.452538e-002
2.026818e+003, 3.448451e-002
2.028747e+003, 3.360139e-002
2.030675e+003, 3.429162e-002
2.032604e+003, 3.821037e-002
2.034532e+003, 3.862887e-002
2.036461e+003, 3.886824e-002
2.038389e+003, 3.825805e-002
2.040318e+003, 3.641889e-002
2.042246e+003, 3.519453e-002
2.044175e+003, 3.642338e-002
2.046103e+003, 3.880302e-002
2.048031e+003, 3.780048e-002
2.049960e+003, 3.727338e-002
2.051888e+003, 3.830045e-002
2.053817e+003, 4.016895e-002
2.055745e+003, 3.976608e-002
2.057674e+003, 3.883102e-002
2.059602e+003, 4.027198e-002
2.061531e+003, 3.996491e-002
2.063459e+003, 3.947292e-002
2.065388e+003, 3.984728e-002
2.067316e+003, 3.974722e-002
2.069245e+003, 3.930621e-002
2.071173e+003, 3.964027e-002
2.073102e+003, 4.012789e-002
2.075030e+003, 3.903291e-002
2.076958e+003, 3.829288e-002
2.078887e+003, 4.058009e-002
2.080815e+003, 4.243796e-002
2.082744e+003, 4.296469e-002
2.084672e+003, 4.188535e-002
2.086601e+003, 3.878298e-002
2.088529e+003, 3.816930e-002
2.090458e+003, 3.896153e-002
2.092386e+003, 3.897055e-002
2.094315e+003, 3.846055e-002
2.096243e+003, 3.916622e-002
2.098172e+003, 4.006815e-002
2.100100e+003, 4.284090e-002
2.102029e+003, 4.361095e-002
2.103957e+003, 4.154655e-002
2.105885e+003, 4.076911e-002
2.107814e+003, 4.087618e-002
2.109742e+003, 4.086951e-002
2.111671e+003, 4.122787e-002
2.113599e+003, 4.189160e-002
2.115528e+003, 4.225638e-002
2.117456e+003, 4.227139e-002
2.119385e+003, 4.138590e-002
2.121313e+003, 4.087136e-002
2.123242e+003, 4.203773e-002
2.125170e+003, 4.214047e-002
2.127099e+003, 4.162971e-002
2.129027e+003, 4.099366e-002
2.130956e+003, 4.113922e-002
2.132884e+003, 4.083465e-002
2.134813e+003, 4.076041e-002
2.136741e+003, 4.148476e-002
2.138669e+003, 4.096645e-002
2.140598e+003, 3.982155e-002
2.142526e+003, 3.987921e-002
2.144455e+003, 4.109049e-002
2.146383e+003, 3.849718e-002
2.148312e+003, 3.489186e-002
2.150240e+003, 3.340216e-002
2.152169e+003, 3.471935e-002
2.154097e+003, 3.274555e-002
2.156026e+003, 2.959893e-002
2.157954e+003, 3.233438e-002
2.159883e+003, 3.660552e-002
2.161811e+003, 3.886892e-002
2.163740e+003, 4.201583e-002
2.165668e+003, 4.498924e-002
2.167596e+003, 4.548906e-002
2.169525e+003, 4.359058e-002
2.171453e+003, 4.093281e-002
2.173382e+003, 4.056268e-002
2.175310e+003, 4.092987e-002
2.177239e+003, 4.213215e-002
2.179167e+003, 4.154375e-002
2.181096e+003, 4.137485e-002
2.183024e+003, 4.649379e-002
2.184953e+003, 4.783504e-002
2.186881e+003, 4.450334e-002
2.188810e+003, 4.377428e-002
2.190738e+003, 4.410568e-002
2.192667e+003, 4.757514e-002
2.194595e+003, 4.788663e-002
2.196523e+003, 4.538603e-002
2.198452e+003, 4.467690e-002
2.200380e+003, 4.551917e-002
2.202309e+003, 4.658506e-002
2.204237e+003, 4.537854e-002
2.206166e+003, 4.521560e-002
2.208094e+003, 4.599893e-002
2.210023e+003, 4.544136e-002
2.211951e+003, 4.470075e-002
2.213880e+003, 4.512842e-002
2.215808e+003, 4.475131e-002
2.217737e+003, 4.503870e-002
2.219665e+003, 4.535003e-002
2.221594e+003, 4.496640e-002
2.223522e+003, 4.539979e-002
2.225450e+003, 4.527418e-002
2.227379e+003, 4.664095e-002
2.229307e+003, 4.783832e-002
2.231236e+003, 4.714447e-002
2.233164e+003, 4.661621e-002
2.235093e+003, 4.717419e-002
2.237021e+003, 4.787100e-002
2.238950e+003, 4.708630e-002
2.240878e+003, 4.611191e-002
2.242807e+003, 4.741970e-002
2.244735e+003, 4.930657e-002
2.246664e+003, 4.976927e-002
2.248592e+003, 4.914963e-002
2.250521e+003, 4.801833e-002
2.252449e+003, 4.755618e-002
2.254377e+003, 4.934679e-002
2.256306e+003, 4.957370e-002
2.258234e+003, 5.093184e-002
2.260163e+003, 5.214448e-002
2.262091e+003, 5.126652e-002
2.264020e+003, 5.041446e-002
2.265948e+003, 5.057390e-002
2.267877e+003, 5.006730e-002
2.269805e+003, 5.044101e-002
2.271734e+003, 5.227079e-002
2.273662e+003, 5.322956e-002
2.275591e+003, 5.335166e-002
2.277519e+003, 5.256934e-002
2.279448e+003, 5.192894e-002
2.281376e+003, 5.250461e-002
2.283304e+003, 5.292814e-002
2.285233e+003, 5.264846e-002
2.287161e+003, 5.219508e-002
2.289090e+003, 5.274556e-002
2.291018e+003, 5.377553e-002
2.292947e+003, 5.384053e-002
2.294875e+003, 5.337973e-002
2.296804e+003, 5.294962e-002
2.298732e+003, 5.289313e-002
2.300661e+003, 5.234384e-002
2.302589e+003, 5.221697e-002
2.304518e+003, 5.264300e-002
2.306446e+003, 5.303001e-002
2.308375e+003, 5.305716e-002
2.310303e+003, 5.339290e-002
2.312231e+003, 5.490945e-002
2.314160e+003, 5.513910e-002
2.316088e+003, 5.536083e-002
2.318017e+003, 5.627382e-002
2.319945e+003, 5.593313e-002
2.321874e+003, 5.584724e-002
2.323802e+003, 5.591999e-002
2.325731e+003, 5.548172e-002
2.327659e+003, 5.520674e-002
2.329588e+003, 5.616691e-002
2.331516e+003, 5.630716e-002
2.333445e+003, 5.532183e-002
2.335373e+003, 5.516171e-002
2.337302e+003, 5.556917e-002
2.339230e+003, 5.582119e-002
2.341158e+003, 5.545015e-002
2.343087e+003, 5.468111e-002
2.345015e+003, 5.506233e-002
2.346944e+003, 5.589066e-002
2.348872e+003, 5.635564e-002
2.350801e+003, 5.569597e-002
2.352729e+003, 5.588434e-002
2.354658e+003, 5.581676e-002
2.356586e+003, 5.631679e-002
2.358515e+003, 5.700231e-002
2.360443e+003, 5.714873e-002
2.362372e+003, 5.710720e-002
2.364300e+003, 5.705021e-002
2.366229e+003, 5.644723e-002
2.368157e+003, 5.532919e-002
2.370085e+003, 5.572643e-002
2.372014e+003, 5.715393e-002
2.373942e+003, 5.764457e-002
2.375871e+003, 5.710325e-002
2.377799e+003, 5.683139e-002
2.379728e+003, 5.715778e-002
2.381656e+003, 5.732879e-002
2.383585e+003, 5.760296e-002
2.385513e+003, 5.725564e-002
2.387442e+003, 5.786127e-002
2.389370e+003, 5.930914e-002
2.391299e+003, 5.975828e-002
2.393227e+003, 6.041249e-002
2.395156e+003, 6.082896e-002
2.397084e+003, 6.121053e-002
2.399012e+003, 6.119571e-002
2.400941e+003, 6.146833e-002
2.402869e+003, 6.254623e-002
2.404798e+003, 6.287599e-002
2.406726e+003, 6.284173e-002
2.408655e+003, 6.384379e-002
2.410583e+003, 6.570618e-002
2.412512e+003, 6.548497e-002
2.414440e+003, 6.465415e-002
2.416369e+003, 6.503268e-002
2.418297e+003, 6.500435e-002
2.420226e+003, 6.577323e-002
2.422154e+003, 6.663197e-002
2.424083e+003, 6.611407e-002
2.426011e+003, 6.569730e-002
2.427939e+003, 6.585167e-002
2.429868e+003, 6.551822e-002
2.431796e+003, 6.488113e-002
2.433725e+003, 6.466285e-002
2.435653e+003, 6.447886e-002
2.437582e+003, 6.339207e-002
2.439510e+003, 6.294812e-002
2.441439e+003, 6.221773e-002
2.443367e+003, 6.129059e-002
2.445296e+003, 6.116232e-002
2.447224e+003, 6.230024e-002
2.449153e+003, 6.226657e-002
2.451081e+003, 6.284762e-002
2.453010e+003, 6.226466e-002
2.454938e+003, 6.139031e-002
2.456866e+003, 6.110014e-002
2.458795e+003, 6.150195e-002
2.460723e+003, 6.194721e-002
2.462652e+003, 6.150672e-002
2.464580e+003, 6.107555e-002
2.466509e+003, 6.166140e-002
2.468437e+003, 6.208472e-002
2.470366e+003, 6.214164e-002
2.472294e+003, 6.250051e-002
2.474223e+003, 6.235350e-002
2.476151e+003, 6.213808e-002
2.478080e+003, 6.170446e-002
2.480008e+003, 6.178512e-002
2.481937e+003, 6.177987e-002
2.483865e+003, 6.092297e-002
2.485793e+003, 6.105933e-002
2.487722e+003, 6.261378e-002
2.489650e+003, 6.239014e-002
2.491579e+003, 6.100341e-002
2.493507e+003, 6.059846e-002
2.495436e+003, 6.058394e-002
2.497364e+003, 6.069788e-002
2.499293e+003, 6.036937e-002
2.501221e+003, 6.021962e-002
2.503150e+003, 6.072307e-002
2.505078e+003, 6.097973e-002
2.507007e+003, 6.113958e-002
2.508935e+003, 6.231960e-002
2.510864e+003, 6.133361e-002
2.512792e+003, 5.966969e-002
2.514720e+003, 5.910577e-002
2.516649e+003, 5.959756e-002
2.518577e+003, 6.093259e-002
2.520506e+003, 6.234431e-002
2.522434e+003, 6.073998e-002
2.524363e+003, 5.977617e-002
2.526291e+003, 6.103098e-002
2.528220e+003, 6.132521e-002
2.530148e+003, 6.039745e-002
2.532077e+003, 6.070083e-002
2.534005e+003, 6.127148e-002
2.535934e+003, 5.943070e-002
2.537862e+003, 5.905396e-002
2.539791e+003, 6.030601e-002
2.541719e+003, 5.990384e-002
2.543647e+003, 5.956603e-002
2.545576e+003, 5.959436e-002
2.547504e+003, 5.925491e-002
2.549433e+003, 6.054343e-002
2.551361e+003, 6.166380e-002
2.553290e+003, 6.111533e-002
2.555218e+003, 6.017695e-002
2.557147e+003, 6.035190e-002
2.559075e+003, 6.095245e-002
2.561004e+003, 6.171115e-002
2.562932e+003, 6.143479e-002
2.564861e+003, 6.080991e-002
2.566789e+003, 6.079914e-002
2.568718e+003, 6.051068e-002
2.570646e+003, 6.025778e-002
2.572574e+003, 6.080601e-002
2.574503e+003, 6.203536e-002
2.576431e+003, 6.143744e-002
2.578360e+003, 5.921396e-002
2.580288e+003, 5.893641e-002
2.582217e+003, 6.110222e-002
2.584145e+003, 6.263947e-002
2.586074e+003, 6.198425e-002
2.588002e+003, 6.166290e-002
2.589931e+003, 6.161439e-002
2.591859e+003, 6.168775e-002
2.593788e+003, 6.211692e-002
2.595716e+003, 6.146270e-002
2.597645e+003, 6.129143e-002
2.599573e+003, 6.198463e-002
2.601501e+003, 6.266823e-002
2.603430e+003, 6.298891e-002
2.605358e+003, 6.292851e-002
2.607287e+003, 6.139544e-002
2.609215e+003, 6.036292e-002
2.611144e+003, 6.184921e-002
2.613072e+003, 6.304993e-002
2.615001e+003, 6.303702e-002
2.616929e+003, 6.203551e-002
2.618858e+003, 6.270933e-002
2.620786e+003, 6.354546e-002
2.622715e+003, 6.336591e-002
2.624643e+003, 6.219073e-002
2.626572e+003, 6.238827e-002
2.628500e+003, 6.320041e-002
2.630428e+003, 6.367917e-002
2.632357e+003, 6.401131e-002
2.634285e+003, 6.462052e-002
2.636214e+003, 6.472726e-002
2.638142e+003, 6.419120e-002
2.640071e+003, 6.402554e-002
2.641999e+003, 6.368997e-002
2.643928e+003, 6.348471e-002
2.645856e+003, 6.352202e-002
2.647785e+003, 6.405083e-002
2.649713e+003, 6.482518e-002
2.651642e+003, 6.505818e-002
2.653570e+003, 6.445389e-002
2.655499e+003, 6.438386e-002
2.657427e+003, 6.504157e-002
2.659355e+003, 6.520092e-002
2.661284e+003, 6.449924e-002
2.663212e+003, 6.459720e-002
2.665141e+003, 6.465472e-002
2.667069e+003, 6.373052e-002
2.668998e+003, 6.373652e-002
2.670926e+003, 6.385420e-002
2.672855e+003, 6.363467e-002
2.674783e+003, 6.371410e-002
2.676712e+003, 6.414939e-002
2.678640e+003, 6.432299e-002
2.680569e+003, 6.410283e-002
2.682497e+003, 6.476405e-002
2.684426e+003, 6.534351e-002
2.686354e+003, 6.577933e-002
2.688282e+003, 6.569160e-002
2.690211e+003, 6.506357e-002
2.692139e+003, 6.451111e-002
2.694068e+003, 6.453997e-002
2.695996e+003, 6.449679e-002
2.697925e+003, 6.503031e-002
2.699853e+003, 6.641572e-002
2.701782e+003, 6.657325e-002
2.703710e+003, 6.602065e-002
2.705639e+003, 6.670595e-002
2.707567e+003, 6.724403e-002
2.709496e+003, 6.670108e-002
2.711424e+003, 6.651639e-002
2.713353e+003, 6.665418e-002
2.715281e+003, 6.657018e-002
2.717209e+003, 6.679875e-002
2.719138e+003, 6.718525e-002
2.721066e+003, 6.783813e-002
2.722995e+003, 6.840833e-002
2.724923e+003, 6.839432e-002
2.726852e+003, 6.711908e-002
2.728780e+003, 6.618988e-002
2.730709e+003, 6.640678e-002
2.732637e+003, 6.814779e-002
2.734566e+003, 6.869384e-002
2.736494e+003, 6.808458e-002
2.738423e+003, 6.773820e-002
2.740351e+003, 6.709893e-002
2.742280e+003, 6.727382e-002
2.744208e+003, 6.791470e-002
2.746136e+003, 6.730759e-002
2.748065e+003, 6.709997e-002
2.749993e+003, 6.791175e-002
2.751922e+003, 6.929148e-002
2.753850e+003, 6.948645e-002
2.755779e+003, 6.897279e-002
2.757707e+003, 6.855760e-002
2.759636e+003, 6.874865e-002
2.761564e+003, 6.900816e-002
2.763493e+003, 6.885871e-002
2.765421e+003, 6.902496e-002
2.767350e+003, 6.984669e-002
2.769278e+003, 7.089110e-002
2.771207e+003, 7.122383e-002
2.773135e+003, 7.074329e-002
2.775063e+003, 7.035951e-002
2.776992e+003, 6.990391e-002
2.778920e+003, 7.033636e-002
2.780849e+003, 7.127801e-002
2.782777e+003, 7.161533e-002
2.784706e+003, 7.193432e-002
2.786634e+003, 7.181756e-002
2.788563e+003, 7.032227e-002
2.790491e+003, 7.038530e-002
2.792420e+003, 7.091756e-002
2.794348e+003, 6.996872e-002
2.796277e+003, 6.964538e-002
2.798205e+003, 7.022511e-002
2.800134e+003, 7.069430e-002
2.802062e+003, 7.031020e-002
2.803990e+003, 7.050320e-002
2.805919e+003, 7.035103e-002
2.807847e+003, 7.016344e-002
2.809776e+003, 6.955425e-002
2.811704e+003, 6.960929e-002
2.813633e+003, 7.050335e-002
2.815561e+003, 7.115262e-002
2.817490e+003, 7.184280e-002
2.819418e+003, 7.121602e-002
2.821347e+003, 7.032858e-002
2.823275e+003, 7.100058e-002
2.825204e+003, 7.106366e-002
2.827132e+003, 7.138655e-002
2.829061e+003, 7.231490e-002
2.830989e+003, 7.240678e-002
2.832917e+003, 7.288767e-002
2.834846e+003, 7.309327e-002
2.836774e+003, 7.347828e-002
2.838703e+003, 7.434168e-002
2.840631e+003, 7.418706e-002
2.842560e+003, 7.395098e-002
2.844488e+003, 7.372791e-002
2.846417e+003, 7.427916e-002
2.848345e+003, 7.475289e-002
2.850274e+003, 7.411948e-002
2.852202e+003, 7.304316e-002
2.854131e+003, 7.233642e-002
2.856059e+003, 7.295976e-002
2.857988e+003, 7.391698e-002
2.859916e+003, 7.475883e-002
2.861844e+003, 7.481398e-002
2.863773e+003, 7.356013e-002
2.865701e+003, 7.325190e-002
2.867630e+003, 7.339956e-002
2.869558e+003, 7.403804e-002
2.871487e+003, 7.518539e-002
2.873415e+003, 7.473764e-002
2.875344e+003, 7.425747e-002
2.877272e+003, 7.564343e-002
2.879201e+003, 7.583521e-002
2.881129e+003, 7.563204e-002
2.883058e+003, 7.595009e-002
2.884986e+003, 7.560037e-002
2.886915e+003, 7.564694e-002
2.888843e+003, 7.628538e-002
2.890771e+003, 7.702438e-002
2.892700e+003, 7.652403e-002
2.894628e+003, 7.621619e-002
2.896557e+003, 7.535025e-002
2.898485e+003, 7.516429e-002
2.900414e+003, 7.741782e-002
2.902342e+003, 7.807709e-002
2.904271e+003, 7.755014e-002
2.906199e+003, 7.757613e-002
2.908128e+003, 7.877258e-002
2.910056e+003, 7.980508e-002
2.911985e+003, 7.923212e-002
2.913913e+003, 7.906187e-002
2.915842e+003, 8.053513e-002
2.917770e+003, 8.217526e-002
2.919698e+003, 8.315489e-002
2.921627e+003, 8.347694e-002
2.923555e+003, 8.402821e-002
2.925484e+003, 8.287674e-002
2.927412e+003, 8.246607e-002
2.929341e+003, 8.303056e-002
2.931269e+003, 8.378885e-002
2.933198e+003, 8.429278e-002
2.935126e+003, 8.314617e-002
2.937055e+003, 8.276625e-002
2.938983e+003, 8.290238e-002
2.940912e+003, 8.302843e-002
2.942840e+003, 8.297569e-002
2.944769e+003, 8.277553e-002
2.946697e+003, 8.202729e-002
2.948625e+003, 8.076342e-002
2.950554e+003, 8.177479e-002
2.952482e+003, 8.260927e-002
2.954411e+003, 8.191675e-002
2.956339e+003, 8.163906e-002
2.958268e+003, 8.229746e-002
2.960196e+003, 8.268744e-002
2.962125e+003, 8.246315e-002
2.964053e+003, 8.301002e-002
2.965982e+003, 8.361571e-002
2.967910e+003, 8.380859e-002
2.969839e+003, 8.323533e-002
2.971767e+003, 8.259174e-002
2.973696e+003, 8.157027e-002
2.975624e+003, 8.158808e-002
2.977552e+003, 8.135420e-002
2.979481e+003, 8.156125e-002
2.981409e+003, 8.247349e-002
2.983338e+003, 8.245036e-002
2.985266e+003, 8.281729e-002
2.987195e+003, 8.191641e-002
2.989123e+003, 8.143105e-002
2.991052e+003, 8.313479e-002
2.992980e+003, 8.326302e-002
2.994909e+003, 8.281603e-002
2.996837e+003, 8.328129e-002
2.998766e+003, 8.325238e-002
3.000694e+003, 8.323596e-002
3.002623e+003, 8.282948e-002
3.004551e+003, 8.369829e-002
3.006479e+003, 8.499989e-002
3.008408e+003, 8.382698e-002
3.010336e+003, 8.204135e-002
3.012265e+003, 8.264206e-002
3.014193e+003, 8.367760e-002
3.016122e+003, 8.496281e-002
3.018050e+003, 8.478743e-002
3.019979e+003, 8.541689e-002
3.021907e+003, 8.497119e-002
3.023836e+003, 8.486637e-002
3.025764e+003, 8.539201e-002
3.027693e+003, 8.500148e-002
3.029621e+003, 8.545447e-002
3.031550e+003, 8.717133e-002
3.033478e+003, 8.789331e-002
3.035406e+003, 8.711611e-002
3.037335e+003, 8.645549e-002
3.039263e+003, 8.728199e-002
3.041192e+003, 8.743309e-002
3.043120e+003, 8.648862e-002
3.045049e+003, 8.643981e-002
3.046977e+003, 8.686212e-002
3.048906e+003, 8.760326e-002
3.050834e+003, 8.887846e-002
3.052763e+003, 8.747581e-002
3.054691e+003, 8.647713e-002
3.056620e+003, 8.800529e-002
3.058548e+003, 8.875622e-002
3.060477e+003, 8.869813e-002
3.062405e+003, 8.864273e-002
3.064333e+003, 8.985882e-002
3.066262e+003, 9.018388e-002
3.068190e+003, 8.915439e-002
3.070119e+003, 8.974413e-002
3.072047e+003, 9.143835e-002
3.073976e+003, 9.023464e-002
3.075904e+003, 8.852667e-002
3.077833e+003, 9.012299e-002
3.079761e+003, 9.132387e-002
3.081690e+003, 9.134968e-002
3.083618e+003, 9.078761e-002
3.085547e+003, 8.973240e-002
3.087475e+003, 8.994316e-002
3.089404e+003, 9.009195e-002
3.091332e+003, 8.984972e-002
3.093260e+003, 9.085479e-002
3.095189e+003, 9.283619e-002
3.097117e+003, 9.325904e-002
3.099046e+003, 9.348132e-002
3.100974e+003, 9.422042e-002
3.102903e+003, 9.318092e-002
3.104831e+003, 9.288932e-002
3.106760e+003, 9.232935e-002
3.108688e+003, 9.325577e-002
3.110617e+003, 9.437048e-002
3.112545e+003, 9.392335e-002
3.114474e+003, 9.429109e-002
3.116402e+003, 9.461188e-002
3.118331e+003, 9.518488e-002
3.120259e+003, 9.571111e-002
3.122188e+003, 9.630506e-002
3.124116e+003, 9.604239e-002
3.126044e+003, 9.589902e-002
3.127973e+003, 9.640240e-002
3.129901e+003, 9.702752e-002
3.131830e+003, 9.722383e-002
3.133758e+003, 9.890416e-002
3.135687e+003, 9.958950e-002
3.137615e+003, 9.856558e-002
3.139544e+003, 9.878788e-002
3.141472e+003, 9.879070e-002
3.143401e+003, 9.853818e-002
3.145329e+003, 9.844776e-002
3.147258e+003, 9.888328e-002
3.149186e+003, 1.011512e-001
3.151115e+003, 1.022586e-001
3.153043e+003, 1.016816e-001
3.154971e+003, 1.014170e-001
3.156900e+003, 9.992331e-002
3.158828e+003, 9.971475e-002
3.160757e+003, 1.010537e-001
3.162685e+003, 1.020247e-001
3.164614e+003, 1.034029e-001
3.166542e+003, 1.038722e-001
3.168471e+003, 1.064765e-001
3.170399e+003, 1.081776e-001
3.172328e+003, 1.056962e-001
3.174256e+003, 1.062366e-001
3.176185e+003, 1.076967e-001
3.178113e+003, 1.067483e-001
3.180042e+003, 1.058004e-001
3.181970e+003, 1.069944e-001
3.183898e+003, 1.091766e-001
3.185827e+003, 1.088638e-001
3.187755e+003, 1.090041e-001
3.189684e+003, 1.098527e-001
3.191612e+003, 1.105586e-001
3.193541e+003, 1.110598e-001
3.195469e+003, 1.117523e-001
3.197398e+003, 1.131083e-001
3.199326e+003, 1.132243e-001
3.201255e+003, 1.118933e-001
3.203183e+003, 1.121739e-001
3.205112e+003, 1.128267e-001
3.207040e+003, 1.129673e-001
3.208969e+003, 1.125804e-001
3.210897e+003, 1.133690e-001
3.212825e+003, 1.143695e-001
3.214754e+003, 1.155558e-001
3.216682e+003, 1.160817e-001
3.218611e+003, 1.162103e-001
3.220539e+003, 1.173442e-001
3.222468e+003, 1.192853e-001
3.224396e+003, 1.184473e-001
3.226325e+003, 1.176976e-001
3.228253e+003, 1.175423e-001
3.230182e+003, 1.190373e-001
3.232110e+003, 1.195902e-001
3.234039e+003, 1.201623e-001
3.235967e+003, 1.219548e-001
3.237896e+003, 1.227850e-001
3.239824e+003, 1.229512e-001
3.241752e+003, 1.233120e-001
3.243681e+003, 1.232910e-001
3.245609e+003, 1.242895e-001
3.247538e+003, 1.262811e-001
3.249466e+003, 1.267724e-001
3.251395e+003, 1.272968e-001
3.253323e+003, 1.262787e-001
3.255252e+003, 1.269968e-001
3.257180e+003, 1.281914e-001
3.259109e+003, 1.277727e-001
3.261037e+003, 1.293089e-001
3.262966e+003, 1.303652e-001
3.264894e+003, 1.324554e-001
3.266823e+003, 1.344592e-001
3.268751e+003, 1.348495e-001
3.270679e+003, 1.356983e-001
3.272608e+003, 1.376044e-001
3.274536e+003, 1.385200e-001
3.276465e+003, 1.376072e-001
3.278393e+003, 1.375814e-001
3.280322e+003, 1.393880e-001
3.282250e+003, 1.422568e-001
3.284179e+003, 1.443699e-001
3.286107e+003, 1.446012e-001
3.288036e+003, 1.435328e-001
3.289964e+003, 1.451303e-001
3.291893e+003, 1.465080e-001
3.293821e+003, 1.470151e-001
3.295750e+003, 1.477450e-001
3.297678e+003, 1.503773e-001
3.299606e+003, 1.517703e-001
3.301535e+003, 1.494480e-001
3.303463e+003, 1.494209e-001
3.305392e+003, 1.521733e-001
3.307320e+003, 1.530940e-001
3.309249e+003, 1.528355e-001
3.311177e+003, 1.542623e-001
3.313106e+003, 1.536525e-001
3.315034e+003, 1.523529e-001
3.316963e+003, 1.536296e-001
3.318891e+003, 1.559964e-001
3.320820e+003, 1.556641e-001
3.322748e+003, 1.550916e-001
3.324677e+003, 1.573341e-001
3.326605e+003, 1.589557e-001
3.328533e+003, 1.584643e-001
3.330462e+003, 1.583736e-001
3.332390e+003, 1.571093e-001
3.334319e+003, 1.564223e-001
3.336247e+003, 1.594885e-001
3.338176e+003, 1.594598e-001
3.340104e+003, 1.587025e-001
3.342033e+003, 1.602959e-001
3.343961e+003, 1.610520e-001
3.345890e+003, 1.600984e-001
3.347818e+003, 1.608448e-001
3.349747e+003, 1.637845e-001
3.351675e+003, 1.642363e-001
3.353604e+003, 1.607389e-001
3.355532e+003, 1.597584e-001
3.357460e+003, 1.594886e-001
3.359389e+003, 1.590353e-001
3.361317e+003, 1.606550e-001
3.363246e+003, 1.600025e-001
3.365174e+003, 1.587513e-001
3.367103e+003, 1.607308e-001
3.369031e+003, 1.614110e-001
3.370960e+003, 1.601435e-001
3.372888e+003, 1.593464e-001
3.374817e+003, 1.581926e-001
3.376745e+003, 1.568663e-001
3.378674e+003, 1.561497e-001
3.380602e+003, 1.585285e-001
3.382531e+003, 1.609392e-001
3.384459e+003, 1.609288e-001
3.386387e+003, 1.600084e-001
3.388316e+003, 1.602650e-001
3.390244e+003, 1.604157e-001
3.392173e+003, 1.606355e-001
3.394101e+003, 1.581042e-001
3.396030e+003, 1.578955e-001
3.397958e+003, 1.583267e-001
3.399887e+003, 1.561605e-001
3.401815e+003, 1.559689e-001
3.403744e+003, 1.579531e-001
3.405672e+003, 1.578461e-001
3.407601e+003, 1.560970e-001
3.409529e+003, 1.530897e-001
3.411458e+003, 1.506977e-001
3.413386e+003, 1.525020e-001
3.415314e+003, 1.545097e-001
3.417243e+003, 1.537468e-001
3.419171e+003, 1.532494e-001
3.421100e+003, 1.544470e-001
3.423028e+003, 1.549937e-001
3.424957e+003, 1.548222e-001
3.426885e+003, 1.531289e-001
3.428814e+003, 1.516118e-001
3.430742e+003, 1.508864e-001
3.432671e+003, 1.499743e-001
3.434599e+003, 1.513906e-001
3.436528e+003, 1.518039e-001
3.438456e+003, 1.531094e-001
3.440385e+003, 1.538463e-001
3.442313e+003, 1.551613e-001
3.444241e+003, 1.546745e-001
3.446170e+003, 1.526854e-001
3.448098e+003, 1.530901e-001
3.450027e+003, 1.550955e-001
3.451955e+003, 1.574034e-001
3.453884e+003, 1.585570e-001
3.455812e+003, 1.595343e-001
3.457741e+003, 1.595725e-001
3.459669e+003, 1.589453e-001
3.461598e+003, 1.613663e-001
3.463526e+003, 1.630448e-001
3.465455e+003, 1.628333e-001
3.467383e+003, 1.647262e-001
3.469312e+003, 1.661121e-001
3.471240e+003, 1.659231e-001
3.473168e+003, 1.662063e-001
3.475097e+003, 1.681240e-001
3.477025e+003, 1.674667e-001
3.478954e+003, 1.641201e-001
3.480882e+003, 1.603287e-001
3.482811e+003, 1.569546e-001
3.484739e+003, 1.522618e-001
3.486668e+003, 1.481959e-001
3.488596e+003, 1.474301e-001
3.490525e+003, 1.449627e-001
3.492453e+003, 1.391041e-001
3.494382e+003, 1.338526e-001
3.496310e+003, 1.257965e-001
3.498239e+003, 1.212264e-001
3.500167e+003, 1.178546e-001
3.502095e+003, 1.118810e-001
3.504024e+003, 1.075515e-001
3.505952e+003, 1.060526e-001
3.507881e+003, 1.039692e-001
3.509809e+003, 1.017971e-001
3.511738e+003, 9.953840e-002
3.513666e+003, 9.701657e-002
3.515595e+003, 9.767805e-002
3.517523e+003, 9.625279e-002
3.519452e+003, 9.199243e-002
3.521380e+003, 9.037881e-002
3.523309e+003, 8.976760e-002
3.525237e+003, 8.859716e-002
3.527166e+003, 8.941160e-002
3.529094e+003, 8.805355e-002
3.531022e+003, 8.451047e-002
3.532951e+003, 8.414230e-002
3.534879e+003, 8.423278e-002
3.536808e+003, 8.480385e-002
3.538736e+003, 8.526859e-002
3.540665e+003, 8.293777e-002
3.542593e+003, 8.040197e-002
3.544522e+003, 8.139392e-002
3.546450e+003, 8.398436e-002
3.548379e+003, 8.142572e-002
3.550307e+003, 7.917411e-002
3.552236e+003, 8.064884e-002
3.554164e+003, 8.269900e-002
3.556093e+003, 8.161664e-002
3.558021e+003, 7.937939e-002
3.559949e+003, 7.892282e-002
3.561878e+003, 7.817760e-002
3.563806e+003, 7.881822e-002
3.565735e+003, 7.859360e-002
3.567663e+003, 7.659214e-002
3.569592e+003, 7.749820e-002
3.571520e+003, 8.110650e-002
3.573449e+003, 8.195756e-002
3.575377e+003, 8.059940e-002
3.577306e+003, 8.111774e-002
3.579234e+003, 8.038434e-002
3.581163e+003, 7.880232e-002
3.583091e+003, 7.997920e-002
3.585020e+003, 8.052741e-002
3.586948e+003, 7.877136e-002
3.588876e+003, 7.745779e-002
3.590805e+003, 7.703933e-002
3.592733e+003, 7.955279e-002
3.594662e+003, 8.085161e-002
3.596590e+003, 8.045052e-002
3.598519e+003, 8.050621e-002
3.600447e+003, 7.906492e-002
3.602376e+003, 7.725271e-002
3.604304e+003, 7.599311e-002
3.606233e+003, 7.633332e-002
3.608161e+003, 7.860693e-002
3.610090e+003, 8.172415e-002
3.612018e+003, 8.022579e-002
3.613947e+003, 8.079690e-002
3.615875e+003, 8.179440e-002
3.617803e+003, 8.162779e-002
3.619732e+003, 8.155722e-002
3.621660e+003, 8.079880e-002
3.623589e+003, 8.064328e-002
3.625517e+003, 8.194938e-002
3.627446e+003, 8.144521e-002
3.629374e+003, 7.813987e-002
3.631303e+003, 7.738506e-002
3.633231e+003, 8.010373e-002
3.635160e+003, 7.943588e-002
3.637088e+003, 7.800256e-002
3.639017e+003, 8.021314e-002
3.640945e+003, 8.335770e-002
3.642874e+003, 8.269496e-002
3.644802e+003, 8.154153e-002
3.646730e+003, 7.974642e-002
3.648659e+003, 7.727236e-002
3.650587e+003, 8.038217e-002
3.652516e+003, 8.194960e-002
3.654444e+003, 7.956012e-002
3.656373e+003, 7.902417e-002
3.658301e+003, 8.044337e-002
3.660230e+003, 8.332998e-002
3.662158e+003, 8.297727e-002
3.664087e+003, 8.072744e-002
3.666015e+003, 7.820147e-002
3.667944e+003, 7.733590e-002
3.669872e+003, 8.042116e-002
3.671801e+003, 8.380252e-002
3.673729e+003, 8.313236e-002
3.675657e+003, 8.107653e-002
3.677586e+003, 8.252171e-002
3.679514e+003, 8.581325e-002
3.681443e+003, 8.544731e-002
3.683371e+003, 8.311463e-002
3.685300e+003, 8.081690e-002
3.687228e+003, 7.982370e-002
3.689157e+003, 8.240450e-002
3.691085e+003, 8.398385e-002
3.693014e+003, 8.549555e-002
3.694942e+003, 8.571995e-002
3.696871e+003, 8.628267e-002
3.698799e+003, 8.670198e-002
3.700728e+003, 8.765856e-002
3.702656e+003, 8.741716e-002
3.704584e+003, 8.666374e-002
3.706513e+003, 8.502572e-002
3.708441e+003, 8.369872e-002
3.710370e+003, 8.246862e-002
3.712298e+003, 7.915866e-002
3.714227e+003, 8.054969e-002
3.716155e+003, 8.169391e-002
3.718084e+003, 8.284794e-002
3.720012e+003, 8.434097e-002
3.721941e+003, 8.290312e-002
3.723869e+003, 8.316272e-002
3.725798e+003, 8.305945e-002
3.727726e+003, 8.386858e-002
3.729655e+003, 8.278344e-002
3.731583e+003, 8.319768e-002
3.733511e+003, 8.503092e-002
3.735440e+003, 8.522850e-002
3.737368e+003, 8.564542e-002
3.739297e+003, 8.549488e-002
3.741225e+003, 8.490317e-002
3.743154e+003, 8.199443e-002
3.745082e+003, 8.290061e-002
3.747011e+003, 8.718044e-002
3.748939e+003, 8.713868e-002
3.750868e+003, 8.427065e-002
3.752796e+003, 8.221206e-002
3.754725e+003, 8.325545e-002
3.756653e+003, 8.280078e-002
3.758582e+003, 8.521136e-002
3.760510e+003, 8.836645e-002
3.762438e+003, 8.647266e-002
3.764367e+003, 8.444259e-002
3.766295e+003, 8.375723e-002
3.768224e+003, 8.281991e-002
3.770152e+003, 8.490758e-002
3.772081e+003, 8.764479e-002
3.774009e+003, 8.648785e-002
3.775938e+003, 8.723451e-002
3.777866e+003, 9.010994e-002
3.779795e+003, 8.996198e-002
3.781723e+003, 8.763897e-002
3.783652e+003, 8.847371e-002
3.785580e+003, 8.802051e-002
3.787509e+003, 9.010448e-002
3.789437e+003, 9.317389e-002
3.791365e+003, 9.376100e-002
3.793294e+003, 9.076209e-002
3.795222e+003, 9.149879e-002
3.797151e+003, 9.020641e-002
3.799079e+003, 8.872155e-002
3.801008e+003, 9.024231e-002
3.802936e+003, 9.104593e-002
3.804865e+003, 8.962086e-002
3.806793e+003, 8.838174e-002
3.808722e+003, 8.681352e-002
3.810650e+003, 8.545916e-002
3.812579e+003, 8.479967e-002
3.814507e+003, 8.716519e-002
3.816436e+003, 9.090284e-002
3.818364e+003, 8.887943e-002
3.820292e+003, 8.569539e-002
3.822221e+003, 8.674981e-002
3.824149e+003, 8.912412e-002
3.826078e+003, 8.823366e-002
3.828006e+003, 8.801747e-002
3.829935e+003, 8.775329e-002
3.831863e+003, 8.497350e-002
3.833792e+003, 8.256458e-002
3.835720e+003, 8.494468e-002
3.837649e+003, 8.790604e-002
3.839577e+003, 8.820276e-002
3.841506e+003, 8.797762e-002
3.843434e+003, 8.846390e-002
3.845363e+003, 8.563426e-002
3.847291e+003, 8.638208e-002
3.849219e+003, 9.131810e-002
3.851148e+003, 9.025522e-002
3.853076e+003, 8.969295e-002
3.855005e+003, 9.068429e-002
3.856933e+003, 8.906908e-002
3.858862e+003, 8.665952e-002
3.860790e+003, 8.458622e-002
3.862719e+003, 8.420207e-002
3.864647e+003, 8.732164e-002
3.866576e+003, 8.737249e-002
3.868504e+003, 8.728214e-002
3.870433e+003, 8.862510e-002
3.872361e+003, 8.893789e-002
3.874290e+003, 9.096042e-002
3.876218e+003, 9.089766e-002
3.878146e+003, 9.039856e-002
3.880075e+003, 9.160902e-002
3.882003e+003, 9.049253e-002
3.883932e+003, 9.028915e-002
3.885860e+003, 9.018389e-002
3.887789e+003, 8.915980e-002
3.889717e+003, 9.010075e-002
3.891646e+003, 8.785302e-002
3.893574e+003, 8.765332e-002
3.895503e+003, 8.787511e-002
3.897431e+003, 8.540745e-002
3.899360e+003, 8.468851e-002
3.901288e+003, 8.533645e-002
3.903217e+003, 8.703386e-002
3.905145e+003, 8.997872e-002
3.907073e+003, 9.033564e-002
3.909002e+003, 9.082016e-002
3.910930e+003, 9.136525e-002
3.912859e+003, 8.988018e-002
3.914787e+003, 8.783173e-002
3.916716e+003, 9.181993e-002
3.918644e+003, 9.109528e-002
3.920573e+003, 8.772243e-002
3.922501e+003, 8.767130e-002
3.924430e+003, 8.747088e-002
3.926358e+003, 8.923327e-002
3.928287e+003, 8.982334e-002
3.930215e+003, 8.881837e-002
3.932144e+003, 8.910380e-002
3.934072e+003, 8.730052e-002
3.936000e+003, 8.624291e-002
3.937929e+003, 8.696145e-002
3.939857e+003, 8.713685e-002
3.941786e+003, 8.672660e-002
3.943714e+003, 8.919873e-002
3.945643e+003, 9.157409e-002
3.947571e+003, 8.914611e-002
3.949500e+003, 8.644263e-002
3.951428e+003, 8.550763e-002
3.953357e+003, 8.887210e-002
3.955285e+003, 8.973658e-002
3.957214e+003, 8.869523e-002
3.959142e+003, 8.909114e-002
3.961071e+003, 8.856195e-002
3.962999e+003, 8.779721e-002
3.964927e+003, 8.940799e-002
3.966856e+003, 9.013704e-002
3.968784e+003, 9.125410e-002
3.970713e+003, 9.167886e-002
3.972641e+003, 8.937412e-002
3.974570e+003, 8.983503e-002
3.976498e+003, 9.130283e-002
3.978427e+003, 9.336750e-002
3.980355e+003, 9.514286e-002
3.982284e+003, 9.355663e-002
3.984212e+003, 9.294502e-002
3.986141e+003, 9.334794e-002
3.988069e+003, 9.418669e-002
3.989998e+003, 9.151034e-002
3.991926e+003, 9.044427e-002
3.993854e+003, 9.377273e-002
3.995783e+003, 9.499455e-002
3.997711e+003, 9.008740e-002
3.999640e+003, 8.888358e-002
4.001568e+003, 0.000000e+000
##END=



