##NAMES=Leucite
##RRUFFID=R040107
##IDEAL CHEMISTRY=K(Si_2_Al)O_6_
##LOCALITY=Roccamonfina, Italy
##OWNER=RRUFF
##SOURCE=University of Arizona Mineral Museum
##DESCRIPTION=Rounded colorless crystals embedded in an ash matrix
##STATUS=The identification of this mineral has been confirmed by X-ray diffraction and chemical analysis
##URL=rruff.info/R040107
##MEASURED CHEMISTRY=(K_0.95_Na_0.03_)Al_0.99_Si_2.01_O_6_
3.991926e+002, 0.000000e+000
4.011211e+002, 2.502937e-001
4.030496e+002, 2.515034e-001
4.049780e+002, 2.475953e-001
4.069065e+002, 2.450156e-001
4.088350e+002, 2.530057e-001
4.107634e+002, 2.604229e-001
4.126919e+002, 2.586312e-001
4.146204e+002, 2.579600e-001
4.165488e+002, 2.608475e-001
4.184773e+002, 2.596466e-001
4.204058e+002, 2.578726e-001
4.223342e+002, 2.566583e-001
4.242627e+002, 2.559244e-001
4.261912e+002, 2.526135e-001
4.281196e+002, 2.477673e-001
4.300481e+002, 2.434227e-001
4.319766e+002, 2.335191e-001
4.339050e+002, 2.237321e-001
4.358335e+002, 2.144208e-001
4.377620e+002, 2.039714e-001
4.396904e+002, 1.937287e-001
4.416189e+002, 1.820773e-001
4.435474e+002, 1.695984e-001
4.454758e+002, 1.599640e-001
4.474043e+002, 1.504959e-001
4.493328e+002, 1.415590e-001
4.512612e+002, 1.331416e-001
4.531897e+002, 1.254994e-001
4.551182e+002, 1.193118e-001
4.570466e+002, 1.146978e-001
4.589751e+002, 1.116237e-001
4.609036e+002, 1.098639e-001
4.628320e+002, 1.078016e-001
4.647605e+002, 1.047288e-001
4.666890e+002, 1.003991e-001
4.686174e+002, 9.634914e-002
4.705459e+002, 9.231930e-002
4.724744e+002, 8.861936e-002
4.744028e+002, 8.648477e-002
4.763313e+002, 8.362457e-002
4.782598e+002, 8.184762e-002
4.801882e+002, 8.121134e-002
4.821167e+002, 7.958096e-002
4.840452e+002, 7.647848e-002
4.859736e+002, 7.185391e-002
4.879021e+002, 6.611706e-002
4.898306e+002, 6.033197e-002
4.917590e+002, 5.486881e-002
4.936875e+002, 4.974224e-002
4.956160e+002, 4.614070e-002
4.975444e+002, 4.365911e-002
4.994729e+002, 4.070431e-002
5.014014e+002, 3.803556e-002
5.033298e+002, 3.676920e-002
5.052583e+002, 3.586583e-002
5.071868e+002, 3.570542e-002
5.091152e+002, 3.620134e-002
5.110437e+002, 3.744239e-002
5.129722e+002, 3.949649e-002
5.149006e+002, 4.126242e-002
5.168291e+002, 4.246296e-002
5.187576e+002, 4.334557e-002
5.206860e+002, 4.371164e-002
5.226145e+002, 4.289700e-002
5.245430e+002, 4.122890e-002
5.264714e+002, 3.937265e-002
5.283999e+002, 3.827742e-002
5.303284e+002, 3.858736e-002
5.322568e+002, 4.022490e-002
5.341853e+002, 4.356058e-002
5.361138e+002, 4.778047e-002
5.380422e+002, 5.174215e-002
5.399707e+002, 5.355207e-002
5.418992e+002, 5.166506e-002
5.438276e+002, 4.680174e-002
5.457561e+002, 4.100430e-002
5.476846e+002, 3.612483e-002
5.496130e+002, 3.265868e-002
5.515415e+002, 2.991483e-002
5.534700e+002, 2.817040e-002
5.553984e+002, 2.737250e-002
5.573269e+002, 2.695728e-002
5.592554e+002, 2.649757e-002
5.611838e+002, 2.644647e-002
5.631123e+002, 2.646969e-002
5.650408e+002, 2.677945e-002
5.669692e+002, 2.723811e-002
5.688977e+002, 2.765028e-002
5.708262e+002, 2.811086e-002
5.727546e+002, 2.850041e-002
5.746831e+002, 2.937661e-002
5.766116e+002, 3.082586e-002
5.785400e+002, 3.197948e-002
5.804685e+002, 3.314343e-002
5.823970e+002, 3.466883e-002
5.843254e+002, 3.605625e-002
5.862539e+002, 3.769546e-002
5.881824e+002, 3.949732e-002
5.901108e+002, 4.161253e-002
5.920393e+002, 4.381689e-002
5.939678e+002, 4.595680e-002
5.958962e+002, 4.866888e-002
5.978247e+002, 5.198243e-002
5.997532e+002, 5.540603e-002
6.016816e+002, 5.902555e-002
6.036101e+002, 6.231458e-002
6.055386e+002, 6.429987e-002
6.074670e+002, 6.417373e-002
6.093955e+002, 6.314947e-002
6.113240e+002, 6.186053e-002
6.132524e+002, 6.106150e-002
6.151809e+002, 6.071832e-002
6.171094e+002, 6.109685e-002
6.190378e+002, 6.224574e-002
6.209663e+002, 6.438576e-002
6.228948e+002, 6.722802e-002
6.248232e+002, 7.058188e-002
6.267517e+002, 7.469848e-002
6.286802e+002, 7.918578e-002
6.306086e+002, 8.444840e-002
6.325371e+002, 8.954873e-002
6.344656e+002, 9.315902e-002
6.363940e+002, 9.491722e-002
6.383225e+002, 9.362568e-002
6.402510e+002, 8.890073e-002
6.421794e+002, 8.224960e-002
6.441079e+002, 7.493693e-002
6.460364e+002, 6.793116e-002
6.479648e+002, 6.226368e-002
6.498933e+002, 5.842879e-002
6.518218e+002, 5.626095e-002
6.537502e+002, 5.512419e-002
6.556787e+002, 5.443674e-002
6.576072e+002, 5.437440e-002
6.595356e+002, 5.516673e-002
6.614641e+002, 5.663371e-002
6.633926e+002, 5.822460e-002
6.653210e+002, 5.998478e-002
6.672495e+002, 6.268857e-002
6.691780e+002, 6.559007e-002
6.711064e+002, 6.835253e-002
6.730349e+002, 7.164082e-002
6.749634e+002, 7.518447e-002
6.768918e+002, 7.925057e-002
6.788203e+002, 8.355754e-002
6.807488e+002, 8.822992e-002
6.826772e+002, 9.319359e-002
6.846057e+002, 9.866099e-002
6.865342e+002, 1.044653e-001
6.884626e+002, 1.106950e-001
6.903911e+002, 1.172719e-001
6.923196e+002, 1.235497e-001
6.942480e+002, 1.289688e-001
6.961765e+002, 1.336671e-001
6.981050e+002, 1.377294e-001
7.000334e+002, 1.409512e-001
7.019619e+002, 1.440279e-001
7.038904e+002, 1.471627e-001
7.058188e+002, 1.500444e-001
7.077473e+002, 1.529994e-001
7.096758e+002, 1.555978e-001
7.116042e+002, 1.576035e-001
7.135327e+002, 1.581757e-001
7.154612e+002, 1.572866e-001
7.173896e+002, 1.560167e-001
7.193181e+002, 1.542724e-001
7.212466e+002, 1.516284e-001
7.231750e+002, 1.488594e-001
7.251035e+002, 1.464548e-001
7.270320e+002, 1.437193e-001
7.289604e+002, 1.409228e-001
7.308889e+002, 1.385450e-001
7.328174e+002, 1.365689e-001
7.347458e+002, 1.347214e-001
7.366743e+002, 1.329048e-001
7.386028e+002, 1.313975e-001
7.405313e+002, 1.297819e-001
7.424597e+002, 1.278255e-001
7.443882e+002, 1.253587e-001
7.463167e+002, 1.225465e-001
7.482451e+002, 1.197359e-001
7.501736e+002, 1.171052e-001
7.521021e+002, 1.146902e-001
7.540305e+002, 1.127478e-001
7.559590e+002, 1.112365e-001
7.578875e+002, 1.101120e-001
7.598159e+002, 1.091348e-001
7.617444e+002, 1.080251e-001
7.636729e+002, 1.067032e-001
7.656013e+002, 1.048909e-001
7.675298e+002, 1.025486e-001
7.694583e+002, 9.984845e-002
7.713867e+002, 9.692200e-002
7.733152e+002, 9.352493e-002
7.752437e+002, 8.969045e-002
7.771721e+002, 8.549982e-002
7.791006e+002, 8.098555e-002
7.810291e+002, 7.644629e-002
7.829575e+002, 7.196524e-002
7.848860e+002, 6.722315e-002
7.868145e+002, 6.257649e-002
7.887429e+002, 5.805762e-002
7.906714e+002, 5.358643e-002
7.925999e+002, 4.954056e-002
7.945283e+002, 4.590634e-002
7.964568e+002, 4.272740e-002
7.983853e+002, 4.030339e-002
8.003137e+002, 3.809807e-002
8.022422e+002, 3.596111e-002
8.041707e+002, 3.399400e-002
8.060991e+002, 3.262132e-002
8.080276e+002, 3.172300e-002
8.099561e+002, 3.089777e-002
8.118845e+002, 3.076544e-002
8.138130e+002, 3.107870e-002
8.157415e+002, 3.126935e-002
8.176699e+002, 3.158267e-002
8.195984e+002, 3.235006e-002
8.215269e+002, 3.326426e-002
8.234553e+002, 3.356765e-002
8.253838e+002, 3.312641e-002
8.273123e+002, 3.212390e-002
8.292407e+002, 3.084038e-002
8.311692e+002, 2.962967e-002
8.330977e+002, 2.858522e-002
8.350261e+002, 2.808476e-002
8.369546e+002, 2.824687e-002
8.388831e+002, 2.848738e-002
8.408115e+002, 2.876827e-002
8.427400e+002, 2.943174e-002
8.446685e+002, 3.036903e-002
8.465969e+002, 3.139081e-002
8.485254e+002, 3.263813e-002
8.504539e+002, 3.384141e-002
8.523823e+002, 3.504747e-002
8.543108e+002, 3.638714e-002
8.562393e+002, 3.798665e-002
8.581677e+002, 3.949324e-002
8.600962e+002, 4.099808e-002
8.620247e+002, 4.296170e-002
8.639531e+002, 4.505378e-002
8.658816e+002, 4.704911e-002
8.678101e+002, 4.919647e-002
8.697385e+002, 5.160750e-002
8.716670e+002, 5.428693e-002
8.735955e+002, 5.725588e-002
8.755239e+002, 6.043386e-002
8.774524e+002, 6.377255e-002
8.793809e+002, 6.721455e-002
8.813093e+002, 7.100129e-002
8.832378e+002, 7.521132e-002
8.851663e+002, 7.957989e-002
8.870947e+002, 8.416403e-002
8.890232e+002, 8.870051e-002
8.909517e+002, 9.328636e-002
8.928801e+002, 9.801569e-002
8.948085e+002, 1.029645e-001
8.967370e+002, 1.080361e-001
8.986655e+002, 1.132928e-001
9.005939e+002, 1.190185e-001
9.025224e+002, 1.252191e-001
9.044509e+002, 1.317959e-001
9.063793e+002, 1.387722e-001
9.083078e+002, 1.464119e-001
9.102363e+002, 1.543772e-001
9.121647e+002, 1.631424e-001
9.140932e+002, 1.722864e-001
9.160217e+002, 1.817270e-001
9.179501e+002, 1.919373e-001
9.198786e+002, 2.027981e-001
9.218071e+002, 2.146186e-001
9.237355e+002, 2.273280e-001
9.256640e+002, 2.406335e-001
9.275925e+002, 2.545315e-001
9.295209e+002, 2.690820e-001
9.314494e+002, 2.844570e-001
9.333779e+002, 3.006710e-001
9.353063e+002, 3.170830e-001
9.372348e+002, 3.337311e-001
9.391633e+002, 3.501983e-001
9.410917e+002, 3.653768e-001
9.430202e+002, 3.780796e-001
9.449487e+002, 3.881936e-001
9.468771e+002, 3.956826e-001
9.488056e+002, 4.000677e-001
9.507341e+002, 4.018255e-001
9.526625e+002, 4.022363e-001
9.545910e+002, 4.019409e-001
9.565195e+002, 4.012365e-001
9.584479e+002, 3.995132e-001
9.603764e+002, 3.968520e-001
9.623049e+002, 3.931893e-001
9.642333e+002, 3.894579e-001
9.661618e+002, 3.856919e-001
9.680903e+002, 3.817400e-001
9.700187e+002, 3.782032e-001
9.719472e+002, 3.755536e-001
9.738757e+002, 3.731786e-001
9.758041e+002, 3.709992e-001
9.777326e+002, 3.688232e-001
9.796611e+002, 3.672316e-001
9.815895e+002, 3.658506e-001
9.835180e+002, 3.641649e-001
9.854465e+002, 3.623435e-001
9.873749e+002, 3.602790e-001
9.893034e+002, 3.582860e-001
9.912319e+002, 3.559588e-001
9.931603e+002, 3.529381e-001
9.950888e+002, 3.496894e-001
9.970173e+002, 3.462950e-001
9.989457e+002, 3.428518e-001
1.000874e+003, 3.392874e-001
1.002803e+003, 3.358970e-001
1.004731e+003, 3.325236e-001
1.006660e+003, 3.293377e-001
1.008588e+003, 3.262798e-001
1.010517e+003, 3.232941e-001
1.012445e+003, 3.204222e-001
1.014373e+003, 3.176249e-001
1.016302e+003, 3.145760e-001
1.018230e+003, 3.109421e-001
1.020159e+003, 3.069550e-001
1.022087e+003, 3.030263e-001
1.024016e+003, 2.987807e-001
1.025944e+003, 2.940375e-001
1.027873e+003, 2.891499e-001
1.029801e+003, 2.842305e-001
1.031730e+003, 2.795308e-001
1.033658e+003, 2.745795e-001
1.035587e+003, 2.695101e-001
1.037515e+003, 2.641875e-001
1.039444e+003, 2.586753e-001
1.041372e+003, 2.530898e-001
1.043301e+003, 2.474483e-001
1.045229e+003, 2.419062e-001
1.047157e+003, 2.364603e-001
1.049086e+003, 2.311049e-001
1.051014e+003, 2.256462e-001
1.052943e+003, 2.198748e-001
1.054871e+003, 2.139954e-001
1.056800e+003, 2.082513e-001
1.058728e+003, 2.023634e-001
1.060657e+003, 1.962238e-001
1.062585e+003, 1.896039e-001
1.064514e+003, 1.827319e-001
1.066442e+003, 1.761160e-001
1.068371e+003, 1.698815e-001
1.070299e+003, 1.637836e-001
1.072228e+003, 1.579264e-001
1.074156e+003, 1.526219e-001
1.076084e+003, 1.480314e-001
1.078013e+003, 1.436653e-001
1.079941e+003, 1.398585e-001
1.081870e+003, 1.364814e-001
1.083798e+003, 1.333663e-001
1.085727e+003, 1.308221e-001
1.087655e+003, 1.286555e-001
1.089584e+003, 1.267315e-001
1.091512e+003, 1.249536e-001
1.093441e+003, 1.231487e-001
1.095369e+003, 1.215033e-001
1.097298e+003, 1.200275e-001
1.099226e+003, 1.182922e-001
1.101155e+003, 1.161959e-001
1.103083e+003, 1.142790e-001
1.105011e+003, 1.123636e-001
1.106940e+003, 1.103178e-001
1.108868e+003, 1.081244e-001
1.110797e+003, 1.060270e-001
1.112725e+003, 1.037813e-001
1.114654e+003, 1.013652e-001
1.116582e+003, 9.906513e-002
1.118511e+003, 9.683092e-002
1.120439e+003, 9.443710e-002
1.122368e+003, 9.179439e-002
1.124296e+003, 8.925958e-002
1.126225e+003, 8.666711e-002
1.128153e+003, 8.383032e-002
1.130082e+003, 8.114425e-002
1.132010e+003, 7.845657e-002
1.133938e+003, 7.574872e-002
1.135867e+003, 7.304483e-002
1.137795e+003, 7.032730e-002
1.139724e+003, 6.768946e-002
1.141652e+003, 6.496714e-002
1.143581e+003, 6.231184e-002
1.145509e+003, 5.960544e-002
1.147438e+003, 5.699421e-002
1.149366e+003, 5.455545e-002
1.151295e+003, 5.226273e-002
1.153223e+003, 4.984600e-002
1.155152e+003, 4.722051e-002
1.157080e+003, 4.477180e-002
1.159009e+003, 4.244890e-002
1.160937e+003, 4.018869e-002
1.162865e+003, 3.819833e-002
1.164794e+003, 3.614874e-002
1.166722e+003, 3.398225e-002
1.168651e+003, 3.192568e-002
1.170579e+003, 3.002022e-002
1.172508e+003, 2.815576e-002
1.174436e+003, 2.629040e-002
1.176365e+003, 2.451301e-002
1.178293e+003, 2.300478e-002
1.180222e+003, 2.169028e-002
1.182150e+003, 2.056259e-002
1.184079e+003, 1.950440e-002
1.186007e+003, 1.834002e-002
1.187936e+003, 1.719052e-002
1.189864e+003, 1.634729e-002
1.191792e+003, 1.554219e-002
1.193721e+003, 1.474492e-002
1.195649e+003, 1.421862e-002
1.197578e+003, 1.363333e-002
1.199506e+003, 1.283528e-002
1.201435e+003, 1.207207e-002
1.203363e+003, 1.170320e-002
1.205292e+003, 1.130384e-002
1.207220e+003, 1.087771e-002
1.209149e+003, 1.050820e-002
1.211077e+003, 1.009373e-002
1.213006e+003, 9.548564e-003
1.214934e+003, 9.026538e-003
1.216863e+003, 8.639200e-003
1.218791e+003, 8.325711e-003
1.220719e+003, 8.005273e-003
1.222648e+003, 7.678277e-003
1.224576e+003, 7.273091e-003
1.226505e+003, 7.074066e-003
1.228433e+003, 6.838590e-003
1.230362e+003, 6.562588e-003
1.232290e+003, 6.427810e-003
1.234219e+003, 6.268411e-003
1.236147e+003, 5.975657e-003
1.238076e+003, 5.706465e-003
1.240004e+003, 5.689071e-003
1.241933e+003, 5.587726e-003
1.243861e+003, 5.326667e-003
1.245790e+003, 5.154688e-003
1.247718e+003, 5.037931e-003
1.249646e+003, 4.899894e-003
1.251575e+003, 4.752277e-003
1.253503e+003, 4.505172e-003
1.255432e+003, 4.421924e-003
1.257360e+003, 4.426138e-003
1.259289e+003, 4.257365e-003
1.261217e+003, 4.092468e-003
1.263146e+003, 4.049777e-003
1.265074e+003, 4.019917e-003
1.267003e+003, 3.781782e-003
1.268931e+003, 3.902203e-003
1.270860e+003, 3.903587e-003
1.272788e+003, 3.605482e-003
1.274717e+003, 3.481461e-003
1.276645e+003, 3.502685e-003
1.278573e+003, 3.571225e-003
1.280502e+003, 3.410173e-003
1.282430e+003, 3.162089e-003
1.284359e+003, 3.187660e-003
1.286287e+003, 3.198787e-003
1.288216e+003, 3.255055e-003
1.290144e+003, 3.342945e-003
1.292073e+003, 3.246780e-003
1.294001e+003, 3.112646e-003
1.295930e+003, 3.104141e-003
1.297858e+003, 3.116848e-003
1.299787e+003, 3.050498e-003
1.301715e+003, 3.181330e-003
1.303644e+003, 3.185598e-003
1.305572e+003, 3.053342e-003
1.307500e+003, 3.054227e-003
1.309429e+003, 2.992218e-003
1.311357e+003, 2.936405e-003
1.313286e+003, 2.981801e-003
1.315214e+003, 2.963658e-003
1.317143e+003, 2.892749e-003
1.319071e+003, 2.851637e-003
1.321000e+003, 2.850477e-003
1.322928e+003, 2.946147e-003
1.324857e+003, 3.043712e-003
1.326785e+003, 3.160379e-003
1.328714e+003, 3.192085e-003
1.330642e+003, 3.142242e-003
1.332571e+003, 3.021701e-003
1.334499e+003, 2.973914e-003
1.336427e+003, 2.886054e-003
1.338356e+003, 2.952915e-003
1.340284e+003, 3.041688e-003
1.342213e+003, 3.099466e-003
1.344141e+003, 3.193311e-003
1.346070e+003, 3.097942e-003
1.347998e+003, 2.992908e-003
1.349927e+003, 3.003773e-003
1.351855e+003, 2.964018e-003
1.353784e+003, 2.944269e-003
1.355712e+003, 2.734188e-003
1.357641e+003, 2.637733e-003
1.359569e+003, 2.836064e-003
1.361498e+003, 2.939963e-003
1.363426e+003, 2.902161e-003
1.365354e+003, 2.860813e-003
1.367283e+003, 2.860113e-003
1.369211e+003, 2.889093e-003
1.371140e+003, 2.940774e-003
1.373068e+003, 2.903722e-003
1.374997e+003, 2.863918e-003
1.376925e+003, 2.908384e-003
1.378854e+003, 2.777091e-003
1.380782e+003, 2.760905e-003
1.382711e+003, 2.726144e-003
1.384639e+003, 2.680273e-003
1.386568e+003, 2.786474e-003
1.388496e+003, 2.851705e-003
1.390424e+003, 2.730066e-003
1.392353e+003, 2.758648e-003
1.394281e+003, 2.928913e-003
1.396210e+003, 3.106900e-003
1.398138e+003, 3.113900e-003
1.400067e+003, 3.222618e-003
1.401995e+003, 3.239140e-003
1.403924e+003, 3.058751e-003
1.405852e+003, 3.223040e-003
1.407781e+003, 3.423838e-003
1.409709e+003, 3.362283e-003
1.411638e+003, 3.235625e-003
1.413566e+003, 3.119971e-003
1.415495e+003, 3.062216e-003
1.417423e+003, 3.279510e-003
1.419351e+003, 3.447614e-003
1.421280e+003, 3.376965e-003
1.423208e+003, 3.214815e-003
1.425137e+003, 3.200759e-003
1.427065e+003, 3.281902e-003
1.428994e+003, 3.336356e-003
1.430922e+003, 3.228198e-003
1.432851e+003, 2.958729e-003
1.434779e+003, 3.038586e-003
1.436708e+003, 3.282997e-003
1.438636e+003, 3.249783e-003
1.440565e+003, 3.033743e-003
1.442493e+003, 3.000375e-003
1.444422e+003, 2.979083e-003
1.446350e+003, 3.049699e-003
1.448278e+003, 3.122930e-003
1.450207e+003, 3.061695e-003
1.452135e+003, 3.095109e-003
1.454064e+003, 3.117138e-003
1.455992e+003, 3.148271e-003
1.457921e+003, 3.434334e-003
1.459849e+003, 3.022737e-003
1.461778e+003, 2.835861e-003
1.463706e+003, 2.899890e-003
1.465635e+003, 2.926239e-003
1.467563e+003, 2.574848e-003
1.469492e+003, 2.574566e-003
1.471420e+003, 2.658352e-003
1.473349e+003, 2.891910e-003
1.475277e+003, 2.773685e-003
1.477205e+003, 3.012096e-003
1.479134e+003, 3.072379e-003
1.481062e+003, 3.097859e-003
1.482991e+003, 3.159670e-003
1.484919e+003, 2.965462e-003
1.486848e+003, 2.894624e-003
1.488776e+003, 3.046845e-003
1.490705e+003, 2.955798e-003
1.492633e+003, 2.699695e-003
1.494562e+003, 2.586581e-003
1.496490e+003, 2.774565e-003
1.498419e+003, 2.777208e-003
1.500347e+003, 2.796964e-003
1.502276e+003, 2.909825e-003
1.504204e+003, 2.946935e-003
1.506132e+003, 3.119335e-003
1.508061e+003, 3.286227e-003
1.509989e+003, 2.929979e-003
1.511918e+003, 2.807325e-003
1.513846e+003, 2.857167e-003
1.515775e+003, 2.904376e-003
1.517703e+003, 3.029740e-003
1.519632e+003, 2.780000e-003
1.521560e+003, 3.054601e-003
1.523489e+003, 3.183160e-003
1.525417e+003, 3.154972e-003
1.527346e+003, 3.230463e-003
1.529274e+003, 3.140187e-003
1.531203e+003, 2.988624e-003
1.533131e+003, 3.237808e-003
1.535059e+003, 3.370037e-003
1.536988e+003, 3.119996e-003
1.538916e+003, 3.367482e-003
1.540845e+003, 3.603475e-003
1.542773e+003, 3.561177e-003
1.544702e+003, 3.736377e-003
1.546630e+003, 3.956369e-003
1.548559e+003, 3.892644e-003
1.550487e+003, 4.100837e-003
1.552416e+003, 3.950334e-003
1.554344e+003, 4.023075e-003
1.556273e+003, 4.142892e-003
1.558201e+003, 4.366618e-003
1.560130e+003, 4.649163e-003
1.562058e+003, 4.355410e-003
1.563986e+003, 4.338035e-003
1.565915e+003, 4.652973e-003
1.567843e+003, 4.598977e-003
1.569772e+003, 4.755247e-003
1.571700e+003, 4.667727e-003
1.573629e+003, 4.612757e-003
1.575557e+003, 4.768436e-003
1.577486e+003, 5.108332e-003
1.579414e+003, 4.863622e-003
1.581343e+003, 4.686808e-003
1.583271e+003, 4.806520e-003
1.585200e+003, 4.988821e-003
1.587128e+003, 5.095114e-003
1.589057e+003, 5.088589e-003
1.590985e+003, 5.035684e-003
1.592913e+003, 5.139859e-003
1.594842e+003, 5.114953e-003
1.596770e+003, 5.123397e-003
1.598699e+003, 5.035134e-003
1.600627e+003, 4.956396e-003
1.602556e+003, 5.112295e-003
1.604484e+003, 5.155243e-003
1.606413e+003, 5.155586e-003
1.608341e+003, 5.358757e-003
1.610270e+003, 5.385668e-003
1.612198e+003, 5.246419e-003
1.614127e+003, 5.186009e-003
1.616055e+003, 5.311645e-003
1.617984e+003, 5.532503e-003
1.619912e+003, 5.389918e-003
1.621840e+003, 5.564813e-003
1.623769e+003, 5.827129e-003
1.625697e+003, 5.796124e-003
1.627626e+003, 5.692631e-003
1.629554e+003, 5.887525e-003
1.631483e+003, 6.065065e-003
1.633411e+003, 5.937469e-003
1.635340e+003, 5.831129e-003
1.637268e+003, 5.782525e-003
1.639197e+003, 5.845181e-003
1.641125e+003, 5.861088e-003
1.643054e+003, 5.632569e-003
1.644982e+003, 5.440888e-003
1.646911e+003, 5.435862e-003
1.648839e+003, 5.216551e-003
1.650767e+003, 5.004172e-003
1.652696e+003, 5.183246e-003
1.654624e+003, 5.490462e-003
1.656553e+003, 5.141063e-003
1.658481e+003, 4.985647e-003
1.660410e+003, 4.909860e-003
1.662338e+003, 4.678464e-003
1.664267e+003, 4.627599e-003
1.666195e+003, 4.504992e-003
1.668124e+003, 4.378642e-003
1.670052e+003, 4.439974e-003
1.671981e+003, 4.509029e-003
1.673909e+003, 4.484782e-003
1.675838e+003, 4.425414e-003
1.677766e+003, 4.014397e-003
1.679694e+003, 3.958962e-003
1.681623e+003, 4.050786e-003
1.683551e+003, 4.154822e-003
1.685480e+003, 4.410100e-003
1.687408e+003, 4.094691e-003
1.689337e+003, 4.149588e-003
1.691265e+003, 3.827350e-003
1.693194e+003, 3.713740e-003
1.695122e+003, 3.953733e-003
1.697051e+003, 4.011596e-003
1.698979e+003, 3.411636e-003
1.700908e+003, 3.901481e-003
1.702836e+003, 3.731700e-003
1.704765e+003, 3.819328e-003
1.706693e+003, 3.552930e-003
1.708621e+003, 3.450881e-003
1.710550e+003, 3.423732e-003
1.712478e+003, 3.471959e-003
1.714407e+003, 3.580416e-003
1.716335e+003, 3.493360e-003
1.718264e+003, 3.472999e-003
1.720192e+003, 3.454844e-003
1.722121e+003, 3.495553e-003
1.724049e+003, 3.501641e-003
1.725978e+003, 3.583522e-003
1.727906e+003, 3.609272e-003
1.729835e+003, 3.405701e-003
1.731763e+003, 3.115217e-003
1.733692e+003, 3.136772e-003
1.735620e+003, 3.307646e-003
1.737548e+003, 2.923780e-003
1.739477e+003, 3.124945e-003
1.741405e+003, 3.163149e-003
1.743334e+003, 2.932347e-003
1.745262e+003, 2.866914e-003
1.747191e+003, 2.754626e-003
1.749119e+003, 2.966343e-003
1.751048e+003, 3.091556e-003
1.752976e+003, 3.053449e-003
1.754905e+003, 3.079566e-003
1.756833e+003, 3.216194e-003
1.758762e+003, 3.138630e-003
1.760690e+003, 3.126278e-003
1.762619e+003, 3.186291e-003
1.764547e+003, 2.724017e-003
1.766475e+003, 2.849763e-003
1.768404e+003, 3.219197e-003
1.770332e+003, 3.226100e-003
1.772261e+003, 3.407480e-003
1.774189e+003, 3.215925e-003
1.776118e+003, 2.643049e-003
1.778046e+003, 2.648815e-003
1.779975e+003, 2.847845e-003
1.781903e+003, 2.831743e-003
1.783832e+003, 2.663559e-003
1.785760e+003, 2.550012e-003
1.787689e+003, 2.653924e-003
1.789617e+003, 3.036651e-003
1.791546e+003, 3.037065e-003
1.793474e+003, 2.852291e-003
1.795402e+003, 2.276182e-003
1.797331e+003, 2.234568e-003
1.799259e+003, 2.419194e-003
1.801188e+003, 2.457843e-003
1.803116e+003, 2.583657e-003
1.805045e+003, 2.508789e-003
1.806973e+003, 2.430598e-003
1.808902e+003, 2.463222e-003
1.810830e+003, 2.232689e-003
1.812759e+003, 2.012887e-003
1.814687e+003, 1.756232e-003
1.816616e+003, 1.610445e-003
1.818544e+003, 2.167263e-003
1.820473e+003, 2.338663e-003
1.822401e+003, 1.985497e-003
1.824329e+003, 1.704252e-003
1.826258e+003, 1.753449e-003
1.828186e+003, 1.489763e-003
1.830115e+003, 1.489909e-003
1.832043e+003, 1.498824e-003
1.833972e+003, 1.040678e-003
1.835900e+003, 1.116526e-003
1.837829e+003, 1.759328e-003
1.839757e+003, 1.822551e-003
1.841686e+003, 1.631794e-003
1.843614e+003, 1.742008e-003
1.845543e+003, 1.709822e-003
1.847471e+003, 1.015147e-003
1.849400e+003, 9.241487e-004
1.851328e+003, 1.097213e-003
1.853256e+003, 7.850829e-004
1.855185e+003, 1.231130e-003
1.857113e+003, 1.250363e-003
1.859042e+003, 8.835892e-004
1.860970e+003, 3.864538e-004
1.862899e+003, 4.888550e-005
1.864827e+003, -3.073032e-004
1.866756e+003, -6.182283e-004
1.868684e+003, -6.120032e-004
1.870613e+003, -3.272955e-004
1.872541e+003, 1.783629e-004
1.874470e+003, -5.940251e-005
1.876398e+003, -4.534510e-004
1.878327e+003, 7.244955e-005
1.880255e+003, 2.810672e-004
1.882183e+003, -7.208616e-005
1.884112e+003, -5.419864e-004
1.886040e+003, -7.352767e-004
1.887969e+003, -7.845792e-004
1.889897e+003, -7.891481e-004
1.891826e+003, -7.908942e-004
1.893754e+003, -9.769134e-004
1.895683e+003, -1.229198e-003
1.897611e+003, -8.801846e-004
1.899540e+003, -6.916049e-004
1.901468e+003, -1.075528e-003
1.903397e+003, -1.831628e-003
1.905325e+003, -1.712573e-003
1.907254e+003, -1.514505e-003
1.909182e+003, -8.371253e-004
1.911110e+003, -1.211354e-003
1.913039e+003, -2.099768e-003
1.914967e+003, -1.785211e-003
1.916896e+003, -1.831154e-003
1.918824e+003, -1.886399e-003
1.920753e+003, -1.658240e-003
1.922681e+003, -1.954761e-003
1.924610e+003, -2.308476e-003
1.926538e+003, -2.299772e-003
1.928467e+003, -2.770938e-003
1.930395e+003, -3.072032e-003
1.932324e+003, -2.414329e-003
1.934252e+003, -2.181324e-003
1.936181e+003, -2.909343e-003
1.938109e+003, -3.448260e-003
1.940037e+003, -2.735344e-003
1.941966e+003, -2.877346e-003
1.943894e+003, -4.330108e-003
1.945823e+003, -5.132184e-003
1.947751e+003, -4.643090e-003
1.949680e+003, -4.196190e-003
1.951608e+003, -4.765555e-003
1.953537e+003, -5.396755e-003
1.955465e+003, -5.715009e-003
1.957394e+003, -5.589162e-003
1.959322e+003, -5.366100e-003
1.961251e+003, -4.974325e-003
1.963179e+003, -5.485050e-003
1.965108e+003, -6.577591e-003
1.967036e+003, -5.914127e-003
1.968964e+003, -6.243494e-003
1.970893e+003, -8.254196e-003
1.972821e+003, -8.378336e-003
1.974750e+003, -7.251162e-003
1.976678e+003, -7.970783e-003
1.978607e+003, -7.926831e-003
1.980535e+003, -6.840041e-003
1.982464e+003, -5.137546e-003
1.984392e+003, -4.538128e-003
1.986321e+003, -4.952720e-003
1.988249e+003, -3.534307e-003
1.990178e+003, -4.074969e-003
1.992106e+003, -5.474215e-003
1.994035e+003, -5.833293e-003
1.995963e+003, -5.958408e-003
1.997891e+003, -5.930146e-003
1.999820e+003, -6.298320e-003
2.001748e+003, -5.692479e-003
2.003677e+003, -4.566351e-003
2.005605e+003, -6.121013e-003
2.007534e+003, -7.207826e-003
2.009462e+003, -7.072856e-003
2.011391e+003, -5.885876e-003
2.013319e+003, -6.140857e-003
2.015248e+003, -5.948512e-003
2.017176e+003, -5.557873e-003
2.019105e+003, -5.899524e-003
2.021033e+003, -5.797591e-003
2.022962e+003, -6.382839e-003
2.024890e+003, -5.935874e-003
2.026818e+003, -6.705809e-003
2.028747e+003, -7.752061e-003
2.030675e+003, -7.831604e-003
2.032604e+003, -7.592555e-003
2.034532e+003, -6.488977e-003
2.036461e+003, -4.789355e-003
2.038389e+003, -4.275917e-003
2.040318e+003, -4.026330e-003
2.042246e+003, -3.338303e-003
2.044175e+003, -3.665996e-003
2.046103e+003, -4.803946e-003
2.048032e+003, -3.858134e-003
2.049960e+003, -1.930175e-003
2.051889e+003, -3.717261e-003
2.053817e+003, -5.039663e-003
2.055746e+003, -3.592738e-003
2.057674e+003, -2.669455e-003
2.059603e+003, -3.862238e-003
2.061531e+003, -5.126396e-003
2.063459e+003, -4.379224e-003
2.065388e+003, -2.767418e-003
2.067316e+003, -2.328578e-003
2.069245e+003, -2.451116e-003
2.071173e+003, -2.324729e-003
2.073102e+003, -1.987491e-003
2.075030e+003, -1.520463e-003
2.076959e+003, -1.315545e-003
2.078887e+003, -1.353773e-003
2.080816e+003, -1.756775e-003
2.082744e+003, -1.191936e-003
2.084673e+003, -1.378517e-003
2.086601e+003, -2.465777e-003
2.088530e+003, -2.711711e-003
2.090458e+003, -2.786106e-003
2.092386e+003, -2.713409e-003
2.094315e+003, -1.888628e-003
2.096243e+003, -1.118109e-003
2.098172e+003, -7.260526e-004
2.100100e+003, -9.499537e-004
2.102029e+003, -1.390165e-003
2.103957e+003, -1.431327e-003
2.105886e+003, -9.082484e-004
2.107814e+003, -1.473285e-003
2.109743e+003, -2.018988e-003
2.111671e+003, -1.891532e-003
2.113600e+003, -1.166426e-003
2.115528e+003, -1.767534e-003
2.117457e+003, -1.648488e-003
2.119385e+003, -1.071646e-003
2.121313e+003, -2.265627e-003
2.123242e+003, -2.671688e-003
2.125170e+003, -2.553347e-003
2.127099e+003, -2.348165e-003
2.129027e+003, -2.110607e-003
2.130956e+003, -3.025542e-003
2.132884e+003, -4.241945e-003
2.134813e+003, -4.273595e-003
2.136741e+003, -3.608712e-003
2.138670e+003, -3.638443e-003
2.140598e+003, -5.258183e-003
2.142527e+003, -6.296278e-003
2.144455e+003, -6.922800e-003
2.146384e+003, -6.474805e-003
2.148312e+003, -4.524375e-003
2.150240e+003, -5.048637e-003
2.152169e+003, -6.461886e-003
2.154097e+003, -7.713803e-003
2.156026e+003, -9.379700e-003
2.157954e+003, -8.668818e-003
2.159883e+003, -4.208986e-003
2.161811e+003, -2.597220e-003
2.163740e+003, -2.351348e-003
2.165668e+003, -3.207381e-004
2.167597e+003, -4.145730e-004
2.169525e+003, -2.327744e-003
2.171454e+003, -2.678774e-003
2.173382e+003, -3.687946e-003
2.175311e+003, -3.113667e-003
2.177239e+003, -1.675908e-003
2.179167e+003, -1.356602e-003
2.181096e+003, -2.323597e-003
2.183024e+003, -2.707349e-003
2.184953e+003, -2.634303e-003
2.186881e+003, -2.230738e-003
2.188810e+003, -2.378129e-003
2.190738e+003, -1.270026e-003
2.192667e+003, -2.244478e-003
2.194595e+003, -2.196544e-003
2.196524e+003, -9.323040e-004
2.198452e+003, 3.340940e-004
2.200381e+003, 1.056763e-003
2.202309e+003, 3.154927e-004
2.204238e+003, 1.193042e-004
2.206166e+003, 1.033061e-004
2.208094e+003, 5.019293e-004
2.210023e+003, 9.553737e-004
2.211951e+003, 1.448213e-003
2.213880e+003, 5.976856e-004
2.215808e+003, 1.065670e-003
2.217737e+003, 1.484181e-003
2.219665e+003, 1.166800e-003
2.221594e+003, 1.774115e-003
2.223522e+003, 1.768287e-003
2.225451e+003, 8.750947e-004
2.227379e+003, 1.947739e-004
2.229308e+003, 7.123071e-004
2.231236e+003, 1.205749e-003
2.233165e+003, 1.651543e-003
2.235093e+003, 1.551353e-003
2.237021e+003, 1.977855e-003
2.238950e+003, 2.298121e-003
2.240878e+003, 1.762006e-003
2.242807e+003, 2.316479e-003
2.244735e+003, 2.605421e-003
2.246664e+003, 2.212392e-003
2.248592e+003, 1.726258e-003
2.250521e+003, 1.009155e-003
2.252449e+003, 1.195754e-003
2.254378e+003, 2.096649e-003
2.256306e+003, 3.416716e-003
2.258235e+003, 2.628015e-003
2.260163e+003, 1.812230e-003
2.262092e+003, 2.671346e-003
2.264020e+003, 3.750739e-003
2.265948e+003, 3.581242e-003
2.267877e+003, 3.766021e-003
2.269805e+003, 3.026556e-003
2.271734e+003, 3.067996e-003
2.273662e+003, 4.233636e-003
2.275591e+003, 4.160017e-003
2.277519e+003, 3.210306e-003
2.279448e+003, 3.339233e-003
2.281376e+003, 4.449465e-003
2.283305e+003, 5.368127e-003
2.285233e+003, 5.663034e-003
2.287162e+003, 5.122952e-003
2.289090e+003, 4.958379e-003
2.291019e+003, 5.254047e-003
2.292947e+003, 5.359540e-003
2.294875e+003, 5.126912e-003
2.296804e+003, 4.670611e-003
2.298732e+003, 4.984014e-003
2.300661e+003, 5.134268e-003
2.302589e+003, 5.044265e-003
2.304518e+003, 4.656950e-003
2.306446e+003, 4.389124e-003
2.308375e+003, 4.241006e-003
2.310303e+003, 4.636352e-003
2.312232e+003, 4.956458e-003
2.314160e+003, 4.775292e-003
2.316089e+003, 5.293792e-003
2.318017e+003, 6.142710e-003
2.319946e+003, 6.058386e-003
2.321874e+003, 6.324816e-003
2.323802e+003, 6.885540e-003
2.325731e+003, 5.730085e-003
2.327659e+003, 4.337546e-003
2.329588e+003, 4.228741e-003
2.331516e+003, 4.604721e-003
2.333445e+003, 4.474199e-003
2.335373e+003, 4.308442e-003
2.337302e+003, 4.528564e-003
2.339230e+003, 4.623907e-003
2.341159e+003, 4.772305e-003
2.343087e+003, 4.557085e-003
2.345016e+003, 4.703508e-003
2.346944e+003, 4.787674e-003
2.348873e+003, 4.636334e-003
2.350801e+003, 4.370005e-003
2.352729e+003, 4.601636e-003
2.354658e+003, 5.115165e-003
2.356586e+003, 5.168844e-003
2.358515e+003, 4.676724e-003
2.360443e+003, 4.282911e-003
2.362372e+003, 4.188801e-003
2.364300e+003, 4.376186e-003
2.366229e+003, 4.404529e-003
2.368157e+003, 4.148624e-003
2.370086e+003, 3.850864e-003
2.372014e+003, 3.635788e-003
2.373942e+003, 3.456776e-003
2.375871e+003, 3.671282e-003
2.377799e+003, 4.411349e-003
2.379728e+003, 4.534910e-003
2.381656e+003, 4.120445e-003
2.383585e+003, 3.612574e-003
2.385513e+003, 3.809981e-003
2.387442e+003, 4.781366e-003
2.389370e+003, 4.630764e-003
2.391299e+003, 4.124658e-003
2.393227e+003, 3.852052e-003
2.395156e+003, 4.072861e-003
2.397084e+003, 3.831654e-003
2.399012e+003, 3.305262e-003
2.400941e+003, 3.571889e-003
2.402869e+003, 4.552891e-003
2.404798e+003, 4.933728e-003
2.406726e+003, 4.241015e-003
2.408655e+003, 3.729926e-003
2.410583e+003, 3.596892e-003
2.412512e+003, 4.434533e-003
2.414440e+003, 4.766232e-003
2.416369e+003, 4.165791e-003
2.418297e+003, 4.267744e-003
2.420226e+003, 4.358914e-003
2.422154e+003, 3.962739e-003
2.424083e+003, 3.786845e-003
2.426011e+003, 4.190391e-003
2.427939e+003, 4.388225e-003
2.429868e+003, 4.918314e-003
2.431796e+003, 5.107366e-003
2.433725e+003, 5.088969e-003
2.435653e+003, 5.224700e-003
2.437582e+003, 5.140691e-003
2.439510e+003, 5.066540e-003
2.441439e+003, 4.805678e-003
2.443367e+003, 4.116068e-003
2.445296e+003, 4.342770e-003
2.447224e+003, 4.818442e-003
2.449153e+003, 4.877672e-003
2.451081e+003, 4.403760e-003
2.453010e+003, 4.292969e-003
2.454938e+003, 4.685406e-003
2.456866e+003, 4.388725e-003
2.458795e+003, 4.907337e-003
2.460723e+003, 5.464538e-003
2.462652e+003, 5.798819e-003
2.464580e+003, 5.510938e-003
2.466509e+003, 4.521240e-003
2.468437e+003, 4.361583e-003
2.470366e+003, 4.891850e-003
2.472294e+003, 4.424572e-003
2.474223e+003, 4.010497e-003
2.476151e+003, 4.095397e-003
2.478080e+003, 3.931858e-003
2.480008e+003, 4.503140e-003
2.481937e+003, 4.831478e-003
2.483865e+003, 4.942705e-003
2.485793e+003, 4.490976e-003
2.487722e+003, 4.056850e-003
2.489650e+003, 4.677375e-003
2.491579e+003, 4.664828e-003
2.493507e+003, 4.002091e-003
2.495436e+003, 3.969748e-003
2.497364e+003, 4.645319e-003
2.499293e+003, 4.785887e-003
2.501221e+003, 4.598140e-003
2.503150e+003, 5.057462e-003
2.505078e+003, 4.524373e-003
2.507007e+003, 4.016069e-003
2.508935e+003, 4.396110e-003
2.510864e+003, 4.181743e-003
2.512792e+003, 3.431168e-003
2.514720e+003, 3.786667e-003
2.516649e+003, 4.050250e-003
2.518577e+003, 4.163753e-003
2.520506e+003, 4.387944e-003
2.522434e+003, 4.075660e-003
2.524363e+003, 3.846667e-003
2.526291e+003, 3.830787e-003
2.528220e+003, 4.316671e-003
2.530148e+003, 4.456315e-003
2.532077e+003, 4.174430e-003
2.534005e+003, 4.464284e-003
2.535934e+003, 4.892801e-003
2.537862e+003, 5.195645e-003
2.539791e+003, 5.287273e-003
2.541719e+003, 4.880523e-003
2.543647e+003, 4.924098e-003
2.545576e+003, 5.891617e-003
2.547504e+003, 5.886998e-003
2.549433e+003, 4.974830e-003
2.551361e+003, 4.643813e-003
2.553290e+003, 4.574176e-003
2.555218e+003, 4.549998e-003
2.557147e+003, 5.304908e-003
2.559075e+003, 5.921479e-003
2.561004e+003, 5.844387e-003
2.562932e+003, 5.028025e-003
2.564861e+003, 4.363741e-003
2.566789e+003, 5.097442e-003
2.568718e+003, 5.874215e-003
2.570646e+003, 6.428215e-003
2.572574e+003, 6.727989e-003
2.574503e+003, 6.517819e-003
2.576431e+003, 5.435988e-003
2.578360e+003, 4.621202e-003
2.580288e+003, 5.416458e-003
2.582217e+003, 5.786638e-003
2.584145e+003, 5.482627e-003
2.586074e+003, 5.569295e-003
2.588002e+003, 6.077951e-003
2.589931e+003, 6.602434e-003
2.591859e+003, 6.592057e-003
2.593788e+003, 5.657759e-003
2.595716e+003, 5.467664e-003
2.597645e+003, 6.329670e-003
2.599573e+003, 6.382442e-003
2.601501e+003, 6.021676e-003
2.603430e+003, 6.204886e-003
2.605358e+003, 6.651990e-003
2.607287e+003, 6.191577e-003
2.609215e+003, 6.299950e-003
2.611144e+003, 6.560237e-003
2.613072e+003, 6.772793e-003
2.615001e+003, 6.490185e-003
2.616929e+003, 6.051613e-003
2.618858e+003, 5.789596e-003
2.620786e+003, 5.828157e-003
2.622715e+003, 6.097572e-003
2.624643e+003, 6.262239e-003
2.626572e+003, 5.641154e-003
2.628500e+003, 5.509200e-003
2.630428e+003, 6.101126e-003
2.632357e+003, 6.740278e-003
2.634285e+003, 6.646442e-003
2.636214e+003, 6.507932e-003
2.638142e+003, 6.471550e-003
2.640071e+003, 6.413732e-003
2.641999e+003, 6.504336e-003
2.643928e+003, 6.843563e-003
2.645856e+003, 7.064995e-003
2.647785e+003, 6.670161e-003
2.649713e+003, 6.197645e-003
2.651642e+003, 6.215050e-003
2.653570e+003, 6.295770e-003
2.655499e+003, 5.844553e-003
2.657427e+003, 5.722603e-003
2.659355e+003, 6.136383e-003
2.661284e+003, 6.184712e-003
2.663212e+003, 5.948086e-003
2.665141e+003, 5.466700e-003
2.667069e+003, 5.167657e-003
2.668998e+003, 5.147318e-003
2.670926e+003, 5.038415e-003
2.672855e+003, 5.450925e-003
2.674783e+003, 5.698147e-003
2.676712e+003, 5.931061e-003
2.678640e+003, 6.153465e-003
2.680569e+003, 6.038521e-003
2.682497e+003, 6.086195e-003
2.684426e+003, 5.946892e-003
2.686354e+003, 5.920477e-003
2.688282e+003, 5.926694e-003
2.690211e+003, 5.877280e-003
2.692139e+003, 5.775976e-003
2.694068e+003, 5.446360e-003
2.695996e+003, 5.500424e-003
2.697925e+003, 5.449392e-003
2.699853e+003, 5.068868e-003
2.701782e+003, 5.225250e-003
2.703710e+003, 5.303938e-003
2.705639e+003, 5.493785e-003
2.707567e+003, 5.765332e-003
2.709496e+003, 5.861101e-003
2.711424e+003, 5.528542e-003
2.713353e+003, 5.254930e-003
2.715281e+003, 5.734374e-003
2.717209e+003, 5.857329e-003
2.719138e+003, 5.493028e-003
2.721066e+003, 5.412504e-003
2.722995e+003, 5.436732e-003
2.724923e+003, 5.706733e-003
2.726852e+003, 5.748356e-003
2.728780e+003, 5.252186e-003
2.730709e+003, 4.842733e-003
2.732637e+003, 4.804240e-003
2.734566e+003, 5.264588e-003
2.736494e+003, 5.702435e-003
2.738423e+003, 5.322865e-003
2.740351e+003, 5.239057e-003
2.742280e+003, 5.589318e-003
2.744208e+003, 6.301725e-003
2.746136e+003, 6.161725e-003
2.748065e+003, 5.816930e-003
2.749993e+003, 5.605306e-003
2.751922e+003, 5.836635e-003
2.753850e+003, 5.832562e-003
2.755779e+003, 5.705073e-003
2.757707e+003, 5.623866e-003
2.759636e+003, 5.777459e-003
2.761564e+003, 6.189517e-003
2.763493e+003, 5.794454e-003
2.765421e+003, 5.325611e-003
2.767350e+003, 5.884357e-003
2.769278e+003, 5.784357e-003
2.771207e+003, 5.596583e-003
2.773135e+003, 5.445399e-003
2.775063e+003, 5.014407e-003
2.776992e+003, 4.746367e-003
2.778920e+003, 5.400148e-003
2.780849e+003, 5.976750e-003
2.782777e+003, 5.996460e-003
2.784706e+003, 5.873028e-003
2.786634e+003, 5.867629e-003
2.788563e+003, 5.578983e-003
2.790491e+003, 5.375347e-003
2.792420e+003, 5.414561e-003
2.794348e+003, 5.864697e-003
2.796277e+003, 5.931866e-003
2.798205e+003, 5.323613e-003
2.800134e+003, 5.478810e-003
2.802062e+003, 5.791413e-003
2.803990e+003, 5.558963e-003
2.805919e+003, 5.070871e-003
2.807847e+003, 5.153860e-003
2.809776e+003, 5.416026e-003
2.811704e+003, 5.571345e-003
2.813633e+003, 6.132620e-003
2.815561e+003, 6.303818e-003
2.817490e+003, 5.824782e-003
2.819418e+003, 5.246666e-003
2.821347e+003, 5.355032e-003
2.823275e+003, 5.140919e-003
2.825204e+003, 4.816965e-003
2.827132e+003, 4.878747e-003
2.829061e+003, 5.450634e-003
2.830989e+003, 5.320188e-003
2.832917e+003, 5.465037e-003
2.834846e+003, 6.250957e-003
2.836774e+003, 5.874733e-003
2.838703e+003, 5.188735e-003
2.840631e+003, 5.445782e-003
2.842560e+003, 5.998950e-003
2.844488e+003, 5.569425e-003
2.846417e+003, 5.638951e-003
2.848345e+003, 5.830503e-003
2.850274e+003, 4.861671e-003
2.852202e+003, 3.560715e-003
2.854131e+003, 3.856877e-003
2.856059e+003, 4.963881e-003
2.857988e+003, 5.274554e-003
2.859916e+003, 5.362048e-003
2.861844e+003, 5.302332e-003
2.863773e+003, 5.250349e-003
2.865701e+003, 4.991020e-003
2.867630e+003, 5.538929e-003
2.869558e+003, 5.955868e-003
2.871487e+003, 5.686484e-003
2.873415e+003, 5.598775e-003
2.875344e+003, 5.631145e-003
2.877272e+003, 5.551510e-003
2.879201e+003, 5.113175e-003
2.881129e+003, 4.972154e-003
2.883058e+003, 5.606229e-003
2.884986e+003, 5.777350e-003
2.886915e+003, 6.041659e-003
2.888843e+003, 6.841843e-003
2.890771e+003, 6.481075e-003
2.892700e+003, 5.631129e-003
2.894628e+003, 4.777160e-003
2.896557e+003, 4.936805e-003
2.898485e+003, 5.536563e-003
2.900414e+003, 5.471326e-003
2.902342e+003, 5.397987e-003
2.904271e+003, 5.640108e-003
2.906199e+003, 5.940736e-003
2.908128e+003, 5.783881e-003
2.910056e+003, 5.668092e-003
2.911985e+003, 5.545858e-003
2.913913e+003, 4.811969e-003
2.915842e+003, 4.499322e-003
2.917770e+003, 4.310016e-003
2.919698e+003, 3.972868e-003
2.921627e+003, 3.449368e-003
2.923555e+003, 2.914905e-003
2.925484e+003, 3.642493e-003
2.927412e+003, 3.975767e-003
2.929341e+003, 3.868075e-003
2.931269e+003, 4.031762e-003
2.933198e+003, 4.921257e-003
2.935126e+003, 5.367802e-003
2.937055e+003, 4.959377e-003
2.938983e+003, 4.638894e-003
2.940912e+003, 5.077506e-003
2.942840e+003, 5.468855e-003
2.944769e+003, 5.412861e-003
2.946697e+003, 5.034165e-003
2.948625e+003, 5.037064e-003
2.950554e+003, 5.186116e-003
2.952482e+003, 5.383510e-003
2.954411e+003, 5.858474e-003
2.956339e+003, 6.051047e-003
2.958268e+003, 6.293439e-003
2.960196e+003, 5.851810e-003
2.962125e+003, 5.491464e-003
2.964053e+003, 5.770739e-003
2.965982e+003, 6.414330e-003
2.967910e+003, 7.368895e-003
2.969839e+003, 7.572718e-003
2.971767e+003, 6.942805e-003
2.973696e+003, 6.391297e-003
2.975624e+003, 6.225127e-003
2.977552e+003, 5.759348e-003
2.979481e+003, 5.740566e-003
2.981409e+003, 6.758855e-003
2.983338e+003, 7.123779e-003
2.985266e+003, 7.005456e-003
2.987195e+003, 6.852459e-003
2.989123e+003, 6.952068e-003
2.991052e+003, 6.773631e-003
2.992980e+003, 6.548834e-003
2.994909e+003, 7.263653e-003
2.996837e+003, 7.161888e-003
2.998766e+003, 7.492539e-003
3.000694e+003, 7.529655e-003
3.002623e+003, 7.168506e-003
3.004551e+003, 7.439705e-003
3.006479e+003, 7.429149e-003
3.008408e+003, 7.037587e-003
3.010336e+003, 7.109790e-003
3.012265e+003, 7.155186e-003
3.014193e+003, 6.982937e-003
3.016122e+003, 7.006895e-003
3.018050e+003, 7.240012e-003
3.019979e+003, 6.865662e-003
3.021907e+003, 6.837132e-003
3.023836e+003, 7.711251e-003
3.025764e+003, 8.354878e-003
3.027693e+003, 7.235796e-003
3.029621e+003, 6.130563e-003
3.031550e+003, 6.826021e-003
3.033478e+003, 7.448730e-003
3.035406e+003, 6.683974e-003
3.037335e+003, 6.613167e-003
3.039263e+003, 7.165422e-003
3.041192e+003, 7.804553e-003
3.043120e+003, 7.635360e-003
3.045049e+003, 8.230936e-003
3.046977e+003, 8.419323e-003
3.048906e+003, 7.686550e-003
3.050834e+003, 7.203564e-003
3.052763e+003, 7.601554e-003
3.054691e+003, 7.394535e-003
3.056620e+003, 6.969591e-003
3.058548e+003, 6.901861e-003
3.060477e+003, 7.842191e-003
3.062405e+003, 8.445086e-003
3.064333e+003, 8.340767e-003
3.066262e+003, 8.535778e-003
3.068190e+003, 7.893445e-003
3.070119e+003, 7.214405e-003
3.072047e+003, 7.433766e-003
3.073976e+003, 7.280915e-003
3.075904e+003, 7.253714e-003
3.077833e+003, 7.273128e-003
3.079761e+003, 7.779907e-003
3.081690e+003, 8.144906e-003
3.083618e+003, 7.587310e-003
3.085547e+003, 7.195136e-003
3.087475e+003, 7.575500e-003
3.089404e+003, 7.626555e-003
3.091332e+003, 7.486385e-003
3.093260e+003, 7.385725e-003
3.095189e+003, 6.653936e-003
3.097117e+003, 7.218804e-003
3.099046e+003, 8.270517e-003
3.100974e+003, 7.699850e-003
3.102903e+003, 8.024908e-003
3.104831e+003, 7.776679e-003
3.106760e+003, 7.261863e-003
3.108688e+003, 8.467564e-003
3.110617e+003, 9.292103e-003
3.112545e+003, 9.217283e-003
3.114474e+003, 8.863127e-003
3.116402e+003, 7.893824e-003
3.118331e+003, 8.546014e-003
3.120259e+003, 9.384606e-003
3.122188e+003, 8.848314e-003
3.124116e+003, 7.952505e-003
3.126044e+003, 7.797910e-003
3.127973e+003, 8.950979e-003
3.129901e+003, 8.904091e-003
3.131830e+003, 8.345028e-003
3.133758e+003, 8.441059e-003
3.135687e+003, 9.316962e-003
3.137615e+003, 1.037089e-002
3.139544e+003, 1.002061e-002
3.141472e+003, 9.553727e-003
3.143401e+003, 9.000143e-003
3.145329e+003, 8.440020e-003
3.147258e+003, 8.024709e-003
3.149186e+003, 8.578986e-003
3.151115e+003, 9.396426e-003
3.153043e+003, 9.850789e-003
3.154971e+003, 1.054306e-002
3.156900e+003, 1.002541e-002
3.158828e+003, 8.504244e-003
3.160757e+003, 7.939974e-003
3.162685e+003, 8.985404e-003
3.164614e+003, 8.780019e-003
3.166542e+003, 7.959990e-003
3.168471e+003, 9.063020e-003
3.170399e+003, 8.744897e-003
3.172328e+003, 8.802895e-003
3.174256e+003, 8.808031e-003
3.176185e+003, 8.773557e-003
3.178113e+003, 9.438314e-003
3.180042e+003, 9.449766e-003
3.181970e+003, 8.781363e-003
3.183898e+003, 9.348848e-003
3.185827e+003, 1.033056e-002
3.187755e+003, 9.359425e-003
3.189684e+003, 8.610571e-003
3.191612e+003, 9.815641e-003
3.193541e+003, 1.105200e-002
3.195469e+003, 9.961325e-003
3.197398e+003, 9.033763e-003
3.199326e+003, 9.782881e-003
3.201255e+003, 1.017423e-002
3.203183e+003, 9.393380e-003
3.205112e+003, 9.266996e-003
3.207040e+003, 9.230851e-003
3.208969e+003, 9.078428e-003
3.210897e+003, 8.853991e-003
3.212825e+003, 8.678801e-003
3.214754e+003, 9.108406e-003
3.216682e+003, 9.538005e-003
3.218611e+003, 9.879742e-003
3.220539e+003, 9.334145e-003
3.222468e+003, 8.060246e-003
3.224396e+003, 8.244419e-003
3.226325e+003, 9.790159e-003
3.228253e+003, 1.044600e-002
3.230182e+003, 1.016652e-002
3.232110e+003, 9.783876e-003
3.234039e+003, 9.707058e-003
3.235967e+003, 9.173669e-003
3.237896e+003, 9.095122e-003
3.239824e+003, 9.941159e-003
3.241752e+003, 9.559002e-003
3.243681e+003, 8.964801e-003
3.245609e+003, 9.689691e-003
3.247538e+003, 9.483431e-003
3.249466e+003, 9.659140e-003
3.251395e+003, 9.670619e-003
3.253323e+003, 9.170992e-003
3.255252e+003, 9.404425e-003
3.257180e+003, 9.554713e-003
3.259109e+003, 1.019532e-002
3.261037e+003, 1.029702e-002
3.262966e+003, 1.018234e-002
3.264894e+003, 1.046753e-002
3.266823e+003, 1.024604e-002
3.268751e+003, 1.032857e-002
3.270679e+003, 1.029951e-002
3.272608e+003, 9.914832e-003
3.274536e+003, 8.888890e-003
3.276465e+003, 8.748729e-003
3.278393e+003, 1.065711e-002
3.280322e+003, 1.204175e-002
3.282250e+003, 1.134597e-002
3.284179e+003, 1.027810e-002
3.286107e+003, 1.014728e-002
3.288036e+003, 9.473221e-003
3.289964e+003, 7.881051e-003
3.291893e+003, 8.907450e-003
3.293821e+003, 1.135428e-002
3.295750e+003, 1.191358e-002
3.297678e+003, 1.027874e-002
3.299606e+003, 8.929416e-003
3.301535e+003, 9.352215e-003
3.303463e+003, 8.747888e-003
3.305392e+003, 9.216197e-003
3.307320e+003, 1.109795e-002
3.309249e+003, 1.143253e-002
3.311177e+003, 1.095489e-002
3.313106e+003, 9.966075e-003
3.315034e+003, 9.982494e-003
3.316963e+003, 1.047089e-002
3.318891e+003, 1.071438e-002
3.320820e+003, 1.163510e-002
3.322748e+003, 1.103210e-002
3.324677e+003, 1.055749e-002
3.326605e+003, 1.123940e-002
3.328533e+003, 9.910968e-003
3.330462e+003, 8.777499e-003
3.332390e+003, 9.804498e-003
3.334319e+003, 1.058398e-002
3.336247e+003, 1.013752e-002
3.338176e+003, 1.086309e-002
3.340104e+003, 1.139799e-002
3.342033e+003, 1.094102e-002
3.343961e+003, 1.085535e-002
3.345890e+003, 1.057234e-002
3.347818e+003, 1.041844e-002
3.349747e+003, 1.147921e-002
3.351675e+003, 1.186212e-002
3.353604e+003, 1.076446e-002
3.355532e+003, 1.019761e-002
3.357460e+003, 1.065871e-002
3.359389e+003, 1.110850e-002
3.361317e+003, 1.065709e-002
3.363246e+003, 1.098452e-002
3.365174e+003, 1.215491e-002
3.367103e+003, 1.259110e-002
3.369031e+003, 1.309946e-002
3.370960e+003, 1.220708e-002
3.372888e+003, 1.076634e-002
3.374817e+003, 1.060437e-002
3.376745e+003, 1.014469e-002
3.378674e+003, 1.077511e-002
3.380602e+003, 1.200982e-002
3.382531e+003, 1.173169e-002
3.384459e+003, 1.162730e-002
3.386387e+003, 1.180613e-002
3.388316e+003, 1.157228e-002
3.390244e+003, 1.124676e-002
3.392173e+003, 1.058391e-002
3.394101e+003, 1.047707e-002
3.396030e+003, 1.150601e-002
3.397958e+003, 1.091112e-002
3.399887e+003, 1.098204e-002
3.401815e+003, 1.183732e-002
3.403744e+003, 1.212525e-002
3.405672e+003, 1.237479e-002
3.407601e+003, 1.286915e-002
3.409529e+003, 1.237616e-002
3.411458e+003, 1.217204e-002
3.413386e+003, 1.217944e-002
3.415314e+003, 1.155406e-002
3.417243e+003, 1.081059e-002
3.419171e+003, 1.130745e-002
3.421100e+003, 1.151090e-002
3.423028e+003, 1.122181e-002
3.424957e+003, 1.071807e-002
3.426885e+003, 1.075252e-002
3.428814e+003, 1.245720e-002
3.430742e+003, 1.326572e-002
3.432671e+003, 1.234525e-002
3.434599e+003, 1.040851e-002
3.436528e+003, 9.865893e-003
3.438456e+003, 1.051332e-002
3.440385e+003, 1.091474e-002
3.442313e+003, 1.053667e-002
3.444241e+003, 1.021933e-002
3.446170e+003, 1.134920e-002
3.448098e+003, 1.192094e-002
3.450027e+003, 1.101634e-002
3.451955e+003, 1.079819e-002
3.453884e+003, 1.272880e-002
3.455812e+003, 1.285056e-002
3.457741e+003, 1.227006e-002
3.459669e+003, 1.147511e-002
3.461598e+003, 1.154467e-002
3.463526e+003, 1.153380e-002
3.465455e+003, 1.134492e-002
3.467383e+003, 1.110974e-002
3.469312e+003, 1.089404e-002
3.471240e+003, 1.142610e-002
3.473168e+003, 1.181437e-002
3.475097e+003, 1.289900e-002
3.477025e+003, 1.385752e-002
3.478954e+003, 1.270807e-002
3.480882e+003, 1.141322e-002
3.482811e+003, 1.080187e-002
3.484739e+003, 1.106594e-002
3.486668e+003, 1.149918e-002
3.488596e+003, 1.042037e-002
3.490525e+003, 9.579942e-003
3.492453e+003, 1.061626e-002
3.494382e+003, 1.055263e-002
3.496310e+003, 1.019409e-002
3.498239e+003, 1.115295e-002
3.500167e+003, 1.183657e-002
3.502095e+003, 1.096631e-002
3.504024e+003, 1.095102e-002
3.505952e+003, 1.184353e-002
3.507881e+003, 1.278279e-002
3.509809e+003, 1.256613e-002
3.511738e+003, 1.190863e-002
3.513666e+003, 1.158807e-002
3.515595e+003, 1.303319e-002
3.517523e+003, 1.254402e-002
3.519452e+003, 1.105097e-002
3.521380e+003, 1.139781e-002
3.523309e+003, 1.123499e-002
3.525237e+003, 1.028980e-002
3.527166e+003, 1.139913e-002
3.529094e+003, 1.248780e-002
3.531022e+003, 1.151603e-002
3.532951e+003, 1.124740e-002
3.534879e+003, 1.320532e-002
3.536808e+003, 1.329888e-002
3.538736e+003, 1.174956e-002
3.540665e+003, 1.163963e-002
3.542593e+003, 1.249595e-002
3.544522e+003, 1.163604e-002
3.546450e+003, 1.142914e-002
3.548379e+003, 1.204386e-002
3.550307e+003, 1.236196e-002
3.552236e+003, 1.254331e-002
3.554164e+003, 1.188407e-002
3.556093e+003, 1.072553e-002
3.558021e+003, 1.098587e-002
3.559949e+003, 1.219765e-002
3.561878e+003, 1.294877e-002
3.563806e+003, 1.290928e-002
3.565735e+003, 1.182002e-002
3.567663e+003, 1.150167e-002
3.569592e+003, 1.210527e-002
3.571520e+003, 1.347870e-002
3.573449e+003, 1.307644e-002
3.575377e+003, 1.215475e-002
3.577306e+003, 1.251477e-002
3.579234e+003, 1.354406e-002
3.581163e+003, 1.256055e-002
3.583091e+003, 1.150804e-002
3.585020e+003, 1.106821e-002
3.586948e+003, 1.098066e-002
3.588876e+003, 8.917068e-003
3.590805e+003, 1.017584e-002
3.592733e+003, 1.263427e-002
3.594662e+003, 1.322189e-002
3.596590e+003, 1.162175e-002
3.598519e+003, 1.034238e-002
3.600447e+003, 1.156943e-002
3.602376e+003, 1.185093e-002
3.604304e+003, 1.098773e-002
3.606233e+003, 9.797653e-003
3.608161e+003, 1.008910e-002
3.610090e+003, 1.066172e-002
3.612018e+003, 9.662937e-003
3.613947e+003, 9.779992e-003
3.615875e+003, 1.135423e-002
3.617803e+003, 1.104127e-002
3.619732e+003, 1.142343e-002
3.621660e+003, 1.277713e-002
3.623589e+003, 1.098638e-002
3.625517e+003, 9.073587e-003
3.627446e+003, 1.040945e-002
3.629374e+003, 9.852566e-003
3.631303e+003, 9.404269e-003
3.633231e+003, 9.547105e-003
3.635160e+003, 8.278931e-003
3.637088e+003, 9.026910e-003
3.639017e+003, 9.536936e-003
3.640945e+003, 7.474680e-003
3.642874e+003, 7.743433e-003
3.644802e+003, 8.751041e-003
3.646730e+003, 9.201817e-003
3.648659e+003, 9.357667e-003
3.650587e+003, 9.284338e-003
3.652516e+003, 1.078164e-002
3.654444e+003, 9.752051e-003
3.656373e+003, 9.009910e-003
3.658301e+003, 9.396221e-003
3.660230e+003, 1.010407e-002
3.662158e+003, 1.118196e-002
3.664087e+003, 1.128565e-002
3.666015e+003, 1.002247e-002
3.667944e+003, 1.031401e-002
3.669872e+003, 9.756722e-003
3.671801e+003, 8.347827e-003
3.673729e+003, 9.091728e-003
3.675657e+003, 9.101853e-003
3.677586e+003, 1.065508e-002
3.679514e+003, 1.001977e-002
3.681443e+003, 7.745357e-003
3.683371e+003, 8.059083e-003
3.685300e+003, 8.964257e-003
3.687228e+003, 9.119154e-003
3.689157e+003, 7.664742e-003
3.691085e+003, 8.191960e-003
3.693014e+003, 1.048257e-002
3.694942e+003, 1.146976e-002
3.696871e+003, 1.051816e-002
3.698799e+003, 1.052322e-002
3.700728e+003, 1.147639e-002
3.702656e+003, 9.929529e-003
3.704584e+003, 7.499911e-003
3.706513e+003, 7.212489e-003
3.708441e+003, 7.582551e-003
3.710370e+003, 9.697269e-003
3.712298e+003, 1.223202e-002
3.714227e+003, 1.091252e-002
3.716155e+003, 8.368781e-003
3.718084e+003, 8.423014e-003
3.720012e+003, 9.265939e-003
3.721941e+003, 8.895854e-003
3.723869e+003, 9.111001e-003
3.725798e+003, 9.341740e-003
3.727726e+003, 9.840381e-003
3.729655e+003, 9.265623e-003
3.731583e+003, 8.651663e-003
3.733511e+003, 8.684285e-003
3.735440e+003, 9.368799e-003
3.737368e+003, 9.169221e-003
3.739297e+003, 9.864241e-003
3.741225e+003, 9.783962e-003
3.743154e+003, 8.877364e-003
3.745082e+003, 7.310541e-003
3.747011e+003, 7.909059e-003
3.748939e+003, 6.877476e-003
3.750868e+003, 8.216497e-003
3.752796e+003, 8.204740e-003
3.754725e+003, 9.652938e-003
3.756653e+003, 9.955599e-003
3.758582e+003, 9.747182e-003
3.760510e+003, 9.103086e-003
3.762438e+003, 9.985505e-003
3.764367e+003, 1.018279e-002
3.766295e+003, 1.022856e-002
3.768224e+003, 9.997712e-003
3.770152e+003, 9.238774e-003
3.772081e+003, 9.438890e-003
3.774009e+003, 1.003326e-002
3.775938e+003, 1.111466e-002
3.777866e+003, 1.019729e-002
3.779795e+003, 9.630664e-003
3.781723e+003, 9.989581e-003
3.783652e+003, 1.024926e-002
3.785580e+003, 1.062444e-002
3.787509e+003, 1.202286e-002
3.789437e+003, 1.238648e-002
3.791365e+003, 9.147989e-003
3.793294e+003, 7.780566e-003
3.795222e+003, 7.688642e-003
3.797151e+003, 8.036260e-003
3.799079e+003, 9.747067e-003
3.801008e+003, 9.713975e-003
3.802936e+003, 1.058692e-002
3.804865e+003, 1.217876e-002
3.806793e+003, 1.056287e-002
3.808722e+003, 9.998223e-003
3.810650e+003, 8.602840e-003
3.812579e+003, 9.252118e-003
3.814507e+003, 9.350087e-003
3.816436e+003, 9.213096e-003
3.818364e+003, 1.079125e-002
3.820292e+003, 1.060760e-002
3.822221e+003, 8.608983e-003
3.824149e+003, 8.831847e-003
3.826078e+003, 1.067421e-002
3.828006e+003, 1.096298e-002
3.829935e+003, 9.701138e-003
3.831863e+003, 7.930995e-003
3.833792e+003, 8.749176e-003
3.835720e+003, 9.519450e-003
3.837649e+003, 9.425945e-003
3.839577e+003, 9.546294e-003
3.841506e+003, 9.081033e-003
3.843434e+003, 8.142195e-003
3.845363e+003, 7.728920e-003
3.847291e+003, 7.426326e-003
3.849219e+003, 7.800143e-003
3.851148e+003, 1.045350e-002
3.853076e+003, 1.073606e-002
3.855005e+003, 9.890397e-003
3.856933e+003, 1.217550e-002
3.858862e+003, 1.236053e-002
3.860790e+003, 1.132639e-002
3.862719e+003, 1.017194e-002
3.864647e+003, 1.004072e-002
3.866576e+003, 1.168031e-002
3.868504e+003, 1.137534e-002
3.870433e+003, 9.346639e-003
3.872361e+003, 1.083818e-002
3.874290e+003, 1.110816e-002
3.876218e+003, 1.089608e-002
3.878146e+003, 1.099286e-002
3.880075e+003, 1.072747e-002
3.882003e+003, 9.914560e-003
3.883932e+003, 9.653009e-003
3.885860e+003, 8.705605e-003
3.887789e+003, 9.110908e-003
3.889717e+003, 1.130196e-002
3.891646e+003, 1.151472e-002
3.893574e+003, 1.041426e-002
3.895503e+003, 1.078107e-002
3.897431e+003, 1.191966e-002
3.899360e+003, 1.131225e-002
3.901288e+003, 1.164805e-002
3.903217e+003, 1.131904e-002
3.905145e+003, 1.041324e-002
3.907073e+003, 8.862934e-003
3.909002e+003, 9.772415e-003
3.910930e+003, 9.752609e-003
3.912859e+003, 8.476088e-003
3.914787e+003, 9.359133e-003
3.916716e+003, 1.050790e-002
3.918644e+003, 1.025051e-002
3.920573e+003, 1.011445e-002
3.922501e+003, 1.109691e-002
3.924430e+003, 1.168376e-002
3.926358e+003, 1.070226e-002
3.928287e+003, 1.039422e-002
3.930215e+003, 1.158712e-002
3.932144e+003, 1.231839e-002
3.934072e+003, 1.232025e-002
3.936000e+003, 1.087590e-002
3.937929e+003, 8.323376e-003
3.939857e+003, 8.774276e-003
3.941786e+003, 9.610311e-003
3.943714e+003, 9.140176e-003
3.945643e+003, 9.730009e-003
3.947571e+003, 1.112572e-002
3.949500e+003, 1.280708e-002
3.951428e+003, 1.224095e-002
3.953357e+003, 1.132787e-002
3.955285e+003, 1.153434e-002
3.957214e+003, 1.194568e-002
3.959142e+003, 1.417168e-002
3.961071e+003, 1.372547e-002
3.962999e+003, 1.285219e-002
3.964927e+003, 1.193146e-002
3.966856e+003, 1.036978e-002
3.968784e+003, 1.065102e-002
3.970713e+003, 1.149120e-002
3.972641e+003, 1.046913e-002
3.974570e+003, 9.807699e-003
3.976498e+003, 1.219378e-002
3.978427e+003, 1.413950e-002
3.980355e+003, 1.291902e-002
3.982284e+003, 1.126454e-002
3.984212e+003, 9.718305e-003
3.986141e+003, 9.233770e-003
3.988069e+003, 9.048178e-003
3.989998e+003, 1.077115e-002
3.991926e+003, 1.192789e-002
3.993854e+003, 1.104001e-002
3.995783e+003, 1.160171e-002
3.997711e+003, 1.361086e-002
3.999640e+003, 1.361917e-002
##END=



