##NAMES=Levyne-Na
##RRUFFID=R060021
##IDEAL CHEMISTRY=Na_6_(Si_12_Al_6_)O_36_&#183;18H_2_O
##LOCALITY=Dallas, Oregon, USA
##OWNER=RRUFF
##SOURCE=Bob Downs
##DESCRIPTION=White tabular hexagonal-shaped crystals associated with analcime, R060023
##STATUS=The identification of this mineral has been confirmed by X-ray diffraction and chemical analysis
##URL=rruff.info/R060021
##MEASURED CHEMISTRY=(Na_0.70_Ca_0.26_K_0.04_)_6_(Si_0.58_Al_0.42_)_18_O_36_Â·18H_2_O
3.991926e+002, 1.977147e-001
4.011211e+002, 2.074541e-001
4.030495e+002, 2.123748e-001
4.049780e+002, 2.076286e-001
4.069065e+002, 2.075028e-001
4.088349e+002, 2.136761e-001
4.107634e+002, 2.113488e-001
4.126919e+002, 2.074433e-001
4.146203e+002, 2.020093e-001
4.165488e+002, 2.023269e-001
4.184773e+002, 2.051071e-001
4.204057e+002, 2.031271e-001
4.223342e+002, 1.961618e-001
4.242627e+002, 1.879380e-001
4.261911e+002, 1.829727e-001
4.281196e+002, 1.864012e-001
4.300481e+002, 1.941486e-001
4.319765e+002, 2.005109e-001
4.339050e+002, 1.949553e-001
4.358335e+002, 1.889231e-001
4.377619e+002, 1.855250e-001
4.396904e+002, 1.843990e-001
4.416189e+002, 1.828115e-001
4.435473e+002, 1.766973e-001
4.454758e+002, 1.705288e-001
4.474043e+002, 1.668773e-001
4.493327e+002, 1.631144e-001
4.512612e+002, 1.613498e-001
4.531897e+002, 1.607355e-001
4.551181e+002, 1.573776e-001
4.570466e+002, 1.561651e-001
4.589751e+002, 1.579463e-001
4.609035e+002, 1.527361e-001
4.628320e+002, 1.453475e-001
4.647605e+002, 1.371904e-001
4.666889e+002, 1.252193e-001
4.686174e+002, 1.160966e-001
4.705459e+002, 1.096178e-001
4.724743e+002, 1.028942e-001
4.744028e+002, 9.569670e-002
4.763313e+002, 8.927738e-002
4.782597e+002, 8.533012e-002
4.801882e+002, 8.126255e-002
4.821167e+002, 7.834398e-002
4.840451e+002, 7.523317e-002
4.859736e+002, 7.196364e-002
4.879021e+002, 6.925506e-002
4.898305e+002, 6.526990e-002
4.917590e+002, 6.213446e-002
4.936875e+002, 6.245339e-002
4.956159e+002, 6.153224e-002
4.975444e+002, 5.994819e-002
4.994729e+002, 5.972940e-002
5.014013e+002, 6.018521e-002
5.033298e+002, 5.943853e-002
5.052583e+002, 5.906154e-002
5.071867e+002, 5.968000e-002
5.091152e+002, 5.976275e-002
5.110437e+002, 5.881843e-002
5.129721e+002, 5.889989e-002
5.149006e+002, 5.999458e-002
5.168290e+002, 6.029195e-002
5.187575e+002, 6.099672e-002
5.206860e+002, 6.133604e-002
5.226144e+002, 6.157440e-002
5.245429e+002, 6.346373e-002
5.264714e+002, 6.413398e-002
5.283998e+002, 6.405716e-002
5.303283e+002, 6.553371e-002
5.322568e+002, 6.701954e-002
5.341852e+002, 6.711953e-002
5.361137e+002, 6.709620e-002
5.380422e+002, 6.712659e-002
5.399706e+002, 6.802176e-002
5.418991e+002, 6.898423e-002
5.438276e+002, 6.851211e-002
5.457560e+002, 6.694221e-002
5.476845e+002, 6.598404e-002
5.496130e+002, 6.530369e-002
5.515414e+002, 6.509892e-002
5.534699e+002, 6.443977e-002
5.553984e+002, 6.359336e-002
5.573268e+002, 6.358159e-002
5.592553e+002, 6.354313e-002
5.611838e+002, 6.207938e-002
5.631122e+002, 6.112582e-002
5.650407e+002, 6.160847e-002
5.669692e+002, 6.188065e-002
5.688976e+002, 6.114751e-002
5.708261e+002, 6.107636e-002
5.727546e+002, 6.098574e-002
5.746830e+002, 6.107096e-002
5.766115e+002, 6.057388e-002
5.785400e+002, 6.097737e-002
5.804684e+002, 6.107316e-002
5.823969e+002, 6.202243e-002
5.843254e+002, 6.142393e-002
5.862538e+002, 6.070534e-002
5.881823e+002, 6.126212e-002
5.901108e+002, 6.075685e-002
5.920392e+002, 6.134449e-002
5.939677e+002, 6.164986e-002
5.958962e+002, 6.128830e-002
5.978246e+002, 6.131984e-002
5.997531e+002, 6.158169e-002
6.016816e+002, 6.145173e-002
6.036100e+002, 6.166681e-002
6.055385e+002, 6.155434e-002
6.074670e+002, 6.156622e-002
6.093954e+002, 6.240860e-002
6.113239e+002, 6.293789e-002
6.132524e+002, 6.278853e-002
6.151808e+002, 6.320751e-002
6.171093e+002, 6.455427e-002
6.190378e+002, 6.649625e-002
6.209662e+002, 6.810752e-002
6.228947e+002, 6.925728e-002
6.248232e+002, 7.096746e-002
6.267516e+002, 7.352278e-002
6.286801e+002, 7.673065e-002
6.306086e+002, 8.019683e-002
6.325370e+002, 8.308654e-002
6.344655e+002, 8.675424e-002
6.363940e+002, 9.179278e-002
6.383224e+002, 9.656561e-002
6.402509e+002, 1.016187e-001
6.421794e+002, 1.064425e-001
6.441078e+002, 1.107935e-001
6.460363e+002, 1.147984e-001
6.479648e+002, 1.176195e-001
6.498932e+002, 1.182954e-001
6.518217e+002, 1.171124e-001
6.537502e+002, 1.134712e-001
6.556786e+002, 1.080972e-001
6.576071e+002, 1.012183e-001
6.595356e+002, 9.382838e-002
6.614641e+002, 8.625721e-002
6.633925e+002, 7.880358e-002
6.653210e+002, 7.231925e-002
6.672495e+002, 6.673450e-002
6.691779e+002, 6.227888e-002
6.711064e+002, 5.809179e-002
6.730349e+002, 5.419195e-002
6.749633e+002, 5.124757e-002
6.768918e+002, 4.957901e-002
6.788203e+002, 4.840394e-002
6.807487e+002, 4.776969e-002
6.826772e+002, 4.730887e-002
6.846057e+002, 4.682495e-002
6.865341e+002, 4.705601e-002
6.884626e+002, 4.726752e-002
6.903911e+002, 4.752965e-002
6.923195e+002, 4.838528e-002
6.942480e+002, 4.935287e-002
6.961765e+002, 5.023815e-002
6.981049e+002, 5.081590e-002
7.000334e+002, 5.163071e-002
7.019619e+002, 5.204676e-002
7.038903e+002, 5.229105e-002
7.058188e+002, 5.256847e-002
7.077473e+002, 5.220929e-002
7.096757e+002, 5.151242e-002
7.116042e+002, 5.117696e-002
7.135327e+002, 5.065766e-002
7.154611e+002, 4.958171e-002
7.173896e+002, 4.864161e-002
7.193181e+002, 4.803059e-002
7.212465e+002, 4.742591e-002
7.231750e+002, 4.714651e-002
7.251035e+002, 4.707973e-002
7.270319e+002, 4.683883e-002
7.289604e+002, 4.665912e-002
7.308889e+002, 4.625822e-002
7.328173e+002, 4.563314e-002
7.347458e+002, 4.498713e-002
7.366743e+002, 4.462654e-002
7.386027e+002, 4.441951e-002
7.405312e+002, 4.443857e-002
7.424597e+002, 4.505859e-002
7.443881e+002, 4.538448e-002
7.463166e+002, 4.629023e-002
7.482451e+002, 4.758665e-002
7.501735e+002, 4.899417e-002
7.521020e+002, 5.054724e-002
7.540305e+002, 5.167709e-002
7.559589e+002, 5.185981e-002
7.578874e+002, 5.104644e-002
7.598159e+002, 4.981939e-002
7.617443e+002, 4.797632e-002
7.636728e+002, 4.574319e-002
7.656013e+002, 4.374730e-002
7.675297e+002, 4.232658e-002
7.694582e+002, 4.085755e-002
7.713867e+002, 3.975466e-002
7.733151e+002, 3.927262e-002
7.752436e+002, 3.888782e-002
7.771721e+002, 3.825011e-002
7.791005e+002, 3.828113e-002
7.810290e+002, 3.863504e-002
7.829575e+002, 3.873896e-002
7.848859e+002, 3.883891e-002
7.868144e+002, 3.917169e-002
7.887429e+002, 3.929141e-002
7.906713e+002, 3.882238e-002
7.925998e+002, 3.788242e-002
7.945283e+002, 3.637553e-002
7.964567e+002, 3.460208e-002
7.983852e+002, 3.297456e-002
8.003137e+002, 3.070345e-002
8.022421e+002, 2.842863e-002
8.041706e+002, 2.665486e-002
8.060991e+002, 2.497714e-002
8.080275e+002, 2.397480e-002
8.099560e+002, 2.359793e-002
8.118845e+002, 2.295619e-002
8.138129e+002, 2.231994e-002
8.157414e+002, 2.222321e-002
8.176699e+002, 2.199127e-002
8.195983e+002, 2.195055e-002
8.215268e+002, 2.210907e-002
8.234553e+002, 2.233617e-002
8.253837e+002, 2.201953e-002
8.273122e+002, 2.199670e-002
8.292407e+002, 2.235285e-002
8.311691e+002, 2.267537e-002
8.330976e+002, 2.318571e-002
8.350261e+002, 2.338054e-002
8.369545e+002, 2.330465e-002
8.388830e+002, 2.355776e-002
8.408115e+002, 2.406217e-002
8.427399e+002, 2.465446e-002
8.446684e+002, 2.531847e-002
8.465969e+002, 2.595206e-002
8.485253e+002, 2.659377e-002
8.504538e+002, 2.722465e-002
8.523823e+002, 2.764930e-002
8.543107e+002, 2.842058e-002
8.562392e+002, 2.904727e-002
8.581677e+002, 2.965109e-002
8.600961e+002, 3.032007e-002
8.620246e+002, 3.139029e-002
8.639531e+002, 3.225994e-002
8.658815e+002, 3.289878e-002
8.678100e+002, 3.357152e-002
8.697385e+002, 3.437128e-002
8.716669e+002, 3.554672e-002
8.735954e+002, 3.693198e-002
8.755239e+002, 3.818022e-002
8.774523e+002, 3.899916e-002
8.793808e+002, 3.983696e-002
8.813093e+002, 4.123033e-002
8.832377e+002, 4.304360e-002
8.851662e+002, 4.463116e-002
8.870947e+002, 4.596505e-002
8.890231e+002, 4.756903e-002
8.909516e+002, 4.957299e-002
8.928801e+002, 5.178205e-002
8.948085e+002, 5.365403e-002
8.967370e+002, 5.569722e-002
8.986655e+002, 5.803981e-002
9.005939e+002, 6.079040e-002
9.025224e+002, 6.396700e-002
9.044509e+002, 6.715045e-002
9.063793e+002, 7.036542e-002
9.083078e+002, 7.439480e-002
9.102363e+002, 7.919151e-002
9.121647e+002, 8.415730e-002
9.140932e+002, 8.946034e-002
9.160217e+002, 9.530412e-002
9.179501e+002, 1.015959e-001
9.198786e+002, 1.087460e-001
9.218071e+002, 1.164167e-001
9.237355e+002, 1.247211e-001
9.256640e+002, 1.330539e-001
9.275925e+002, 1.415687e-001
9.295209e+002, 1.502786e-001
9.314494e+002, 1.590175e-001
9.333779e+002, 1.678262e-001
9.353063e+002, 1.764986e-001
9.372348e+002, 1.853303e-001
9.391633e+002, 1.944023e-001
9.410917e+002, 2.030683e-001
9.430202e+002, 2.109348e-001
9.449487e+002, 2.176893e-001
9.468771e+002, 2.229716e-001
9.488056e+002, 2.252421e-001
9.507341e+002, 2.245431e-001
9.526625e+002, 2.209919e-001
9.545910e+002, 2.153633e-001
9.565195e+002, 2.079552e-001
9.584479e+002, 1.989504e-001
9.603764e+002, 1.894322e-001
9.623049e+002, 1.799799e-001
9.642333e+002, 1.706432e-001
9.661618e+002, 1.619623e-001
9.680903e+002, 1.542985e-001
9.700187e+002, 1.479581e-001
9.719472e+002, 1.431189e-001
9.738757e+002, 1.406683e-001
9.758041e+002, 1.407159e-001
9.777326e+002, 1.429057e-001
9.796611e+002, 1.478649e-001
9.815895e+002, 1.551352e-001
9.835180e+002, 1.635012e-001
9.854465e+002, 1.730123e-001
9.873749e+002, 1.840364e-001
9.893034e+002, 1.954304e-001
9.912319e+002, 2.071766e-001
9.931603e+002, 2.181764e-001
9.950888e+002, 2.281374e-001
9.970173e+002, 2.372099e-001
9.989457e+002, 2.449437e-001
1.000874e+003, 2.519666e-001
1.002803e+003, 2.579269e-001
1.004731e+003, 2.626770e-001
1.006660e+003, 2.664580e-001
1.008588e+003, 2.699748e-001
1.010517e+003, 2.730497e-001
1.012445e+003, 2.750989e-001
1.014373e+003, 2.755036e-001
1.016302e+003, 2.745951e-001
1.018230e+003, 2.729651e-001
1.020159e+003, 2.706804e-001
1.022087e+003, 2.682061e-001
1.024016e+003, 2.658964e-001
1.025944e+003, 2.644711e-001
1.027873e+003, 2.630654e-001
1.029801e+003, 2.612578e-001
1.031730e+003, 2.597921e-001
1.033658e+003, 2.575848e-001
1.035587e+003, 2.550235e-001
1.037515e+003, 2.519385e-001
1.039443e+003, 2.478535e-001
1.041372e+003, 2.427174e-001
1.043300e+003, 2.363069e-001
1.045229e+003, 2.295689e-001
1.047157e+003, 2.230651e-001
1.049086e+003, 2.160370e-001
1.051014e+003, 2.084164e-001
1.052943e+003, 2.004137e-001
1.054871e+003, 1.929654e-001
1.056800e+003, 1.851085e-001
1.058728e+003, 1.770136e-001
1.060657e+003, 1.694844e-001
1.062585e+003, 1.632375e-001
1.064514e+003, 1.579832e-001
1.066442e+003, 1.539959e-001
1.068370e+003, 1.509114e-001
1.070299e+003, 1.491359e-001
1.072227e+003, 1.488596e-001
1.074156e+003, 1.486537e-001
1.076084e+003, 1.480693e-001
1.078013e+003, 1.481662e-001
1.079941e+003, 1.481954e-001
1.081870e+003, 1.475164e-001
1.083798e+003, 1.461395e-001
1.085727e+003, 1.447072e-001
1.087655e+003, 1.427126e-001
1.089584e+003, 1.397226e-001
1.091512e+003, 1.357021e-001
1.093441e+003, 1.312526e-001
1.095369e+003, 1.272359e-001
1.097297e+003, 1.229348e-001
1.099226e+003, 1.178370e-001
1.101154e+003, 1.129580e-001
1.103083e+003, 1.083792e-001
1.105011e+003, 1.039623e-001
1.106940e+003, 9.948839e-002
1.108868e+003, 9.551481e-002
1.110797e+003, 9.165289e-002
1.112725e+003, 8.768220e-002
1.114654e+003, 8.396304e-002
1.116582e+003, 8.066651e-002
1.118511e+003, 7.768410e-002
1.120439e+003, 7.477052e-002
1.122368e+003, 7.218830e-002
1.124296e+003, 6.971288e-002
1.126224e+003, 6.700195e-002
1.128153e+003, 6.446353e-002
1.130081e+003, 6.189941e-002
1.132010e+003, 5.972260e-002
1.133938e+003, 5.761149e-002
1.135867e+003, 5.533568e-002
1.137795e+003, 5.354660e-002
1.139724e+003, 5.179670e-002
1.141652e+003, 4.999575e-002
1.143581e+003, 4.863195e-002
1.145509e+003, 4.716135e-002
1.147438e+003, 4.603408e-002
1.149366e+003, 4.493097e-002
1.151295e+003, 4.432486e-002
1.153223e+003, 4.351030e-002
1.155151e+003, 4.243414e-002
1.157080e+003, 4.161877e-002
1.159008e+003, 4.115056e-002
1.160937e+003, 4.072525e-002
1.162865e+003, 4.007816e-002
1.164794e+003, 3.924557e-002
1.166722e+003, 3.812974e-002
1.168651e+003, 3.733001e-002
1.170579e+003, 3.662938e-002
1.172508e+003, 3.561024e-002
1.174436e+003, 3.425308e-002
1.176365e+003, 3.270672e-002
1.178293e+003, 3.121040e-002
1.180222e+003, 2.966573e-002
1.182150e+003, 2.840685e-002
1.184078e+003, 2.701291e-002
1.186007e+003, 2.537236e-002
1.187935e+003, 2.411989e-002
1.189864e+003, 2.271370e-002
1.191792e+003, 2.117218e-002
1.193721e+003, 2.003120e-002
1.195649e+003, 1.905298e-002
1.197578e+003, 1.820211e-002
1.199506e+003, 1.729920e-002
1.201435e+003, 1.641545e-002
1.203363e+003, 1.561806e-002
1.205292e+003, 1.492497e-002
1.207220e+003, 1.398316e-002
1.209149e+003, 1.324404e-002
1.211077e+003, 1.253252e-002
1.213005e+003, 1.178426e-002
1.214934e+003, 1.129908e-002
1.216862e+003, 1.073982e-002
1.218791e+003, 1.022038e-002
1.220719e+003, 9.516587e-003
1.222648e+003, 9.108204e-003
1.224576e+003, 9.058163e-003
1.226505e+003, 8.747324e-003
1.228433e+003, 7.990275e-003
1.230362e+003, 7.693032e-003
1.232290e+003, 7.700553e-003
1.234219e+003, 7.229250e-003
1.236147e+003, 6.684670e-003
1.238076e+003, 6.403678e-003
1.240004e+003, 6.484272e-003
1.241932e+003, 6.262288e-003
1.243861e+003, 5.743170e-003
1.245789e+003, 5.628831e-003
1.247718e+003, 5.624825e-003
1.249646e+003, 5.556899e-003
1.251575e+003, 5.200474e-003
1.253503e+003, 4.785012e-003
1.255432e+003, 4.568281e-003
1.257360e+003, 4.521258e-003
1.259289e+003, 4.508481e-003
1.261217e+003, 4.401959e-003
1.263146e+003, 4.474569e-003
1.265074e+003, 4.265024e-003
1.267003e+003, 3.923150e-003
1.268931e+003, 3.827957e-003
1.270859e+003, 3.882345e-003
1.272788e+003, 3.875354e-003
1.274716e+003, 3.610695e-003
1.276645e+003, 3.322243e-003
1.278573e+003, 3.540918e-003
1.280502e+003, 3.887407e-003
1.282430e+003, 3.706598e-003
1.284359e+003, 3.344906e-003
1.286287e+003, 3.125260e-003
1.288216e+003, 3.171690e-003
1.290144e+003, 3.258841e-003
1.292073e+003, 3.145124e-003
1.294001e+003, 3.138339e-003
1.295930e+003, 3.140582e-003
1.297858e+003, 2.992278e-003
1.299786e+003, 2.690753e-003
1.301715e+003, 2.649799e-003
1.303643e+003, 2.489184e-003
1.305572e+003, 2.314400e-003
1.307500e+003, 2.495830e-003
1.309429e+003, 2.268595e-003
1.311357e+003, 1.962735e-003
1.313286e+003, 2.025609e-003
1.315214e+003, 2.076901e-003
1.317143e+003, 2.016172e-003
1.319071e+003, 2.073016e-003
1.321000e+003, 2.161265e-003
1.322928e+003, 2.130494e-003
1.324857e+003, 2.085876e-003
1.326785e+003, 1.860499e-003
1.328714e+003, 1.791308e-003
1.330642e+003, 2.092936e-003
1.332570e+003, 2.238838e-003
1.334499e+003, 1.899819e-003
1.336427e+003, 1.993416e-003
1.338356e+003, 2.237900e-003
1.340284e+003, 2.030664e-003
1.342213e+003, 1.824594e-003
1.344141e+003, 1.873135e-003
1.346070e+003, 1.935868e-003
1.347998e+003, 1.909426e-003
1.349927e+003, 1.620650e-003
1.351855e+003, 1.547330e-003
1.353784e+003, 1.738677e-003
1.355712e+003, 1.951620e-003
1.357641e+003, 1.767314e-003
1.359569e+003, 1.581542e-003
1.361497e+003, 1.518976e-003
1.363426e+003, 1.670243e-003
1.365354e+003, 1.842610e-003
1.367283e+003, 2.031786e-003
1.369211e+003, 2.304063e-003
1.371140e+003, 2.319164e-003
1.373068e+003, 1.970825e-003
1.374997e+003, 1.872593e-003
1.376925e+003, 1.964197e-003
1.378854e+003, 2.101077e-003
1.380782e+003, 2.024414e-003
1.382711e+003, 1.859306e-003
1.384639e+003, 1.910959e-003
1.386568e+003, 1.888880e-003
1.388496e+003, 1.927512e-003
1.390424e+003, 2.079301e-003
1.392353e+003, 2.013640e-003
1.394281e+003, 1.970322e-003
1.396210e+003, 1.961407e-003
1.398138e+003, 2.088776e-003
1.400067e+003, 1.972936e-003
1.401995e+003, 2.121687e-003
1.403924e+003, 2.249580e-003
1.405852e+003, 1.882381e-003
1.407781e+003, 1.765819e-003
1.409709e+003, 2.075800e-003
1.411638e+003, 2.235271e-003
1.413566e+003, 2.123513e-003
1.415495e+003, 2.099457e-003
1.417423e+003, 2.071177e-003
1.419351e+003, 1.986203e-003
1.421280e+003, 2.148664e-003
1.423208e+003, 2.501995e-003
1.425137e+003, 2.562906e-003
1.427065e+003, 2.546490e-003
1.428994e+003, 2.649839e-003
1.430922e+003, 2.665234e-003
1.432851e+003, 2.452135e-003
1.434779e+003, 2.435981e-003
1.436708e+003, 2.331853e-003
1.438636e+003, 2.332985e-003
1.440565e+003, 2.563928e-003
1.442493e+003, 2.513248e-003
1.444422e+003, 2.215661e-003
1.446350e+003, 2.320503e-003
1.448278e+003, 2.570017e-003
1.450207e+003, 2.398876e-003
1.452135e+003, 2.375378e-003
1.454064e+003, 2.452063e-003
1.455992e+003, 2.307113e-003
1.457921e+003, 2.345431e-003
1.459849e+003, 2.243651e-003
1.461778e+003, 2.002252e-003
1.463706e+003, 2.053075e-003
1.465635e+003, 2.243880e-003
1.467563e+003, 2.189718e-003
1.469492e+003, 1.920110e-003
1.471420e+003, 1.864998e-003
1.473349e+003, 2.127974e-003
1.475277e+003, 2.553629e-003
1.477205e+003, 2.315309e-003
1.479134e+003, 2.038064e-003
1.481062e+003, 1.915228e-003
1.482991e+003, 2.125209e-003
1.484919e+003, 2.290810e-003
1.486848e+003, 2.447040e-003
1.488776e+003, 2.337803e-003
1.490705e+003, 2.213866e-003
1.492633e+003, 2.060559e-003
1.494562e+003, 2.341348e-003
1.496490e+003, 2.630145e-003
1.498419e+003, 2.659927e-003
1.500347e+003, 2.701116e-003
1.502276e+003, 2.751551e-003
1.504204e+003, 2.700511e-003
1.506132e+003, 2.541119e-003
1.508061e+003, 2.499550e-003
1.509989e+003, 2.468426e-003
1.511918e+003, 2.420574e-003
1.513846e+003, 2.487279e-003
1.515775e+003, 2.717223e-003
1.517703e+003, 2.929083e-003
1.519632e+003, 2.761868e-003
1.521560e+003, 2.875817e-003
1.523489e+003, 2.996364e-003
1.525417e+003, 2.885103e-003
1.527346e+003, 2.564896e-003
1.529274e+003, 2.947582e-003
1.531203e+003, 3.265008e-003
1.533131e+003, 3.209127e-003
1.535059e+003, 3.042308e-003
1.536988e+003, 3.002786e-003
1.538916e+003, 3.375671e-003
1.540845e+003, 3.578541e-003
1.542773e+003, 3.543476e-003
1.544702e+003, 3.397576e-003
1.546630e+003, 3.460305e-003
1.548559e+003, 3.404823e-003
1.550487e+003, 3.276727e-003
1.552416e+003, 3.288335e-003
1.554344e+003, 3.410826e-003
1.556273e+003, 3.728816e-003
1.558201e+003, 3.640817e-003
1.560130e+003, 3.702677e-003
1.562058e+003, 4.038136e-003
1.563986e+003, 4.234920e-003
1.565915e+003, 4.501116e-003
1.567843e+003, 4.881322e-003
1.569772e+003, 5.014938e-003
1.571700e+003, 4.644742e-003
1.573629e+003, 4.488701e-003
1.575557e+003, 4.910754e-003
1.577486e+003, 5.050430e-003
1.579414e+003, 5.171161e-003
1.581343e+003, 5.618889e-003
1.583271e+003, 6.159066e-003
1.585200e+003, 6.409691e-003
1.587128e+003, 6.592238e-003
1.589057e+003, 6.370579e-003
1.590985e+003, 6.299354e-003
1.592913e+003, 6.994769e-003
1.594842e+003, 7.755217e-003
1.596770e+003, 8.191611e-003
1.598699e+003, 8.955781e-003
1.600627e+003, 1.015033e-002
1.602556e+003, 1.094315e-002
1.604484e+003, 1.145073e-002
1.606413e+003, 1.230074e-002
1.608341e+003, 1.335611e-002
1.610270e+003, 1.417996e-002
1.612198e+003, 1.494524e-002
1.614127e+003, 1.618308e-002
1.616055e+003, 1.748260e-002
1.617984e+003, 1.855940e-002
1.619912e+003, 1.971587e-002
1.621840e+003, 2.080879e-002
1.623769e+003, 2.171327e-002
1.625697e+003, 2.292881e-002
1.627626e+003, 2.414844e-002
1.629554e+003, 2.478981e-002
1.631483e+003, 2.457560e-002
1.633411e+003, 2.534251e-002
1.635340e+003, 2.700307e-002
1.637268e+003, 2.819121e-002
1.639197e+003, 2.876133e-002
1.641125e+003, 2.914072e-002
1.643054e+003, 2.970416e-002
1.644982e+003, 3.032150e-002
1.646911e+003, 3.063386e-002
1.648839e+003, 3.102000e-002
1.650767e+003, 3.157549e-002
1.652696e+003, 3.185637e-002
1.654624e+003, 3.223473e-002
1.656553e+003, 3.201891e-002
1.658481e+003, 3.136296e-002
1.660410e+003, 3.030979e-002
1.662338e+003, 2.807634e-002
1.664267e+003, 2.604897e-002
1.666195e+003, 2.465096e-002
1.668124e+003, 2.288374e-002
1.670052e+003, 2.070072e-002
1.671981e+003, 1.870427e-002
1.673909e+003, 1.715423e-002
1.675838e+003, 1.516830e-002
1.677766e+003, 1.323484e-002
1.679694e+003, 1.188612e-002
1.681623e+003, 1.037486e-002
1.683551e+003, 8.889670e-003
1.685480e+003, 7.987657e-003
1.687408e+003, 7.376443e-003
1.689337e+003, 6.785183e-003
1.691265e+003, 5.981267e-003
1.693194e+003, 5.071489e-003
1.695122e+003, 4.423619e-003
1.697051e+003, 3.958728e-003
1.698979e+003, 3.180133e-003
1.700908e+003, 3.063880e-003
1.702836e+003, 3.320540e-003
1.704765e+003, 3.163811e-003
1.706693e+003, 2.792049e-003
1.708621e+003, 2.432909e-003
1.710550e+003, 2.182327e-003
1.712478e+003, 2.038103e-003
1.714407e+003, 1.917952e-003
1.716335e+003, 1.728858e-003
1.718264e+003, 1.468304e-003
1.720192e+003, 1.278787e-003
1.722121e+003, 1.437190e-003
1.724049e+003, 1.845735e-003
1.725978e+003, 1.891553e-003
1.727906e+003, 1.517424e-003
1.729835e+003, 1.225768e-003
1.731763e+003, 1.211513e-003
1.733692e+003, 1.326342e-003
1.735620e+003, 1.324073e-003
1.737548e+003, 9.056914e-004
1.739477e+003, 4.463116e-004
1.741405e+003, 1.750025e-004
1.743334e+003, -2.948280e-004
1.745262e+003, -9.684796e-005
1.747191e+003, -2.406428e-005
1.749119e+003, 2.946057e-005
1.751048e+003, 8.984969e-005
1.752976e+003, 2.947534e-004
1.754905e+003, 5.082509e-004
1.756833e+003, 4.974646e-004
1.758762e+003, 9.647704e-005
1.760690e+003, -1.796181e-004
1.762619e+003, 2.847881e-006
1.764547e+003, 3.831637e-004
1.766475e+003, 5.960782e-004
1.768404e+003, 7.833563e-004
1.770332e+003, 7.689008e-004
1.772261e+003, 5.322603e-004
1.774189e+003, -1.111367e-004
1.776118e+003, -8.745643e-006
1.778046e+003, 1.630097e-004
1.779975e+003, -1.594017e-004
1.781903e+003, -5.296381e-004
1.783832e+003, -1.858321e-004
1.785760e+003, 4.190153e-004
1.787689e+003, 9.791332e-004
1.789617e+003, 8.890184e-004
1.791546e+003, 3.022327e-004
1.793474e+003, -8.159689e-005
1.795402e+003, -2.270266e-004
1.797331e+003, 4.486925e-005
1.799259e+003, 7.206567e-004
1.801188e+003, 8.373911e-004
1.803116e+003, 8.640581e-005
1.805045e+003, -2.529745e-004
1.806973e+003, 2.064554e-004
1.808902e+003, 1.627527e-004
1.810830e+003, -7.994402e-005
1.812759e+003, -3.890625e-004
1.814687e+003, -1.038133e-003
1.816616e+003, -8.692007e-004
1.818544e+003, -4.118734e-004
1.820473e+003, -7.174656e-004
1.822401e+003, -4.210928e-004
1.824329e+003, -3.415841e-004
1.826258e+003, -8.755199e-004
1.828186e+003, -6.869006e-004
1.830115e+003, 3.435130e-004
1.832043e+003, 3.033322e-004
1.833972e+003, -2.277024e-004
1.835900e+003, -5.462100e-004
1.837829e+003, -1.080379e-003
1.839757e+003, -1.492719e-003
1.841686e+003, -1.440062e-003
1.843614e+003, -2.963307e-004
1.845543e+003, -6.106868e-004
1.847471e+003, -7.463457e-004
1.849400e+003, -1.050880e-003
1.851328e+003, -1.757554e-003
1.853256e+003, -1.592869e-003
1.855185e+003, -1.362339e-003
1.857113e+003, -2.036712e-003
1.859042e+003, -1.590153e-003
1.860970e+003, -3.219552e-004
1.862899e+003, -5.266495e-004
1.864827e+003, -1.212781e-003
1.866756e+003, -1.111480e-003
1.868684e+003, -8.872042e-004
1.870613e+003, -1.051588e-003
1.872541e+003, -5.392335e-004
1.874470e+003, -7.395305e-004
1.876398e+003, -1.773677e-003
1.878327e+003, -1.870467e-003
1.880255e+003, -2.042294e-003
1.882183e+003, -2.196585e-003
1.884112e+003, -1.395247e-003
1.886040e+003, -1.464800e-003
1.887969e+003, -2.828893e-003
1.889897e+003, -2.395400e-003
1.891826e+003, -1.745570e-003
1.893754e+003, -2.597369e-003
1.895683e+003, -2.745576e-003
1.897611e+003, -1.000161e-003
1.899540e+003, 9.523649e-004
1.901468e+003, -2.172201e-004
1.903397e+003, -1.267411e-003
1.905325e+003, -9.452918e-004
1.907254e+003, -1.503855e-003
1.909182e+003, -1.748642e-003
1.911110e+003, -4.776072e-004
1.913039e+003, -3.564198e-004
1.914967e+003, -1.452857e-003
1.916896e+003, -3.030900e-003
1.918824e+003, -3.958938e-003
1.920753e+003, -2.913944e-003
1.922681e+003, -1.313540e-003
1.924610e+003, -2.115677e-004
1.926538e+003, -5.761824e-004
1.928467e+003, -7.656729e-004
1.930395e+003, 3.818990e-004
1.932324e+003, -2.630490e-004
1.934252e+003, -1.485345e-003
1.936181e+003, -2.386202e-003
1.938109e+003, -1.866252e-003
1.940037e+003, -1.721118e-003
1.941966e+003, -3.439525e-003
1.943894e+003, -1.511569e-003
1.945823e+003, 2.094739e-003
1.947751e+003, 2.146162e-003
1.949680e+003, 9.106307e-004
1.951608e+003, -1.268108e-003
1.953537e+003, -1.345319e-003
1.955465e+003, -2.070478e-003
1.957394e+003, -2.194864e-003
1.959322e+003, -1.127422e-003
1.961251e+003, -1.806883e-003
1.963179e+003, -2.966999e-003
1.965108e+003, -3.114699e-003
1.967036e+003, -1.424247e-003
1.968964e+003, -1.555568e-003
1.970893e+003, -1.552087e-003
1.972821e+003, -7.837527e-004
1.974750e+003, -2.622088e-003
1.976678e+003, -1.770837e-003
1.978607e+003, -1.886017e-004
1.980535e+003, -3.554816e-004
1.982464e+003, 8.139126e-004
1.984392e+003, 2.076501e-003
1.986321e+003, 3.087239e-004
1.988249e+003, -1.834518e-003
1.990178e+003, -3.401454e-003
1.992106e+003, -8.217802e-004
1.994035e+003, 1.043400e-003
1.995963e+003, -6.433383e-004
1.997891e+003, -1.220631e-003
1.999820e+003, -2.066426e-003
2.001748e+003, -3.446485e-003
2.003677e+003, -3.143308e-003
2.005605e+003, -3.030806e-003
2.007534e+003, -3.991748e-003
2.009462e+003, -3.754333e-003
2.011391e+003, -4.607162e-003
2.013319e+003, -6.153258e-003
2.015248e+003, -2.235461e-003
2.017176e+003, 1.049224e-003
2.019105e+003, -1.552819e-003
2.021033e+003, -5.280885e-003
2.022962e+003, -3.950934e-003
2.024890e+003, -1.265384e-003
2.026818e+003, -1.752085e-003
2.028747e+003, -3.435112e-003
2.030675e+003, -1.996994e-003
2.032604e+003, -2.388939e-003
2.034532e+003, -2.598582e-003
2.036461e+003, -3.016345e-003
2.038389e+003, -2.634527e-003
2.040318e+003, -7.841366e-004
2.042246e+003, -5.879083e-004
2.044175e+003, 1.130152e-003
2.046103e+003, 1.184148e-003
2.048031e+003, 2.064693e-004
2.049960e+003, 5.377661e-004
2.051888e+003, -4.372955e-005
2.053817e+003, -1.001278e-003
2.055745e+003, -2.936203e-003
2.057674e+003, -2.183840e-003
2.059602e+003, -1.426053e-004
2.061531e+003, -2.446972e-003
2.063459e+003, -3.752288e-003
2.065388e+003, -1.964080e-003
2.067316e+003, -2.781353e-004
2.069245e+003, -5.011766e-004
2.071173e+003, -9.154393e-004
2.073102e+003, -1.832215e-003
2.075030e+003, -5.839093e-004
2.076958e+003, 1.189830e-003
2.078887e+003, 8.087240e-004
2.080815e+003, -4.390166e-004
2.082744e+003, -3.453264e-004
2.084672e+003, 9.561701e-004
2.086601e+003, -7.691106e-005
2.088529e+003, -2.307372e-003
2.090458e+003, -2.751025e-003
2.092386e+003, -2.160363e-003
2.094315e+003, -2.990488e-003
2.096243e+003, -1.200123e-003
2.098172e+003, 1.204374e-003
2.100100e+003, -2.301126e-004
2.102029e+003, -6.643170e-004
2.103957e+003, -9.208376e-004
2.105885e+003, -1.515451e-003
2.107814e+003, -5.001118e-004
2.109742e+003, -9.771053e-004
2.111671e+003, -1.803644e-003
2.113599e+003, -9.048880e-004
2.115528e+003, -3.996632e-004
2.117456e+003, 1.373255e-004
2.119385e+003, 5.782971e-004
2.121313e+003, -7.890818e-004
2.123242e+003, -4.199571e-004
2.125170e+003, 3.396365e-004
2.127099e+003, -1.329507e-003
2.129027e+003, -1.778886e-003
2.130956e+003, -2.955503e-003
2.132884e+003, -3.846732e-003
2.134813e+003, -2.736551e-003
2.136741e+003, -3.081603e-003
2.138669e+003, -2.372698e-003
2.140598e+003, -1.107174e-003
2.142526e+003, -7.884677e-004
2.144455e+003, -1.196099e-003
2.146383e+003, -1.345411e-003
2.148312e+003, -1.702438e-003
2.150240e+003, 4.628086e-004
2.152169e+003, 2.834965e-004
2.154097e+003, 6.662444e-004
2.156026e+003, 4.199049e-004
2.157954e+003, 1.926164e-003
2.159883e+003, 4.291668e-003
2.161811e+003, 3.907819e-003
2.163740e+003, 3.160040e-003
2.165668e+003, 2.358229e-003
2.167596e+003, 2.434764e-003
2.169525e+003, 1.538105e-003
2.171453e+003, -1.681237e-003
2.173382e+003, -1.370612e-003
2.175310e+003, -5.014865e-004
2.177239e+003, 1.259714e-003
2.179167e+003, 2.626621e-003
2.181096e+003, 2.489526e-003
2.183024e+003, 3.171108e-003
2.184953e+003, 1.024419e-003
2.186881e+003, 8.308659e-004
2.188810e+003, 2.586170e-003
2.190738e+003, 1.189848e-003
2.192667e+003, -2.944886e-004
2.194595e+003, 8.615775e-004
2.196523e+003, 2.332301e-003
2.198452e+003, 2.834715e-004
2.200380e+003, 1.524279e-004
2.202309e+003, 2.320929e-003
2.204237e+003, 2.657856e-003
2.206166e+003, 2.835366e-003
2.208094e+003, 1.133943e-003
2.210023e+003, 4.867523e-004
2.211951e+003, 4.530465e-005
2.213880e+003, 9.853246e-004
2.215808e+003, 2.557704e-003
2.217737e+003, 9.670672e-004
2.219665e+003, -1.737867e-003
2.221594e+003, -3.697122e-003
2.223522e+003, -2.926993e-003
2.225450e+003, 1.757492e-003
2.227379e+003, 4.899091e-003
2.229307e+003, 3.458169e-003
2.231236e+003, 2.405473e-003
2.233164e+003, 2.128816e-003
2.235093e+003, 1.179581e-003
2.237021e+003, -5.117306e-004
2.238950e+003, -1.442651e-003
2.240878e+003, -1.449208e-005
2.242807e+003, 2.493230e-003
2.244735e+003, 3.737700e-003
2.246664e+003, 4.428646e-003
2.248592e+003, 5.121733e-003
2.250521e+003, 4.897731e-003
2.252449e+003, 3.349720e-003
2.254377e+003, 1.619584e-003
2.256306e+003, 1.316982e-003
2.258234e+003, 1.076585e-003
2.260163e+003, 3.182767e-004
2.262091e+003, 1.559154e-003
2.264020e+003, 2.978268e-003
2.265948e+003, 4.250901e-003
2.267877e+003, 1.982126e-003
2.269805e+003, 5.891496e-004
2.271734e+003, 1.416859e-003
2.273662e+003, 2.428265e-003
2.275591e+003, 2.881205e-003
2.277519e+003, 4.707546e-003
2.279448e+003, 4.842920e-003
2.281376e+003, 4.109863e-003
2.283304e+003, 3.587228e-003
2.285233e+003, 2.511014e-003
2.287161e+003, 3.483661e-003
2.289090e+003, 4.691934e-003
2.291018e+003, 3.817898e-003
2.292947e+003, 1.830743e-003
2.294875e+003, 5.961668e-004
2.296804e+003, 1.767612e-003
2.298732e+003, 2.385694e-003
2.300661e+003, 2.410197e-003
2.302589e+003, 2.217029e-003
2.304518e+003, 2.105838e-003
2.306446e+003, 2.417986e-003
2.308375e+003, 2.212507e-003
2.310303e+003, 1.049075e-003
2.312231e+003, 1.488721e-003
2.314160e+003, 1.531959e-003
2.316088e+003, 1.476198e-003
2.318017e+003, 2.216783e-003
2.319945e+003, 2.753006e-003
2.321874e+003, 3.755895e-003
2.323802e+003, 4.450861e-003
2.325731e+003, 3.562766e-003
2.327659e+003, 2.496775e-003
2.329588e+003, 1.231345e-003
2.331516e+003, 1.185099e-003
2.333445e+003, 2.279085e-003
2.335373e+003, 2.649867e-003
2.337302e+003, 1.973124e-003
2.339230e+003, 1.408846e-003
2.341158e+003, 1.429631e-003
2.343087e+003, 2.629883e-003
2.345015e+003, 1.880211e-003
2.346944e+003, 6.563289e-004
2.348872e+003, 4.810882e-004
2.350801e+003, 1.294481e-003
2.352729e+003, 1.979213e-003
2.354658e+003, 1.284223e-003
2.356586e+003, 9.258059e-004
2.358515e+003, 1.022038e-003
2.360443e+003, 9.751065e-004
2.362372e+003, 9.056312e-004
2.364300e+003, 9.845421e-004
2.366229e+003, 4.842642e-004
2.368157e+003, 8.491619e-004
2.370085e+003, 1.343527e-003
2.372014e+003, 1.673799e-003
2.373942e+003, 2.791916e-003
2.375871e+003, 2.538611e-003
2.377799e+003, 1.386436e-003
2.379728e+003, 1.274006e-003
2.381656e+003, 1.502230e-003
2.383585e+003, 1.552319e-003
2.385513e+003, 1.835183e-003
2.387442e+003, 1.355400e-003
2.389370e+003, 9.413706e-004
2.391299e+003, 1.608972e-003
2.393227e+003, 1.925275e-003
2.395156e+003, 1.174244e-003
2.397084e+003, 9.622963e-004
2.399012e+003, 1.441962e-003
2.400941e+003, 1.425988e-003
2.402869e+003, 1.587015e-003
2.404798e+003, 1.115036e-003
2.406726e+003, 1.607496e-003
2.408655e+003, 2.102660e-003
2.410583e+003, 1.991716e-003
2.412512e+003, 1.172395e-003
2.414440e+003, 4.202469e-004
2.416369e+003, 9.165754e-005
2.418297e+003, -1.516586e-006
2.420226e+003, 5.659870e-004
2.422154e+003, 1.599904e-003
2.424083e+003, 2.657476e-003
2.426011e+003, 1.282833e-003
2.427939e+003, 1.005358e-003
2.429868e+003, 2.591593e-003
2.431796e+003, 2.355000e-003
2.433725e+003, 2.031453e-003
2.435653e+003, 1.976962e-003
2.437582e+003, 1.882763e-003
2.439510e+003, 2.763907e-003
2.441439e+003, 2.788812e-003
2.443367e+003, 2.226500e-003
2.445296e+003, 2.915108e-003
2.447224e+003, 2.763530e-003
2.449153e+003, 2.548364e-003
2.451081e+003, 2.702866e-003
2.453010e+003, 2.514367e-003
2.454938e+003, 2.931918e-003
2.456866e+003, 2.072697e-003
2.458795e+003, 1.389643e-003
2.460723e+003, 1.474845e-003
2.462652e+003, 9.789657e-004
2.464580e+003, -2.395049e-004
2.466509e+003, 9.300683e-004
2.468437e+003, 2.174035e-003
2.470366e+003, 1.734685e-003
2.472294e+003, 8.721254e-004
2.474223e+003, 1.283047e-003
2.476151e+003, 1.845889e-003
2.478080e+003, 2.297898e-003
2.480008e+003, 2.682848e-003
2.481937e+003, 8.780153e-004
2.483865e+003, 1.377717e-003
2.485793e+003, 1.544076e-003
2.487722e+003, 7.983799e-004
2.489650e+003, 1.953202e-003
2.491579e+003, 3.287215e-003
2.493507e+003, 3.561544e-003
2.495436e+003, 2.747121e-003
2.497364e+003, 1.997798e-003
2.499293e+003, 2.429261e-003
2.501221e+003, 3.375774e-003
2.503150e+003, 3.181667e-003
2.505078e+003, 7.925217e-004
2.507007e+003, 4.363424e-005
2.508935e+003, 4.916856e-004
2.510864e+003, 1.452229e-003
2.512792e+003, 1.606932e-003
2.514720e+003, 1.766922e-003
2.516649e+003, 2.876726e-003
2.518577e+003, 4.451693e-003
2.520506e+003, 3.820471e-003
2.522434e+003, 2.328742e-003
2.524363e+003, 2.581946e-003
2.526291e+003, 2.806209e-003
2.528220e+003, 6.325651e-004
2.530148e+003, 6.794502e-004
2.532077e+003, 2.590093e-003
2.534005e+003, 1.513148e-003
2.535934e+003, 7.820546e-004
2.537862e+003, 1.748255e-003
2.539791e+003, 2.727316e-003
2.541719e+003, 2.373462e-003
2.543647e+003, 1.763288e-003
2.545576e+003, 1.528314e-003
2.547504e+003, 2.067786e-003
2.549433e+003, 2.702904e-003
2.551361e+003, 2.731078e-003
2.553290e+003, 1.996693e-003
2.555218e+003, 1.848968e-003
2.557147e+003, 2.839772e-003
2.559075e+003, 3.551122e-003
2.561004e+003, 2.649831e-003
2.562932e+003, 2.202250e-003
2.564861e+003, 2.147228e-003
2.566789e+003, 2.832031e-003
2.568718e+003, 2.329435e-003
2.570646e+003, 2.633896e-003
2.572574e+003, 3.617672e-003
2.574503e+003, 3.389969e-003
2.576431e+003, 1.924289e-003
2.578360e+003, 4.872236e-004
2.580288e+003, 1.126437e-003
2.582217e+003, 2.921659e-003
2.584145e+003, 3.945775e-003
2.586074e+003, 3.455904e-003
2.588002e+003, 2.783607e-003
2.589931e+003, 1.350968e-003
2.591859e+003, 7.588224e-004
2.593788e+003, 2.526748e-003
2.595716e+003, 4.077809e-003
2.597645e+003, 3.744636e-003
2.599573e+003, 3.244956e-003
2.601501e+003, 3.582228e-003
2.603430e+003, 3.033057e-003
2.605358e+003, 3.327062e-003
2.607287e+003, 3.632224e-003
2.609215e+003, 3.885702e-003
2.611144e+003, 3.898069e-003
2.613072e+003, 4.264096e-003
2.615001e+003, 4.053603e-003
2.616929e+003, 3.291228e-003
2.618858e+003, 2.323634e-003
2.620786e+003, 3.225160e-003
2.622715e+003, 5.129862e-003
2.624643e+003, 5.055826e-003
2.626572e+003, 3.340592e-003
2.628500e+003, 3.153555e-003
2.630428e+003, 3.698216e-003
2.632357e+003, 4.089002e-003
2.634285e+003, 3.629705e-003
2.636214e+003, 3.529182e-003
2.638142e+003, 3.758820e-003
2.640071e+003, 2.953000e-003
2.641999e+003, 2.531025e-003
2.643928e+003, 2.583203e-003
2.645856e+003, 3.337368e-003
2.647785e+003, 3.864514e-003
2.649713e+003, 3.185412e-003
2.651642e+003, 3.595288e-003
2.653570e+003, 3.656942e-003
2.655499e+003, 3.407304e-003
2.657427e+003, 3.254401e-003
2.659355e+003, 3.036889e-003
2.661284e+003, 3.111082e-003
2.663212e+003, 3.464781e-003
2.665141e+003, 3.077235e-003
2.667069e+003, 2.336890e-003
2.668998e+003, 2.264439e-003
2.670926e+003, 2.799131e-003
2.672855e+003, 3.077305e-003
2.674783e+003, 3.668920e-003
2.676712e+003, 3.632012e-003
2.678640e+003, 3.341608e-003
2.680569e+003, 3.707246e-003
2.682497e+003, 3.893271e-003
2.684426e+003, 3.622349e-003
2.686354e+003, 3.023283e-003
2.688282e+003, 2.432053e-003
2.690211e+003, 2.673595e-003
2.692139e+003, 3.779375e-003
2.694068e+003, 3.700452e-003
2.695996e+003, 3.092063e-003
2.697925e+003, 3.251975e-003
2.699853e+003, 3.726447e-003
2.701782e+003, 3.393141e-003
2.703710e+003, 3.233449e-003
2.705639e+003, 3.061133e-003
2.707567e+003, 2.959023e-003
2.709496e+003, 3.787463e-003
2.711424e+003, 3.672136e-003
2.713353e+003, 3.719067e-003
2.715281e+003, 3.432895e-003
2.717209e+003, 2.966040e-003
2.719138e+003, 3.166350e-003
2.721066e+003, 3.201539e-003
2.722995e+003, 3.630185e-003
2.724923e+003, 3.406593e-003
2.726852e+003, 3.353671e-003
2.728780e+003, 3.302044e-003
2.730709e+003, 3.125331e-003
2.732637e+003, 3.187664e-003
2.734566e+003, 3.911048e-003
2.736494e+003, 4.263746e-003
2.738423e+003, 3.327898e-003
2.740351e+003, 3.124435e-003
2.742280e+003, 3.430433e-003
2.744208e+003, 3.937706e-003
2.746136e+003, 4.183902e-003
2.748065e+003, 4.198850e-003
2.749993e+003, 4.319967e-003
2.751922e+003, 4.506711e-003
2.753850e+003, 4.403753e-003
2.755779e+003, 4.079937e-003
2.757707e+003, 4.408809e-003
2.759636e+003, 4.708932e-003
2.761564e+003, 4.663304e-003
2.763493e+003, 4.442604e-003
2.765421e+003, 4.522000e-003
2.767350e+003, 4.445113e-003
2.769278e+003, 5.255545e-003
2.771207e+003, 5.762782e-003
2.773135e+003, 5.137713e-003
2.775063e+003, 5.359175e-003
2.776992e+003, 5.512844e-003
2.778920e+003, 4.588877e-003
2.780849e+003, 4.306059e-003
2.782777e+003, 4.225812e-003
2.784706e+003, 4.332209e-003
2.786634e+003, 4.753953e-003
2.788563e+003, 4.882606e-003
2.790491e+003, 4.941725e-003
2.792420e+003, 4.592403e-003
2.794348e+003, 4.586405e-003
2.796277e+003, 4.507962e-003
2.798205e+003, 5.164356e-003
2.800134e+003, 5.534551e-003
2.802062e+003, 5.247923e-003
2.803990e+003, 4.472618e-003
2.805919e+003, 4.132123e-003
2.807847e+003, 4.822045e-003
2.809776e+003, 5.433635e-003
2.811704e+003, 5.783676e-003
2.813633e+003, 5.473288e-003
2.815561e+003, 4.832458e-003
2.817490e+003, 4.570421e-003
2.819418e+003, 5.484580e-003
2.821347e+003, 5.790569e-003
2.823275e+003, 4.976034e-003
2.825204e+003, 4.496849e-003
2.827132e+003, 4.582688e-003
2.829061e+003, 5.063812e-003
2.830989e+003, 5.322946e-003
2.832917e+003, 4.966368e-003
2.834846e+003, 3.982315e-003
2.836774e+003, 4.040233e-003
2.838703e+003, 5.424338e-003
2.840631e+003, 6.097062e-003
2.842560e+003, 5.414486e-003
2.844488e+003, 4.664263e-003
2.846417e+003, 4.073388e-003
2.848345e+003, 3.594515e-003
2.850274e+003, 4.692359e-003
2.852202e+003, 4.218142e-003
2.854131e+003, 2.944583e-003
2.856059e+003, 4.242537e-003
2.857988e+003, 4.916636e-003
2.859916e+003, 5.875413e-003
2.861844e+003, 5.977067e-003
2.863773e+003, 5.942051e-003
2.865701e+003, 7.174351e-003
2.867630e+003, 7.310834e-003
2.869558e+003, 6.759124e-003
2.871487e+003, 6.840614e-003
2.873415e+003, 5.659359e-003
2.875344e+003, 5.604911e-003
2.877272e+003, 7.050280e-003
2.879201e+003, 7.014461e-003
2.881129e+003, 6.599960e-003
2.883058e+003, 6.728310e-003
2.884986e+003, 5.636787e-003
2.886915e+003, 5.452101e-003
2.888843e+003, 6.362739e-003
2.890771e+003, 7.148291e-003
2.892700e+003, 8.209988e-003
2.894628e+003, 7.259206e-003
2.896557e+003, 6.163002e-003
2.898485e+003, 6.403607e-003
2.900414e+003, 5.082631e-003
2.902342e+003, 5.830395e-003
2.904271e+003, 8.137342e-003
2.906199e+003, 7.970674e-003
2.908128e+003, 6.443530e-003
2.910056e+003, 6.518308e-003
2.911985e+003, 7.322533e-003
2.913913e+003, 6.825001e-003
2.915842e+003, 5.871505e-003
2.917770e+003, 5.556243e-003
2.919698e+003, 5.341548e-003
2.921627e+003, 6.000497e-003
2.923555e+003, 6.857754e-003
2.925484e+003, 6.161027e-003
2.927412e+003, 5.966615e-003
2.929341e+003, 7.322952e-003
2.931269e+003, 7.658228e-003
2.933198e+003, 8.148151e-003
2.935126e+003, 8.673375e-003
2.937055e+003, 9.121069e-003
2.938983e+003, 8.694677e-003
2.940912e+003, 8.181353e-003
2.942840e+003, 8.788153e-003
2.944769e+003, 8.688945e-003
2.946697e+003, 8.052847e-003
2.948625e+003, 8.612188e-003
2.950554e+003, 9.189318e-003
2.952482e+003, 9.845140e-003
2.954411e+003, 1.135701e-002
2.956339e+003, 1.105716e-002
2.958268e+003, 9.496703e-003
2.960196e+003, 9.843570e-003
2.962125e+003, 1.151478e-002
2.964053e+003, 1.043674e-002
2.965982e+003, 1.016741e-002
2.967910e+003, 1.130587e-002
2.969839e+003, 1.112466e-002
2.971767e+003, 1.027244e-002
2.973696e+003, 9.792001e-003
2.975624e+003, 9.464658e-003
2.977552e+003, 1.003931e-002
2.979481e+003, 9.353812e-003
2.981409e+003, 9.503605e-003
2.983338e+003, 1.108135e-002
2.985266e+003, 1.128122e-002
2.987195e+003, 1.057868e-002
2.989123e+003, 1.029663e-002
2.991052e+003, 1.154677e-002
2.992980e+003, 1.138279e-002
2.994909e+003, 1.073407e-002
2.996837e+003, 1.053510e-002
2.998766e+003, 1.144925e-002
3.000694e+003, 1.203592e-002
3.002623e+003, 1.102816e-002
3.004551e+003, 9.528528e-003
3.006479e+003, 9.131967e-003
3.008408e+003, 9.774617e-003
3.010336e+003, 1.080323e-002
3.012265e+003, 1.043801e-002
3.014193e+003, 1.004886e-002
3.016122e+003, 9.121664e-003
3.018050e+003, 9.623460e-003
3.019979e+003, 1.190121e-002
3.021907e+003, 1.282336e-002
3.023836e+003, 1.174353e-002
3.025764e+003, 1.113591e-002
3.027693e+003, 1.227128e-002
3.029621e+003, 1.298596e-002
3.031550e+003, 1.166282e-002
3.033478e+003, 1.169433e-002
3.035406e+003, 1.297161e-002
3.037335e+003, 1.293314e-002
3.039263e+003, 1.123479e-002
3.041192e+003, 1.128638e-002
3.043120e+003, 1.335134e-002
3.045049e+003, 1.255118e-002
3.046977e+003, 1.093021e-002
3.048906e+003, 1.262288e-002
3.050834e+003, 1.339080e-002
3.052763e+003, 1.221421e-002
3.054691e+003, 1.104064e-002
3.056620e+003, 1.074940e-002
3.058548e+003, 1.200311e-002
3.060477e+003, 1.321388e-002
3.062405e+003, 1.243217e-002
3.064333e+003, 1.292017e-002
3.066262e+003, 1.435106e-002
3.068190e+003, 1.430650e-002
3.070119e+003, 1.303215e-002
3.072047e+003, 1.369241e-002
3.073976e+003, 1.383824e-002
3.075904e+003, 1.344553e-002
3.077833e+003, 1.416764e-002
3.079761e+003, 1.540779e-002
3.081690e+003, 1.601618e-002
3.083618e+003, 1.430173e-002
3.085547e+003, 1.356301e-002
3.087475e+003, 1.406394e-002
3.089404e+003, 1.222370e-002
3.091332e+003, 1.150123e-002
3.093260e+003, 1.398929e-002
3.095189e+003, 1.513429e-002
3.097117e+003, 1.376204e-002
3.099046e+003, 1.326089e-002
3.100974e+003, 1.272456e-002
3.102903e+003, 1.410380e-002
3.104831e+003, 1.513229e-002
3.106760e+003, 1.484354e-002
3.108688e+003, 1.639631e-002
3.110617e+003, 1.798233e-002
3.112545e+003, 1.678290e-002
3.114474e+003, 1.597677e-002
3.116402e+003, 1.537447e-002
3.118331e+003, 1.407937e-002
3.120259e+003, 1.452915e-002
3.122188e+003, 1.628959e-002
3.124116e+003, 1.718032e-002
3.126044e+003, 1.709007e-002
3.127973e+003, 1.631376e-002
3.129901e+003, 1.584566e-002
3.131830e+003, 1.732217e-002
3.133758e+003, 1.899316e-002
3.135687e+003, 1.921394e-002
3.137615e+003, 1.951622e-002
3.139544e+003, 1.824496e-002
3.141472e+003, 1.826519e-002
3.143401e+003, 1.854904e-002
3.145329e+003, 1.816386e-002
3.147258e+003, 1.736275e-002
3.149186e+003, 1.782022e-002
3.151115e+003, 1.874191e-002
3.153043e+003, 1.921189e-002
3.154971e+003, 1.885526e-002
3.156900e+003, 1.843613e-002
3.158828e+003, 1.883523e-002
3.160757e+003, 1.897897e-002
3.162685e+003, 1.990051e-002
3.164614e+003, 2.003495e-002
3.166542e+003, 2.062849e-002
3.168471e+003, 2.246646e-002
3.170399e+003, 2.216855e-002
3.172328e+003, 1.944799e-002
3.174256e+003, 1.853131e-002
3.176185e+003, 2.047978e-002
3.178113e+003, 2.225751e-002
3.180042e+003, 2.261386e-002
3.181970e+003, 2.240528e-002
3.183898e+003, 2.277106e-002
3.185827e+003, 2.321003e-002
3.187755e+003, 2.246444e-002
3.189684e+003, 2.337109e-002
3.191612e+003, 2.439036e-002
3.193541e+003, 2.440784e-002
3.195469e+003, 2.592861e-002
3.197398e+003, 2.493567e-002
3.199326e+003, 2.244486e-002
3.201255e+003, 2.250253e-002
3.203183e+003, 2.373382e-002
3.205112e+003, 2.519957e-002
3.207040e+003, 2.704122e-002
3.208969e+003, 2.624017e-002
3.210897e+003, 2.629893e-002
3.212825e+003, 2.750617e-002
3.214754e+003, 2.748016e-002
3.216682e+003, 2.529557e-002
3.218611e+003, 2.511242e-002
3.220539e+003, 2.644684e-002
3.222468e+003, 2.724431e-002
3.224396e+003, 2.704260e-002
3.226325e+003, 2.710211e-002
3.228253e+003, 2.828166e-002
3.230182e+003, 2.919703e-002
3.232110e+003, 2.890370e-002
3.234039e+003, 2.802883e-002
3.235967e+003, 2.662647e-002
3.237896e+003, 2.650967e-002
3.239824e+003, 2.669575e-002
3.241752e+003, 2.752548e-002
3.243681e+003, 2.832028e-002
3.245609e+003, 2.689026e-002
3.247538e+003, 2.682503e-002
3.249466e+003, 3.025609e-002
3.251395e+003, 3.128551e-002
3.253323e+003, 2.966452e-002
3.255252e+003, 2.959361e-002
3.257180e+003, 2.871972e-002
3.259109e+003, 2.786483e-002
3.261037e+003, 2.886258e-002
3.262966e+003, 2.980057e-002
3.264894e+003, 3.013744e-002
3.266823e+003, 3.059753e-002
3.268751e+003, 3.023027e-002
3.270679e+003, 3.023466e-002
3.272608e+003, 2.986116e-002
3.274536e+003, 2.980126e-002
3.276465e+003, 3.089007e-002
3.278393e+003, 3.162749e-002
3.280322e+003, 3.099420e-002
3.282250e+003, 3.035022e-002
3.284179e+003, 3.069440e-002
3.286107e+003, 3.222615e-002
3.288036e+003, 3.171281e-002
3.289964e+003, 2.861359e-002
3.291893e+003, 2.771779e-002
3.293821e+003, 2.953907e-002
3.295750e+003, 3.139396e-002
3.297678e+003, 3.129335e-002
3.299606e+003, 3.080907e-002
3.301535e+003, 3.202446e-002
3.303463e+003, 3.179758e-002
3.305392e+003, 3.104715e-002
3.307320e+003, 3.143659e-002
3.309249e+003, 2.868587e-002
3.311177e+003, 2.897589e-002
3.313106e+003, 3.206019e-002
3.315034e+003, 3.312920e-002
3.316963e+003, 3.352747e-002
3.318891e+003, 3.483422e-002
3.320820e+003, 3.595399e-002
3.322748e+003, 3.472270e-002
3.324677e+003, 3.228307e-002
3.326605e+003, 3.203351e-002
3.328533e+003, 3.268554e-002
3.330462e+003, 3.279316e-002
3.332390e+003, 3.354337e-002
3.334319e+003, 3.618874e-002
3.336247e+003, 3.774469e-002
3.338176e+003, 3.705484e-002
3.340104e+003, 3.676038e-002
3.342033e+003, 3.772874e-002
3.343961e+003, 3.869199e-002
3.345890e+003, 3.777027e-002
3.347818e+003, 3.707279e-002
3.349747e+003, 3.598182e-002
3.351675e+003, 3.627810e-002
3.353604e+003, 3.830621e-002
3.355532e+003, 3.846107e-002
3.357460e+003, 3.852870e-002
3.359389e+003, 3.945554e-002
3.361317e+003, 3.943501e-002
3.363246e+003, 4.032015e-002
3.365174e+003, 4.029623e-002
3.367103e+003, 3.723483e-002
3.369031e+003, 3.722817e-002
3.370960e+003, 3.777656e-002
3.372888e+003, 3.745437e-002
3.374817e+003, 3.842129e-002
3.376745e+003, 3.906021e-002
3.378674e+003, 4.053260e-002
3.380602e+003, 4.076964e-002
3.382531e+003, 4.123840e-002
3.384459e+003, 4.279876e-002
3.386387e+003, 4.200894e-002
3.388316e+003, 4.230466e-002
3.390244e+003, 4.181779e-002
3.392173e+003, 4.272025e-002
3.394101e+003, 4.322859e-002
3.396030e+003, 4.076284e-002
3.397958e+003, 4.064348e-002
3.399887e+003, 4.425960e-002
3.401815e+003, 4.566567e-002
3.403744e+003, 4.369603e-002
3.405672e+003, 4.284523e-002
3.407601e+003, 4.399410e-002
3.409529e+003, 4.450165e-002
3.411458e+003, 4.406279e-002
3.413386e+003, 4.269135e-002
3.415314e+003, 4.390584e-002
3.417243e+003, 4.488175e-002
3.419171e+003, 4.338821e-002
3.421100e+003, 4.412954e-002
3.423028e+003, 4.565589e-002
3.424957e+003, 4.387622e-002
3.426885e+003, 4.270118e-002
3.428814e+003, 4.376467e-002
3.430742e+003, 4.380586e-002
3.432671e+003, 4.332500e-002
3.434599e+003, 4.383404e-002
3.436528e+003, 4.299993e-002
3.438456e+003, 4.315030e-002
3.440385e+003, 4.417800e-002
3.442313e+003, 4.428155e-002
3.444241e+003, 4.325931e-002
3.446170e+003, 4.190406e-002
3.448098e+003, 4.142303e-002
3.450027e+003, 4.275211e-002
3.451955e+003, 4.301923e-002
3.453884e+003, 4.155911e-002
3.455812e+003, 3.895919e-002
3.457741e+003, 3.691526e-002
3.459669e+003, 3.759621e-002
3.461598e+003, 3.954747e-002
3.463526e+003, 4.095669e-002
3.465455e+003, 4.191045e-002
3.467383e+003, 4.349457e-002
3.469312e+003, 4.245884e-002
3.471240e+003, 4.196788e-002
3.473168e+003, 4.117055e-002
3.475097e+003, 3.961356e-002
3.477025e+003, 3.944664e-002
3.478954e+003, 3.948444e-002
3.480882e+003, 3.980418e-002
3.482811e+003, 4.258694e-002
3.484739e+003, 4.323076e-002
3.486668e+003, 4.066437e-002
3.488596e+003, 3.981318e-002
3.490525e+003, 3.862669e-002
3.492453e+003, 3.787281e-002
3.494382e+003, 3.858401e-002
3.496310e+003, 3.680503e-002
3.498239e+003, 3.672055e-002
3.500167e+003, 3.885704e-002
3.502095e+003, 4.023499e-002
3.504024e+003, 3.952687e-002
3.505952e+003, 3.877657e-002
3.507881e+003, 3.914807e-002
3.509809e+003, 3.769131e-002
3.511738e+003, 3.688876e-002
3.513666e+003, 3.551130e-002
3.515595e+003, 3.496774e-002
3.517523e+003, 3.491534e-002
3.519452e+003, 3.504837e-002
3.521380e+003, 3.555422e-002
3.523309e+003, 3.449496e-002
3.525237e+003, 3.288408e-002
3.527166e+003, 3.356702e-002
3.529094e+003, 3.409396e-002
3.531022e+003, 3.396231e-002
3.532951e+003, 3.353794e-002
3.534879e+003, 3.368693e-002
3.536808e+003, 3.272644e-002
3.538736e+003, 3.174145e-002
3.540665e+003, 3.190064e-002
3.542593e+003, 3.000712e-002
3.544522e+003, 2.690887e-002
3.546450e+003, 2.605856e-002
3.548379e+003, 2.731152e-002
3.550307e+003, 2.752892e-002
3.552236e+003, 2.732447e-002
3.554164e+003, 2.994699e-002
3.556093e+003, 3.106449e-002
3.558021e+003, 2.972207e-002
3.559949e+003, 2.894990e-002
3.561878e+003, 2.678350e-002
3.563806e+003, 2.479658e-002
3.565735e+003, 2.394234e-002
3.567663e+003, 2.438245e-002
3.569592e+003, 2.535742e-002
3.571520e+003, 2.435799e-002
3.573449e+003, 2.403990e-002
3.575377e+003, 2.458495e-002
3.577306e+003, 2.347180e-002
3.579234e+003, 2.169502e-002
3.581163e+003, 2.243492e-002
3.583091e+003, 2.365114e-002
3.585020e+003, 2.317245e-002
3.586948e+003, 2.134249e-002
3.588876e+003, 2.070489e-002
3.590805e+003, 1.911205e-002
3.592733e+003, 1.801508e-002
3.594662e+003, 1.849190e-002
3.596590e+003, 2.007841e-002
3.598519e+003, 1.956520e-002
3.600447e+003, 1.805770e-002
3.602376e+003, 1.810851e-002
3.604304e+003, 2.127638e-002
3.606233e+003, 2.037715e-002
3.608161e+003, 1.771252e-002
3.610090e+003, 1.699845e-002
3.612018e+003, 1.537555e-002
3.613947e+003, 1.471939e-002
3.615875e+003, 1.711120e-002
3.617803e+003, 1.541990e-002
3.619732e+003, 1.244465e-002
3.621660e+003, 1.449350e-002
3.623589e+003, 1.654319e-002
3.625517e+003, 1.515423e-002
3.627446e+003, 1.433120e-002
3.629374e+003, 1.596501e-002
3.631303e+003, 1.395568e-002
3.633231e+003, 1.139050e-002
3.635160e+003, 1.144041e-002
3.637088e+003, 1.278833e-002
3.639017e+003, 1.159664e-002
3.640945e+003, 1.137696e-002
3.642874e+003, 7.770903e-003
3.644802e+003, 1.070122e-003
3.646730e+003, 2.501232e-004
3.648659e+003, 2.868183e-003
3.650587e+003, 4.079213e-003
3.652516e+003, 3.030578e-003
3.654444e+003, 3.278177e-003
3.656373e+003, 6.050296e-003
3.658301e+003, 7.178721e-003
3.660230e+003, 5.908808e-003
3.662158e+003, 5.506601e-003
3.664087e+003, 4.193203e-003
3.666015e+003, 2.790678e-003
3.667944e+003, 4.348390e-003
3.669872e+003, 5.797971e-003
3.671801e+003, 4.575650e-003
3.673729e+003, 3.395699e-003
3.675657e+003, -1.375163e-004
3.677586e+003, -3.586376e-003
3.679514e+003, -3.960595e-003
3.681443e+003, -1.943797e-003
3.683371e+003, 1.687458e-003
3.685300e+003, 1.264803e-003
3.687228e+003, 1.691586e-003
3.689157e+003, 2.536097e-003
3.691085e+003, 1.944756e-003
3.693014e+003, -6.355735e-004
3.694942e+003, -9.218027e-004
3.696871e+003, 5.304882e-005
3.698799e+003, 1.074640e-003
3.700728e+003, 1.526640e-003
3.702656e+003, 2.371480e-003
3.704584e+003, 3.199450e-003
3.706513e+003, 1.446658e-003
3.708441e+003, -6.316813e-004
3.710370e+003, 5.786208e-004
3.712298e+003, 1.582006e-003
3.714227e+003, 9.200631e-004
3.716155e+003, 7.297913e-004
3.718084e+003, -7.040915e-004
3.720012e+003, -1.824761e-003
3.721941e+003, -1.263210e-003
3.723869e+003, -2.560980e-003
3.725798e+003, -7.053408e-004
3.727726e+003, -1.705843e-004
3.729655e+003, -8.118876e-004
3.731583e+003, -3.759302e-004
3.733511e+003, 7.360518e-004
3.735440e+003, 3.644042e-003
3.737368e+003, 2.071329e-003
3.739297e+003, -1.600942e-003
3.741225e+003, 8.330717e-004
3.743154e+003, 3.882795e-003
3.745082e+003, 4.056558e-003
3.747011e+003, 1.769298e-004
3.748939e+003, -5.312017e-004
3.750868e+003, 2.513214e-003
3.752796e+003, 1.589450e-003
3.754725e+003, -1.435485e-003
3.756653e+003, -2.053346e-003
3.758582e+003, 1.254292e-003
3.760510e+003, 2.129250e-003
3.762438e+003, 2.062544e-003
3.764367e+003, 6.767040e-004
3.766295e+003, 1.218928e-003
3.768224e+003, 6.804721e-004
3.770152e+003, -3.434693e-003
3.772081e+003, -3.431729e-003
3.774009e+003, -2.179318e-003
3.775938e+003, -2.129970e-003
3.777866e+003, -2.882226e-003
3.779795e+003, -2.336927e-003
3.781723e+003, 1.062306e-004
3.783652e+003, 9.617852e-004
3.785580e+003, 7.718942e-004
3.787509e+003, -1.812884e-004
3.789437e+003, -5.220865e-004
3.791365e+003, 5.943126e-004
3.793294e+003, 2.389350e-004
3.795222e+003, -6.138882e-005
3.797151e+003, 5.689805e-004
3.799079e+003, -1.296971e-003
3.801008e+003, -1.826862e-003
3.802936e+003, -4.976148e-004
3.804865e+003, -4.818721e-004
3.806793e+003, -3.746148e-005
3.808722e+003, 2.788145e-003
3.810650e+003, 1.268662e-004
3.812579e+003, -4.426491e-003
3.814507e+003, -2.584345e-003
3.816436e+003, 3.990648e-004
3.818364e+003, 7.749051e-004
3.820292e+003, 5.308804e-004
3.822221e+003, -1.390071e-003
3.824149e+003, -3.823578e-003
3.826078e+003, -2.984707e-003
3.828006e+003, -2.786808e-003
3.829935e+003, -3.458263e-003
3.831863e+003, -1.588729e-003
3.833792e+003, -6.402622e-004
3.835720e+003, -2.440458e-003
3.837649e+003, -3.886375e-003
3.839577e+003, -2.252751e-003
3.841506e+003, -9.278442e-004
3.843434e+003, -1.166305e-003
3.845363e+003, -1.398870e-003
3.847291e+003, -3.376320e-003
3.849219e+003, -2.767967e-003
3.851148e+003, -3.459427e-003
3.853076e+003, -3.328401e-003
3.855005e+003, -2.867654e-003
3.856933e+003, -2.465005e-003
3.858862e+003, -5.064961e-004
3.860790e+003, -3.958591e-006
3.862719e+003, 2.240006e-004
3.864647e+003, -3.470370e-005
3.866576e+003, 1.819187e-005
3.868504e+003, -1.851818e-003
3.870433e+003, -1.596132e-003
3.872361e+003, -2.219672e-003
3.874290e+003, -3.230316e-003
3.876218e+003, -2.552000e-003
3.878146e+003, -8.511058e-004
3.880075e+003, -2.484838e-003
3.882003e+003, -4.300434e-003
3.883932e+003, -4.359173e-003
3.885860e+003, -4.696610e-003
3.887789e+003, -3.780708e-003
3.889717e+003, -3.794666e-003
3.891646e+003, -3.944631e-003
3.893574e+003, -2.889931e-003
3.895503e+003, -3.994639e-003
3.897431e+003, -1.601190e-003
3.899360e+003, 6.825887e-004
3.901288e+003, -2.111132e-003
3.903217e+003, -4.654110e-003
3.905145e+003, -2.724502e-003
3.907073e+003, -1.402948e-004
3.909002e+003, -3.647928e-004
3.910930e+003, -3.323136e-004
3.912859e+003, -8.361225e-004
3.914787e+003, -1.027487e-003
3.916716e+003, -1.593893e-003
3.918644e+003, -1.800389e-003
3.920573e+003, -3.094038e-003
3.922501e+003, -3.186889e-003
3.924430e+003, -2.568584e-003
3.926358e+003, -6.157936e-004
3.928287e+003, 3.750225e-004
3.930215e+003, 1.537216e-003
3.932144e+003, 2.503774e-003
3.934072e+003, -9.129863e-004
3.936000e+003, -3.093004e-003
3.937929e+003, -3.177809e-004
3.939857e+003, 6.649063e-004
3.941786e+003, -2.055785e-003
3.943714e+003, -1.536983e-003
3.945643e+003, 1.939345e-003
3.947571e+003, -8.988615e-005
3.949500e+003, -2.832721e-003
3.951428e+003, -2.048970e-003
3.953357e+003, -1.944637e-003
3.955285e+003, -8.885568e-004
3.957214e+003, -3.046530e-004
3.959142e+003, -1.388557e-004
3.961071e+003, -2.917875e-004
3.962999e+003, -2.883587e-003
3.964927e+003, -4.769038e-003
3.966856e+003, -1.103089e-003
3.968784e+003, -1.285478e-003
3.970713e+003, -5.380305e-003
3.972641e+003, -5.277917e-003
3.974570e+003, -4.322542e-003
3.976498e+003, -4.725441e-003
3.978427e+003, -7.100430e-003
3.980355e+003, -9.697837e-003
3.982284e+003, -6.897011e-003
3.984212e+003, -2.534111e-003
3.986141e+003, -1.045687e-003
3.988069e+003, -1.330476e-003
3.989998e+003, -1.674411e-003
3.991926e+003, -2.155071e-003
3.993854e+003, -2.278350e-003
3.995783e+003, -6.521672e-004
3.997711e+003, 1.307417e-003
3.999640e+003, 1.478535e-004
4.001568e+003, 0.000000e+000
##END=



