##NAMES=Libethenite
##RRUFFID=R050613
##IDEAL CHEMISTRY=Cu^2+^_2_PO_4_(OH)
##LOCALITY=Libethen, Banskobystricky, Slovakia
##OWNER=RRUFF
##SOURCE=University of Arizona Mineral Museum
##DESCRIPTION=Dark green wedge-shaped prismatic crystals
##STATUS=The identification of this mineral has been confirmed by X-ray diffraction and chemical analysis
##URL=rruff.info/R050613
##MEASURED CHEMISTRY=(Cu_0.98_Zn_0.02_)_2_(P_1.00_O_4_)((OH)_0.94_F_0.06_)
399.1926, 5.0015729E-02
401.1211, 5.1310889E-02
403.0496, 5.1557571E-02
404.9780, 5.0379250E-02
406.9065, 4.7677241E-02
408.8350, 4.8189551E-02
410.7634, 5.2852329E-02
412.6919, 5.6450952E-02
414.6204, 5.6184500E-02
416.5488, 5.7043180E-02
418.4773, 5.9903990E-02
420.4058, 6.1870620E-02
422.3342, 6.4431012E-02
424.2627, 6.8047747E-02
426.1912, 7.2555572E-02
428.1196, 7.9971768E-02
430.0481, 8.6763777E-02
431.9766, 9.4759747E-02
433.9050, 0.1036063
435.8335, 0.1126775
437.7620, 0.1198987
439.6904, 0.1295815
441.6189, 0.1401371
443.5474, 0.1461468
445.4758, 0.1475623
447.4043, 0.1442519
449.3328, 0.1370375
451.2612, 0.1259472
453.1897, 0.1152366
455.1182, 0.1071597
457.0466, 0.1019551
458.9751, 0.1007056
460.9036, 0.1020044
462.8320, 0.1041849
464.7605, 0.1089297
466.6890, 0.1159632
468.6174, 0.1225270
470.5459, 0.1280947
472.4744, 0.1353594
474.4028, 0.1420760
476.3313, 0.1466032
478.2598, 0.1513249
480.1882, 0.1573334
482.1167, 0.1591319
484.0452, 0.1585233
485.9736, 0.1557246
487.9021, 0.1495148
489.8306, 0.1423341
491.7590, 0.1351250
493.6875, 0.1297528
495.6160, 0.1251000
497.5444, 0.1196487
499.4729, 0.1140862
501.4014, 0.1106046
503.3298, 0.1096275
505.2583, 0.1097770
507.1868, 0.1120212
509.1152, 0.1164384
511.0437, 0.1221667
512.9722, 0.1265861
514.9006, 0.1302186
516.8291, 0.1334076
518.7576, 0.1343372
520.6860, 0.1318862
522.6145, 0.1284260
524.5430, 0.1243522
526.4714, 0.1207348
528.3999, 0.1186048
530.3284, 0.1200484
532.2568, 0.1259772
534.1853, 0.1342926
536.1138, 0.1465229
538.0422, 0.1608738
539.9707, 0.1754091
541.8992, 0.1907091
543.8276, 0.2043440
545.7561, 0.2160563
547.6846, 0.2252822
549.6130, 0.2270699
551.5415, 0.2200981
553.4700, 0.2067307
555.3984, 0.1896182
557.3269, 0.1705942
559.2554, 0.1521267
561.1838, 0.1346436
563.1123, 0.1193386
565.0408, 0.1069682
566.9692, 9.8566383E-02
568.8977, 9.3853243E-02
570.8262, 9.1126360E-02
572.7546, 8.9647293E-02
574.6831, 9.0310812E-02
576.6116, 9.3306340E-02
578.5400, 9.8092817E-02
580.4685, 0.1027229
582.3970, 0.1081729
584.3254, 0.1151265
586.2539, 0.1229083
588.1824, 0.1316428
590.1108, 0.1405481
592.0393, 0.1498464
593.9678, 0.1602572
595.8962, 0.1719762
597.8247, 0.1839778
599.7532, 0.1951357
601.6816, 0.2059506
603.6101, 0.2150034
605.5386, 0.2223392
607.4670, 0.2285823
609.3955, 0.2309913
611.3240, 0.2294745
613.2524, 0.2257570
615.1809, 0.2194280
617.1094, 0.2111522
619.0378, 0.2030492
620.9663, 0.1966555
622.8948, 0.1913147
624.8232, 0.1879485
626.7517, 0.1877233
628.6802, 0.1888739
630.6086, 0.1900886
632.5371, 0.1886333
634.4656, 0.1819684
636.3940, 0.1710590
638.3225, 0.1582288
640.2510, 0.1456451
642.1794, 0.1360508
644.1079, 0.1304196
646.0364, 0.1275285
647.9648, 0.1253759
649.8933, 0.1222436
651.8218, 0.1156181
653.7502, 0.1045563
655.6787, 9.1519423E-02
657.6072, 7.8009307E-02
659.5356, 6.5404497E-02
661.4641, 5.5747289E-02
663.3926, 4.8373468E-02
665.3210, 4.2855270E-02
667.2495, 3.9081890E-02
669.1780, 3.5975110E-02
671.1064, 3.3547271E-02
673.0349, 3.1725530E-02
674.9634, 3.0664250E-02
676.8918, 2.9702939E-02
678.8203, 2.9093619E-02
680.7488, 2.9073870E-02
682.6772, 2.8768720E-02
684.6057, 2.8724590E-02
686.5342, 2.9060069E-02
688.4626, 2.9339449E-02
690.3911, 2.9742271E-02
692.3196, 3.0153370E-02
694.2480, 2.9822331E-02
696.1765, 2.9326741E-02
698.1050, 2.8993379E-02
700.0334, 2.8750859E-02
701.9619, 2.8488880E-02
703.8904, 2.8705170E-02
705.8188, 2.9600790E-02
707.7473, 3.0101961E-02
709.6758, 3.0311691E-02
711.6042, 3.0663380E-02
713.5327, 3.1210320E-02
715.4612, 3.1986311E-02
717.3896, 3.2924339E-02
719.3181, 3.3929341E-02
721.2466, 3.4493811E-02
723.1750, 3.4832321E-02
725.1035, 3.5632581E-02
727.0320, 3.6661290E-02
728.9604, 3.7922949E-02
730.8889, 3.9477181E-02
732.8174, 4.0509779E-02
734.7458, 4.1738171E-02
736.6743, 4.3204781E-02
738.6028, 4.4473238E-02
740.5313, 4.5820769E-02
742.4597, 4.7220930E-02
744.3882, 4.8693459E-02
746.3167, 5.0423089E-02
748.2451, 5.1797129E-02
750.1736, 5.2943621E-02
752.1021, 5.4590769E-02
754.0305, 5.6562841E-02
755.9590, 5.8593251E-02
757.8875, 6.0641110E-02
759.8159, 6.2470209E-02
761.7444, 6.4725988E-02
763.6729, 6.7484163E-02
765.6013, 7.0207037E-02
767.5298, 7.3107406E-02
769.4583, 7.6255798E-02
771.3867, 7.9556480E-02
773.3152, 8.3221443E-02
775.2437, 8.7028742E-02
777.1721, 9.0504497E-02
779.1006, 9.3693547E-02
781.0291, 9.7605087E-02
782.9575, 0.1014229
784.8860, 0.1058295
786.8145, 0.1112771
788.7429, 0.1169577
790.6714, 0.1232963
792.5999, 0.1309035
794.5283, 0.1396360
796.4568, 0.1484418
798.3853, 0.1571899
800.3137, 0.1663743
802.2422, 0.1757771
804.1707, 0.1847147
806.0991, 0.1931679
808.0276, 0.2006877
809.9561, 0.2058368
811.8845, 0.2075541
813.8130, 0.2041543
815.7415, 0.1968050
817.6699, 0.1868461
819.5984, 0.1751624
821.5269, 0.1636932
823.4553, 0.1535013
825.3838, 0.1444908
827.3123, 0.1380297
829.2407, 0.1333509
831.1692, 0.1302706
833.0977, 0.1287253
835.0261, 0.1286369
836.9546, 0.1295298
838.8831, 0.1310239
840.8115, 0.1331513
842.7400, 0.1352198
844.6685, 0.1369501
846.5969, 0.1397315
848.5254, 0.1431562
850.4539, 0.1470012
852.3823, 0.1520642
854.3108, 0.1578404
856.2393, 0.1636985
858.1677, 0.1702859
860.0962, 0.1772871
862.0247, 0.1845709
863.9531, 0.1916692
865.8816, 0.1989356
867.8101, 0.2064229
869.7385, 0.2136681
871.6670, 0.2207335
873.5955, 0.2276710
875.5239, 0.2343811
877.4524, 0.2408396
879.3809, 0.2474578
881.3093, 0.2542942
883.2378, 0.2613351
885.1663, 0.2686036
887.0947, 0.2761154
889.0232, 0.2837513
890.9517, 0.2912379
892.8801, 0.2986717
894.8085, 0.3063497
896.7370, 0.3142456
898.6655, 0.3216119
900.5939, 0.3293522
902.5224, 0.3367053
904.4509, 0.3437052
906.3793, 0.3504613
908.3078, 0.3557984
910.2363, 0.3601117
912.1647, 0.3640275
914.0932, 0.3674111
916.0217, 0.3702236
917.9501, 0.3729001
919.8786, 0.3756487
921.8071, 0.3787564
923.7355, 0.3815809
925.6640, 0.3842729
927.5925, 0.3872381
929.5209, 0.3895875
931.4494, 0.3910225
933.3779, 0.3905415
935.3063, 0.3877272
937.2348, 0.3832104
939.1633, 0.3771199
941.0917, 0.3698461
943.0202, 0.3621902
944.9487, 0.3545173
946.8771, 0.3482116
948.8056, 0.3428511
950.7341, 0.3382017
952.6625, 0.3335113
954.5910, 0.3281302
956.5195, 0.3216418
958.4479, 0.3135460
960.3764, 0.3019916
962.3049, 0.2881603
964.2333, 0.2754217
966.1618, 0.2650397
968.0903, 0.2570806
970.0187, 0.2513140
971.9472, 0.2469953
973.8757, 0.2438152
975.8041, 0.2408964
977.7326, 0.2381213
979.6611, 0.2353639
981.5895, 0.2322813
983.5180, 0.2292803
985.4465, 0.2269344
987.3749, 0.2244535
989.3034, 0.2217861
991.2319, 0.2196098
993.1603, 0.2181400
995.0888, 0.2166838
997.0173, 0.2159956
998.9457, 0.2158789
1000.874, 0.2163799
1002.803, 0.2181546
1004.731, 0.2211958
1006.660, 0.2251337
1008.588, 0.2298116
1010.517, 0.2356964
1012.445, 0.2428278
1014.373, 0.2511649
1016.302, 0.2604516
1018.230, 0.2698570
1020.159, 0.2798907
1022.087, 0.2905206
1024.016, 0.3014260
1025.944, 0.3119233
1027.873, 0.3221419
1029.801, 0.3309457
1031.730, 0.3377368
1033.658, 0.3418463
1035.587, 0.3441688
1037.515, 0.3447323
1039.444, 0.3433017
1041.372, 0.3399761
1043.301, 0.3352832
1045.229, 0.3295360
1047.157, 0.3224674
1049.086, 0.3145441
1051.014, 0.3059448
1052.943, 0.2972670
1054.871, 0.2886559
1056.800, 0.2797422
1058.728, 0.2709938
1060.657, 0.2624337
1062.585, 0.2539327
1064.514, 0.2452310
1066.442, 0.2371889
1068.371, 0.2296846
1070.299, 0.2225235
1072.228, 0.2151274
1074.156, 0.2079296
1076.084, 0.2010364
1078.013, 0.1939858
1079.941, 0.1870974
1081.870, 0.1805510
1083.798, 0.1743134
1085.727, 0.1685296
1087.655, 0.1626785
1089.584, 0.1569349
1091.512, 0.1515860
1093.441, 0.1462601
1095.369, 0.1410260
1097.298, 0.1358405
1099.226, 0.1305405
1101.155, 0.1252383
1103.083, 0.1203113
1105.011, 0.1155904
1106.940, 0.1106262
1108.868, 0.1053240
1110.797, 0.1001898
1112.725, 9.5075890E-02
1114.654, 9.0004347E-02
1116.582, 8.4969297E-02
1118.511, 7.9813033E-02
1120.439, 7.4665941E-02
1122.368, 6.9663480E-02
1124.296, 6.4924367E-02
1126.225, 6.0178500E-02
1128.153, 5.5457611E-02
1130.082, 5.1082991E-02
1132.010, 4.7083270E-02
1133.938, 4.3143969E-02
1135.867, 3.9329890E-02
1137.795, 3.6014508E-02
1139.724, 3.2777719E-02
1141.652, 2.9711090E-02
1143.581, 2.7089100E-02
1145.509, 2.4894100E-02
1147.438, 2.2998629E-02
1149.366, 2.1441249E-02
1151.295, 2.0042259E-02
1153.223, 1.8731570E-02
1155.152, 1.7730650E-02
1157.080, 1.6914889E-02
1159.009, 1.6369140E-02
1160.937, 1.5702071E-02
1162.865, 1.5156130E-02
1164.794, 1.4628250E-02
1166.722, 1.3815920E-02
1168.651, 1.3143150E-02
1170.579, 1.2625980E-02
1172.508, 1.2380090E-02
1174.436, 1.2036520E-02
1176.365, 1.1597820E-02
1178.293, 1.1326360E-02
1180.222, 1.0796460E-02
1182.150, 1.0388600E-02
1184.079, 1.0196010E-02
1186.007, 1.0069250E-02
1187.936, 9.7600082E-03
1189.864, 9.4317226E-03
1191.792, 9.2335446E-03
1193.721, 9.0183029E-03
1195.649, 8.7967394E-03
1197.578, 8.5903741E-03
1199.506, 8.4839314E-03
1201.435, 8.0141928E-03
1203.363, 7.3787770E-03
1205.292, 6.9030798E-03
1207.220, 6.6704680E-03
1209.149, 6.4779539E-03
1211.077, 6.3805571E-03
1213.006, 6.3149300E-03
1214.934, 6.0185641E-03
1216.863, 5.5472301E-03
1218.791, 5.1890658E-03
1220.719, 5.1507130E-03
1222.648, 4.9277782E-03
1224.576, 4.8051290E-03
1226.505, 4.6916562E-03
1228.433, 4.6595312E-03
1230.362, 4.4055632E-03
1232.290, 4.1938238E-03
1234.219, 4.4606500E-03
1236.147, 4.4855028E-03
1238.076, 4.2674718E-03
1240.004, 4.1121328E-03
1241.933, 4.0584481E-03
1243.861, 4.1463119E-03
1245.790, 4.3281801E-03
1247.718, 4.1962070E-03
1249.646, 4.0116538E-03
1251.575, 4.1749929E-03
1253.503, 4.0721982E-03
1255.432, 3.8090069E-03
1257.360, 3.8053771E-03
1259.289, 3.8681920E-03
1261.217, 3.8607740E-03
1263.146, 3.3644470E-03
1265.074, 3.5131229E-03
1267.003, 3.8992860E-03
1268.931, 3.9220741E-03
1270.860, 4.0579070E-03
1272.788, 4.0254481E-03
1274.717, 4.0563941E-03
1276.645, 4.1491250E-03
1278.573, 4.3999739E-03
1280.502, 4.4610971E-03
1282.430, 4.3743150E-03
1284.359, 4.3070391E-03
1286.287, 4.2216000E-03
1288.216, 4.2647878E-03
1290.144, 4.3723211E-03
1292.073, 4.3421830E-03
1294.001, 4.5489278E-03
1295.930, 4.5804689E-03
1297.858, 4.4604000E-03
1299.787, 4.2686388E-03
1301.715, 4.3676770E-03
1303.644, 4.7376961E-03
1305.572, 4.9150311E-03
1307.500, 4.8096450E-03
1309.429, 4.7550020E-03
1311.357, 4.9553518E-03
1313.286, 5.2065258E-03
1315.214, 5.3153741E-03
1317.143, 5.3586299E-03
1319.071, 5.5650380E-03
1321.000, 5.7905782E-03
1322.928, 5.5957842E-03
1324.857, 5.4634400E-03
1326.785, 5.8059460E-03
1328.714, 6.0581858E-03
1330.642, 5.9704799E-03
1332.571, 6.2000039E-03
1334.499, 6.4115641E-03
1336.427, 6.5752738E-03
1338.356, 6.6535221E-03
1340.284, 6.9707148E-03
1342.213, 7.2284350E-03
1344.141, 7.4914838E-03
1346.070, 7.7882260E-03
1347.998, 8.1295865E-03
1349.927, 8.6866235E-03
1351.855, 9.0122074E-03
1353.784, 9.5860083E-03
1355.712, 1.0450670E-02
1357.641, 1.1326600E-02
1359.569, 1.2420490E-02
1361.498, 1.3295880E-02
1363.426, 1.3855400E-02
1365.354, 1.4234150E-02
1367.283, 1.3953440E-02
1369.211, 1.2855710E-02
1371.140, 1.1746910E-02
1373.068, 1.1093770E-02
1374.997, 1.0843220E-02
1376.925, 1.0410450E-02
1378.854, 1.0178830E-02
1380.782, 1.0271390E-02
1382.711, 1.0355130E-02
1384.639, 1.0286080E-02
1386.568, 1.0358030E-02
1388.496, 1.0618820E-02
1390.424, 1.1001710E-02
1392.353, 1.1074340E-02
1394.281, 1.1246760E-02
1396.210, 1.1454490E-02
1398.138, 1.1650960E-02
1400.067, 1.1906400E-02
1401.995, 1.2262370E-02
1403.924, 1.2406930E-02
1405.852, 1.2582060E-02
1407.781, 1.2979230E-02
1409.709, 1.2977440E-02
1411.638, 1.3095300E-02
1413.566, 1.3325910E-02
1415.495, 1.3396050E-02
1417.423, 1.3435900E-02
1419.351, 1.3814540E-02
1421.280, 1.4246570E-02
1423.208, 1.4720360E-02
1425.137, 1.4832630E-02
1427.065, 1.4734780E-02
1428.994, 1.4985200E-02
1430.922, 1.5127980E-02
1432.851, 1.5078900E-02
1434.779, 1.5318320E-02
1436.708, 1.5596570E-02
1438.636, 1.5569460E-02
1440.565, 1.5551130E-02
1442.493, 1.5704161E-02
1444.422, 1.5998119E-02
1446.350, 1.6160540E-02
1448.278, 1.6336370E-02
1450.207, 1.6232081E-02
1452.135, 1.6057450E-02
1454.064, 1.6234070E-02
1455.992, 1.6327091E-02
1457.921, 1.6023809E-02
1459.849, 1.5840540E-02
1461.778, 1.5679089E-02
1463.706, 1.5600170E-02
1465.635, 1.5557370E-02
1467.563, 1.5372920E-02
1469.492, 1.5090630E-02
1471.420, 1.5162450E-02
1473.349, 1.5217570E-02
1475.277, 1.4820440E-02
1477.205, 1.4624600E-02
1479.134, 1.4717310E-02
1481.062, 1.4642410E-02
1482.991, 1.4011220E-02
1484.919, 1.3951400E-02
1486.848, 1.4273410E-02
1488.776, 1.4359260E-02
1490.705, 1.4505280E-02
1492.633, 1.4522080E-02
1494.562, 1.4853840E-02
1496.490, 1.5583500E-02
1498.419, 1.6277431E-02
1500.347, 1.6734689E-02
1502.276, 1.7070720E-02
1504.204, 1.7402850E-02
1506.132, 1.7297611E-02
1508.061, 1.6427981E-02
1509.989, 1.5568500E-02
1511.918, 1.4896870E-02
1513.846, 1.4185310E-02
1515.775, 1.3323690E-02
1517.703, 1.2574940E-02
1519.632, 1.1963150E-02
1521.560, 1.1396720E-02
1523.489, 1.0914670E-02
1525.417, 1.0670290E-02
1527.346, 1.0390080E-02
1529.274, 1.0159580E-02
1531.203, 9.7510628E-03
1533.131, 9.6066529E-03
1535.059, 9.7928112E-03
1536.988, 9.9837463E-03
1538.916, 9.8200059E-03
1540.845, 9.4061531E-03
1542.773, 8.9860652E-03
1544.702, 9.0148309E-03
1546.630, 9.0746516E-03
1548.559, 9.0995412E-03
1550.487, 9.0208948E-03
1552.416, 8.7580634E-03
1554.344, 8.9543974E-03
1556.273, 9.1750808E-03
1558.201, 9.1651501E-03
1560.130, 9.1521796E-03
1562.058, 9.0158312E-03
1563.986, 9.0661906E-03
1565.915, 9.1192285E-03
1567.843, 9.0971310E-03
1569.772, 9.1158580E-03
1571.700, 8.8243382E-03
1573.629, 8.7057184E-03
1575.557, 8.9919679E-03
1577.486, 8.9427615E-03
1579.414, 8.5826013E-03
1581.343, 8.7052500E-03
1583.271, 9.0954741E-03
1585.200, 9.0694027E-03
1587.128, 8.8738278E-03
1589.057, 8.4726214E-03
1590.985, 8.3392002E-03
1592.913, 8.4990086E-03
1594.842, 8.5398452E-03
1596.770, 8.4120454E-03
1598.699, 8.5505769E-03
1600.627, 8.8766748E-03
1602.556, 8.9346441E-03
1604.484, 8.7880641E-03
1606.413, 8.6516514E-03
1608.341, 8.6002611E-03
1610.270, 8.6368239E-03
1612.198, 8.5961698E-03
1614.127, 8.8437479E-03
1616.055, 9.3393177E-03
1617.984, 9.5489537E-03
1619.912, 9.5162112E-03
1621.840, 9.4401753E-03
1623.769, 9.3028285E-03
1625.697, 9.2561301E-03
1627.626, 9.0732155E-03
1629.554, 8.8392096E-03
1631.483, 8.9251017E-03
1633.411, 9.3199564E-03
1635.340, 9.1666020E-03
1637.268, 8.7620271E-03
1639.197, 8.5402308E-03
1641.125, 8.4806643E-03
1643.054, 9.1303773E-03
1644.982, 9.5005250E-03
1646.911, 9.0802377E-03
1648.839, 8.9520030E-03
1650.767, 9.0377452E-03
1652.696, 9.5218793E-03
1654.624, 9.8032122E-03
1656.553, 9.2954058E-03
1658.481, 8.9520514E-03
1660.410, 9.0442384E-03
1662.338, 8.9212852E-03
1664.267, 8.6980257E-03
1666.195, 8.9233713E-03
1668.124, 9.0961624E-03
1670.052, 8.9027407E-03
1671.981, 9.1398023E-03
1673.909, 9.3943132E-03
1675.838, 9.3753813E-03
1677.766, 9.1240294E-03
1679.694, 9.0543823E-03
1681.623, 9.2309946E-03
1683.551, 9.4045792E-03
1685.480, 9.4649652E-03
1687.408, 9.1525745E-03
1689.337, 9.0809129E-03
1691.265, 9.0159373E-03
1693.194, 8.9670969E-03
1695.122, 8.8525219E-03
1697.051, 8.8303816E-03
1698.979, 8.9575062E-03
1700.908, 8.9228936E-03
1702.836, 8.7654172E-03
1704.765, 8.7312181E-03
1706.693, 8.8530844E-03
1708.621, 9.0833604E-03
1710.550, 9.2235208E-03
1712.478, 9.1102961E-03
1714.407, 9.4273519E-03
1716.335, 9.7163012E-03
1718.264, 8.9323511E-03
1720.192, 8.5975090E-03
1722.121, 8.9897066E-03
1724.049, 8.9301672E-03
1725.978, 8.8605816E-03
1727.906, 9.1034677E-03
1729.835, 9.3544330E-03
1731.763, 9.2767887E-03
1733.692, 9.0074353E-03
1735.620, 8.4391655E-03
1737.548, 8.0667734E-03
1739.477, 7.7845058E-03
1741.405, 7.8175059E-03
1743.334, 8.2037542E-03
1745.262, 8.4607881E-03
1747.191, 8.2254736E-03
1749.119, 8.2819518E-03
1751.048, 8.3399443E-03
1752.976, 8.3089042E-03
1754.905, 8.3935866E-03
1756.833, 8.4976330E-03
1758.762, 8.9646121E-03
1760.690, 9.3430392E-03
1762.619, 9.0838484E-03
1764.547, 8.7287687E-03
1766.475, 8.9345854E-03
1768.404, 8.8669220E-03
1770.332, 8.8782534E-03
1772.261, 9.5672738E-03
1774.189, 9.2801936E-03
1776.118, 8.6999992E-03
1778.046, 8.9012040E-03
1779.975, 9.8127518E-03
1781.903, 1.0244820E-02
1783.832, 9.7827148E-03
1785.760, 9.6375113E-03
1787.689, 9.9891257E-03
1789.617, 1.0214910E-02
1791.546, 9.8103508E-03
1793.474, 9.3197208E-03
1795.402, 8.9359796E-03
1797.331, 8.9302761E-03
1799.259, 9.2580216E-03
1801.188, 9.4974656E-03
1803.116, 9.1712289E-03
1805.045, 8.8831875E-03
1806.973, 9.1406275E-03
1808.902, 9.4303396E-03
1810.830, 9.4490172E-03
1812.759, 8.8978838E-03
1814.687, 8.8579720E-03
1816.616, 9.4101261E-03
1818.544, 9.9433642E-03
1820.473, 1.0109080E-02
1822.401, 9.9685499E-03
1824.329, 9.1829887E-03
1826.258, 8.8159340E-03
1828.186, 9.1038067E-03
1830.115, 9.0150917E-03
1832.043, 8.9287581E-03
1833.972, 9.5250001E-03
1835.900, 9.8755294E-03
1837.829, 9.4723757E-03
1839.757, 9.8814024E-03
1841.686, 1.0472040E-02
1843.614, 1.0947640E-02
1845.543, 1.0706940E-02
1847.471, 1.0449990E-02
1849.400, 1.0456240E-02
1851.328, 1.0164920E-02
1853.256, 9.9604977E-03
1855.185, 9.9577932E-03
1857.113, 1.0069950E-02
1859.042, 1.0398310E-02
1860.970, 1.0465380E-02
1862.899, 9.8934043E-03
1864.827, 9.7743655E-03
1866.756, 9.7685093E-03
1868.684, 1.0053190E-02
1870.613, 1.0081830E-02
1872.541, 1.0362020E-02
1874.470, 1.0622080E-02
1876.398, 1.0513530E-02
1878.327, 9.9095013E-03
1880.255, 1.0484590E-02
1882.183, 1.1071600E-02
1884.112, 1.0406190E-02
1886.040, 1.0500010E-02
1887.969, 1.1604240E-02
1889.897, 1.1858870E-02
1891.826, 1.1217210E-02
1893.754, 1.0110630E-02
1895.683, 1.0052120E-02
1897.611, 1.0853680E-02
1899.540, 1.1411950E-02
1901.468, 1.1794640E-02
1903.397, 1.1555670E-02
1905.325, 1.0814970E-02
1907.254, 1.0355070E-02
1909.182, 1.0531780E-02
1911.110, 1.0296250E-02
1913.039, 9.6567087E-03
1914.967, 9.9073267E-03
1916.896, 1.0229360E-02
1918.824, 1.0178570E-02
1920.753, 1.1056920E-02
1922.681, 1.1491810E-02
1924.610, 1.1128880E-02
1926.538, 1.0499530E-02
1928.467, 1.0935900E-02
1930.395, 1.1005870E-02
1932.324, 1.0643490E-02
1934.252, 9.9642947E-03
1936.181, 9.2608118E-03
1938.109, 9.2173154E-03
1940.037, 1.1009660E-02
1941.966, 1.1910610E-02
1943.894, 1.1226750E-02
1945.823, 1.0354420E-02
1947.751, 1.0528480E-02
1949.680, 1.0561930E-02
1951.608, 9.8025324E-03
1953.537, 9.3219699E-03
1955.465, 7.6127942E-03
1957.394, 7.0984438E-03
1959.322, 1.0375910E-02
1961.251, 1.3159310E-02
1963.179, 1.2173200E-02
1965.108, 1.0414920E-02
1967.036, 9.8089483E-03
1968.964, 1.1275350E-02
1970.893, 1.0179810E-02
1972.821, 8.0179945E-03
1974.750, 7.9763634E-03
1976.678, 9.7145354E-03
1978.607, 1.0343460E-02
1980.535, 8.8376971E-03
1982.464, 8.1158634E-03
1984.392, 1.0130510E-02
1986.321, 1.0851860E-02
1988.249, 1.0256730E-02
1990.178, 1.0447670E-02
1992.106, 1.0746120E-02
1994.035, 9.0477420E-03
1995.963, 7.6746359E-03
1997.891, 7.6984810E-03
1999.820, 8.9275669E-03
2001.748, 1.0730920E-02
2003.677, 1.0906480E-02
2005.605, 1.0145950E-02
2007.534, 9.6098976E-03
2009.462, 9.7809155E-03
2011.391, 8.4495964E-03
2013.319, 7.9345517E-03
2015.248, 1.0553120E-02
2017.176, 1.1159810E-02
2019.105, 1.1485810E-02
2021.033, 1.0174470E-02
2022.962, 6.5350970E-03
2024.890, 7.9744663E-03
2026.818, 8.9535154E-03
2028.747, 6.9575040E-03
2030.675, 7.6157488E-03
2032.604, 9.6510574E-03
2034.532, 1.0075370E-02
2036.461, 7.8532277E-03
2038.389, 9.6928654E-03
2040.318, 1.2409130E-02
2042.246, 1.2678160E-02
2044.175, 1.0888210E-02
2046.103, 9.3083866E-03
2048.032, 9.8047201E-03
2049.960, 1.0341820E-02
2051.889, 9.8060677E-03
2053.817, 1.0462480E-02
2055.746, 1.1040450E-02
2057.674, 8.8937515E-03
2059.603, 8.1644058E-03
2061.531, 7.3504681E-03
2063.459, 7.1186558E-03
2065.388, 8.1983209E-03
2067.316, 1.0958490E-02
2069.245, 1.2809330E-02
2071.173, 1.1945280E-02
2073.102, 1.1276240E-02
2075.030, 1.1557460E-02
2076.959, 1.1433880E-02
2078.887, 1.0587200E-02
2080.816, 1.0556350E-02
2082.744, 1.1092880E-02
2084.673, 1.1430040E-02
2086.601, 1.1305840E-02
2088.530, 1.1450630E-02
2090.458, 1.2113430E-02
2092.386, 1.1510530E-02
2094.315, 1.1027430E-02
2096.243, 1.2344850E-02
2098.172, 1.4092410E-02
2100.100, 1.3052080E-02
2102.029, 1.0884980E-02
2103.957, 1.1016110E-02
2105.886, 1.2202050E-02
2107.814, 1.1739910E-02
2109.743, 1.2972880E-02
2111.671, 1.3905630E-02
2113.600, 1.3117070E-02
2115.528, 1.2176590E-02
2117.457, 1.2155700E-02
2119.385, 1.1833740E-02
2121.313, 1.1350460E-02
2123.242, 1.2329710E-02
2125.170, 1.2238080E-02
2127.099, 1.1603990E-02
2129.027, 9.3987538E-03
2130.956, 8.0169067E-03
2132.884, 6.9407499E-03
2134.813, 9.8186806E-03
2136.741, 1.3547290E-02
2138.670, 1.2640310E-02
2140.598, 9.0871351E-03
2142.527, 7.5173751E-03
2144.455, 9.7093685E-03
2146.384, 1.0847110E-02
2148.312, 9.4615240E-03
2150.240, 8.3461981E-03
2152.169, 8.4439851E-03
2154.097, 5.2555818E-03
2156.026, 2.2076010E-03
2157.954, 5.9826579E-03
2159.883, 1.1751970E-02
2161.811, 1.4193340E-02
2163.740, 1.5509180E-02
2165.668, 1.7787810E-02
2167.597, 1.5133570E-02
2169.525, 1.1276910E-02
2171.454, 1.0597190E-02
2173.382, 1.2155440E-02
2175.311, 1.1315960E-02
2177.239, 1.0220530E-02
2179.167, 1.1272960E-02
2181.096, 1.3279930E-02
2183.024, 1.3698870E-02
2184.953, 1.2512660E-02
2186.881, 1.2730770E-02
2188.810, 1.2731420E-02
2190.738, 1.2895370E-02
2192.667, 1.4171940E-02
2194.595, 1.5182120E-02
2196.524, 1.4193990E-02
2198.452, 1.2476230E-02
2200.381, 1.2708720E-02
2202.309, 1.3779760E-02
2204.238, 1.4926820E-02
2206.166, 1.4174020E-02
2208.094, 1.4596150E-02
2210.023, 1.3692080E-02
2211.951, 1.3333800E-02
2213.880, 1.4269810E-02
2215.808, 1.4552930E-02
2217.737, 1.4872400E-02
2219.665, 1.4606260E-02
2221.594, 1.4182220E-02
2223.522, 1.4043600E-02
2225.451, 1.4235510E-02
2227.379, 1.4312410E-02
2229.308, 1.3606510E-02
2231.236, 1.4677070E-02
2233.165, 1.6300000E-02
2235.093, 1.6469009E-02
2237.021, 1.5733380E-02
2238.950, 1.5227670E-02
2240.878, 1.6048361E-02
2242.807, 1.7261559E-02
2244.735, 1.8317780E-02
2246.664, 1.6471360E-02
2248.592, 1.4903040E-02
2250.521, 1.4664180E-02
2252.449, 1.5382560E-02
2254.378, 1.6535660E-02
2256.306, 1.7073670E-02
2258.235, 1.8630009E-02
2260.163, 1.8784219E-02
2262.092, 1.7986620E-02
2264.020, 1.9080350E-02
2265.948, 1.9580681E-02
2267.877, 1.9147949E-02
2269.805, 1.8825730E-02
2271.734, 1.8576071E-02
2273.662, 1.8309141E-02
2275.591, 1.7372221E-02
2277.519, 1.7638730E-02
2279.448, 1.9705961E-02
2281.376, 1.9901309E-02
2283.305, 1.9074650E-02
2285.233, 1.9625450E-02
2287.162, 2.0361200E-02
2289.090, 2.1006580E-02
2291.019, 2.1107391E-02
2292.947, 2.0840481E-02
2294.875, 2.0627260E-02
2296.804, 2.0638930E-02
2298.732, 2.1092890E-02
2300.661, 2.0854769E-02
2302.589, 2.0815780E-02
2304.518, 2.1127339E-02
2306.446, 2.0295929E-02
2308.375, 1.9168150E-02
2310.303, 1.9151939E-02
2312.232, 2.0082621E-02
2314.160, 2.0662060E-02
2316.089, 2.1695411E-02
2318.017, 2.1706641E-02
2319.946, 2.1426979E-02
2321.874, 2.2590291E-02
2323.802, 2.3256520E-02
2325.731, 2.2240801E-02
2327.659, 2.1240881E-02
2329.588, 2.1121480E-02
2331.516, 2.2144031E-02
2333.445, 2.2634950E-02
2335.373, 2.2757800E-02
2337.302, 2.2968750E-02
2339.230, 2.2725470E-02
2341.159, 2.2263121E-02
2343.087, 2.2439631E-02
2345.016, 2.1916119E-02
2346.944, 2.0495661E-02
2348.873, 2.0241600E-02
2350.801, 2.1548459E-02
2352.729, 2.1783290E-02
2354.658, 2.2531779E-02
2356.586, 2.3925141E-02
2358.515, 2.4300691E-02
2360.443, 2.3127209E-02
2362.372, 2.2282289E-02
2364.300, 2.2894690E-02
2366.229, 2.2575980E-02
2368.157, 2.1953059E-02
2370.086, 2.2246551E-02
2372.014, 2.1680551E-02
2373.942, 2.1015260E-02
2375.871, 2.1145061E-02
2377.799, 2.0816730E-02
2379.728, 2.0741651E-02
2381.656, 2.0303980E-02
2383.585, 2.0369390E-02
2385.513, 2.0646689E-02
2387.442, 1.9539950E-02
2389.370, 1.9228481E-02
2391.299, 1.9175800E-02
2393.227, 1.8797720E-02
2395.156, 1.9603970E-02
2397.084, 2.0630410E-02
2399.012, 2.0881429E-02
2400.941, 2.1723570E-02
2402.869, 2.1803459E-02
2404.798, 2.0996910E-02
2406.726, 2.1243790E-02
2408.655, 2.1538340E-02
2410.583, 2.1898489E-02
2412.512, 2.1632230E-02
2414.440, 2.1362741E-02
2416.369, 2.1416010E-02
2418.297, 2.1087959E-02
2420.226, 2.1045949E-02
2422.154, 2.1361209E-02
2424.083, 2.1282731E-02
2426.011, 2.1756889E-02
2427.939, 2.2173969E-02
2429.868, 2.1020070E-02
2431.796, 2.0656170E-02
2433.725, 2.0682501E-02
2435.653, 2.0943340E-02
2437.582, 2.1268981E-02
2439.510, 2.1504540E-02
2441.439, 2.2614131E-02
2443.367, 2.1788331E-02
2445.296, 2.1128399E-02
2447.224, 2.2198720E-02
2449.153, 2.2559240E-02
2451.081, 2.2699369E-02
2453.010, 2.2439700E-02
2454.938, 2.1839119E-02
2456.866, 2.0677119E-02
2458.795, 2.0913500E-02
2460.723, 2.2041731E-02
2462.652, 2.2513160E-02
2464.580, 2.2028171E-02
2466.509, 2.1187071E-02
2468.437, 2.0026591E-02
2470.366, 2.0196700E-02
2472.294, 2.1124970E-02
2474.223, 2.0914640E-02
2476.151, 2.0668291E-02
2478.080, 2.1208821E-02
2480.008, 2.1983640E-02
2481.937, 2.3187350E-02
2483.865, 2.3076219E-02
2485.793, 2.2235939E-02
2487.722, 2.1723550E-02
2489.650, 2.2538761E-02
2491.579, 2.2614639E-02
2493.507, 2.2266140E-02
2495.436, 2.1689931E-02
2497.364, 2.2012170E-02
2499.293, 2.2584880E-02
2501.221, 2.2545859E-02
2503.150, 2.2461550E-02
2505.078, 2.3194261E-02
2507.007, 2.3418510E-02
2508.935, 2.3177071E-02
2510.864, 2.2779990E-02
2512.792, 2.2465890E-02
2514.720, 2.1589380E-02
2516.649, 2.1274891E-02
2518.577, 2.1422410E-02
2520.506, 2.2440059E-02
2522.434, 2.3605671E-02
2524.363, 2.2705270E-02
2526.291, 2.1536680E-02
2528.220, 2.1921299E-02
2530.148, 2.1457311E-02
2532.077, 2.1204200E-02
2534.005, 2.2698659E-02
2535.934, 2.4101591E-02
2537.862, 2.3720739E-02
2539.791, 2.2940271E-02
2541.719, 2.2873759E-02
2543.647, 2.3252310E-02
2545.576, 2.3854811E-02
2547.504, 2.3578379E-02
2549.433, 2.2763301E-02
2551.361, 2.3393190E-02
2553.290, 2.3244729E-02
2555.218, 2.3676321E-02
2557.147, 2.4015620E-02
2559.075, 2.3752339E-02
2561.004, 2.3217650E-02
2562.932, 2.3359310E-02
2564.861, 2.3688059E-02
2566.789, 2.4686610E-02
2568.718, 2.4388630E-02
2570.646, 2.3754019E-02
2572.574, 2.4274619E-02
2574.503, 2.4579581E-02
2576.431, 2.4626009E-02
2578.360, 2.3965551E-02
2580.288, 2.3463460E-02
2582.217, 2.3903411E-02
2584.145, 2.5119340E-02
2586.074, 2.5359539E-02
2588.002, 2.4752559E-02
2589.931, 2.3631230E-02
2591.859, 2.3910560E-02
2593.788, 2.4393899E-02
2595.716, 2.4842780E-02
2597.645, 2.4955910E-02
2599.573, 2.5808509E-02
2601.501, 2.7037941E-02
2603.430, 2.6635829E-02
2605.358, 2.5336310E-02
2607.287, 2.4543369E-02
2609.215, 2.3782300E-02
2611.144, 2.4242161E-02
2613.072, 2.4733910E-02
2615.001, 2.4983320E-02
2616.929, 2.5007419E-02
2618.858, 2.4299329E-02
2620.786, 2.4369650E-02
2622.715, 2.4748901E-02
2624.643, 2.5002461E-02
2626.572, 2.4862580E-02
2628.500, 2.5834290E-02
2630.428, 2.6454549E-02
2632.357, 2.4996329E-02
2634.285, 2.4517560E-02
2636.214, 2.5543841E-02
2638.142, 2.5274290E-02
2640.071, 2.5567699E-02
2641.999, 2.6607020E-02
2643.928, 2.6251730E-02
2645.856, 2.5631441E-02
2647.785, 2.5772940E-02
2649.713, 2.5831761E-02
2651.642, 2.5561171E-02
2653.570, 2.5109790E-02
2655.499, 2.5515139E-02
2657.427, 2.5973869E-02
2659.355, 2.5387080E-02
2661.284, 2.5015799E-02
2663.212, 2.5709530E-02
2665.141, 2.5542790E-02
2667.069, 2.5080569E-02
2668.998, 2.5133669E-02
2670.926, 2.4963830E-02
2672.855, 2.4424659E-02
2674.783, 2.4762470E-02
2676.712, 2.4784939E-02
2678.640, 2.4742151E-02
2680.569, 2.5141260E-02
2682.497, 2.6259361E-02
2684.426, 2.6422979E-02
2686.354, 2.6043240E-02
2688.282, 2.6223620E-02
2690.211, 2.6097121E-02
2692.139, 2.6666630E-02
2694.068, 2.6447769E-02
2695.996, 2.5973130E-02
2697.925, 2.6771041E-02
2699.853, 2.7137380E-02
2701.782, 2.7048480E-02
2703.710, 2.6087740E-02
2705.639, 2.4479359E-02
2707.567, 2.4887741E-02
2709.496, 2.5910979E-02
2711.424, 2.6311271E-02
2713.353, 2.5817640E-02
2715.281, 2.6554890E-02
2717.209, 2.7143050E-02
2719.138, 2.6575930E-02
2721.066, 2.6287571E-02
2722.995, 2.5949510E-02
2724.923, 2.6107989E-02
2726.852, 2.6285170E-02
2728.780, 2.6370320E-02
2730.709, 2.6515150E-02
2732.637, 2.5721300E-02
2734.566, 2.5795940E-02
2736.494, 2.6283281E-02
2738.423, 2.6889330E-02
2740.351, 2.7593691E-02
2742.280, 2.7598230E-02
2744.208, 2.7870409E-02
2746.136, 2.7624199E-02
2748.065, 2.7015669E-02
2749.993, 2.7717270E-02
2751.922, 2.8057130E-02
2753.850, 2.6781380E-02
2755.779, 2.6555600E-02
2757.707, 2.7769400E-02
2759.636, 2.8787849E-02
2761.564, 2.8369131E-02
2763.493, 2.7457450E-02
2765.421, 2.7780490E-02
2767.350, 2.8074371E-02
2769.278, 2.7402930E-02
2771.207, 2.7070461E-02
2773.135, 2.7725680E-02
2775.063, 2.8078280E-02
2776.992, 2.7693819E-02
2778.920, 2.8802671E-02
2780.849, 2.9369259E-02
2782.777, 2.8488111E-02
2784.706, 2.7245080E-02
2786.634, 2.6276549E-02
2788.563, 2.6854990E-02
2790.491, 2.8035080E-02
2792.420, 2.7693840E-02
2794.348, 2.8358700E-02
2796.277, 2.9770790E-02
2798.205, 3.0028500E-02
2800.134, 2.9514659E-02
2802.062, 2.9440530E-02
2803.990, 2.9507341E-02
2805.919, 2.9612221E-02
2807.847, 2.9359210E-02
2809.776, 2.9024281E-02
2811.704, 2.8918650E-02
2813.633, 2.8555840E-02
2815.561, 2.8053921E-02
2817.490, 2.7702279E-02
2819.418, 2.8570861E-02
2821.347, 2.8641401E-02
2823.275, 2.8953459E-02
2825.204, 2.9204249E-02
2827.132, 2.8223179E-02
2829.061, 2.8985530E-02
2830.989, 2.9683441E-02
2832.917, 2.9454149E-02
2834.846, 3.0615050E-02
2836.774, 3.0053711E-02
2838.703, 2.9133059E-02
2840.631, 2.9560570E-02
2842.560, 2.9796939E-02
2844.488, 2.9236730E-02
2846.417, 2.8878819E-02
2848.345, 2.8293280E-02
2850.274, 2.7045930E-02
2852.202, 2.6478531E-02
2854.131, 2.7790081E-02
2856.059, 3.0121589E-02
2857.988, 3.0794300E-02
2859.916, 3.0714640E-02
2861.844, 3.0973120E-02
2863.773, 3.1180790E-02
2865.701, 3.0532589E-02
2867.630, 2.9445980E-02
2869.558, 2.9169761E-02
2871.487, 3.0579999E-02
2873.415, 3.1167559E-02
2875.344, 3.0936580E-02
2877.272, 3.1760409E-02
2879.201, 3.2660749E-02
2881.129, 3.2408088E-02
2883.058, 3.2164142E-02
2884.986, 3.1901259E-02
2886.915, 3.1435501E-02
2888.843, 3.1410661E-02
2890.771, 3.1105520E-02
2892.700, 3.1496041E-02
2894.628, 3.1752892E-02
2896.557, 3.1027479E-02
2898.485, 3.2870140E-02
2900.414, 3.3751901E-02
2902.342, 3.2514460E-02
2904.271, 3.2355089E-02
2906.199, 3.1265199E-02
2908.128, 3.1125650E-02
2910.056, 3.1838272E-02
2911.985, 3.1365521E-02
2913.913, 3.0973939E-02
2915.842, 2.9720260E-02
2917.770, 2.8636049E-02
2919.698, 2.8415930E-02
2921.627, 2.8129820E-02
2923.555, 2.8943731E-02
2925.484, 3.0446850E-02
2927.412, 3.0457180E-02
2929.341, 2.9692421E-02
2931.269, 2.9909620E-02
2933.198, 3.0400321E-02
2935.126, 3.0945711E-02
2937.055, 3.1840481E-02
2938.983, 3.0441530E-02
2940.912, 3.0177120E-02
2942.840, 3.1343371E-02
2944.769, 3.1936511E-02
2946.697, 3.1084010E-02
2948.625, 3.0983141E-02
2950.554, 3.1494271E-02
2952.482, 3.1979650E-02
2954.411, 3.1759892E-02
2956.339, 3.1788751E-02
2958.268, 3.1981818E-02
2960.196, 3.1570248E-02
2962.125, 3.1473540E-02
2964.053, 3.2363381E-02
2965.982, 3.3650510E-02
2967.910, 3.4014020E-02
2969.839, 3.2810461E-02
2971.767, 3.2460831E-02
2973.696, 3.2984871E-02
2975.624, 3.3805959E-02
2977.552, 3.3333641E-02
2979.481, 3.1556591E-02
2981.409, 3.2225721E-02
2983.338, 3.3402070E-02
2985.266, 3.3829711E-02
2987.195, 3.4477539E-02
2989.123, 3.3807140E-02
2991.052, 3.2957502E-02
2992.980, 3.3205491E-02
2994.909, 3.3340611E-02
2996.837, 3.1852640E-02
2998.766, 3.2354649E-02
3000.694, 3.2426011E-02
3002.623, 3.3192251E-02
3004.551, 3.3454791E-02
3006.479, 3.2573711E-02
3008.408, 3.1665642E-02
3010.336, 3.1808879E-02
3012.265, 3.3258501E-02
3014.193, 3.4572858E-02
3016.122, 3.4022130E-02
3018.050, 3.3432651E-02
3019.979, 3.3422600E-02
3021.907, 3.2704931E-02
3023.836, 3.2985911E-02
3025.764, 3.3781100E-02
3027.693, 3.4722030E-02
3029.621, 3.5811350E-02
3031.550, 3.5525769E-02
3033.478, 3.4739979E-02
3035.406, 3.5375278E-02
3037.335, 3.6436889E-02
3039.263, 3.6073111E-02
3041.192, 3.5615262E-02
3043.120, 3.5430171E-02
3045.049, 3.4272730E-02
3046.977, 3.3147462E-02
3048.906, 3.3339988E-02
3050.834, 3.4048140E-02
3052.763, 3.3710100E-02
3054.691, 3.4654260E-02
3056.620, 3.6133189E-02
3058.548, 3.6170051E-02
3060.477, 3.4797870E-02
3062.405, 3.4489218E-02
3064.333, 3.5448350E-02
3066.262, 3.4676760E-02
3068.190, 3.3974309E-02
3070.119, 3.5315230E-02
3072.047, 3.5881039E-02
3073.976, 3.5087280E-02
3075.904, 3.3422548E-02
3077.833, 3.3335179E-02
3079.761, 3.5063639E-02
3081.690, 3.4348279E-02
3083.618, 3.4165580E-02
3085.547, 3.4366410E-02
3087.475, 3.3424821E-02
3089.404, 3.4391619E-02
3091.332, 3.5562191E-02
3093.260, 3.5539009E-02
3095.189, 3.4285791E-02
3097.117, 3.4769788E-02
3099.046, 3.4721158E-02
3100.974, 3.4100931E-02
3102.903, 3.3791501E-02
3104.831, 3.4987520E-02
3106.760, 3.7701558E-02
3108.688, 3.8138010E-02
3110.617, 3.7335180E-02
3112.545, 3.6235601E-02
3114.474, 3.7170161E-02
3116.402, 3.7608981E-02
3118.331, 3.7683241E-02
3120.259, 3.6304381E-02
3122.188, 3.5746761E-02
3124.116, 3.8040031E-02
3126.044, 3.8830269E-02
3127.973, 3.7418950E-02
3129.901, 3.6760461E-02
3131.830, 3.7074000E-02
3133.758, 3.6946159E-02
3135.687, 3.6389969E-02
3137.615, 3.6390360E-02
3139.544, 3.7381690E-02
3141.472, 3.8427789E-02
3143.401, 3.8244750E-02
3145.329, 3.7257999E-02
3147.258, 3.5790458E-02
3149.186, 3.5527069E-02
3151.115, 3.7190381E-02
3153.043, 3.8494218E-02
3154.971, 3.9246392E-02
3156.900, 4.0268239E-02
3158.828, 3.9010592E-02
3160.757, 3.8460109E-02
3162.685, 3.9672039E-02
3164.614, 3.9274409E-02
3166.542, 3.8180090E-02
3168.471, 3.9680861E-02
3170.399, 4.0861320E-02
3172.328, 4.0149640E-02
3174.256, 3.9118551E-02
3176.185, 3.7975680E-02
3178.113, 3.8643911E-02
3180.042, 3.8298119E-02
3181.970, 3.8961250E-02
3183.898, 4.1032691E-02
3185.827, 4.1674670E-02
3187.755, 3.9942920E-02
3189.684, 3.8722329E-02
3191.612, 3.8338859E-02
3193.541, 3.9624151E-02
3195.469, 4.0600270E-02
3197.398, 4.0094711E-02
3199.326, 4.0074371E-02
3201.255, 4.0103659E-02
3203.183, 4.0910639E-02
3205.112, 4.2181529E-02
3207.040, 4.3197319E-02
3208.969, 4.2176720E-02
3210.897, 3.9934080E-02
3212.825, 3.8399331E-02
3214.754, 3.7366081E-02
3216.682, 3.9304279E-02
3218.611, 4.0045280E-02
3220.539, 3.9657321E-02
3222.468, 3.9687220E-02
3224.396, 3.9711852E-02
3226.325, 4.1858651E-02
3228.253, 4.1836061E-02
3230.182, 4.2389791E-02
3232.110, 4.3103360E-02
3234.039, 4.2350281E-02
3235.967, 4.1573629E-02
3237.896, 4.1439280E-02
3239.824, 4.1248828E-02
3241.752, 4.1038699E-02
3243.681, 4.0899899E-02
3245.609, 4.0763699E-02
3247.538, 3.9817989E-02
3249.466, 4.0990472E-02
3251.395, 4.2865161E-02
3253.323, 4.1299831E-02
3255.252, 3.9607599E-02
3257.180, 4.0736511E-02
3259.109, 4.3814339E-02
3261.037, 4.3240469E-02
3262.966, 4.2390730E-02
3264.894, 4.3435711E-02
3266.823, 4.4585060E-02
3268.751, 4.4228971E-02
3270.679, 4.4194691E-02
3272.608, 4.3756049E-02
3274.536, 4.3480650E-02
3276.465, 4.4443779E-02
3278.393, 4.5118880E-02
3280.322, 4.3130681E-02
3282.250, 4.2932641E-02
3284.179, 4.3976512E-02
3286.107, 4.3777209E-02
3288.036, 4.2521339E-02
3289.964, 4.2268358E-02
3291.893, 4.3322392E-02
3293.821, 4.4113390E-02
3295.750, 4.3675181E-02
3297.678, 4.3357980E-02
3299.606, 4.4925772E-02
3301.535, 4.4952251E-02
3303.463, 4.5018710E-02
3305.392, 4.2925209E-02
3307.320, 4.2601291E-02
3309.249, 4.3565270E-02
3311.177, 4.5437120E-02
3313.106, 4.7468591E-02
3315.034, 4.7943462E-02
3316.963, 4.6985079E-02
3318.891, 4.5896459E-02
3320.820, 4.5334261E-02
3322.748, 4.5195300E-02
3324.677, 4.5493890E-02
3326.605, 4.6202611E-02
3328.533, 4.6579711E-02
3330.462, 4.6976790E-02
3332.390, 4.7730848E-02
3334.319, 4.7180820E-02
3336.247, 4.6144340E-02
3338.176, 4.6268530E-02
3340.104, 4.7915351E-02
3342.033, 4.8575848E-02
3343.961, 4.8326999E-02
3345.890, 4.8730958E-02
3347.818, 5.0126001E-02
3349.747, 5.0096739E-02
3351.675, 4.8909400E-02
3353.604, 4.8902139E-02
3355.532, 4.8935670E-02
3357.460, 4.8488852E-02
3359.389, 4.9397741E-02
3361.317, 4.8611559E-02
3363.246, 4.7802221E-02
3365.174, 4.9021062E-02
3367.103, 5.1455811E-02
3369.031, 4.9738731E-02
3370.960, 4.9389031E-02
3372.888, 5.0469551E-02
3374.817, 5.1202059E-02
3376.745, 5.0418999E-02
3378.674, 4.9798392E-02
3380.602, 5.2132200E-02
3382.531, 5.2728981E-02
3384.459, 5.0930928E-02
3386.387, 5.0473079E-02
3388.316, 5.1982000E-02
3390.244, 5.2052081E-02
3392.173, 5.1294759E-02
3394.101, 5.1769391E-02
3396.030, 5.2190918E-02
3397.958, 5.1619269E-02
3399.887, 5.1997300E-02
3401.815, 5.4241091E-02
3403.744, 5.3953759E-02
3405.672, 5.2021969E-02
3407.601, 5.1928159E-02
3409.529, 5.4110970E-02
3411.458, 5.5682588E-02
3413.386, 5.5447880E-02
3415.314, 5.6283779E-02
3417.243, 5.7108909E-02
3419.171, 5.7373449E-02
3421.100, 5.8960669E-02
3423.028, 6.0571719E-02
3424.957, 6.3227147E-02
3426.885, 6.3721560E-02
3428.814, 6.1927430E-02
3430.742, 6.3084058E-02
3432.671, 6.7445993E-02
3434.599, 6.9646068E-02
3436.528, 7.0874803E-02
3438.456, 7.0005067E-02
3440.385, 6.9226228E-02
3442.313, 7.1532443E-02
3444.241, 7.6953180E-02
3446.170, 7.9342507E-02
3448.098, 7.9443783E-02
3450.027, 8.2132451E-02
3451.955, 8.5842893E-02
3453.884, 9.0367571E-02
3455.812, 9.4852827E-02
3457.741, 9.8834828E-02
3459.669, 0.1021952
3461.598, 0.1071249
3463.526, 0.1099817
3465.455, 0.1098047
3467.383, 0.1129283
3469.312, 0.1138154
3471.240, 0.1117634
3473.168, 0.1088784
3475.097, 0.1019420
3477.025, 9.5413350E-02
3478.954, 9.0968288E-02
3480.882, 8.5062593E-02
3482.811, 7.7830717E-02
3484.739, 7.2007626E-02
3486.668, 6.6145688E-02
3488.596, 5.9845529E-02
3490.525, 5.5300329E-02
3492.453, 5.5479828E-02
3494.382, 5.2756749E-02
3496.310, 4.8493590E-02
3498.239, 4.9081951E-02
3500.167, 4.7070950E-02
3502.095, 4.4155769E-02
3504.024, 4.3298502E-02
3505.952, 4.2542901E-02
3507.881, 4.0648680E-02
3509.809, 4.1169770E-02
3511.738, 4.2158131E-02
3513.666, 4.1534040E-02
3515.595, 4.1282151E-02
3517.523, 4.1281689E-02
3519.452, 4.2040601E-02
3521.380, 4.2521231E-02
3523.309, 4.1035969E-02
3525.237, 4.0083069E-02
3527.166, 3.7926700E-02
3529.094, 3.5403021E-02
3531.022, 3.6489550E-02
3532.951, 3.7949190E-02
3534.879, 3.7565000E-02
3536.808, 3.5182539E-02
3538.736, 3.2787561E-02
3540.665, 3.2908618E-02
3542.593, 3.2732170E-02
3544.522, 3.2741468E-02
3546.450, 3.5240829E-02
3548.379, 3.7976801E-02
3550.307, 3.6901001E-02
3552.236, 3.6329251E-02
3554.164, 3.7450772E-02
3556.093, 3.4715429E-02
3558.021, 3.2301828E-02
3559.949, 3.4135059E-02
3561.878, 3.4946211E-02
3563.806, 3.5735909E-02
3565.735, 3.4019269E-02
3567.663, 3.3924568E-02
3569.592, 3.5805780E-02
3571.520, 3.7578490E-02
3573.449, 3.4602500E-02
3575.377, 3.1570040E-02
3577.306, 3.4345109E-02
3579.234, 3.4811329E-02
3581.163, 3.2140229E-02
3583.091, 3.0868130E-02
3585.020, 3.5993721E-02
3586.948, 3.9075930E-02
3588.876, 3.6945179E-02
3590.805, 3.5683651E-02
3592.733, 3.5038311E-02
3594.662, 3.4938231E-02
3596.590, 3.4749810E-02
3598.519, 3.3113342E-02
3600.447, 3.0794609E-02
3602.376, 3.0627420E-02
3604.304, 3.5547420E-02
3606.233, 3.6237400E-02
3608.161, 3.4905490E-02
3610.090, 3.3828750E-02
3612.018, 3.2584060E-02
3613.947, 3.2412339E-02
3615.875, 3.3260930E-02
3617.803, 3.4572400E-02
3619.732, 3.6080081E-02
3621.660, 3.5085049E-02
3623.589, 3.4332171E-02
3625.517, 3.5860229E-02
3627.446, 3.5375491E-02
3629.374, 3.6858879E-02
3631.303, 3.7051041E-02
3633.231, 3.7111022E-02
3635.160, 3.8051270E-02
3637.088, 3.7362520E-02
3639.017, 3.5434939E-02
3640.945, 3.4614742E-02
3642.874, 3.4860220E-02
3644.802, 3.5219580E-02
3646.730, 3.5946071E-02
3648.659, 3.5696611E-02
3650.587, 3.3098109E-02
3652.516, 3.3675730E-02
3654.444, 3.7355591E-02
3656.373, 3.8715821E-02
3658.301, 3.7784241E-02
3660.230, 3.6040179E-02
3662.158, 3.5992011E-02
3664.087, 3.8298100E-02
3666.015, 3.8257420E-02
3667.944, 3.6924541E-02
3669.872, 3.8474541E-02
3671.801, 3.6788061E-02
3673.729, 3.3161510E-02
3675.657, 3.2596830E-02
3677.586, 3.1783629E-02
3679.514, 3.1033000E-02
3681.443, 2.9144390E-02
3683.371, 3.2071810E-02
3685.300, 3.5575699E-02
3687.228, 3.4640469E-02
3689.157, 3.4812111E-02
3691.085, 3.7332751E-02
3693.014, 3.9182540E-02
3694.942, 3.6786780E-02
3696.871, 3.6679901E-02
3698.799, 3.8593009E-02
3700.728, 3.6917899E-02
3702.656, 3.5782389E-02
3704.584, 3.6104281E-02
3706.513, 3.6684599E-02
3708.441, 3.7495211E-02
3710.370, 3.7013721E-02
3712.298, 3.5873309E-02
3714.227, 3.9113041E-02
3716.155, 4.0680479E-02
3718.084, 3.8236938E-02
3720.012, 3.4340221E-02
3721.941, 3.4592219E-02
3723.869, 3.7129320E-02
3725.798, 3.8759891E-02
3727.726, 3.7790582E-02
3729.655, 3.8355801E-02
3731.583, 3.7560631E-02
3733.511, 3.7683230E-02
3735.440, 4.0543199E-02
3737.368, 4.0629391E-02
3739.297, 4.0733829E-02
3741.225, 3.9026920E-02
3743.154, 3.7657682E-02
3745.082, 3.7010860E-02
3747.011, 3.9488811E-02
3748.939, 4.1735809E-02
3750.868, 3.7979510E-02
3752.796, 3.6405779E-02
3754.725, 3.5694040E-02
3756.653, 3.6814660E-02
3758.582, 3.5528701E-02
3760.510, 3.4219161E-02
3762.438, 3.8599141E-02
3764.367, 4.0454891E-02
3766.295, 4.0436979E-02
3768.224, 4.0738251E-02
3770.152, 4.0538698E-02
3772.081, 3.8967710E-02
3774.009, 3.6003139E-02
3775.938, 3.6652289E-02
3777.866, 4.2454999E-02
3779.795, 4.2747490E-02
3781.723, 3.7116859E-02
3783.652, 3.6538329E-02
3785.580, 3.6051460E-02
3787.509, 3.4619391E-02
3789.437, 3.4409299E-02
3791.365, 3.5713170E-02
3793.294, 3.5911798E-02
3795.222, 3.7308268E-02
3797.151, 3.7604589E-02
3799.079, 3.6322720E-02
3801.008, 3.6402959E-02
3802.936, 3.7064351E-02
3804.865, 3.5982821E-02
3806.793, 3.4965061E-02
3808.722, 3.7697099E-02
3810.650, 3.7478011E-02
3812.579, 3.5707612E-02
3814.507, 3.8104679E-02
3816.436, 3.8424172E-02
3818.364, 4.1453999E-02
3820.292, 4.2981919E-02
3822.221, 4.2694312E-02
3824.149, 3.9346799E-02
3826.078, 3.9680429E-02
3828.006, 3.9820980E-02
3829.935, 4.0356740E-02
3831.863, 4.0720131E-02
3833.792, 3.9856698E-02
3835.720, 4.0530082E-02
3837.649, 3.9376579E-02
3839.577, 3.9805699E-02
3841.506, 4.2164162E-02
3843.434, 4.4116959E-02
3845.363, 4.0646199E-02
3847.291, 3.9154980E-02
3849.219, 3.8560029E-02
3851.148, 3.6343321E-02
3853.076, 3.9134141E-02
3855.005, 4.0930700E-02
3856.933, 3.8839359E-02
3858.862, 3.7393149E-02
3860.790, 3.8665731E-02
3862.719, 3.7979759E-02
3864.647, 3.5346970E-02
3866.576, 3.7447590E-02
3868.504, 3.9345160E-02
3870.433, 3.7512351E-02
3872.361, 4.2086389E-02
3874.290, 4.5378361E-02
3876.218, 4.3149479E-02
3878.146, 4.3714330E-02
3880.075, 4.3828029E-02
3882.003, 4.2162970E-02
3883.932, 3.7957460E-02
3885.860, 3.6468279E-02
3887.789, 3.8260791E-02
3889.717, 3.8910851E-02
3891.646, 3.8419701E-02
3893.574, 3.8350981E-02
3895.503, 3.7846670E-02
3897.431, 3.9162721E-02
3899.360, 3.8672850E-02
3901.288, 3.7529219E-02
3903.217, 3.8837600E-02
3905.145, 3.8545959E-02
3907.073, 3.7710879E-02
3909.002, 3.6949780E-02
3910.930, 3.7704650E-02
3912.859, 3.7159830E-02
3914.787, 3.7248150E-02
3916.716, 3.9305501E-02
3918.644, 3.9942440E-02
3920.573, 4.0537771E-02
3922.501, 4.0120929E-02
3924.430, 4.0400822E-02
3926.358, 3.9968729E-02
3928.287, 3.8470682E-02
3930.215, 3.8380891E-02
3932.144, 3.7804458E-02
3934.072, 4.0019229E-02
3936.000, 4.3237440E-02
3937.929, 4.3302391E-02
3939.857, 4.1622419E-02
3941.786, 4.3157808E-02
3943.714, 4.4227581E-02
3945.643, 4.5557860E-02
3947.571, 4.3095469E-02
3949.500, 3.8920041E-02
3951.428, 3.6585070E-02
3953.357, 4.0912699E-02
3955.285, 4.4011761E-02
3957.214, 4.1231271E-02
3959.142, 3.9714079E-02
3961.071, 3.8510799E-02
3962.999, 3.9379101E-02
3964.927, 4.0154781E-02
3966.856, 4.2775169E-02
3968.784, 4.2448461E-02
3970.713, 3.9397471E-02
3972.641, 3.8367420E-02
3974.570, 4.1940831E-02
3976.498, 4.0087610E-02
3978.427, 3.9563559E-02
3980.355, 4.1444018E-02
3982.284, 3.8795721E-02
3984.212, 3.9591379E-02
3986.141, 4.4625450E-02
3988.069, 4.5468241E-02
3989.998, 4.2293008E-02
3991.926, 4.1920029E-02
3993.854, 4.3432340E-02
3995.783, 4.0530700E-02
3997.711, 3.9590809E-02
3999.640, 3.9609909E-02
##END=



