##NAMES=Liebigite
##RRUFFID=R050662
##IDEAL CHEMISTRY=Ca_2_(U^6+^O_2_)(CO_3_)_3_&#183;11H_2_O
##LOCALITY=Schwartzwaelder mine, Jefferson County, Colorado, USA
##OWNER=RRUFF
##SOURCE=University of Arizona Mineral Museum
##DESCRIPTION=Yellowish-green flaky aggregate
##STATUS=The identification of this mineral has been confirmed by X-ray diffraction and chemical analysis
##URL=rruff.info/R050662
##MEASURED CHEMISTRY=Ca_2.00_(U_1.00_O_2_)(CO_3_)_3_Â·11H_2_O ; C not measured but estimated by stoichiometry
3.741225e+002, 9.420937e-002
3.760510e+002, 9.768791e-002
3.779795e+002, 9.803083e-002
3.799079e+002, 9.361319e-002
3.818364e+002, 9.151727e-002
3.837649e+002, 9.537280e-002
3.856933e+002, 9.540214e-002
3.876218e+002, 9.731390e-002
3.895503e+002, 1.044284e-001
3.914787e+002, 1.085689e-001
3.934072e+002, 1.087772e-001
3.953357e+002, 1.088826e-001
3.972641e+002, 1.108125e-001
3.991926e+002, 1.110593e-001
4.011211e+002, 1.106446e-001
4.030495e+002, 1.116006e-001
4.049780e+002, 1.154521e-001
4.069065e+002, 1.177614e-001
4.088349e+002, 1.174916e-001
4.107634e+002, 1.165041e-001
4.126919e+002, 1.173662e-001
4.146203e+002, 1.192032e-001
4.165488e+002, 1.205183e-001
4.184773e+002, 1.203626e-001
4.204057e+002, 1.210939e-001
4.223342e+002, 1.225243e-001
4.242627e+002, 1.237138e-001
4.261911e+002, 1.240051e-001
4.281196e+002, 1.248851e-001
4.300481e+002, 1.253759e-001
4.319765e+002, 1.274470e-001
4.339050e+002, 1.283434e-001
4.358335e+002, 1.285492e-001
4.377619e+002, 1.283481e-001
4.396904e+002, 1.293864e-001
4.416189e+002, 1.303958e-001
4.435473e+002, 1.310446e-001
4.454758e+002, 1.319338e-001
4.474043e+002, 1.332909e-001
4.493327e+002, 1.337328e-001
4.512612e+002, 1.341900e-001
4.531897e+002, 1.353541e-001
4.551181e+002, 1.362649e-001
4.570466e+002, 1.364658e-001
4.589751e+002, 1.374427e-001
4.609035e+002, 1.383608e-001
4.628320e+002, 1.389274e-001
4.647605e+002, 1.394562e-001
4.666889e+002, 1.408193e-001
4.686174e+002, 1.416059e-001
4.705459e+002, 1.409862e-001
4.724743e+002, 1.404417e-001
4.744028e+002, 1.406440e-001
4.763313e+002, 1.411171e-001
4.782597e+002, 1.410859e-001
4.801882e+002, 1.415086e-001
4.821167e+002, 1.419644e-001
4.840451e+002, 1.419481e-001
4.859736e+002, 1.417561e-001
4.879021e+002, 1.416560e-001
4.898305e+002, 1.424717e-001
4.917590e+002, 1.429364e-001
4.936875e+002, 1.425873e-001
4.956159e+002, 1.423515e-001
4.975444e+002, 1.427343e-001
4.994729e+002, 1.428376e-001
5.014013e+002, 1.432373e-001
5.033298e+002, 1.435819e-001
5.052583e+002, 1.433821e-001
5.071867e+002, 1.433477e-001
5.091152e+002, 1.433000e-001
5.110437e+002, 1.432836e-001
5.129721e+002, 1.434757e-001
5.149006e+002, 1.430995e-001
5.168290e+002, 1.431848e-001
5.187575e+002, 1.435148e-001
5.206860e+002, 1.437106e-001
5.226144e+002, 1.432823e-001
5.245429e+002, 1.428094e-001
5.264714e+002, 1.425957e-001
5.283998e+002, 1.419319e-001
5.303283e+002, 1.416493e-001
5.322568e+002, 1.417235e-001
5.341852e+002, 1.415775e-001
5.361137e+002, 1.410461e-001
5.380422e+002, 1.402631e-001
5.399706e+002, 1.395465e-001
5.418991e+002, 1.393825e-001
5.438276e+002, 1.391005e-001
5.457560e+002, 1.387458e-001
5.476845e+002, 1.386753e-001
5.496130e+002, 1.387735e-001
5.515414e+002, 1.381534e-001
5.534699e+002, 1.376410e-001
5.553984e+002, 1.368811e-001
5.573268e+002, 1.363276e-001
5.592553e+002, 1.358785e-001
5.611838e+002, 1.354875e-001
5.631122e+002, 1.349843e-001
5.650407e+002, 1.345496e-001
5.669692e+002, 1.341325e-001
5.688976e+002, 1.341437e-001
5.708261e+002, 1.339561e-001
5.727546e+002, 1.333864e-001
5.746830e+002, 1.332173e-001
5.766115e+002, 1.331425e-001
5.785400e+002, 1.328847e-001
5.804684e+002, 1.322795e-001
5.823969e+002, 1.316338e-001
5.843254e+002, 1.311342e-001
5.862538e+002, 1.305367e-001
5.881823e+002, 1.296415e-001
5.901108e+002, 1.294193e-001
5.920392e+002, 1.294008e-001
5.939677e+002, 1.286356e-001
5.958962e+002, 1.277116e-001
5.978246e+002, 1.269318e-001
5.997531e+002, 1.264953e-001
6.016816e+002, 1.261787e-001
6.036100e+002, 1.256850e-001
6.055385e+002, 1.251440e-001
6.074670e+002, 1.244038e-001
6.093954e+002, 1.235951e-001
6.113239e+002, 1.229550e-001
6.132524e+002, 1.220880e-001
6.151808e+002, 1.210472e-001
6.171093e+002, 1.205619e-001
6.190378e+002, 1.199219e-001
6.209662e+002, 1.190348e-001
6.228947e+002, 1.185488e-001
6.248232e+002, 1.179474e-001
6.267516e+002, 1.171103e-001
6.286801e+002, 1.162833e-001
6.306086e+002, 1.155434e-001
6.325370e+002, 1.147631e-001
6.344655e+002, 1.141046e-001
6.363940e+002, 1.133465e-001
6.383224e+002, 1.125494e-001
6.402509e+002, 1.118108e-001
6.421794e+002, 1.110066e-001
6.441078e+002, 1.101027e-001
6.460363e+002, 1.092217e-001
6.479648e+002, 1.085823e-001
6.498932e+002, 1.081017e-001
6.518217e+002, 1.074725e-001
6.537502e+002, 1.067182e-001
6.556786e+002, 1.060511e-001
6.576071e+002, 1.053886e-001
6.595356e+002, 1.049452e-001
6.614641e+002, 1.048050e-001
6.633925e+002, 1.044046e-001
6.653210e+002, 1.038674e-001
6.672495e+002, 1.032942e-001
6.691779e+002, 1.028071e-001
6.711064e+002, 1.022296e-001
6.730349e+002, 1.016927e-001
6.749633e+002, 1.011827e-001
6.768918e+002, 1.006223e-001
6.788203e+002, 9.999183e-002
6.807487e+002, 9.933297e-002
6.826772e+002, 9.821315e-002
6.846057e+002, 9.707263e-002
6.865341e+002, 9.594982e-002
6.884626e+002, 9.461202e-002
6.903911e+002, 9.336742e-002
6.923195e+002, 9.238732e-002
6.942480e+002, 9.156398e-002
6.961765e+002, 9.091745e-002
6.981049e+002, 9.033516e-002
7.000334e+002, 8.975809e-002
7.019619e+002, 8.889892e-002
7.038903e+002, 8.801115e-002
7.058188e+002, 8.729146e-002
7.077473e+002, 8.693029e-002
7.096757e+002, 8.712281e-002
7.116042e+002, 8.771174e-002
7.135327e+002, 8.840811e-002
7.154611e+002, 8.925331e-002
7.173896e+002, 9.023391e-002
7.193181e+002, 9.147575e-002
7.212465e+002, 9.297255e-002
7.231750e+002, 9.479339e-002
7.251035e+002, 9.658363e-002
7.270319e+002, 9.833532e-002
7.289604e+002, 1.001385e-001
7.308889e+002, 1.019715e-001
7.328173e+002, 1.035139e-001
7.347458e+002, 1.047850e-001
7.366743e+002, 1.055449e-001
7.386027e+002, 1.055317e-001
7.405312e+002, 1.046467e-001
7.424597e+002, 1.030790e-001
7.443881e+002, 1.008414e-001
7.463166e+002, 9.771124e-002
7.482451e+002, 9.332186e-002
7.501735e+002, 8.843210e-002
7.521020e+002, 8.414581e-002
7.540305e+002, 7.981343e-002
7.559589e+002, 7.430977e-002
7.578874e+002, 6.862649e-002
7.598159e+002, 6.445054e-002
7.617443e+002, 6.172332e-002
7.636728e+002, 5.991676e-002
7.656013e+002, 5.865546e-002
7.675297e+002, 5.793140e-002
7.694582e+002, 5.737161e-002
7.713867e+002, 5.686992e-002
7.733151e+002, 5.651343e-002
7.752436e+002, 5.636229e-002
7.771721e+002, 5.644393e-002
7.791005e+002, 5.664134e-002
7.810290e+002, 5.669997e-002
7.829575e+002, 5.663614e-002
7.848859e+002, 5.651029e-002
7.868144e+002, 5.662727e-002
7.887429e+002, 5.679984e-002
7.906713e+002, 5.691466e-002
7.925998e+002, 5.699512e-002
7.945283e+002, 5.716217e-002
7.964567e+002, 5.742673e-002
7.983852e+002, 5.742200e-002
8.003137e+002, 5.746842e-002
8.022421e+002, 5.762736e-002
8.041706e+002, 5.794508e-002
8.060991e+002, 5.833417e-002
8.080275e+002, 5.871905e-002
8.099560e+002, 5.945620e-002
8.118845e+002, 6.041910e-002
8.138129e+002, 6.152241e-002
8.157414e+002, 6.292123e-002
8.176699e+002, 6.463812e-002
8.195983e+002, 6.639013e-002
8.215268e+002, 6.672580e-002
8.234553e+002, 6.505904e-002
8.253837e+002, 6.303160e-002
8.273122e+002, 6.185983e-002
8.292407e+002, 6.170816e-002
8.311691e+002, 6.236460e-002
8.330976e+002, 6.341936e-002
8.350261e+002, 6.493731e-002
8.369545e+002, 6.705843e-002
8.388830e+002, 6.988715e-002
8.408115e+002, 7.325648e-002
8.427399e+002, 7.600421e-002
8.446684e+002, 7.638939e-002
8.465969e+002, 7.448415e-002
8.485253e+002, 7.241989e-002
8.504538e+002, 7.164828e-002
8.523823e+002, 7.203864e-002
8.543107e+002, 7.296693e-002
8.562392e+002, 7.438996e-002
8.581677e+002, 7.648242e-002
8.600961e+002, 7.903118e-002
8.620246e+002, 8.230009e-002
8.639531e+002, 8.643487e-002
8.658815e+002, 9.163845e-002
8.678100e+002, 9.800582e-002
8.697385e+002, 1.057430e-001
8.716669e+002, 1.148243e-001
8.735954e+002, 1.248552e-001
8.755239e+002, 1.354831e-001
8.774523e+002, 1.459230e-001
8.793808e+002, 1.551354e-001
8.813093e+002, 1.625339e-001
8.832377e+002, 1.678244e-001
8.851662e+002, 1.704965e-001
8.870947e+002, 1.700513e-001
8.890231e+002, 1.668268e-001
8.909516e+002, 1.613187e-001
8.928801e+002, 1.539014e-001
8.948085e+002, 1.450325e-001
8.967370e+002, 1.348741e-001
8.986655e+002, 1.231839e-001
9.005939e+002, 1.105472e-001
9.025224e+002, 9.742985e-002
9.044509e+002, 8.493198e-002
9.063793e+002, 7.401326e-002
9.083078e+002, 6.495508e-002
9.102363e+002, 5.772962e-002
9.121647e+002, 5.213531e-002
9.140932e+002, 4.772227e-002
9.160217e+002, 4.405158e-002
9.179501e+002, 4.078850e-002
9.198786e+002, 3.795668e-002
9.218071e+002, 3.537580e-002
9.237355e+002, 3.303627e-002
9.256640e+002, 3.095933e-002
9.275925e+002, 2.922887e-002
9.295209e+002, 2.780497e-002
9.314494e+002, 2.656082e-002
9.333779e+002, 2.541300e-002
9.353063e+002, 2.421326e-002
9.372348e+002, 2.350057e-002
9.391633e+002, 2.322186e-002
9.410917e+002, 2.290666e-002
9.430202e+002, 2.255463e-002
9.449487e+002, 2.230868e-002
9.468771e+002, 2.216702e-002
9.488056e+002, 2.196068e-002
9.507341e+002, 2.187263e-002
9.526625e+002, 2.180168e-002
9.545910e+002, 2.182527e-002
9.565195e+002, 2.196897e-002
9.584479e+002, 2.205209e-002
9.603764e+002, 2.217352e-002
9.623049e+002, 2.233826e-002
9.642333e+002, 2.240820e-002
9.661618e+002, 2.251167e-002
9.680903e+002, 2.266168e-002
9.700187e+002, 2.275817e-002
9.719472e+002, 2.291056e-002
9.738757e+002, 2.317934e-002
9.758041e+002, 2.347382e-002
9.777326e+002, 2.390793e-002
9.796611e+002, 2.429678e-002
9.815895e+002, 2.447168e-002
9.835180e+002, 2.477359e-002
9.854465e+002, 2.506083e-002
9.873749e+002, 2.522553e-002
9.893034e+002, 2.539651e-002
9.912319e+002, 2.544410e-002
9.931603e+002, 2.559579e-002
9.950888e+002, 2.578716e-002
9.970173e+002, 2.585488e-002
9.989457e+002, 2.579086e-002
1.000874e+003, 2.579779e-002
1.002803e+003, 2.587500e-002
1.004731e+003, 2.609959e-002
1.006660e+003, 2.614905e-002
1.008588e+003, 2.598953e-002
1.010517e+003, 2.595887e-002
1.012445e+003, 2.610244e-002
1.014373e+003, 2.623473e-002
1.016302e+003, 2.640410e-002
1.018230e+003, 2.652523e-002
1.020159e+003, 2.666108e-002
1.022087e+003, 2.665092e-002
1.024016e+003, 2.663337e-002
1.025944e+003, 2.673439e-002
1.027873e+003, 2.683029e-002
1.029801e+003, 2.692712e-002
1.031730e+003, 2.694894e-002
1.033658e+003, 2.705675e-002
1.035587e+003, 2.717229e-002
1.037515e+003, 2.723750e-002
1.039443e+003, 2.730778e-002
1.041372e+003, 2.737084e-002
1.043300e+003, 2.760887e-002
1.045229e+003, 2.780079e-002
1.047157e+003, 2.783741e-002
1.049086e+003, 2.801582e-002
1.051014e+003, 2.847778e-002
1.052943e+003, 2.902744e-002
1.054871e+003, 2.970009e-002
1.056800e+003, 3.037247e-002
1.058728e+003, 3.120476e-002
1.060657e+003, 3.260009e-002
1.062585e+003, 3.483646e-002
1.064514e+003, 3.808235e-002
1.066442e+003, 4.245271e-002
1.068370e+003, 4.606305e-002
1.070299e+003, 4.558340e-002
1.072227e+003, 4.096044e-002
1.074156e+003, 3.693848e-002
1.076084e+003, 3.522411e-002
1.078013e+003, 3.340901e-002
1.079941e+003, 3.081838e-002
1.081870e+003, 2.884092e-002
1.083798e+003, 2.801940e-002
1.085727e+003, 2.764396e-002
1.087655e+003, 2.712047e-002
1.089584e+003, 2.646754e-002
1.091512e+003, 2.586668e-002
1.093441e+003, 2.556944e-002
1.095369e+003, 2.541080e-002
1.097297e+003, 2.529984e-002
1.099226e+003, 2.519099e-002
1.101154e+003, 2.509181e-002
1.103083e+003, 2.497176e-002
1.105011e+003, 2.508598e-002
1.106940e+003, 2.497354e-002
1.108868e+003, 2.482369e-002
1.110797e+003, 2.491540e-002
1.112725e+003, 2.501466e-002
1.114654e+003, 2.495754e-002
1.116582e+003, 2.499108e-002
1.118511e+003, 2.515118e-002
1.120439e+003, 2.518573e-002
1.122368e+003, 2.526016e-002
1.124296e+003, 2.532662e-002
1.126224e+003, 2.540648e-002
1.128153e+003, 2.558530e-002
1.130081e+003, 2.586902e-002
1.132010e+003, 2.605055e-002
1.133938e+003, 2.605166e-002
1.135867e+003, 2.611904e-002
1.137795e+003, 2.623735e-002
1.139724e+003, 2.634102e-002
1.141652e+003, 2.635175e-002
1.143581e+003, 2.640931e-002
1.145509e+003, 2.660092e-002
1.147438e+003, 2.677079e-002
1.149366e+003, 2.682381e-002
1.151295e+003, 2.679438e-002
1.153223e+003, 2.686409e-002
1.155151e+003, 2.707940e-002
1.157080e+003, 2.717263e-002
1.159008e+003, 2.717794e-002
1.160937e+003, 2.732304e-002
1.162865e+003, 2.752764e-002
1.164794e+003, 2.767408e-002
1.166722e+003, 2.775222e-002
1.168651e+003, 2.792023e-002
1.170579e+003, 2.821718e-002
1.172508e+003, 2.836473e-002
1.174436e+003, 2.844408e-002
1.176365e+003, 2.863434e-002
1.178293e+003, 2.880524e-002
1.180222e+003, 2.890459e-002
1.182150e+003, 2.901621e-002
1.184078e+003, 2.929365e-002
1.186007e+003, 2.959804e-002
1.187935e+003, 2.980468e-002
1.189864e+003, 3.003027e-002
1.191792e+003, 3.030506e-002
1.193721e+003, 3.052777e-002
1.195649e+003, 3.080193e-002
1.197578e+003, 3.096445e-002
1.199506e+003, 3.116408e-002
1.201435e+003, 3.145005e-002
1.203363e+003, 3.167473e-002
1.205292e+003, 3.190198e-002
1.207220e+003, 3.222708e-002
1.209149e+003, 3.250125e-002
1.211077e+003, 3.262583e-002
1.213005e+003, 3.290344e-002
1.214934e+003, 3.325676e-002
1.216862e+003, 3.350827e-002
1.218791e+003, 3.375179e-002
1.220719e+003, 3.410437e-002
1.222648e+003, 3.442430e-002
1.224576e+003, 3.473672e-002
1.226505e+003, 3.508462e-002
1.228433e+003, 3.540830e-002
1.230362e+003, 3.566296e-002
1.232290e+003, 3.608907e-002
1.234219e+003, 3.645474e-002
1.236147e+003, 3.685280e-002
1.238076e+003, 3.732437e-002
1.240004e+003, 3.765033e-002
1.241932e+003, 3.801624e-002
1.243861e+003, 3.842740e-002
1.245789e+003, 3.882852e-002
1.247718e+003, 3.935280e-002
1.249646e+003, 3.992428e-002
1.251575e+003, 4.047955e-002
1.253503e+003, 4.094141e-002
1.255432e+003, 4.140900e-002
1.257360e+003, 4.200919e-002
1.259289e+003, 4.261272e-002
1.261217e+003, 4.322947e-002
1.263146e+003, 4.402384e-002
1.265074e+003, 4.475561e-002
1.267003e+003, 4.545140e-002
1.268931e+003, 4.632888e-002
1.270859e+003, 4.733822e-002
1.272788e+003, 4.842396e-002
1.274716e+003, 4.940135e-002
1.276645e+003, 5.035850e-002
1.278573e+003, 5.139858e-002
1.280502e+003, 5.253071e-002
1.282430e+003, 5.361675e-002
1.284359e+003, 5.481839e-002
1.286287e+003, 5.610887e-002
1.288216e+003, 5.755814e-002
1.290144e+003, 5.923663e-002
1.292073e+003, 6.084017e-002
1.294001e+003, 6.256129e-002
1.295930e+003, 6.449736e-002
1.297858e+003, 6.662881e-002
1.299786e+003, 6.881067e-002
1.301715e+003, 7.110738e-002
1.303643e+003, 7.348024e-002
1.305572e+003, 7.613821e-002
1.307500e+003, 7.927302e-002
1.309429e+003, 8.259205e-002
1.311357e+003, 8.591504e-002
1.313286e+003, 8.950875e-002
1.315214e+003, 9.331488e-002
1.317143e+003, 9.725895e-002
1.319071e+003, 1.014294e-001
1.321000e+003, 1.057982e-001
1.322928e+003, 1.105096e-001
1.324857e+003, 1.158776e-001
1.326785e+003, 1.216332e-001
1.328714e+003, 1.278294e-001
1.330642e+003, 1.345499e-001
1.332570e+003, 1.417990e-001
1.334499e+003, 1.494179e-001
1.336427e+003, 1.573482e-001
1.338356e+003, 1.654132e-001
1.340284e+003, 1.734087e-001
1.342213e+003, 1.812912e-001
1.344141e+003, 1.890048e-001
1.346070e+003, 1.960744e-001
1.347998e+003, 2.024772e-001
1.349927e+003, 2.080311e-001
1.351855e+003, 2.126050e-001
1.353784e+003, 2.170205e-001
1.355712e+003, 2.225838e-001
1.357641e+003, 2.307320e-001
1.359569e+003, 2.420592e-001
1.361497e+003, 2.565756e-001
1.363426e+003, 2.740063e-001
1.365354e+003, 2.935314e-001
1.367283e+003, 3.142699e-001
1.369211e+003, 3.347418e-001
1.371140e+003, 3.524031e-001
1.373068e+003, 3.646387e-001
1.374997e+003, 3.696260e-001
1.376925e+003, 3.660490e-001
1.378854e+003, 3.544722e-001
1.380782e+003, 3.363804e-001
1.382711e+003, 3.142349e-001
1.384639e+003, 2.907012e-001
1.386568e+003, 2.688030e-001
1.388496e+003, 2.503764e-001
1.390424e+003, 2.364789e-001
1.392353e+003, 2.271900e-001
1.394281e+003, 2.220262e-001
1.396210e+003, 2.197237e-001
1.398138e+003, 2.190248e-001
1.400067e+003, 2.185570e-001
1.401995e+003, 2.173383e-001
1.403924e+003, 2.146139e-001
1.405852e+003, 2.095237e-001
1.407781e+003, 2.017172e-001
1.409709e+003, 1.916840e-001
1.411638e+003, 1.801098e-001
1.413566e+003, 1.680045e-001
1.415495e+003, 1.565647e-001
1.417423e+003, 1.463214e-001
1.419351e+003, 1.370591e-001
1.421280e+003, 1.290557e-001
1.423208e+003, 1.222384e-001
1.425137e+003, 1.161740e-001
1.427065e+003, 1.107566e-001
1.428994e+003, 1.062413e-001
1.430922e+003, 1.025832e-001
1.432851e+003, 9.955409e-002
1.434779e+003, 9.710077e-002
1.436708e+003, 9.519470e-002
1.438636e+003, 9.363306e-002
1.440565e+003, 9.260837e-002
1.442493e+003, 9.223524e-002
1.444422e+003, 9.232104e-002
1.446350e+003, 9.274306e-002
1.448278e+003, 9.366725e-002
1.450207e+003, 9.502933e-002
1.452135e+003, 9.695345e-002
1.454064e+003, 9.945115e-002
1.455992e+003, 1.025013e-001
1.457921e+003, 1.061430e-001
1.459849e+003, 1.103808e-001
1.461778e+003, 1.154575e-001
1.463706e+003, 1.212183e-001
1.465635e+003, 1.275700e-001
1.467563e+003, 1.346400e-001
1.469492e+003, 1.423192e-001
1.471420e+003, 1.506026e-001
1.473349e+003, 1.595908e-001
1.475277e+003, 1.694152e-001
1.477205e+003, 1.799704e-001
1.479134e+003, 1.913096e-001
1.481062e+003, 2.037425e-001
1.482991e+003, 2.171512e-001
1.484919e+003, 2.318321e-001
1.486848e+003, 2.477329e-001
1.488776e+003, 2.644266e-001
1.490705e+003, 2.818254e-001
1.492633e+003, 2.996505e-001
1.494562e+003, 3.174202e-001
1.496490e+003, 3.344907e-001
1.498419e+003, 3.497595e-001
1.500347e+003, 3.625014e-001
1.502276e+003, 3.719511e-001
1.504204e+003, 3.775976e-001
1.506132e+003, 3.791415e-001
1.508061e+003, 3.763660e-001
1.509989e+003, 3.697351e-001
1.511918e+003, 3.601167e-001
1.513846e+003, 3.481413e-001
1.515775e+003, 3.344283e-001
1.517703e+003, 3.199674e-001
1.519632e+003, 3.056353e-001
1.521560e+003, 2.922516e-001
1.523489e+003, 2.803234e-001
1.525417e+003, 2.703850e-001
1.527346e+003, 2.627251e-001
1.529274e+003, 2.576410e-001
1.531203e+003, 2.551077e-001
1.533131e+003, 2.548529e-001
1.535059e+003, 2.564039e-001
1.536988e+003, 2.594719e-001
1.538916e+003, 2.632030e-001
1.540845e+003, 2.665607e-001
1.542773e+003, 2.684948e-001
1.544702e+003, 2.682405e-001
1.546630e+003, 2.653799e-001
1.548559e+003, 2.600089e-001
1.550487e+003, 2.522637e-001
1.552416e+003, 2.424574e-001
1.554344e+003, 2.313270e-001
1.556273e+003, 2.194063e-001
1.558201e+003, 2.071199e-001
1.560130e+003, 1.948262e-001
1.562058e+003, 1.832798e-001
1.563986e+003, 1.728414e-001
1.565915e+003, 1.631799e-001
1.567843e+003, 1.548003e-001
1.569772e+003, 1.477342e-001
1.571700e+003, 1.414501e-001
1.573629e+003, 1.359549e-001
1.575557e+003, 1.308208e-001
1.577486e+003, 1.256997e-001
1.579414e+003, 1.207250e-001
1.581343e+003, 1.157177e-001
1.583271e+003, 1.106712e-001
1.585200e+003, 1.055984e-001
1.587128e+003, 1.008685e-001
1.589057e+003, 9.657697e-002
1.590985e+003, 9.284525e-002
1.592913e+003, 8.959783e-002
1.594842e+003, 8.672192e-002
1.596770e+003, 8.443065e-002
1.598699e+003, 8.252073e-002
1.600627e+003, 8.112832e-002
1.602556e+003, 8.050875e-002
1.604484e+003, 8.031940e-002
1.606413e+003, 8.070699e-002
1.608341e+003, 8.189654e-002
1.610270e+003, 8.384172e-002
1.612198e+003, 8.660537e-002
1.614127e+003, 9.002081e-002
1.616055e+003, 9.353153e-002
1.617984e+003, 9.603129e-002
1.619912e+003, 9.708039e-002
1.621840e+003, 9.666576e-002
1.623769e+003, 9.506254e-002
1.625697e+003, 9.330589e-002
1.627626e+003, 9.177371e-002
1.629554e+003, 9.035770e-002
1.631483e+003, 8.899641e-002
1.633411e+003, 8.754823e-002
1.635340e+003, 8.584125e-002
1.637268e+003, 8.393284e-002
1.639197e+003, 8.191042e-002
1.641125e+003, 7.984881e-002
1.643054e+003, 7.793346e-002
1.644982e+003, 7.614946e-002
1.646911e+003, 7.421918e-002
1.648839e+003, 7.222459e-002
1.650767e+003, 7.058360e-002
1.652696e+003, 6.894600e-002
1.654624e+003, 6.690618e-002
1.656553e+003, 6.492329e-002
1.658481e+003, 6.271981e-002
1.660410e+003, 6.051035e-002
1.662338e+003, 5.819627e-002
1.664267e+003, 5.559539e-002
1.666195e+003, 5.290603e-002
1.668124e+003, 5.029284e-002
1.670052e+003, 4.749820e-002
1.671981e+003, 4.459457e-002
1.673909e+003, 4.191161e-002
1.675838e+003, 3.950188e-002
1.677766e+003, 3.721301e-002
1.679694e+003, 3.514800e-002
1.681623e+003, 3.313565e-002
1.683551e+003, 3.143059e-002
1.685480e+003, 2.981317e-002
1.687408e+003, 2.836219e-002
1.689337e+003, 2.698630e-002
1.691265e+003, 2.577796e-002
1.693194e+003, 2.455212e-002
1.695122e+003, 2.337774e-002
1.697051e+003, 2.225752e-002
1.698979e+003, 2.138557e-002
1.700908e+003, 2.047054e-002
1.702836e+003, 1.941086e-002
1.704765e+003, 1.860431e-002
1.706693e+003, 1.783250e-002
1.708621e+003, 1.704266e-002
1.710550e+003, 1.634474e-002
1.712478e+003, 1.566432e-002
1.714407e+003, 1.517672e-002
1.716335e+003, 1.477393e-002
1.718264e+003, 1.429684e-002
1.720192e+003, 1.391101e-002
1.722121e+003, 1.344048e-002
1.724049e+003, 1.290925e-002
1.725978e+003, 1.252176e-002
1.727906e+003, 1.225758e-002
1.729835e+003, 1.196481e-002
1.731763e+003, 1.162913e-002
1.733692e+003, 1.129708e-002
1.735620e+003, 1.101273e-002
1.737548e+003, 1.060411e-002
1.739477e+003, 1.022792e-002
1.741405e+003, 9.947299e-003
1.743334e+003, 9.830909e-003
1.745262e+003, 9.834460e-003
1.747191e+003, 9.744283e-003
1.749119e+003, 9.631763e-003
1.751048e+003, 9.639855e-003
1.752976e+003, 9.581179e-003
1.754905e+003, 9.405319e-003
1.756833e+003, 9.480836e-003
1.758762e+003, 9.636876e-003
1.760690e+003, 9.833328e-003
1.762619e+003, 9.948573e-003
1.764547e+003, 9.947789e-003
1.766475e+003, 9.965716e-003
1.768404e+003, 9.876166e-003
1.770332e+003, 9.818669e-003
1.772261e+003, 9.707151e-003
1.774189e+003, 9.590446e-003
1.776118e+003, 9.491889e-003
1.778046e+003, 9.438201e-003
1.779975e+003, 9.671043e-003
1.781903e+003, 9.776285e-003
1.783832e+003, 9.557770e-003
1.785760e+003, 9.455134e-003
1.787689e+003, 9.331581e-003
1.789617e+003, 9.342491e-003
1.791546e+003, 9.463353e-003
1.793474e+003, 9.324919e-003
1.795402e+003, 9.238628e-003
1.797331e+003, 9.224568e-003
1.799259e+003, 9.134215e-003
1.801188e+003, 9.053192e-003
1.803116e+003, 9.208077e-003
1.805045e+003, 9.428185e-003
1.806973e+003, 9.521828e-003
1.808902e+003, 9.713653e-003
1.810830e+003, 9.617409e-003
1.812759e+003, 9.574574e-003
1.814687e+003, 9.581896e-003
1.816616e+003, 9.498503e-003
1.818544e+003, 9.720482e-003
1.820473e+003, 9.962574e-003
1.822401e+003, 9.987929e-003
1.824329e+003, 1.006835e-002
1.826258e+003, 1.029046e-002
1.828186e+003, 1.038479e-002
1.830115e+003, 1.008002e-002
1.832043e+003, 9.811956e-003
1.833972e+003, 9.776329e-003
1.835900e+003, 9.613588e-003
1.837829e+003, 9.424518e-003
1.839757e+003, 9.307048e-003
1.841686e+003, 9.042120e-003
1.843614e+003, 8.907472e-003
1.845543e+003, 8.763893e-003
1.847471e+003, 8.627388e-003
1.849400e+003, 8.557677e-003
1.851328e+003, 8.406851e-003
1.853256e+003, 8.354123e-003
1.855185e+003, 8.383933e-003
1.857113e+003, 8.488600e-003
1.859042e+003, 8.344489e-003
1.860970e+003, 8.380502e-003
1.862899e+003, 8.340172e-003
1.864827e+003, 8.254114e-003
1.866756e+003, 8.038549e-003
1.868684e+003, 8.035722e-003
1.870613e+003, 8.286810e-003
1.872541e+003, 8.133160e-003
1.874470e+003, 8.293495e-003
1.876398e+003, 8.381696e-003
1.878327e+003, 7.737580e-003
1.880255e+003, 7.412202e-003
1.882183e+003, 7.848745e-003
1.884112e+003, 8.020296e-003
1.886040e+003, 7.633698e-003
1.887969e+003, 7.828010e-003
1.889897e+003, 8.285119e-003
1.891826e+003, 8.716757e-003
1.893754e+003, 8.831741e-003
1.895683e+003, 8.317951e-003
1.897611e+003, 8.323196e-003
1.899540e+003, 8.390362e-003
1.901468e+003, 8.023717e-003
1.903397e+003, 8.090619e-003
1.905325e+003, 8.492479e-003
1.907254e+003, 8.940022e-003
1.909182e+003, 8.569654e-003
1.911110e+003, 8.079876e-003
1.913039e+003, 8.123261e-003
1.914967e+003, 8.423752e-003
1.916896e+003, 8.291828e-003
1.918824e+003, 8.437943e-003
1.920753e+003, 8.493812e-003
1.922681e+003, 8.398216e-003
1.924610e+003, 8.492988e-003
1.926538e+003, 8.705420e-003
1.928467e+003, 8.618650e-003
1.930395e+003, 8.217159e-003
1.932324e+003, 7.907874e-003
1.934252e+003, 8.034074e-003
1.936181e+003, 8.276406e-003
1.938109e+003, 8.301551e-003
1.940037e+003, 7.918430e-003
1.941966e+003, 7.805089e-003
1.943894e+003, 7.969788e-003
1.945823e+003, 8.061064e-003
1.947751e+003, 8.323329e-003
1.949680e+003, 8.664031e-003
1.951608e+003, 8.646240e-003
1.953537e+003, 8.254502e-003
1.955465e+003, 7.401657e-003
1.957394e+003, 7.422981e-003
1.959322e+003, 8.200053e-003
1.961251e+003, 8.737952e-003
1.963179e+003, 8.939641e-003
1.965108e+003, 8.814232e-003
1.967036e+003, 8.330299e-003
1.968964e+003, 8.020314e-003
1.970893e+003, 8.451276e-003
1.972821e+003, 9.352233e-003
1.974750e+003, 8.648062e-003
1.976678e+003, 8.999757e-003
1.978607e+003, 1.057161e-002
1.980535e+003, 1.184373e-002
1.982464e+003, 1.140055e-002
1.984392e+003, 1.064393e-002
1.986321e+003, 9.965526e-003
1.988249e+003, 9.572627e-003
1.990178e+003, 9.580083e-003
1.992106e+003, 1.051976e-002
1.994035e+003, 1.026062e-002
1.995963e+003, 1.021074e-002
1.997891e+003, 1.056205e-002
1.999820e+003, 9.395498e-003
2.001748e+003, 8.608463e-003
2.003677e+003, 9.354776e-003
2.005605e+003, 9.267092e-003
2.007534e+003, 9.630826e-003
2.009462e+003, 1.021004e-002
2.011391e+003, 1.021466e-002
2.013319e+003, 9.650981e-003
2.015248e+003, 9.657681e-003
2.017176e+003, 9.937890e-003
2.019105e+003, 1.056803e-002
2.021033e+003, 1.105738e-002
2.022962e+003, 1.119324e-002
2.024890e+003, 1.167215e-002
2.026818e+003, 1.074979e-002
2.028747e+003, 1.068056e-002
2.030675e+003, 1.125297e-002
2.032604e+003, 1.101993e-002
2.034532e+003, 1.088327e-002
2.036461e+003, 1.185864e-002
2.038389e+003, 1.361031e-002
2.040318e+003, 1.273389e-002
2.042246e+003, 1.113014e-002
2.044175e+003, 1.139223e-002
2.046103e+003, 1.165998e-002
2.048031e+003, 1.258722e-002
2.049960e+003, 1.376197e-002
2.051888e+003, 1.333095e-002
2.053817e+003, 1.326324e-002
2.055745e+003, 1.369590e-002
2.057674e+003, 1.387411e-002
2.059602e+003, 1.328582e-002
2.061531e+003, 1.278958e-002
2.063459e+003, 1.306819e-002
2.065388e+003, 1.303580e-002
2.067316e+003, 1.263681e-002
2.069245e+003, 1.310935e-002
2.071173e+003, 1.384569e-002
2.073102e+003, 1.427599e-002
2.075030e+003, 1.405106e-002
2.076958e+003, 1.378274e-002
2.078887e+003, 1.383463e-002
2.080815e+003, 1.434589e-002
2.082744e+003, 1.452321e-002
2.084672e+003, 1.385471e-002
2.086601e+003, 1.409850e-002
2.088529e+003, 1.443211e-002
2.090458e+003, 1.423227e-002
2.092386e+003, 1.404035e-002
2.094315e+003, 1.374917e-002
2.096243e+003, 1.413786e-002
2.098172e+003, 1.446483e-002
2.100100e+003, 1.465484e-002
2.102029e+003, 1.547917e-002
2.103957e+003, 1.616816e-002
2.105885e+003, 1.585148e-002
2.107814e+003, 1.517699e-002
2.109742e+003, 1.533293e-002
2.111671e+003, 1.542407e-002
2.113599e+003, 1.529555e-002
2.115528e+003, 1.545303e-002
2.117456e+003, 1.550818e-002
2.119385e+003, 1.534443e-002
2.121313e+003, 1.474981e-002
2.123242e+003, 1.458418e-002
2.125170e+003, 1.499739e-002
2.127099e+003, 1.421073e-002
2.129027e+003, 1.336244e-002
2.130956e+003, 1.277824e-002
2.132884e+003, 1.256143e-002
2.134813e+003, 1.346583e-002
2.136741e+003, 1.374299e-002
2.138669e+003, 1.319644e-002
2.140598e+003, 1.335083e-002
2.142526e+003, 1.336847e-002
2.144455e+003, 1.317752e-002
2.146383e+003, 1.359477e-002
2.148312e+003, 1.426490e-002
2.150240e+003, 1.377447e-002
2.152169e+003, 1.339749e-002
2.154097e+003, 1.320907e-002
2.156026e+003, 1.236595e-002
2.157954e+003, 1.316870e-002
2.159883e+003, 1.615845e-002
2.161811e+003, 1.623541e-002
2.163740e+003, 1.556169e-002
2.165668e+003, 1.654231e-002
2.167596e+003, 1.714728e-002
2.169525e+003, 1.574127e-002
2.171453e+003, 1.476938e-002
2.173382e+003, 1.455600e-002
2.175310e+003, 1.508486e-002
2.177239e+003, 1.531223e-002
2.179167e+003, 1.534967e-002
2.181096e+003, 1.568354e-002
2.183024e+003, 1.609876e-002
2.184953e+003, 1.618878e-002
2.186881e+003, 1.558974e-002
2.188810e+003, 1.565087e-002
2.190738e+003, 1.589981e-002
2.192667e+003, 1.575984e-002
2.194595e+003, 1.604064e-002
2.196523e+003, 1.685176e-002
2.198452e+003, 1.673136e-002
2.200380e+003, 1.682471e-002
2.202309e+003, 1.636518e-002
2.204237e+003, 1.630020e-002
2.206166e+003, 1.555044e-002
2.208094e+003, 1.501832e-002
2.210023e+003, 1.587114e-002
2.211951e+003, 1.683642e-002
2.213880e+003, 1.703489e-002
2.215808e+003, 1.691604e-002
2.217737e+003, 1.686699e-002
2.219665e+003, 1.648112e-002
2.221594e+003, 1.636118e-002
2.223522e+003, 1.739387e-002
2.225450e+003, 1.776109e-002
2.227379e+003, 1.712434e-002
2.229307e+003, 1.714295e-002
2.231236e+003, 1.729476e-002
2.233164e+003, 1.761305e-002
2.235093e+003, 1.765266e-002
2.237021e+003, 1.689520e-002
2.238950e+003, 1.704451e-002
2.240878e+003, 1.741645e-002
2.242807e+003, 1.682374e-002
2.244735e+003, 1.598584e-002
2.246664e+003, 1.620168e-002
2.248592e+003, 1.681059e-002
2.250521e+003, 1.679535e-002
2.252449e+003, 1.638442e-002
2.254377e+003, 1.666795e-002
2.256306e+003, 1.662683e-002
2.258234e+003, 1.616078e-002
2.260163e+003, 1.545947e-002
2.262091e+003, 1.571957e-002
2.264020e+003, 1.629134e-002
2.265948e+003, 1.650161e-002
2.267877e+003, 1.636503e-002
2.269805e+003, 1.644196e-002
2.271734e+003, 1.681385e-002
2.273662e+003, 1.698116e-002
2.275591e+003, 1.690849e-002
2.277519e+003, 1.695687e-002
2.279448e+003, 1.695527e-002
2.281376e+003, 1.683469e-002
2.283304e+003, 1.706755e-002
2.285233e+003, 1.727984e-002
2.287161e+003, 1.716254e-002
2.289090e+003, 1.711694e-002
2.291018e+003, 1.715340e-002
2.292947e+003, 1.662947e-002
2.294875e+003, 1.628668e-002
2.296804e+003, 1.639438e-002
2.298732e+003, 1.657299e-002
2.300661e+003, 1.673076e-002
2.302589e+003, 1.682562e-002
2.304518e+003, 1.674299e-002
2.306446e+003, 1.631582e-002
2.308375e+003, 1.658257e-002
2.310303e+003, 1.665590e-002
2.312231e+003, 1.625871e-002
2.314160e+003, 1.611775e-002
2.316088e+003, 1.633687e-002
2.318017e+003, 1.657286e-002
2.319945e+003, 1.689472e-002
2.321874e+003, 1.755957e-002
2.323802e+003, 1.766290e-002
2.325731e+003, 1.663950e-002
2.327659e+003, 1.601357e-002
2.329588e+003, 1.602888e-002
2.331516e+003, 1.610319e-002
2.333445e+003, 1.609633e-002
2.335373e+003, 1.607852e-002
2.337302e+003, 1.596490e-002
2.339230e+003, 1.590646e-002
2.341158e+003, 1.590808e-002
2.343087e+003, 1.593161e-002
2.345015e+003, 1.585134e-002
2.346944e+003, 1.611384e-002
2.348872e+003, 1.608547e-002
2.350801e+003, 1.585964e-002
2.352729e+003, 1.571118e-002
2.354658e+003, 1.551887e-002
2.356586e+003, 1.528910e-002
2.358515e+003, 1.551358e-002
2.360443e+003, 1.564732e-002
2.362372e+003, 1.550180e-002
2.364300e+003, 1.532732e-002
2.366229e+003, 1.514459e-002
2.368157e+003, 1.527058e-002
2.370085e+003, 1.533015e-002
2.372014e+003, 1.540546e-002
2.373942e+003, 1.532108e-002
2.375871e+003, 1.508290e-002
2.377799e+003, 1.524866e-002
2.379728e+003, 1.563145e-002
2.381656e+003, 1.580906e-002
2.383585e+003, 1.591050e-002
2.385513e+003, 1.593515e-002
2.387442e+003, 1.604201e-002
2.389370e+003, 1.613680e-002
2.391299e+003, 1.604441e-002
2.393227e+003, 1.572730e-002
2.395156e+003, 1.552099e-002
2.397084e+003, 1.556892e-002
2.399012e+003, 1.579166e-002
2.400941e+003, 1.605946e-002
2.402869e+003, 1.600158e-002
2.404798e+003, 1.597305e-002
2.406726e+003, 1.626106e-002
2.408655e+003, 1.631633e-002
2.410583e+003, 1.637492e-002
2.412512e+003, 1.654785e-002
2.414440e+003, 1.642179e-002
2.416369e+003, 1.643884e-002
2.418297e+003, 1.672783e-002
2.420226e+003, 1.698376e-002
2.422154e+003, 1.685859e-002
2.424083e+003, 1.659908e-002
2.426011e+003, 1.661653e-002
2.427939e+003, 1.676675e-002
2.429868e+003, 1.655273e-002
2.431796e+003, 1.613148e-002
2.433725e+003, 1.612575e-002
2.435653e+003, 1.648721e-002
2.437582e+003, 1.667630e-002
2.439510e+003, 1.686610e-002
2.441439e+003, 1.723912e-002
2.443367e+003, 1.700012e-002
2.445296e+003, 1.682679e-002
2.447224e+003, 1.702960e-002
2.449153e+003, 1.737048e-002
2.451081e+003, 1.767597e-002
2.453010e+003, 1.720438e-002
2.454938e+003, 1.708685e-002
2.456866e+003, 1.728480e-002
2.458795e+003, 1.670607e-002
2.460723e+003, 1.617509e-002
2.462652e+003, 1.651086e-002
2.464580e+003, 1.691326e-002
2.466509e+003, 1.698475e-002
2.468437e+003, 1.678952e-002
2.470366e+003, 1.655645e-002
2.472294e+003, 1.656708e-002
2.474223e+003, 1.661394e-002
2.476151e+003, 1.658737e-002
2.478080e+003, 1.644900e-002
2.480008e+003, 1.656890e-002
2.481937e+003, 1.679814e-002
2.483865e+003, 1.694659e-002
2.485793e+003, 1.672413e-002
2.487722e+003, 1.630243e-002
2.489650e+003, 1.651697e-002
2.491579e+003, 1.690600e-002
2.493507e+003, 1.686996e-002
2.495436e+003, 1.662728e-002
2.497364e+003, 1.634294e-002
2.499293e+003, 1.599804e-002
2.501221e+003, 1.594761e-002
2.503150e+003, 1.634701e-002
2.505078e+003, 1.657116e-002
2.507007e+003, 1.644001e-002
2.508935e+003, 1.624140e-002
2.510864e+003, 1.618816e-002
2.512792e+003, 1.633340e-002
2.514720e+003, 1.620569e-002
2.516649e+003, 1.618879e-002
2.518577e+003, 1.660998e-002
2.520506e+003, 1.670762e-002
2.522434e+003, 1.630318e-002
2.524363e+003, 1.621655e-002
2.526291e+003, 1.651318e-002
2.528220e+003, 1.635943e-002
2.530148e+003, 1.605453e-002
2.532077e+003, 1.632437e-002
2.534005e+003, 1.664657e-002
2.535934e+003, 1.680901e-002
2.537862e+003, 1.688989e-002
2.539791e+003, 1.669917e-002
2.541719e+003, 1.643192e-002
2.543647e+003, 1.669502e-002
2.545576e+003, 1.675252e-002
2.547504e+003, 1.679474e-002
2.549433e+003, 1.700512e-002
2.551361e+003, 1.710457e-002
2.553290e+003, 1.733012e-002
2.555218e+003, 1.766666e-002
2.557147e+003, 1.756908e-002
2.559075e+003, 1.732450e-002
2.561004e+003, 1.732201e-002
2.562932e+003, 1.769949e-002
2.564861e+003, 1.810752e-002
2.566789e+003, 1.845438e-002
2.568718e+003, 1.870853e-002
2.570646e+003, 1.898311e-002
2.572574e+003, 1.906000e-002
2.574503e+003, 1.909664e-002
2.576431e+003, 1.908616e-002
2.578360e+003, 1.925493e-002
2.580288e+003, 1.948650e-002
2.582217e+003, 2.009536e-002
2.584145e+003, 2.046028e-002
2.586074e+003, 2.020731e-002
2.588002e+003, 2.028573e-002
2.589931e+003, 2.042621e-002
2.591859e+003, 2.062846e-002
2.593788e+003, 2.109368e-002
2.595716e+003, 2.118443e-002
2.597645e+003, 2.096854e-002
2.599573e+003, 2.074156e-002
2.601501e+003, 2.079466e-002
2.603430e+003, 2.098684e-002
2.605358e+003, 2.135496e-002
2.607287e+003, 2.179752e-002
2.609215e+003, 2.161400e-002
2.611144e+003, 2.158683e-002
2.613072e+003, 2.185523e-002
2.615001e+003, 2.213334e-002
2.616929e+003, 2.223363e-002
2.618858e+003, 2.239448e-002
2.620786e+003, 2.240934e-002
2.622715e+003, 2.225485e-002
2.624643e+003, 2.200243e-002
2.626572e+003, 2.193765e-002
2.628500e+003, 2.227063e-002
2.630428e+003, 2.234808e-002
2.632357e+003, 2.216611e-002
2.634285e+003, 2.202383e-002
2.636214e+003, 2.197296e-002
2.638142e+003, 2.217685e-002
2.640071e+003, 2.226741e-002
2.641999e+003, 2.212915e-002
2.643928e+003, 2.184613e-002
2.645856e+003, 2.167726e-002
2.647785e+003, 2.173335e-002
2.649713e+003, 2.170496e-002
2.651642e+003, 2.164068e-002
2.653570e+003, 2.167063e-002
2.655499e+003, 2.174704e-002
2.657427e+003, 2.165397e-002
2.659355e+003, 2.143911e-002
2.661284e+003, 2.109743e-002
2.663212e+003, 2.088877e-002
2.665141e+003, 2.097516e-002
2.667069e+003, 2.096538e-002
2.668998e+003, 2.088073e-002
2.670926e+003, 2.063199e-002
2.672855e+003, 2.054698e-002
2.674783e+003, 2.055139e-002
2.676712e+003, 2.044224e-002
2.678640e+003, 2.041529e-002
2.680569e+003, 2.048338e-002
2.682497e+003, 2.069565e-002
2.684426e+003, 2.080512e-002
2.686354e+003, 2.095433e-002
2.688282e+003, 2.078091e-002
2.690211e+003, 2.054738e-002
2.692139e+003, 2.084907e-002
2.694068e+003, 2.106936e-002
2.695996e+003, 2.108040e-002
2.697925e+003, 2.100553e-002
2.699853e+003, 2.097689e-002
2.701782e+003, 2.124804e-002
2.703710e+003, 2.144171e-002
2.705639e+003, 2.150463e-002
2.707567e+003, 2.137420e-002
2.709496e+003, 2.146646e-002
2.711424e+003, 2.189295e-002
2.713353e+003, 2.216369e-002
2.715281e+003, 2.201046e-002
2.717209e+003, 2.203606e-002
2.719138e+003, 2.223086e-002
2.721066e+003, 2.213121e-002
2.722995e+003, 2.207314e-002
2.724923e+003, 2.209076e-002
2.726852e+003, 2.210452e-002
2.728780e+003, 2.212906e-002
2.730709e+003, 2.211701e-002
2.732637e+003, 2.205760e-002
2.734566e+003, 2.190294e-002
2.736494e+003, 2.203740e-002
2.738423e+003, 2.228456e-002
2.740351e+003, 2.250257e-002
2.742280e+003, 2.253078e-002
2.744208e+003, 2.259552e-002
2.746136e+003, 2.258790e-002
2.748065e+003, 2.248506e-002
2.749993e+003, 2.273295e-002
2.751922e+003, 2.300120e-002
2.753850e+003, 2.290790e-002
2.755779e+003, 2.284257e-002
2.757707e+003, 2.278514e-002
2.759636e+003, 2.287475e-002
2.761564e+003, 2.320551e-002
2.763493e+003, 2.367481e-002
2.765421e+003, 2.381289e-002
2.767350e+003, 2.383414e-002
2.769278e+003, 2.419332e-002
2.771207e+003, 2.438562e-002
2.773135e+003, 2.453449e-002
2.775063e+003, 2.454373e-002
2.776992e+003, 2.460104e-002
2.778920e+003, 2.503992e-002
2.780849e+003, 2.514691e-002
2.782777e+003, 2.508854e-002
2.784706e+003, 2.534463e-002
2.786634e+003, 2.632160e-002
2.788563e+003, 2.667788e-002
2.790491e+003, 2.653147e-002
2.792420e+003, 2.664057e-002
2.794348e+003, 2.664190e-002
2.796277e+003, 2.666215e-002
2.798205e+003, 2.711113e-002
2.800134e+003, 2.737410e-002
2.802062e+003, 2.720853e-002
2.803990e+003, 2.734247e-002
2.805919e+003, 2.776940e-002
2.807847e+003, 2.793570e-002
2.809776e+003, 2.773722e-002
2.811704e+003, 2.810194e-002
2.813633e+003, 2.848736e-002
2.815561e+003, 2.870530e-002
2.817490e+003, 2.906493e-002
2.819418e+003, 2.923059e-002
2.821347e+003, 2.938814e-002
2.823275e+003, 2.935741e-002
2.825204e+003, 2.962377e-002
2.827132e+003, 3.001721e-002
2.829061e+003, 3.033421e-002
2.830989e+003, 3.063121e-002
2.832917e+003, 3.094193e-002
2.834846e+003, 3.101237e-002
2.836774e+003, 3.120213e-002
2.838703e+003, 3.156467e-002
2.840631e+003, 3.195355e-002
2.842560e+003, 3.217202e-002
2.844488e+003, 3.228185e-002
2.846417e+003, 3.239887e-002
2.848345e+003, 3.265556e-002
2.850274e+003, 3.286469e-002
2.852202e+003, 3.291718e-002
2.854131e+003, 3.329246e-002
2.856059e+003, 3.362282e-002
2.857988e+003, 3.396865e-002
2.859916e+003, 3.441506e-002
2.861844e+003, 3.462279e-002
2.863773e+003, 3.483022e-002
2.865701e+003, 3.512707e-002
2.867630e+003, 3.544999e-002
2.869558e+003, 3.568091e-002
2.871487e+003, 3.605825e-002
2.873415e+003, 3.669900e-002
2.875344e+003, 3.720297e-002
2.877272e+003, 3.693505e-002
2.879201e+003, 3.707444e-002
2.881129e+003, 3.753888e-002
2.883058e+003, 3.788659e-002
2.884986e+003, 3.814523e-002
2.886915e+003, 3.850444e-002
2.888843e+003, 3.911567e-002
2.890771e+003, 3.956011e-002
2.892700e+003, 3.960199e-002
2.894628e+003, 3.951722e-002
2.896557e+003, 3.949866e-002
2.898485e+003, 3.993090e-002
2.900414e+003, 4.060497e-002
2.902342e+003, 4.141627e-002
2.904271e+003, 4.195719e-002
2.906199e+003, 4.179907e-002
2.908128e+003, 4.185586e-002
2.910056e+003, 4.233757e-002
2.911985e+003, 4.258910e-002
2.913913e+003, 4.266251e-002
2.915842e+003, 4.280133e-002
2.917770e+003, 4.266423e-002
2.919698e+003, 4.247640e-002
2.921627e+003, 4.285813e-002
2.923555e+003, 4.340511e-002
2.925484e+003, 4.365710e-002
2.927412e+003, 4.394528e-002
2.929341e+003, 4.473440e-002
2.931269e+003, 4.530938e-002
2.933198e+003, 4.543694e-002
2.935126e+003, 4.574912e-002
2.937055e+003, 4.597767e-002
2.938983e+003, 4.592476e-002
2.940912e+003, 4.597496e-002
2.942840e+003, 4.635072e-002
2.944769e+003, 4.648963e-002
2.946697e+003, 4.647235e-002
2.948625e+003, 4.689659e-002
2.950554e+003, 4.691273e-002
2.952482e+003, 4.714389e-002
2.954411e+003, 4.792020e-002
2.956339e+003, 4.834165e-002
2.958268e+003, 4.833377e-002
2.960196e+003, 4.871644e-002
2.962125e+003, 4.937572e-002
2.964053e+003, 4.983091e-002
2.965982e+003, 4.990039e-002
2.967910e+003, 5.025771e-002
2.969839e+003, 5.094602e-002
2.971767e+003, 5.145506e-002
2.973696e+003, 5.170500e-002
2.975624e+003, 5.198409e-002
2.977552e+003, 5.222708e-002
2.979481e+003, 5.277606e-002
2.981409e+003, 5.324408e-002
2.983338e+003, 5.331876e-002
2.985266e+003, 5.355306e-002
2.987195e+003, 5.384748e-002
2.989123e+003, 5.420570e-002
2.991052e+003, 5.490006e-002
2.992980e+003, 5.541520e-002
2.994909e+003, 5.577214e-002
2.996837e+003, 5.600663e-002
2.998766e+003, 5.631714e-002
3.000694e+003, 5.698727e-002
3.002623e+003, 5.779342e-002
3.004551e+003, 5.824631e-002
3.006479e+003, 5.859483e-002
3.008408e+003, 5.884081e-002
3.010336e+003, 5.942481e-002
3.012265e+003, 5.993850e-002
3.014193e+003, 5.993470e-002
3.016122e+003, 5.987365e-002
3.018050e+003, 6.044417e-002
3.019979e+003, 6.195645e-002
3.021907e+003, 6.326726e-002
3.023836e+003, 6.375579e-002
3.025764e+003, 6.440159e-002
3.027693e+003, 6.507089e-002
3.029621e+003, 6.570026e-002
3.031550e+003, 6.637245e-002
3.033478e+003, 6.718896e-002
3.035406e+003, 6.771901e-002
3.037335e+003, 6.818043e-002
3.039263e+003, 6.926470e-002
3.041192e+003, 7.013274e-002
3.043120e+003, 7.065117e-002
3.045049e+003, 7.112555e-002
3.046977e+003, 7.174502e-002
3.048906e+003, 7.281774e-002
3.050834e+003, 7.333130e-002
3.052763e+003, 7.411387e-002
3.054691e+003, 7.514133e-002
3.056620e+003, 7.570414e-002
3.058548e+003, 7.609932e-002
3.060477e+003, 7.694011e-002
3.062405e+003, 7.797560e-002
3.064333e+003, 7.851905e-002
3.066262e+003, 7.899505e-002
3.068190e+003, 7.970408e-002
3.070119e+003, 8.092327e-002
3.072047e+003, 8.145340e-002
3.073976e+003, 8.170405e-002
3.075904e+003, 8.233289e-002
3.077833e+003, 8.277750e-002
3.079761e+003, 8.379719e-002
3.081690e+003, 8.485362e-002
3.083618e+003, 8.546950e-002
3.085547e+003, 8.583473e-002
3.087475e+003, 8.682314e-002
3.089404e+003, 8.767678e-002
3.091332e+003, 8.839066e-002
3.093260e+003, 8.922529e-002
3.095189e+003, 9.015302e-002
3.097117e+003, 9.128798e-002
3.099046e+003, 9.210855e-002
3.100974e+003, 9.240989e-002
3.102903e+003, 9.312045e-002
3.104831e+003, 9.362780e-002
3.106760e+003, 9.466279e-002
3.108688e+003, 9.627742e-002
3.110617e+003, 9.740408e-002
3.112545e+003, 9.801698e-002
3.114474e+003, 9.910928e-002
3.116402e+003, 1.000615e-001
3.118331e+003, 1.008389e-001
3.120259e+003, 1.017351e-001
3.122188e+003, 1.028681e-001
3.124116e+003, 1.041018e-001
3.126044e+003, 1.052254e-001
3.127973e+003, 1.060746e-001
3.129901e+003, 1.064625e-001
3.131830e+003, 1.072677e-001
3.133758e+003, 1.086825e-001
3.135687e+003, 1.098540e-001
3.137615e+003, 1.109264e-001
3.139544e+003, 1.121356e-001
3.141472e+003, 1.129978e-001
3.143401e+003, 1.131235e-001
3.145329e+003, 1.137862e-001
3.147258e+003, 1.148822e-001
3.149186e+003, 1.159530e-001
3.151115e+003, 1.168695e-001
3.153043e+003, 1.180959e-001
3.154971e+003, 1.188805e-001
3.156900e+003, 1.198926e-001
3.158828e+003, 1.210695e-001
3.160757e+003, 1.217053e-001
3.162685e+003, 1.224368e-001
3.164614e+003, 1.234453e-001
3.166542e+003, 1.243785e-001
3.168471e+003, 1.252385e-001
3.170399e+003, 1.265047e-001
3.172328e+003, 1.276945e-001
3.174256e+003, 1.285809e-001
3.176185e+003, 1.295124e-001
3.178113e+003, 1.307040e-001
3.180042e+003, 1.320528e-001
3.181970e+003, 1.330197e-001
3.183898e+003, 1.338031e-001
3.185827e+003, 1.350260e-001
3.187755e+003, 1.359465e-001
3.189684e+003, 1.366148e-001
3.191612e+003, 1.371004e-001
3.193541e+003, 1.378369e-001
3.195469e+003, 1.387862e-001
3.197398e+003, 1.396533e-001
3.199326e+003, 1.404854e-001
3.201255e+003, 1.412345e-001
3.203183e+003, 1.418736e-001
3.205112e+003, 1.428945e-001
3.207040e+003, 1.438248e-001
3.208969e+003, 1.442922e-001
3.210897e+003, 1.448800e-001
3.212825e+003, 1.458278e-001
3.214754e+003, 1.472178e-001
3.216682e+003, 1.481837e-001
3.218611e+003, 1.484755e-001
3.220539e+003, 1.491557e-001
3.222468e+003, 1.496752e-001
3.224396e+003, 1.501386e-001
3.226325e+003, 1.506733e-001
3.228253e+003, 1.507759e-001
3.230182e+003, 1.506654e-001
3.232110e+003, 1.513388e-001
3.234039e+003, 1.527847e-001
3.235967e+003, 1.534933e-001
3.237896e+003, 1.535989e-001
3.239824e+003, 1.534627e-001
3.241752e+003, 1.537508e-001
3.243681e+003, 1.544585e-001
3.245609e+003, 1.552076e-001
3.247538e+003, 1.558632e-001
3.249466e+003, 1.567290e-001
3.251395e+003, 1.572215e-001
3.253323e+003, 1.570191e-001
3.255252e+003, 1.567721e-001
3.257180e+003, 1.572865e-001
3.259109e+003, 1.578893e-001
3.261037e+003, 1.583865e-001
3.262966e+003, 1.587272e-001
3.264894e+003, 1.591497e-001
3.266823e+003, 1.599823e-001
3.268751e+003, 1.602620e-001
3.270679e+003, 1.607934e-001
3.272608e+003, 1.614828e-001
3.274536e+003, 1.611032e-001
3.276465e+003, 1.610242e-001
3.278393e+003, 1.613211e-001
3.280322e+003, 1.617431e-001
3.282250e+003, 1.623675e-001
3.284179e+003, 1.628376e-001
3.286107e+003, 1.640084e-001
3.288036e+003, 1.645655e-001
3.289964e+003, 1.647121e-001
3.291893e+003, 1.652286e-001
3.293821e+003, 1.655076e-001
3.295750e+003, 1.663135e-001
3.297678e+003, 1.675011e-001
3.299606e+003, 1.685943e-001
3.301535e+003, 1.689224e-001
3.303463e+003, 1.694876e-001
3.305392e+003, 1.696818e-001
3.307320e+003, 1.700998e-001
3.309249e+003, 1.707978e-001
3.311177e+003, 1.711610e-001
3.313106e+003, 1.721257e-001
3.315034e+003, 1.731815e-001
3.316963e+003, 1.735599e-001
3.318891e+003, 1.741178e-001
3.320820e+003, 1.749513e-001
3.322748e+003, 1.758187e-001
3.324677e+003, 1.762465e-001
3.326605e+003, 1.771129e-001
3.328533e+003, 1.778121e-001
3.330462e+003, 1.784851e-001
3.332390e+003, 1.792180e-001
3.334319e+003, 1.801391e-001
3.336247e+003, 1.806235e-001
3.338176e+003, 1.810726e-001
3.340104e+003, 1.816878e-001
3.342033e+003, 1.824320e-001
3.343961e+003, 1.831791e-001
3.345890e+003, 1.830127e-001
3.347818e+003, 1.825416e-001
3.349747e+003, 1.830946e-001
3.351675e+003, 1.841405e-001
3.353604e+003, 1.848187e-001
3.355532e+003, 1.849574e-001
3.357460e+003, 1.848285e-001
3.359389e+003, 1.851033e-001
3.361317e+003, 1.855204e-001
3.363246e+003, 1.850186e-001
3.365174e+003, 1.852495e-001
3.367103e+003, 1.859334e-001
3.369031e+003, 1.864277e-001
3.370960e+003, 1.870830e-001
3.372888e+003, 1.868337e-001
3.374817e+003, 1.860725e-001
3.376745e+003, 1.861482e-001
3.378674e+003, 1.870207e-001
3.380602e+003, 1.868934e-001
3.382531e+003, 1.869845e-001
3.384459e+003, 1.869957e-001
3.386387e+003, 1.868998e-001
3.388316e+003, 1.865658e-001
3.390244e+003, 1.864909e-001
3.392173e+003, 1.872390e-001
3.394101e+003, 1.874785e-001
3.396030e+003, 1.875657e-001
3.397958e+003, 1.872981e-001
3.399887e+003, 1.868919e-001
3.401815e+003, 1.864980e-001
3.403744e+003, 1.867156e-001
3.405672e+003, 1.870535e-001
3.407601e+003, 1.873653e-001
3.409529e+003, 1.868720e-001
3.411458e+003, 1.864390e-001
3.413386e+003, 1.870520e-001
3.415314e+003, 1.872649e-001
3.417243e+003, 1.877443e-001
3.419171e+003, 1.878186e-001
3.421100e+003, 1.877587e-001
3.423028e+003, 1.876809e-001
3.424957e+003, 1.877530e-001
3.426885e+003, 1.877685e-001
3.428814e+003, 1.876499e-001
3.430742e+003, 1.874254e-001
3.432671e+003, 1.876667e-001
3.434599e+003, 1.883879e-001
3.436528e+003, 1.889787e-001
3.438456e+003, 1.884726e-001
3.440385e+003, 1.879457e-001
3.442313e+003, 1.876115e-001
3.444241e+003, 1.874372e-001
3.446170e+003, 1.869857e-001
3.448098e+003, 1.869397e-001
3.450027e+003, 1.875814e-001
3.451955e+003, 1.883822e-001
3.453884e+003, 1.883997e-001
3.455812e+003, 1.875992e-001
3.457741e+003, 1.864411e-001
3.459669e+003, 1.855756e-001
3.461598e+003, 1.856658e-001
3.463526e+003, 1.848689e-001
3.465455e+003, 1.839757e-001
3.467383e+003, 1.833549e-001
3.469312e+003, 1.832009e-001
3.471240e+003, 1.836019e-001
3.473168e+003, 1.832189e-001
3.475097e+003, 1.824779e-001
3.477025e+003, 1.820313e-001
3.478954e+003, 1.817917e-001
3.480882e+003, 1.813039e-001
3.482811e+003, 1.805343e-001
3.484739e+003, 1.806509e-001
3.486668e+003, 1.800791e-001
3.488596e+003, 1.792482e-001
3.490525e+003, 1.793968e-001
3.492453e+003, 1.794620e-001
3.494382e+003, 1.779357e-001
3.496310e+003, 1.766478e-001
3.498239e+003, 1.756602e-001
3.500167e+003, 1.749274e-001
3.502095e+003, 1.747530e-001
3.504024e+003, 1.746521e-001
3.505952e+003, 1.741847e-001
3.507881e+003, 1.731032e-001
3.509809e+003, 1.715901e-001
3.511738e+003, 1.703683e-001
3.513666e+003, 1.699213e-001
3.515595e+003, 1.688016e-001
3.517523e+003, 1.672484e-001
3.519452e+003, 1.662136e-001
3.521380e+003, 1.649844e-001
3.523309e+003, 1.633993e-001
3.525237e+003, 1.631137e-001
3.527166e+003, 1.621763e-001
3.529094e+003, 1.602342e-001
3.531022e+003, 1.587109e-001
3.532951e+003, 1.569194e-001
3.534879e+003, 1.553209e-001
3.536808e+003, 1.538585e-001
3.538736e+003, 1.525800e-001
3.540665e+003, 1.510327e-001
3.542593e+003, 1.490417e-001
3.544522e+003, 1.470542e-001
3.546450e+003, 1.456450e-001
3.548379e+003, 1.442872e-001
3.550307e+003, 1.424700e-001
3.552236e+003, 1.409158e-001
3.554164e+003, 1.390900e-001
3.556093e+003, 1.366275e-001
3.558021e+003, 1.348496e-001
3.559949e+003, 1.331140e-001
3.561878e+003, 1.311957e-001
3.563806e+003, 1.290789e-001
3.565735e+003, 1.272000e-001
3.567663e+003, 1.257065e-001
3.569592e+003, 1.233393e-001
3.571520e+003, 1.207224e-001
3.573449e+003, 1.186948e-001
3.575377e+003, 1.165765e-001
3.577306e+003, 1.143055e-001
3.579234e+003, 1.119466e-001
3.581163e+003, 1.099002e-001
3.583091e+003, 1.080269e-001
3.585020e+003, 1.056652e-001
3.586948e+003, 1.034760e-001
3.588876e+003, 1.014201e-001
3.590805e+003, 9.895270e-002
3.592733e+003, 9.663231e-002
3.594662e+003, 9.447861e-002
3.596590e+003, 9.204943e-002
3.598519e+003, 8.893316e-002
3.600447e+003, 8.624654e-002
3.602376e+003, 8.356731e-002
3.604304e+003, 8.031806e-002
3.606233e+003, 7.751432e-002
3.608161e+003, 7.505418e-002
3.610090e+003, 7.191923e-002
3.612018e+003, 6.842034e-002
3.613947e+003, 6.565814e-002
3.615875e+003, 6.326760e-002
3.617803e+003, 6.071212e-002
3.619732e+003, 5.790739e-002
3.621660e+003, 5.459293e-002
3.623589e+003, 5.176088e-002
3.625517e+003, 4.955280e-002
3.627446e+003, 4.735208e-002
3.629374e+003, 4.454056e-002
3.631303e+003, 4.145848e-002
3.633231e+003, 3.909442e-002
3.635160e+003, 3.718405e-002
3.637088e+003, 3.554551e-002
3.639017e+003, 3.361982e-002
3.640945e+003, 3.184646e-002
3.642874e+003, 3.072734e-002
3.644802e+003, 2.900821e-002
3.646730e+003, 2.756971e-002
3.648659e+003, 2.674207e-002
3.650587e+003, 2.518347e-002
3.652516e+003, 2.342578e-002
3.654444e+003, 2.237821e-002
3.656373e+003, 2.191444e-002
3.658301e+003, 2.139514e-002
3.660230e+003, 2.068206e-002
3.662158e+003, 1.972392e-002
3.664087e+003, 1.919648e-002
3.666015e+003, 1.909862e-002
3.667944e+003, 1.858549e-002
3.669872e+003, 1.724342e-002
3.671801e+003, 1.710500e-002
3.673729e+003, 1.729915e-002
3.675657e+003, 1.663539e-002
3.677586e+003, 1.584224e-002
3.679514e+003, 1.491156e-002
3.681443e+003, 1.415173e-002
3.683371e+003, 1.418473e-002
3.685300e+003, 1.351581e-002
3.687228e+003, 1.318001e-002
3.689157e+003, 1.362766e-002
3.691085e+003, 1.387666e-002
3.693014e+003, 1.393869e-002
3.694942e+003, 1.409760e-002
3.696871e+003, 1.385003e-002
3.698799e+003, 1.364982e-002
3.700728e+003, 1.419149e-002
3.702656e+003, 1.432114e-002
3.704584e+003, 1.385371e-002
3.706513e+003, 1.407297e-002
3.708441e+003, 1.382123e-002
3.710370e+003, 1.381860e-002
3.712298e+003, 1.383965e-002
3.714227e+003, 1.333140e-002
3.716155e+003, 1.338610e-002
3.718084e+003, 1.316137e-002
3.720012e+003, 1.269826e-002
3.721941e+003, 1.252187e-002
3.723869e+003, 1.272519e-002
3.725798e+003, 1.259228e-002
3.727726e+003, 1.248127e-002
3.729655e+003, 1.266231e-002
3.731583e+003, 1.281401e-002
3.733511e+003, 1.297485e-002
3.735440e+003, 1.284368e-002
3.737368e+003, 1.262355e-002
3.739297e+003, 1.239273e-002
3.741225e+003, 1.216995e-002
3.743154e+003, 1.279376e-002
3.745082e+003, 1.364294e-002
3.747011e+003, 1.377894e-002
3.748939e+003, 1.429135e-002
3.750868e+003, 1.397215e-002
3.752796e+003, 1.321062e-002
3.754725e+003, 1.266868e-002
3.756653e+003, 1.285912e-002
3.758582e+003, 1.370293e-002
3.760510e+003, 1.397337e-002
3.762438e+003, 1.357813e-002
3.764367e+003, 1.389780e-002
3.766295e+003, 1.383710e-002
3.768224e+003, 1.260667e-002
3.770152e+003, 1.230777e-002
3.772081e+003, 1.277946e-002
3.774009e+003, 1.275412e-002
3.775938e+003, 1.321843e-002
3.777866e+003, 1.337689e-002
3.779795e+003, 1.336215e-002
3.781723e+003, 1.301140e-002
3.783652e+003, 1.223087e-002
3.785580e+003, 1.230841e-002
3.787509e+003, 1.249881e-002
3.789437e+003, 1.246674e-002
3.791365e+003, 1.271894e-002
3.793294e+003, 1.324799e-002
3.795222e+003, 1.389898e-002
3.797151e+003, 1.452928e-002
3.799079e+003, 1.490171e-002
3.801008e+003, 1.422826e-002
3.802936e+003, 1.372364e-002
3.804865e+003, 1.355394e-002
3.806793e+003, 1.361310e-002
3.808722e+003, 1.330870e-002
3.810650e+003, 1.357132e-002
3.812579e+003, 1.344207e-002
3.814507e+003, 1.307610e-002
3.816436e+003, 1.364096e-002
3.818364e+003, 1.399286e-002
3.820292e+003, 1.377351e-002
3.822221e+003, 1.391663e-002
3.824149e+003, 1.392891e-002
3.826078e+003, 1.396614e-002
3.828006e+003, 1.394865e-002
3.829935e+003, 1.389479e-002
3.831863e+003, 1.377918e-002
3.833792e+003, 1.360004e-002
3.835720e+003, 1.428771e-002
3.837649e+003, 1.441163e-002
3.839577e+003, 1.397675e-002
3.841506e+003, 1.407199e-002
3.843434e+003, 1.428329e-002
3.845363e+003, 1.406587e-002
3.847291e+003, 1.462494e-002
3.849219e+003, 1.515179e-002
3.851148e+003, 1.483380e-002
3.853076e+003, 1.446622e-002
3.855005e+003, 1.428810e-002
3.856933e+003, 1.411523e-002
3.858862e+003, 1.425875e-002
3.860790e+003, 1.454912e-002
3.862719e+003, 1.511334e-002
3.864647e+003, 1.538000e-002
3.866576e+003, 1.527471e-002
3.868504e+003, 1.503571e-002
3.870433e+003, 1.480685e-002
3.872361e+003, 1.528161e-002
3.874290e+003, 1.573391e-002
3.876218e+003, 1.565778e-002
3.878146e+003, 1.527292e-002
3.880075e+003, 1.430018e-002
3.882003e+003, 1.446351e-002
3.883932e+003, 1.554971e-002
3.885860e+003, 1.564363e-002
3.887789e+003, 1.500693e-002
3.889717e+003, 1.489218e-002
3.891646e+003, 1.487736e-002
3.893574e+003, 1.501245e-002
3.895503e+003, 1.547004e-002
3.897431e+003, 1.530416e-002
3.899360e+003, 1.599102e-002
3.901288e+003, 1.692768e-002
3.903217e+003, 1.655483e-002
3.905145e+003, 1.562109e-002
3.907073e+003, 1.559187e-002
3.909002e+003, 1.629791e-002
3.910930e+003, 1.619806e-002
3.912859e+003, 1.594680e-002
3.914787e+003, 1.608787e-002
3.916716e+003, 1.539665e-002
3.918644e+003, 1.483967e-002
3.920573e+003, 1.488934e-002
3.922501e+003, 1.545781e-002
3.924430e+003, 1.611865e-002
3.926358e+003, 1.570942e-002
3.928287e+003, 1.567764e-002
3.930215e+003, 1.636841e-002
3.932144e+003, 1.613577e-002
3.934072e+003, 1.587373e-002
3.936000e+003, 1.602280e-002
3.937929e+003, 1.613106e-002
3.939857e+003, 1.569904e-002
3.941786e+003, 1.629344e-002
3.943714e+003, 1.715903e-002
3.945643e+003, 1.675247e-002
3.947571e+003, 1.615480e-002
3.949500e+003, 1.564247e-002
3.951428e+003, 1.547774e-002
3.953357e+003, 1.572182e-002
3.955285e+003, 1.646533e-002
3.957214e+003, 1.647644e-002
3.959142e+003, 1.555923e-002
3.961071e+003, 1.556805e-002
3.962999e+003, 1.638202e-002
3.964927e+003, 1.624018e-002
3.966856e+003, 1.652359e-002
3.968784e+003, 1.747274e-002
3.970713e+003, 1.757405e-002
3.972641e+003, 1.680329e-002
3.974570e+003, 1.581653e-002
3.976498e+003, 1.513998e-002
3.978427e+003, 1.517796e-002
3.980355e+003, 1.572710e-002
3.982284e+003, 1.567112e-002
3.984212e+003, 1.596986e-002
3.986141e+003, 1.619654e-002
3.988069e+003, 1.655647e-002
3.989998e+003, 1.708742e-002
3.991926e+003, 1.753674e-002
3.993854e+003, 1.727324e-002
3.995783e+003, 1.665485e-002
3.997711e+003, 1.671483e-002
3.999640e+003, 1.755971e-002
##END=



