##NAMES=Livingstonite
##RRUFFID=R050453
##IDEAL CHEMISTRY=HgSb_4_S_8_
##LOCALITY=Huitzuco, Guerrero, Mexico
##OWNER=RRUFF
##SOURCE=University of Arizona Mineral Museum
##DESCRIPTION=Aggregate of gray columnar crystals
##STATUS=The identification of this mineral has been confirmed by X-ray diffraction and chemical analysis
##URL=rruff.info/R050453
##MEASURED CHEMISTRY=Hg_1.00_Sb_4.00_S_8.00_
3.741225e+002, 2.083163e-001
3.760510e+002, 1.670845e-001
3.779795e+002, 1.490423e-001
3.799079e+002, 1.511172e-001
3.818364e+002, 1.659995e-001
3.837649e+002, 1.773811e-001
3.856933e+002, 1.906048e-001
3.876218e+002, 2.046230e-001
3.895503e+002, 2.163602e-001
3.914787e+002, 2.255971e-001
3.934072e+002, 2.405618e-001
3.953357e+002, 2.484240e-001
3.972641e+002, 2.516412e-001
3.991926e+002, 2.559601e-001
4.011211e+002, 2.637315e-001
4.030495e+002, 2.708367e-001
4.049780e+002, 2.811567e-001
4.069065e+002, 2.906103e-001
4.088349e+002, 2.971202e-001
4.107634e+002, 3.026200e-001
4.126919e+002, 3.103553e-001
4.146203e+002, 3.191031e-001
4.165488e+002, 3.270306e-001
4.184773e+002, 3.268120e-001
4.204057e+002, 3.287018e-001
4.223342e+002, 3.361553e-001
4.242627e+002, 3.406877e-001
4.261911e+002, 3.452581e-001
4.281196e+002, 3.490306e-001
4.300481e+002, 3.535276e-001
4.319765e+002, 3.593521e-001
4.339050e+002, 3.634057e-001
4.358335e+002, 3.668790e-001
4.377619e+002, 3.726628e-001
4.396904e+002, 3.797594e-001
4.416189e+002, 3.790168e-001
4.435473e+002, 3.830520e-001
4.454758e+002, 3.886385e-001
4.474043e+002, 3.930850e-001
4.493327e+002, 3.949615e-001
4.512612e+002, 3.988521e-001
4.531897e+002, 4.019960e-001
4.551181e+002, 4.040070e-001
4.570466e+002, 4.063442e-001
4.589751e+002, 4.105429e-001
4.609035e+002, 4.120387e-001
4.628320e+002, 4.144928e-001
4.647605e+002, 4.165114e-001
4.666889e+002, 4.188178e-001
4.686174e+002, 4.169694e-001
4.705459e+002, 4.195246e-001
4.724743e+002, 4.230470e-001
4.744028e+002, 4.216127e-001
4.763313e+002, 4.216205e-001
4.782597e+002, 4.235087e-001
4.801882e+002, 4.258092e-001
4.821167e+002, 4.269800e-001
4.840451e+002, 4.281975e-001
4.859736e+002, 4.299707e-001
4.879021e+002, 4.307539e-001
4.898305e+002, 4.322677e-001
4.917590e+002, 4.348141e-001
4.936875e+002, 4.388151e-001
4.956159e+002, 4.378382e-001
4.975444e+002, 4.425702e-001
4.994729e+002, 4.471625e-001
5.014013e+002, 4.488563e-001
5.033298e+002, 4.511891e-001
5.052583e+002, 4.545692e-001
5.071867e+002, 4.595228e-001
5.091152e+002, 4.575794e-001
5.110437e+002, 4.586990e-001
5.129721e+002, 4.624200e-001
5.149006e+002, 4.654302e-001
5.168290e+002, 4.672292e-001
5.187575e+002, 4.673686e-001
5.206860e+002, 4.692152e-001
5.226144e+002, 4.699909e-001
5.245429e+002, 4.708461e-001
5.264714e+002, 4.735789e-001
5.283998e+002, 4.748067e-001
5.303283e+002, 4.769912e-001
5.322568e+002, 4.756418e-001
5.341852e+002, 4.764487e-001
5.361137e+002, 4.820107e-001
5.380422e+002, 4.849505e-001
5.399706e+002, 4.843198e-001
5.418991e+002, 4.871981e-001
5.438276e+002, 4.896324e-001
5.457560e+002, 4.894049e-001
5.476845e+002, 4.916721e-001
5.496130e+002, 4.946696e-001
5.515414e+002, 4.966345e-001
5.534699e+002, 4.990799e-001
5.553984e+002, 5.003870e-001
5.573268e+002, 5.003402e-001
5.592553e+002, 5.003237e-001
5.611838e+002, 5.021102e-001
5.631122e+002, 5.022253e-001
5.650407e+002, 5.042189e-001
5.669692e+002, 5.065519e-001
5.688976e+002, 5.074296e-001
5.708261e+002, 5.089810e-001
5.727546e+002, 5.091857e-001
5.746830e+002, 5.120258e-001
5.766115e+002, 5.132494e-001
5.785400e+002, 5.158225e-001
5.804684e+002, 5.179681e-001
5.823969e+002, 5.211736e-001
5.843254e+002, 5.224412e-001
5.862538e+002, 5.247017e-001
5.881823e+002, 5.258427e-001
5.901108e+002, 5.266039e-001
5.920392e+002, 5.294476e-001
5.939677e+002, 5.313807e-001
5.958962e+002, 5.328816e-001
5.978246e+002, 5.326315e-001
5.997531e+002, 5.338540e-001
6.016816e+002, 5.365540e-001
6.036100e+002, 5.387098e-001
6.055385e+002, 5.411344e-001
6.074670e+002, 5.428557e-001
6.093954e+002, 5.423465e-001
6.113239e+002, 5.450633e-001
6.132524e+002, 5.476847e-001
6.151808e+002, 5.505100e-001
6.171093e+002, 5.523560e-001
6.190378e+002, 5.542626e-001
6.209662e+002, 5.556372e-001
6.228947e+002, 5.584977e-001
6.248232e+002, 5.595448e-001
6.267516e+002, 5.604082e-001
6.286801e+002, 5.634205e-001
6.306086e+002, 5.653957e-001
6.325370e+002, 5.656875e-001
6.344655e+002, 5.673063e-001
6.363940e+002, 5.693873e-001
6.383224e+002, 5.721565e-001
6.402509e+002, 5.738989e-001
6.421794e+002, 5.730579e-001
6.441078e+002, 5.745563e-001
6.460363e+002, 5.766121e-001
6.479648e+002, 5.782188e-001
6.498932e+002, 5.792130e-001
6.518217e+002, 5.799796e-001
6.537502e+002, 5.817074e-001
6.556786e+002, 5.844653e-001
6.576071e+002, 5.865747e-001
6.595356e+002, 5.874459e-001
6.614641e+002, 5.882036e-001
6.633925e+002, 5.900524e-001
6.653210e+002, 5.938939e-001
6.672495e+002, 5.972849e-001
6.691779e+002, 5.992106e-001
6.711064e+002, 5.987980e-001
6.730349e+002, 6.008497e-001
6.749633e+002, 6.047260e-001
6.768918e+002, 6.057258e-001
6.788203e+002, 6.066067e-001
6.807487e+002, 6.092451e-001
6.826772e+002, 6.113328e-001
6.846057e+002, 6.134128e-001
6.865341e+002, 6.155706e-001
6.884626e+002, 6.166047e-001
6.903911e+002, 6.183456e-001
6.923195e+002, 6.209401e-001
6.942480e+002, 6.217461e-001
6.961765e+002, 6.231844e-001
6.981049e+002, 6.222927e-001
7.000334e+002, 6.221503e-001
7.019619e+002, 6.204480e-001
7.038903e+002, 6.216691e-001
7.058188e+002, 6.234346e-001
7.077473e+002, 6.245128e-001
7.096757e+002, 6.250500e-001
7.116042e+002, 6.287971e-001
7.135327e+002, 6.307269e-001
7.154611e+002, 6.319299e-001
7.173896e+002, 6.340773e-001
7.193181e+002, 6.356053e-001
7.212465e+002, 6.361338e-001
7.231750e+002, 6.386793e-001
7.251035e+002, 6.427663e-001
7.270319e+002, 6.438425e-001
7.289604e+002, 6.450863e-001
7.308889e+002, 6.467883e-001
7.328173e+002, 6.476932e-001
7.347458e+002, 6.490237e-001
7.366743e+002, 6.512464e-001
7.386027e+002, 6.534418e-001
7.405312e+002, 6.550629e-001
7.424597e+002, 6.560320e-001
7.443881e+002, 6.574727e-001
7.463166e+002, 6.596667e-001
7.482451e+002, 6.609285e-001
7.501735e+002, 6.622862e-001
7.521020e+002, 6.636864e-001
7.540305e+002, 6.636589e-001
7.559589e+002, 6.637936e-001
7.578874e+002, 6.646872e-001
7.598159e+002, 6.668117e-001
7.617443e+002, 6.680359e-001
7.636728e+002, 6.677040e-001
7.656013e+002, 6.675634e-001
7.675297e+002, 6.698750e-001
7.694582e+002, 6.718000e-001
7.713867e+002, 6.734933e-001
7.733151e+002, 6.741144e-001
7.752436e+002, 6.756765e-001
7.771721e+002, 6.773492e-001
7.791005e+002, 6.782672e-001
7.810290e+002, 6.782559e-001
7.829575e+002, 6.789412e-001
7.848859e+002, 6.784869e-001
7.868144e+002, 6.787067e-001
7.887429e+002, 6.805753e-001
7.906713e+002, 6.838419e-001
7.925998e+002, 6.858886e-001
7.945283e+002, 6.859242e-001
7.964567e+002, 6.864781e-001
7.983852e+002, 6.857259e-001
8.003137e+002, 6.846787e-001
8.022421e+002, 6.827497e-001
8.041706e+002, 6.827270e-001
8.060991e+002, 6.835166e-001
8.080275e+002, 6.824484e-001
8.099560e+002, 6.831511e-001
8.118845e+002, 6.838146e-001
8.138129e+002, 6.834312e-001
8.157414e+002, 6.834123e-001
8.176699e+002, 6.837342e-001
8.195983e+002, 6.852456e-001
8.215268e+002, 6.871693e-001
8.234553e+002, 6.893917e-001
8.253837e+002, 6.912077e-001
8.273122e+002, 6.937186e-001
8.292407e+002, 6.952921e-001
8.311691e+002, 6.956807e-001
8.330976e+002, 6.947713e-001
8.350261e+002, 6.964471e-001
8.369545e+002, 6.983008e-001
8.388830e+002, 6.991726e-001
8.408115e+002, 6.999409e-001
8.427399e+002, 7.022268e-001
8.446684e+002, 7.055250e-001
8.465969e+002, 7.070095e-001
8.485253e+002, 7.074084e-001
8.504538e+002, 7.092708e-001
8.523823e+002, 7.108102e-001
8.543107e+002, 7.120895e-001
8.562392e+002, 7.127964e-001
8.581677e+002, 7.174452e-001
8.600961e+002, 7.195995e-001
8.620246e+002, 7.195583e-001
8.639531e+002, 7.202663e-001
8.658815e+002, 7.227157e-001
8.678100e+002, 7.250721e-001
8.697385e+002, 7.260254e-001
8.716669e+002, 7.268264e-001
8.735954e+002, 7.290394e-001
8.755239e+002, 7.310460e-001
8.774523e+002, 7.321328e-001
8.793808e+002, 7.336414e-001
8.813093e+002, 7.352660e-001
8.832377e+002, 7.361333e-001
8.851662e+002, 7.372830e-001
8.870947e+002, 7.395185e-001
8.890231e+002, 7.414354e-001
8.909516e+002, 7.430772e-001
8.928801e+002, 7.441472e-001
8.948085e+002, 7.455396e-001
8.967370e+002, 7.462627e-001
8.986655e+002, 7.472943e-001
9.005939e+002, 7.486389e-001
9.025224e+002, 7.499843e-001
9.044509e+002, 7.510384e-001
9.063793e+002, 7.527941e-001
9.083078e+002, 7.549665e-001
9.102363e+002, 7.569152e-001
9.121647e+002, 7.585084e-001
9.140932e+002, 7.603652e-001
9.160217e+002, 7.622528e-001
9.179501e+002, 7.636503e-001
9.198786e+002, 7.652864e-001
9.218071e+002, 7.669270e-001
9.237355e+002, 7.679998e-001
9.256640e+002, 7.690061e-001
9.275925e+002, 7.705467e-001
9.295209e+002, 7.723281e-001
9.314494e+002, 7.737968e-001
9.333779e+002, 7.746181e-001
9.353063e+002, 7.756125e-001
9.372348e+002, 7.770727e-001
9.391633e+002, 7.786075e-001
9.410917e+002, 7.810971e-001
9.430202e+002, 7.831206e-001
9.449487e+002, 7.845781e-001
9.468771e+002, 7.858579e-001
9.488056e+002, 7.871444e-001
9.507341e+002, 7.885198e-001
9.526625e+002, 7.898129e-001
9.545910e+002, 7.914222e-001
9.565195e+002, 7.931281e-001
9.584479e+002, 7.950326e-001
9.603764e+002, 7.971056e-001
9.623049e+002, 7.985843e-001
9.642333e+002, 7.994778e-001
9.661618e+002, 8.009890e-001
9.680903e+002, 8.029856e-001
9.700187e+002, 8.041705e-001
9.719472e+002, 8.049096e-001
9.738757e+002, 8.061970e-001
9.758041e+002, 8.082677e-001
9.777326e+002, 8.104933e-001
9.796611e+002, 8.119236e-001
9.815895e+002, 8.133364e-001
9.835180e+002, 8.146859e-001
9.854465e+002, 8.163213e-001
9.873749e+002, 8.181723e-001
9.893034e+002, 8.196057e-001
9.912319e+002, 8.203713e-001
9.931603e+002, 8.214158e-001
9.950888e+002, 8.233573e-001
9.970173e+002, 8.246720e-001
9.989457e+002, 8.254729e-001
1.000874e+003, 8.272112e-001
1.002803e+003, 8.292612e-001
1.004731e+003, 8.309539e-001
1.006660e+003, 8.323680e-001
1.008588e+003, 8.341879e-001
1.010517e+003, 8.357438e-001
1.012445e+003, 8.366582e-001
1.014373e+003, 8.382462e-001
1.016302e+003, 8.398277e-001
1.018230e+003, 8.410484e-001
1.020159e+003, 8.421959e-001
1.022087e+003, 8.430415e-001
1.024016e+003, 8.441146e-001
1.025944e+003, 8.457693e-001
1.027873e+003, 8.471379e-001
1.029801e+003, 8.482844e-001
1.031730e+003, 8.486001e-001
1.033658e+003, 8.489927e-001
1.035587e+003, 8.504389e-001
1.037515e+003, 8.521267e-001
1.039443e+003, 8.534114e-001
1.041372e+003, 8.542652e-001
1.043300e+003, 8.552141e-001
1.045229e+003, 8.557655e-001
1.047157e+003, 8.560014e-001
1.049086e+003, 8.561402e-001
1.051014e+003, 8.570369e-001
1.052943e+003, 8.580052e-001
1.054871e+003, 8.587328e-001
1.056800e+003, 8.597575e-001
1.058728e+003, 8.607420e-001
1.060657e+003, 8.617090e-001
1.062585e+003, 8.626789e-001
1.064514e+003, 8.633239e-001
1.066442e+003, 8.635965e-001
1.068370e+003, 8.638029e-001
1.070299e+003, 8.642818e-001
1.072227e+003, 8.650550e-001
1.074156e+003, 8.659205e-001
1.076084e+003, 8.669620e-001
1.078013e+003, 8.681172e-001
1.079941e+003, 8.687480e-001
1.081870e+003, 8.686094e-001
1.083798e+003, 8.688020e-001
1.085727e+003, 8.697720e-001
1.087655e+003, 8.697383e-001
1.089584e+003, 8.697429e-001
1.091512e+003, 8.698825e-001
1.093441e+003, 8.701904e-001
1.095369e+003, 8.704331e-001
1.097297e+003, 8.708410e-001
1.099226e+003, 8.713286e-001
1.101154e+003, 8.719856e-001
1.103083e+003, 8.726755e-001
1.105011e+003, 8.733710e-001
1.106940e+003, 8.738314e-001
1.108868e+003, 8.743015e-001
1.110797e+003, 8.743875e-001
1.112725e+003, 8.748881e-001
1.114654e+003, 8.759471e-001
1.116582e+003, 8.770380e-001
1.118511e+003, 8.779733e-001
1.120439e+003, 8.789728e-001
1.122368e+003, 8.796875e-001
1.124296e+003, 8.807777e-001
1.126224e+003, 8.819329e-001
1.128153e+003, 8.828329e-001
1.130081e+003, 8.842308e-001
1.132010e+003, 8.866052e-001
1.133938e+003, 8.887612e-001
1.135867e+003, 8.904414e-001
1.137795e+003, 8.922675e-001
1.139724e+003, 8.945570e-001
1.141652e+003, 8.971351e-001
1.143581e+003, 8.985522e-001
1.145509e+003, 8.996235e-001
1.147438e+003, 9.005111e-001
1.149366e+003, 9.002656e-001
1.151295e+003, 8.995725e-001
1.153223e+003, 8.993223e-001
1.155151e+003, 8.993548e-001
1.157080e+003, 8.995219e-001
1.159008e+003, 9.000667e-001
1.160937e+003, 9.005395e-001
1.162865e+003, 9.005709e-001
1.164794e+003, 9.002593e-001
1.166722e+003, 8.995370e-001
1.168651e+003, 8.991872e-001
1.170579e+003, 8.991624e-001
1.172508e+003, 8.989382e-001
1.174436e+003, 8.984700e-001
1.176365e+003, 8.985420e-001
1.178293e+003, 8.995757e-001
1.180222e+003, 8.996522e-001
1.182150e+003, 8.994596e-001
1.184078e+003, 9.005466e-001
1.186007e+003, 9.022139e-001
1.187935e+003, 9.033499e-001
1.189864e+003, 9.047216e-001
1.191792e+003, 9.053189e-001
1.193721e+003, 9.058850e-001
1.195649e+003, 9.065186e-001
1.197578e+003, 9.070483e-001
1.199506e+003, 9.074166e-001
1.201435e+003, 9.076521e-001
1.203363e+003, 9.081229e-001
1.205292e+003, 9.084049e-001
1.207220e+003, 9.084918e-001
1.209149e+003, 9.081885e-001
1.211077e+003, 9.076546e-001
1.213005e+003, 9.080092e-001
1.214934e+003, 9.085377e-001
1.216862e+003, 9.087465e-001
1.218791e+003, 9.087512e-001
1.220719e+003, 9.094185e-001
1.222648e+003, 9.100100e-001
1.224576e+003, 9.107913e-001
1.226505e+003, 9.112786e-001
1.228433e+003, 9.111977e-001
1.230362e+003, 9.117319e-001
1.232290e+003, 9.128199e-001
1.234219e+003, 9.134332e-001
1.236147e+003, 9.141282e-001
1.238076e+003, 9.150075e-001
1.240004e+003, 9.157152e-001
1.241932e+003, 9.160380e-001
1.243861e+003, 9.166530e-001
1.245789e+003, 9.173549e-001
1.247718e+003, 9.178401e-001
1.249646e+003, 9.180723e-001
1.251575e+003, 9.188707e-001
1.253503e+003, 9.195227e-001
1.255432e+003, 9.194576e-001
1.257360e+003, 9.197782e-001
1.259289e+003, 9.202115e-001
1.261217e+003, 9.204326e-001
1.263146e+003, 9.208991e-001
1.265074e+003, 9.215071e-001
1.267003e+003, 9.224026e-001
1.268931e+003, 9.234543e-001
1.270859e+003, 9.245835e-001
1.272788e+003, 9.258875e-001
1.274716e+003, 9.263579e-001
1.276645e+003, 9.266689e-001
1.278573e+003, 9.275268e-001
1.280502e+003, 9.284207e-001
1.282430e+003, 9.290214e-001
1.284359e+003, 9.295330e-001
1.286287e+003, 9.306201e-001
1.288216e+003, 9.315743e-001
1.290144e+003, 9.325901e-001
1.292073e+003, 9.333637e-001
1.294001e+003, 9.341961e-001
1.295930e+003, 9.352177e-001
1.297858e+003, 9.361407e-001
1.299786e+003, 9.367933e-001
1.301715e+003, 9.372184e-001
1.303643e+003, 9.376881e-001
1.305572e+003, 9.384516e-001
1.307500e+003, 9.392895e-001
1.309429e+003, 9.402722e-001
1.311357e+003, 9.412423e-001
1.313286e+003, 9.417266e-001
1.315214e+003, 9.420187e-001
1.317143e+003, 9.428932e-001
1.319071e+003, 9.442305e-001
1.321000e+003, 9.451122e-001
1.322928e+003, 9.460547e-001
1.324857e+003, 9.472145e-001
1.326785e+003, 9.478003e-001
1.328714e+003, 9.487285e-001
1.330642e+003, 9.498973e-001
1.332570e+003, 9.510241e-001
1.334499e+003, 9.521729e-001
1.336427e+003, 9.532830e-001
1.338356e+003, 9.542379e-001
1.340284e+003, 9.552889e-001
1.342213e+003, 9.560955e-001
1.344141e+003, 9.573560e-001
1.346070e+003, 9.589366e-001
1.347998e+003, 9.607762e-001
1.349927e+003, 9.620756e-001
1.351855e+003, 9.629623e-001
1.353784e+003, 9.640608e-001
1.355712e+003, 9.648396e-001
1.357641e+003, 9.661101e-001
1.359569e+003, 9.677302e-001
1.361497e+003, 9.694026e-001
1.363426e+003, 9.703529e-001
1.365354e+003, 9.710567e-001
1.367283e+003, 9.722592e-001
1.369211e+003, 9.733023e-001
1.371140e+003, 9.746118e-001
1.373068e+003, 9.763978e-001
1.374997e+003, 9.785205e-001
1.376925e+003, 9.799033e-001
1.378854e+003, 9.806077e-001
1.380782e+003, 9.803048e-001
1.382711e+003, 9.797046e-001
1.384639e+003, 9.791257e-001
1.386568e+003, 9.791744e-001
1.388496e+003, 9.798196e-001
1.390424e+003, 9.800949e-001
1.392353e+003, 9.804130e-001
1.394281e+003, 9.817652e-001
1.396210e+003, 9.832146e-001
1.398138e+003, 9.842107e-001
1.400067e+003, 9.848223e-001
1.401995e+003, 9.857307e-001
1.403924e+003, 9.868795e-001
1.405852e+003, 9.880022e-001
1.407781e+003, 9.893153e-001
1.409709e+003, 9.904787e-001
1.411638e+003, 9.915901e-001
1.413566e+003, 9.928498e-001
1.415495e+003, 9.940617e-001
1.417423e+003, 9.950246e-001
1.419351e+003, 9.959645e-001
1.421280e+003, 9.966599e-001
1.423208e+003, 9.979410e-001
1.425137e+003, 9.995558e-001
1.427065e+003, 1.000452e+000
1.428994e+003, 1.001723e+000
1.430922e+003, 1.003070e+000
1.432851e+003, 1.004539e+000
1.434779e+003, 1.006279e+000
1.436708e+003, 1.008057e+000
1.438636e+003, 1.009042e+000
1.440565e+003, 1.010296e+000
1.442493e+003, 1.011784e+000
1.444422e+003, 1.013331e+000
1.446350e+003, 1.014900e+000
1.448278e+003, 1.016517e+000
1.450207e+003, 1.017722e+000
1.452135e+003, 1.018955e+000
1.454064e+003, 1.020614e+000
1.455992e+003, 1.022549e+000
1.457921e+003, 1.023287e+000
1.459849e+003, 1.023325e+000
1.461778e+003, 1.023649e+000
1.463706e+003, 1.023978e+000
1.465635e+003, 1.023830e+000
1.467563e+003, 1.022820e+000
1.469492e+003, 1.021214e+000
1.471420e+003, 1.019819e+000
1.473349e+003, 1.018809e+000
1.475277e+003, 1.018606e+000
1.477205e+003, 1.018366e+000
1.479134e+003, 1.018128e+000
1.481062e+003, 1.018501e+000
1.482991e+003, 1.019346e+000
1.484919e+003, 1.020072e+000
1.486848e+003, 1.020877e+000
1.488776e+003, 1.021733e+000
1.490705e+003, 1.022439e+000
1.492633e+003, 1.023239e+000
1.494562e+003, 1.024213e+000
1.496490e+003, 1.025133e+000
1.498419e+003, 1.025743e+000
1.500347e+003, 1.026492e+000
1.502276e+003, 1.027736e+000
1.504204e+003, 1.029374e+000
1.506132e+003, 1.030456e+000
1.508061e+003, 1.029927e+000
1.509989e+003, 1.029555e+000
1.511918e+003, 1.030297e+000
1.513846e+003, 1.031328e+000
1.515775e+003, 1.032476e+000
1.517703e+003, 1.033469e+000
1.519632e+003, 1.034631e+000
1.521560e+003, 1.035588e+000
1.523489e+003, 1.036022e+000
1.525417e+003, 1.036822e+000
1.527346e+003, 1.037878e+000
1.529274e+003, 1.039216e+000
1.531203e+003, 1.040079e+000
1.533131e+003, 1.040752e+000
1.535059e+003, 1.041607e+000
1.536988e+003, 1.042472e+000
1.538916e+003, 1.043466e+000
1.540845e+003, 1.044420e+000
1.542773e+003, 1.045482e+000
1.544702e+003, 1.046482e+000
1.546630e+003, 1.047057e+000
1.548559e+003, 1.047421e+000
1.550487e+003, 1.048083e+000
1.552416e+003, 1.049295e+000
1.554344e+003, 1.050434e+000
1.556273e+003, 1.051833e+000
1.558201e+003, 1.053373e+000
1.560130e+003, 1.053972e+000
1.562058e+003, 1.054300e+000
1.563986e+003, 1.055324e+000
1.565915e+003, 1.056301e+000
1.567843e+003, 1.057170e+000
1.569772e+003, 1.058061e+000
1.571700e+003, 1.058984e+000
1.573629e+003, 1.060126e+000
1.575557e+003, 1.061401e+000
1.577486e+003, 1.062451e+000
1.579414e+003, 1.063730e+000
1.581343e+003, 1.064574e+000
1.583271e+003, 1.065318e+000
1.585200e+003, 1.066029e+000
1.587128e+003, 1.067083e+000
1.589057e+003, 1.068580e+000
1.590985e+003, 1.069522e+000
1.592913e+003, 1.069826e+000
1.594842e+003, 1.070712e+000
1.596770e+003, 1.072392e+000
1.598699e+003, 1.073818e+000
1.600627e+003, 1.074662e+000
1.602556e+003, 1.075050e+000
1.604484e+003, 1.075508e+000
1.606413e+003, 1.075974e+000
1.608341e+003, 1.076515e+000
1.610270e+003, 1.077621e+000
1.612198e+003, 1.079232e+000
1.614127e+003, 1.080254e+000
1.616055e+003, 1.080963e+000
1.617984e+003, 1.081781e+000
1.619912e+003, 1.082489e+000
1.621840e+003, 1.083627e+000
1.623769e+003, 1.084686e+000
1.625697e+003, 1.085287e+000
1.627626e+003, 1.085967e+000
1.629554e+003, 1.086692e+000
1.631483e+003, 1.087161e+000
1.633411e+003, 1.088458e+000
1.635340e+003, 1.089721e+000
1.637268e+003, 1.090107e+000
1.639197e+003, 1.090225e+000
1.641125e+003, 1.090927e+000
1.643054e+003, 1.092302e+000
1.644982e+003, 1.093540e+000
1.646911e+003, 1.094399e+000
1.648839e+003, 1.095480e+000
1.650767e+003, 1.096859e+000
1.652696e+003, 1.097517e+000
1.654624e+003, 1.097404e+000
1.656553e+003, 1.097792e+000
1.658481e+003, 1.098543e+000
1.660410e+003, 1.099420e+000
1.662338e+003, 1.100400e+000
1.664267e+003, 1.101314e+000
1.666195e+003, 1.102612e+000
1.668124e+003, 1.103923e+000
1.670052e+003, 1.104644e+000
1.671981e+003, 1.105077e+000
1.673909e+003, 1.105814e+000
1.675838e+003, 1.106653e+000
1.677766e+003, 1.107524e+000
1.679694e+003, 1.108704e+000
1.681623e+003, 1.109629e+000
1.683551e+003, 1.110391e+000
1.685480e+003, 1.110723e+000
1.687408e+003, 1.111458e+000
1.689337e+003, 1.112668e+000
1.691265e+003, 1.113925e+000
1.693194e+003, 1.115029e+000
1.695122e+003, 1.116580e+000
1.697051e+003, 1.117532e+000
1.698979e+003, 1.118469e+000
1.700908e+003, 1.119586e+000
1.702836e+003, 1.120386e+000
1.704765e+003, 1.121783e+000
1.706693e+003, 1.122750e+000
1.708621e+003, 1.123893e+000
1.710550e+003, 1.125207e+000
1.712478e+003, 1.126179e+000
1.714407e+003, 1.127055e+000
1.716335e+003, 1.128030e+000
1.718264e+003, 1.129056e+000
1.720192e+003, 1.130064e+000
1.722121e+003, 1.130983e+000
1.724049e+003, 1.132020e+000
1.725978e+003, 1.133093e+000
1.727906e+003, 1.134146e+000
1.729835e+003, 1.135434e+000
1.731763e+003, 1.136189e+000
1.733692e+003, 1.137028e+000
1.735620e+003, 1.137540e+000
1.737548e+003, 1.137559e+000
1.739477e+003, 1.137030e+000
1.741405e+003, 1.136410e+000
1.743334e+003, 1.136061e+000
1.745262e+003, 1.134784e+000
1.747191e+003, 1.133805e+000
1.749119e+003, 1.133127e+000
1.751048e+003, 1.133014e+000
1.752976e+003, 1.132983e+000
1.754905e+003, 1.133238e+000
1.756833e+003, 1.133674e+000
1.758762e+003, 1.133889e+000
1.760690e+003, 1.134264e+000
1.762619e+003, 1.134895e+000
1.764547e+003, 1.135510e+000
1.766475e+003, 1.136444e+000
1.768404e+003, 1.136983e+000
1.770332e+003, 1.136967e+000
1.772261e+003, 1.137498e+000
1.774189e+003, 1.138747e+000
1.776118e+003, 1.139482e+000
1.778046e+003, 1.139342e+000
1.779975e+003, 1.139844e+000
1.781903e+003, 1.140936e+000
1.783832e+003, 1.141755e+000
1.785760e+003, 1.142033e+000
1.787689e+003, 1.142020e+000
1.789617e+003, 1.142143e+000
1.791546e+003, 1.142308e+000
1.793474e+003, 1.142769e+000
1.795402e+003, 1.143034e+000
1.797331e+003, 1.143080e+000
1.799259e+003, 1.143755e+000
1.801188e+003, 1.144740e+000
1.803116e+003, 1.144485e+000
1.805045e+003, 1.144669e+000
1.806973e+003, 1.145323e+000
1.808902e+003, 1.145764e+000
1.810830e+003, 1.146176e+000
1.812759e+003, 1.147006e+000
1.814687e+003, 1.147193e+000
1.816616e+003, 1.147046e+000
1.818544e+003, 1.146843e+000
1.820473e+003, 1.147550e+000
1.822401e+003, 1.147906e+000
1.824329e+003, 1.147749e+000
1.826258e+003, 1.148291e+000
1.828186e+003, 1.149211e+000
1.830115e+003, 1.150114e+000
1.832043e+003, 1.150926e+000
1.833972e+003, 1.151482e+000
1.835900e+003, 1.151885e+000
1.837829e+003, 1.152495e+000
1.839757e+003, 1.153843e+000
1.841686e+003, 1.154619e+000
1.843614e+003, 1.154612e+000
1.845543e+003, 1.154325e+000
1.847471e+003, 1.154584e+000
1.849400e+003, 1.154743e+000
1.851328e+003, 1.154928e+000
1.853256e+003, 1.155769e+000
1.855185e+003, 1.156390e+000
1.857113e+003, 1.157117e+000
1.859042e+003, 1.158065e+000
1.860970e+003, 1.158367e+000
1.862899e+003, 1.159139e+000
1.864827e+003, 1.159052e+000
1.866756e+003, 1.159993e+000
1.868684e+003, 1.160311e+000
1.870613e+003, 1.160102e+000
1.872541e+003, 1.160698e+000
1.874470e+003, 1.161558e+000
1.876398e+003, 1.162395e+000
1.878327e+003, 1.161599e+000
1.880255e+003, 1.161937e+000
1.882183e+003, 1.162100e+000
1.884112e+003, 1.161303e+000
1.886040e+003, 1.163488e+000
1.887969e+003, 1.166201e+000
1.889897e+003, 1.167490e+000
1.891826e+003, 1.168550e+000
1.893754e+003, 1.168897e+000
1.895683e+003, 1.168165e+000
1.897611e+003, 1.169514e+000
1.899540e+003, 1.171672e+000
1.901468e+003, 1.170370e+000
1.903397e+003, 1.169738e+000
1.905325e+003, 1.173359e+000
1.907254e+003, 1.174798e+000
1.909182e+003, 1.172508e+000
1.911110e+003, 1.172533e+000
1.913039e+003, 1.175370e+000
1.914967e+003, 1.177677e+000
1.916896e+003, 1.179066e+000
1.918824e+003, 1.177721e+000
1.920753e+003, 1.176997e+000
1.922681e+003, 1.178016e+000
1.924610e+003, 1.175680e+000
1.926538e+003, 1.175583e+000
1.928467e+003, 1.179321e+000
1.930395e+003, 1.181402e+000
1.932324e+003, 1.182215e+000
1.934252e+003, 1.181700e+000
1.936181e+003, 1.179547e+000
1.938109e+003, 1.178413e+000
1.940037e+003, 1.179736e+000
1.941966e+003, 1.179845e+000
1.943894e+003, 1.180066e+000
1.945823e+003, 1.181870e+000
1.947751e+003, 1.185246e+000
1.949680e+003, 1.186398e+000
1.951608e+003, 1.184079e+000
1.953537e+003, 1.183954e+000
1.955465e+003, 1.183344e+000
1.957394e+003, 1.189880e+000
1.959322e+003, 1.195845e+000
1.961251e+003, 1.196428e+000
1.963179e+003, 1.191851e+000
1.965108e+003, 1.192526e+000
1.967036e+003, 1.188336e+000
1.968964e+003, 1.185322e+000
1.970893e+003, 1.191842e+000
1.972821e+003, 1.192958e+000
1.974750e+003, 1.191813e+000
1.976678e+003, 1.191735e+000
1.978607e+003, 1.192354e+000
1.980535e+003, 1.195688e+000
1.982464e+003, 1.199179e+000
1.984392e+003, 1.200676e+000
1.986321e+003, 1.198675e+000
1.988249e+003, 1.195728e+000
1.990178e+003, 1.198923e+000
1.992106e+003, 1.207452e+000
1.994035e+003, 1.208095e+000
1.995963e+003, 1.208234e+000
1.997891e+003, 1.212373e+000
1.999820e+003, 1.214521e+000
2.001748e+003, 1.209176e+000
2.003677e+003, 1.203069e+000
2.005605e+003, 1.206808e+000
2.007534e+003, 1.214520e+000
2.009462e+003, 1.215947e+000
2.011391e+003, 1.214787e+000
2.013319e+003, 1.214877e+000
2.015248e+003, 1.214264e+000
2.017176e+003, 1.215630e+000
2.019105e+003, 1.215842e+000
2.021033e+003, 1.214512e+000
2.022962e+003, 1.212523e+000
2.024890e+003, 1.216019e+000
2.026818e+003, 1.216520e+000
2.028747e+003, 1.224083e+000
2.030675e+003, 1.228177e+000
2.032604e+003, 1.224825e+000
2.034532e+003, 1.219274e+000
2.036461e+003, 1.212343e+000
2.038389e+003, 1.214436e+000
2.040318e+003, 1.223263e+000
2.042246e+003, 1.227770e+000
2.044175e+003, 1.224486e+000
2.046103e+003, 1.219680e+000
2.048031e+003, 1.220243e+000
2.049960e+003, 1.224665e+000
2.051888e+003, 1.232191e+000
2.053817e+003, 1.234255e+000
2.055745e+003, 1.231292e+000
2.057674e+003, 1.234686e+000
2.059602e+003, 1.234352e+000
2.061531e+003, 1.230516e+000
2.063459e+003, 1.227388e+000
2.065388e+003, 1.228602e+000
2.067316e+003, 1.231554e+000
2.069245e+003, 1.234999e+000
2.071173e+003, 1.238891e+000
2.073102e+003, 1.239281e+000
2.075030e+003, 1.243177e+000
2.076958e+003, 1.242826e+000
2.078887e+003, 1.241137e+000
2.080815e+003, 1.244396e+000
2.082744e+003, 1.244920e+000
2.084672e+003, 1.245646e+000
2.086601e+003, 1.246530e+000
2.088529e+003, 1.248523e+000
2.090458e+003, 1.249530e+000
2.092386e+003, 1.251224e+000
2.094315e+003, 1.251991e+000
2.096243e+003, 1.254572e+000
2.098172e+003, 1.256452e+000
2.100100e+003, 1.255732e+000
2.102029e+003, 1.254763e+000
2.103957e+003, 1.256192e+000
2.105885e+003, 1.258693e+000
2.107814e+003, 1.257006e+000
2.109742e+003, 1.254544e+000
2.111671e+003, 1.256711e+000
2.113599e+003, 1.259566e+000
2.115528e+003, 1.262048e+000
2.117456e+003, 1.261173e+000
2.119385e+003, 1.259521e+000
2.121313e+003, 1.259610e+000
2.123242e+003, 1.265166e+000
2.125170e+003, 1.270547e+000
2.127099e+003, 1.268783e+000
2.129027e+003, 1.267969e+000
2.130956e+003, 1.271079e+000
2.132884e+003, 1.270395e+000
2.134813e+003, 1.268348e+000
2.136741e+003, 1.269843e+000
2.138669e+003, 1.270688e+000
2.140598e+003, 1.271744e+000
2.142526e+003, 1.272663e+000
2.144455e+003, 1.272310e+000
2.146383e+003, 1.272592e+000
2.148312e+003, 1.276916e+000
2.150240e+003, 1.275980e+000
2.152169e+003, 1.274929e+000
2.154097e+003, 1.283716e+000
2.156026e+003, 1.287942e+000
2.157954e+003, 1.284272e+000
2.159883e+003, 1.275254e+000
2.161811e+003, 1.267639e+000
2.163740e+003, 1.269042e+000
2.165668e+003, 1.278821e+000
2.167596e+003, 1.282094e+000
2.169525e+003, 1.281661e+000
2.171453e+003, 1.277750e+000
2.173382e+003, 1.279601e+000
2.175310e+003, 1.278208e+000
2.177239e+003, 1.280406e+000
2.179167e+003, 1.286577e+000
2.181096e+003, 1.288276e+000
2.183024e+003, 1.287873e+000
2.184953e+003, 1.288557e+000
2.186881e+003, 1.284846e+000
2.188810e+003, 1.284751e+000
2.190738e+003, 1.280219e+000
2.192667e+003, 1.275371e+000
2.194595e+003, 1.281673e+000
2.196523e+003, 1.290694e+000
2.198452e+003, 1.290856e+000
2.200380e+003, 1.292853e+000
2.202309e+003, 1.296152e+000
2.204237e+003, 1.295371e+000
2.206166e+003, 1.291087e+000
2.208094e+003, 1.288962e+000
2.210023e+003, 1.293351e+000
2.211951e+003, 1.296146e+000
2.213880e+003, 1.295756e+000
2.215808e+003, 1.296850e+000
2.217737e+003, 1.300740e+000
2.219665e+003, 1.302105e+000
2.221594e+003, 1.299314e+000
2.223522e+003, 1.298677e+000
2.225450e+003, 1.300341e+000
2.227379e+003, 1.301972e+000
2.229307e+003, 1.304800e+000
2.231236e+003, 1.305647e+000
2.233164e+003, 1.306616e+000
2.235093e+003, 1.311172e+000
2.237021e+003, 1.311285e+000
2.238950e+003, 1.310252e+000
2.240878e+003, 1.310813e+000
2.242807e+003, 1.309725e+000
2.244735e+003, 1.311642e+000
2.246664e+003, 1.313528e+000
2.248592e+003, 1.317187e+000
2.250521e+003, 1.319942e+000
2.252449e+003, 1.316801e+000
2.254377e+003, 1.314146e+000
2.256306e+003, 1.313387e+000
2.258234e+003, 1.313142e+000
2.260163e+003, 1.315112e+000
2.262091e+003, 1.316772e+000
2.264020e+003, 1.317680e+000
2.265948e+003, 1.318216e+000
2.267877e+003, 1.317632e+000
2.269805e+003, 1.321413e+000
2.271734e+003, 1.326064e+000
2.273662e+003, 1.328562e+000
2.275591e+003, 1.329247e+000
2.277519e+003, 1.328489e+000
2.279448e+003, 1.328329e+000
2.281376e+003, 1.328835e+000
2.283304e+003, 1.327194e+000
2.285233e+003, 1.326784e+000
2.287161e+003, 1.327651e+000
2.289090e+003, 1.328609e+000
2.291018e+003, 1.330065e+000
2.292947e+003, 1.330557e+000
2.294875e+003, 1.331385e+000
2.296804e+003, 1.332090e+000
2.298732e+003, 1.332346e+000
2.300661e+003, 1.335889e+000
2.302589e+003, 1.338471e+000
2.304518e+003, 1.338689e+000
2.306446e+003, 1.337758e+000
2.308375e+003, 1.336833e+000
2.310303e+003, 1.337282e+000
2.312231e+003, 1.339301e+000
2.314160e+003, 1.340743e+000
2.316088e+003, 1.340735e+000
2.318017e+003, 1.340591e+000
2.319945e+003, 1.342170e+000
2.321874e+003, 1.343539e+000
2.323802e+003, 1.343338e+000
2.325731e+003, 1.343784e+000
2.327659e+003, 1.346112e+000
2.329588e+003, 1.347683e+000
2.331516e+003, 1.347480e+000
2.333445e+003, 1.348060e+000
2.335373e+003, 1.349725e+000
2.337302e+003, 1.350544e+000
2.339230e+003, 1.350444e+000
2.341158e+003, 1.350897e+000
2.343087e+003, 1.353493e+000
2.345015e+003, 1.354297e+000
2.346944e+003, 1.356386e+000
2.348872e+003, 1.356383e+000
2.350801e+003, 1.355377e+000
2.352729e+003, 1.354402e+000
2.354658e+003, 1.354578e+000
2.356586e+003, 1.355153e+000
2.358515e+003, 1.355288e+000
2.360443e+003, 1.356428e+000
2.362372e+003, 1.358292e+000
2.364300e+003, 1.360401e+000
2.366229e+003, 1.361409e+000
2.368157e+003, 1.362226e+000
2.370085e+003, 1.363293e+000
2.372014e+003, 1.364613e+000
2.373942e+003, 1.365746e+000
2.375871e+003, 1.366477e+000
2.377799e+003, 1.365780e+000
2.379728e+003, 1.366840e+000
2.381656e+003, 1.368046e+000
2.383585e+003, 1.368140e+000
2.385513e+003, 1.370224e+000
2.387442e+003, 1.371206e+000
2.389370e+003, 1.371641e+000
2.391299e+003, 1.371705e+000
2.393227e+003, 1.372314e+000
2.395156e+003, 1.372726e+000
2.397084e+003, 1.370647e+000
2.399012e+003, 1.371639e+000
2.400941e+003, 1.373627e+000
2.402869e+003, 1.371808e+000
2.404798e+003, 1.371219e+000
2.406726e+003, 1.374146e+000
2.408655e+003, 1.376697e+000
2.410583e+003, 1.378942e+000
2.412512e+003, 1.379756e+000
2.414440e+003, 1.379899e+000
2.416369e+003, 1.380241e+000
2.418297e+003, 1.379274e+000
2.420226e+003, 1.377106e+000
2.422154e+003, 1.377132e+000
2.424083e+003, 1.380083e+000
2.426011e+003, 1.381704e+000
2.427939e+003, 1.382023e+000
2.429868e+003, 1.382599e+000
2.431796e+003, 1.383339e+000
2.433725e+003, 1.381390e+000
2.435653e+003, 1.381941e+000
2.437582e+003, 1.382448e+000
2.439510e+003, 1.383086e+000
2.441439e+003, 1.383857e+000
2.443367e+003, 1.383489e+000
2.445296e+003, 1.384234e+000
2.447224e+003, 1.385826e+000
2.449153e+003, 1.387039e+000
2.451081e+003, 1.387729e+000
2.453010e+003, 1.388252e+000
2.454938e+003, 1.388948e+000
2.456866e+003, 1.390259e+000
2.458795e+003, 1.391100e+000
2.460723e+003, 1.392406e+000
2.462652e+003, 1.393031e+000
2.464580e+003, 1.393192e+000
2.466509e+003, 1.394421e+000
2.468437e+003, 1.395606e+000
2.470366e+003, 1.395603e+000
2.472294e+003, 1.396131e+000
2.474223e+003, 1.396609e+000
2.476151e+003, 1.397118e+000
2.478080e+003, 1.398539e+000
2.480008e+003, 1.399699e+000
2.481937e+003, 1.400728e+000
2.483865e+003, 1.401909e+000
2.485793e+003, 1.402152e+000
2.487722e+003, 1.402525e+000
2.489650e+003, 1.402987e+000
2.491579e+003, 1.403339e+000
2.493507e+003, 1.403339e+000
2.495436e+003, 1.404022e+000
2.497364e+003, 1.405239e+000
2.499293e+003, 1.406367e+000
2.501221e+003, 1.407537e+000
2.503150e+003, 1.408500e+000
2.505078e+003, 1.408742e+000
2.507007e+003, 1.409366e+000
2.508935e+003, 1.410510e+000
2.510864e+003, 1.411744e+000
2.512792e+003, 1.411755e+000
2.514720e+003, 1.412080e+000
2.516649e+003, 1.412936e+000
2.518577e+003, 1.414043e+000
2.520506e+003, 1.414144e+000
2.522434e+003, 1.413554e+000
2.524363e+003, 1.414532e+000
2.526291e+003, 1.415687e+000
2.528220e+003, 1.416170e+000
2.530148e+003, 1.416252e+000
2.532077e+003, 1.417409e+000
2.534005e+003, 1.418142e+000
2.535934e+003, 1.419057e+000
2.537862e+003, 1.420632e+000
2.539791e+003, 1.421042e+000
2.541719e+003, 1.421764e+000
2.543647e+003, 1.422943e+000
2.545576e+003, 1.423835e+000
2.547504e+003, 1.424996e+000
2.549433e+003, 1.426061e+000
2.551361e+003, 1.426646e+000
2.553290e+003, 1.427711e+000
2.555218e+003, 1.428169e+000
2.557147e+003, 1.428901e+000
2.559075e+003, 1.430583e+000
2.561004e+003, 1.430944e+000
2.562932e+003, 1.430933e+000
2.564861e+003, 1.431664e+000
2.566789e+003, 1.432089e+000
2.568718e+003, 1.433471e+000
2.570646e+003, 1.435337e+000
2.572574e+003, 1.436538e+000
2.574503e+003, 1.437333e+000
2.576431e+003, 1.437503e+000
2.578360e+003, 1.438350e+000
2.580288e+003, 1.440670e+000
2.582217e+003, 1.442305e+000
2.584145e+003, 1.442333e+000
2.586074e+003, 1.441472e+000
2.588002e+003, 1.441713e+000
2.589931e+003, 1.442936e+000
2.591859e+003, 1.445306e+000
2.593788e+003, 1.447137e+000
2.595716e+003, 1.446890e+000
2.597645e+003, 1.446490e+000
2.599573e+003, 1.447503e+000
2.601501e+003, 1.449664e+000
2.603430e+003, 1.451531e+000
2.605358e+003, 1.452647e+000
2.607287e+003, 1.453061e+000
2.609215e+003, 1.453735e+000
2.611144e+003, 1.454527e+000
2.613072e+003, 1.456085e+000
2.615001e+003, 1.457694e+000
2.616929e+003, 1.459170e+000
2.618858e+003, 1.460253e+000
2.620786e+003, 1.460230e+000
2.622715e+003, 1.460857e+000
2.624643e+003, 1.461704e+000
2.626572e+003, 1.462685e+000
2.628500e+003, 1.464167e+000
2.630428e+003, 1.465129e+000
2.632357e+003, 1.466283e+000
2.634285e+003, 1.467283e+000
2.636214e+003, 1.468469e+000
2.638142e+003, 1.469709e+000
2.640071e+003, 1.470225e+000
2.641999e+003, 1.471552e+000
2.643928e+003, 1.472173e+000
2.645856e+003, 1.472858e+000
2.647785e+003, 1.474569e+000
2.649713e+003, 1.476124e+000
2.651642e+003, 1.476860e+000
2.653570e+003, 1.477367e+000
2.655499e+003, 1.478021e+000
2.657427e+003, 1.479413e+000
2.659355e+003, 1.480749e+000
2.661284e+003, 1.481716e+000
2.663212e+003, 1.482282e+000
2.665141e+003, 1.482720e+000
2.667069e+003, 1.483158e+000
2.668998e+003, 1.484102e+000
2.670926e+003, 1.484615e+000
2.672855e+003, 1.485513e+000
2.674783e+003, 1.486223e+000
2.676712e+003, 1.487236e+000
2.678640e+003, 1.488241e+000
2.680569e+003, 1.487961e+000
2.682497e+003, 1.488732e+000
2.684426e+003, 1.490302e+000
2.686354e+003, 1.491089e+000
2.688282e+003, 1.491441e+000
2.690211e+003, 1.492117e+000
2.692139e+003, 1.493361e+000
2.694068e+003, 1.493562e+000
2.695996e+003, 1.494150e+000
2.697925e+003, 1.495392e+000
2.699853e+003, 1.496443e+000
2.701782e+003, 1.496777e+000
2.703710e+003, 1.497621e+000
2.705639e+003, 1.498163e+000
2.707567e+003, 1.498312e+000
2.709496e+003, 1.499169e+000
2.711424e+003, 1.500816e+000
2.713353e+003, 1.501523e+000
2.715281e+003, 1.501636e+000
2.717209e+003, 1.501986e+000
2.719138e+003, 1.503288e+000
2.721066e+003, 1.504771e+000
2.722995e+003, 1.505884e+000
2.724923e+003, 1.505811e+000
2.726852e+003, 1.505610e+000
2.728780e+003, 1.506055e+000
2.730709e+003, 1.507093e+000
2.732637e+003, 1.507852e+000
2.734566e+003, 1.508571e+000
2.736494e+003, 1.508992e+000
2.738423e+003, 1.510172e+000
2.740351e+003, 1.511055e+000
2.742280e+003, 1.511547e+000
2.744208e+003, 1.512454e+000
2.746136e+003, 1.513283e+000
2.748065e+003, 1.513432e+000
2.749993e+003, 1.514167e+000
2.751922e+003, 1.514408e+000
2.753850e+003, 1.515005e+000
2.755779e+003, 1.516083e+000
2.757707e+003, 1.517576e+000
2.759636e+003, 1.518141e+000
2.761564e+003, 1.517912e+000
2.763493e+003, 1.519247e+000
2.765421e+003, 1.520084e+000
2.767350e+003, 1.520552e+000
2.769278e+003, 1.520620e+000
2.771207e+003, 1.520769e+000
2.773135e+003, 1.521942e+000
2.775063e+003, 1.522825e+000
2.776992e+003, 1.523517e+000
2.778920e+003, 1.524681e+000
2.780849e+003, 1.525672e+000
2.782777e+003, 1.526216e+000
2.784706e+003, 1.527328e+000
2.786634e+003, 1.528308e+000
2.788563e+003, 1.529624e+000
2.790491e+003, 1.530529e+000
2.792420e+003, 1.530871e+000
2.794348e+003, 1.531472e+000
2.796277e+003, 1.532419e+000
2.798205e+003, 1.533762e+000
2.800134e+003, 1.535454e+000
2.802062e+003, 1.536249e+000
2.803990e+003, 1.536681e+000
2.805919e+003, 1.537601e+000
2.807847e+003, 1.538473e+000
2.809776e+003, 1.538963e+000
2.811704e+003, 1.539941e+000
2.813633e+003, 1.541286e+000
2.815561e+003, 1.542600e+000
2.817490e+003, 1.544030e+000
2.819418e+003, 1.545642e+000
2.821347e+003, 1.546838e+000
2.823275e+003, 1.548297e+000
2.825204e+003, 1.550766e+000
2.827132e+003, 1.551797e+000
2.829061e+003, 1.553218e+000
2.830989e+003, 1.555478e+000
2.832917e+003, 1.557736e+000
2.834846e+003, 1.560519e+000
2.836774e+003, 1.563162e+000
2.838703e+003, 1.565764e+000
2.840631e+003, 1.568510e+000
2.842560e+003, 1.571222e+000
2.844488e+003, 1.574008e+000
2.846417e+003, 1.577539e+000
2.848345e+003, 1.579966e+000
2.850274e+003, 1.582366e+000
2.852202e+003, 1.583887e+000
2.854131e+003, 1.584636e+000
2.856059e+003, 1.584439e+000
2.857988e+003, 1.582619e+000
2.859916e+003, 1.580052e+000
2.861844e+003, 1.579806e+000
2.863773e+003, 1.580694e+000
2.865701e+003, 1.581308e+000
2.867630e+003, 1.582169e+000
2.869558e+003, 1.582141e+000
2.871487e+003, 1.582208e+000
2.873415e+003, 1.583159e+000
2.875344e+003, 1.583243e+000
2.877272e+003, 1.582920e+000
2.879201e+003, 1.582592e+000
2.881129e+003, 1.583430e+000
2.883058e+003, 1.586019e+000
2.884986e+003, 1.588021e+000
2.886915e+003, 1.588928e+000
2.888843e+003, 1.591375e+000
2.890771e+003, 1.594052e+000
2.892700e+003, 1.594433e+000
2.894628e+003, 1.596058e+000
2.896557e+003, 1.598377e+000
2.898485e+003, 1.600606e+000
2.900414e+003, 1.602968e+000
2.902342e+003, 1.604749e+000
2.904271e+003, 1.606989e+000
2.906199e+003, 1.608771e+000
2.908128e+003, 1.610263e+000
2.910056e+003, 1.612220e+000
2.911985e+003, 1.615017e+000
2.913913e+003, 1.617385e+000
2.915842e+003, 1.617928e+000
2.917770e+003, 1.619250e+000
2.919698e+003, 1.621164e+000
2.921627e+003, 1.621526e+000
2.923555e+003, 1.622018e+000
2.925484e+003, 1.621372e+000
2.927412e+003, 1.619706e+000
2.929341e+003, 1.618726e+000
2.931269e+003, 1.616961e+000
2.933198e+003, 1.613953e+000
2.935126e+003, 1.611584e+000
2.937055e+003, 1.610601e+000
2.938983e+003, 1.608956e+000
2.940912e+003, 1.607018e+000
2.942840e+003, 1.607056e+000
2.944769e+003, 1.608284e+000
2.946697e+003, 1.609305e+000
2.948625e+003, 1.611155e+000
2.950554e+003, 1.612024e+000
2.952482e+003, 1.611936e+000
2.954411e+003, 1.613050e+000
2.956339e+003, 1.613549e+000
2.958268e+003, 1.612973e+000
2.960196e+003, 1.611749e+000
2.962125e+003, 1.609703e+000
2.964053e+003, 1.608400e+000
2.965982e+003, 1.606751e+000
2.967910e+003, 1.603858e+000
2.969839e+003, 1.600730e+000
2.971767e+003, 1.598941e+000
2.973696e+003, 1.599043e+000
2.975624e+003, 1.598036e+000
2.977552e+003, 1.596707e+000
2.979481e+003, 1.595966e+000
2.981409e+003, 1.595009e+000
2.983338e+003, 1.594238e+000
2.985266e+003, 1.594974e+000
2.987195e+003, 1.595731e+000
2.989123e+003, 1.595168e+000
2.991052e+003, 1.595214e+000
2.992980e+003, 1.595935e+000
2.994909e+003, 1.596255e+000
2.996837e+003, 1.596541e+000
2.998766e+003, 1.597701e+000
3.000694e+003, 1.598623e+000
3.002623e+003, 1.599212e+000
3.004551e+003, 1.599219e+000
3.006479e+003, 1.599846e+000
3.008408e+003, 1.601297e+000
3.010336e+003, 1.601739e+000
3.012265e+003, 1.601481e+000
3.014193e+003, 1.601876e+000
3.016122e+003, 1.602287e+000
3.018050e+003, 1.603066e+000
3.019979e+003, 1.605044e+000
3.021907e+003, 1.605995e+000
3.023836e+003, 1.605842e+000
3.025764e+003, 1.606390e+000
3.027693e+003, 1.607935e+000
3.029621e+003, 1.609533e+000
3.031550e+003, 1.610350e+000
3.033478e+003, 1.610489e+000
3.035406e+003, 1.610575e+000
3.037335e+003, 1.610921e+000
3.039263e+003, 1.611941e+000
3.041192e+003, 1.612864e+000
3.043120e+003, 1.613879e+000
3.045049e+003, 1.613633e+000
3.046977e+003, 1.613788e+000
3.048906e+003, 1.615294e+000
3.050834e+003, 1.616099e+000
3.052763e+003, 1.616790e+000
3.054691e+003, 1.618003e+000
3.056620e+003, 1.618589e+000
3.058548e+003, 1.619907e+000
3.060477e+003, 1.620831e+000
3.062405e+003, 1.620518e+000
3.064333e+003, 1.621707e+000
3.066262e+003, 1.622869e+000
3.068190e+003, 1.622735e+000
3.070119e+003, 1.623676e+000
3.072047e+003, 1.623921e+000
3.073976e+003, 1.624491e+000
3.075904e+003, 1.625045e+000
3.077833e+003, 1.625023e+000
3.079761e+003, 1.625687e+000
3.081690e+003, 1.626957e+000
3.083618e+003, 1.628536e+000
3.085547e+003, 1.629109e+000
3.087475e+003, 1.629064e+000
3.089404e+003, 1.629920e+000
3.091332e+003, 1.629932e+000
3.093260e+003, 1.630432e+000
3.095189e+003, 1.631790e+000
3.097117e+003, 1.633532e+000
3.099046e+003, 1.634219e+000
3.100974e+003, 1.634299e+000
3.102903e+003, 1.634583e+000
3.104831e+003, 1.635782e+000
3.106760e+003, 1.637687e+000
3.108688e+003, 1.639007e+000
3.110617e+003, 1.639111e+000
3.112545e+003, 1.638657e+000
3.114474e+003, 1.638402e+000
3.116402e+003, 1.640130e+000
3.118331e+003, 1.640890e+000
3.120259e+003, 1.640715e+000
3.122188e+003, 1.640785e+000
3.124116e+003, 1.641679e+000
3.126044e+003, 1.643246e+000
3.127973e+003, 1.643940e+000
3.129901e+003, 1.644592e+000
3.131830e+003, 1.644850e+000
3.133758e+003, 1.644455e+000
3.135687e+003, 1.645976e+000
3.137615e+003, 1.649012e+000
3.139544e+003, 1.649927e+000
3.141472e+003, 1.649675e+000
3.143401e+003, 1.650237e+000
3.145329e+003, 1.650694e+000
3.147258e+003, 1.651891e+000
3.149186e+003, 1.653530e+000
3.151115e+003, 1.654219e+000
3.153043e+003, 1.654480e+000
3.154971e+003, 1.654652e+000
3.156900e+003, 1.655787e+000
3.158828e+003, 1.656594e+000
3.160757e+003, 1.657442e+000
3.162685e+003, 1.658560e+000
3.164614e+003, 1.658723e+000
3.166542e+003, 1.659649e+000
3.168471e+003, 1.660113e+000
3.170399e+003, 1.660375e+000
3.172328e+003, 1.659957e+000
3.174256e+003, 1.660654e+000
3.176185e+003, 1.662007e+000
3.178113e+003, 1.662081e+000
3.180042e+003, 1.662894e+000
3.181970e+003, 1.663712e+000
3.183898e+003, 1.664675e+000
3.185827e+003, 1.665875e+000
3.187755e+003, 1.666684e+000
3.189684e+003, 1.668099e+000
3.191612e+003, 1.668660e+000
3.193541e+003, 1.669183e+000
3.195469e+003, 1.669352e+000
3.197398e+003, 1.669244e+000
3.199326e+003, 1.670866e+000
3.201255e+003, 1.672192e+000
3.203183e+003, 1.671913e+000
3.205112e+003, 1.672467e+000
3.207040e+003, 1.673335e+000
3.208969e+003, 1.673943e+000
3.210897e+003, 1.673947e+000
3.212825e+003, 1.674592e+000
3.214754e+003, 1.677196e+000
3.216682e+003, 1.678388e+000
3.218611e+003, 1.678694e+000
3.220539e+003, 1.680523e+000
3.222468e+003, 1.680256e+000
3.224396e+003, 1.679313e+000
3.226325e+003, 1.679260e+000
3.228253e+003, 1.680829e+000
3.230182e+003, 1.682232e+000
3.232110e+003, 1.682821e+000
3.234039e+003, 1.684072e+000
3.235967e+003, 1.685571e+000
3.237896e+003, 1.685974e+000
3.239824e+003, 1.685968e+000
3.241752e+003, 1.686373e+000
3.243681e+003, 1.687079e+000
3.245609e+003, 1.688190e+000
3.247538e+003, 1.689587e+000
3.249466e+003, 1.690480e+000
3.251395e+003, 1.690711e+000
3.253323e+003, 1.690953e+000
3.255252e+003, 1.691895e+000
3.257180e+003, 1.691991e+000
3.259109e+003, 1.691495e+000
3.261037e+003, 1.692878e+000
3.262966e+003, 1.694896e+000
3.264894e+003, 1.695884e+000
3.266823e+003, 1.696417e+000
3.268751e+003, 1.695670e+000
3.270679e+003, 1.696495e+000
3.272608e+003, 1.698915e+000
3.274536e+003, 1.698984e+000
3.276465e+003, 1.698606e+000
3.278393e+003, 1.699606e+000
3.280322e+003, 1.701021e+000
3.282250e+003, 1.703112e+000
3.284179e+003, 1.703613e+000
3.286107e+003, 1.703632e+000
3.288036e+003, 1.704003e+000
3.289964e+003, 1.704022e+000
3.291893e+003, 1.705044e+000
3.293821e+003, 1.706335e+000
3.295750e+003, 1.707522e+000
3.297678e+003, 1.707621e+000
3.299606e+003, 1.708192e+000
3.301535e+003, 1.709272e+000
3.303463e+003, 1.709550e+000
3.305392e+003, 1.710051e+000
3.307320e+003, 1.712036e+000
3.309249e+003, 1.714707e+000
3.311177e+003, 1.714095e+000
3.313106e+003, 1.714485e+000
3.315034e+003, 1.714015e+000
3.316963e+003, 1.713319e+000
3.318891e+003, 1.713931e+000
3.320820e+003, 1.715603e+000
3.322748e+003, 1.717542e+000
3.324677e+003, 1.718035e+000
3.326605e+003, 1.717674e+000
3.328533e+003, 1.717817e+000
3.330462e+003, 1.719085e+000
3.332390e+003, 1.720213e+000
3.334319e+003, 1.719791e+000
3.336247e+003, 1.719247e+000
3.338176e+003, 1.721265e+000
3.340104e+003, 1.723279e+000
3.342033e+003, 1.723589e+000
3.343961e+003, 1.724078e+000
3.345890e+003, 1.724767e+000
3.347818e+003, 1.724381e+000
3.349747e+003, 1.723612e+000
3.351675e+003, 1.724392e+000
3.353604e+003, 1.725568e+000
3.355532e+003, 1.726914e+000
3.357460e+003, 1.728305e+000
3.359389e+003, 1.729575e+000
3.361317e+003, 1.729503e+000
3.363246e+003, 1.728927e+000
3.365174e+003, 1.728206e+000
3.367103e+003, 1.728690e+000
3.369031e+003, 1.729979e+000
3.370960e+003, 1.731848e+000
3.372888e+003, 1.732493e+000
3.374817e+003, 1.733236e+000
3.376745e+003, 1.733906e+000
3.378674e+003, 1.735876e+000
3.380602e+003, 1.734952e+000
3.382531e+003, 1.734447e+000
3.384459e+003, 1.735727e+000
3.386387e+003, 1.736709e+000
3.388316e+003, 1.737231e+000
3.390244e+003, 1.738012e+000
3.392173e+003, 1.738120e+000
3.394101e+003, 1.738990e+000
3.396030e+003, 1.741852e+000
3.397958e+003, 1.743482e+000
3.399887e+003, 1.742484e+000
3.401815e+003, 1.740070e+000
3.403744e+003, 1.740456e+000
3.405672e+003, 1.742399e+000
3.407601e+003, 1.742982e+000
3.409529e+003, 1.743802e+000
3.411458e+003, 1.744165e+000
3.413386e+003, 1.744126e+000
3.415314e+003, 1.745398e+000
3.417243e+003, 1.746379e+000
3.419171e+003, 1.746305e+000
3.421100e+003, 1.747386e+000
3.423028e+003, 1.747677e+000
3.424957e+003, 1.746850e+000
3.426885e+003, 1.747416e+000
3.428814e+003, 1.749027e+000
3.430742e+003, 1.750564e+000
3.432671e+003, 1.751294e+000
3.434599e+003, 1.752471e+000
3.436528e+003, 1.752422e+000
3.438456e+003, 1.751980e+000
3.440385e+003, 1.752037e+000
3.442313e+003, 1.752080e+000
3.444241e+003, 1.752421e+000
3.446170e+003, 1.753073e+000
3.448098e+003, 1.754021e+000
3.450027e+003, 1.755163e+000
3.451955e+003, 1.757159e+000
3.453884e+003, 1.758878e+000
3.455812e+003, 1.758255e+000
3.457741e+003, 1.757982e+000
3.459669e+003, 1.759470e+000
3.461598e+003, 1.759768e+000
3.463526e+003, 1.760234e+000
3.465455e+003, 1.760944e+000
3.467383e+003, 1.760061e+000
3.469312e+003, 1.760050e+000
3.471240e+003, 1.761140e+000
3.473168e+003, 1.761730e+000
3.475097e+003, 1.763931e+000
3.477025e+003, 1.764809e+000
3.478954e+003, 1.763418e+000
3.480882e+003, 1.762739e+000
3.482811e+003, 1.763729e+000
3.484739e+003, 1.766220e+000
3.486668e+003, 1.767298e+000
3.488596e+003, 1.769602e+000
3.490525e+003, 1.770183e+000
3.492453e+003, 1.768528e+000
3.494382e+003, 1.768192e+000
3.496310e+003, 1.768955e+000
3.498239e+003, 1.770039e+000
3.500167e+003, 1.771189e+000
3.502095e+003, 1.772050e+000
3.504024e+003, 1.770690e+000
3.505952e+003, 1.770656e+000
3.507881e+003, 1.771505e+000
3.509809e+003, 1.772470e+000
3.511738e+003, 1.773014e+000
3.513666e+003, 1.774786e+000
3.515595e+003, 1.775009e+000
3.517523e+003, 1.776476e+000
3.519452e+003, 1.777497e+000
3.521380e+003, 1.776469e+000
3.523309e+003, 1.775829e+000
3.525237e+003, 1.776361e+000
3.527166e+003, 1.777175e+000
3.529094e+003, 1.777566e+000
3.531022e+003, 1.777711e+000
3.532951e+003, 1.779488e+000
3.534879e+003, 1.780489e+000
3.536808e+003, 1.782696e+000
3.538736e+003, 1.783824e+000
3.540665e+003, 1.782619e+000
3.542593e+003, 1.782901e+000
3.544522e+003, 1.782991e+000
3.546450e+003, 1.782911e+000
3.548379e+003, 1.783908e+000
3.550307e+003, 1.785835e+000
3.552236e+003, 1.788131e+000
3.554164e+003, 1.786411e+000
3.556093e+003, 1.785601e+000
3.558021e+003, 1.787063e+000
3.559949e+003, 1.788126e+000
3.561878e+003, 1.787754e+000
3.563806e+003, 1.788793e+000
3.565735e+003, 1.789462e+000
3.567663e+003, 1.789201e+000
3.569592e+003, 1.788920e+000
3.571520e+003, 1.789983e+000
3.573449e+003, 1.790711e+000
3.575377e+003, 1.791346e+000
3.577306e+003, 1.791644e+000
3.579234e+003, 1.792985e+000
3.581163e+003, 1.794163e+000
3.583091e+003, 1.793398e+000
3.585020e+003, 1.793263e+000
3.586948e+003, 1.793275e+000
3.588876e+003, 1.795542e+000
3.590805e+003, 1.796401e+000
3.592733e+003, 1.797342e+000
3.594662e+003, 1.798712e+000
3.596590e+003, 1.798600e+000
3.598519e+003, 1.798961e+000
3.600447e+003, 1.800360e+000
3.602376e+003, 1.800843e+000
3.604304e+003, 1.799921e+000
3.606233e+003, 1.800193e+000
3.608161e+003, 1.802750e+000
3.610090e+003, 1.803356e+000
3.612018e+003, 1.801090e+000
3.613947e+003, 1.801345e+000
3.615875e+003, 1.804308e+000
3.617803e+003, 1.806037e+000
3.619732e+003, 1.807574e+000
3.621660e+003, 1.807048e+000
3.623589e+003, 1.805466e+000
3.625517e+003, 1.805009e+000
3.627446e+003, 1.806959e+000
3.629374e+003, 1.808970e+000
3.631303e+003, 1.809917e+000
3.633231e+003, 1.810213e+000
3.635160e+003, 1.812105e+000
3.637088e+003, 1.812785e+000
3.639017e+003, 1.811764e+000
3.640945e+003, 1.812492e+000
3.642874e+003, 1.814714e+000
3.644802e+003, 1.816252e+000
3.646730e+003, 1.815477e+000
3.648659e+003, 1.816193e+000
3.650587e+003, 1.816627e+000
3.652516e+003, 1.815323e+000
3.654444e+003, 1.815416e+000
3.656373e+003, 1.816499e+000
3.658301e+003, 1.818468e+000
3.660230e+003, 1.818313e+000
3.662158e+003, 1.816948e+000
3.664087e+003, 1.818079e+000
3.666015e+003, 1.818150e+000
3.667944e+003, 1.819985e+000
3.669872e+003, 1.822998e+000
3.671801e+003, 1.822836e+000
3.673729e+003, 1.824512e+000
3.675657e+003, 1.824010e+000
3.677586e+003, 1.820619e+000
3.679514e+003, 1.821000e+000
3.681443e+003, 1.823566e+000
3.683371e+003, 1.823480e+000
3.685300e+003, 1.823886e+000
3.687228e+003, 1.823873e+000
3.689157e+003, 1.823772e+000
3.691085e+003, 1.825899e+000
3.693014e+003, 1.826782e+000
3.694942e+003, 1.826941e+000
3.696871e+003, 1.827303e+000
3.698799e+003, 1.828993e+000
3.700728e+003, 1.830732e+000
3.702656e+003, 1.830342e+000
3.704584e+003, 1.830649e+000
3.706513e+003, 1.831506e+000
3.708441e+003, 1.830927e+000
3.710370e+003, 1.831364e+000
3.712298e+003, 1.832546e+000
3.714227e+003, 1.834581e+000
3.716155e+003, 1.835573e+000
3.718084e+003, 1.835303e+000
3.720012e+003, 1.836027e+000
3.721941e+003, 1.837448e+000
3.723869e+003, 1.838538e+000
3.725798e+003, 1.839710e+000
3.727726e+003, 1.841956e+000
3.729655e+003, 1.843443e+000
3.731583e+003, 1.843686e+000
3.733511e+003, 1.844564e+000
3.735440e+003, 1.846567e+000
3.737368e+003, 1.847081e+000
3.739297e+003, 1.845875e+000
3.741225e+003, 1.845993e+000
3.743154e+003, 1.846704e+000
3.745082e+003, 1.845932e+000
3.747011e+003, 1.846765e+000
3.748939e+003, 1.848360e+000
3.750868e+003, 1.848423e+000
3.752796e+003, 1.848882e+000
3.754725e+003, 1.847385e+000
3.756653e+003, 1.846842e+000
3.758582e+003, 1.847713e+000
3.760510e+003, 1.849303e+000
3.762438e+003, 1.850333e+000
3.764367e+003, 1.851012e+000
3.766295e+003, 1.851098e+000
3.768224e+003, 1.851424e+000
3.770152e+003, 1.852451e+000
3.772081e+003, 1.854204e+000
3.774009e+003, 1.854637e+000
3.775938e+003, 1.853705e+000
3.777866e+003, 1.854019e+000
3.779795e+003, 1.854130e+000
3.781723e+003, 1.853857e+000
3.783652e+003, 1.855324e+000
3.785580e+003, 1.857412e+000
3.787509e+003, 1.858924e+000
3.789437e+003, 1.859102e+000
3.791365e+003, 1.859852e+000
3.793294e+003, 1.860739e+000
3.795222e+003, 1.861339e+000
3.797151e+003, 1.862173e+000
3.799079e+003, 1.864565e+000
3.801008e+003, 1.866451e+000
3.802936e+003, 1.864974e+000
3.804865e+003, 1.864546e+000
3.806793e+003, 1.866889e+000
3.808722e+003, 1.866201e+000
3.810650e+003, 1.866422e+000
3.812579e+003, 1.867330e+000
3.814507e+003, 1.867151e+000
3.816436e+003, 1.867843e+000
3.818364e+003, 1.869127e+000
3.820292e+003, 1.870097e+000
3.822221e+003, 1.868828e+000
3.824149e+003, 1.868798e+000
3.826078e+003, 1.870270e+000
3.828006e+003, 1.871398e+000
3.829935e+003, 1.872239e+000
3.831863e+003, 1.872890e+000
3.833792e+003, 1.872989e+000
3.835720e+003, 1.874083e+000
3.837649e+003, 1.873704e+000
3.839577e+003, 1.873833e+000
3.841506e+003, 1.873923e+000
3.843434e+003, 1.873538e+000
3.845363e+003, 1.875529e+000
3.847291e+003, 1.878370e+000
3.849219e+003, 1.881272e+000
3.851148e+003, 1.883202e+000
3.853076e+003, 1.883627e+000
3.855005e+003, 1.882576e+000
3.856933e+003, 1.881827e+000
3.858862e+003, 1.880746e+000
3.860790e+003, 1.881263e+000
3.862719e+003, 1.883309e+000
3.864647e+003, 1.884264e+000
3.866576e+003, 1.883831e+000
3.868504e+003, 1.886194e+000
3.870433e+003, 1.887415e+000
3.872361e+003, 1.886087e+000
3.874290e+003, 1.885515e+000
3.876218e+003, 1.885910e+000
3.878146e+003, 1.886366e+000
3.880075e+003, 1.886869e+000
3.882003e+003, 1.888181e+000
3.883932e+003, 1.889858e+000
3.885860e+003, 1.890472e+000
3.887789e+003, 1.891501e+000
3.889717e+003, 1.893430e+000
3.891646e+003, 1.893399e+000
3.893574e+003, 1.891775e+000
3.895503e+003, 1.891720e+000
3.897431e+003, 1.893433e+000
3.899360e+003, 1.894712e+000
3.901288e+003, 1.896627e+000
3.903217e+003, 1.898301e+000
3.905145e+003, 1.897345e+000
3.907073e+003, 1.896933e+000
3.909002e+003, 1.897346e+000
3.910930e+003, 1.898657e+000
3.912859e+003, 1.899812e+000
3.914787e+003, 1.901218e+000
3.916716e+003, 1.901738e+000
3.918644e+003, 1.902146e+000
3.920573e+003, 1.902706e+000
3.922501e+003, 1.903430e+000
3.924430e+003, 1.903195e+000
3.926358e+003, 1.902850e+000
3.928287e+003, 1.903914e+000
3.930215e+003, 1.905400e+000
3.932144e+003, 1.906690e+000
3.934072e+003, 1.907073e+000
3.936000e+003, 1.907197e+000
3.937929e+003, 1.907418e+000
3.939857e+003, 1.907032e+000
3.941786e+003, 1.908787e+000
3.943714e+003, 1.910282e+000
3.945643e+003, 1.909423e+000
3.947571e+003, 1.909141e+000
3.949500e+003, 1.911244e+000
3.951428e+003, 1.911293e+000
3.953357e+003, 1.909938e+000
3.955285e+003, 1.910560e+000
3.957214e+003, 1.912666e+000
3.959142e+003, 1.912753e+000
3.961071e+003, 1.912247e+000
3.962999e+003, 1.915166e+000
3.964927e+003, 1.914176e+000
3.966856e+003, 1.912631e+000
3.968784e+003, 1.914321e+000
3.970713e+003, 1.915697e+000
3.972641e+003, 1.916832e+000
3.974570e+003, 1.918232e+000
3.976498e+003, 1.918287e+000
3.978427e+003, 1.917184e+000
3.980355e+003, 1.918810e+000
3.982284e+003, 1.919772e+000
3.984212e+003, 1.919749e+000
3.986141e+003, 1.919962e+000
3.988069e+003, 1.921655e+000
3.989998e+003, 1.924790e+000
3.991926e+003, 1.925731e+000
3.993854e+003, 1.924791e+000
3.995783e+003, 1.924225e+000
3.997711e+003, 1.923990e+000
3.999640e+003, 1.925039e+000
##END=



