##NAMES=Ludwigite
##RRUFFID=R060010
##IDEAL CHEMISTRY=Mg_2_Fe^3+^O_2_(BO_3_)
##LOCALITY=Victoria Quarry, Riverside, California, USA
##OWNER=RRUFF
##SOURCE=University of Arizona Mineral Museum
##DESCRIPTION=Black elongated prismatic crystals, associated with pale yellow clinohumite on white calcite matrix
##STATUS=The identification of this mineral has been confirmed by X-ray diffraction and chemical analysis
##URL=rruff.info/R060010
##MEASURED CHEMISTRY=(Mg_1.68_Fe^2+^_0.32_)_Σ=2_(Fe^3+^_0.74_Al_0.23_Cr_0.03_)_Σ=1_O_5_ ; B not measured but estimated by difference and charge balance
3.991926e+002, 3.432197e-001
4.011211e+002, 3.376487e-001
4.030496e+002, 3.349924e-001
4.049780e+002, 3.278598e-001
4.069065e+002, 3.221168e-001
4.088350e+002, 3.133653e-001
4.107634e+002, 3.091334e-001
4.126919e+002, 3.088886e-001
4.146204e+002, 3.019512e-001
4.165488e+002, 2.932586e-001
4.184773e+002, 2.914480e-001
4.204058e+002, 2.930183e-001
4.223342e+002, 2.928791e-001
4.242627e+002, 2.901541e-001
4.261912e+002, 2.895014e-001
4.281196e+002, 2.897440e-001
4.300481e+002, 2.915367e-001
4.319766e+002, 2.921785e-001
4.339050e+002, 2.933594e-001
4.358335e+002, 2.907585e-001
4.377620e+002, 2.879807e-001
4.396904e+002, 2.878937e-001
4.416189e+002, 2.871138e-001
4.435474e+002, 2.867654e-001
4.454758e+002, 2.861601e-001
4.474043e+002, 2.824179e-001
4.493328e+002, 2.808810e-001
4.512612e+002, 2.820032e-001
4.531897e+002, 2.815319e-001
4.551182e+002, 2.789356e-001
4.570466e+002, 2.776662e-001
4.589751e+002, 2.763470e-001
4.609036e+002, 2.758613e-001
4.628320e+002, 2.754179e-001
4.647605e+002, 2.736567e-001
4.666890e+002, 2.716133e-001
4.686174e+002, 2.694154e-001
4.705459e+002, 2.667612e-001
4.724744e+002, 2.656148e-001
4.744028e+002, 2.649547e-001
4.763313e+002, 2.636056e-001
4.782598e+002, 2.620741e-001
4.801882e+002, 2.598237e-001
4.821167e+002, 2.574876e-001
4.840452e+002, 2.564585e-001
4.859736e+002, 2.555072e-001
4.879021e+002, 2.533213e-001
4.898306e+002, 2.514352e-001
4.917590e+002, 2.497382e-001
4.936875e+002, 2.473533e-001
4.956160e+002, 2.448603e-001
4.975444e+002, 2.430734e-001
4.994729e+002, 2.414917e-001
5.014014e+002, 2.395606e-001
5.033298e+002, 2.372209e-001
5.052583e+002, 2.352642e-001
5.071868e+002, 2.334468e-001
5.091152e+002, 2.312549e-001
5.110437e+002, 2.286403e-001
5.129722e+002, 2.261235e-001
5.149006e+002, 2.234503e-001
5.168291e+002, 2.206869e-001
5.187576e+002, 2.182798e-001
5.206860e+002, 2.157831e-001
5.226145e+002, 2.133305e-001
5.245430e+002, 2.112776e-001
5.264714e+002, 2.092371e-001
5.283999e+002, 2.066608e-001
5.303284e+002, 2.043082e-001
5.322568e+002, 2.025877e-001
5.341853e+002, 2.012611e-001
5.361138e+002, 2.002999e-001
5.380422e+002, 1.995959e-001
5.399707e+002, 1.999757e-001
5.418992e+002, 2.002505e-001
5.438276e+002, 1.992879e-001
5.457561e+002, 1.983505e-001
5.476846e+002, 1.979226e-001
5.496130e+002, 1.972716e-001
5.515415e+002, 1.961733e-001
5.534700e+002, 1.942243e-001
5.553984e+002, 1.916489e-001
5.573269e+002, 1.885896e-001
5.592554e+002, 1.854984e-001
5.611838e+002, 1.827131e-001
5.631123e+002, 1.798141e-001
5.650408e+002, 1.762834e-001
5.669692e+002, 1.726161e-001
5.688977e+002, 1.695774e-001
5.708262e+002, 1.664888e-001
5.727546e+002, 1.632115e-001
5.746831e+002, 1.603783e-001
5.766116e+002, 1.574803e-001
5.785400e+002, 1.548767e-001
5.804685e+002, 1.524816e-001
5.823970e+002, 1.500137e-001
5.843254e+002, 1.475309e-001
5.862539e+002, 1.456046e-001
5.881824e+002, 1.441370e-001
5.901108e+002, 1.424585e-001
5.920393e+002, 1.410256e-001
5.939678e+002, 1.394315e-001
5.958962e+002, 1.381330e-001
5.978247e+002, 1.372281e-001
5.997532e+002, 1.361864e-001
6.016816e+002, 1.351896e-001
6.036101e+002, 1.342922e-001
6.055386e+002, 1.334643e-001
6.074670e+002, 1.329207e-001
6.093955e+002, 1.325366e-001
6.113240e+002, 1.323986e-001
6.132524e+002, 1.325089e-001
6.151809e+002, 1.323976e-001
6.171094e+002, 1.323912e-001
6.190378e+002, 1.320983e-001
6.209663e+002, 1.316498e-001
6.228948e+002, 1.311523e-001
6.248232e+002, 1.298685e-001
6.267517e+002, 1.278856e-001
6.286802e+002, 1.256111e-001
6.306086e+002, 1.231459e-001
6.325371e+002, 1.204897e-001
6.344656e+002, 1.179077e-001
6.363940e+002, 1.154361e-001
6.383225e+002, 1.129508e-001
6.402510e+002, 1.108260e-001
6.421794e+002, 1.091819e-001
6.441079e+002, 1.077133e-001
6.460364e+002, 1.066378e-001
6.479648e+002, 1.059502e-001
6.498933e+002, 1.052586e-001
6.518218e+002, 1.046134e-001
6.537502e+002, 1.040920e-001
6.556787e+002, 1.033116e-001
6.576072e+002, 1.023213e-001
6.595356e+002, 1.016220e-001
6.614641e+002, 1.012841e-001
6.633926e+002, 1.012203e-001
6.653210e+002, 1.014293e-001
6.672495e+002, 1.020454e-001
6.691780e+002, 1.030991e-001
6.711064e+002, 1.048244e-001
6.730349e+002, 1.066887e-001
6.749634e+002, 1.085620e-001
6.768918e+002, 1.107072e-001
6.788203e+002, 1.128481e-001
6.807488e+002, 1.148471e-001
6.826772e+002, 1.175296e-001
6.846057e+002, 1.212134e-001
6.865342e+002, 1.262560e-001
6.884626e+002, 1.331452e-001
6.903911e+002, 1.420308e-001
6.923196e+002, 1.530290e-001
6.942480e+002, 1.657165e-001
6.961765e+002, 1.791345e-001
6.981050e+002, 1.912232e-001
7.000334e+002, 2.004591e-001
7.019619e+002, 2.067218e-001
7.038904e+002, 2.104584e-001
7.058188e+002, 2.118548e-001
7.077473e+002, 2.109673e-001
7.096758e+002, 2.081749e-001
7.116042e+002, 2.040381e-001
7.135327e+002, 1.989966e-001
7.154612e+002, 1.927662e-001
7.173896e+002, 1.859879e-001
7.193181e+002, 1.789345e-001
7.212466e+002, 1.715323e-001
7.231750e+002, 1.641209e-001
7.251035e+002, 1.567511e-001
7.270320e+002, 1.499002e-001
7.289604e+002, 1.433775e-001
7.308889e+002, 1.367208e-001
7.328174e+002, 1.300516e-001
7.347458e+002, 1.234459e-001
7.366743e+002, 1.170791e-001
7.386028e+002, 1.108614e-001
7.405313e+002, 1.047798e-001
7.424597e+002, 9.870838e-002
7.443882e+002, 9.276867e-002
7.463167e+002, 8.698370e-002
7.482451e+002, 8.148947e-002
7.501736e+002, 7.615892e-002
7.521021e+002, 7.103304e-002
7.540305e+002, 6.631330e-002
7.559590e+002, 6.185343e-002
7.578875e+002, 5.753440e-002
7.598159e+002, 5.378848e-002
7.617444e+002, 5.044227e-002
7.636729e+002, 4.723838e-002
7.656013e+002, 4.437575e-002
7.675298e+002, 4.191931e-002
7.694583e+002, 3.945347e-002
7.713867e+002, 3.717202e-002
7.733152e+002, 3.503741e-002
7.752437e+002, 3.322792e-002
7.771721e+002, 3.184285e-002
7.791006e+002, 3.067607e-002
7.810291e+002, 2.952560e-002
7.829575e+002, 2.827143e-002
7.848860e+002, 2.709396e-002
7.868145e+002, 2.610544e-002
7.887429e+002, 2.505821e-002
7.906714e+002, 2.477462e-002
7.925999e+002, 2.551479e-002
7.945283e+002, 2.663426e-002
7.964568e+002, 2.744956e-002
7.983853e+002, 2.806535e-002
8.003137e+002, 2.792197e-002
8.022422e+002, 2.684442e-002
8.041707e+002, 2.515503e-002
8.060991e+002, 2.342581e-002
8.080276e+002, 2.221605e-002
8.099561e+002, 2.167573e-002
8.118845e+002, 2.122435e-002
8.138130e+002, 2.086310e-002
8.157415e+002, 2.076822e-002
8.176699e+002, 2.103709e-002
8.195984e+002, 2.141135e-002
8.215269e+002, 2.168011e-002
8.234553e+002, 2.196969e-002
8.253838e+002, 2.227260e-002
8.273123e+002, 2.240700e-002
8.292407e+002, 2.275301e-002
8.311692e+002, 2.327207e-002
8.330977e+002, 2.368855e-002
8.350261e+002, 2.387744e-002
8.369546e+002, 2.413251e-002
8.388831e+002, 2.442607e-002
8.408115e+002, 2.480179e-002
8.427400e+002, 2.495741e-002
8.446685e+002, 2.498891e-002
8.465969e+002, 2.496673e-002
8.485254e+002, 2.504167e-002
8.504539e+002, 2.516676e-002
8.523823e+002, 2.525572e-002
8.543108e+002, 2.526626e-002
8.562393e+002, 2.527597e-002
8.581677e+002, 2.546334e-002
8.600962e+002, 2.572060e-002
8.620247e+002, 2.570522e-002
8.639531e+002, 2.579373e-002
8.658816e+002, 2.593097e-002
8.678101e+002, 2.616944e-002
8.697385e+002, 2.668161e-002
8.716670e+002, 2.757632e-002
8.735955e+002, 2.854321e-002
8.755239e+002, 2.945964e-002
8.774524e+002, 3.033939e-002
8.793809e+002, 3.097107e-002
8.813093e+002, 3.109309e-002
8.832378e+002, 3.085633e-002
8.851663e+002, 3.008275e-002
8.870947e+002, 2.873369e-002
8.890232e+002, 2.746319e-002
8.909517e+002, 2.679086e-002
8.928801e+002, 2.645576e-002
8.948086e+002, 2.646830e-002
8.967371e+002, 2.691527e-002
8.986655e+002, 2.729643e-002
9.005940e+002, 2.746657e-002
9.025225e+002, 2.774365e-002
9.044509e+002, 2.810581e-002
9.063794e+002, 2.855645e-002
9.083079e+002, 2.912358e-002
9.102363e+002, 2.978541e-002
9.121648e+002, 3.056058e-002
9.140933e+002, 3.154376e-002
9.160217e+002, 3.263811e-002
9.179502e+002, 3.359479e-002
9.198787e+002, 3.449265e-002
9.218071e+002, 3.543563e-002
9.237356e+002, 3.617087e-002
9.256641e+002, 3.682034e-002
9.275925e+002, 3.740051e-002
9.295210e+002, 3.795224e-002
9.314495e+002, 3.845997e-002
9.333779e+002, 3.896989e-002
9.353064e+002, 3.966545e-002
9.372349e+002, 4.044087e-002
9.391633e+002, 4.124235e-002
9.410918e+002, 4.203926e-002
9.430203e+002, 4.261722e-002
9.449487e+002, 4.332895e-002
9.468772e+002, 4.427237e-002
9.488057e+002, 4.536829e-002
9.507341e+002, 4.657198e-002
9.526626e+002, 4.772667e-002
9.545911e+002, 4.849407e-002
9.565195e+002, 4.892198e-002
9.584480e+002, 4.903644e-002
9.603765e+002, 4.907632e-002
9.623049e+002, 4.902446e-002
9.642334e+002, 4.882561e-002
9.661619e+002, 4.869944e-002
9.680903e+002, 4.867111e-002
9.700188e+002, 4.888869e-002
9.719473e+002, 4.947905e-002
9.738757e+002, 5.033006e-002
9.758042e+002, 5.148061e-002
9.777327e+002, 5.274213e-002
9.796611e+002, 5.397256e-002
9.815896e+002, 5.484653e-002
9.835181e+002, 5.529837e-002
9.854465e+002, 5.559277e-002
9.873750e+002, 5.595526e-002
9.893035e+002, 5.653806e-002
9.912319e+002, 5.743928e-002
9.931604e+002, 5.848011e-002
9.950889e+002, 5.965511e-002
9.970173e+002, 6.085704e-002
9.989458e+002, 6.218331e-002
1.000874e+003, 6.347591e-002
1.002803e+003, 6.492273e-002
1.004731e+003, 6.641211e-002
1.006660e+003, 6.778916e-002
1.008588e+003, 6.913968e-002
1.010517e+003, 7.045984e-002
1.012445e+003, 7.156111e-002
1.014374e+003, 7.242332e-002
1.016302e+003, 7.314811e-002
1.018230e+003, 7.359663e-002
1.020159e+003, 7.391178e-002
1.022087e+003, 7.438654e-002
1.024016e+003, 7.491875e-002
1.025944e+003, 7.570058e-002
1.027873e+003, 7.676239e-002
1.029801e+003, 7.801238e-002
1.031730e+003, 7.911283e-002
1.033658e+003, 8.016171e-002
1.035587e+003, 8.139713e-002
1.037515e+003, 8.260469e-002
1.039444e+003, 8.360290e-002
1.041372e+003, 8.440923e-002
1.043301e+003, 8.518247e-002
1.045229e+003, 8.601108e-002
1.047157e+003, 8.687699e-002
1.049086e+003, 8.778330e-002
1.051014e+003, 8.870388e-002
1.052943e+003, 8.965451e-002
1.054871e+003, 9.068852e-002
1.056800e+003, 9.171543e-002
1.058728e+003, 9.265538e-002
1.060657e+003, 9.350439e-002
1.062585e+003, 9.423917e-002
1.064514e+003, 9.504010e-002
1.066442e+003, 9.599367e-002
1.068371e+003, 9.688736e-002
1.070299e+003, 9.775716e-002
1.072228e+003, 9.874449e-002
1.074156e+003, 9.980853e-002
1.076084e+003, 1.010049e-001
1.078013e+003, 1.022199e-001
1.079941e+003, 1.034492e-001
1.081870e+003, 1.047132e-001
1.083798e+003, 1.060459e-001
1.085727e+003, 1.071569e-001
1.087655e+003, 1.081920e-001
1.089584e+003, 1.093384e-001
1.091512e+003, 1.102517e-001
1.093441e+003, 1.109150e-001
1.095369e+003, 1.116581e-001
1.097298e+003, 1.125012e-001
1.099226e+003, 1.132491e-001
1.101155e+003, 1.140238e-001
1.103083e+003, 1.149351e-001
1.105011e+003, 1.161665e-001
1.106940e+003, 1.174412e-001
1.108868e+003, 1.187742e-001
1.110797e+003, 1.202119e-001
1.112725e+003, 1.216599e-001
1.114654e+003, 1.231213e-001
1.116582e+003, 1.247314e-001
1.118511e+003, 1.265609e-001
1.120439e+003, 1.283827e-001
1.122368e+003, 1.302007e-001
1.124296e+003, 1.321744e-001
1.126225e+003, 1.343635e-001
1.128153e+003, 1.369289e-001
1.130082e+003, 1.398023e-001
1.132010e+003, 1.426885e-001
1.133938e+003, 1.458527e-001
1.135867e+003, 1.494882e-001
1.137795e+003, 1.532782e-001
1.139724e+003, 1.575745e-001
1.141652e+003, 1.631235e-001
1.143581e+003, 1.691431e-001
1.145509e+003, 1.753444e-001
1.147438e+003, 1.816777e-001
1.149366e+003, 1.876317e-001
1.151295e+003, 1.935109e-001
1.153223e+003, 1.996758e-001
1.155152e+003, 2.062914e-001
1.157080e+003, 2.131161e-001
1.159009e+003, 2.202419e-001
1.160937e+003, 2.279141e-001
1.162865e+003, 2.359867e-001
1.164794e+003, 2.443319e-001
1.166722e+003, 2.531682e-001
1.168651e+003, 2.623327e-001
1.170579e+003, 2.716668e-001
1.172508e+003, 2.810049e-001
1.174436e+003, 2.903528e-001
1.176365e+003, 2.994388e-001
1.178293e+003, 3.083167e-001
1.180222e+003, 3.169612e-001
1.182150e+003, 3.251133e-001
1.184079e+003, 3.328324e-001
1.186007e+003, 3.403035e-001
1.187936e+003, 3.475427e-001
1.189864e+003, 3.545329e-001
1.191792e+003, 3.613716e-001
1.193721e+003, 3.682460e-001
1.195649e+003, 3.753090e-001
1.197578e+003, 3.825155e-001
1.199506e+003, 3.899269e-001
1.201435e+003, 3.973502e-001
1.203363e+003, 4.043061e-001
1.205292e+003, 4.109298e-001
1.207220e+003, 4.173759e-001
1.209149e+003, 4.235095e-001
1.211077e+003, 4.290541e-001
1.213006e+003, 4.342947e-001
1.214934e+003, 4.392883e-001
1.216863e+003, 4.438214e-001
1.218791e+003, 4.477774e-001
1.220719e+003, 4.512965e-001
1.222648e+003, 4.540486e-001
1.224576e+003, 4.562832e-001
1.226505e+003, 4.577878e-001
1.228433e+003, 4.588086e-001
1.230362e+003, 4.592867e-001
1.232290e+003, 4.589366e-001
1.234219e+003, 4.581547e-001
1.236147e+003, 4.570838e-001
1.238076e+003, 4.556457e-001
1.240004e+003, 4.539140e-001
1.241933e+003, 4.518461e-001
1.243861e+003, 4.496213e-001
1.245790e+003, 4.471295e-001
1.247718e+003, 4.441630e-001
1.249646e+003, 4.407924e-001
1.251575e+003, 4.370665e-001
1.253503e+003, 4.332025e-001
1.255432e+003, 4.290731e-001
1.257360e+003, 4.244323e-001
1.259289e+003, 4.194973e-001
1.261217e+003, 4.142988e-001
1.263146e+003, 4.085619e-001
1.265074e+003, 4.021857e-001
1.267003e+003, 3.955368e-001
1.268931e+003, 3.883165e-001
1.270860e+003, 3.804854e-001
1.272788e+003, 3.720913e-001
1.274717e+003, 3.632909e-001
1.276645e+003, 3.541827e-001
1.278573e+003, 3.448791e-001
1.280502e+003, 3.355997e-001
1.282430e+003, 3.264071e-001
1.284359e+003, 3.174817e-001
1.286287e+003, 3.090677e-001
1.288216e+003, 3.011001e-001
1.290144e+003, 2.936316e-001
1.292073e+003, 2.866173e-001
1.294001e+003, 2.803231e-001
1.295930e+003, 2.748633e-001
1.297858e+003, 2.702412e-001
1.299787e+003, 2.658772e-001
1.301715e+003, 2.618354e-001
1.303644e+003, 2.577502e-001
1.305572e+003, 2.536325e-001
1.307500e+003, 2.491165e-001
1.309429e+003, 2.440889e-001
1.311357e+003, 2.384592e-001
1.313286e+003, 2.323042e-001
1.315214e+003, 2.257848e-001
1.317143e+003, 2.186503e-001
1.319071e+003, 2.110373e-001
1.321000e+003, 2.034718e-001
1.322928e+003, 1.957886e-001
1.324857e+003, 1.882741e-001
1.326785e+003, 1.808996e-001
1.328714e+003, 1.736793e-001
1.330642e+003, 1.665686e-001
1.332571e+003, 1.597418e-001
1.334499e+003, 1.531997e-001
1.336427e+003, 1.467047e-001
1.338356e+003, 1.400603e-001
1.340284e+003, 1.336430e-001
1.342213e+003, 1.276692e-001
1.344141e+003, 1.216639e-001
1.346070e+003, 1.155424e-001
1.347998e+003, 1.093366e-001
1.349927e+003, 1.034055e-001
1.351855e+003, 9.748954e-002
1.353784e+003, 9.151188e-002
1.355712e+003, 8.570807e-002
1.357641e+003, 8.008693e-002
1.359569e+003, 7.452906e-002
1.361498e+003, 6.897917e-002
1.363426e+003, 6.350343e-002
1.365354e+003, 5.816134e-002
1.367283e+003, 5.304905e-002
1.369211e+003, 4.824157e-002
1.371140e+003, 4.378135e-002
1.373068e+003, 3.981590e-002
1.374997e+003, 3.613948e-002
1.376925e+003, 3.302216e-002
1.378854e+003, 3.038356e-002
1.380782e+003, 2.810527e-002
1.382711e+003, 2.608907e-002
1.384639e+003, 2.440219e-002
1.386568e+003, 2.293678e-002
1.388496e+003, 2.183762e-002
1.390425e+003, 2.097023e-002
1.392353e+003, 2.019217e-002
1.394281e+003, 1.948413e-002
1.396210e+003, 1.881130e-002
1.398138e+003, 1.827500e-002
1.400067e+003, 1.791718e-002
1.401995e+003, 1.780911e-002
1.403924e+003, 1.784558e-002
1.405852e+003, 1.792622e-002
1.407781e+003, 1.799476e-002
1.409709e+003, 1.794972e-002
1.411638e+003, 1.778383e-002
1.413566e+003, 1.800722e-002
1.415495e+003, 1.837053e-002
1.417423e+003, 1.830758e-002
1.419352e+003, 1.828301e-002
1.421280e+003, 1.857241e-002
1.423208e+003, 1.893920e-002
1.425137e+003, 1.907557e-002
1.427065e+003, 1.943067e-002
1.428994e+003, 1.990363e-002
1.430922e+003, 2.060948e-002
1.432851e+003, 2.140654e-002
1.434779e+003, 2.204468e-002
1.436708e+003, 2.258321e-002
1.438636e+003, 2.328783e-002
1.440565e+003, 2.384526e-002
1.442493e+003, 2.432490e-002
1.444422e+003, 2.482919e-002
1.446350e+003, 2.527945e-002
1.448279e+003, 2.573462e-002
1.450207e+003, 2.634352e-002
1.452135e+003, 2.682177e-002
1.454064e+003, 2.704861e-002
1.455992e+003, 2.693610e-002
1.457921e+003, 2.681574e-002
1.459849e+003, 2.696283e-002
1.461778e+003, 2.697657e-002
1.463706e+003, 2.647812e-002
1.465635e+003, 2.586687e-002
1.467563e+003, 2.531925e-002
1.469492e+003, 2.459536e-002
1.471420e+003, 2.363010e-002
1.473349e+003, 2.265510e-002
1.475277e+003, 2.184794e-002
1.477206e+003, 2.097049e-002
1.479134e+003, 2.012418e-002
1.481063e+003, 1.929812e-002
1.482991e+003, 1.841588e-002
1.484919e+003, 1.744740e-002
1.486848e+003, 1.665631e-002
1.488776e+003, 1.584957e-002
1.490705e+003, 1.492763e-002
1.492633e+003, 1.413079e-002
1.494562e+003, 1.331571e-002
1.496490e+003, 1.245432e-002
1.498419e+003, 1.172618e-002
1.500347e+003, 1.109724e-002
1.502276e+003, 1.046188e-002
1.504204e+003, 9.788729e-003
1.506133e+003, 9.112397e-003
1.508061e+003, 8.640766e-003
1.509990e+003, 8.082217e-003
1.511918e+003, 7.451004e-003
1.513846e+003, 6.976889e-003
1.515775e+003, 6.561107e-003
1.517703e+003, 6.025915e-003
1.519632e+003, 5.527360e-003
1.521560e+003, 5.169455e-003
1.523489e+003, 4.889564e-003
1.525417e+003, 4.567499e-003
1.527346e+003, 4.280069e-003
1.529274e+003, 4.100079e-003
1.531203e+003, 4.027576e-003
1.533131e+003, 3.854571e-003
1.535060e+003, 3.673002e-003
1.536988e+003, 3.444140e-003
1.538917e+003, 3.111399e-003
1.540845e+003, 3.086277e-003
1.542773e+003, 3.159414e-003
1.544702e+003, 3.046625e-003
1.546630e+003, 3.110638e-003
1.548559e+003, 3.177356e-003
1.550487e+003, 3.186000e-003
1.552416e+003, 3.211427e-003
1.554344e+003, 3.085856e-003
1.556273e+003, 2.939126e-003
1.558201e+003, 2.893810e-003
1.560130e+003, 3.068352e-003
1.562058e+003, 3.209259e-003
1.563987e+003, 3.226393e-003
1.565915e+003, 3.288421e-003
1.567844e+003, 3.329181e-003
1.569772e+003, 3.318547e-003
1.571700e+003, 3.339332e-003
1.573629e+003, 3.270781e-003
1.575557e+003, 3.090951e-003
1.577486e+003, 3.285555e-003
1.579414e+003, 3.533999e-003
1.581343e+003, 3.665262e-003
1.583271e+003, 3.732654e-003
1.585200e+003, 3.696215e-003
1.587128e+003, 3.676487e-003
1.589057e+003, 3.769643e-003
1.590985e+003, 3.925109e-003
1.592914e+003, 4.123393e-003
1.594842e+003, 4.085378e-003
1.596771e+003, 3.896503e-003
1.598699e+003, 4.032247e-003
1.600627e+003, 4.113605e-003
1.602556e+003, 4.067592e-003
1.604484e+003, 4.009826e-003
1.606413e+003, 4.050790e-003
1.608341e+003, 4.119650e-003
1.610270e+003, 4.083494e-003
1.612198e+003, 4.159164e-003
1.614127e+003, 4.113642e-003
1.616055e+003, 3.914222e-003
1.617984e+003, 4.059972e-003
1.619912e+003, 4.373270e-003
1.621841e+003, 4.472923e-003
1.623769e+003, 4.338166e-003
1.625698e+003, 4.200753e-003
1.627626e+003, 4.231794e-003
1.629554e+003, 4.268001e-003
1.631483e+003, 4.395181e-003
1.633411e+003, 4.387594e-003
1.635340e+003, 4.150235e-003
1.637268e+003, 4.174861e-003
1.639197e+003, 4.217282e-003
1.641125e+003, 4.163919e-003
1.643054e+003, 4.214055e-003
1.644982e+003, 4.085781e-003
1.646911e+003, 3.924410e-003
1.648839e+003, 3.925242e-003
1.650768e+003, 3.812572e-003
1.652696e+003, 3.416784e-003
1.654625e+003, 3.459623e-003
1.656553e+003, 3.713805e-003
1.658481e+003, 3.557173e-003
1.660410e+003, 3.262742e-003
1.662338e+003, 3.029936e-003
1.664267e+003, 2.934693e-003
1.666195e+003, 2.992243e-003
1.668124e+003, 2.865354e-003
1.670052e+003, 2.756942e-003
1.671981e+003, 2.664902e-003
1.673909e+003, 2.433370e-003
1.675838e+003, 2.323572e-003
1.677766e+003, 2.418763e-003
1.679695e+003, 2.264902e-003
1.681623e+003, 1.937339e-003
1.683552e+003, 1.710590e-003
1.685480e+003, 1.782027e-003
1.687408e+003, 1.889872e-003
1.689337e+003, 1.899940e-003
1.691265e+003, 1.864387e-003
1.693194e+003, 1.670707e-003
1.695122e+003, 1.418462e-003
1.697051e+003, 1.524288e-003
1.698979e+003, 1.353589e-003
1.700908e+003, 1.205090e-003
1.702836e+003, 1.604815e-003
1.704765e+003, 1.785105e-003
1.706693e+003, 1.609437e-003
1.708622e+003, 1.467461e-003
1.710550e+003, 1.519657e-003
1.712479e+003, 1.589430e-003
1.714407e+003, 1.667301e-003
1.716335e+003, 1.746361e-003
1.718264e+003, 1.779264e-003
1.720192e+003, 1.869030e-003
1.722121e+003, 2.036446e-003
1.724049e+003, 2.095434e-003
1.725978e+003, 1.939492e-003
1.727906e+003, 1.848197e-003
1.729835e+003, 1.825955e-003
1.731763e+003, 1.758224e-003
1.733692e+003, 1.581587e-003
1.735620e+003, 1.662293e-003
1.737549e+003, 1.805756e-003
1.739477e+003, 1.619132e-003
1.741406e+003, 1.415423e-003
1.743334e+003, 1.292524e-003
1.745262e+003, 1.260339e-003
1.747191e+003, 1.155738e-003
1.749119e+003, 1.196479e-003
1.751048e+003, 1.330014e-003
1.752976e+003, 1.468950e-003
1.754905e+003, 1.573301e-003
1.756833e+003, 1.634695e-003
1.758762e+003, 1.688617e-003
1.760690e+003, 1.680657e-003
1.762619e+003, 1.709034e-003
1.764547e+003, 1.792222e-003
1.766476e+003, 1.692169e-003
1.768404e+003, 1.498385e-003
1.770333e+003, 1.470559e-003
1.772261e+003, 1.321348e-003
1.774189e+003, 1.234900e-003
1.776118e+003, 1.226572e-003
1.778046e+003, 1.415017e-003
1.779975e+003, 1.431839e-003
1.781903e+003, 1.396566e-003
1.783832e+003, 1.483631e-003
1.785760e+003, 1.576552e-003
1.787689e+003, 1.625113e-003
1.789617e+003, 1.593290e-003
1.791546e+003, 1.468919e-003
1.793474e+003, 1.466529e-003
1.795403e+003, 1.392110e-003
1.797331e+003, 1.341030e-003
1.799260e+003, 1.273422e-003
1.801188e+003, 1.329847e-003
1.803116e+003, 1.362839e-003
1.805045e+003, 1.535922e-003
1.806973e+003, 1.424738e-003
1.808902e+003, 1.140415e-003
1.810830e+003, 1.182922e-003
1.812759e+003, 1.300162e-003
1.814687e+003, 9.989812e-004
1.816616e+003, 1.003502e-003
1.818544e+003, 9.473780e-004
1.820473e+003, 9.870391e-004
1.822401e+003, 1.411262e-003
1.824330e+003, 1.567621e-003
1.826258e+003, 1.468791e-003
1.828187e+003, 1.315888e-003
1.830115e+003, 1.258218e-003
1.832043e+003, 1.533560e-003
1.833972e+003, 1.692046e-003
1.835900e+003, 1.376356e-003
1.837829e+003, 1.044374e-003
1.839757e+003, 1.297148e-003
1.841686e+003, 1.425445e-003
1.843614e+003, 1.240449e-003
1.845543e+003, 9.886504e-004
1.847471e+003, 1.194608e-003
1.849400e+003, 1.406680e-003
1.851328e+003, 1.657732e-003
1.853257e+003, 1.630562e-003
1.855185e+003, 1.465946e-003
1.857114e+003, 1.292726e-003
1.859042e+003, 1.537773e-003
1.860970e+003, 1.455807e-003
1.862899e+003, 1.394341e-003
1.864827e+003, 1.458910e-003
1.866756e+003, 1.459813e-003
1.868684e+003, 1.410272e-003
1.870613e+003, 1.420648e-003
1.872541e+003, 1.443847e-003
1.874470e+003, 1.620364e-003
1.876398e+003, 1.338104e-003
1.878327e+003, 1.079690e-003
1.880255e+003, 1.257321e-003
1.882184e+003, 1.395345e-003
1.884112e+003, 1.319965e-003
1.886041e+003, 1.098993e-003
1.887969e+003, 9.103687e-004
1.889897e+003, 1.060235e-003
1.891826e+003, 1.578112e-003
1.893754e+003, 1.440270e-003
1.895683e+003, 1.009673e-003
1.897611e+003, 1.506121e-003
1.899540e+003, 1.982625e-003
1.901468e+003, 1.727835e-003
1.903397e+003, 1.214190e-003
1.905325e+003, 1.034163e-003
1.907254e+003, 6.788989e-004
1.909182e+003, 5.225276e-004
1.911111e+003, 6.786040e-004
1.913039e+003, 9.019293e-004
1.914968e+003, 1.158391e-003
1.916896e+003, 1.336003e-003
1.918824e+003, 7.454198e-004
1.920753e+003, 6.819908e-004
1.922681e+003, 7.925143e-004
1.924610e+003, 7.081977e-004
1.926538e+003, 8.278332e-004
1.928467e+003, 8.840457e-004
1.930395e+003, 6.569350e-004
1.932324e+003, 5.542639e-004
1.934252e+003, 2.315585e-004
1.936181e+003, 6.603708e-004
1.938109e+003, 9.070314e-004
1.940038e+003, 2.402767e-004
1.941966e+003, -5.295678e-004
1.943895e+003, -4.108233e-004
1.945823e+003, -3.622185e-004
1.947751e+003, -4.514458e-004
1.949680e+003, -3.181279e-004
1.951608e+003, -5.124819e-004
1.953537e+003, 3.780983e-004
1.955465e+003, -3.682598e-004
1.957394e+003, -1.220517e-003
1.959322e+003, -1.414400e-003
1.961251e+003, -1.634233e-003
1.963179e+003, -1.240943e-003
1.965108e+003, -1.374304e-003
1.967036e+003, -5.495660e-004
1.968965e+003, -5.076528e-004
1.970893e+003, 3.177002e-004
1.972822e+003, 3.040098e-004
1.974750e+003, 2.686791e-004
1.976678e+003, -3.776375e-004
1.978607e+003, 9.840007e-004
1.980535e+003, 2.718695e-004
1.982464e+003, 9.859406e-005
1.984392e+003, -1.195749e-004
1.986321e+003, -6.700286e-004
1.988249e+003, 4.823107e-004
1.990178e+003, 1.038205e-003
1.992106e+003, 7.891758e-004
1.994035e+003, 9.000133e-004
1.995963e+003, 5.873263e-004
1.997892e+003, 8.007658e-004
1.999820e+003, 9.995201e-004
2.001749e+003, 1.151463e-004
2.003677e+003, -9.187122e-004
2.005605e+003, -1.071040e-003
2.007534e+003, -4.617068e-004
2.009462e+003, 3.292905e-004
2.011391e+003, 6.886942e-004
2.013319e+003, 4.230429e-004
2.015248e+003, -3.835394e-004
2.017176e+003, -1.218463e-004
2.019105e+003, 1.645269e-004
2.021033e+003, -2.830119e-004
2.022962e+003, -1.440703e-003
2.024890e+003, -8.829645e-004
2.026819e+003, 7.897606e-004
2.028747e+003, 1.282131e-003
2.030676e+003, 6.868382e-005
2.032604e+003, -6.414656e-004
2.034532e+003, 3.334679e-004
2.036461e+003, 9.574717e-004
2.038389e+003, 6.674904e-004
2.040318e+003, 8.926421e-004
2.042246e+003, 6.014165e-004
2.044175e+003, 6.556333e-004
2.046103e+003, 6.246565e-004
2.048032e+003, 5.458618e-004
2.049960e+003, 1.659041e-003
2.051889e+003, 1.294107e-003
2.053817e+003, 2.614663e-004
2.055746e+003, 1.439212e-004
2.057674e+003, 5.331273e-004
2.059603e+003, 9.234660e-004
2.061531e+003, 4.541790e-004
2.063459e+003, -4.598332e-004
2.065388e+003, -1.998128e-004
2.067316e+003, 4.807930e-004
2.069245e+003, 3.466331e-004
2.071173e+003, 1.548355e-004
2.073102e+003, 3.939124e-004
2.075030e+003, 4.969566e-004
2.076959e+003, 2.806391e-004
2.078887e+003, 8.885123e-004
2.080816e+003, 1.271833e-003
2.082744e+003, 1.013993e-003
2.084673e+003, 6.051376e-004
2.086601e+003, 3.089723e-004
2.088530e+003, 2.105006e-004
2.090458e+003, 4.166832e-004
2.092386e+003, -3.462387e-004
2.094315e+003, -1.063347e-003
2.096243e+003, -2.811376e-004
2.098172e+003, 5.681419e-004
2.100100e+003, 4.945924e-004
2.102029e+003, 4.950496e-004
2.103957e+003, 2.123474e-004
2.105886e+003, -2.159446e-006
2.107814e+003, -2.550816e-004
2.109743e+003, -4.772184e-005
2.111671e+003, 9.243432e-004
2.113600e+003, 1.138557e-003
2.115528e+003, 4.308072e-004
2.117457e+003, 2.413267e-004
2.119385e+003, 3.002337e-004
2.121313e+003, 5.692992e-004
2.123242e+003, 6.678879e-004
2.125170e+003, 9.670016e-004
2.127099e+003, 6.120884e-004
2.129027e+003, 3.705434e-004
2.130956e+003, -1.771536e-004
2.132884e+003, -8.883684e-004
2.134813e+003, -9.437226e-005
2.136741e+003, 8.133123e-004
2.138670e+003, 1.230175e-003
2.140598e+003, 2.753419e-003
2.142527e+003, 3.754050e-003
2.144455e+003, 3.564517e-003
2.146384e+003, 3.529815e-003
2.148312e+003, 3.901177e-003
2.150240e+003, 2.937655e-003
2.152169e+003, 1.893549e-003
2.154097e+003, 1.443164e-003
2.156026e+003, 8.945505e-004
2.157954e+003, 1.441508e-003
2.159883e+003, 2.573924e-003
2.161811e+003, 1.875994e-003
2.163740e+003, 9.562446e-004
2.165668e+003, 8.339087e-004
2.167597e+003, 4.885472e-004
2.169525e+003, 7.140677e-005
2.171454e+003, 6.541566e-004
2.173382e+003, -3.316345e-004
2.175311e+003, 3.381904e-004
2.177239e+003, 1.131464e-003
2.179167e+003, 4.911934e-004
2.181096e+003, -2.310632e-004
2.183024e+003, 3.052174e-004
2.184953e+003, 1.045420e-003
2.186881e+003, 4.270919e-004
2.188810e+003, 6.589492e-004
2.190738e+003, 7.460343e-004
2.192667e+003, 3.631069e-004
2.194595e+003, 2.077873e-004
2.196524e+003, -1.307793e-004
2.198452e+003, 6.874016e-004
2.200381e+003, 1.257061e-003
2.202309e+003, 7.583215e-004
2.204238e+003, 6.469529e-004
2.206166e+003, 1.827731e-003
2.208094e+003, 1.797522e-003
2.210023e+003, 1.047854e-003
2.211951e+003, 1.501404e-003
2.213880e+003, 1.443344e-003
2.215808e+003, 8.204707e-004
2.217737e+003, 9.337865e-005
2.219665e+003, 3.561634e-004
2.221594e+003, 8.349181e-004
2.223522e+003, 7.796374e-004
2.225451e+003, 1.059059e-003
2.227379e+003, 8.905521e-004
2.229308e+003, 1.159715e-003
2.231236e+003, 1.247418e-003
2.233165e+003, 6.770861e-004
2.235093e+003, -1.775235e-005
2.237021e+003, -2.562055e-004
2.238950e+003, -1.918373e-004
2.240878e+003, -3.069908e-004
2.242807e+003, 5.511475e-004
2.244735e+003, 9.867707e-004
2.246664e+003, 1.566149e-004
2.248592e+003, 6.627057e-004
2.250521e+003, 8.391232e-004
2.252449e+003, -1.507433e-004
2.254378e+003, 1.184265e-004
2.256306e+003, 6.719626e-004
2.258235e+003, -1.029994e-004
2.260163e+003, -3.875866e-004
2.262092e+003, -1.443001e-004
2.264020e+003, -2.856126e-004
2.265948e+003, -5.521246e-004
2.267877e+003, 3.715862e-004
2.269805e+003, 1.340559e-003
2.271734e+003, 1.421058e-003
2.273662e+003, 1.210150e-003
2.275591e+003, 1.213028e-003
2.277519e+003, 1.018332e-003
2.279448e+003, 5.721943e-004
2.281376e+003, 1.064718e-003
2.283305e+003, 1.994165e-003
2.285233e+003, 2.063302e-003
2.287162e+003, 2.290898e-003
2.289090e+003, 1.992825e-003
2.291019e+003, 1.499487e-003
2.292947e+003, 1.244725e-003
2.294875e+003, 1.159865e-003
2.296804e+003, 1.358516e-003
2.298732e+003, 1.469681e-003
2.300661e+003, 1.407382e-003
2.302589e+003, 1.332595e-003
2.304518e+003, 1.519697e-003
2.306446e+003, 1.644542e-003
2.308375e+003, 1.398213e-003
2.310303e+003, 1.485023e-003
2.312232e+003, 1.835844e-003
2.314160e+003, 1.756855e-003
2.316089e+003, 1.612428e-003
2.318017e+003, 2.051889e-003
2.319946e+003, 2.628365e-003
2.321874e+003, 3.520366e-003
2.323802e+003, 3.889217e-003
2.325731e+003, 2.765844e-003
2.327659e+003, 1.532529e-003
2.329588e+003, 1.040146e-003
2.331516e+003, 9.182420e-004
2.333445e+003, 7.483938e-004
2.335373e+003, 7.732963e-004
2.337302e+003, 9.084377e-004
2.339230e+003, 7.763043e-004
2.341159e+003, 1.088226e-003
2.343087e+003, 1.280640e-003
2.345016e+003, 1.178383e-003
2.346944e+003, 1.107642e-003
2.348873e+003, 1.180005e-003
2.350801e+003, 9.984893e-004
2.352729e+003, 1.010584e-003
2.354658e+003, 1.147432e-003
2.356586e+003, 1.327954e-003
2.358515e+003, 9.562776e-004
2.360443e+003, 7.931275e-004
2.362372e+003, 9.235750e-004
2.364300e+003, 6.008036e-004
2.366229e+003, 6.287161e-004
2.368157e+003, 5.745084e-004
2.370086e+003, 6.669355e-004
2.372014e+003, 6.923745e-004
2.373943e+003, 4.725329e-004
2.375871e+003, 6.907780e-004
2.377800e+003, 6.849692e-004
2.379728e+003, 6.014658e-004
2.381656e+003, 5.779396e-004
2.383585e+003, 1.738601e-004
2.385513e+003, -1.082833e-004
2.387442e+003, 3.507720e-004
2.389370e+003, 3.888248e-004
2.391299e+003, 2.335414e-005
2.393227e+003, -4.001789e-004
2.395156e+003, -4.234667e-004
2.397084e+003, -7.518666e-005
2.399013e+003, -9.929406e-005
2.400941e+003, -5.210464e-004
2.402870e+003, -1.886808e-004
2.404798e+003, -7.376028e-005
2.406727e+003, -1.001177e-004
2.408655e+003, -1.480819e-004
2.410583e+003, -2.975453e-004
2.412512e+003, 1.228979e-005
2.414440e+003, 8.433600e-004
2.416369e+003, 8.646267e-004
2.418297e+003, 4.342168e-004
2.420226e+003, 4.496570e-004
2.422154e+003, 4.931189e-004
2.424083e+003, 1.504620e-004
2.426011e+003, 2.495574e-004
2.427940e+003, 5.585580e-004
2.429868e+003, 1.441520e-004
2.431797e+003, -1.032046e-004
2.433725e+003, 1.874602e-004
2.435654e+003, 5.003500e-004
2.437582e+003, 9.486466e-004
2.439510e+003, 8.426722e-004
2.441439e+003, 2.294474e-004
2.443367e+003, 6.573221e-004
2.445296e+003, 1.284746e-003
2.447224e+003, 1.015656e-003
2.449153e+003, 8.971792e-004
2.451081e+003, 9.665096e-004
2.453010e+003, 9.411505e-004
2.454938e+003, 1.394752e-003
2.456867e+003, 1.535466e-003
2.458795e+003, 1.700850e-003
2.460724e+003, 1.695272e-003
2.462652e+003, 1.425280e-003
2.464581e+003, 1.602205e-003
2.466509e+003, 1.287778e-003
2.468438e+003, 1.114450e-003
2.470366e+003, 1.607450e-003
2.472294e+003, 1.657707e-003
2.474223e+003, 1.608290e-003
2.476151e+003, 1.676332e-003
2.478080e+003, 1.558257e-003
2.480008e+003, 1.795427e-003
2.481937e+003, 2.029974e-003
2.483865e+003, 1.301347e-003
2.485794e+003, 1.090953e-003
2.487722e+003, 1.785089e-003
2.489651e+003, 1.833021e-003
2.491579e+003, 1.776049e-003
2.493508e+003, 1.528901e-003
2.495436e+003, 7.218198e-004
2.497365e+003, 3.178669e-004
2.499293e+003, 8.941646e-004
2.501221e+003, 1.808376e-003
2.503150e+003, 2.000291e-003
2.505078e+003, 1.546650e-003
2.507007e+003, 1.624794e-003
2.508935e+003, 1.611937e-003
2.510864e+003, 1.217685e-003
2.512792e+003, 1.181426e-003
2.514721e+003, 1.139377e-003
2.516649e+003, 1.341984e-003
2.518578e+003, 1.529897e-003
2.520506e+003, 1.512056e-003
2.522435e+003, 1.322628e-003
2.524363e+003, 1.061361e-003
2.526292e+003, 9.602068e-004
2.528220e+003, 9.303103e-004
2.530148e+003, 1.084130e-003
2.532077e+003, 8.710016e-004
2.534005e+003, 1.053320e-003
2.535934e+003, 1.476292e-003
2.537862e+003, 1.187674e-003
2.539791e+003, 6.917813e-004
2.541719e+003, 4.301792e-004
2.543648e+003, 6.411248e-005
2.545576e+003, 4.454582e-004
2.547505e+003, 8.794945e-004
2.549433e+003, 6.269225e-004
2.551362e+003, 2.646109e-004
2.553290e+003, 2.806174e-004
2.555219e+003, 4.831939e-004
2.557147e+003, 3.303181e-004
2.559075e+003, 6.115206e-004
2.561004e+003, 6.055927e-004
2.562932e+003, 4.396710e-004
2.564861e+003, 5.134195e-004
2.566789e+003, 6.960657e-004
2.568718e+003, 4.620308e-004
2.570646e+003, -1.395436e-005
2.572575e+003, 4.893499e-004
2.574503e+003, 8.306488e-004
2.576432e+003, 4.875597e-004
2.578360e+003, 6.305986e-004
2.580289e+003, 9.399494e-004
2.582217e+003, 9.363237e-004
2.584146e+003, 4.536033e-004
2.586074e+003, 4.700548e-005
2.588002e+003, 3.994579e-004
2.589931e+003, 1.009745e-003
2.591859e+003, 6.865192e-004
2.593788e+003, 4.127726e-004
2.595716e+003, 6.400031e-004
2.597645e+003, 7.948885e-004
2.599573e+003, 8.795372e-004
2.601502e+003, 9.039405e-004
2.603430e+003, 7.413045e-004
2.605359e+003, 7.783067e-004
2.607287e+003, 8.110846e-004
2.609216e+003, 9.925015e-004
2.611144e+003, 1.417277e-003
2.613073e+003, 1.277819e-003
2.615001e+003, 1.056577e-003
2.616929e+003, 1.303038e-003
2.618858e+003, 1.461022e-003
2.620786e+003, 1.315292e-003
2.622715e+003, 1.265778e-003
2.624643e+003, 1.244055e-003
2.626572e+003, 1.400370e-003
2.628500e+003, 1.802093e-003
2.630429e+003, 1.722032e-003
2.632357e+003, 1.247321e-003
2.634286e+003, 1.719490e-003
2.636214e+003, 2.289469e-003
2.638143e+003, 2.686863e-003
2.640071e+003, 2.507002e-003
2.642000e+003, 2.253208e-003
2.643928e+003, 2.629211e-003
2.645856e+003, 2.681204e-003
2.647785e+003, 2.350580e-003
2.649713e+003, 2.247437e-003
2.651642e+003, 2.172554e-003
2.653570e+003, 2.437425e-003
2.655499e+003, 2.486288e-003
2.657427e+003, 2.313579e-003
2.659356e+003, 2.237869e-003
2.661284e+003, 2.503827e-003
2.663213e+003, 2.617764e-003
2.665141e+003, 2.595318e-003
2.667070e+003, 2.201238e-003
2.668998e+003, 1.816299e-003
2.670927e+003, 1.899368e-003
2.672855e+003, 2.034964e-003
2.674783e+003, 2.042767e-003
2.676712e+003, 1.919813e-003
2.678640e+003, 2.035627e-003
2.680569e+003, 2.384578e-003
2.682497e+003, 2.547763e-003
2.684426e+003, 2.697344e-003
2.686354e+003, 2.548551e-003
2.688283e+003, 2.468780e-003
2.690211e+003, 2.535339e-003
2.692140e+003, 2.577490e-003
2.694068e+003, 2.464325e-003
2.695997e+003, 2.622727e-003
2.697925e+003, 3.071486e-003
2.699854e+003, 3.101343e-003
2.701782e+003, 3.118371e-003
2.703710e+003, 3.572464e-003
2.705639e+003, 3.628964e-003
2.707567e+003, 3.557143e-003
2.709496e+003, 3.467836e-003
2.711424e+003, 3.405976e-003
2.713353e+003, 3.588019e-003
2.715281e+003, 3.753834e-003
2.717210e+003, 4.041616e-003
2.719138e+003, 4.162437e-003
2.721067e+003, 4.154661e-003
2.722995e+003, 4.336086e-003
2.724924e+003, 4.042178e-003
2.726852e+003, 3.896999e-003
2.728781e+003, 4.611758e-003
2.730709e+003, 4.526570e-003
2.732637e+003, 4.016357e-003
2.734566e+003, 4.303223e-003
2.736494e+003, 4.404829e-003
2.738423e+003, 4.402432e-003
2.740351e+003, 4.535391e-003
2.742280e+003, 4.381978e-003
2.744208e+003, 4.224781e-003
2.746137e+003, 4.207036e-003
2.748065e+003, 4.187698e-003
2.749994e+003, 4.593332e-003
2.751922e+003, 4.727148e-003
2.753851e+003, 4.463489e-003
2.755779e+003, 4.106273e-003
2.757708e+003, 4.493341e-003
2.759636e+003, 5.238588e-003
2.761564e+003, 5.168369e-003
2.763493e+003, 4.764893e-003
2.765421e+003, 4.638966e-003
2.767350e+003, 4.772051e-003
2.769278e+003, 5.143704e-003
2.771207e+003, 5.138886e-003
2.773135e+003, 5.139090e-003
2.775064e+003, 4.814500e-003
2.776992e+003, 4.738269e-003
2.778921e+003, 5.244873e-003
2.780849e+003, 5.584727e-003
2.782778e+003, 5.880063e-003
2.784706e+003, 5.633184e-003
2.786635e+003, 5.291399e-003
2.788563e+003, 5.551337e-003
2.790491e+003, 5.706811e-003
2.792420e+003, 5.903293e-003
2.794348e+003, 5.798481e-003
2.796277e+003, 5.672248e-003
2.798205e+003, 5.805594e-003
2.800134e+003, 5.570523e-003
2.802062e+003, 5.695480e-003
2.803991e+003, 6.094260e-003
2.805919e+003, 5.613901e-003
2.807848e+003, 5.263995e-003
2.809776e+003, 5.960351e-003
2.811705e+003, 6.784433e-003
2.813633e+003, 6.416332e-003
2.815562e+003, 6.302326e-003
2.817490e+003, 6.347211e-003
2.819418e+003, 6.158222e-003
2.821347e+003, 6.110519e-003
2.823275e+003, 6.015102e-003
2.825204e+003, 6.132205e-003
2.827132e+003, 6.409690e-003
2.829061e+003, 6.630446e-003
2.830989e+003, 6.771168e-003
2.832918e+003, 6.930516e-003
2.834846e+003, 7.410254e-003
2.836775e+003, 7.648266e-003
2.838703e+003, 7.406899e-003
2.840632e+003, 7.800732e-003
2.842560e+003, 8.270517e-003
2.844489e+003, 8.512909e-003
2.846417e+003, 8.822528e-003
2.848345e+003, 9.134099e-003
2.850274e+003, 9.354877e-003
2.852202e+003, 9.310042e-003
2.854131e+003, 9.070666e-003
2.856059e+003, 8.879650e-003
2.857988e+003, 8.969424e-003
2.859916e+003, 9.158977e-003
2.861845e+003, 9.309348e-003
2.863773e+003, 8.912317e-003
2.865702e+003, 8.209841e-003
2.867630e+003, 7.912164e-003
2.869559e+003, 8.434616e-003
2.871487e+003, 8.775863e-003
2.873416e+003, 8.288888e-003
2.875344e+003, 7.686794e-003
2.877272e+003, 8.177157e-003
2.879201e+003, 8.906065e-003
2.881129e+003, 8.925484e-003
2.883058e+003, 8.770790e-003
2.884986e+003, 8.723467e-003
2.886915e+003, 8.674012e-003
2.888843e+003, 9.152141e-003
2.890772e+003, 9.109356e-003
2.892700e+003, 9.182120e-003
2.894629e+003, 9.690081e-003
2.896557e+003, 1.004916e-002
2.898486e+003, 1.000367e-002
2.900414e+003, 1.003526e-002
2.902343e+003, 1.016887e-002
2.904271e+003, 1.072330e-002
2.906199e+003, 1.130182e-002
2.908128e+003, 1.186661e-002
2.910056e+003, 1.157249e-002
2.911985e+003, 1.191499e-002
2.913913e+003, 1.258566e-002
2.915842e+003, 1.340217e-002
2.917770e+003, 1.423070e-002
2.919699e+003, 1.389087e-002
2.921627e+003, 1.371132e-002
2.923556e+003, 1.383119e-002
2.925484e+003, 1.411799e-002
2.927413e+003, 1.413738e-002
2.929341e+003, 1.339872e-002
2.931270e+003, 1.311580e-002
2.933198e+003, 1.285546e-002
2.935126e+003, 1.204267e-002
2.937055e+003, 1.155770e-002
2.938983e+003, 1.141679e-002
2.940912e+003, 1.097531e-002
2.942840e+003, 1.075984e-002
2.944769e+003, 1.031078e-002
2.946697e+003, 1.008045e-002
2.948626e+003, 1.071349e-002
2.950554e+003, 1.100408e-002
2.952483e+003, 1.095533e-002
2.954411e+003, 1.074938e-002
2.956340e+003, 1.064575e-002
2.958268e+003, 1.039494e-002
2.960197e+003, 1.009900e-002
2.962125e+003, 1.048621e-002
2.964053e+003, 1.061233e-002
2.965982e+003, 1.039813e-002
2.967910e+003, 9.744051e-003
2.969839e+003, 9.271910e-003
2.971767e+003, 8.638465e-003
2.973696e+003, 7.455665e-003
2.975624e+003, 6.864695e-003
2.977553e+003, 7.828290e-003
2.979481e+003, 8.341726e-003
2.981410e+003, 8.783995e-003
2.983338e+003, 8.398430e-003
2.985267e+003, 8.142677e-003
2.987195e+003, 8.397140e-003
2.989124e+003, 7.836114e-003
2.991052e+003, 7.308697e-003
2.992980e+003, 7.743642e-003
2.994909e+003, 8.318242e-003
2.996837e+003, 8.221960e-003
2.998766e+003, 8.073748e-003
3.000694e+003, 8.427586e-003
3.002623e+003, 8.493087e-003
3.004551e+003, 8.660899e-003
3.006480e+003, 8.989182e-003
3.008408e+003, 8.787572e-003
3.010337e+003, 9.300107e-003
3.012265e+003, 9.247568e-003
3.014194e+003, 8.082703e-003
3.016122e+003, 8.271980e-003
3.018051e+003, 9.264542e-003
3.019979e+003, 9.903797e-003
3.021907e+003, 9.731751e-003
3.023836e+003, 9.918547e-003
3.025764e+003, 1.065766e-002
3.027693e+003, 1.048505e-002
3.029621e+003, 1.013051e-002
3.031550e+003, 1.014841e-002
3.033478e+003, 1.037232e-002
3.035407e+003, 1.015056e-002
3.037335e+003, 1.051890e-002
3.039264e+003, 1.122286e-002
3.041192e+003, 1.110099e-002
3.043121e+003, 1.149298e-002
3.045049e+003, 1.193288e-002
3.046978e+003, 1.199561e-002
3.048906e+003, 1.221361e-002
3.050834e+003, 1.206957e-002
3.052763e+003, 1.198372e-002
3.054691e+003, 1.259935e-002
3.056620e+003, 1.311334e-002
3.058548e+003, 1.284934e-002
3.060477e+003, 1.272785e-002
3.062405e+003, 1.272813e-002
3.064334e+003, 1.254400e-002
3.066262e+003, 1.267046e-002
3.068191e+003, 1.260559e-002
3.070119e+003, 1.331017e-002
3.072048e+003, 1.380409e-002
3.073976e+003, 1.378063e-002
3.075905e+003, 1.385262e-002
3.077833e+003, 1.388028e-002
3.079761e+003, 1.369005e-002
3.081690e+003, 1.413011e-002
3.083618e+003, 1.443675e-002
3.085547e+003, 1.453629e-002
3.087475e+003, 1.481394e-002
3.089404e+003, 1.494706e-002
3.091332e+003, 1.532848e-002
3.093261e+003, 1.541788e-002
3.095189e+003, 1.552209e-002
3.097118e+003, 1.566639e-002
3.099046e+003, 1.574297e-002
3.100975e+003, 1.606380e-002
3.102903e+003, 1.609504e-002
3.104832e+003, 1.622839e-002
3.106760e+003, 1.625271e-002
3.108688e+003, 1.645820e-002
3.110617e+003, 1.725098e-002
3.112545e+003, 1.749072e-002
3.114474e+003, 1.728916e-002
3.116402e+003, 1.701565e-002
3.118331e+003, 1.666168e-002
3.120259e+003, 1.712915e-002
3.122188e+003, 1.738046e-002
3.124116e+003, 1.762019e-002
3.126045e+003, 1.799701e-002
3.127973e+003, 1.853735e-002
3.129902e+003, 1.802120e-002
3.131830e+003, 1.805359e-002
3.133759e+003, 1.876995e-002
3.135687e+003, 1.889946e-002
3.137615e+003, 1.860337e-002
3.139544e+003, 1.883645e-002
3.141472e+003, 1.943748e-002
3.143401e+003, 1.954545e-002
3.145329e+003, 1.890042e-002
3.147258e+003, 1.895981e-002
3.149186e+003, 1.961976e-002
3.151115e+003, 1.982072e-002
3.153043e+003, 2.009704e-002
3.154972e+003, 2.069450e-002
3.156900e+003, 2.079899e-002
3.158829e+003, 2.139611e-002
3.160757e+003, 2.152110e-002
3.162686e+003, 2.178380e-002
3.164614e+003, 2.245387e-002
3.166542e+003, 2.186962e-002
3.168471e+003, 2.118817e-002
3.170399e+003, 2.151641e-002
3.172328e+003, 2.175701e-002
3.174256e+003, 2.165486e-002
3.176185e+003, 2.130903e-002
3.178113e+003, 2.212191e-002
3.180042e+003, 2.282676e-002
3.181970e+003, 2.309835e-002
3.183899e+003, 2.264602e-002
3.185827e+003, 2.242640e-002
3.187756e+003, 2.282834e-002
3.189684e+003, 2.277919e-002
3.191613e+003, 2.276322e-002
3.193541e+003, 2.324566e-002
3.195469e+003, 2.434676e-002
3.197398e+003, 2.475918e-002
3.199326e+003, 2.450192e-002
3.201255e+003, 2.450634e-002
3.203183e+003, 2.457469e-002
3.205112e+003, 2.452044e-002
3.207040e+003, 2.448278e-002
3.208969e+003, 2.545898e-002
3.210897e+003, 2.578427e-002
3.212826e+003, 2.546587e-002
3.214754e+003, 2.582066e-002
3.216683e+003, 2.620405e-002
3.218611e+003, 2.627254e-002
3.220540e+003, 2.623600e-002
3.222468e+003, 2.612938e-002
3.224396e+003, 2.678249e-002
3.226325e+003, 2.716239e-002
3.228253e+003, 2.727778e-002
3.230182e+003, 2.736558e-002
3.232110e+003, 2.746474e-002
3.234039e+003, 2.707812e-002
3.235967e+003, 2.708023e-002
3.237896e+003, 2.720868e-002
3.239824e+003, 2.738713e-002
3.241753e+003, 2.701746e-002
3.243681e+003, 2.676863e-002
3.245610e+003, 2.758877e-002
3.247538e+003, 2.871807e-002
3.249467e+003, 2.857927e-002
3.251395e+003, 2.856398e-002
3.253323e+003, 2.910498e-002
3.255252e+003, 2.929737e-002
3.257180e+003, 2.933877e-002
3.259109e+003, 2.977997e-002
3.261037e+003, 3.020782e-002
3.262966e+003, 3.065002e-002
3.264894e+003, 3.084221e-002
3.266823e+003, 3.057520e-002
3.268751e+003, 3.137508e-002
3.270680e+003, 3.207307e-002
3.272608e+003, 3.083500e-002
3.274537e+003, 3.049388e-002
3.276465e+003, 3.099841e-002
3.278394e+003, 3.170330e-002
3.280322e+003, 3.218392e-002
3.282250e+003, 3.223296e-002
3.284179e+003, 3.240731e-002
3.286107e+003, 3.356651e-002
3.288036e+003, 3.335442e-002
3.289964e+003, 3.302055e-002
3.291893e+003, 3.306494e-002
3.293821e+003, 3.264447e-002
3.295750e+003, 3.237962e-002
3.297678e+003, 3.293524e-002
3.299607e+003, 3.334223e-002
3.301535e+003, 3.356814e-002
3.303464e+003, 3.414538e-002
3.305392e+003, 3.401080e-002
3.307321e+003, 3.419803e-002
3.309249e+003, 3.389261e-002
3.311177e+003, 3.407994e-002
3.313106e+003, 3.499477e-002
3.315034e+003, 3.579436e-002
3.316963e+003, 3.585555e-002
3.318891e+003, 3.605084e-002
3.320820e+003, 3.618921e-002
3.322748e+003, 3.578586e-002
3.324677e+003, 3.571162e-002
3.326605e+003, 3.565999e-002
3.328534e+003, 3.665001e-002
3.330462e+003, 3.655936e-002
3.332391e+003, 3.582799e-002
3.334319e+003, 3.588856e-002
3.336248e+003, 3.689109e-002
3.338176e+003, 3.763072e-002
3.340104e+003, 3.788986e-002
3.342033e+003, 3.808315e-002
3.343961e+003, 3.848253e-002
3.345890e+003, 3.830687e-002
3.347818e+003, 3.760033e-002
3.349747e+003, 3.799754e-002
3.351675e+003, 3.811809e-002
3.353604e+003, 3.734184e-002
3.355532e+003, 3.755668e-002
3.357461e+003, 3.793351e-002
3.359389e+003, 3.794478e-002
3.361318e+003, 3.877595e-002
3.363246e+003, 3.994679e-002
3.365175e+003, 3.949611e-002
3.367103e+003, 3.865890e-002
3.369031e+003, 3.872795e-002
3.370960e+003, 3.918725e-002
3.372888e+003, 3.959595e-002
3.374817e+003, 3.945882e-002
3.376745e+003, 3.985601e-002
3.378674e+003, 4.039972e-002
3.380602e+003, 3.981471e-002
3.382531e+003, 3.967448e-002
3.384459e+003, 4.005790e-002
3.386388e+003, 4.005377e-002
3.388316e+003, 4.006448e-002
3.390245e+003, 3.994041e-002
3.392173e+003, 3.980663e-002
3.394102e+003, 3.992807e-002
3.396030e+003, 4.078725e-002
3.397958e+003, 4.072081e-002
3.399887e+003, 4.074743e-002
3.401815e+003, 4.184305e-002
3.403744e+003, 4.167099e-002
3.405672e+003, 4.163428e-002
3.407601e+003, 4.165815e-002
3.409529e+003, 4.127693e-002
3.411458e+003, 4.034584e-002
3.413386e+003, 4.015017e-002
3.415315e+003, 3.999169e-002
3.417243e+003, 4.044485e-002
3.419172e+003, 4.148879e-002
3.421100e+003, 4.164088e-002
3.423029e+003, 4.094012e-002
3.424957e+003, 4.132523e-002
3.426885e+003, 4.240325e-002
3.428814e+003, 4.227697e-002
3.430742e+003, 4.098684e-002
3.432671e+003, 4.150767e-002
3.434599e+003, 4.208295e-002
3.436528e+003, 4.236906e-002
3.438456e+003, 4.220277e-002
3.440385e+003, 4.199521e-002
3.442313e+003, 4.189531e-002
3.444242e+003, 4.156119e-002
3.446170e+003, 4.127179e-002
3.448099e+003, 4.198297e-002
3.450027e+003, 4.214849e-002
3.451956e+003, 4.126638e-002
3.453884e+003, 4.062447e-002
3.455813e+003, 4.096185e-002
3.457741e+003, 4.188903e-002
3.459669e+003, 4.137306e-002
3.461598e+003, 4.113029e-002
3.463526e+003, 4.078850e-002
3.465455e+003, 4.057632e-002
3.467383e+003, 4.039862e-002
3.469312e+003, 3.944749e-002
3.471240e+003, 4.025323e-002
3.473169e+003, 4.093239e-002
3.475097e+003, 4.064871e-002
3.477026e+003, 4.012502e-002
3.478954e+003, 3.965586e-002
3.480883e+003, 3.956136e-002
3.482811e+003, 3.916506e-002
3.484740e+003, 3.848843e-002
3.486668e+003, 3.875363e-002
3.488596e+003, 3.894371e-002
3.490525e+003, 3.844886e-002
3.492453e+003, 3.735236e-002
3.494382e+003, 3.764033e-002
3.496310e+003, 3.749304e-002
3.498239e+003, 3.690745e-002
3.500167e+003, 3.757231e-002
3.502096e+003, 3.737038e-002
3.504024e+003, 3.578149e-002
3.505953e+003, 3.494129e-002
3.507881e+003, 3.536039e-002
3.509810e+003, 3.490670e-002
3.511738e+003, 3.437950e-002
3.513667e+003, 3.398765e-002
3.515595e+003, 3.340145e-002
3.517523e+003, 3.312515e-002
3.519452e+003, 3.280486e-002
3.521380e+003, 3.293193e-002
3.523309e+003, 3.336525e-002
3.525237e+003, 3.328395e-002
3.527166e+003, 3.228430e-002
3.529094e+003, 3.214111e-002
3.531023e+003, 3.257872e-002
3.532951e+003, 3.261069e-002
3.534880e+003, 3.149432e-002
3.536808e+003, 3.131773e-002
3.538737e+003, 3.173804e-002
3.540665e+003, 3.200013e-002
3.542594e+003, 3.237447e-002
3.544522e+003, 3.111617e-002
3.546450e+003, 3.069014e-002
3.548379e+003, 3.227133e-002
3.550307e+003, 3.303618e-002
3.552236e+003, 3.261371e-002
3.554164e+003, 3.232223e-002
3.556093e+003, 3.287898e-002
3.558021e+003, 3.324274e-002
3.559950e+003, 3.426807e-002
3.561878e+003, 3.356449e-002
3.563807e+003, 3.262623e-002
3.565735e+003, 3.128614e-002
3.567664e+003, 3.019032e-002
3.569592e+003, 2.861581e-002
3.571521e+003, 2.671358e-002
3.573449e+003, 2.486023e-002
3.575377e+003, 2.358066e-002
3.577306e+003, 2.237642e-002
3.579234e+003, 2.125409e-002
3.581163e+003, 2.012195e-002
3.583091e+003, 2.022486e-002
3.585020e+003, 1.965393e-002
3.586948e+003, 1.900102e-002
3.588877e+003, 1.915843e-002
3.590805e+003, 1.957625e-002
3.592734e+003, 1.956170e-002
3.594662e+003, 1.916777e-002
3.596591e+003, 1.911412e-002
3.598519e+003, 1.999553e-002
3.600448e+003, 1.905980e-002
3.602376e+003, 1.776227e-002
3.604304e+003, 1.723815e-002
3.606233e+003, 1.666099e-002
3.608161e+003, 1.658928e-002
3.610090e+003, 1.608422e-002
3.612018e+003, 1.445227e-002
3.613947e+003, 1.460082e-002
3.615875e+003, 1.444572e-002
3.617804e+003, 1.440898e-002
3.619732e+003, 1.453808e-002
3.621661e+003, 1.457357e-002
3.623589e+003, 1.408408e-002
3.625518e+003, 1.325271e-002
3.627446e+003, 1.223609e-002
3.629375e+003, 1.272135e-002
3.631303e+003, 1.232814e-002
3.633231e+003, 1.167852e-002
3.635160e+003, 1.157033e-002
3.637088e+003, 1.154308e-002
3.639017e+003, 1.147358e-002
3.640945e+003, 1.112140e-002
3.642874e+003, 1.049608e-002
3.644802e+003, 1.050501e-002
3.646731e+003, 1.138402e-002
3.648659e+003, 9.862309e-003
3.650588e+003, 8.041635e-003
3.652516e+003, 8.389126e-003
3.654445e+003, 9.433201e-003
3.656373e+003, 9.375514e-003
3.658302e+003, 8.679014e-003
3.660230e+003, 9.790069e-003
3.662158e+003, 9.956630e-003
3.664087e+003, 9.158743e-003
3.666015e+003, 8.702807e-003
3.667944e+003, 9.487929e-003
3.669872e+003, 8.233887e-003
3.671801e+003, 6.710283e-003
3.673729e+003, 5.968186e-003
3.675658e+003, 6.178943e-003
3.677586e+003, 5.596259e-003
3.679515e+003, 6.129701e-003
3.681443e+003, 7.493092e-003
3.683372e+003, 7.735455e-003
3.685300e+003, 6.863390e-003
3.687229e+003, 5.992665e-003
3.689157e+003, 5.633438e-003
3.691085e+003, 5.190377e-003
3.693014e+003, 3.939167e-003
3.694942e+003, 4.205863e-003
3.696871e+003, 4.516741e-003
3.698799e+003, 5.140484e-003
3.700728e+003, 5.589079e-003
3.702656e+003, 5.170500e-003
3.704585e+003, 5.272717e-003
3.706513e+003, 5.319010e-003
3.708442e+003, 4.150189e-003
3.710370e+003, 3.165321e-003
3.712299e+003, 3.403899e-003
3.714227e+003, 4.238032e-003
3.716156e+003, 3.869625e-003
3.718084e+003, 3.399280e-003
3.720012e+003, 2.541163e-003
3.721941e+003, 2.208400e-003
3.723869e+003, 2.615167e-003
3.725798e+003, 3.145122e-003
3.727726e+003, 2.455745e-003
3.729655e+003, 2.056821e-003
3.731583e+003, 3.025958e-003
3.733512e+003, 2.434019e-003
3.735440e+003, 2.209499e-003
3.737369e+003, 2.180944e-003
3.739297e+003, 1.704996e-003
3.741226e+003, 2.436221e-003
3.743154e+003, 2.453188e-003
3.745083e+003, 1.574820e-003
3.747011e+003, 9.129799e-004
3.748939e+003, 4.544664e-004
3.750868e+003, 1.342139e-003
3.752796e+003, 2.254756e-003
3.754725e+003, 1.967367e-003
3.756653e+003, 1.445390e-003
3.758582e+003, 1.619609e-003
3.760510e+003, 1.501379e-003
3.762439e+003, 1.816593e-003
3.764367e+003, 2.029019e-003
3.766296e+003, 1.589371e-003
3.768224e+003, 2.232664e-003
3.770153e+003, 2.219099e-003
3.772081e+003, 1.147283e-003
3.774010e+003, 1.236732e-004
3.775938e+003, 1.224939e-003
3.777866e+003, 1.525520e-003
3.779795e+003, 9.253415e-004
3.781723e+003, 1.236443e-003
3.783652e+003, 1.025960e-003
3.785580e+003, 6.967434e-004
3.787509e+003, 1.857494e-003
3.789437e+003, 3.142610e-003
3.791366e+003, 2.192195e-003
3.793294e+003, 7.111486e-004
3.795223e+003, 4.733660e-004
3.797151e+003, 8.527746e-004
3.799080e+003, 1.848555e-003
3.801008e+003, 2.185585e-003
3.802937e+003, 2.755579e-003
3.804865e+003, 2.574108e-003
3.806793e+003, 1.342910e-003
3.808722e+003, 6.835881e-004
3.810650e+003, 8.333996e-004
3.812579e+003, 1.428130e-003
3.814507e+003, 1.207096e-003
3.816436e+003, 1.775720e-003
3.818364e+003, 2.964858e-003
3.820293e+003, 2.173035e-003
3.822221e+003, 2.227479e-003
3.824150e+003, 2.288613e-003
3.826078e+003, 1.176416e-003
3.828007e+003, 1.690531e-003
3.829935e+003, 1.773749e-003
3.831864e+003, 1.749754e-003
3.833792e+003, 2.919833e-003
3.835720e+003, 1.511177e-003
3.837649e+003, 7.888231e-004
3.839577e+003, 1.220162e-003
3.841506e+003, 2.156874e-003
3.843434e+003, 2.501265e-003
3.845363e+003, 8.025727e-004
3.847291e+003, 1.066348e-003
3.849220e+003, 1.994507e-003
3.851148e+003, 1.518440e-003
3.853077e+003, 7.533501e-004
3.855005e+003, 7.172696e-004
3.856934e+003, 2.412644e-003
3.858862e+003, 1.879238e-003
3.860791e+003, 5.749641e-004
3.862719e+003, 1.396311e-003
3.864647e+003, 2.309256e-003
3.866576e+003, 2.292204e-003
3.868504e+003, 2.786056e-004
3.870433e+003, 4.724553e-005
3.872361e+003, 1.212288e-003
3.874290e+003, 2.895191e-003
3.876218e+003, 3.404999e-003
3.878147e+003, 2.471154e-003
3.880075e+003, 1.605123e-003
3.882004e+003, 1.240755e-003
3.883932e+003, 1.854142e-003
3.885861e+003, 2.008707e-003
3.887789e+003, 2.081688e-003
3.889718e+003, 2.060151e-003
3.891646e+003, 1.137198e-003
3.893574e+003, 8.025132e-004
3.895503e+003, 1.644841e-003
3.897431e+003, 1.417847e-003
3.899360e+003, 1.971095e-004
3.901288e+003, 2.599728e-004
3.903217e+003, 1.132461e-003
3.905145e+003, 1.103443e-003
3.907074e+003, 7.173049e-004
3.909002e+003, 2.071920e-003
3.910931e+003, 2.182765e-003
3.912859e+003, 6.183021e-004
3.914788e+003, -1.031947e-003
3.916716e+003, 4.913795e-004
3.918645e+003, 3.242934e-003
3.920573e+003, 2.331201e-003
3.922501e+003, 9.787524e-004
3.924430e+003, 1.035983e-003
3.926358e+003, 1.264309e-003
3.928287e+003, -4.266202e-005
3.930215e+003, 4.507852e-004
3.932144e+003, 1.613846e-003
3.934072e+003, 5.210495e-004
3.936001e+003, -9.303582e-004
3.937929e+003, -1.824641e-003
3.939858e+003, -1.094191e-003
3.941786e+003, -8.808409e-004
3.943715e+003, -4.052452e-005
3.945643e+003, -8.452665e-004
3.947572e+003, -1.200917e-003
3.949500e+003, -1.624995e-005
3.951428e+003, 5.822355e-004
3.953357e+003, 1.085383e-003
3.955285e+003, 4.957694e-004
3.957214e+003, -1.123708e-003
3.959142e+003, -1.329081e-003
3.961071e+003, 3.232891e-004
3.962999e+003, -1.473092e-004
3.964928e+003, -8.806895e-004
3.966856e+003, -1.404872e-003
3.968785e+003, -1.170989e-003
3.970713e+003, -3.517424e-004
3.972642e+003, 4.379697e-004
3.974570e+003, 3.363539e-004
3.976499e+003, -8.370279e-004
3.978427e+003, -5.991207e-004
3.980355e+003, -4.455392e-004
3.982284e+003, -6.784343e-004
3.984212e+003, -3.288727e-004
3.986141e+003, -2.855947e-005
3.988069e+003, 1.995428e-004
3.989998e+003, 2.340045e-004
3.991926e+003, -1.528941e-004
3.993855e+003, -6.110946e-004
3.995783e+003, -7.007001e-004
3.997712e+003, 6.676837e-004
3.999640e+003, 4.180743e-004
4.001569e+003, 0.000000e+000
##END=



