##NAMES=Malachite
##RRUFFID=R050508
##IDEAL CHEMISTRY=Cu^2+^_2_CO_3_(OH)_2_
##LOCALITY=Kambova, Kantanga, Zaire
##OWNER=RRUFF
##SOURCE=University of Arizona Mineral Museum
##DESCRIPTION=Green short bladed crystals
##STATUS=The identification of this mineral has been confirmed by X-ray diffraction and chemical analysis
##URL=rruff.info/R050508
##MEASURED CHEMISTRY=Cu_2.00_(CO_3_)(OH)_2_
3.991926e+002, 1.318925e-001
4.011211e+002, 1.214979e-001
4.030496e+002, 1.214979e-001
4.049780e+002, 1.171812e-001
4.069065e+002, 1.378580e-001
4.088350e+002, 1.454802e-001
4.107634e+002, 1.430969e-001
4.126919e+002, 1.478935e-001
4.146204e+002, 1.630727e-001
4.165488e+002, 1.808636e-001
4.184773e+002, 1.992283e-001
4.204058e+002, 2.165394e-001
4.223342e+002, 2.353699e-001
4.242627e+002, 2.571773e-001
4.261912e+002, 2.641169e-001
4.281196e+002, 2.585849e-001
4.300481e+002, 2.467977e-001
4.319766e+002, 2.305149e-001
4.339050e+002, 2.076607e-001
4.358335e+002, 1.838931e-001
4.377620e+002, 1.625745e-001
4.396904e+002, 1.503659e-001
4.416189e+002, 1.452701e-001
4.435474e+002, 1.434434e-001
4.454758e+002, 1.438199e-001
4.474043e+002, 1.407889e-001
4.493328e+002, 1.365963e-001
4.512612e+002, 1.375872e-001
4.531897e+002, 1.392441e-001
4.551182e+002, 1.407646e-001
4.570466e+002, 1.419691e-001
4.589751e+002, 1.428817e-001
4.609036e+002, 1.466251e-001
4.628320e+002, 1.520050e-001
4.647605e+002, 1.547650e-001
4.666890e+002, 1.568191e-001
4.686174e+002, 1.622753e-001
4.705459e+002, 1.670967e-001
4.724744e+002, 1.723834e-001
4.744028e+002, 1.784048e-001
4.763313e+002, 1.836976e-001
4.782598e+002, 1.882092e-001
4.801882e+002, 1.944658e-001
4.821167e+002, 2.006574e-001
4.840452e+002, 2.005709e-001
4.859736e+002, 1.936471e-001
4.879021e+002, 1.907565e-001
4.898306e+002, 1.935044e-001
4.917590e+002, 1.993746e-001
4.936875e+002, 2.088391e-001
4.956160e+002, 2.197129e-001
4.975444e+002, 2.314195e-001
4.994729e+002, 2.454452e-001
5.014014e+002, 2.573620e-001
5.033298e+002, 2.632466e-001
5.052583e+002, 2.585872e-001
5.071868e+002, 2.474373e-001
5.091152e+002, 2.338646e-001
5.110437e+002, 2.187592e-001
5.129722e+002, 2.116430e-001
5.149006e+002, 2.140549e-001
5.168291e+002, 2.209878e-001
5.187576e+002, 2.321816e-001
5.206860e+002, 2.467484e-001
5.226145e+002, 2.581456e-001
5.245430e+002, 2.599235e-001
5.264714e+002, 2.477696e-001
5.283999e+002, 2.247579e-001
5.303284e+002, 1.967333e-001
5.322568e+002, 1.703843e-001
5.341853e+002, 1.494882e-001
5.361138e+002, 1.349790e-001
5.380422e+002, 1.239321e-001
5.399707e+002, 1.160084e-001
5.418992e+002, 1.125968e-001
5.438276e+002, 1.099690e-001
5.457561e+002, 1.082528e-001
5.476846e+002, 1.076515e-001
5.496130e+002, 1.081925e-001
5.515415e+002, 1.101520e-001
5.534700e+002, 1.136671e-001
5.553984e+002, 1.178997e-001
5.573269e+002, 1.230652e-001
5.592554e+002, 1.304315e-001
5.611838e+002, 1.409375e-001
5.631123e+002, 1.533979e-001
5.650408e+002, 1.665730e-001
5.669692e+002, 1.811338e-001
5.688977e+002, 1.942640e-001
5.708262e+002, 2.028750e-001
5.727546e+002, 2.031848e-001
5.746831e+002, 1.958852e-001
5.766116e+002, 1.879334e-001
5.785400e+002, 1.837140e-001
5.804685e+002, 1.834155e-001
5.823970e+002, 1.824391e-001
5.843254e+002, 1.768777e-001
5.862539e+002, 1.644154e-001
5.881824e+002, 1.485108e-001
5.901108e+002, 1.316172e-001
5.920393e+002, 1.146358e-001
5.939678e+002, 1.011953e-001
5.958962e+002, 9.187465e-002
5.978247e+002, 8.497436e-002
5.997532e+002, 8.013766e-002
6.016816e+002, 7.675526e-002
6.036101e+002, 7.380762e-002
6.055386e+002, 7.154006e-002
6.074670e+002, 7.022747e-002
6.093955e+002, 6.915580e-002
6.113240e+002, 6.784640e-002
6.132524e+002, 6.686878e-002
6.151809e+002, 6.646350e-002
6.171094e+002, 6.644875e-002
6.190378e+002, 6.649347e-002
6.209663e+002, 6.593192e-002
6.228948e+002, 6.611434e-002
6.248232e+002, 6.640249e-002
6.267517e+002, 6.640647e-002
6.286802e+002, 6.597836e-002
6.306086e+002, 6.607171e-002
6.325371e+002, 6.626832e-002
6.344656e+002, 6.652517e-002
6.363940e+002, 6.653348e-002
6.383225e+002, 6.697338e-002
6.402510e+002, 6.800517e-002
6.421794e+002, 6.872851e-002
6.441079e+002, 6.948055e-002
6.460364e+002, 7.075606e-002
6.479648e+002, 7.147482e-002
6.498933e+002, 7.170730e-002
6.518218e+002, 7.268816e-002
6.537502e+002, 7.374109e-002
6.556787e+002, 7.429380e-002
6.576072e+002, 7.529677e-002
6.595356e+002, 7.701475e-002
6.614641e+002, 7.843326e-002
6.633926e+002, 7.935955e-002
6.653210e+002, 8.070444e-002
6.672495e+002, 8.286872e-002
6.691780e+002, 8.454161e-002
6.711064e+002, 8.562090e-002
6.730349e+002, 8.687370e-002
6.749634e+002, 8.814251e-002
6.768918e+002, 8.978307e-002
6.788203e+002, 9.215219e-002
6.807488e+002, 9.448167e-002
6.826772e+002, 9.628688e-002
6.846057e+002, 9.891248e-002
6.865342e+002, 1.017326e-001
6.884626e+002, 1.045318e-001
6.903911e+002, 1.077476e-001
6.923196e+002, 1.112968e-001
6.942480e+002, 1.155821e-001
6.961765e+002, 1.198654e-001
6.981050e+002, 1.246767e-001
7.000334e+002, 1.302125e-001
7.019619e+002, 1.364627e-001
7.038904e+002, 1.436811e-001
7.058188e+002, 1.517527e-001
7.077473e+002, 1.617556e-001
7.096758e+002, 1.727674e-001
7.116042e+002, 1.798034e-001
7.135327e+002, 1.738375e-001
7.154612e+002, 1.570005e-001
7.173896e+002, 1.434761e-001
7.193181e+002, 1.398309e-001
7.212466e+002, 1.424647e-001
7.231750e+002, 1.468021e-001
7.251035e+002, 1.515435e-001
7.270320e+002, 1.569089e-001
7.289604e+002, 1.619949e-001
7.308889e+002, 1.666495e-001
7.328174e+002, 1.715818e-001
7.347458e+002, 1.760926e-001
7.366743e+002, 1.804399e-001
7.386028e+002, 1.861752e-001
7.405313e+002, 1.943559e-001
7.424597e+002, 2.063071e-001
7.443882e+002, 2.217586e-001
7.463167e+002, 2.382449e-001
7.482451e+002, 2.479144e-001
7.501736e+002, 2.433419e-001
7.521021e+002, 2.239691e-001
7.540305e+002, 1.969132e-001
7.559590e+002, 1.717475e-001
7.578875e+002, 1.542581e-001
7.598159e+002, 1.454833e-001
7.617444e+002, 1.423699e-001
7.636729e+002, 1.419948e-001
7.656013e+002, 1.434653e-001
7.675298e+002, 1.459212e-001
7.694583e+002, 1.485499e-001
7.713867e+002, 1.510997e-001
7.733152e+002, 1.534792e-001
7.752437e+002, 1.543009e-001
7.771721e+002, 1.532590e-001
7.791006e+002, 1.509302e-001
7.810291e+002, 1.472256e-001
7.829575e+002, 1.423092e-001
7.848860e+002, 1.367257e-001
7.868145e+002, 1.315367e-001
7.887429e+002, 1.263840e-001
7.906714e+002, 1.211315e-001
7.925999e+002, 1.171182e-001
7.945283e+002, 1.144625e-001
7.964568e+002, 1.134328e-001
7.983853e+002, 1.138417e-001
8.003137e+002, 1.166213e-001
8.022422e+002, 1.219612e-001
8.041707e+002, 1.278934e-001
8.060991e+002, 1.333795e-001
8.080276e+002, 1.424699e-001
8.099561e+002, 1.613864e-001
8.118845e+002, 1.968804e-001
8.138130e+002, 2.545846e-001
8.157415e+002, 3.243659e-001
8.176699e+002, 3.666748e-001
8.195984e+002, 3.627668e-001
8.215269e+002, 3.237670e-001
8.234553e+002, 2.712875e-001
8.253838e+002, 2.267952e-001
8.273123e+002, 1.988124e-001
8.292407e+002, 1.820486e-001
8.311692e+002, 1.656104e-001
8.330977e+002, 1.496072e-001
8.350261e+002, 1.375012e-001
8.369546e+002, 1.300927e-001
8.388831e+002, 1.272728e-001
8.408115e+002, 1.273483e-001
8.427400e+002, 1.293325e-001
8.446685e+002, 1.321660e-001
8.465969e+002, 1.360290e-001
8.485254e+002, 1.417288e-001
8.504539e+002, 1.487871e-001
8.523823e+002, 1.567232e-001
8.543108e+002, 1.653198e-001
8.562393e+002, 1.745046e-001
8.581677e+002, 1.846842e-001
8.600962e+002, 1.952223e-001
8.620247e+002, 2.051586e-001
8.639531e+002, 2.146998e-001
8.658816e+002, 2.224325e-001
8.678101e+002, 2.276275e-001
8.697385e+002, 2.305439e-001
8.716670e+002, 2.312662e-001
8.735955e+002, 2.305694e-001
8.755239e+002, 2.285445e-001
8.774524e+002, 2.252550e-001
8.793809e+002, 2.208314e-001
8.813093e+002, 2.148090e-001
8.832378e+002, 2.067310e-001
8.851663e+002, 1.970277e-001
8.870947e+002, 1.871203e-001
8.890232e+002, 1.768800e-001
8.909517e+002, 1.654698e-001
8.928801e+002, 1.538790e-001
8.948085e+002, 1.433831e-001
8.967370e+002, 1.336691e-001
8.986655e+002, 1.243917e-001
9.005939e+002, 1.161403e-001
9.025224e+002, 1.087977e-001
9.044509e+002, 1.022804e-001
9.063793e+002, 9.670008e-002
9.083078e+002, 9.193255e-002
9.102363e+002, 8.736420e-002
9.121647e+002, 8.356770e-002
9.140932e+002, 8.027010e-002
9.160217e+002, 7.762472e-002
9.179501e+002, 7.562830e-002
9.198786e+002, 7.359195e-002
9.218071e+002, 7.149295e-002
9.237355e+002, 6.999371e-002
9.256640e+002, 6.867879e-002
9.275925e+002, 6.741969e-002
9.295209e+002, 6.606010e-002
9.314494e+002, 6.478198e-002
9.333779e+002, 6.397414e-002
9.353063e+002, 6.328048e-002
9.372348e+002, 6.235411e-002
9.391633e+002, 6.127249e-002
9.410917e+002, 6.040294e-002
9.430202e+002, 5.962278e-002
9.449487e+002, 5.869033e-002
9.468771e+002, 5.798316e-002
9.488056e+002, 5.712107e-002
9.507341e+002, 5.641653e-002
9.526625e+002, 5.569211e-002
9.545910e+002, 5.539810e-002
9.565195e+002, 5.527920e-002
9.584479e+002, 5.515319e-002
9.603764e+002, 5.480613e-002
9.623049e+002, 5.455589e-002
9.642333e+002, 5.448267e-002
9.661618e+002, 5.456081e-002
9.680903e+002, 5.485985e-002
9.700187e+002, 5.536979e-002
9.719472e+002, 5.564506e-002
9.738757e+002, 5.619515e-002
9.758041e+002, 5.689669e-002
9.777326e+002, 5.749522e-002
9.796611e+002, 5.791474e-002
9.815895e+002, 5.855044e-002
9.835180e+002, 5.942718e-002
9.854465e+002, 6.033799e-002
9.873749e+002, 6.130817e-002
9.893034e+002, 6.197010e-002
9.912319e+002, 6.275902e-002
9.931603e+002, 6.357968e-002
9.950888e+002, 6.447734e-002
9.970173e+002, 6.587736e-002
9.989457e+002, 6.726848e-002
1.000874e+003, 6.872118e-002
1.002803e+003, 7.040948e-002
1.004731e+003, 7.260458e-002
1.006660e+003, 7.517056e-002
1.008588e+003, 7.797664e-002
1.010517e+003, 8.152936e-002
1.012445e+003, 8.545321e-002
1.014373e+003, 8.998553e-002
1.016302e+003, 9.535216e-002
1.018230e+003, 1.012720e-001
1.020159e+003, 1.074905e-001
1.022087e+003, 1.144141e-001
1.024016e+003, 1.226497e-001
1.025944e+003, 1.323928e-001
1.027873e+003, 1.437128e-001
1.029801e+003, 1.566324e-001
1.031730e+003, 1.710635e-001
1.033658e+003, 1.870512e-001
1.035587e+003, 2.042948e-001
1.037515e+003, 2.216711e-001
1.039444e+003, 2.376590e-001
1.041372e+003, 2.509156e-001
1.043301e+003, 2.592221e-001
1.045229e+003, 2.613389e-001
1.047157e+003, 2.559916e-001
1.049086e+003, 2.433638e-001
1.051014e+003, 2.257291e-001
1.052943e+003, 2.055121e-001
1.054871e+003, 1.842298e-001
1.056800e+003, 1.628010e-001
1.058728e+003, 1.419841e-001
1.060657e+003, 1.225701e-001
1.062585e+003, 1.050392e-001
1.064514e+003, 8.976649e-002
1.066442e+003, 7.701150e-002
1.068371e+003, 6.677804e-002
1.070299e+003, 5.861254e-002
1.072228e+003, 5.192905e-002
1.074156e+003, 4.744105e-002
1.076084e+003, 4.409855e-002
1.078013e+003, 4.107150e-002
1.079941e+003, 3.921859e-002
1.081870e+003, 3.846952e-002
1.083798e+003, 3.795795e-002
1.085727e+003, 3.851438e-002
1.087655e+003, 4.094554e-002
1.089584e+003, 4.634849e-002
1.091512e+003, 5.737401e-002
1.093441e+003, 7.435789e-002
1.095369e+003, 8.918855e-002
1.097298e+003, 9.216641e-002
1.099226e+003, 8.453988e-002
1.101155e+003, 7.341617e-002
1.103083e+003, 6.357741e-002
1.105011e+003, 5.618862e-002
1.106940e+003, 5.036059e-002
1.108868e+003, 4.599060e-002
1.110797e+003, 4.309729e-002
1.112725e+003, 4.061830e-002
1.114654e+003, 3.812454e-002
1.116582e+003, 3.617205e-002
1.118511e+003, 3.455643e-002
1.120439e+003, 3.330773e-002
1.122368e+003, 3.209490e-002
1.124296e+003, 3.101349e-002
1.126225e+003, 3.007619e-002
1.128153e+003, 2.910785e-002
1.130082e+003, 2.830558e-002
1.132010e+003, 2.760280e-002
1.133938e+003, 2.696860e-002
1.135867e+003, 2.640972e-002
1.137795e+003, 2.576990e-002
1.139724e+003, 2.531363e-002
1.141652e+003, 2.461230e-002
1.143581e+003, 2.368181e-002
1.145509e+003, 2.315195e-002
1.147438e+003, 2.287699e-002
1.149366e+003, 2.263442e-002
1.151295e+003, 2.219772e-002
1.153223e+003, 2.173950e-002
1.155152e+003, 2.148260e-002
1.157080e+003, 2.130435e-002
1.159009e+003, 2.105418e-002
1.160937e+003, 2.081590e-002
1.162865e+003, 2.077853e-002
1.164794e+003, 2.082139e-002
1.166722e+003, 2.071490e-002
1.168651e+003, 2.066447e-002
1.170579e+003, 2.058424e-002
1.172508e+003, 2.048437e-002
1.174436e+003, 2.045884e-002
1.176365e+003, 2.075559e-002
1.178293e+003, 2.131420e-002
1.180222e+003, 2.183430e-002
1.182150e+003, 2.230674e-002
1.184079e+003, 2.258503e-002
1.186007e+003, 2.294098e-002
1.187936e+003, 2.354974e-002
1.189864e+003, 2.398959e-002
1.191792e+003, 2.424406e-002
1.193721e+003, 2.460361e-002
1.195649e+003, 2.489692e-002
1.197578e+003, 2.483875e-002
1.199506e+003, 2.457892e-002
1.201435e+003, 2.456307e-002
1.203363e+003, 2.464569e-002
1.205292e+003, 2.458408e-002
1.207220e+003, 2.437083e-002
1.209149e+003, 2.436757e-002
1.211077e+003, 2.441436e-002
1.213006e+003, 2.461542e-002
1.214934e+003, 2.492366e-002
1.216863e+003, 2.500346e-002
1.218791e+003, 2.493545e-002
1.220719e+003, 2.478826e-002
1.222648e+003, 2.477079e-002
1.224576e+003, 2.487496e-002
1.226505e+003, 2.498307e-002
1.228433e+003, 2.504211e-002
1.230362e+003, 2.500852e-002
1.232290e+003, 2.514205e-002
1.234219e+003, 2.520676e-002
1.236147e+003, 2.524258e-002
1.238076e+003, 2.568292e-002
1.240004e+003, 2.624922e-002
1.241933e+003, 2.647630e-002
1.243861e+003, 2.702357e-002
1.245790e+003, 2.783597e-002
1.247718e+003, 2.851213e-002
1.249646e+003, 2.920919e-002
1.251575e+003, 2.991461e-002
1.253503e+003, 3.047846e-002
1.255432e+003, 3.101111e-002
1.257360e+003, 3.158411e-002
1.259289e+003, 3.210296e-002
1.261217e+003, 3.247440e-002
1.263146e+003, 3.312986e-002
1.265074e+003, 3.404705e-002
1.267003e+003, 3.497595e-002
1.268931e+003, 3.601795e-002
1.270860e+003, 3.745200e-002
1.272788e+003, 3.895810e-002
1.274717e+003, 4.038798e-002
1.276645e+003, 4.195158e-002
1.278573e+003, 4.334047e-002
1.280502e+003, 4.442101e-002
1.282430e+003, 4.526143e-002
1.284359e+003, 4.621922e-002
1.286287e+003, 4.717883e-002
1.288216e+003, 4.816082e-002
1.290144e+003, 4.948578e-002
1.292073e+003, 5.113282e-002
1.294001e+003, 5.276502e-002
1.295930e+003, 5.461337e-002
1.297858e+003, 5.653449e-002
1.299787e+003, 5.870380e-002
1.301715e+003, 6.139133e-002
1.303644e+003, 6.430886e-002
1.305572e+003, 6.715152e-002
1.307500e+003, 7.001334e-002
1.309429e+003, 7.341304e-002
1.311357e+003, 7.682489e-002
1.313286e+003, 8.032985e-002
1.315214e+003, 8.413785e-002
1.317143e+003, 8.792577e-002
1.319071e+003, 9.179667e-002
1.321000e+003, 9.571399e-002
1.322928e+003, 9.966830e-002
1.324857e+003, 1.039842e-001
1.326785e+003, 1.085032e-001
1.328714e+003, 1.132675e-001
1.330642e+003, 1.183672e-001
1.332571e+003, 1.236830e-001
1.334499e+003, 1.294044e-001
1.336427e+003, 1.355908e-001
1.338356e+003, 1.418286e-001
1.340284e+003, 1.484832e-001
1.342213e+003, 1.557592e-001
1.344141e+003, 1.633777e-001
1.346070e+003, 1.711911e-001
1.347998e+003, 1.797546e-001
1.349927e+003, 1.887041e-001
1.351855e+003, 1.980458e-001
1.353784e+003, 2.080374e-001
1.355712e+003, 2.187259e-001
1.357641e+003, 2.298543e-001
1.359569e+003, 2.416435e-001
1.361498e+003, 2.542048e-001
1.363426e+003, 2.677648e-001
1.365354e+003, 2.817418e-001
1.367283e+003, 2.962300e-001
1.369211e+003, 3.110308e-001
1.371140e+003, 3.257781e-001
1.373068e+003, 3.402407e-001
1.374997e+003, 3.538362e-001
1.376925e+003, 3.654522e-001
1.378854e+003, 3.748831e-001
1.380782e+003, 3.806649e-001
1.382711e+003, 3.821544e-001
1.384639e+003, 3.803205e-001
1.386568e+003, 3.753240e-001
1.388496e+003, 3.669132e-001
1.390424e+003, 3.555779e-001
1.392353e+003, 3.423681e-001
1.394281e+003, 3.280661e-001
1.396210e+003, 3.124956e-001
1.398138e+003, 2.970203e-001
1.400067e+003, 2.818433e-001
1.401995e+003, 2.675706e-001
1.403924e+003, 2.548534e-001
1.405852e+003, 2.445446e-001
1.407781e+003, 2.366322e-001
1.409709e+003, 2.308536e-001
1.411638e+003, 2.267724e-001
1.413566e+003, 2.243165e-001
1.415495e+003, 2.222854e-001
1.417423e+003, 2.200086e-001
1.419351e+003, 2.167805e-001
1.421280e+003, 2.118604e-001
1.423208e+003, 2.049274e-001
1.425137e+003, 1.962451e-001
1.427065e+003, 1.860483e-001
1.428994e+003, 1.743229e-001
1.430922e+003, 1.618495e-001
1.432851e+003, 1.495005e-001
1.434779e+003, 1.376356e-001
1.436708e+003, 1.268958e-001
1.438636e+003, 1.176368e-001
1.440565e+003, 1.105117e-001
1.442493e+003, 1.055304e-001
1.444422e+003, 1.022193e-001
1.446350e+003, 1.003168e-001
1.448278e+003, 9.954106e-002
1.450207e+003, 9.980995e-002
1.452135e+003, 1.007121e-001
1.454064e+003, 1.022373e-001
1.455992e+003, 1.045431e-001
1.457921e+003, 1.074917e-001
1.459849e+003, 1.105957e-001
1.461778e+003, 1.140979e-001
1.463706e+003, 1.186369e-001
1.465635e+003, 1.239848e-001
1.467563e+003, 1.302556e-001
1.469492e+003, 1.375983e-001
1.471420e+003, 1.464317e-001
1.473349e+003, 1.568363e-001
1.475277e+003, 1.681449e-001
1.477205e+003, 1.803705e-001
1.479134e+003, 1.931281e-001
1.481062e+003, 2.052907e-001
1.482991e+003, 2.154199e-001
1.484919e+003, 2.228819e-001
1.486848e+003, 2.271363e-001
1.488776e+003, 2.285222e-001
1.490705e+003, 2.272328e-001
1.492633e+003, 2.237351e-001
1.494562e+003, 2.191095e-001
1.496490e+003, 2.139164e-001
1.498419e+003, 2.078866e-001
1.500347e+003, 2.011902e-001
1.502276e+003, 1.946127e-001
1.504204e+003, 1.886657e-001
1.506132e+003, 1.830007e-001
1.508061e+003, 1.775051e-001
1.509989e+003, 1.723287e-001
1.511918e+003, 1.681148e-001
1.513846e+003, 1.644020e-001
1.515775e+003, 1.608072e-001
1.517703e+003, 1.575147e-001
1.519632e+003, 1.542284e-001
1.521560e+003, 1.504842e-001
1.523489e+003, 1.461284e-001
1.525417e+003, 1.411959e-001
1.527346e+003, 1.355232e-001
1.529274e+003, 1.293658e-001
1.531203e+003, 1.229949e-001
1.533131e+003, 1.162361e-001
1.535059e+003, 1.092539e-001
1.536988e+003, 1.020876e-001
1.538916e+003, 9.517321e-002
1.540845e+003, 8.870923e-002
1.542773e+003, 8.223552e-002
1.544702e+003, 7.624774e-002
1.546630e+003, 7.084104e-002
1.548559e+003, 6.580668e-002
1.550487e+003, 6.115915e-002
1.552416e+003, 5.685695e-002
1.554344e+003, 5.297766e-002
1.556273e+003, 4.946165e-002
1.558201e+003, 4.628368e-002
1.560130e+003, 4.329753e-002
1.562058e+003, 4.013741e-002
1.563986e+003, 3.735832e-002
1.565915e+003, 3.502910e-002
1.567843e+003, 3.304175e-002
1.569772e+003, 3.110912e-002
1.571700e+003, 2.915919e-002
1.573629e+003, 2.762558e-002
1.575557e+003, 2.648187e-002
1.577486e+003, 2.530941e-002
1.579414e+003, 2.421676e-002
1.581343e+003, 2.320213e-002
1.583271e+003, 2.226705e-002
1.585200e+003, 2.129391e-002
1.587128e+003, 2.053894e-002
1.589057e+003, 2.004121e-002
1.590985e+003, 1.951962e-002
1.592913e+003, 1.893548e-002
1.594842e+003, 1.827447e-002
1.596770e+003, 1.739559e-002
1.598699e+003, 1.699275e-002
1.600627e+003, 1.674112e-002
1.602556e+003, 1.628690e-002
1.604484e+003, 1.554820e-002
1.606413e+003, 1.484877e-002
1.608341e+003, 1.442534e-002
1.610270e+003, 1.421257e-002
1.612198e+003, 1.386409e-002
1.614127e+003, 1.346854e-002
1.616055e+003, 1.304323e-002
1.617984e+003, 1.267098e-002
1.619912e+003, 1.243251e-002
1.621840e+003, 1.221670e-002
1.623769e+003, 1.202560e-002
1.625697e+003, 1.172954e-002
1.627626e+003, 1.151503e-002
1.629554e+003, 1.122742e-002
1.631483e+003, 1.080220e-002
1.633411e+003, 1.039493e-002
1.635340e+003, 1.023109e-002
1.637268e+003, 1.020164e-002
1.639197e+003, 1.020354e-002
1.641125e+003, 9.845712e-003
1.643054e+003, 9.499354e-003
1.644982e+003, 9.490582e-003
1.646911e+003, 9.307236e-003
1.648839e+003, 8.998990e-003
1.650767e+003, 8.975311e-003
1.652696e+003, 8.940912e-003
1.654624e+003, 8.675277e-003
1.656553e+003, 8.378794e-003
1.658481e+003, 8.090110e-003
1.660410e+003, 7.976633e-003
1.662338e+003, 7.985003e-003
1.664267e+003, 8.082042e-003
1.666195e+003, 8.062498e-003
1.668124e+003, 7.865886e-003
1.670052e+003, 7.517158e-003
1.671981e+003, 7.206473e-003
1.673909e+003, 7.184374e-003
1.675838e+003, 7.390519e-003
1.677766e+003, 7.146613e-003
1.679694e+003, 6.821080e-003
1.681623e+003, 6.693499e-003
1.683551e+003, 6.818825e-003
1.685480e+003, 6.799809e-003
1.687408e+003, 6.655747e-003
1.689337e+003, 6.435154e-003
1.691265e+003, 6.293500e-003
1.693194e+003, 6.338012e-003
1.695122e+003, 6.483280e-003
1.697051e+003, 6.248186e-003
1.698979e+003, 5.913249e-003
1.700908e+003, 5.666311e-003
1.702836e+003, 5.443234e-003
1.704765e+003, 5.554473e-003
1.706693e+003, 5.554976e-003
1.708621e+003, 5.159477e-003
1.710550e+003, 5.000976e-003
1.712478e+003, 4.952512e-003
1.714407e+003, 4.825043e-003
1.716335e+003, 5.116360e-003
1.718264e+003, 5.152168e-003
1.720192e+003, 5.067581e-003
1.722121e+003, 4.923959e-003
1.724049e+003, 4.783466e-003
1.725978e+003, 5.004931e-003
1.727906e+003, 4.959684e-003
1.729835e+003, 4.681703e-003
1.731763e+003, 4.454209e-003
1.733692e+003, 4.113294e-003
1.735620e+003, 3.491848e-003
1.737548e+003, 3.060115e-003
1.739477e+003, 2.623776e-003
1.741405e+003, 2.273635e-003
1.743334e+003, 2.133564e-003
1.745262e+003, 2.278265e-003
1.747191e+003, 2.514985e-003
1.749119e+003, 2.489257e-003
1.751048e+003, 2.486192e-003
1.752976e+003, 3.091482e-003
1.754905e+003, 3.541553e-003
1.756833e+003, 3.837859e-003
1.758762e+003, 4.210508e-003
1.760690e+003, 4.544168e-003
1.762619e+003, 4.683009e-003
1.764547e+003, 4.755025e-003
1.766475e+003, 4.838412e-003
1.768404e+003, 4.921278e-003
1.770332e+003, 4.880664e-003
1.772261e+003, 4.840054e-003
1.774189e+003, 4.690712e-003
1.776118e+003, 4.938001e-003
1.778046e+003, 5.223323e-003
1.779975e+003, 5.126552e-003
1.781903e+003, 5.107408e-003
1.783832e+003, 5.287782e-003
1.785760e+003, 5.465614e-003
1.787689e+003, 5.652246e-003
1.789617e+003, 5.857764e-003
1.791546e+003, 6.031059e-003
1.793474e+003, 6.074066e-003
1.795402e+003, 6.158647e-003
1.797331e+003, 6.273364e-003
1.799259e+003, 6.325908e-003
1.801188e+003, 6.354689e-003
1.803116e+003, 6.394398e-003
1.805045e+003, 6.493739e-003
1.806973e+003, 6.496868e-003
1.808902e+003, 5.940255e-003
1.810830e+003, 5.681854e-003
1.812759e+003, 5.449944e-003
1.814687e+003, 5.099026e-003
1.816616e+003, 5.085114e-003
1.818544e+003, 5.362180e-003
1.820473e+003, 5.356444e-003
1.822401e+003, 5.092824e-003
1.824329e+003, 4.717575e-003
1.826258e+003, 4.811876e-003
1.828186e+003, 5.047334e-003
1.830115e+003, 5.079884e-003
1.832043e+003, 5.091316e-003
1.833972e+003, 4.805980e-003
1.835900e+003, 4.298275e-003
1.837829e+003, 4.709670e-003
1.839757e+003, 4.943061e-003
1.841686e+003, 4.908443e-003
1.843614e+003, 5.198407e-003
1.845543e+003, 4.999267e-003
1.847471e+003, 4.795862e-003
1.849400e+003, 5.147373e-003
1.851328e+003, 5.241902e-003
1.853256e+003, 4.542393e-003
1.855185e+003, 4.397338e-003
1.857113e+003, 4.129785e-003
1.859042e+003, 3.771777e-003
1.860970e+003, 3.866575e-003
1.862899e+003, 4.441355e-003
1.864827e+003, 4.450393e-003
1.866756e+003, 4.256213e-003
1.868684e+003, 4.222520e-003
1.870613e+003, 4.134468e-003
1.872541e+003, 4.318554e-003
1.874470e+003, 4.682272e-003
1.876398e+003, 4.677549e-003
1.878327e+003, 4.265180e-003
1.880255e+003, 4.421739e-003
1.882183e+003, 4.369993e-003
1.884112e+003, 3.956110e-003
1.886040e+003, 3.451935e-003
1.887969e+003, 3.472743e-003
1.889897e+003, 3.676765e-003
1.891826e+003, 4.160560e-003
1.893754e+003, 3.904787e-003
1.895683e+003, 3.435036e-003
1.897611e+003, 3.595940e-003
1.899540e+003, 3.838059e-003
1.901468e+003, 3.513059e-003
1.903397e+003, 3.539081e-003
1.905325e+003, 4.213118e-003
1.907254e+003, 4.469810e-003
1.909182e+003, 4.503388e-003
1.911110e+003, 3.911574e-003
1.913039e+003, 3.613781e-003
1.914967e+003, 3.557053e-003
1.916896e+003, 3.560661e-003
1.918824e+003, 3.890077e-003
1.920753e+003, 3.505643e-003
1.922681e+003, 3.434068e-003
1.924610e+003, 3.385912e-003
1.926538e+003, 3.593234e-003
1.928467e+003, 3.214170e-003
1.930395e+003, 2.593542e-003
1.932324e+003, 2.677282e-003
1.934252e+003, 2.946410e-003
1.936181e+003, 3.170878e-003
1.938109e+003, 3.145946e-003
1.940037e+003, 3.396965e-003
1.941966e+003, 3.196078e-003
1.943894e+003, 2.646678e-003
1.945823e+003, 2.869090e-003
1.947751e+003, 2.710955e-003
1.949680e+003, 2.602576e-003
1.951608e+003, 2.438141e-003
1.953537e+003, 2.273568e-003
1.955465e+003, 2.071203e-003
1.957394e+003, 1.488776e-003
1.959322e+003, 2.105262e-003
1.961251e+003, 2.155408e-003
1.963179e+003, 1.085103e-003
1.965108e+003, 3.660202e-004
1.967036e+003, 2.336013e-005
1.968964e+003, 1.107149e-004
1.970893e+003, 1.392468e-003
1.972821e+003, 1.806609e-003
1.974750e+003, 2.248621e-003
1.976678e+003, 3.107867e-003
1.978607e+003, 4.342683e-003
1.980535e+003, 2.542546e-003
1.982464e+003, 1.208754e-003
1.984392e+003, 1.542940e-003
1.986321e+003, 1.889032e-003
1.988249e+003, 2.373404e-003
1.990178e+003, 2.159337e-003
1.992106e+003, 2.002559e-003
1.994035e+003, 2.629843e-003
1.995963e+003, 2.902778e-003
1.997891e+003, 1.554346e-003
1.999820e+003, 5.818920e-004
2.001748e+003, 1.435018e-003
2.003677e+003, 2.432976e-003
2.005605e+003, 1.040694e-003
2.007534e+003, 4.511222e-004
2.009462e+003, 1.419128e-003
2.011391e+003, 1.684617e-003
2.013319e+003, 1.252216e-003
2.015248e+003, 5.331888e-004
2.017176e+003, -1.809073e-004
2.019105e+003, 9.252009e-005
2.021033e+003, 1.065372e-003
2.022962e+003, 8.972683e-004
2.024890e+003, 3.978238e-004
2.026818e+003, 9.573691e-004
2.028747e+003, 1.993272e-003
2.030675e+003, 2.216549e-003
2.032604e+003, 2.052526e-003
2.034532e+003, 2.999222e-003
2.036461e+003, 3.108635e-003
2.038389e+003, 1.947140e-003
2.040318e+003, 1.965446e-003
2.042246e+003, 1.673241e-003
2.044175e+003, 1.660835e-003
2.046103e+003, 2.550912e-003
2.048032e+003, 3.208929e-003
2.049960e+003, 3.079569e-003
2.051889e+003, 2.509586e-003
2.053817e+003, 2.232568e-003
2.055746e+003, 2.131433e-003
2.057674e+003, 2.026493e-003
2.059603e+003, 2.412051e-003
2.061531e+003, 2.715790e-003
2.063459e+003, 1.915689e-003
2.065388e+003, 1.725998e-003
2.067316e+003, 2.624243e-003
2.069245e+003, 2.620076e-003
2.071173e+003, 2.295519e-003
2.073102e+003, 2.063912e-003
2.075030e+003, 2.321368e-003
2.076959e+003, 2.857716e-003
2.078887e+003, 2.775576e-003
2.080816e+003, 2.632010e-003
2.082744e+003, 2.665580e-003
2.084673e+003, 2.391061e-003
2.086601e+003, 2.267273e-003
2.088530e+003, 2.507953e-003
2.090458e+003, 2.895940e-003
2.092386e+003, 2.861718e-003
2.094315e+003, 2.170226e-003
2.096243e+003, 1.985450e-003
2.098172e+003, 2.502587e-003
2.100100e+003, 2.608709e-003
2.102029e+003, 1.713523e-003
2.103957e+003, 2.334459e-003
2.105886e+003, 3.373089e-003
2.107814e+003, 3.331183e-003
2.109743e+003, 3.745507e-003
2.111671e+003, 4.072922e-003
2.113600e+003, 3.534404e-003
2.115528e+003, 3.341901e-003
2.117457e+003, 3.061883e-003
2.119385e+003, 3.506512e-003
2.121313e+003, 3.344439e-003
2.123242e+003, 2.595209e-003
2.125170e+003, 2.574077e-003
2.127099e+003, 3.140440e-003
2.129027e+003, 3.174983e-003
2.130956e+003, 2.154742e-003
2.132884e+003, 1.428535e-003
2.134813e+003, 1.339818e-003
2.136741e+003, 1.222842e-003
2.138670e+003, 2.162467e-003
2.140598e+003, 2.617709e-003
2.142527e+003, 2.214484e-003
2.144455e+003, 2.366174e-003
2.146384e+003, 2.619009e-003
2.148312e+003, 2.768707e-003
2.150240e+003, 3.333487e-003
2.152169e+003, 2.879329e-003
2.154097e+003, 1.575927e-003
2.156026e+003, 1.354875e-003
2.157954e+003, 2.252851e-003
2.159883e+003, 3.897265e-003
2.161811e+003, 5.262829e-003
2.163740e+003, 4.549157e-003
2.165668e+003, 4.149856e-003
2.167597e+003, 4.597208e-003
2.169525e+003, 3.131529e-003
2.171454e+003, 1.463143e-003
2.173382e+003, 1.559700e-003
2.175311e+003, 3.692872e-003
2.177239e+003, 4.840724e-003
2.179167e+003, 3.977444e-003
2.181096e+003, 3.315825e-003
2.183024e+003, 3.994799e-003
2.184953e+003, 4.406577e-003
2.186881e+003, 4.250692e-003
2.188810e+003, 3.257266e-003
2.190738e+003, 1.898749e-003
2.192667e+003, 1.608817e-003
2.194595e+003, 1.606689e-003
2.196524e+003, 2.723158e-003
2.198452e+003, 3.388483e-003
2.200381e+003, 3.282271e-003
2.202309e+003, 3.073195e-003
2.204238e+003, 3.014703e-003
2.206166e+003, 3.459250e-003
2.208094e+003, 3.112973e-003
2.210023e+003, 2.649244e-003
2.211951e+003, 4.153201e-003
2.213880e+003, 4.568343e-003
2.215808e+003, 4.007573e-003
2.217737e+003, 4.332609e-003
2.219665e+003, 5.175203e-003
2.221594e+003, 4.889979e-003
2.223522e+003, 3.836856e-003
2.225451e+003, 3.713758e-003
2.227379e+003, 5.013881e-003
2.229308e+003, 5.530478e-003
2.231236e+003, 5.012573e-003
2.233165e+003, 4.745210e-003
2.235093e+003, 4.658358e-003
2.237021e+003, 4.843505e-003
2.238950e+003, 5.157935e-003
2.240878e+003, 4.708397e-003
2.242807e+003, 3.653909e-003
2.244735e+003, 3.960992e-003
2.246664e+003, 4.528130e-003
2.248592e+003, 4.776231e-003
2.250521e+003, 4.544570e-003
2.252449e+003, 4.651828e-003
2.254378e+003, 5.088500e-003
2.256306e+003, 5.469875e-003
2.258235e+003, 5.478767e-003
2.260163e+003, 5.615524e-003
2.262092e+003, 5.702970e-003
2.264020e+003, 5.096948e-003
2.265948e+003, 5.241097e-003
2.267877e+003, 5.672253e-003
2.269805e+003, 5.662853e-003
2.271734e+003, 5.772301e-003
2.273662e+003, 5.700889e-003
2.275591e+003, 5.331252e-003
2.277519e+003, 5.205248e-003
2.279448e+003, 5.555412e-003
2.281376e+003, 5.873079e-003
2.283305e+003, 6.174409e-003
2.285233e+003, 6.348435e-003
2.287162e+003, 6.230270e-003
2.289090e+003, 5.897698e-003
2.291019e+003, 5.963366e-003
2.292947e+003, 6.234673e-003
2.294875e+003, 6.000251e-003
2.296804e+003, 6.049269e-003
2.298732e+003, 5.644693e-003
2.300661e+003, 5.870090e-003
2.302589e+003, 6.192659e-003
2.304518e+003, 6.063582e-003
2.306446e+003, 6.003006e-003
2.308375e+003, 6.252824e-003
2.310303e+003, 6.395037e-003
2.312232e+003, 6.307922e-003
2.314160e+003, 6.123966e-003
2.316089e+003, 6.422443e-003
2.318017e+003, 6.641112e-003
2.319946e+003, 6.661366e-003
2.321874e+003, 6.814483e-003
2.323802e+003, 6.685659e-003
2.325731e+003, 6.112305e-003
2.327659e+003, 6.152833e-003
2.329588e+003, 6.421871e-003
2.331516e+003, 6.669441e-003
2.333445e+003, 6.804823e-003
2.335373e+003, 7.105588e-003
2.337302e+003, 7.274900e-003
2.339230e+003, 7.088041e-003
2.341159e+003, 6.750740e-003
2.343087e+003, 6.732466e-003
2.345016e+003, 6.627721e-003
2.346944e+003, 6.323589e-003
2.348873e+003, 6.094899e-003
2.350801e+003, 6.022828e-003
2.352729e+003, 6.484390e-003
2.354658e+003, 6.959944e-003
2.356586e+003, 7.200847e-003
2.358515e+003, 7.334542e-003
2.360443e+003, 7.283121e-003
2.362372e+003, 7.160289e-003
2.364300e+003, 6.761812e-003
2.366229e+003, 6.638420e-003
2.368157e+003, 6.978025e-003
2.370086e+003, 7.080497e-003
2.372014e+003, 6.635930e-003
2.373942e+003, 6.372340e-003
2.375871e+003, 6.615576e-003
2.377799e+003, 6.556672e-003
2.379728e+003, 6.352402e-003
2.381656e+003, 6.255010e-003
2.383585e+003, 6.179685e-003
2.385513e+003, 6.393121e-003
2.387442e+003, 6.742865e-003
2.389370e+003, 6.979338e-003
2.391299e+003, 6.584828e-003
2.393227e+003, 6.529359e-003
2.395156e+003, 6.579916e-003
2.397084e+003, 6.339693e-003
2.399012e+003, 6.581363e-003
2.400941e+003, 6.889379e-003
2.402869e+003, 7.235952e-003
2.404798e+003, 7.435918e-003
2.406726e+003, 7.141830e-003
2.408655e+003, 7.207855e-003
2.410583e+003, 7.097505e-003
2.412512e+003, 7.005770e-003
2.414440e+003, 6.847301e-003
2.416369e+003, 6.841007e-003
2.418297e+003, 6.750773e-003
2.420226e+003, 7.246227e-003
2.422154e+003, 7.699177e-003
2.424083e+003, 7.366691e-003
2.426011e+003, 6.649354e-003
2.427939e+003, 6.374123e-003
2.429868e+003, 6.338752e-003
2.431796e+003, 6.247043e-003
2.433725e+003, 6.302745e-003
2.435653e+003, 6.940618e-003
2.437582e+003, 7.137957e-003
2.439510e+003, 6.868575e-003
2.441439e+003, 6.902912e-003
2.443367e+003, 7.173460e-003
2.445296e+003, 6.812127e-003
2.447224e+003, 6.761778e-003
2.449153e+003, 7.104409e-003
2.451081e+003, 7.260008e-003
2.453010e+003, 7.091544e-003
2.454938e+003, 7.031160e-003
2.456866e+003, 7.065106e-003
2.458795e+003, 6.716415e-003
2.460723e+003, 6.478067e-003
2.462652e+003, 6.484760e-003
2.464580e+003, 6.621699e-003
2.466509e+003, 6.917859e-003
2.468437e+003, 6.783451e-003
2.470366e+003, 6.705041e-003
2.472294e+003, 6.797183e-003
2.474223e+003, 7.070023e-003
2.476151e+003, 6.837068e-003
2.478080e+003, 6.776250e-003
2.480008e+003, 6.926175e-003
2.481937e+003, 6.999777e-003
2.483865e+003, 6.965095e-003
2.485793e+003, 6.654603e-003
2.487722e+003, 6.387707e-003
2.489650e+003, 6.548531e-003
2.491579e+003, 6.648615e-003
2.493507e+003, 6.639362e-003
2.495436e+003, 6.452608e-003
2.497364e+003, 6.396517e-003
2.499293e+003, 6.577225e-003
2.501221e+003, 6.890086e-003
2.503150e+003, 6.861035e-003
2.505078e+003, 7.015872e-003
2.507007e+003, 7.285918e-003
2.508935e+003, 7.246227e-003
2.510864e+003, 7.383441e-003
2.512792e+003, 7.677053e-003
2.514720e+003, 7.798108e-003
2.516649e+003, 7.287940e-003
2.518577e+003, 6.649960e-003
2.520506e+003, 6.768441e-003
2.522434e+003, 6.910285e-003
2.524363e+003, 6.925602e-003
2.526291e+003, 6.866185e-003
2.528220e+003, 6.961594e-003
2.530148e+003, 7.394529e-003
2.532077e+003, 7.313144e-003
2.534005e+003, 7.230157e-003
2.535934e+003, 7.348392e-003
2.537862e+003, 7.488267e-003
2.539791e+003, 7.806845e-003
2.541719e+003, 7.383408e-003
2.543647e+003, 7.218332e-003
2.545576e+003, 7.486851e-003
2.547504e+003, 7.413909e-003
2.549433e+003, 7.094238e-003
2.551361e+003, 7.225137e-003
2.553290e+003, 6.811286e-003
2.555218e+003, 6.662813e-003
2.557147e+003, 7.247171e-003
2.559075e+003, 7.511730e-003
2.561004e+003, 7.126471e-003
2.562932e+003, 7.168475e-003
2.564861e+003, 7.187237e-003
2.566789e+003, 7.013953e-003
2.568718e+003, 6.798361e-003
2.570646e+003, 6.629639e-003
2.572574e+003, 6.649758e-003
2.574503e+003, 7.220724e-003
2.576431e+003, 7.135936e-003
2.578360e+003, 6.558757e-003
2.580288e+003, 7.030891e-003
2.582217e+003, 6.956476e-003
2.584145e+003, 6.492360e-003
2.586074e+003, 6.533765e-003
2.588002e+003, 6.327321e-003
2.589931e+003, 6.371567e-003
2.591859e+003, 6.544764e-003
2.593788e+003, 6.367768e-003
2.595716e+003, 6.679636e-003
2.597645e+003, 6.827341e-003
2.599573e+003, 6.999170e-003
2.601501e+003, 7.331678e-003
2.603430e+003, 7.043755e-003
2.605358e+003, 6.701306e-003
2.607287e+003, 6.583516e-003
2.609215e+003, 6.481397e-003
2.611144e+003, 6.436231e-003
2.613072e+003, 6.511700e-003
2.615001e+003, 6.744480e-003
2.616929e+003, 7.006612e-003
2.618858e+003, 6.782475e-003
2.620786e+003, 6.543654e-003
2.622715e+003, 6.514929e-003
2.624643e+003, 6.211111e-003
2.626572e+003, 6.336499e-003
2.628500e+003, 6.577124e-003
2.630428e+003, 6.524145e-003
2.632357e+003, 6.609083e-003
2.634285e+003, 6.656521e-003
2.636214e+003, 6.458023e-003
2.638142e+003, 6.324194e-003
2.640071e+003, 6.589605e-003
2.641999e+003, 6.571843e-003
2.643928e+003, 6.611606e-003
2.645856e+003, 6.706421e-003
2.647785e+003, 6.450052e-003
2.649713e+003, 6.253026e-003
2.651642e+003, 6.372340e-003
2.653570e+003, 6.677180e-003
2.655499e+003, 6.612817e-003
2.657427e+003, 6.688015e-003
2.659355e+003, 6.869012e-003
2.661284e+003, 6.822763e-003
2.663212e+003, 6.352840e-003
2.665141e+003, 6.235749e-003
2.667069e+003, 6.433608e-003
2.668998e+003, 6.525524e-003
2.670926e+003, 6.560036e-003
2.672855e+003, 6.813776e-003
2.674783e+003, 6.579109e-003
2.676712e+003, 6.266573e-003
2.678640e+003, 6.467271e-003
2.680569e+003, 6.605248e-003
2.682497e+003, 6.391305e-003
2.684426e+003, 6.180694e-003
2.686354e+003, 6.210741e-003
2.688282e+003, 6.374190e-003
2.690211e+003, 6.478269e-003
2.692139e+003, 6.596366e-003
2.694068e+003, 6.525423e-003
2.695996e+003, 6.519402e-003
2.697925e+003, 6.376342e-003
2.699853e+003, 6.257497e-003
2.701782e+003, 6.281095e-003
2.703710e+003, 6.273464e-003
2.705639e+003, 6.009960e-003
2.707567e+003, 6.049807e-003
2.709496e+003, 6.282272e-003
2.711424e+003, 6.244892e-003
2.713353e+003, 6.363262e-003
2.715281e+003, 6.662880e-003
2.717209e+003, 6.779009e-003
2.719138e+003, 6.835587e-003
2.721066e+003, 6.697234e-003
2.722995e+003, 6.616350e-003
2.724923e+003, 6.745961e-003
2.726852e+003, 6.572919e-003
2.728780e+003, 6.114355e-003
2.730709e+003, 5.955371e-003
2.732637e+003, 6.087136e-003
2.734566e+003, 6.268859e-003
2.736494e+003, 6.576048e-003
2.738423e+003, 6.494412e-003
2.740351e+003, 6.400316e-003
2.742280e+003, 6.363094e-003
2.744208e+003, 6.362624e-003
2.746136e+003, 6.555831e-003
2.748065e+003, 6.352907e-003
2.749993e+003, 6.316024e-003
2.751922e+003, 6.526870e-003
2.753850e+003, 6.328262e-003
2.755779e+003, 5.939281e-003
2.757707e+003, 6.148195e-003
2.759636e+003, 6.533395e-003
2.761564e+003, 6.402166e-003
2.763493e+003, 6.244858e-003
2.765421e+003, 6.457787e-003
2.767350e+003, 6.676474e-003
2.769278e+003, 6.653931e-003
2.771207e+003, 6.317235e-003
2.773135e+003, 6.364406e-003
2.775063e+003, 6.783351e-003
2.776992e+003, 6.909106e-003
2.778920e+003, 6.860429e-003
2.780849e+003, 6.760970e-003
2.782777e+003, 6.734014e-003
2.784706e+003, 6.625938e-003
2.786634e+003, 6.739331e-003
2.788563e+003, 7.174538e-003
2.790491e+003, 7.520125e-003
2.792420e+003, 7.581014e-003
2.794348e+003, 7.391192e-003
2.796277e+003, 7.369927e-003
2.798205e+003, 7.454188e-003
2.800134e+003, 7.418796e-003
2.802062e+003, 7.536611e-003
2.803990e+003, 7.519484e-003
2.805919e+003, 7.815751e-003
2.807847e+003, 7.903473e-003
2.809776e+003, 7.657256e-003
2.811704e+003, 7.703291e-003
2.813633e+003, 7.697524e-003
2.815561e+003, 7.668116e-003
2.817490e+003, 7.622354e-003
2.819418e+003, 7.669633e-003
2.821347e+003, 7.856945e-003
2.823275e+003, 7.847195e-003
2.825204e+003, 7.784615e-003
2.827132e+003, 7.915857e-003
2.829061e+003, 7.992596e-003
2.830989e+003, 7.839873e-003
2.832917e+003, 7.890347e-003
2.834846e+003, 8.166340e-003
2.836774e+003, 8.065299e-003
2.838703e+003, 8.426021e-003
2.840631e+003, 8.592266e-003
2.842560e+003, 7.963033e-003
2.844488e+003, 7.099694e-003
2.846417e+003, 6.924088e-003
2.848345e+003, 6.780288e-003
2.850274e+003, 6.504301e-003
2.852202e+003, 6.143154e-003
2.854131e+003, 5.914928e-003
2.856059e+003, 6.255043e-003
2.857988e+003, 7.173089e-003
2.859916e+003, 7.877425e-003
2.861844e+003, 7.970120e-003
2.863773e+003, 8.154557e-003
2.865701e+003, 8.772538e-003
2.867630e+003, 8.881386e-003
2.869558e+003, 8.411022e-003
2.871487e+003, 8.223099e-003
2.873415e+003, 8.966720e-003
2.875344e+003, 9.194118e-003
2.877272e+003, 8.850038e-003
2.879201e+003, 8.850917e-003
2.881129e+003, 8.847198e-003
2.883058e+003, 8.960361e-003
2.884986e+003, 9.296980e-003
2.886915e+003, 9.530207e-003
2.888843e+003, 9.484520e-003
2.890771e+003, 9.282119e-003
2.892700e+003, 9.241298e-003
2.894628e+003, 9.309471e-003
2.896557e+003, 9.329951e-003
2.898485e+003, 9.411512e-003
2.900414e+003, 9.274875e-003
2.902342e+003, 8.995472e-003
2.904271e+003, 9.518082e-003
2.906199e+003, 9.090199e-003
2.908128e+003, 8.249911e-003
2.910056e+003, 8.496026e-003
2.911985e+003, 8.724700e-003
2.913913e+003, 8.202198e-003
2.915842e+003, 7.759248e-003
2.917770e+003, 7.457525e-003
2.919698e+003, 7.589309e-003
2.921627e+003, 7.517192e-003
2.923555e+003, 7.303507e-003
2.925484e+003, 7.542275e-003
2.927412e+003, 7.710172e-003
2.929341e+003, 7.421358e-003
2.931269e+003, 7.383306e-003
2.933198e+003, 7.954495e-003
2.935126e+003, 8.588346e-003
2.937055e+003, 8.764728e-003
2.938983e+003, 8.699142e-003
2.940912e+003, 8.571482e-003
2.942840e+003, 8.521165e-003
2.944769e+003, 9.144033e-003
2.946697e+003, 9.570920e-003
2.948625e+003, 9.278937e-003
2.950554e+003, 8.981434e-003
2.952482e+003, 9.082417e-003
2.954411e+003, 8.853453e-003
2.956339e+003, 8.993983e-003
2.958268e+003, 9.358491e-003
2.960196e+003, 9.620106e-003
2.962125e+003, 1.000938e-002
2.964053e+003, 9.796332e-003
2.965982e+003, 9.407856e-003
2.967910e+003, 9.493088e-003
2.969839e+003, 9.715003e-003
2.971767e+003, 9.495358e-003
2.973696e+003, 9.105425e-003
2.975624e+003, 9.262385e-003
2.977552e+003, 9.071015e-003
2.979481e+003, 9.376604e-003
2.981409e+003, 1.012556e-002
2.983338e+003, 1.020717e-002
2.985266e+003, 1.010762e-002
2.987195e+003, 1.039514e-002
2.989123e+003, 1.036365e-002
2.991052e+003, 1.021440e-002
2.992980e+003, 1.017305e-002
2.994909e+003, 1.045226e-002
2.996837e+003, 1.085336e-002
2.998766e+003, 1.076167e-002
3.000694e+003, 1.050175e-002
3.002623e+003, 1.034437e-002
3.004551e+003, 1.060645e-002
3.006479e+003, 1.091798e-002
3.008408e+003, 1.089732e-002
3.010336e+003, 1.117632e-002
3.012265e+003, 1.168679e-002
3.014193e+003, 1.166357e-002
3.016122e+003, 1.141420e-002
3.018050e+003, 1.164826e-002
3.019979e+003, 1.180808e-002
3.021907e+003, 1.165330e-002
3.023836e+003, 1.117832e-002
3.025764e+003, 1.124459e-002
3.027693e+003, 1.175228e-002
3.029621e+003, 1.199852e-002
3.031550e+003, 1.250535e-002
3.033478e+003, 1.282357e-002
3.035406e+003, 1.241301e-002
3.037335e+003, 1.255337e-002
3.039263e+003, 1.301018e-002
3.041192e+003, 1.263110e-002
3.043120e+003, 1.239112e-002
3.045049e+003, 1.301046e-002
3.046977e+003, 1.346792e-002
3.048906e+003, 1.319466e-002
3.050834e+003, 1.340330e-002
3.052763e+003, 1.404755e-002
3.054691e+003, 1.394606e-002
3.056620e+003, 1.371906e-002
3.058548e+003, 1.398421e-002
3.060477e+003, 1.422096e-002
3.062405e+003, 1.441270e-002
3.064333e+003, 1.464002e-002
3.066262e+003, 1.440187e-002
3.068190e+003, 1.467751e-002
3.070119e+003, 1.483554e-002
3.072047e+003, 1.478572e-002
3.073976e+003, 1.481246e-002
3.075904e+003, 1.463214e-002
3.077833e+003, 1.455966e-002
3.079761e+003, 1.478713e-002
3.081690e+003, 1.532843e-002
3.083618e+003, 1.613745e-002
3.085547e+003, 1.640160e-002
3.087475e+003, 1.617329e-002
3.089404e+003, 1.603025e-002
3.091332e+003, 1.577141e-002
3.093260e+003, 1.630028e-002
3.095189e+003, 1.715086e-002
3.097117e+003, 1.749572e-002
3.099046e+003, 1.736089e-002
3.100974e+003, 1.709437e-002
3.102903e+003, 1.694468e-002
3.104831e+003, 1.723997e-002
3.106760e+003, 1.756102e-002
3.108688e+003, 1.813993e-002
3.110617e+003, 1.863832e-002
3.112545e+003, 1.839268e-002
3.114474e+003, 1.856877e-002
3.116402e+003, 1.885464e-002
3.118331e+003, 1.811661e-002
3.120259e+003, 1.765684e-002
3.122188e+003, 1.803765e-002
3.124116e+003, 1.842082e-002
3.126044e+003, 1.863994e-002
3.127973e+003, 1.887603e-002
3.129901e+003, 1.922662e-002
3.131830e+003, 1.935274e-002
3.133758e+003, 1.918766e-002
3.135687e+003, 1.883772e-002
3.137615e+003, 1.933515e-002
3.139544e+003, 1.964292e-002
3.141472e+003, 1.984150e-002
3.143401e+003, 2.046207e-002
3.145329e+003, 2.080700e-002
3.147258e+003, 2.086526e-002
3.149186e+003, 2.090462e-002
3.151115e+003, 2.113213e-002
3.153043e+003, 2.128915e-002
3.154971e+003, 2.148236e-002
3.156900e+003, 2.173616e-002
3.158828e+003, 2.158974e-002
3.160757e+003, 2.139140e-002
3.162685e+003, 2.201534e-002
3.164614e+003, 2.229048e-002
3.166542e+003, 2.230304e-002
3.168471e+003, 2.209925e-002
3.170399e+003, 2.270630e-002
3.172328e+003, 2.332658e-002
3.174256e+003, 2.301822e-002
3.176185e+003, 2.316236e-002
3.178113e+003, 2.376131e-002
3.180042e+003, 2.404979e-002
3.181970e+003, 2.471555e-002
3.183898e+003, 2.464320e-002
3.185827e+003, 2.434823e-002
3.187755e+003, 2.445657e-002
3.189684e+003, 2.482015e-002
3.191612e+003, 2.534910e-002
3.193541e+003, 2.510824e-002
3.195469e+003, 2.502628e-002
3.197398e+003, 2.574181e-002
3.199326e+003, 2.670411e-002
3.201255e+003, 2.685248e-002
3.203183e+003, 2.683041e-002
3.205112e+003, 2.727159e-002
3.207040e+003, 2.738049e-002
3.208969e+003, 2.723113e-002
3.210897e+003, 2.745972e-002
3.212825e+003, 2.764839e-002
3.214754e+003, 2.745418e-002
3.216682e+003, 2.773050e-002
3.218611e+003, 2.833801e-002
3.220539e+003, 2.825424e-002
3.222468e+003, 2.843606e-002
3.224396e+003, 2.903997e-002
3.226325e+003, 2.883218e-002
3.228253e+003, 2.871740e-002
3.230182e+003, 2.965539e-002
3.232110e+003, 3.069024e-002
3.234039e+003, 3.066616e-002
3.235967e+003, 3.083268e-002
3.237896e+003, 3.160567e-002
3.239824e+003, 3.243387e-002
3.241752e+003, 3.243987e-002
3.243681e+003, 3.210984e-002
3.245609e+003, 3.193745e-002
3.247538e+003, 3.244291e-002
3.249466e+003, 3.299474e-002
3.251395e+003, 3.346306e-002
3.253323e+003, 3.430249e-002
3.255252e+003, 3.486603e-002
3.257180e+003, 3.497372e-002
3.259109e+003, 3.534432e-002
3.261037e+003, 3.652526e-002
3.262966e+003, 3.734301e-002
3.264894e+003, 3.799042e-002
3.266823e+003, 3.776110e-002
3.268751e+003, 3.765073e-002
3.270679e+003, 3.810869e-002
3.272608e+003, 3.886084e-002
3.274536e+003, 3.995581e-002
3.276465e+003, 4.102197e-002
3.278393e+003, 4.233742e-002
3.280322e+003, 4.320046e-002
3.282250e+003, 4.380378e-002
3.284179e+003, 4.487048e-002
3.286107e+003, 4.587101e-002
3.288036e+003, 4.622254e-002
3.289964e+003, 4.682546e-002
3.291893e+003, 4.789795e-002
3.293821e+003, 4.915740e-002
3.295750e+003, 5.006954e-002
3.297678e+003, 5.083659e-002
3.299606e+003, 5.223866e-002
3.301535e+003, 5.336178e-002
3.303463e+003, 5.420386e-002
3.305392e+003, 5.462896e-002
3.307320e+003, 5.554820e-002
3.309249e+003, 5.624923e-002
3.311177e+003, 5.712349e-002
3.313106e+003, 5.769048e-002
3.315034e+003, 5.748092e-002
3.316963e+003, 5.704848e-002
3.318891e+003, 5.705687e-002
3.320820e+003, 5.670481e-002
3.322748e+003, 5.625077e-002
3.324677e+003, 5.610156e-002
3.326605e+003, 5.552836e-002
3.328533e+003, 5.501609e-002
3.330462e+003, 5.438142e-002
3.332390e+003, 5.338003e-002
3.334319e+003, 5.271871e-002
3.336247e+003, 5.202593e-002
3.338176e+003, 5.086878e-002
3.340104e+003, 5.016909e-002
3.342033e+003, 4.928375e-002
3.343961e+003, 4.832445e-002
3.345890e+003, 4.718630e-002
3.347818e+003, 4.623964e-002
3.349747e+003, 4.638458e-002
3.351675e+003, 4.652419e-002
3.353604e+003, 4.603664e-002
3.355532e+003, 4.576165e-002
3.357460e+003, 4.544993e-002
3.359389e+003, 4.508006e-002
3.361317e+003, 4.521487e-002
3.363246e+003, 4.532247e-002
3.365174e+003, 4.467514e-002
3.367103e+003, 4.437304e-002
3.369031e+003, 4.503037e-002
3.370960e+003, 4.510042e-002
3.372888e+003, 4.560267e-002
3.374817e+003, 4.626124e-002
3.376745e+003, 4.668716e-002
3.378674e+003, 4.770712e-002
3.380602e+003, 4.884282e-002
3.382531e+003, 5.057429e-002
3.384459e+003, 5.214891e-002
3.386387e+003, 5.353041e-002
3.388316e+003, 5.546586e-002
3.390244e+003, 5.767545e-002
3.392173e+003, 6.007742e-002
3.394101e+003, 6.274095e-002
3.396030e+003, 6.513503e-002
3.397958e+003, 6.721646e-002
3.399887e+003, 6.901312e-002
3.401815e+003, 7.054085e-002
3.403744e+003, 7.082314e-002
3.405672e+003, 6.998099e-002
3.407601e+003, 6.845321e-002
3.409529e+003, 6.569277e-002
3.411458e+003, 6.224940e-002
3.413386e+003, 5.990117e-002
3.415314e+003, 5.728244e-002
3.417243e+003, 5.379225e-002
3.419171e+003, 5.067947e-002
3.421100e+003, 4.797358e-002
3.423028e+003, 4.548484e-002
3.424957e+003, 4.341557e-002
3.426885e+003, 4.114252e-002
3.428814e+003, 3.856844e-002
3.430742e+003, 3.690750e-002
3.432671e+003, 3.564264e-002
3.434599e+003, 3.368923e-002
3.436528e+003, 3.197547e-002
3.438456e+003, 3.101606e-002
3.440385e+003, 2.943000e-002
3.442313e+003, 2.785893e-002
3.444241e+003, 2.643126e-002
3.446170e+003, 2.594865e-002
3.448098e+003, 2.569301e-002
3.450027e+003, 2.438138e-002
3.451955e+003, 2.323842e-002
3.453884e+003, 2.393588e-002
3.455812e+003, 2.399022e-002
3.457741e+003, 2.332316e-002
3.459669e+003, 2.241104e-002
3.461598e+003, 2.175211e-002
3.463526e+003, 2.148695e-002
3.465455e+003, 2.164744e-002
3.467383e+003, 2.202482e-002
3.469312e+003, 2.139620e-002
3.471240e+003, 2.080575e-002
3.473168e+003, 2.019676e-002
3.475097e+003, 1.966275e-002
3.477025e+003, 1.976191e-002
3.478954e+003, 1.997238e-002
3.480882e+003, 2.031139e-002
3.482811e+003, 1.992704e-002
3.484739e+003, 1.980633e-002
3.486668e+003, 1.924588e-002
3.488596e+003, 1.859173e-002
3.490525e+003, 1.859339e-002
3.492453e+003, 1.847824e-002
3.494382e+003, 1.856987e-002
3.496310e+003, 1.829072e-002
3.498239e+003, 1.720081e-002
3.500167e+003, 1.687199e-002
3.502095e+003, 1.686094e-002
3.504024e+003, 1.650577e-002
3.505952e+003, 1.655155e-002
3.507881e+003, 1.637927e-002
3.509809e+003, 1.668595e-002
3.511738e+003, 1.696780e-002
3.513666e+003, 1.665621e-002
3.515595e+003, 1.578154e-002
3.517523e+003, 1.530509e-002
3.519452e+003, 1.482086e-002
3.521380e+003, 1.429506e-002
3.523309e+003, 1.448018e-002
3.525237e+003, 1.452557e-002
3.527166e+003, 1.384773e-002
3.529094e+003, 1.351574e-002
3.531022e+003, 1.341666e-002
3.532951e+003, 1.324719e-002
3.534879e+003, 1.291955e-002
3.536808e+003, 1.267033e-002
3.538736e+003, 1.194460e-002
3.540665e+003, 1.167858e-002
3.542593e+003, 1.167106e-002
3.544522e+003, 1.149217e-002
3.546450e+003, 1.122361e-002
3.548379e+003, 1.028730e-002
3.550307e+003, 9.745940e-003
3.552236e+003, 9.277651e-003
3.554164e+003, 9.202173e-003
3.556093e+003, 9.736723e-003
3.558021e+003, 9.468705e-003
3.559949e+003, 8.822918e-003
3.561878e+003, 8.681970e-003
3.563806e+003, 8.607847e-003
3.565735e+003, 7.571843e-003
3.567663e+003, 7.222914e-003
3.569592e+003, 8.159013e-003
3.571520e+003, 8.502682e-003
3.573449e+003, 8.197167e-003
3.575377e+003, 7.995971e-003
3.577306e+003, 8.077114e-003
3.579234e+003, 7.534992e-003
3.581163e+003, 6.804420e-003
3.583091e+003, 6.736471e-003
3.585020e+003, 6.163049e-003
3.586948e+003, 5.865422e-003
3.588876e+003, 6.262674e-003
3.590805e+003, 6.299955e-003
3.592733e+003, 6.028304e-003
3.594662e+003, 5.686923e-003
3.596590e+003, 5.735972e-003
3.598519e+003, 5.313911e-003
3.600447e+003, 4.888672e-003
3.602376e+003, 5.147943e-003
3.604304e+003, 5.269570e-003
3.606233e+003, 5.942471e-003
3.608161e+003, 6.156462e-003
3.610090e+003, 6.254371e-003
3.612018e+003, 5.318305e-003
3.613947e+003, 3.897599e-003
3.615875e+003, 3.950159e-003
3.617803e+003, 4.611507e-003
3.619732e+003, 4.892023e-003
3.621660e+003, 5.177215e-003
3.623589e+003, 4.539045e-003
3.625517e+003, 4.306005e-003
3.627446e+003, 4.293958e-003
3.629374e+003, 3.442450e-003
3.631303e+003, 3.494287e-003
3.633231e+003, 4.215460e-003
3.635160e+003, 3.974133e-003
3.637088e+003, 4.374277e-003
3.639017e+003, 4.230048e-003
3.640945e+003, 3.282171e-003
3.642874e+003, 3.033287e-003
3.644802e+003, 3.259803e-003
3.646730e+003, 3.807006e-003
3.648659e+003, 4.070548e-003
3.650587e+003, 3.421811e-003
3.652516e+003, 3.261005e-003
3.654444e+003, 3.616554e-003
3.656373e+003, 4.351786e-003
3.658301e+003, 3.939058e-003
3.660230e+003, 3.822984e-003
3.662158e+003, 4.085063e-003
3.664087e+003, 3.951062e-003
3.666015e+003, 3.938222e-003
3.667944e+003, 3.606698e-003
3.669872e+003, 3.561997e-003
3.671801e+003, 3.906091e-003
3.673729e+003, 3.889141e-003
3.675657e+003, 3.611142e-003
3.677586e+003, 3.772144e-003
3.679514e+003, 4.025197e-003
3.681443e+003, 3.986138e-003
3.683371e+003, 4.020683e-003
3.685300e+003, 4.337898e-003
3.687228e+003, 4.434526e-003
3.689157e+003, 3.941332e-003
3.691085e+003, 3.115643e-003
3.693014e+003, 3.200585e-003
3.694942e+003, 3.703064e-003
3.696871e+003, 3.831474e-003
3.698799e+003, 3.422980e-003
3.700728e+003, 3.593802e-003
3.702656e+003, 3.483197e-003
3.704584e+003, 2.836104e-003
3.706513e+003, 2.670181e-003
3.708441e+003, 3.203489e-003
3.710370e+003, 3.375693e-003
3.712298e+003, 2.881364e-003
3.714227e+003, 3.163135e-003
3.716155e+003, 3.767197e-003
3.718084e+003, 3.884494e-003
3.720012e+003, 3.133030e-003
3.721941e+003, 3.455676e-003
3.723869e+003, 4.708197e-003
3.725798e+003, 5.056049e-003
3.727726e+003, 4.403196e-003
3.729655e+003, 3.891648e-003
3.731583e+003, 3.990218e-003
3.733511e+003, 3.373256e-003
3.735440e+003, 2.883499e-003
3.737368e+003, 4.032421e-003
3.739297e+003, 3.965874e-003
3.741225e+003, 4.140757e-003
3.743154e+003, 4.819482e-003
3.745082e+003, 4.290277e-003
3.747011e+003, 3.368013e-003
3.748939e+003, 2.761104e-003
3.750868e+003, 3.192674e-003
3.752796e+003, 4.525686e-003
3.754725e+003, 4.575978e-003
3.756653e+003, 3.324806e-003
3.758582e+003, 2.760137e-003
3.760510e+003, 2.766139e-003
3.762438e+003, 4.238881e-003
3.764367e+003, 4.960153e-003
3.766295e+003, 4.226970e-003
3.768224e+003, 3.844879e-003
3.770152e+003, 3.554280e-003
3.772081e+003, 3.234566e-003
3.774009e+003, 3.841904e-003
3.775938e+003, 4.301788e-003
3.777866e+003, 4.020649e-003
3.779795e+003, 4.000317e-003
3.781723e+003, 3.499631e-003
3.783652e+003, 3.237337e-003
3.785580e+003, 4.129885e-003
3.787509e+003, 4.483301e-003
3.789437e+003, 4.461541e-003
3.791365e+003, 3.568077e-003
3.793294e+003, 2.653378e-003
3.795222e+003, 2.234167e-003
3.797151e+003, 3.470104e-003
3.799079e+003, 5.019411e-003
3.801008e+003, 6.186643e-003
3.802936e+003, 5.536350e-003
3.804865e+003, 4.680195e-003
3.806793e+003, 4.057537e-003
3.808722e+003, 3.901845e-003
3.810650e+003, 3.903416e-003
3.812579e+003, 4.037003e-003
3.814507e+003, 4.144269e-003
3.816436e+003, 4.138984e-003
3.818364e+003, 4.086502e-003
3.820292e+003, 4.538141e-003
3.822221e+003, 4.113160e-003
3.824149e+003, 3.704267e-003
3.826078e+003, 3.884126e-003
3.828006e+003, 3.701895e-003
3.829935e+003, 4.048808e-003
3.831863e+003, 4.694330e-003
3.833792e+003, 4.326251e-003
3.835720e+003, 4.100650e-003
3.837649e+003, 4.673229e-003
3.839577e+003, 4.966991e-003
3.841506e+003, 5.068788e-003
3.843434e+003, 4.523007e-003
3.845363e+003, 3.621365e-003
3.847291e+003, 3.751757e-003
3.849219e+003, 4.309251e-003
3.851148e+003, 4.783936e-003
3.853076e+003, 5.178120e-003
3.855005e+003, 4.939710e-003
3.856933e+003, 4.299145e-003
3.858862e+003, 3.820477e-003
3.860790e+003, 3.975905e-003
3.862719e+003, 4.334517e-003
3.864647e+003, 4.772646e-003
3.866576e+003, 5.290834e-003
3.868504e+003, 4.923725e-003
3.870433e+003, 4.266017e-003
3.872361e+003, 4.090482e-003
3.874290e+003, 4.337462e-003
3.876218e+003, 4.449021e-003
3.878146e+003, 4.385624e-003
3.880075e+003, 5.072274e-003
3.882003e+003, 5.001680e-003
3.883932e+003, 3.870486e-003
3.885860e+003, 3.410356e-003
3.887789e+003, 4.283584e-003
3.889717e+003, 5.044920e-003
3.891646e+003, 4.761558e-003
3.893574e+003, 4.196724e-003
3.895503e+003, 4.234732e-003
3.897431e+003, 4.086535e-003
3.899360e+003, 3.567743e-003
3.901288e+003, 3.837124e-003
3.903217e+003, 4.063624e-003
3.905145e+003, 3.087978e-003
3.907073e+003, 4.091786e-003
3.909002e+003, 4.772814e-003
3.910930e+003, 4.570352e-003
3.912859e+003, 4.450193e-003
3.914787e+003, 4.292285e-003
3.916716e+003, 3.786583e-003
3.918644e+003, 3.756369e-003
3.920573e+003, 4.422476e-003
3.922501e+003, 5.117835e-003
3.924430e+003, 4.217501e-003
3.926358e+003, 4.075498e-003
3.928287e+003, 4.719752e-003
3.930215e+003, 5.467359e-003
3.932144e+003, 5.380563e-003
3.934072e+003, 4.760385e-003
3.936000e+003, 5.068855e-003
3.937929e+003, 6.546749e-003
3.939857e+003, 6.445815e-003
3.941786e+003, 4.910219e-003
3.943714e+003, 4.634848e-003
3.945643e+003, 5.183720e-003
3.947571e+003, 5.558601e-003
3.949500e+003, 5.298716e-003
3.951428e+003, 5.087595e-003
3.953357e+003, 5.082197e-003
3.955285e+003, 4.620615e-003
3.957214e+003, 4.737941e-003
3.959142e+003, 5.454977e-003
3.961071e+003, 5.821529e-003
3.962999e+003, 5.680746e-003
3.964927e+003, 4.970308e-003
3.966856e+003, 4.452536e-003
3.968784e+003, 4.635953e-003
3.970713e+003, 4.505263e-003
3.972641e+003, 4.270902e-003
3.974570e+003, 4.352021e-003
3.976498e+003, 4.958444e-003
3.978427e+003, 5.096445e-003
3.980355e+003, 3.720442e-003
3.982284e+003, 3.040995e-003
3.984212e+003, 4.291046e-003
3.986141e+003, 5.332459e-003
3.988069e+003, 5.066575e-003
3.989998e+003, 4.198832e-003
3.991926e+003, 3.577699e-003
3.993854e+003, 3.812120e-003
3.995783e+003, 4.925333e-003
3.997711e+003, 5.550647e-003
3.999640e+003, 5.550647e-003
4.001568e+003, 0.000000e+000
##END=



