##NAMES=Margarosanite
##RRUFFID=R120111
##IDEAL CHEMISTRY=Ca_2_Pb^2+^Si_3_O_9_
##LOCALITY=Parker shaft, Franklin, New Jersey, USA
##OWNER=RRUFF
##SOURCE=Caltech  
##DESCRIPTION=Pearly, colorless cleavages
##STATUS=The identification of this mineral has been confirmed by single-crystal X-ray diffraction.
##URL=rruff.info/R120111
3.991926e+002, 1.156220e-001
4.011211e+002, 1.184469e-001
4.030495e+002, 1.149167e-001
4.049780e+002, 1.145646e-001
4.069065e+002, 1.203796e-001
4.088349e+002, 1.367656e-001
4.107634e+002, 1.387599e-001
4.126919e+002, 1.241182e-001
4.146203e+002, 1.238388e-001
4.165488e+002, 1.255346e-001
4.184773e+002, 1.174977e-001
4.204057e+002, 1.037836e-001
4.223342e+002, 9.130561e-002
4.242627e+002, 9.099049e-002
4.261911e+002, 1.036556e-001
4.281196e+002, 1.154888e-001
4.300481e+002, 1.215749e-001
4.319765e+002, 1.277021e-001
4.339050e+002, 1.384931e-001
4.358335e+002, 1.506480e-001
4.377619e+002, 1.621513e-001
4.396904e+002, 1.733374e-001
4.416189e+002, 1.850287e-001
4.435473e+002, 1.955608e-001
4.454758e+002, 2.052681e-001
4.474043e+002, 2.138720e-001
4.493327e+002, 2.204644e-001
4.512612e+002, 2.276984e-001
4.531897e+002, 2.304808e-001
4.551181e+002, 2.238670e-001
4.570466e+002, 2.114820e-001
4.589751e+002, 1.999049e-001
4.609035e+002, 1.955671e-001
4.628320e+002, 1.966984e-001
4.647605e+002, 1.952047e-001
4.666889e+002, 1.885041e-001
4.686174e+002, 1.741981e-001
4.705459e+002, 1.574112e-001
4.724743e+002, 1.407240e-001
4.744028e+002, 1.240766e-001
4.763313e+002, 1.095415e-001
4.782597e+002, 1.025715e-001
4.801882e+002, 1.080700e-001
4.821167e+002, 1.239673e-001
4.840451e+002, 1.478347e-001
4.859736e+002, 1.695553e-001
4.879021e+002, 1.788454e-001
4.898305e+002, 1.790536e-001
4.917590e+002, 1.732176e-001
4.936875e+002, 1.648084e-001
4.956159e+002, 1.565185e-001
4.975444e+002, 1.512519e-001
4.994729e+002, 1.494952e-001
5.014013e+002, 1.458273e-001
5.033298e+002, 1.357323e-001
5.052583e+002, 1.235645e-001
5.071867e+002, 1.130990e-001
5.091152e+002, 1.022025e-001
5.110437e+002, 9.366913e-002
5.129721e+002, 8.553366e-002
5.149006e+002, 7.724579e-002
5.168290e+002, 6.769671e-002
5.187575e+002, 5.806372e-002
5.206860e+002, 5.083995e-002
5.226144e+002, 4.535706e-002
5.245429e+002, 4.172971e-002
5.264714e+002, 3.833341e-002
5.283998e+002, 3.458551e-002
5.303283e+002, 3.181498e-002
5.322568e+002, 3.088636e-002
5.341852e+002, 3.041335e-002
5.361137e+002, 2.896880e-002
5.380422e+002, 2.671588e-002
5.399706e+002, 2.486409e-002
5.418991e+002, 2.360762e-002
5.438276e+002, 2.279005e-002
5.457560e+002, 2.184786e-002
5.476845e+002, 2.126881e-002
5.496130e+002, 2.090522e-002
5.515414e+002, 2.112243e-002
5.534699e+002, 2.198857e-002
5.553984e+002, 2.276325e-002
5.573268e+002, 2.386177e-002
5.592553e+002, 2.517992e-002
5.611838e+002, 2.678988e-002
5.631122e+002, 2.937899e-002
5.650407e+002, 3.396670e-002
5.669692e+002, 4.185227e-002
5.688976e+002, 5.438283e-002
5.708261e+002, 6.979266e-002
5.727546e+002, 7.888692e-002
5.746830e+002, 7.110111e-002
5.766115e+002, 5.229873e-002
5.785400e+002, 3.646968e-002
5.804684e+002, 2.763762e-002
5.823969e+002, 2.345311e-002
5.843254e+002, 2.161152e-002
5.862538e+002, 2.116435e-002
5.881823e+002, 2.074036e-002
5.901108e+002, 2.041935e-002
5.920392e+002, 2.061362e-002
5.939677e+002, 2.101443e-002
5.958962e+002, 2.124420e-002
5.978246e+002, 2.200282e-002
5.997531e+002, 2.265470e-002
6.016816e+002, 2.286106e-002
6.036100e+002, 2.402670e-002
6.055385e+002, 2.487549e-002
6.074670e+002, 2.578751e-002
6.093954e+002, 2.685628e-002
6.113239e+002, 2.787947e-002
6.132524e+002, 2.911365e-002
6.151808e+002, 3.018689e-002
6.171093e+002, 3.119642e-002
6.190378e+002, 3.242803e-002
6.209662e+002, 3.404597e-002
6.228947e+002, 3.587982e-002
6.248232e+002, 3.772793e-002
6.267516e+002, 3.935279e-002
6.286801e+002, 4.162107e-002
6.306086e+002, 4.424921e-002
6.325370e+002, 4.711141e-002
6.344655e+002, 5.016365e-002
6.363940e+002, 5.288954e-002
6.383224e+002, 5.584563e-002
6.402509e+002, 5.968296e-002
6.421794e+002, 6.501628e-002
6.441078e+002, 7.144695e-002
6.460363e+002, 7.804312e-002
6.479648e+002, 8.576567e-002
6.498932e+002, 9.491244e-002
6.518217e+002, 1.058817e-001
6.537502e+002, 1.185351e-001
6.556786e+002, 1.324641e-001
6.576071e+002, 1.480237e-001
6.595356e+002, 1.643895e-001
6.614641e+002, 1.778998e-001
6.633925e+002, 1.813367e-001
6.653210e+002, 1.710827e-001
6.672495e+002, 1.510722e-001
6.691779e+002, 1.306729e-001
6.711064e+002, 1.158441e-001
6.730349e+002, 1.068949e-001
6.749633e+002, 1.032755e-001
6.768918e+002, 1.037499e-001
6.788203e+002, 1.069884e-001
6.807487e+002, 1.125535e-001
6.826772e+002, 1.198932e-001
6.846057e+002, 1.289092e-001
6.865341e+002, 1.397540e-001
6.884626e+002, 1.522502e-001
6.903911e+002, 1.656465e-001
6.923195e+002, 1.801064e-001
6.942480e+002, 1.950906e-001
6.961765e+002, 2.058574e-001
6.981049e+002, 2.105518e-001
7.000334e+002, 2.099366e-001
7.019619e+002, 2.036851e-001
7.038903e+002, 1.928497e-001
7.058188e+002, 1.791192e-001
7.077473e+002, 1.642478e-001
7.096757e+002, 1.486637e-001
7.116042e+002, 1.342324e-001
7.135327e+002, 1.223758e-001
7.154611e+002, 1.131564e-001
7.173896e+002, 1.067337e-001
7.193181e+002, 1.038357e-001
7.212465e+002, 1.047451e-001
7.231750e+002, 1.070352e-001
7.251035e+002, 1.098896e-001
7.270319e+002, 1.131277e-001
7.289604e+002, 1.165259e-001
7.308889e+002, 1.200109e-001
7.328173e+002, 1.224344e-001
7.347458e+002, 1.238716e-001
7.366743e+002, 1.247526e-001
7.386027e+002, 1.242594e-001
7.405312e+002, 1.227732e-001
7.424597e+002, 1.209448e-001
7.443881e+002, 1.192980e-001
7.463166e+002, 1.169270e-001
7.482451e+002, 1.121453e-001
7.501735e+002, 1.045558e-001
7.521020e+002, 9.447283e-002
7.540305e+002, 8.206552e-002
7.559589e+002, 6.865875e-002
7.578874e+002, 5.543227e-002
7.598159e+002, 4.514563e-002
7.617443e+002, 3.865784e-002
7.636728e+002, 3.513597e-002
7.656013e+002, 3.265392e-002
7.675297e+002, 3.165210e-002
7.694582e+002, 3.164063e-002
7.713867e+002, 3.172383e-002
7.733151e+002, 3.218124e-002
7.752436e+002, 3.302114e-002
7.771721e+002, 3.392996e-002
7.791005e+002, 3.532715e-002
7.810290e+002, 3.663154e-002
7.829575e+002, 3.793578e-002
7.848859e+002, 3.928572e-002
7.868144e+002, 4.083505e-002
7.887429e+002, 4.273005e-002
7.906713e+002, 4.496976e-002
7.925998e+002, 4.679628e-002
7.945283e+002, 4.907584e-002
7.964567e+002, 5.172529e-002
7.983852e+002, 5.419125e-002
8.003137e+002, 5.664589e-002
8.022421e+002, 5.867985e-002
8.041706e+002, 6.109872e-002
8.060991e+002, 6.336518e-002
8.080275e+002, 6.515389e-002
8.099560e+002, 6.724985e-002
8.118845e+002, 6.950450e-002
8.138129e+002, 7.186209e-002
8.157414e+002, 7.426976e-002
8.176699e+002, 7.673977e-002
8.195983e+002, 7.902898e-002
8.215268e+002, 8.116484e-002
8.234553e+002, 8.322792e-002
8.253837e+002, 8.528689e-002
8.273122e+002, 8.677708e-002
8.292407e+002, 8.825057e-002
8.311691e+002, 9.055590e-002
8.330976e+002, 9.280022e-002
8.350261e+002, 9.470510e-002
8.369545e+002, 9.693009e-002
8.388830e+002, 9.973041e-002
8.408115e+002, 1.024596e-001
8.427399e+002, 1.059904e-001
8.446684e+002, 1.104027e-001
8.465969e+002, 1.154609e-001
8.485253e+002, 1.206357e-001
8.504538e+002, 1.258703e-001
8.523823e+002, 1.305759e-001
8.543107e+002, 1.343495e-001
8.562392e+002, 1.378132e-001
8.581677e+002, 1.427848e-001
8.600961e+002, 1.490901e-001
8.620246e+002, 1.562791e-001
8.639531e+002, 1.638635e-001
8.658815e+002, 1.707000e-001
8.678100e+002, 1.767074e-001
8.697385e+002, 1.820977e-001
8.716669e+002, 1.879687e-001
8.735954e+002, 1.945444e-001
8.755239e+002, 2.014035e-001
8.774523e+002, 2.081134e-001
8.793808e+002, 2.149022e-001
8.813093e+002, 2.222503e-001
8.832377e+002, 2.296179e-001
8.851662e+002, 2.373641e-001
8.870947e+002, 2.455746e-001
8.890231e+002, 2.546997e-001
8.909516e+002, 2.641873e-001
8.928801e+002, 2.736373e-001
8.948085e+002, 2.831312e-001
8.967370e+002, 2.923451e-001
8.986655e+002, 3.009613e-001
9.005939e+002, 3.089170e-001
9.025224e+002, 3.155154e-001
9.044509e+002, 3.219490e-001
9.063793e+002, 3.283970e-001
9.083078e+002, 3.346920e-001
9.102363e+002, 3.404292e-001
9.121647e+002, 3.449446e-001
9.140932e+002, 3.469022e-001
9.160217e+002, 3.472894e-001
9.179501e+002, 3.476377e-001
9.198786e+002, 3.484312e-001
9.218071e+002, 3.489999e-001
9.237355e+002, 3.477988e-001
9.256640e+002, 3.433036e-001
9.275925e+002, 3.351923e-001
9.295209e+002, 3.269080e-001
9.314494e+002, 3.214251e-001
9.333779e+002, 3.180734e-001
9.353063e+002, 3.156238e-001
9.372348e+002, 3.120275e-001
9.391633e+002, 3.065524e-001
9.410917e+002, 2.992436e-001
9.430202e+002, 2.915726e-001
9.449487e+002, 2.847015e-001
9.468771e+002, 2.781965e-001
9.488056e+002, 2.728558e-001
9.507341e+002, 2.700497e-001
9.526625e+002, 2.690503e-001
9.545910e+002, 2.689807e-001
9.565195e+002, 2.677905e-001
9.584479e+002, 2.639892e-001
9.603764e+002, 2.582927e-001
9.623049e+002, 2.515877e-001
9.642333e+002, 2.444850e-001
9.661618e+002, 2.374515e-001
9.680903e+002, 2.308525e-001
9.700187e+002, 2.249977e-001
9.719472e+002, 2.208877e-001
9.738757e+002, 2.185130e-001
9.758041e+002, 2.163529e-001
9.777326e+002, 2.133750e-001
9.796611e+002, 2.084472e-001
9.815895e+002, 2.017882e-001
9.835180e+002, 1.951606e-001
9.854465e+002, 1.896902e-001
9.873749e+002, 1.851234e-001
9.893034e+002, 1.810911e-001
9.912319e+002, 1.773743e-001
9.931603e+002, 1.745727e-001
9.950888e+002, 1.733512e-001
9.970173e+002, 1.741550e-001
9.989457e+002, 1.779110e-001
1.000874e+003, 1.833879e-001
1.002803e+003, 1.881902e-001
1.004731e+003, 1.908167e-001
1.006660e+003, 1.921312e-001
1.008588e+003, 1.920452e-001
1.010517e+003, 1.888604e-001
1.012445e+003, 1.821507e-001
1.014373e+003, 1.731363e-001
1.016302e+003, 1.626673e-001
1.018230e+003, 1.514436e-001
1.020159e+003, 1.402186e-001
1.022087e+003, 1.297460e-001
1.024016e+003, 1.202760e-001
1.025944e+003, 1.112082e-001
1.027873e+003, 1.028093e-001
1.029801e+003, 9.545781e-002
1.031730e+003, 8.898614e-002
1.033658e+003, 8.281689e-002
1.035587e+003, 7.718424e-002
1.037515e+003, 7.237232e-002
1.039443e+003, 6.755389e-002
1.041372e+003, 6.302880e-002
1.043300e+003, 5.882880e-002
1.045229e+003, 5.475894e-002
1.047157e+003, 5.073268e-002
1.049086e+003, 4.704493e-002
1.051014e+003, 4.321408e-002
1.052943e+003, 3.947007e-002
1.054871e+003, 3.574491e-002
1.056800e+003, 3.237147e-002
1.058728e+003, 2.903086e-002
1.060657e+003, 2.596553e-002
1.062585e+003, 2.330385e-002
1.064514e+003, 2.080462e-002
1.066442e+003, 1.907053e-002
1.068370e+003, 1.814394e-002
1.070299e+003, 1.708162e-002
1.072227e+003, 1.588983e-002
1.074156e+003, 1.483233e-002
1.076084e+003, 1.411164e-002
1.078013e+003, 1.347122e-002
1.079941e+003, 1.268681e-002
1.081870e+003, 1.161190e-002
1.083798e+003, 1.125913e-002
1.085727e+003, 1.129737e-002
1.087655e+003, 1.055798e-002
1.089584e+003, 1.004155e-002
1.091512e+003, 9.576697e-003
1.093441e+003, 9.160421e-003
1.095369e+003, 9.102285e-003
1.097297e+003, 8.925228e-003
1.099226e+003, 8.715410e-003
1.101154e+003, 8.324923e-003
1.103083e+003, 8.003001e-003
1.105011e+003, 8.037767e-003
1.106940e+003, 7.892302e-003
1.108868e+003, 7.642773e-003
1.110797e+003, 7.880257e-003
1.112725e+003, 7.747690e-003
1.114654e+003, 7.503881e-003
1.116582e+003, 7.556582e-003
1.118511e+003, 7.654599e-003
1.120439e+003, 7.553197e-003
1.122368e+003, 7.521064e-003
1.124296e+003, 7.561113e-003
1.126224e+003, 7.031294e-003
1.128153e+003, 6.766547e-003
1.130081e+003, 6.894453e-003
1.132010e+003, 6.788313e-003
1.133938e+003, 6.968016e-003
1.135867e+003, 6.944214e-003
1.137795e+003, 6.610182e-003
1.139724e+003, 6.650971e-003
1.141652e+003, 6.682354e-003
1.143581e+003, 6.822970e-003
1.145509e+003, 6.825125e-003
1.147438e+003, 6.601935e-003
1.149366e+003, 6.552485e-003
1.151295e+003, 6.420220e-003
1.153223e+003, 6.202862e-003
1.155151e+003, 6.378615e-003
1.157080e+003, 6.538585e-003
1.159008e+003, 6.557342e-003
1.160937e+003, 6.537467e-003
1.162865e+003, 6.344731e-003
1.164794e+003, 6.177538e-003
1.166722e+003, 6.510443e-003
1.168651e+003, 6.792266e-003
1.170579e+003, 6.629015e-003
1.172508e+003, 6.340574e-003
1.174436e+003, 6.207208e-003
1.176365e+003, 6.543837e-003
1.178293e+003, 6.511936e-003
1.180222e+003, 6.242812e-003
1.182150e+003, 6.016322e-003
1.184078e+003, 6.267980e-003
1.186007e+003, 6.477361e-003
1.187935e+003, 6.245008e-003
1.189864e+003, 6.172589e-003
1.191792e+003, 6.372536e-003
1.193721e+003, 6.689464e-003
1.195649e+003, 6.492674e-003
1.197578e+003, 6.150165e-003
1.199506e+003, 5.984027e-003
1.201435e+003, 6.230762e-003
1.203363e+003, 6.283698e-003
1.205292e+003, 6.204409e-003
1.207220e+003, 6.257567e-003
1.209149e+003, 6.014907e-003
1.211077e+003, 5.790064e-003
1.213005e+003, 5.738860e-003
1.214934e+003, 5.912383e-003
1.216862e+003, 6.069022e-003
1.218791e+003, 6.237489e-003
1.220719e+003, 6.481347e-003
1.222648e+003, 6.382226e-003
1.224576e+003, 6.096249e-003
1.226505e+003, 6.084310e-003
1.228433e+003, 6.138836e-003
1.230362e+003, 5.921049e-003
1.232290e+003, 5.804671e-003
1.234219e+003, 6.031251e-003
1.236147e+003, 5.820354e-003
1.238076e+003, 5.606042e-003
1.240004e+003, 5.701220e-003
1.241932e+003, 6.100742e-003
1.243861e+003, 6.534880e-003
1.245789e+003, 6.593563e-003
1.247718e+003, 6.308816e-003
1.249646e+003, 6.237766e-003
1.251575e+003, 6.247560e-003
1.253503e+003, 6.197782e-003
1.255432e+003, 6.200375e-003
1.257360e+003, 6.277156e-003
1.259289e+003, 6.382096e-003
1.261217e+003, 6.400621e-003
1.263146e+003, 6.008448e-003
1.265074e+003, 5.993508e-003
1.267003e+003, 6.489322e-003
1.268931e+003, 6.599016e-003
1.270859e+003, 6.529017e-003
1.272788e+003, 6.602898e-003
1.274716e+003, 6.693524e-003
1.276645e+003, 6.674408e-003
1.278573e+003, 6.511164e-003
1.280502e+003, 6.573917e-003
1.282430e+003, 6.512578e-003
1.284359e+003, 6.752599e-003
1.286287e+003, 6.867445e-003
1.288216e+003, 6.848358e-003
1.290144e+003, 6.947935e-003
1.292073e+003, 7.085555e-003
1.294001e+003, 7.068082e-003
1.295930e+003, 7.275148e-003
1.297858e+003, 7.303356e-003
1.299786e+003, 7.303867e-003
1.301715e+003, 7.291591e-003
1.303643e+003, 7.050461e-003
1.305572e+003, 7.155071e-003
1.307500e+003, 7.383510e-003
1.309429e+003, 7.676878e-003
1.311357e+003, 8.086102e-003
1.313286e+003, 8.092962e-003
1.315214e+003, 7.969740e-003
1.317143e+003, 7.967353e-003
1.319071e+003, 8.114739e-003
1.321000e+003, 8.067072e-003
1.322928e+003, 8.356536e-003
1.324857e+003, 8.761303e-003
1.326785e+003, 8.776331e-003
1.328714e+003, 8.467194e-003
1.330642e+003, 8.435280e-003
1.332570e+003, 8.510635e-003
1.334499e+003, 8.562172e-003
1.336427e+003, 8.611667e-003
1.338356e+003, 8.500109e-003
1.340284e+003, 8.280238e-003
1.342213e+003, 8.587833e-003
1.344141e+003, 9.014876e-003
1.346070e+003, 9.525039e-003
1.347998e+003, 9.888857e-003
1.349927e+003, 9.803343e-003
1.351855e+003, 9.503152e-003
1.353784e+003, 9.529292e-003
1.355712e+003, 9.628429e-003
1.357641e+003, 9.572991e-003
1.359569e+003, 9.849777e-003
1.361497e+003, 9.952239e-003
1.363426e+003, 9.711915e-003
1.365354e+003, 9.681366e-003
1.367283e+003, 9.994437e-003
1.369211e+003, 1.044691e-002
1.371140e+003, 1.069540e-002
1.373068e+003, 1.037504e-002
1.374997e+003, 1.023535e-002
1.376925e+003, 1.078665e-002
1.378854e+003, 1.072184e-002
1.380782e+003, 1.054786e-002
1.382711e+003, 1.056646e-002
1.384639e+003, 1.050061e-002
1.386568e+003, 1.050401e-002
1.388496e+003, 1.083734e-002
1.390424e+003, 1.106749e-002
1.392353e+003, 1.064780e-002
1.394281e+003, 1.031776e-002
1.396210e+003, 1.020344e-002
1.398138e+003, 1.040384e-002
1.400067e+003, 1.067110e-002
1.401995e+003, 1.103763e-002
1.403924e+003, 1.097173e-002
1.405852e+003, 1.094606e-002
1.407781e+003, 1.097608e-002
1.409709e+003, 1.101841e-002
1.411638e+003, 1.104915e-002
1.413566e+003, 1.113097e-002
1.415495e+003, 1.145657e-002
1.417423e+003, 1.114001e-002
1.419351e+003, 1.052199e-002
1.421280e+003, 1.076449e-002
1.423208e+003, 1.101240e-002
1.425137e+003, 1.110592e-002
1.427065e+003, 1.127222e-002
1.428994e+003, 1.127420e-002
1.430922e+003, 1.127358e-002
1.432851e+003, 1.147628e-002
1.434779e+003, 1.132284e-002
1.436708e+003, 1.064658e-002
1.438636e+003, 1.122432e-002
1.440565e+003, 1.176681e-002
1.442493e+003, 1.175578e-002
1.444422e+003, 1.202069e-002
1.446350e+003, 1.187023e-002
1.448278e+003, 1.198285e-002
1.450207e+003, 1.206198e-002
1.452135e+003, 1.185358e-002
1.454064e+003, 1.163333e-002
1.455992e+003, 1.052180e-002
1.457921e+003, 1.049777e-002
1.459849e+003, 1.150374e-002
1.461778e+003, 1.182288e-002
1.463706e+003, 1.141123e-002
1.465635e+003, 1.153667e-002
1.467563e+003, 1.180671e-002
1.469492e+003, 1.160100e-002
1.471420e+003, 1.110103e-002
1.473349e+003, 1.081701e-002
1.475277e+003, 1.119609e-002
1.477205e+003, 1.168946e-002
1.479134e+003, 1.218035e-002
1.481062e+003, 1.238010e-002
1.482991e+003, 1.254842e-002
1.484919e+003, 1.229493e-002
1.486848e+003, 1.186882e-002
1.488776e+003, 1.145407e-002
1.490705e+003, 1.169735e-002
1.492633e+003, 1.234529e-002
1.494562e+003, 1.186422e-002
1.496490e+003, 1.142802e-002
1.498419e+003, 1.189580e-002
1.500347e+003, 1.213367e-002
1.502276e+003, 1.244381e-002
1.504204e+003, 1.160016e-002
1.506132e+003, 1.025971e-002
1.508061e+003, 1.095407e-002
1.509989e+003, 1.190965e-002
1.511918e+003, 1.199695e-002
1.513846e+003, 1.205374e-002
1.515775e+003, 1.182304e-002
1.517703e+003, 1.210708e-002
1.519632e+003, 1.170939e-002
1.521560e+003, 1.094156e-002
1.523489e+003, 1.160759e-002
1.525417e+003, 1.225558e-002
1.527346e+003, 1.254868e-002
1.529274e+003, 1.236183e-002
1.531203e+003, 1.260441e-002
1.533131e+003, 1.261211e-002
1.535059e+003, 1.297640e-002
1.536988e+003, 1.259614e-002
1.538916e+003, 1.088064e-002
1.540845e+003, 1.081483e-002
1.542773e+003, 1.213585e-002
1.544702e+003, 1.293507e-002
1.546630e+003, 1.380710e-002
1.548559e+003, 1.450486e-002
1.550487e+003, 1.451815e-002
1.552416e+003, 1.444838e-002
1.554344e+003, 1.414523e-002
1.556273e+003, 1.376928e-002
1.558201e+003, 1.252260e-002
1.560130e+003, 1.300281e-002
1.562058e+003, 1.503219e-002
1.563986e+003, 1.576787e-002
1.565915e+003, 1.610452e-002
1.567843e+003, 1.624155e-002
1.569772e+003, 1.609471e-002
1.571700e+003, 1.661610e-002
1.573629e+003, 1.682767e-002
1.575557e+003, 1.608775e-002
1.577486e+003, 1.668342e-002
1.579414e+003, 1.787153e-002
1.581343e+003, 1.835864e-002
1.583271e+003, 1.858813e-002
1.585200e+003, 1.867871e-002
1.587128e+003, 1.871279e-002
1.589057e+003, 1.826836e-002
1.590985e+003, 1.812020e-002
1.592913e+003, 1.831909e-002
1.594842e+003, 1.835001e-002
1.596770e+003, 1.808866e-002
1.598699e+003, 1.803624e-002
1.600627e+003, 1.813236e-002
1.602556e+003, 1.806428e-002
1.604484e+003, 1.752901e-002
1.606413e+003, 1.695870e-002
1.608341e+003, 1.662178e-002
1.610270e+003, 1.670952e-002
1.612198e+003, 1.658796e-002
1.614127e+003, 1.606863e-002
1.616055e+003, 1.500928e-002
1.617984e+003, 1.535539e-002
1.619912e+003, 1.623673e-002
1.621840e+003, 1.556157e-002
1.623769e+003, 1.498644e-002
1.625697e+003, 1.535647e-002
1.627626e+003, 1.564354e-002
1.629554e+003, 1.621183e-002
1.631483e+003, 1.664436e-002
1.633411e+003, 1.586328e-002
1.635340e+003, 1.470064e-002
1.637268e+003, 1.547498e-002
1.639197e+003, 1.666968e-002
1.641125e+003, 1.705449e-002
1.643054e+003, 1.670316e-002
1.644982e+003, 1.578952e-002
1.646911e+003, 1.540206e-002
1.648839e+003, 1.588178e-002
1.650767e+003, 1.519752e-002
1.652696e+003, 1.351115e-002
1.654624e+003, 1.490523e-002
1.656553e+003, 1.675274e-002
1.658481e+003, 1.714987e-002
1.660410e+003, 1.691429e-002
1.662338e+003, 1.619192e-002
1.664267e+003, 1.643892e-002
1.666195e+003, 1.690315e-002
1.668124e+003, 1.611263e-002
1.670052e+003, 1.594869e-002
1.671981e+003, 1.642568e-002
1.673909e+003, 1.605833e-002
1.675838e+003, 1.558510e-002
1.677766e+003, 1.602577e-002
1.679694e+003, 1.619611e-002
1.681623e+003, 1.612572e-002
1.683551e+003, 1.491595e-002
1.685480e+003, 1.476206e-002
1.687408e+003, 1.583907e-002
1.689337e+003, 1.613692e-002
1.691265e+003, 1.612590e-002
1.693194e+003, 1.542069e-002
1.695122e+003, 1.393876e-002
1.697051e+003, 1.411440e-002
1.698979e+003, 1.398028e-002
1.700908e+003, 1.404687e-002
1.702836e+003, 1.535721e-002
1.704765e+003, 1.522272e-002
1.706693e+003, 1.493383e-002
1.708621e+003, 1.516788e-002
1.710550e+003, 1.570431e-002
1.712478e+003, 1.577660e-002
1.714407e+003, 1.529108e-002
1.716335e+003, 1.401316e-002
1.718264e+003, 1.386765e-002
1.720192e+003, 1.487157e-002
1.722121e+003, 1.516822e-002
1.724049e+003, 1.537947e-002
1.725978e+003, 1.555664e-002
1.727906e+003, 1.535292e-002
1.729835e+003, 1.497364e-002
1.731763e+003, 1.426531e-002
1.733692e+003, 1.382282e-002
1.735620e+003, 1.523976e-002
1.737548e+003, 1.596652e-002
1.739477e+003, 1.521793e-002
1.741405e+003, 1.532418e-002
1.743334e+003, 1.577140e-002
1.745262e+003, 1.556516e-002
1.747191e+003, 1.502408e-002
1.749119e+003, 1.492150e-002
1.751048e+003, 1.496286e-002
1.752976e+003, 1.518883e-002
1.754905e+003, 1.538577e-002
1.756833e+003, 1.542145e-002
1.758762e+003, 1.565397e-002
1.760690e+003, 1.570656e-002
1.762619e+003, 1.596930e-002
1.764547e+003, 1.607925e-002
1.766475e+003, 1.528012e-002
1.768404e+003, 1.487898e-002
1.770332e+003, 1.483774e-002
1.772261e+003, 1.432983e-002
1.774189e+003, 1.535536e-002
1.776118e+003, 1.636464e-002
1.778046e+003, 1.622958e-002
1.779975e+003, 1.619592e-002
1.781903e+003, 1.617362e-002
1.783832e+003, 1.549375e-002
1.785760e+003, 1.534584e-002
1.787689e+003, 1.559602e-002
1.789617e+003, 1.550558e-002
1.791546e+003, 1.528034e-002
1.793474e+003, 1.519280e-002
1.795402e+003, 1.529977e-002
1.797331e+003, 1.505382e-002
1.799259e+003, 1.487873e-002
1.801188e+003, 1.508959e-002
1.803116e+003, 1.527503e-002
1.805045e+003, 1.520020e-002
1.806973e+003, 1.554303e-002
1.808902e+003, 1.504784e-002
1.810830e+003, 1.460550e-002
1.812759e+003, 1.473414e-002
1.814687e+003, 1.482419e-002
1.816616e+003, 1.531801e-002
1.818544e+003, 1.578369e-002
1.820473e+003, 1.582670e-002
1.822401e+003, 1.597057e-002
1.824329e+003, 1.565774e-002
1.826258e+003, 1.562670e-002
1.828186e+003, 1.610150e-002
1.830115e+003, 1.582071e-002
1.832043e+003, 1.597641e-002
1.833972e+003, 1.619382e-002
1.835900e+003, 1.585992e-002
1.837829e+003, 1.584416e-002
1.839757e+003, 1.576348e-002
1.841686e+003, 1.564047e-002
1.843614e+003, 1.483265e-002
1.845543e+003, 1.500092e-002
1.847471e+003, 1.561957e-002
1.849400e+003, 1.608813e-002
1.851328e+003, 1.654436e-002
1.853256e+003, 1.629486e-002
1.855185e+003, 1.603900e-002
1.857113e+003, 1.583016e-002
1.859042e+003, 1.524898e-002
1.860970e+003, 1.542794e-002
1.862899e+003, 1.625090e-002
1.864827e+003, 1.605259e-002
1.866756e+003, 1.498550e-002
1.868684e+003, 1.528744e-002
1.870613e+003, 1.551616e-002
1.872541e+003, 1.452452e-002
1.874470e+003, 1.485207e-002
1.876398e+003, 1.587751e-002
1.878327e+003, 1.590468e-002
1.880255e+003, 1.611206e-002
1.882183e+003, 1.622718e-002
1.884112e+003, 1.581453e-002
1.886040e+003, 1.473503e-002
1.887969e+003, 1.439930e-002
1.889897e+003, 1.431472e-002
1.891826e+003, 1.508702e-002
1.893754e+003, 1.554203e-002
1.895683e+003, 1.473177e-002
1.897611e+003, 1.479003e-002
1.899540e+003, 1.512905e-002
1.901468e+003, 1.514967e-002
1.903397e+003, 1.481150e-002
1.905325e+003, 1.483897e-002
1.907254e+003, 1.544270e-002
1.909182e+003, 1.424787e-002
1.911110e+003, 1.478069e-002
1.913039e+003, 1.692898e-002
1.914967e+003, 1.708353e-002
1.916896e+003, 1.524322e-002
1.918824e+003, 1.517243e-002
1.920753e+003, 1.565271e-002
1.922681e+003, 1.553646e-002
1.924610e+003, 1.489561e-002
1.926538e+003, 1.389854e-002
1.928467e+003, 1.384554e-002
1.930395e+003, 1.336129e-002
1.932324e+003, 1.352577e-002
1.934252e+003, 1.373117e-002
1.936181e+003, 1.255944e-002
1.938109e+003, 1.335139e-002
1.940037e+003, 1.468148e-002
1.941966e+003, 1.350944e-002
1.943894e+003, 1.215542e-002
1.945823e+003, 1.190203e-002
1.947751e+003, 1.327082e-002
1.949680e+003, 1.449385e-002
1.951608e+003, 1.413121e-002
1.953537e+003, 1.414992e-002
1.955465e+003, 1.419524e-002
1.957394e+003, 1.206358e-002
1.959322e+003, 1.083783e-002
1.961251e+003, 1.130519e-002
1.963179e+003, 1.246589e-002
1.965108e+003, 1.176810e-002
1.967036e+003, 9.329453e-003
1.968964e+003, 9.965939e-003
1.970893e+003, 1.284626e-002
1.972821e+003, 1.269057e-002
1.974750e+003, 9.948688e-003
1.976678e+003, 1.046663e-002
1.978607e+003, 1.530024e-002
1.980535e+003, 1.521309e-002
1.982464e+003, 1.371908e-002
1.984392e+003, 1.351039e-002
1.986321e+003, 1.213920e-002
1.988249e+003, 1.140795e-002
1.990178e+003, 1.249313e-002
1.992106e+003, 1.489835e-002
1.994035e+003, 1.412158e-002
1.995963e+003, 1.106288e-002
1.997891e+003, 1.104675e-002
1.999820e+003, 1.268497e-002
2.001748e+003, 1.262115e-002
2.003677e+003, 1.082514e-002
2.005605e+003, 1.053552e-002
2.007534e+003, 1.162355e-002
2.009462e+003, 1.186058e-002
2.011391e+003, 1.143255e-002
2.013319e+003, 1.196707e-002
2.015248e+003, 1.477073e-002
2.017176e+003, 1.657743e-002
2.019105e+003, 1.381889e-002
2.021033e+003, 1.077436e-002
2.022962e+003, 8.140519e-003
2.024890e+003, 7.239441e-003
2.026818e+003, 8.905211e-003
2.028747e+003, 9.292196e-003
2.030675e+003, 8.217809e-003
2.032604e+003, 9.558665e-003
2.034532e+003, 1.142585e-002
2.036461e+003, 1.321384e-002
2.038389e+003, 1.308897e-002
2.040318e+003, 1.222576e-002
2.042246e+003, 1.372269e-002
2.044175e+003, 1.326107e-002
2.046103e+003, 1.394713e-002
2.048031e+003, 1.584186e-002
2.049960e+003, 1.724544e-002
2.051888e+003, 1.579481e-002
2.053817e+003, 1.538230e-002
2.055745e+003, 1.754458e-002
2.057674e+003, 1.753218e-002
2.059602e+003, 1.599153e-002
2.061531e+003, 1.620693e-002
2.063459e+003, 1.720315e-002
2.065388e+003, 1.750362e-002
2.067316e+003, 1.806166e-002
2.069245e+003, 1.824320e-002
2.071173e+003, 1.748785e-002
2.073102e+003, 1.686309e-002
2.075030e+003, 1.642697e-002
2.076958e+003, 1.751958e-002
2.078887e+003, 1.917531e-002
2.080815e+003, 1.938594e-002
2.082744e+003, 1.937112e-002
2.084672e+003, 1.866454e-002
2.086601e+003, 1.804542e-002
2.088529e+003, 1.996325e-002
2.090458e+003, 2.107717e-002
2.092386e+003, 2.001309e-002
2.094315e+003, 1.880974e-002
2.096243e+003, 1.892804e-002
2.098172e+003, 1.977382e-002
2.100100e+003, 2.113187e-002
2.102029e+003, 2.123289e-002
2.103957e+003, 1.979429e-002
2.105885e+003, 1.839315e-002
2.107814e+003, 1.991016e-002
2.109742e+003, 2.076141e-002
2.111671e+003, 2.112614e-002
2.113599e+003, 2.128332e-002
2.115528e+003, 2.027249e-002
2.117456e+003, 2.076397e-002
2.119385e+003, 2.024764e-002
2.121313e+003, 1.985818e-002
2.123242e+003, 2.007760e-002
2.125170e+003, 1.961049e-002
2.127099e+003, 1.854981e-002
2.129027e+003, 1.619194e-002
2.130956e+003, 1.588612e-002
2.132884e+003, 1.936135e-002
2.134813e+003, 1.890472e-002
2.136741e+003, 1.776056e-002
2.138669e+003, 1.634461e-002
2.140598e+003, 1.737888e-002
2.142526e+003, 1.908933e-002
2.144455e+003, 2.149463e-002
2.146383e+003, 2.195080e-002
2.148312e+003, 1.944136e-002
2.150240e+003, 1.771700e-002
2.152169e+003, 1.803273e-002
2.154097e+003, 1.769124e-002
2.156026e+003, 1.587616e-002
2.157954e+003, 1.740993e-002
2.159883e+003, 2.142255e-002
2.161811e+003, 2.550012e-002
2.163740e+003, 2.512567e-002
2.165668e+003, 2.246516e-002
2.167596e+003, 2.378693e-002
2.169525e+003, 2.310517e-002
2.171453e+003, 2.147408e-002
2.173382e+003, 2.221047e-002
2.175310e+003, 1.991629e-002
2.177239e+003, 1.991427e-002
2.179167e+003, 1.981563e-002
2.181096e+003, 1.883270e-002
2.183024e+003, 1.696587e-002
2.184953e+003, 1.739723e-002
2.186881e+003, 2.067516e-002
2.188810e+003, 2.271228e-002
2.190738e+003, 2.273875e-002
2.192667e+003, 2.420303e-002
2.194595e+003, 2.454331e-002
2.196523e+003, 2.323317e-002
2.198452e+003, 2.324797e-002
2.200380e+003, 2.172778e-002
2.202309e+003, 2.230820e-002
2.204237e+003, 2.337299e-002
2.206166e+003, 2.226991e-002
2.208094e+003, 2.252296e-002
2.210023e+003, 2.369647e-002
2.211951e+003, 2.202297e-002
2.213880e+003, 2.120581e-002
2.215808e+003, 2.288844e-002
2.217737e+003, 2.400871e-002
2.219665e+003, 2.233421e-002
2.221594e+003, 2.120355e-002
2.223522e+003, 2.342046e-002
2.225450e+003, 2.347734e-002
2.227379e+003, 2.259599e-002
2.229307e+003, 2.211408e-002
2.231236e+003, 2.236552e-002
2.233164e+003, 2.259742e-002
2.235093e+003, 2.339659e-002
2.237021e+003, 2.394524e-002
2.238950e+003, 2.260350e-002
2.240878e+003, 2.333295e-002
2.242807e+003, 2.430541e-002
2.244735e+003, 2.271428e-002
2.246664e+003, 2.150340e-002
2.248592e+003, 2.283446e-002
2.250521e+003, 2.366159e-002
2.252449e+003, 2.359639e-002
2.254377e+003, 2.378166e-002
2.256306e+003, 2.427098e-002
2.258234e+003, 2.410428e-002
2.260163e+003, 2.253693e-002
2.262091e+003, 2.190655e-002
2.264020e+003, 2.283725e-002
2.265948e+003, 2.373780e-002
2.267877e+003, 2.456900e-002
2.269805e+003, 2.373021e-002
2.271734e+003, 2.368145e-002
2.273662e+003, 2.545198e-002
2.275591e+003, 2.676035e-002
2.277519e+003, 2.674271e-002
2.279448e+003, 2.630267e-002
2.281376e+003, 2.573832e-002
2.283304e+003, 2.510255e-002
2.285233e+003, 2.577212e-002
2.287161e+003, 2.565294e-002
2.289090e+003, 2.526667e-002
2.291018e+003, 2.610260e-002
2.292947e+003, 2.631825e-002
2.294875e+003, 2.531407e-002
2.296804e+003, 2.474445e-002
2.298732e+003, 2.550092e-002
2.300661e+003, 2.659403e-002
2.302589e+003, 2.664202e-002
2.304518e+003, 2.625993e-002
2.306446e+003, 2.572143e-002
2.308375e+003, 2.557799e-002
2.310303e+003, 2.684559e-002
2.312231e+003, 2.646817e-002
2.314160e+003, 2.538539e-002
2.316088e+003, 2.506565e-002
2.318017e+003, 2.590539e-002
2.319945e+003, 2.757785e-002
2.321874e+003, 2.823098e-002
2.323802e+003, 2.863814e-002
2.325731e+003, 2.741143e-002
2.327659e+003, 2.514952e-002
2.329588e+003, 2.488093e-002
2.331516e+003, 2.492006e-002
2.333445e+003, 2.468150e-002
2.335373e+003, 2.530046e-002
2.337302e+003, 2.588851e-002
2.339230e+003, 2.539303e-002
2.341158e+003, 2.544307e-002
2.343087e+003, 2.592711e-002
2.345015e+003, 2.646658e-002
2.346944e+003, 2.660575e-002
2.348872e+003, 2.613444e-002
2.350801e+003, 2.562669e-002
2.352729e+003, 2.599494e-002
2.354658e+003, 2.589453e-002
2.356586e+003, 2.531583e-002
2.358515e+003, 2.509682e-002
2.360443e+003, 2.471058e-002
2.362372e+003, 2.458372e-002
2.364300e+003, 2.524951e-002
2.366229e+003, 2.602354e-002
2.368157e+003, 2.594223e-002
2.370085e+003, 2.618566e-002
2.372014e+003, 2.627606e-002
2.373942e+003, 2.647907e-002
2.375871e+003, 2.651819e-002
2.377799e+003, 2.651150e-002
2.379728e+003, 2.595165e-002
2.381656e+003, 2.598167e-002
2.383585e+003, 2.581532e-002
2.385513e+003, 2.598800e-002
2.387442e+003, 2.625376e-002
2.389370e+003, 2.630152e-002
2.391299e+003, 2.648245e-002
2.393227e+003, 2.613148e-002
2.395156e+003, 2.646712e-002
2.397084e+003, 2.670003e-002
2.399012e+003, 2.652222e-002
2.400941e+003, 2.648796e-002
2.402869e+003, 2.594166e-002
2.404798e+003, 2.586258e-002
2.406726e+003, 2.639426e-002
2.408655e+003, 2.674302e-002
2.410583e+003, 2.648669e-002
2.412512e+003, 2.663636e-002
2.414440e+003, 2.677525e-002
2.416369e+003, 2.627866e-002
2.418297e+003, 2.605302e-002
2.420226e+003, 2.626856e-002
2.422154e+003, 2.734979e-002
2.424083e+003, 2.709512e-002
2.426011e+003, 2.713540e-002
2.427939e+003, 2.762065e-002
2.429868e+003, 2.732436e-002
2.431796e+003, 2.739739e-002
2.433725e+003, 2.769954e-002
2.435653e+003, 2.798920e-002
2.437582e+003, 2.796649e-002
2.439510e+003, 2.746937e-002
2.441439e+003, 2.618599e-002
2.443367e+003, 2.689482e-002
2.445296e+003, 2.770141e-002
2.447224e+003, 2.789389e-002
2.449153e+003, 2.868384e-002
2.451081e+003, 2.786757e-002
2.453010e+003, 2.716303e-002
2.454938e+003, 2.785498e-002
2.456866e+003, 2.821508e-002
2.458795e+003, 2.830566e-002
2.460723e+003, 2.810434e-002
2.462652e+003, 2.793119e-002
2.464580e+003, 2.757233e-002
2.466509e+003, 2.718132e-002
2.468437e+003, 2.737473e-002
2.470366e+003, 2.744255e-002
2.472294e+003, 2.719374e-002
2.474223e+003, 2.787546e-002
2.476151e+003, 2.799832e-002
2.478080e+003, 2.758519e-002
2.480008e+003, 2.732697e-002
2.481937e+003, 2.652376e-002
2.483865e+003, 2.745051e-002
2.485793e+003, 2.786425e-002
2.487722e+003, 2.720417e-002
2.489650e+003, 2.666825e-002
2.491579e+003, 2.650099e-002
2.493507e+003, 2.617205e-002
2.495436e+003, 2.632910e-002
2.497364e+003, 2.782660e-002
2.499293e+003, 2.803486e-002
2.501221e+003, 2.836099e-002
2.503150e+003, 2.887478e-002
2.505078e+003, 2.859925e-002
2.507007e+003, 2.895723e-002
2.508935e+003, 2.958556e-002
2.510864e+003, 2.942512e-002
2.512792e+003, 2.854227e-002
2.514720e+003, 2.791211e-002
2.516649e+003, 2.719705e-002
2.518577e+003, 2.802444e-002
2.520506e+003, 2.896720e-002
2.522434e+003, 2.923114e-002
2.524363e+003, 2.929034e-002
2.526291e+003, 2.934521e-002
2.528220e+003, 3.011281e-002
2.530148e+003, 2.974569e-002
2.532077e+003, 2.883306e-002
2.534005e+003, 2.887786e-002
2.535934e+003, 2.859004e-002
2.537862e+003, 2.863845e-002
2.539791e+003, 2.868828e-002
2.541719e+003, 2.778834e-002
2.543647e+003, 2.908007e-002
2.545576e+003, 3.050801e-002
2.547504e+003, 2.966706e-002
2.549433e+003, 2.797750e-002
2.551361e+003, 2.831144e-002
2.553290e+003, 2.932990e-002
2.555218e+003, 2.923035e-002
2.557147e+003, 2.891824e-002
2.559075e+003, 2.897895e-002
2.561004e+003, 2.779992e-002
2.562932e+003, 2.704081e-002
2.564861e+003, 2.755262e-002
2.566789e+003, 2.850854e-002
2.568718e+003, 2.972684e-002
2.570646e+003, 3.046451e-002
2.572574e+003, 2.992320e-002
2.574503e+003, 2.983436e-002
2.576431e+003, 2.964736e-002
2.578360e+003, 2.880894e-002
2.580288e+003, 2.866181e-002
2.582217e+003, 2.973660e-002
2.584145e+003, 2.983469e-002
2.586074e+003, 2.878119e-002
2.588002e+003, 2.917063e-002
2.589931e+003, 3.095623e-002
2.591859e+003, 3.067469e-002
2.593788e+003, 2.941756e-002
2.595716e+003, 2.959587e-002
2.597645e+003, 3.033787e-002
2.599573e+003, 3.064835e-002
2.601501e+003, 3.071094e-002
2.603430e+003, 3.093060e-002
2.605358e+003, 3.097001e-002
2.607287e+003, 3.168160e-002
2.609215e+003, 3.171855e-002
2.611144e+003, 3.128093e-002
2.613072e+003, 3.138485e-002
2.615001e+003, 3.151215e-002
2.616929e+003, 3.088523e-002
2.618858e+003, 3.146505e-002
2.620786e+003, 3.255714e-002
2.622715e+003, 3.220164e-002
2.624643e+003, 3.126932e-002
2.626572e+003, 3.112477e-002
2.628500e+003, 3.147856e-002
2.630428e+003, 3.252178e-002
2.632357e+003, 3.222251e-002
2.634285e+003, 3.119806e-002
2.636214e+003, 3.136642e-002
2.638142e+003, 3.166197e-002
2.640071e+003, 3.168035e-002
2.641999e+003, 3.138010e-002
2.643928e+003, 3.110315e-002
2.645856e+003, 3.192751e-002
2.647785e+003, 3.238925e-002
2.649713e+003, 3.222945e-002
2.651642e+003, 3.228399e-002
2.653570e+003, 3.203596e-002
2.655499e+003, 3.179727e-002
2.657427e+003, 3.193886e-002
2.659355e+003, 3.156669e-002
2.661284e+003, 3.139077e-002
2.663212e+003, 3.176882e-002
2.665141e+003, 3.224502e-002
2.667069e+003, 3.261070e-002
2.668998e+003, 3.193201e-002
2.670926e+003, 3.104701e-002
2.672855e+003, 3.112601e-002
2.674783e+003, 3.157932e-002
2.676712e+003, 3.191144e-002
2.678640e+003, 3.205942e-002
2.680569e+003, 3.173141e-002
2.682497e+003, 3.178785e-002
2.684426e+003, 3.163376e-002
2.686354e+003, 3.169279e-002
2.688282e+003, 3.188094e-002
2.690211e+003, 3.182476e-002
2.692139e+003, 3.190826e-002
2.694068e+003, 3.156084e-002
2.695996e+003, 3.172284e-002
2.697925e+003, 3.194715e-002
2.699853e+003, 3.226641e-002
2.701782e+003, 3.287585e-002
2.703710e+003, 3.252119e-002
2.705639e+003, 3.232965e-002
2.707567e+003, 3.265696e-002
2.709496e+003, 3.325403e-002
2.711424e+003, 3.307699e-002
2.713353e+003, 3.229375e-002
2.715281e+003, 3.271854e-002
2.717209e+003, 3.274910e-002
2.719138e+003, 3.280309e-002
2.721066e+003, 3.277973e-002
2.722995e+003, 3.337460e-002
2.724923e+003, 3.335970e-002
2.726852e+003, 3.275003e-002
2.728780e+003, 3.226793e-002
2.730709e+003, 3.227577e-002
2.732637e+003, 3.310820e-002
2.734566e+003, 3.345966e-002
2.736494e+003, 3.338478e-002
2.738423e+003, 3.318846e-002
2.740351e+003, 3.189999e-002
2.742280e+003, 3.149720e-002
2.744208e+003, 3.261202e-002
2.746136e+003, 3.290803e-002
2.748065e+003, 3.295810e-002
2.749993e+003, 3.315565e-002
2.751922e+003, 3.340458e-002
2.753850e+003, 3.358198e-002
2.755779e+003, 3.311604e-002
2.757707e+003, 3.214070e-002
2.759636e+003, 3.215500e-002
2.761564e+003, 3.270337e-002
2.763493e+003, 3.336040e-002
2.765421e+003, 3.347968e-002
2.767350e+003, 3.376668e-002
2.769278e+003, 3.400691e-002
2.771207e+003, 3.353575e-002
2.773135e+003, 3.334473e-002
2.775063e+003, 3.323029e-002
2.776992e+003, 3.346395e-002
2.778920e+003, 3.360751e-002
2.780849e+003, 3.308107e-002
2.782777e+003, 3.279171e-002
2.784706e+003, 3.332081e-002
2.786634e+003, 3.441420e-002
2.788563e+003, 3.485655e-002
2.790491e+003, 3.449294e-002
2.792420e+003, 3.463702e-002
2.794348e+003, 3.413820e-002
2.796277e+003, 3.466560e-002
2.798205e+003, 3.539797e-002
2.800134e+003, 3.483762e-002
2.802062e+003, 3.427035e-002
2.803990e+003, 3.425638e-002
2.805919e+003, 3.404904e-002
2.807847e+003, 3.436704e-002
2.809776e+003, 3.423342e-002
2.811704e+003, 3.353574e-002
2.813633e+003, 3.321422e-002
2.815561e+003, 3.376759e-002
2.817490e+003, 3.490370e-002
2.819418e+003, 3.514013e-002
2.821347e+003, 3.477682e-002
2.823275e+003, 3.519177e-002
2.825204e+003, 3.584340e-002
2.827132e+003, 3.530550e-002
2.829061e+003, 3.420291e-002
2.830989e+003, 3.377058e-002
2.832917e+003, 3.422328e-002
2.834846e+003, 3.404349e-002
2.836774e+003, 3.451847e-002
2.838703e+003, 3.576367e-002
2.840631e+003, 3.579009e-002
2.842560e+003, 3.518810e-002
2.844488e+003, 3.550216e-002
2.846417e+003, 3.518336e-002
2.848345e+003, 3.456338e-002
2.850274e+003, 3.493917e-002
2.852202e+003, 3.583986e-002
2.854131e+003, 3.579450e-002
2.856059e+003, 3.542513e-002
2.857988e+003, 3.506743e-002
2.859916e+003, 3.480133e-002
2.861844e+003, 3.536898e-002
2.863773e+003, 3.600020e-002
2.865701e+003, 3.636365e-002
2.867630e+003, 3.628804e-002
2.869558e+003, 3.673501e-002
2.871487e+003, 3.615192e-002
2.873415e+003, 3.582352e-002
2.875344e+003, 3.564550e-002
2.877272e+003, 3.584462e-002
2.879201e+003, 3.624894e-002
2.881129e+003, 3.601184e-002
2.883058e+003, 3.641374e-002
2.884986e+003, 3.711063e-002
2.886915e+003, 3.680944e-002
2.888843e+003, 3.546464e-002
2.890771e+003, 3.532792e-002
2.892700e+003, 3.602755e-002
2.894628e+003, 3.595445e-002
2.896557e+003, 3.610107e-002
2.898485e+003, 3.716903e-002
2.900414e+003, 3.668430e-002
2.902342e+003, 3.562225e-002
2.904271e+003, 3.603976e-002
2.906199e+003, 3.642124e-002
2.908128e+003, 3.656175e-002
2.910056e+003, 3.676029e-002
2.911985e+003, 3.737603e-002
2.913913e+003, 3.778540e-002
2.915842e+003, 3.722125e-002
2.917770e+003, 3.721829e-002
2.919698e+003, 3.743060e-002
2.921627e+003, 3.805409e-002
2.923555e+003, 3.770375e-002
2.925484e+003, 3.703592e-002
2.927412e+003, 3.668009e-002
2.929341e+003, 3.730301e-002
2.931269e+003, 3.832752e-002
2.933198e+003, 3.752988e-002
2.935126e+003, 3.710582e-002
2.937055e+003, 3.801719e-002
2.938983e+003, 3.807657e-002
2.940912e+003, 3.764444e-002
2.942840e+003, 3.728496e-002
2.944769e+003, 3.678409e-002
2.946697e+003, 3.752635e-002
2.948625e+003, 3.841028e-002
2.950554e+003, 3.819042e-002
2.952482e+003, 3.802077e-002
2.954411e+003, 3.727393e-002
2.956339e+003, 3.736149e-002
2.958268e+003, 3.753482e-002
2.960196e+003, 3.721495e-002
2.962125e+003, 3.712797e-002
2.964053e+003, 3.709058e-002
2.965982e+003, 3.717611e-002
2.967910e+003, 3.821003e-002
2.969839e+003, 3.888598e-002
2.971767e+003, 3.838191e-002
2.973696e+003, 3.773108e-002
2.975624e+003, 3.753578e-002
2.977552e+003, 3.739507e-002
2.979481e+003, 3.731849e-002
2.981409e+003, 3.730635e-002
2.983338e+003, 3.744056e-002
2.985266e+003, 3.827658e-002
2.987195e+003, 3.810140e-002
2.989123e+003, 3.825973e-002
2.991052e+003, 3.840302e-002
2.992980e+003, 3.789694e-002
2.994909e+003, 3.716838e-002
2.996837e+003, 3.706808e-002
2.998766e+003, 3.729068e-002
3.000694e+003, 3.683603e-002
3.002623e+003, 3.664869e-002
3.004551e+003, 3.832760e-002
3.006479e+003, 3.952704e-002
3.008408e+003, 3.851108e-002
3.010336e+003, 3.793966e-002
3.012265e+003, 3.807823e-002
3.014193e+003, 3.740875e-002
3.016122e+003, 3.779316e-002
3.018050e+003, 3.773941e-002
3.019979e+003, 3.745316e-002
3.021907e+003, 3.703310e-002
3.023836e+003, 3.736667e-002
3.025764e+003, 3.815516e-002
3.027693e+003, 3.891800e-002
3.029621e+003, 3.947964e-002
3.031550e+003, 3.970207e-002
3.033478e+003, 3.869754e-002
3.035406e+003, 3.788295e-002
3.037335e+003, 3.779423e-002
3.039263e+003, 3.865251e-002
3.041192e+003, 3.765507e-002
3.043120e+003, 3.765041e-002
3.045049e+003, 3.824691e-002
3.046977e+003, 3.840821e-002
3.048906e+003, 3.840871e-002
3.050834e+003, 3.839731e-002
3.052763e+003, 3.856559e-002
3.054691e+003, 3.925097e-002
3.056620e+003, 3.918937e-002
3.058548e+003, 3.873373e-002
3.060477e+003, 3.885202e-002
3.062405e+003, 3.932406e-002
3.064333e+003, 3.940310e-002
3.066262e+003, 3.920156e-002
3.068190e+003, 4.019084e-002
3.070119e+003, 4.153722e-002
3.072047e+003, 4.145526e-002
3.073976e+003, 4.066211e-002
3.075904e+003, 4.091543e-002
3.077833e+003, 4.141509e-002
3.079761e+003, 4.049354e-002
3.081690e+003, 4.004863e-002
3.083618e+003, 4.029005e-002
3.085547e+003, 4.018777e-002
3.087475e+003, 3.987508e-002
3.089404e+003, 3.898969e-002
3.091332e+003, 3.925427e-002
3.093260e+003, 4.170588e-002
3.095189e+003, 4.153852e-002
3.097117e+003, 3.865270e-002
3.099046e+003, 3.876533e-002
3.100974e+003, 3.945478e-002
3.102903e+003, 3.926813e-002
3.104831e+003, 3.995988e-002
3.106760e+003, 3.976766e-002
3.108688e+003, 3.970154e-002
3.110617e+003, 3.946275e-002
3.112545e+003, 3.915064e-002
3.114474e+003, 3.937387e-002
3.116402e+003, 3.998914e-002
3.118331e+003, 4.032201e-002
3.120259e+003, 4.037038e-002
3.122188e+003, 4.032275e-002
3.124116e+003, 3.983343e-002
3.126044e+003, 3.970571e-002
3.127973e+003, 4.092043e-002
3.129901e+003, 4.209657e-002
3.131830e+003, 4.163078e-002
3.133758e+003, 4.083015e-002
3.135687e+003, 4.015623e-002
3.137615e+003, 4.092518e-002
3.139544e+003, 4.210481e-002
3.141472e+003, 4.207935e-002
3.143401e+003, 4.223269e-002
3.145329e+003, 4.135329e-002
3.147258e+003, 4.002637e-002
3.149186e+003, 4.059952e-002
3.151115e+003, 4.102734e-002
3.153043e+003, 4.152868e-002
3.154971e+003, 4.298464e-002
3.156900e+003, 4.253393e-002
3.158828e+003, 4.189977e-002
3.160757e+003, 4.191682e-002
3.162685e+003, 4.131255e-002
3.164614e+003, 4.175718e-002
3.166542e+003, 4.219941e-002
3.168471e+003, 4.159803e-002
3.170399e+003, 4.093057e-002
3.172328e+003, 4.040020e-002
3.174256e+003, 3.953683e-002
3.176185e+003, 4.014742e-002
3.178113e+003, 4.144647e-002
3.180042e+003, 4.242886e-002
3.181970e+003, 4.268097e-002
3.183898e+003, 4.284165e-002
3.185827e+003, 4.205634e-002
3.187755e+003, 4.215051e-002
3.189684e+003, 4.329259e-002
3.191612e+003, 4.334985e-002
3.193541e+003, 4.274024e-002
3.195469e+003, 4.203193e-002
3.197398e+003, 4.193587e-002
3.199326e+003, 4.155260e-002
3.201255e+003, 4.136072e-002
3.203183e+003, 4.181246e-002
3.205112e+003, 4.244143e-002
3.207040e+003, 4.302415e-002
3.208969e+003, 4.216993e-002
3.210897e+003, 4.235428e-002
3.212825e+003, 4.323187e-002
3.214754e+003, 4.337143e-002
3.216682e+003, 4.163197e-002
3.218611e+003, 4.069095e-002
3.220539e+003, 4.194225e-002
3.222468e+003, 4.375242e-002
3.224396e+003, 4.333214e-002
3.226325e+003, 4.287299e-002
3.228253e+003, 4.354219e-002
3.230182e+003, 4.373183e-002
3.232110e+003, 4.326383e-002
3.234039e+003, 4.312820e-002
3.235967e+003, 4.294518e-002
3.237896e+003, 4.229587e-002
3.239824e+003, 4.278123e-002
3.241752e+003, 4.281101e-002
3.243681e+003, 4.231650e-002
3.245609e+003, 4.247676e-002
3.247538e+003, 4.242038e-002
3.249466e+003, 4.231199e-002
3.251395e+003, 4.304697e-002
3.253323e+003, 4.361537e-002
3.255252e+003, 4.284018e-002
3.257180e+003, 4.222962e-002
3.259109e+003, 4.287491e-002
3.261037e+003, 4.444299e-002
3.262966e+003, 4.504059e-002
3.264894e+003, 4.382193e-002
3.266823e+003, 4.291916e-002
3.268751e+003, 4.374189e-002
3.270679e+003, 4.555500e-002
3.272608e+003, 4.462139e-002
3.274536e+003, 4.239696e-002
3.276465e+003, 4.264363e-002
3.278393e+003, 4.386263e-002
3.280322e+003, 4.333504e-002
3.282250e+003, 4.298813e-002
3.284179e+003, 4.377374e-002
3.286107e+003, 4.384738e-002
3.288036e+003, 4.320572e-002
3.289964e+003, 4.334308e-002
3.291893e+003, 4.346294e-002
3.293821e+003, 4.308883e-002
3.295750e+003, 4.278187e-002
3.297678e+003, 4.281298e-002
3.299606e+003, 4.172888e-002
3.301535e+003, 4.149741e-002
3.303463e+003, 4.279111e-002
3.305392e+003, 4.449823e-002
3.307320e+003, 4.423847e-002
3.309249e+003, 4.347067e-002
3.311177e+003, 4.352495e-002
3.313106e+003, 4.525490e-002
3.315034e+003, 4.645784e-002
3.316963e+003, 4.580295e-002
3.318891e+003, 4.498830e-002
3.320820e+003, 4.353943e-002
3.322748e+003, 4.401674e-002
3.324677e+003, 4.500058e-002
3.326605e+003, 4.425489e-002
3.328533e+003, 4.342245e-002
3.330462e+003, 4.307649e-002
3.332390e+003, 4.378377e-002
3.334319e+003, 4.493803e-002
3.336247e+003, 4.440904e-002
3.338176e+003, 4.492942e-002
3.340104e+003, 4.546117e-002
3.342033e+003, 4.359297e-002
3.343961e+003, 4.432951e-002
3.345890e+003, 4.573829e-002
3.347818e+003, 4.575973e-002
3.349747e+003, 4.563605e-002
3.351675e+003, 4.617923e-002
3.353604e+003, 4.532597e-002
3.355532e+003, 4.522358e-002
3.357460e+003, 4.488929e-002
3.359389e+003, 4.444222e-002
3.361317e+003, 4.532499e-002
3.363246e+003, 4.461215e-002
3.365174e+003, 4.299519e-002
3.367103e+003, 4.204284e-002
3.369031e+003, 4.233509e-002
3.370960e+003, 4.343805e-002
3.372888e+003, 4.366369e-002
3.374817e+003, 4.407441e-002
3.376745e+003, 4.382440e-002
3.378674e+003, 4.414347e-002
3.380602e+003, 4.325298e-002
3.382531e+003, 4.348071e-002
3.384459e+003, 4.381047e-002
3.386387e+003, 4.567670e-002
3.388316e+003, 4.575853e-002
3.390244e+003, 4.360127e-002
3.392173e+003, 4.369797e-002
3.394101e+003, 4.528710e-002
3.396030e+003, 4.538234e-002
3.397958e+003, 4.576727e-002
3.399887e+003, 4.456958e-002
3.401815e+003, 4.344905e-002
3.403744e+003, 4.408427e-002
3.405672e+003, 4.426493e-002
3.407601e+003, 4.474786e-002
3.409529e+003, 4.543039e-002
3.411458e+003, 4.593731e-002
3.413386e+003, 4.653643e-002
3.415314e+003, 4.599474e-002
3.417243e+003, 4.486117e-002
3.419171e+003, 4.418850e-002
3.421100e+003, 4.345712e-002
3.423028e+003, 4.239229e-002
3.424957e+003, 4.224758e-002
3.426885e+003, 4.118326e-002
3.428814e+003, 4.084066e-002
3.430742e+003, 4.263416e-002
3.432671e+003, 4.288520e-002
3.434599e+003, 4.330346e-002
3.436528e+003, 4.337021e-002
3.438456e+003, 4.465206e-002
3.440385e+003, 4.521878e-002
3.442313e+003, 4.463422e-002
3.444241e+003, 4.566512e-002
3.446170e+003, 4.731971e-002
3.448098e+003, 4.586267e-002
3.450027e+003, 4.271725e-002
3.451955e+003, 4.373577e-002
3.453884e+003, 4.575272e-002
3.455812e+003, 4.529705e-002
3.457741e+003, 4.447499e-002
3.459669e+003, 4.403912e-002
3.461598e+003, 4.444273e-002
3.463526e+003, 4.351578e-002
3.465455e+003, 4.153038e-002
3.467383e+003, 4.144980e-002
3.469312e+003, 4.158878e-002
3.471240e+003, 4.162679e-002
3.473168e+003, 4.441243e-002
3.475097e+003, 4.494519e-002
3.477025e+003, 4.249699e-002
3.478954e+003, 4.222122e-002
3.480882e+003, 4.377053e-002
3.482811e+003, 4.400624e-002
3.484739e+003, 4.304690e-002
3.486668e+003, 4.217466e-002
3.488596e+003, 4.245795e-002
3.490525e+003, 4.348002e-002
3.492453e+003, 4.438018e-002
3.494382e+003, 4.507784e-002
3.496310e+003, 4.497920e-002
3.498239e+003, 4.484104e-002
3.500167e+003, 4.361697e-002
3.502095e+003, 4.181228e-002
3.504024e+003, 4.128167e-002
3.505952e+003, 4.137947e-002
3.507881e+003, 4.247021e-002
3.509809e+003, 4.388613e-002
3.511738e+003, 4.387515e-002
3.513666e+003, 4.469266e-002
3.515595e+003, 4.507792e-002
3.517523e+003, 4.437656e-002
3.519452e+003, 4.353485e-002
3.521380e+003, 4.477084e-002
3.523309e+003, 4.413350e-002
3.525237e+003, 4.426274e-002
3.527166e+003, 4.437248e-002
3.529094e+003, 4.350302e-002
3.531022e+003, 4.475923e-002
3.532951e+003, 4.560252e-002
3.534879e+003, 4.497274e-002
3.536808e+003, 4.460285e-002
3.538736e+003, 4.307529e-002
3.540665e+003, 4.183715e-002
3.542593e+003, 4.210988e-002
3.544522e+003, 4.348406e-002
3.546450e+003, 4.174203e-002
3.548379e+003, 4.081889e-002
3.550307e+003, 4.105018e-002
3.552236e+003, 4.079631e-002
3.554164e+003, 4.191099e-002
3.556093e+003, 4.255240e-002
3.558021e+003, 4.351846e-002
3.559949e+003, 4.345725e-002
3.561878e+003, 4.295407e-002
3.563806e+003, 4.293095e-002
3.565735e+003, 4.292782e-002
3.567663e+003, 4.244019e-002
3.569592e+003, 4.247359e-002
3.571520e+003, 4.236592e-002
3.573449e+003, 4.117525e-002
3.575377e+003, 4.227288e-002
3.577306e+003, 4.336291e-002
3.579234e+003, 4.157247e-002
3.581163e+003, 4.139489e-002
3.583091e+003, 4.286253e-002
3.585020e+003, 4.159855e-002
3.586948e+003, 3.920463e-002
3.588876e+003, 3.857441e-002
3.590805e+003, 3.839904e-002
3.592733e+003, 3.815810e-002
3.594662e+003, 3.952127e-002
3.596590e+003, 4.329108e-002
3.598519e+003, 4.286166e-002
3.600447e+003, 4.005014e-002
3.602376e+003, 3.882131e-002
3.604304e+003, 3.875946e-002
3.606233e+003, 3.943329e-002
3.608161e+003, 4.138544e-002
3.610090e+003, 4.325325e-002
3.612018e+003, 4.124696e-002
3.613947e+003, 3.911971e-002
3.615875e+003, 4.077338e-002
3.617803e+003, 4.234860e-002
3.619732e+003, 4.164623e-002
3.621660e+003, 4.109641e-002
3.623589e+003, 4.322653e-002
3.625517e+003, 4.319682e-002
3.627446e+003, 3.906524e-002
3.629374e+003, 3.613891e-002
3.631303e+003, 3.874247e-002
3.633231e+003, 4.027206e-002
3.635160e+003, 4.078998e-002
3.637088e+003, 4.192661e-002
3.639017e+003, 4.282832e-002
3.640945e+003, 4.220176e-002
3.642874e+003, 4.150699e-002
3.644802e+003, 4.159182e-002
3.646730e+003, 4.030716e-002
3.648659e+003, 3.991519e-002
3.650587e+003, 4.093640e-002
3.652516e+003, 4.139039e-002
3.654444e+003, 3.918545e-002
3.656373e+003, 3.839284e-002
3.658301e+003, 4.229052e-002
3.660230e+003, 4.496394e-002
3.662158e+003, 4.402279e-002
3.664087e+003, 4.182747e-002
3.666015e+003, 3.943926e-002
3.667944e+003, 3.830181e-002
3.669872e+003, 3.770626e-002
3.671801e+003, 3.935821e-002
3.673729e+003, 3.836435e-002
3.675657e+003, 3.558723e-002
3.677586e+003, 3.652471e-002
3.679514e+003, 3.982221e-002
3.681443e+003, 4.194934e-002
3.683371e+003, 4.303249e-002
3.685300e+003, 4.156212e-002
3.687228e+003, 3.882072e-002
3.689157e+003, 3.895524e-002
3.691085e+003, 3.792848e-002
3.693014e+003, 3.742615e-002
3.694942e+003, 3.957916e-002
3.696871e+003, 4.118292e-002
3.698799e+003, 3.999184e-002
3.700728e+003, 3.823625e-002
3.702656e+003, 3.949657e-002
3.704584e+003, 3.988930e-002
3.706513e+003, 4.111268e-002
3.708441e+003, 4.161680e-002
3.710370e+003, 4.041065e-002
3.712298e+003, 4.060912e-002
3.714227e+003, 4.195770e-002
3.716155e+003, 4.239354e-002
3.718084e+003, 4.411397e-002
3.720012e+003, 4.422223e-002
3.721941e+003, 4.309155e-002
3.723869e+003, 4.277329e-002
3.725798e+003, 4.229495e-002
3.727726e+003, 4.167353e-002
3.729655e+003, 4.062093e-002
3.731583e+003, 4.102930e-002
3.733511e+003, 4.242454e-002
3.735440e+003, 4.231624e-002
3.737368e+003, 4.192809e-002
3.739297e+003, 4.301894e-002
3.741225e+003, 4.210149e-002
3.743154e+003, 3.776138e-002
3.745082e+003, 3.743022e-002
3.747011e+003, 3.899698e-002
3.748939e+003, 3.741576e-002
3.750868e+003, 3.812849e-002
3.752796e+003, 4.024017e-002
3.754725e+003, 4.205871e-002
3.756653e+003, 4.178657e-002
3.758582e+003, 4.187715e-002
3.760510e+003, 4.474911e-002
3.762438e+003, 4.359896e-002
3.764367e+003, 3.932173e-002
3.766295e+003, 4.048124e-002
3.768224e+003, 4.174454e-002
3.770152e+003, 4.070223e-002
3.772081e+003, 4.201127e-002
3.774009e+003, 4.369310e-002
3.775938e+003, 4.390059e-002
3.777866e+003, 4.419111e-002
3.779795e+003, 4.435443e-002
3.781723e+003, 4.492994e-002
3.783652e+003, 4.275521e-002
3.785580e+003, 4.252868e-002
3.787509e+003, 4.194402e-002
3.789437e+003, 4.129020e-002
3.791365e+003, 4.338786e-002
3.793294e+003, 4.387287e-002
3.795222e+003, 4.197358e-002
3.797151e+003, 4.076233e-002
3.799079e+003, 3.940957e-002
3.801008e+003, 3.765309e-002
3.802936e+003, 4.074410e-002
3.804865e+003, 4.196552e-002
3.806793e+003, 4.080210e-002
3.808722e+003, 4.184794e-002
3.810650e+003, 4.161987e-002
3.812579e+003, 4.295217e-002
3.814507e+003, 4.105787e-002
3.816436e+003, 3.907308e-002
3.818364e+003, 3.944857e-002
3.820292e+003, 3.845419e-002
3.822221e+003, 3.998587e-002
3.824149e+003, 4.431901e-002
3.826078e+003, 4.395939e-002
3.828006e+003, 4.220619e-002
3.829935e+003, 4.238691e-002
3.831863e+003, 4.250750e-002
3.833792e+003, 4.293878e-002
3.835720e+003, 4.277547e-002
3.837649e+003, 4.125743e-002
3.839577e+003, 4.089766e-002
3.841506e+003, 4.300350e-002
3.843434e+003, 4.251175e-002
3.845363e+003, 4.210248e-002
3.847291e+003, 4.334219e-002
3.849219e+003, 4.305321e-002
3.851148e+003, 3.915478e-002
3.853076e+003, 3.507086e-002
3.855005e+003, 3.834285e-002
3.856933e+003, 4.374672e-002
3.858862e+003, 4.225946e-002
3.860790e+003, 4.189348e-002
3.862719e+003, 4.141570e-002
3.864647e+003, 4.033291e-002
3.866576e+003, 4.452796e-002
3.868504e+003, 4.475354e-002
3.870433e+003, 4.200981e-002
3.872361e+003, 4.105740e-002
3.874290e+003, 4.208564e-002
3.876218e+003, 4.583959e-002
3.878146e+003, 4.647230e-002
3.880075e+003, 4.211210e-002
3.882003e+003, 4.051549e-002
3.883932e+003, 4.042700e-002
3.885860e+003, 4.028421e-002
3.887789e+003, 4.218948e-002
3.889717e+003, 4.351040e-002
3.891646e+003, 4.587205e-002
3.893574e+003, 4.642709e-002
3.895503e+003, 4.415929e-002
3.897431e+003, 4.277892e-002
3.899360e+003, 4.260876e-002
3.901288e+003, 4.547588e-002
3.903217e+003, 4.597522e-002
3.905145e+003, 4.441603e-002
3.907073e+003, 4.357398e-002
3.909002e+003, 4.463235e-002
3.910930e+003, 4.597420e-002
3.912859e+003, 4.471419e-002
3.914787e+003, 4.380934e-002
3.916716e+003, 4.460291e-002
3.918644e+003, 4.507865e-002
3.920573e+003, 4.515753e-002
3.922501e+003, 4.446441e-002
3.924430e+003, 4.385694e-002
3.926358e+003, 4.406805e-002
3.928287e+003, 4.609184e-002
3.930215e+003, 4.648725e-002
3.932144e+003, 4.394742e-002
3.934072e+003, 4.339755e-002
3.936000e+003, 4.442990e-002
3.937929e+003, 4.454233e-002
3.939857e+003, 4.391322e-002
3.941786e+003, 4.451879e-002
3.943714e+003, 4.507081e-002
3.945643e+003, 4.544401e-002
3.947571e+003, 4.509072e-002
3.949500e+003, 4.456159e-002
3.951428e+003, 4.334489e-002
3.953357e+003, 4.379262e-002
3.955285e+003, 4.576313e-002
3.957214e+003, 4.604387e-002
3.959142e+003, 4.463660e-002
3.961071e+003, 4.282822e-002
3.962999e+003, 4.409719e-002
3.964927e+003, 4.605483e-002
3.966856e+003, 4.660340e-002
3.968784e+003, 4.633884e-002
3.970713e+003, 4.568263e-002
3.972641e+003, 4.598895e-002
3.974570e+003, 4.413353e-002
3.976498e+003, 4.211103e-002
3.978427e+003, 4.230247e-002
3.980355e+003, 4.352681e-002
3.982284e+003, 4.553734e-002
3.984212e+003, 4.719729e-002
3.986141e+003, 4.649903e-002
3.988069e+003, 4.478440e-002
3.989998e+003, 4.341412e-002
3.991926e+003, 4.282572e-002
3.993854e+003, 4.297337e-002
3.995783e+003, 4.502007e-002
3.997711e+003, 4.590116e-002
3.999640e+003, 4.533257e-002
4.001568e+003, 0.000000e+000
##END=



