##NAMES=Meta-autunite
##RRUFFID=R050612
##IDEAL CHEMISTRY=Ca(U^6+^O_2_)_2_(PO_4_)_2_&#183;6H_2_O
##LOCALITY=Daybreak mine, Mt. Spokane, Spokane County, Washington, USA
##OWNER=RRUFF
##SOURCE=Dave Bunk Minerals
##DESCRIPTION=Green thin tabular crystal
##STATUS=The identification of this mineral has been confirmed by X-ray diffraction and chemical analysis
##URL=rruff.info/R050612
##MEASURED CHEMISTRY=(Ca_0.85_[box]_0.15_)_Σ=1_(U_1.00_O_2_)_2_(P_1.00_O_4_)_2_·3((H_2_O)_0.90_(H_3_O)^+^_0.10_)
399.1926, 0.1309976
401.1211, 0.1337084
403.0496, 0.1343512
404.9780, 0.1284925
406.9065, 0.1259074
408.8350, 0.1282483
410.7634, 0.1310539
412.6919, 0.1305592
414.6204, 0.1319961
416.5488, 0.1324951
418.4773, 0.1317216
420.4058, 0.1338678
422.3342, 0.1367958
424.2627, 0.1357480
426.1912, 0.1355880
428.1196, 0.1351027
430.0481, 0.1342573
431.9766, 0.1357433
433.9050, 0.1366624
435.8335, 0.1361840
437.7620, 0.1365261
439.6904, 0.1389676
441.6189, 0.1394463
443.5474, 0.1399381
445.4758, 0.1397956
447.4043, 0.1397386
449.3328, 0.1406313
451.2612, 0.1412044
453.1897, 0.1412810
455.1182, 0.1420471
457.0466, 0.1420785
458.9751, 0.1433332
460.9036, 0.1454117
462.8320, 0.1459410
464.7605, 0.1452930
466.6890, 0.1451413
468.6174, 0.1461951
470.5459, 0.1468154
472.4744, 0.1464973
474.4028, 0.1455697
476.3313, 0.1455779
478.2598, 0.1461702
480.1882, 0.1467683
482.1167, 0.1464410
484.0452, 0.1474809
485.9736, 0.1491779
487.9021, 0.1496634
489.8306, 0.1498609
491.7590, 0.1502368
493.6875, 0.1530463
495.6160, 0.1558470
497.5444, 0.1554272
499.4729, 0.1547472
501.4014, 0.1564636
503.3298, 0.1594126
505.2583, 0.1613963
507.1868, 0.1624388
509.1152, 0.1647871
511.0437, 0.1682082
512.9722, 0.1711318
514.9006, 0.1731119
516.8291, 0.1750181
518.7576, 0.1782737
520.6860, 0.1827604
522.6145, 0.1858483
524.5430, 0.1889284
526.4714, 0.1932126
528.3999, 0.1985284
530.3284, 0.2056294
532.2568, 0.2130068
534.1853, 0.2179774
536.1138, 0.2205587
538.0422, 0.2202818
539.9707, 0.2161089
541.8992, 0.2087219
543.8276, 0.2013527
545.7561, 0.1934959
547.6846, 0.1849814
549.6130, 0.1781040
551.5415, 0.1730746
553.4700, 0.1684968
555.3984, 0.1644323
557.3269, 0.1613040
559.2554, 0.1592813
561.1838, 0.1567011
563.1123, 0.1543623
565.0408, 0.1521733
566.9692, 0.1513925
568.8977, 0.1502220
570.8262, 0.1486435
572.7546, 0.1476695
574.6831, 0.1469537
576.6116, 0.1465362
578.5400, 0.1461455
580.4685, 0.1457172
582.3970, 0.1451253
584.3254, 0.1446483
586.2539, 0.1438869
588.1824, 0.1433388
590.1108, 0.1435779
592.0393, 0.1446057
593.9678, 0.1455927
595.8962, 0.1462960
597.8247, 0.1468022
599.7532, 0.1480035
601.6816, 0.1498951
603.6101, 0.1517362
605.5386, 0.1530337
607.4670, 0.1541139
609.3955, 0.1549828
611.3240, 0.1550318
613.2524, 0.1543693
615.1809, 0.1525773
617.1094, 0.1501320
619.0378, 0.1467839
620.9663, 0.1430004
622.8948, 0.1394121
624.8232, 0.1360310
626.7517, 0.1322130
628.6802, 0.1277029
630.6086, 0.1243279
632.5371, 0.1219211
634.4656, 0.1188911
636.3940, 0.1157866
638.3225, 0.1133310
640.2510, 0.1108887
642.1794, 0.1087999
644.1079, 0.1065739
646.0364, 0.1045677
647.9648, 0.1031616
649.8933, 0.1020274
651.8218, 0.1001641
653.7502, 9.8230191E-02
655.6787, 9.7101130E-02
657.6072, 9.5571987E-02
659.5356, 9.3961403E-02
661.4641, 9.3106180E-02
663.3926, 9.2409924E-02
665.3210, 9.1390438E-02
667.2495, 8.9862011E-02
669.1780, 8.8932469E-02
671.1064, 8.8188469E-02
673.0349, 8.7406397E-02
674.9634, 8.6782947E-02
676.8918, 8.6669877E-02
678.8203, 8.6315081E-02
680.7488, 8.5243993E-02
682.6772, 8.4367633E-02
684.6057, 8.3974063E-02
686.5342, 8.3578020E-02
688.4626, 8.3246887E-02
690.3911, 8.2878880E-02
692.3196, 8.2331598E-02
694.2480, 8.1867121E-02
696.1765, 8.1500113E-02
698.1050, 8.1013553E-02
700.0334, 8.0335163E-02
701.9619, 7.9541117E-02
703.8904, 7.9280570E-02
705.8188, 7.9144008E-02
707.7473, 7.8608833E-02
709.6758, 7.8128330E-02
711.6042, 7.7796564E-02
713.5327, 7.7789523E-02
715.4612, 7.7536732E-02
717.3896, 7.7058367E-02
719.3181, 7.6607198E-02
721.2466, 7.6181479E-02
723.1750, 7.5852171E-02
725.1035, 7.5698808E-02
727.0320, 7.5103663E-02
728.9604, 7.4953608E-02
730.8889, 7.5312920E-02
732.8174, 7.5294651E-02
734.7458, 7.5109653E-02
736.6743, 7.5103603E-02
738.6028, 7.5013407E-02
740.5313, 7.4434377E-02
742.4597, 7.4249417E-02
744.3882, 7.4405096E-02
746.3167, 7.4493907E-02
748.2451, 7.4290879E-02
750.1736, 7.4246712E-02
752.1021, 7.4426576E-02
754.0305, 7.4988887E-02
755.9590, 7.5398497E-02
757.8875, 7.5367279E-02
759.8159, 7.5270802E-02
761.7444, 7.5398877E-02
763.6729, 7.5761542E-02
765.6013, 7.6053627E-02
767.5298, 7.6200351E-02
769.4583, 7.6610528E-02
771.3867, 7.7092379E-02
773.3152, 7.7500299E-02
775.2437, 7.8349449E-02
777.1721, 7.9513647E-02
779.1006, 8.0412522E-02
781.0291, 8.1104137E-02
782.9575, 8.2066476E-02
784.8860, 8.3246022E-02
786.8145, 8.4682897E-02
788.7429, 8.6383313E-02
790.6714, 8.8324688E-02
792.5999, 9.0590723E-02
794.5283, 9.3349203E-02
796.4568, 9.6245907E-02
798.3853, 9.8808408E-02
800.3137, 0.1014855
802.2422, 0.1039568
804.1707, 0.1063366
806.0991, 0.1086086
808.0276, 0.1108042
809.9561, 0.1127076
811.8845, 0.1144185
813.8130, 0.1157703
815.7415, 0.1160960
817.6699, 0.1164308
819.5984, 0.1170028
821.5269, 0.1169422
823.4553, 0.1160107
825.3838, 0.1152320
827.3123, 0.1143982
829.2407, 0.1134361
831.1692, 0.1125314
833.0977, 0.1107920
835.0261, 0.1092137
836.9546, 0.1079313
838.8831, 0.1069584
840.8115, 0.1060814
842.7400, 0.1059564
844.6685, 0.1062988
846.5969, 0.1065649
848.5254, 0.1078292
850.4539, 0.1099683
852.3823, 0.1129423
854.3108, 0.1170258
856.2393, 0.1219126
858.1677, 0.1277049
860.0962, 0.1348914
862.0247, 0.1438900
863.9531, 0.1541814
865.8816, 0.1652695
867.8101, 0.1774239
869.7385, 0.1914380
871.6670, 0.2076934
873.5955, 0.2254469
875.5239, 0.2441629
877.4524, 0.2639144
879.3809, 0.2835900
881.3093, 0.3024868
883.2378, 0.3198761
885.1663, 0.3354634
887.0947, 0.3500730
889.0232, 0.3632162
890.9517, 0.3733476
892.8801, 0.3809637
894.8085, 0.3871653
896.7370, 0.3913759
898.6655, 0.3935840
900.5939, 0.3947738
902.5224, 0.3954388
904.4509, 0.3954045
906.3793, 0.3939899
908.3078, 0.3910796
910.2363, 0.3861466
912.1647, 0.3792524
914.0932, 0.3711622
916.0217, 0.3615561
917.9501, 0.3502958
919.8786, 0.3383639
921.8071, 0.3254636
923.7355, 0.3119140
925.6640, 0.2993025
927.5925, 0.2881975
929.5209, 0.2791760
931.4494, 0.2729038
933.3779, 0.2692388
935.3063, 0.2677482
937.2348, 0.2679159
939.1633, 0.2692626
941.0917, 0.2712495
943.0202, 0.2742184
944.9487, 0.2786877
946.8771, 0.2846651
948.8056, 0.2913828
950.7341, 0.2990141
952.6625, 0.3076194
954.5910, 0.3164296
956.5195, 0.3254432
958.4479, 0.3350450
960.3764, 0.3455729
962.3049, 0.3558536
964.2333, 0.3660055
966.1618, 0.3756778
968.0903, 0.3845043
970.0187, 0.3923105
971.9472, 0.3986841
973.8757, 0.4041927
975.8041, 0.4081179
977.7326, 0.4110440
979.6611, 0.4140140
981.5895, 0.4171407
983.5180, 0.4206699
985.4465, 0.4249842
987.3749, 0.4295488
989.3034, 0.4332964
991.2319, 0.4359428
993.1603, 0.4378553
995.0888, 0.4386726
997.0173, 0.4382949
998.9457, 0.4364611
1000.874, 0.4339380
1002.803, 0.4309369
1004.731, 0.4269111
1006.660, 0.4223552
1008.588, 0.4176888
1010.517, 0.4126570
1012.445, 0.4074361
1014.373, 0.4018477
1016.302, 0.3955175
1018.230, 0.3882473
1020.159, 0.3809967
1022.087, 0.3739294
1024.016, 0.3664342
1025.944, 0.3588265
1027.873, 0.3518200
1029.801, 0.3450969
1031.730, 0.3387358
1033.658, 0.3320722
1035.587, 0.3251790
1037.515, 0.3176631
1039.444, 0.3097054
1041.372, 0.3017699
1043.301, 0.2940365
1045.229, 0.2862644
1047.157, 0.2784893
1049.086, 0.2710197
1051.014, 0.2641610
1052.943, 0.2573774
1054.871, 0.2508124
1056.800, 0.2447347
1058.728, 0.2390927
1060.657, 0.2336055
1062.585, 0.2278257
1064.514, 0.2223580
1066.442, 0.2173990
1068.371, 0.2123514
1070.299, 0.2074889
1072.228, 0.2027819
1074.156, 0.1980619
1076.084, 0.1937640
1078.013, 0.1896705
1079.941, 0.1860105
1081.870, 0.1824638
1083.798, 0.1788878
1085.727, 0.1754671
1087.655, 0.1722232
1089.584, 0.1690135
1091.512, 0.1657184
1093.441, 0.1630287
1095.369, 0.1607220
1097.298, 0.1582119
1099.226, 0.1556985
1101.155, 0.1535203
1103.083, 0.1512923
1105.011, 0.1490235
1106.940, 0.1470372
1108.868, 0.1452733
1110.797, 0.1429823
1112.725, 0.1409535
1114.654, 0.1389900
1116.582, 0.1365182
1118.511, 0.1336715
1120.439, 0.1312914
1122.368, 0.1290250
1124.296, 0.1260856
1126.225, 0.1225884
1128.153, 0.1189412
1130.082, 0.1150474
1132.010, 0.1110899
1133.938, 0.1066328
1135.867, 0.1015268
1137.795, 9.6283257E-02
1139.724, 9.1119707E-02
1141.652, 8.6530499E-02
1143.581, 8.2090162E-02
1145.509, 7.7725083E-02
1147.438, 7.3763259E-02
1149.366, 7.0223913E-02
1151.295, 6.7213103E-02
1153.223, 6.4270377E-02
1155.152, 6.1749160E-02
1157.080, 5.9334598E-02
1159.009, 5.6897350E-02
1160.937, 5.4581169E-02
1162.865, 5.2289940E-02
1164.794, 5.0056159E-02
1166.722, 4.7953632E-02
1168.651, 4.6036150E-02
1170.579, 4.4069018E-02
1172.508, 4.2317361E-02
1174.436, 4.0953372E-02
1176.365, 3.9674301E-02
1178.293, 3.8362648E-02
1180.222, 3.7040871E-02
1182.150, 3.5591301E-02
1184.079, 3.4559041E-02
1186.007, 3.3829231E-02
1187.936, 3.2716911E-02
1189.864, 3.1624909E-02
1191.792, 3.0967459E-02
1193.721, 3.0266879E-02
1195.649, 2.9496031E-02
1197.578, 2.8669110E-02
1199.506, 2.7954470E-02
1201.435, 2.7380951E-02
1203.363, 2.6587799E-02
1205.292, 2.5761779E-02
1207.220, 2.5026780E-02
1209.149, 2.4133340E-02
1211.077, 2.3090839E-02
1213.006, 2.2285560E-02
1214.934, 2.1754861E-02
1216.863, 2.0945329E-02
1218.791, 2.0047169E-02
1220.719, 1.9323559E-02
1222.648, 1.8695110E-02
1224.576, 1.8056091E-02
1226.505, 1.7590750E-02
1228.433, 1.7169040E-02
1230.362, 1.6853619E-02
1232.290, 1.6631680E-02
1234.219, 1.6333820E-02
1236.147, 1.5814910E-02
1238.076, 1.5327180E-02
1240.004, 1.5117370E-02
1241.933, 1.4757240E-02
1243.861, 1.4576790E-02
1245.790, 1.4612070E-02
1247.718, 1.4480410E-02
1249.646, 1.4420890E-02
1251.575, 1.4348350E-02
1253.503, 1.4246420E-02
1255.432, 1.4395690E-02
1257.360, 1.4549480E-02
1259.289, 1.4434300E-02
1261.217, 1.4542610E-02
1263.146, 1.4614580E-02
1265.074, 1.4526440E-02
1267.003, 1.4453160E-02
1268.931, 1.4437130E-02
1270.860, 1.4577390E-02
1272.788, 1.4768800E-02
1274.717, 1.4811830E-02
1276.645, 1.4737970E-02
1278.573, 1.4757750E-02
1280.502, 1.4704590E-02
1282.430, 1.4705230E-02
1284.359, 1.4603310E-02
1286.287, 1.4290340E-02
1288.216, 1.4550860E-02
1290.144, 1.4835560E-02
1292.073, 1.4740680E-02
1294.001, 1.4519410E-02
1295.930, 1.4356230E-02
1297.858, 1.4128010E-02
1299.787, 1.3930320E-02
1301.715, 1.4081410E-02
1303.644, 1.3975100E-02
1305.572, 1.3858030E-02
1307.500, 1.3954780E-02
1309.429, 1.4237550E-02
1311.357, 1.4027200E-02
1313.286, 1.3890860E-02
1315.214, 1.3967300E-02
1317.143, 1.3714370E-02
1319.071, 1.3523320E-02
1321.000, 1.3644610E-02
1322.928, 1.3768230E-02
1324.857, 1.3812180E-02
1326.785, 1.3761410E-02
1328.714, 1.3661440E-02
1330.642, 1.3700000E-02
1332.571, 1.3790850E-02
1334.499, 1.3669540E-02
1336.427, 1.3654340E-02
1338.356, 1.3559230E-02
1340.284, 1.3614820E-02
1342.213, 1.3736710E-02
1344.141, 1.3799270E-02
1346.070, 1.3680620E-02
1347.998, 1.3593100E-02
1349.927, 1.3383880E-02
1351.855, 1.3288260E-02
1353.784, 1.3592590E-02
1355.712, 1.3756640E-02
1357.641, 1.3685360E-02
1359.569, 1.3737030E-02
1361.498, 1.3746360E-02
1363.426, 1.4066310E-02
1365.354, 1.4209640E-02
1367.283, 1.4137050E-02
1369.211, 1.4014000E-02
1371.140, 1.3753510E-02
1373.068, 1.3889630E-02
1374.997, 1.4116040E-02
1376.925, 1.4265810E-02
1378.854, 1.4497080E-02
1380.782, 1.4688000E-02
1382.711, 1.4852150E-02
1384.639, 1.4972710E-02
1386.568, 1.5072370E-02
1388.496, 1.5328390E-02
1390.424, 1.5563740E-02
1392.353, 1.5685460E-02
1394.281, 1.5559370E-02
1396.210, 1.5842820E-02
1398.138, 1.6169639E-02
1400.067, 1.5990021E-02
1401.995, 1.6246160E-02
1403.924, 1.6769109E-02
1405.852, 1.6959470E-02
1407.781, 1.6917991E-02
1409.709, 1.6929250E-02
1411.638, 1.7192259E-02
1413.566, 1.7708421E-02
1415.495, 1.7954201E-02
1417.423, 1.7707201E-02
1419.351, 1.7956199E-02
1421.280, 1.8225539E-02
1423.208, 1.8199570E-02
1425.137, 1.8771971E-02
1427.065, 1.9059449E-02
1428.994, 1.8950850E-02
1430.922, 1.8900171E-02
1432.851, 1.9242579E-02
1434.779, 1.9594969E-02
1436.708, 1.9779170E-02
1438.636, 1.9574121E-02
1440.565, 1.9343119E-02
1442.493, 1.9284381E-02
1444.422, 1.9213330E-02
1446.350, 1.9202020E-02
1448.278, 1.9091530E-02
1450.207, 1.8912170E-02
1452.135, 1.8898349E-02
1454.064, 1.8875441E-02
1455.992, 1.9179489E-02
1457.921, 1.9115919E-02
1459.849, 1.8648140E-02
1461.778, 1.8594170E-02
1463.706, 1.8604720E-02
1465.635, 1.8153319E-02
1467.563, 1.7854771E-02
1469.492, 1.8012540E-02
1471.420, 1.8045809E-02
1473.349, 1.8104609E-02
1475.277, 1.8019861E-02
1477.205, 1.7846150E-02
1479.134, 1.7785050E-02
1481.062, 1.7736301E-02
1482.991, 1.7511170E-02
1484.919, 1.7425761E-02
1486.848, 1.7612100E-02
1488.776, 1.7951550E-02
1490.705, 1.7951289E-02
1492.633, 1.8047130E-02
1494.562, 1.7990811E-02
1496.490, 1.8179020E-02
1498.419, 1.8302880E-02
1500.347, 1.8416479E-02
1502.276, 1.8563870E-02
1504.204, 1.8943980E-02
1506.132, 1.9444460E-02
1508.061, 1.9671120E-02
1509.989, 1.9638021E-02
1511.918, 1.9864190E-02
1513.846, 2.0366009E-02
1515.775, 2.0833060E-02
1517.703, 2.1104340E-02
1519.632, 2.1406660E-02
1521.560, 2.1703221E-02
1523.489, 2.1836890E-02
1525.417, 2.2133570E-02
1527.346, 2.2487730E-02
1529.274, 2.2439601E-02
1531.203, 2.2599939E-02
1533.131, 2.2961579E-02
1535.059, 2.3227051E-02
1536.988, 2.3507440E-02
1538.916, 2.3759071E-02
1540.845, 2.3627041E-02
1542.773, 2.3608100E-02
1544.702, 2.3773029E-02
1546.630, 2.4065750E-02
1548.559, 2.4530491E-02
1550.487, 2.4704490E-02
1552.416, 2.4693489E-02
1554.344, 2.4944790E-02
1556.273, 2.5483711E-02
1558.201, 2.6253249E-02
1560.130, 2.6566630E-02
1562.058, 2.6798820E-02
1563.986, 2.7169671E-02
1565.915, 2.7588220E-02
1567.843, 2.8127620E-02
1569.772, 2.8650250E-02
1571.700, 2.9234920E-02
1573.629, 3.0013951E-02
1575.557, 3.1011680E-02
1577.486, 3.1752191E-02
1579.414, 3.2549739E-02
1581.343, 3.3668190E-02
1583.271, 3.4731869E-02
1585.200, 3.5836309E-02
1587.128, 3.7154749E-02
1589.057, 3.8646061E-02
1590.985, 4.0268801E-02
1592.913, 4.2106301E-02
1594.842, 4.4340841E-02
1596.770, 4.6566758E-02
1598.699, 4.8909038E-02
1600.627, 5.1591340E-02
1602.556, 5.4688130E-02
1604.484, 5.8305241E-02
1606.413, 6.1663780E-02
1608.341, 6.5297723E-02
1610.270, 6.9720522E-02
1612.198, 7.4205339E-02
1614.127, 7.8547992E-02
1616.055, 8.3296552E-02
1617.984, 8.7579727E-02
1619.912, 9.1254763E-02
1621.840, 9.5203452E-02
1623.769, 9.8613858E-02
1625.697, 0.1011480
1627.626, 0.1032885
1629.554, 0.1048262
1631.483, 0.1054293
1633.411, 0.1055092
1635.340, 0.1046264
1637.268, 0.1021961
1639.197, 9.9584296E-02
1641.125, 9.6971989E-02
1643.054, 9.3776681E-02
1644.982, 9.0615310E-02
1646.911, 8.7276973E-02
1648.839, 8.3221689E-02
1650.767, 7.9560868E-02
1652.696, 7.6928861E-02
1654.624, 7.3230967E-02
1656.553, 6.8879351E-02
1658.481, 6.4893320E-02
1660.410, 6.1544750E-02
1662.338, 5.8704078E-02
1664.267, 5.5720821E-02
1666.195, 5.2596729E-02
1668.124, 4.9660679E-02
1670.052, 4.6817929E-02
1671.981, 4.4397011E-02
1673.909, 4.2156741E-02
1675.838, 3.9499938E-02
1677.766, 3.7326660E-02
1679.694, 3.5847060E-02
1681.623, 3.4223601E-02
1683.551, 3.2756340E-02
1685.480, 3.0882750E-02
1687.408, 2.8858490E-02
1689.337, 2.7667491E-02
1691.265, 2.6688689E-02
1693.194, 2.5803670E-02
1695.122, 2.4794601E-02
1697.051, 2.3974391E-02
1698.979, 2.3480000E-02
1700.908, 2.2508370E-02
1702.836, 2.1335561E-02
1704.765, 2.0758281E-02
1706.693, 2.0076420E-02
1708.621, 1.9209551E-02
1710.550, 1.8253449E-02
1712.478, 1.7677041E-02
1714.407, 1.7720910E-02
1716.335, 1.7531740E-02
1718.264, 1.6776610E-02
1720.192, 1.6099161E-02
1722.121, 1.5960859E-02
1724.049, 1.5555880E-02
1725.978, 1.5216200E-02
1727.906, 1.4791390E-02
1729.835, 1.4030870E-02
1731.763, 1.3336010E-02
1733.692, 1.2902220E-02
1735.620, 1.2092150E-02
1737.548, 1.1355010E-02
1739.477, 1.1055060E-02
1741.405, 1.0158170E-02
1743.334, 9.3711121E-03
1745.262, 8.9155221E-03
1747.191, 9.1490513E-03
1749.119, 9.6339630E-03
1751.048, 9.6934754E-03
1752.976, 9.7901616E-03
1754.905, 9.6670641E-03
1756.833, 9.9167833E-03
1758.762, 9.6719638E-03
1760.690, 9.9393241E-03
1762.619, 1.0568630E-02
1764.547, 1.0671550E-02
1766.475, 1.0772600E-02
1768.404, 1.0668140E-02
1770.332, 1.0600610E-02
1772.261, 1.0576140E-02
1774.189, 1.0416800E-02
1776.118, 1.0011510E-02
1778.046, 9.3808100E-03
1779.975, 9.3869856E-03
1781.903, 9.7741121E-03
1783.832, 9.4165979E-03
1785.760, 9.1030644E-03
1787.689, 9.3554808E-03
1789.617, 9.8196678E-03
1791.546, 1.0244500E-02
1793.474, 9.6751712E-03
1795.402, 9.2432918E-03
1797.331, 9.3977433E-03
1799.259, 9.2403460E-03
1801.188, 9.0243006E-03
1803.116, 9.3446141E-03
1805.045, 9.5584858E-03
1806.973, 9.1648577E-03
1808.902, 8.9047756E-03
1810.830, 9.0758279E-03
1812.759, 8.8220146E-03
1814.687, 8.3868550E-03
1816.616, 8.5282782E-03
1818.544, 8.9116562E-03
1820.473, 9.0319589E-03
1822.401, 8.8578891E-03
1824.329, 8.6916611E-03
1826.258, 8.6301900E-03
1828.186, 8.3885742E-03
1830.115, 8.2170255E-03
1832.043, 8.2571497E-03
1833.972, 8.4172701E-03
1835.900, 8.5476702E-03
1837.829, 8.6471336E-03
1839.757, 8.7776138E-03
1841.686, 9.1096759E-03
1843.614, 9.2523750E-03
1845.543, 8.5695088E-03
1847.471, 8.2995296E-03
1849.400, 8.4607052E-03
1851.328, 8.7008514E-03
1853.256, 9.0579158E-03
1855.185, 9.2881201E-03
1857.113, 9.2679588E-03
1859.042, 8.8133868E-03
1860.970, 8.4956940E-03
1862.899, 8.7345168E-03
1864.827, 8.8228229E-03
1866.756, 8.5844258E-03
1868.684, 8.3747460E-03
1870.613, 8.6748926E-03
1872.541, 8.2264878E-03
1874.470, 8.5848747E-03
1876.398, 8.8665048E-03
1878.327, 8.5489536E-03
1880.255, 8.5203350E-03
1882.183, 8.9034261E-03
1884.112, 9.1904141E-03
1886.040, 8.8754268E-03
1887.969, 8.4773526E-03
1889.897, 9.0243686E-03
1891.826, 9.0357969E-03
1893.754, 8.4115975E-03
1895.683, 7.3782182E-03
1897.611, 6.7092059E-03
1899.540, 7.8237224E-03
1901.468, 8.3305314E-03
1903.397, 7.5177639E-03
1905.325, 7.6350928E-03
1907.254, 7.3817428E-03
1909.182, 7.1572340E-03
1911.110, 6.5842010E-03
1913.039, 6.9440491E-03
1914.967, 7.4703060E-03
1916.896, 6.5787160E-03
1918.824, 6.4102160E-03
1920.753, 6.4281379E-03
1922.681, 6.4621330E-03
1924.610, 7.3246211E-03
1926.538, 7.2273230E-03
1928.467, 6.8476112E-03
1930.395, 5.9396308E-03
1932.324, 4.8866188E-03
1934.252, 4.4567990E-03
1936.181, 5.1657562E-03
1938.109, 6.3993172E-03
1940.037, 6.7962850E-03
1941.966, 6.2120561E-03
1943.894, 5.9259022E-03
1945.823, 5.4905219E-03
1947.751, 5.2021472E-03
1949.680, 5.4603769E-03
1951.608, 4.6827360E-03
1953.537, 3.7064161E-03
1955.465, 3.4889090E-03
1957.394, 1.7398000E-03
1959.322, 1.7054750E-03
1961.251, 3.0002031E-03
1963.179, 1.0526070E-03
1965.108, -9.2968269E-04
1967.036, -8.9804211E-04
1968.964, -1.3756470E-03
1970.893, -1.9712050E-03
1972.821, -1.3883270E-03
1974.750, 2.5227529E-04
1976.678, 1.5330421E-03
1978.607, 2.5375420E-03
1980.535, 6.1358088E-03
1982.464, 7.5643482E-03
1984.392, 6.5722112E-03
1986.321, 3.2592451E-03
1988.249, 1.9499040E-03
1990.178, 3.0774090E-03
1992.106, 3.9322190E-03
1994.035, 2.8134829E-03
1995.963, 2.0488140E-03
1997.891, 1.9750861E-03
1999.820, 2.5599629E-03
2001.748, 1.2314850E-03
2003.677, -4.3381631E-04
2005.605, -4.8318450E-04
2007.534, -9.8445653E-06
2009.462, 2.5453281E-03
2011.391, 3.5222420E-03
2013.319, 8.8321138E-04
2015.248, -9.9749188E-04
2017.176, 1.7352650E-04
2019.105, 1.0133340E-03
2021.033, -1.6234700E-03
2022.962, -4.3315031E-03
2024.890, -4.2068381E-03
2026.818, -9.3613629E-04
2028.747, -1.9459690E-03
2030.675, -4.2560878E-03
2032.604, -1.2353820E-03
2034.532, 2.1121220E-03
2036.461, 2.0867309E-03
2038.389, 1.8899731E-04
2040.318, 1.2257451E-04
2042.246, 9.5219183E-04
2044.175, 1.4310380E-03
2046.103, 4.2547891E-03
2048.032, 5.2007320E-03
2049.960, 4.7241589E-03
2051.889, 4.7667418E-03
2053.817, 6.5289931E-03
2055.746, 8.5278833E-03
2057.674, 8.6690867E-03
2059.603, 7.8233648E-03
2061.531, 7.2195558E-03
2063.459, 6.5756929E-03
2065.388, 5.9651881E-03
2067.316, 6.2838020E-03
2069.245, 6.8973182E-03
2071.173, 7.4458090E-03
2073.102, 8.2128569E-03
2075.030, 9.6869450E-03
2076.959, 9.4245579E-03
2078.887, 7.8864712E-03
2080.816, 7.9943631E-03
2082.744, 9.1712177E-03
2084.673, 1.1080070E-02
2086.601, 1.1211410E-02
2088.530, 1.0309030E-02
2090.458, 9.9782068E-03
2092.386, 1.0330520E-02
2094.315, 1.0361870E-02
2096.243, 1.0699480E-02
2098.172, 1.0432780E-02
2100.100, 1.0218290E-02
2102.029, 1.0332620E-02
2103.957, 1.0517330E-02
2105.886, 1.0196480E-02
2107.814, 1.0761580E-02
2109.743, 1.1543290E-02
2111.671, 1.1858000E-02
2113.600, 1.2213750E-02
2115.528, 1.1126990E-02
2117.457, 1.0688930E-02
2119.385, 1.1559700E-02
2121.313, 1.1795810E-02
2123.242, 1.0785540E-02
2125.170, 8.8808592E-03
2127.099, 8.4794788E-03
2129.027, 7.7717318E-03
2130.956, 7.1433601E-03
2132.884, 5.7625980E-03
2134.813, 6.0522729E-03
2136.741, 6.4357929E-03
2138.670, 6.0229078E-03
2140.598, 5.4073278E-03
2142.527, 5.9698941E-03
2144.455, 7.1122120E-03
2146.384, 6.3021439E-03
2148.312, 4.6627522E-03
2150.240, 4.5989892E-03
2152.169, 3.2883929E-03
2154.097, 1.7633130E-03
2156.026, 2.7769019E-03
2157.954, 1.5861060E-03
2159.883, 2.6044510E-03
2161.811, 5.8439961E-03
2163.740, 7.5319628E-03
2165.668, 8.2311751E-03
2167.597, 9.0625780E-03
2169.525, 7.0248600E-03
2171.454, 4.8521850E-03
2173.382, 2.4584800E-03
2175.311, 3.7555220E-03
2177.239, 5.4520690E-03
2179.167, 7.1505820E-03
2181.096, 8.7365257E-03
2183.024, 9.2342254E-03
2184.953, 6.1530331E-03
2186.881, 5.6934920E-03
2188.810, 8.4907832E-03
2190.738, 8.0289170E-03
2192.667, 6.6409651E-03
2194.595, 5.9348149E-03
2196.524, 6.3426108E-03
2198.452, 9.3806935E-03
2200.381, 1.0646720E-02
2202.309, 6.6354871E-03
2204.238, 5.8475011E-03
2206.166, 8.2132937E-03
2208.094, 9.8396773E-03
2210.023, 1.0015850E-02
2211.951, 1.1386330E-02
2213.880, 1.2409280E-02
2215.808, 1.1053880E-02
2217.737, 1.0988420E-02
2219.665, 1.1210010E-02
2221.594, 9.8911319E-03
2223.522, 8.8413320E-03
2225.451, 8.7817311E-03
2227.379, 9.9107008E-03
2229.308, 1.0292040E-02
2231.236, 9.8449569E-03
2233.165, 9.7343987E-03
2235.093, 1.0700630E-02
2237.021, 1.0869500E-02
2238.950, 1.1980190E-02
2240.878, 1.3170040E-02
2242.807, 1.1853610E-02
2244.735, 1.0731000E-02
2246.664, 1.2132860E-02
2248.592, 1.2437300E-02
2250.521, 1.2511630E-02
2252.449, 1.2076680E-02
2254.378, 1.2881780E-02
2256.306, 1.3530600E-02
2258.235, 1.2602800E-02
2260.163, 1.1759710E-02
2262.092, 1.1979500E-02
2264.020, 1.2485560E-02
2265.948, 1.3745320E-02
2267.877, 1.3680750E-02
2269.805, 1.2851820E-02
2271.734, 1.3175610E-02
2273.662, 1.4992170E-02
2275.591, 1.5457190E-02
2277.519, 1.4449720E-02
2279.448, 1.4593330E-02
2281.376, 1.6062081E-02
2283.305, 1.6184701E-02
2285.233, 1.6619841E-02
2287.162, 1.6836250E-02
2289.090, 1.6451539E-02
2291.019, 1.6576460E-02
2292.947, 1.7100640E-02
2294.875, 1.6928609E-02
2296.804, 1.6710641E-02
2298.732, 1.6782150E-02
2300.661, 1.6644759E-02
2302.589, 1.6764451E-02
2304.518, 1.6753960E-02
2306.446, 1.7377730E-02
2308.375, 1.8559691E-02
2310.303, 1.8121600E-02
2312.232, 1.8134231E-02
2314.160, 1.9346571E-02
2316.089, 1.9398291E-02
2318.017, 1.9032720E-02
2319.946, 2.0057241E-02
2321.874, 2.0823600E-02
2323.802, 2.0575641E-02
2325.731, 1.9630840E-02
2327.659, 1.9514769E-02
2329.588, 1.9917721E-02
2331.516, 2.0474760E-02
2333.445, 2.1328021E-02
2335.373, 2.0784561E-02
2337.302, 1.9750770E-02
2339.230, 1.9508591E-02
2341.159, 1.9300040E-02
2343.087, 1.9558171E-02
2345.016, 1.9810410E-02
2346.944, 1.9549221E-02
2348.873, 1.8888390E-02
2350.801, 1.8115330E-02
2352.729, 1.8224860E-02
2354.658, 1.9269800E-02
2356.586, 1.9733019E-02
2358.515, 1.9400360E-02
2360.443, 1.9492259E-02
2362.372, 1.9936360E-02
2364.300, 1.9731410E-02
2366.229, 2.0016000E-02
2368.157, 1.9752311E-02
2370.086, 1.8620750E-02
2372.014, 1.8016510E-02
2373.942, 1.8379251E-02
2375.871, 1.8351469E-02
2377.799, 1.8050740E-02
2379.728, 1.7874910E-02
2381.656, 1.8049030E-02
2383.585, 1.8240299E-02
2385.513, 1.7732531E-02
2387.442, 1.7935021E-02
2389.370, 1.7944120E-02
2391.299, 1.7811241E-02
2393.227, 1.8126870E-02
2395.156, 1.8112481E-02
2397.084, 1.7563419E-02
2399.012, 1.7374581E-02
2400.941, 1.8076500E-02
2402.869, 1.8714819E-02
2404.798, 1.9092189E-02
2406.726, 1.9385951E-02
2408.655, 1.9490430E-02
2410.583, 1.9633640E-02
2412.512, 1.8953100E-02
2414.440, 1.8682521E-02
2416.369, 1.8286590E-02
2418.297, 1.8901950E-02
2420.226, 1.9945230E-02
2422.154, 1.9301919E-02
2424.083, 1.7812289E-02
2426.011, 1.7849360E-02
2427.939, 1.8283131E-02
2429.868, 1.8053640E-02
2431.796, 1.8946189E-02
2433.725, 1.9478310E-02
2435.653, 1.8304510E-02
2437.582, 1.7960770E-02
2439.510, 1.8862359E-02
2441.439, 1.8994540E-02
2443.367, 1.9564889E-02
2445.296, 1.9725511E-02
2447.224, 1.9661600E-02
2449.153, 1.8530810E-02
2451.081, 1.8652590E-02
2453.010, 1.9007530E-02
2454.938, 1.9513380E-02
2456.866, 2.0931629E-02
2458.795, 2.0798599E-02
2460.723, 1.9676210E-02
2462.652, 1.9701190E-02
2464.580, 2.0371521E-02
2466.509, 1.9971810E-02
2468.437, 1.9222910E-02
2470.366, 1.9304520E-02
2472.294, 1.8764591E-02
2474.223, 1.8734930E-02
2476.151, 1.8911259E-02
2478.080, 1.8557111E-02
2480.008, 1.9911351E-02
2481.937, 2.0664521E-02
2483.865, 1.9533020E-02
2485.793, 1.8796390E-02
2487.722, 1.9630000E-02
2489.650, 2.0099100E-02
2491.579, 1.9967750E-02
2493.507, 1.9768709E-02
2495.436, 1.9639339E-02
2497.364, 1.9885920E-02
2499.293, 1.9372910E-02
2501.221, 1.9198211E-02
2503.150, 1.9281480E-02
2505.078, 1.8601039E-02
2507.007, 1.7965840E-02
2508.935, 2.0164430E-02
2510.864, 2.1251770E-02
2512.792, 2.0087210E-02
2514.720, 1.9243220E-02
2516.649, 1.9450059E-02
2518.577, 1.9647280E-02
2520.506, 1.9136211E-02
2522.434, 1.9066401E-02
2524.363, 1.9866310E-02
2526.291, 2.0225391E-02
2528.220, 1.9734859E-02
2530.148, 1.9758711E-02
2532.077, 1.9581500E-02
2534.005, 1.8895101E-02
2535.934, 1.8807329E-02
2537.862, 1.9230070E-02
2539.791, 1.9784231E-02
2541.719, 2.0211570E-02
2543.647, 1.9629721E-02
2545.576, 2.0013420E-02
2547.504, 2.0197401E-02
2549.433, 2.0665640E-02
2551.361, 2.0593850E-02
2553.290, 1.9462600E-02
2555.218, 1.9892169E-02
2557.147, 2.0401910E-02
2559.075, 1.9894309E-02
2561.004, 1.8671950E-02
2562.932, 1.8276490E-02
2564.861, 1.9033620E-02
2566.789, 2.0166259E-02
2568.718, 2.0959159E-02
2570.646, 2.0611551E-02
2572.574, 2.1111010E-02
2574.503, 2.2826931E-02
2576.431, 2.3256579E-02
2578.360, 2.1697011E-02
2580.288, 2.0498160E-02
2582.217, 2.0568900E-02
2584.145, 2.0930970E-02
2586.074, 2.0357380E-02
2588.002, 2.1239450E-02
2589.931, 2.1627281E-02
2591.859, 2.2202410E-02
2593.788, 2.2141360E-02
2595.716, 2.2243779E-02
2597.645, 2.1301569E-02
2599.573, 2.1055840E-02
2601.501, 2.1786731E-02
2603.430, 2.2892291E-02
2605.358, 2.2610310E-02
2607.287, 2.2013711E-02
2609.215, 2.2639640E-02
2611.144, 2.3536259E-02
2613.072, 2.4319589E-02
2615.001, 2.3987940E-02
2616.929, 2.3518819E-02
2618.858, 2.4194021E-02
2620.786, 2.4639210E-02
2622.715, 2.3704350E-02
2624.643, 2.3902580E-02
2626.572, 2.5328670E-02
2628.500, 2.5297940E-02
2630.428, 2.4427701E-02
2632.357, 2.5170449E-02
2634.285, 2.5624219E-02
2636.214, 2.5004210E-02
2638.142, 2.5345780E-02
2640.071, 2.5226150E-02
2641.999, 2.5552090E-02
2643.928, 2.6357859E-02
2645.856, 2.6076799E-02
2647.785, 2.5625089E-02
2649.713, 2.5771510E-02
2651.642, 2.5922440E-02
2653.570, 2.6129080E-02
2655.499, 2.6536411E-02
2657.427, 2.7311970E-02
2659.355, 2.7664680E-02
2661.284, 2.8436869E-02
2663.212, 2.8499531E-02
2665.141, 2.7117750E-02
2667.069, 2.6717691E-02
2668.998, 2.8007669E-02
2670.926, 2.8513961E-02
2672.855, 2.7994340E-02
2674.783, 2.7573289E-02
2676.712, 2.7401829E-02
2678.640, 2.8249791E-02
2680.569, 2.8478639E-02
2682.497, 2.7993539E-02
2684.426, 2.7846949E-02
2686.354, 2.7886281E-02
2688.282, 2.8685460E-02
2690.211, 2.9930839E-02
2692.139, 2.9846320E-02
2694.068, 2.9945269E-02
2695.996, 2.9940680E-02
2697.925, 2.9483659E-02
2699.853, 2.9713821E-02
2701.782, 2.9337440E-02
2703.710, 2.9281950E-02
2705.639, 3.0005051E-02
2707.567, 2.9524051E-02
2709.496, 2.8924800E-02
2711.424, 2.8678400E-02
2713.353, 2.9746300E-02
2715.281, 3.1459250E-02
2717.209, 3.1958830E-02
2719.138, 3.0689109E-02
2721.066, 3.0967340E-02
2722.995, 3.1813279E-02
2724.923, 3.1765159E-02
2726.852, 3.2628771E-02
2728.780, 3.2505739E-02
2730.709, 3.1318739E-02
2732.637, 3.0793959E-02
2734.566, 3.1825230E-02
2736.494, 3.2765109E-02
2738.423, 3.3037841E-02
2740.351, 3.2536380E-02
2742.280, 3.2612201E-02
2744.208, 3.2921460E-02
2746.136, 3.3395529E-02
2748.065, 3.3942010E-02
2749.993, 3.4127001E-02
2751.922, 3.4434251E-02
2753.850, 3.5047401E-02
2755.779, 3.4968171E-02
2757.707, 3.4569241E-02
2759.636, 3.4752410E-02
2761.564, 3.4376059E-02
2763.493, 3.4306541E-02
2765.421, 3.5331432E-02
2767.350, 3.6747191E-02
2769.278, 3.6943410E-02
2771.207, 3.5859309E-02
2773.135, 3.5749760E-02
2775.063, 3.6364701E-02
2776.992, 3.5748269E-02
2778.920, 3.5788689E-02
2780.849, 3.6605000E-02
2782.777, 3.6671579E-02
2784.706, 3.6081828E-02
2786.634, 3.6508821E-02
2788.563, 3.7797239E-02
2790.491, 3.8370360E-02
2792.420, 3.7873749E-02
2794.348, 3.7627488E-02
2796.277, 3.7767202E-02
2798.205, 3.8539872E-02
2800.134, 3.8872771E-02
2802.062, 3.9164919E-02
2803.990, 3.9578330E-02
2805.919, 3.9398540E-02
2807.847, 3.9673541E-02
2809.776, 4.0070731E-02
2811.704, 4.0456761E-02
2813.633, 4.0944580E-02
2815.561, 4.0934850E-02
2817.490, 4.0788140E-02
2819.418, 4.0865801E-02
2821.347, 4.1222628E-02
2823.275, 4.2146418E-02
2825.204, 4.2977549E-02
2827.132, 4.2557519E-02
2829.061, 4.3268342E-02
2830.989, 4.4218682E-02
2832.917, 4.3296650E-02
2834.846, 4.2893849E-02
2836.774, 4.3806508E-02
2838.703, 4.4796359E-02
2840.631, 4.4543121E-02
2842.560, 4.3854009E-02
2844.488, 4.3417871E-02
2846.417, 4.3714561E-02
2848.345, 4.3691900E-02
2850.274, 4.4138309E-02
2852.202, 4.4599559E-02
2854.131, 4.4781171E-02
2856.059, 4.5763679E-02
2857.988, 4.6744261E-02
2859.916, 4.7659211E-02
2861.844, 4.8122220E-02
2863.773, 4.6570681E-02
2865.701, 4.6121031E-02
2867.630, 4.6463128E-02
2869.558, 4.6630502E-02
2871.487, 4.7213562E-02
2873.415, 4.7860380E-02
2875.344, 4.8447158E-02
2877.272, 4.9855180E-02
2879.201, 4.9744889E-02
2881.129, 4.9167521E-02
2883.058, 4.9562529E-02
2884.986, 5.0167479E-02
2886.915, 5.1058661E-02
2888.843, 5.1092539E-02
2890.771, 5.1848609E-02
2892.700, 5.2494850E-02
2894.628, 5.2043699E-02
2896.557, 5.2367222E-02
2898.485, 5.2595109E-02
2900.414, 5.2658100E-02
2902.342, 5.3366449E-02
2904.271, 5.3423561E-02
2906.199, 5.3294629E-02
2908.128, 5.3923849E-02
2910.056, 5.4726612E-02
2911.985, 5.5449761E-02
2913.913, 5.5781439E-02
2915.842, 5.4896820E-02
2917.770, 5.5448432E-02
2919.698, 5.6351289E-02
2921.627, 5.6464579E-02
2923.555, 5.7065871E-02
2925.484, 5.8855031E-02
2927.412, 5.9518769E-02
2929.341, 5.9090350E-02
2931.269, 5.8600768E-02
2933.198, 5.9569370E-02
2935.126, 6.0883060E-02
2937.055, 6.0354050E-02
2938.983, 6.0420729E-02
2940.912, 6.0958259E-02
2942.840, 6.1692402E-02
2944.769, 6.2163509E-02
2946.697, 6.1717790E-02
2948.625, 6.1281651E-02
2950.554, 6.2082339E-02
2952.482, 6.3419104E-02
2954.411, 6.4337812E-02
2956.339, 6.5841697E-02
2958.268, 6.6043332E-02
2960.196, 6.5277137E-02
2962.125, 6.6282399E-02
2964.053, 6.6546783E-02
2965.982, 6.6578627E-02
2967.910, 6.7459144E-02
2969.839, 6.7940421E-02
2971.767, 6.9344997E-02
2973.696, 6.9671437E-02
2975.624, 6.8609983E-02
2977.552, 6.7941591E-02
2979.481, 6.9217600E-02
2981.409, 7.0537217E-02
2983.338, 7.0089176E-02
2985.266, 7.0063218E-02
2987.195, 7.0803672E-02
2989.123, 7.0638500E-02
2991.052, 6.9652267E-02
2992.980, 7.0860773E-02
2994.909, 7.2112717E-02
2996.837, 7.4164674E-02
2998.766, 7.5319409E-02
3000.694, 7.4207343E-02
3002.623, 7.4249141E-02
3004.551, 7.5253367E-02
3006.479, 7.5462587E-02
3008.408, 7.5699277E-02
3010.336, 7.6564223E-02
3012.265, 7.7602528E-02
3014.193, 7.8676492E-02
3016.122, 7.8880213E-02
3018.050, 7.8575693E-02
3019.979, 7.9112992E-02
3021.907, 7.9713248E-02
3023.836, 7.9249360E-02
3025.764, 7.8951754E-02
3027.693, 7.9190947E-02
3029.621, 7.9683490E-02
3031.550, 8.0581479E-02
3033.478, 8.1040546E-02
3035.406, 8.2287423E-02
3037.335, 8.3717510E-02
3039.263, 8.5265279E-02
3041.192, 8.5813910E-02
3043.120, 8.6437821E-02
3045.049, 8.6080991E-02
3046.977, 8.5914753E-02
3048.906, 8.7161213E-02
3050.834, 8.7717883E-02
3052.763, 8.7348484E-02
3054.691, 8.6275063E-02
3056.620, 8.7167837E-02
3058.548, 8.9145817E-02
3060.477, 9.0595603E-02
3062.405, 9.1508858E-02
3064.333, 8.9814723E-02
3066.262, 8.9458071E-02
3068.190, 9.0700537E-02
3070.119, 9.1281563E-02
3072.047, 9.2504337E-02
3073.976, 9.4869658E-02
3075.904, 9.4981723E-02
3077.833, 9.3873970E-02
3079.761, 9.4260447E-02
3081.690, 9.6010149E-02
3083.618, 9.7015083E-02
3085.547, 9.7217217E-02
3087.475, 9.7856343E-02
3089.404, 9.8693110E-02
3091.332, 9.9035352E-02
3093.260, 0.1004153
3095.189, 9.9628016E-02
3097.117, 9.9143401E-02
3099.046, 0.1010747
3100.974, 0.1019686
3102.903, 0.1026683
3104.831, 0.1037785
3106.760, 0.1045779
3108.688, 0.1053564
3110.617, 0.1063333
3112.545, 0.1069184
3114.474, 0.1060710
3116.402, 0.1061945
3118.331, 0.1077836
3120.259, 0.1097428
3122.188, 0.1118422
3124.116, 0.1114572
3126.044, 0.1110991
3127.973, 0.1118476
3129.901, 0.1136631
3131.830, 0.1141631
3133.758, 0.1126872
3135.687, 0.1133978
3137.615, 0.1151309
3139.544, 0.1157082
3141.472, 0.1164628
3143.401, 0.1180175
3145.329, 0.1188045
3147.258, 0.1190796
3149.186, 0.1207089
3151.115, 0.1210244
3153.043, 0.1215151
3154.971, 0.1220129
3156.900, 0.1230916
3158.828, 0.1239336
3160.757, 0.1246994
3162.685, 0.1267256
3164.614, 0.1283619
3166.542, 0.1284412
3168.471, 0.1278971
3170.399, 0.1274273
3172.328, 0.1272402
3174.256, 0.1295323
3176.185, 0.1308734
3178.113, 0.1326589
3180.042, 0.1330392
3181.970, 0.1320901
3183.898, 0.1323026
3185.827, 0.1330396
3187.755, 0.1345493
3189.684, 0.1361068
3191.612, 0.1373024
3193.541, 0.1378805
3195.469, 0.1390515
3197.398, 0.1405116
3199.326, 0.1412711
3201.255, 0.1396017
3203.183, 0.1390930
3205.112, 0.1409702
3207.040, 0.1425433
3208.969, 0.1429977
3210.897, 0.1434377
3212.825, 0.1444800
3214.754, 0.1466084
3216.682, 0.1452978
3218.611, 0.1441562
3220.539, 0.1460268
3222.468, 0.1465767
3224.396, 0.1469526
3226.325, 0.1479470
3228.253, 0.1477433
3230.182, 0.1494080
3232.110, 0.1506868
3234.039, 0.1497929
3235.967, 0.1492306
3237.896, 0.1504744
3239.824, 0.1526375
3241.752, 0.1522388
3243.681, 0.1513069
3245.609, 0.1519721
3247.538, 0.1533233
3249.466, 0.1527410
3251.395, 0.1506579
3253.323, 0.1505969
3255.252, 0.1528203
3257.180, 0.1559542
3259.109, 0.1565946
3261.037, 0.1552310
3262.966, 0.1555184
3264.894, 0.1563635
3266.823, 0.1558803
3268.751, 0.1567603
3270.679, 0.1562142
3272.608, 0.1559387
3274.536, 0.1579072
3276.465, 0.1581728
3278.393, 0.1582717
3280.322, 0.1588772
3282.250, 0.1590246
3284.179, 0.1600122
3286.107, 0.1610847
3288.036, 0.1618613
3289.964, 0.1622922
3291.893, 0.1621266
3293.821, 0.1616708
3295.750, 0.1623940
3297.678, 0.1635098
3299.606, 0.1647635
3301.535, 0.1661701
3303.463, 0.1673239
3305.392, 0.1697707
3307.320, 0.1684295
3309.249, 0.1690383
3311.177, 0.1707563
3313.106, 0.1718598
3315.034, 0.1730896
3316.963, 0.1741078
3318.891, 0.1757890
3320.820, 0.1756066
3322.748, 0.1753009
3324.677, 0.1750470
3326.605, 0.1745220
3328.533, 0.1755055
3330.462, 0.1777537
3332.390, 0.1794275
3334.319, 0.1795560
3336.247, 0.1816268
3338.176, 0.1825377
3340.104, 0.1809204
3342.033, 0.1803212
3343.961, 0.1824995
3345.890, 0.1844281
3347.818, 0.1852473
3349.747, 0.1860727
3351.675, 0.1882281
3353.604, 0.1876134
3355.532, 0.1869290
3357.460, 0.1907467
3359.389, 0.1915729
3361.317, 0.1894994
3363.246, 0.1883880
3365.174, 0.1902522
3367.103, 0.1913424
3369.031, 0.1904123
3370.960, 0.1930749
3372.888, 0.1959450
3374.817, 0.1944491
3376.745, 0.1928129
3378.674, 0.1949914
3380.602, 0.1956403
3382.531, 0.1951195
3384.459, 0.1957915
3386.387, 0.1987104
3388.316, 0.2008579
3390.244, 0.2024589
3392.173, 0.2012652
3394.101, 0.2014284
3396.030, 0.2035400
3397.958, 0.2052264
3399.887, 0.2052414
3401.815, 0.2048684
3403.744, 0.2035692
3405.672, 0.2060888
3407.601, 0.2085236
3409.529, 0.2073213
3411.458, 0.2046424
3413.386, 0.2045085
3415.314, 0.2041359
3417.243, 0.2014127
3419.171, 0.2021807
3421.100, 0.2043208
3423.028, 0.2041547
3424.957, 0.2047011
3426.885, 0.2043728
3428.814, 0.2048212
3430.742, 0.2018292
3432.671, 0.2004806
3434.599, 0.2025104
3436.528, 0.2047279
3438.456, 0.2058580
3440.385, 0.2071177
3442.313, 0.2055275
3444.241, 0.2059874
3446.170, 0.2069964
3448.098, 0.2060920
3450.027, 0.2073803
3451.955, 0.2092683
3453.884, 0.2094242
3455.812, 0.2091862
3457.741, 0.2073954
3459.669, 0.2067896
3461.598, 0.2067864
3463.526, 0.2057451
3465.455, 0.2046458
3467.383, 0.2053309
3469.312, 0.2087768
3471.240, 0.2086200
3473.168, 0.2050322
3475.097, 0.2062637
3477.025, 0.2091998
3478.954, 0.2096066
3480.882, 0.2093104
3482.811, 0.2069529
3484.739, 0.2058854
3486.668, 0.2071915
3488.596, 0.2083784
3490.525, 0.2093142
3492.453, 0.2105478
3494.382, 0.2102747
3496.310, 0.2091830
3498.239, 0.2075012
3500.167, 0.2076798
3502.095, 0.2072822
3504.024, 0.2094170
3505.952, 0.2102668
3507.881, 0.2077003
3509.809, 0.2075147
3511.738, 0.2075808
3513.666, 0.2082982
3515.595, 0.2076697
3517.523, 0.2036644
3519.452, 0.2006770
3521.380, 0.2033377
3523.309, 0.2041386
3525.237, 0.2032168
3527.166, 0.2046135
3529.094, 0.2039039
3531.022, 0.2006445
3532.951, 0.2001974
3534.879, 0.2021096
3536.808, 0.2012480
3538.736, 0.1979712
3540.665, 0.1971225
3542.593, 0.1988630
3544.522, 0.1979839
3546.450, 0.1955742
3548.379, 0.1941544
3550.307, 0.1912467
3552.236, 0.1897832
3554.164, 0.1904342
3556.093, 0.1913895
3558.021, 0.1925219
3559.949, 0.1911439
3561.878, 0.1884567
3563.806, 0.1852268
3565.735, 0.1823345
3567.663, 0.1786013
3569.592, 0.1771498
3571.520, 0.1771103
3573.449, 0.1744626
3575.377, 0.1700607
3577.306, 0.1720539
3579.234, 0.1730723
3581.163, 0.1697615
3583.091, 0.1661611
3585.020, 0.1636178
3586.948, 0.1591321
3588.876, 0.1546836
3590.805, 0.1512678
3592.733, 0.1499853
3594.662, 0.1479965
3596.590, 0.1429501
3598.519, 0.1390203
3600.447, 0.1354092
3602.376, 0.1329180
3604.304, 0.1297030
3606.233, 0.1266940
3608.161, 0.1251422
3610.090, 0.1186761
3612.018, 0.1142776
3613.947, 0.1101753
3615.875, 0.1050970
3617.803, 0.1007655
3619.732, 9.5481247E-02
3621.660, 9.1665544E-02
3623.589, 8.9540310E-02
3625.517, 8.4498808E-02
3627.446, 8.0831967E-02
3629.374, 7.8169703E-02
3631.303, 7.3129073E-02
3633.231, 6.7489758E-02
3635.160, 6.5921940E-02
3637.088, 6.5111011E-02
3639.017, 6.1845660E-02
3640.945, 5.7954852E-02
3642.874, 5.6125779E-02
3644.802, 5.5043869E-02
3646.730, 5.4391310E-02
3648.659, 5.2399188E-02
3650.587, 4.9548291E-02
3652.516, 4.8424751E-02
3654.444, 4.8480161E-02
3656.373, 4.8547830E-02
3658.301, 4.5464169E-02
3660.230, 4.5196511E-02
3662.158, 4.5188110E-02
3664.087, 3.9921131E-02
3666.015, 3.7929591E-02
3667.944, 3.8476489E-02
3669.872, 3.7834760E-02
3671.801, 3.6165800E-02
3673.729, 3.5897192E-02
3675.657, 3.4560140E-02
3677.586, 3.5910200E-02
3679.514, 3.8766239E-02
3681.443, 3.6534570E-02
3683.371, 3.3324309E-02
3685.300, 3.3974878E-02
3687.228, 3.3640530E-02
3689.157, 3.0582480E-02
3691.085, 3.0614300E-02
3693.014, 3.3302478E-02
3694.942, 3.4681659E-02
3696.871, 3.1550869E-02
3698.799, 3.1673819E-02
3700.728, 3.3722240E-02
3702.656, 3.4332652E-02
3704.584, 2.8145090E-02
3706.513, 2.5544060E-02
3708.441, 2.9323829E-02
3710.370, 3.1391010E-02
3712.298, 3.3263531E-02
3714.227, 3.2053471E-02
3716.155, 3.0896280E-02
3718.084, 3.0606819E-02
3720.012, 3.1048710E-02
3721.941, 3.1578951E-02
3723.869, 3.0887591E-02
3725.798, 3.2058500E-02
3727.726, 2.9121401E-02
3729.655, 2.6640451E-02
3731.583, 3.0510040E-02
3733.511, 3.3711251E-02
3735.440, 3.2508641E-02
3737.368, 2.9809101E-02
3739.297, 3.0229989E-02
3741.225, 3.0669849E-02
3743.154, 3.1182690E-02
3745.082, 3.2455072E-02
3747.011, 3.2529920E-02
3748.939, 3.0366540E-02
3750.868, 3.2700341E-02
3752.796, 3.5573650E-02
3754.725, 3.5008769E-02
3756.653, 3.3598069E-02
3758.582, 3.3677351E-02
3760.510, 3.0946540E-02
3762.438, 2.7552400E-02
3764.367, 2.7959930E-02
3766.295, 2.9831121E-02
3768.224, 2.9985130E-02
3770.152, 2.9969810E-02
3772.081, 3.0111169E-02
3774.009, 3.1919360E-02
3775.938, 3.3181749E-02
3777.866, 3.3410620E-02
3779.795, 3.0683329E-02
3781.723, 3.0059241E-02
3783.652, 2.9504430E-02
3785.580, 3.2739870E-02
3787.509, 3.5190210E-02
3789.437, 3.5133220E-02
3791.365, 3.3427570E-02
3793.294, 3.3342220E-02
3795.222, 3.3163119E-02
3797.151, 3.2215528E-02
3799.079, 3.2086082E-02
3801.008, 3.3454500E-02
3802.936, 3.6726620E-02
3804.865, 3.4673750E-02
3806.793, 3.2882161E-02
3808.722, 3.4259830E-02
3810.650, 3.4127139E-02
3812.579, 3.1209091E-02
3814.507, 3.0751489E-02
3816.436, 3.0779021E-02
3818.364, 3.0704100E-02
3820.292, 3.3842161E-02
3822.221, 3.4501251E-02
3824.149, 3.3015281E-02
3826.078, 3.1974819E-02
3828.006, 3.2919452E-02
3829.935, 3.2395329E-02
3831.863, 3.0296410E-02
3833.792, 2.9073341E-02
3835.720, 3.0415950E-02
3837.649, 3.2990310E-02
3839.577, 3.2127708E-02
3841.506, 3.2010071E-02
3843.434, 3.6571190E-02
3845.363, 3.5742451E-02
3847.291, 3.5165962E-02
3849.219, 3.1805631E-02
3851.148, 3.1569019E-02
3853.076, 3.6104642E-02
3855.005, 3.8051050E-02
3856.933, 3.6486082E-02
3858.862, 3.5249390E-02
3860.790, 3.5936169E-02
3862.719, 3.5844412E-02
3864.647, 3.3270601E-02
3866.576, 3.3492770E-02
3868.504, 3.2253720E-02
3870.433, 3.0075770E-02
3872.361, 3.1398941E-02
3874.290, 3.3717800E-02
3876.218, 3.4075301E-02
3878.146, 3.3343300E-02
3880.075, 3.0389840E-02
3882.003, 2.9464999E-02
3883.932, 3.3866309E-02
3885.860, 3.8418040E-02
3887.789, 3.8981721E-02
3889.717, 3.7698731E-02
3891.646, 3.5367280E-02
3893.574, 3.2444339E-02
3895.503, 3.3205010E-02
3897.431, 3.5056461E-02
3899.360, 3.4842070E-02
3901.288, 3.6943059E-02
3903.217, 3.9471690E-02
3905.145, 3.6686949E-02
3907.073, 3.4970731E-02
3909.002, 3.3926740E-02
3910.930, 3.3860061E-02
3912.859, 3.3448689E-02
3914.787, 3.5732310E-02
3916.716, 3.7168730E-02
3918.644, 3.6799699E-02
3920.573, 3.6211539E-02
3922.501, 3.5730109E-02
3924.430, 3.3975609E-02
3926.358, 3.3742279E-02
3928.287, 3.4469809E-02
3930.215, 3.7190359E-02
3932.144, 3.8381200E-02
3934.072, 3.6324639E-02
3936.000, 3.3940881E-02
3937.929, 3.5898492E-02
3939.857, 3.6232181E-02
3941.786, 3.6197361E-02
3943.714, 3.8583681E-02
3945.643, 3.9780840E-02
3947.571, 3.6499519E-02
3949.500, 3.4550332E-02
3951.428, 3.7000950E-02
3953.357, 3.9614491E-02
3955.285, 3.8801711E-02
3957.214, 3.6011219E-02
3959.142, 3.3973049E-02
3961.071, 3.6050070E-02
3962.999, 3.3187490E-02
3964.927, 3.1807158E-02
3966.856, 3.5646170E-02
3968.784, 3.8779192E-02
3970.713, 3.9672360E-02
3972.641, 3.7677120E-02
3974.570, 3.5852499E-02
3976.498, 3.7104171E-02
3978.427, 3.8062789E-02
3980.355, 3.5344079E-02
3982.284, 3.2098681E-02
3984.212, 3.4017980E-02
3986.141, 3.9717838E-02
3988.069, 4.3648560E-02
3989.998, 4.0061340E-02
3991.926, 3.6549721E-02
3993.854, 3.5329290E-02
3995.783, 3.6300160E-02
3997.711, 3.8760301E-02
3999.640, 3.8779002E-02
##END=



