##NAMES=Meyerhofferite
##RRUFFID=R050671
##IDEAL CHEMISTRY=CaB_3_O_3_(OH)_5_&#183;H_2_O
##LOCALITY=Inyo County, California, USA
##OWNER=RRUFF
##SOURCE=University of Arizona Mineral Museum
##DESCRIPTION=Colorless prismatic single crystals
##STATUS=The identification of this mineral has been confirmed by X-ray diffraction and chemical analysis
##URL=rruff.info/R050671
##MEASURED CHEMISTRY=Ca_1.00_B_3_O_3_(OH)_5_Â·H_2_O ; B not measured but estimated by charge balance
3.991926e+002, 1.028036e-001
4.011211e+002, 8.885615e-002
4.030495e+002, 7.676328e-002
4.049780e+002, 6.496735e-002
4.069065e+002, 5.909834e-002
4.088349e+002, 5.679530e-002
4.107634e+002, 5.684812e-002
4.126919e+002, 5.672809e-002
4.146203e+002, 5.750153e-002
4.165488e+002, 6.026586e-002
4.184773e+002, 6.319469e-002
4.204057e+002, 6.610943e-002
4.223342e+002, 7.136606e-002
4.242627e+002, 7.766891e-002
4.261911e+002, 8.512365e-002
4.281196e+002, 9.138858e-002
4.300481e+002, 9.500585e-002
4.319765e+002, 9.514474e-002
4.339050e+002, 8.877895e-002
4.358335e+002, 7.999620e-002
4.377619e+002, 7.332044e-002
4.396904e+002, 6.960159e-002
4.416189e+002, 6.789894e-002
4.435473e+002, 6.774105e-002
4.454758e+002, 6.887553e-002
4.474043e+002, 7.096589e-002
4.493327e+002, 7.466634e-002
4.512612e+002, 7.937066e-002
4.531897e+002, 8.530176e-002
4.551181e+002, 9.287961e-002
4.570466e+002, 1.011657e-001
4.589751e+002, 1.110873e-001
4.609035e+002, 1.234572e-001
4.628320e+002, 1.406260e-001
4.647605e+002, 1.623512e-001
4.666889e+002, 1.828639e-001
4.686174e+002, 1.924357e-001
4.705459e+002, 1.816053e-001
4.724743e+002, 1.550809e-001
4.744028e+002, 1.300948e-001
4.763313e+002, 1.150286e-001
4.782597e+002, 1.087316e-001
4.801882e+002, 1.089781e-001
4.821167e+002, 1.135577e-001
4.840451e+002, 1.191397e-001
4.859736e+002, 1.259748e-001
4.879021e+002, 1.339147e-001
4.898305e+002, 1.419622e-001
4.917590e+002, 1.488818e-001
4.936875e+002, 1.543975e-001
4.956159e+002, 1.569888e-001
4.975444e+002, 1.560419e-001
4.994729e+002, 1.504787e-001
5.014013e+002, 1.420605e-001
5.033298e+002, 1.339373e-001
5.052583e+002, 1.287071e-001
5.071867e+002, 1.277947e-001
5.091152e+002, 1.314456e-001
5.110437e+002, 1.399034e-001
5.129721e+002, 1.513596e-001
5.149006e+002, 1.645602e-001
5.168290e+002, 1.793620e-001
5.187575e+002, 1.934858e-001
5.206860e+002, 2.049619e-001
5.226144e+002, 2.135663e-001
5.245429e+002, 2.180555e-001
5.264714e+002, 2.167340e-001
5.283998e+002, 2.070095e-001
5.303283e+002, 1.895499e-001
5.322568e+002, 1.688434e-001
5.341852e+002, 1.511375e-001
5.361137e+002, 1.393494e-001
5.380422e+002, 1.317783e-001
5.399706e+002, 1.272221e-001
5.418991e+002, 1.252817e-001
5.438276e+002, 1.248501e-001
5.457560e+002, 1.253041e-001
5.476845e+002, 1.274698e-001
5.496130e+002, 1.306469e-001
5.515414e+002, 1.338489e-001
5.534699e+002, 1.382065e-001
5.553984e+002, 1.440005e-001
5.573268e+002, 1.510178e-001
5.592553e+002, 1.591437e-001
5.611838e+002, 1.683302e-001
5.631122e+002, 1.775217e-001
5.650407e+002, 1.872717e-001
5.669692e+002, 1.974835e-001
5.688976e+002, 2.073121e-001
5.708261e+002, 2.159547e-001
5.727546e+002, 2.223953e-001
5.746830e+002, 2.253865e-001
5.766115e+002, 2.228394e-001
5.785400e+002, 2.169042e-001
5.804684e+002, 2.093418e-001
5.823969e+002, 2.007863e-001
5.843254e+002, 1.921304e-001
5.862538e+002, 1.840418e-001
5.881823e+002, 1.771758e-001
5.901108e+002, 1.720041e-001
5.920392e+002, 1.689857e-001
5.939677e+002, 1.675258e-001
5.958962e+002, 1.681350e-001
5.978246e+002, 1.702490e-001
5.997531e+002, 1.736142e-001
6.016816e+002, 1.785794e-001
6.036100e+002, 1.851420e-001
6.055385e+002, 1.942714e-001
6.074670e+002, 2.058665e-001
6.093954e+002, 2.185324e-001
6.113239e+002, 2.300833e-001
6.132524e+002, 2.375837e-001
6.151808e+002, 2.401130e-001
6.171093e+002, 2.379019e-001
6.190378e+002, 2.319540e-001
6.209662e+002, 2.240902e-001
6.228947e+002, 2.158524e-001
6.248232e+002, 2.082478e-001
6.267516e+002, 2.024051e-001
6.286801e+002, 1.988000e-001
6.306086e+002, 1.972705e-001
6.325370e+002, 1.977433e-001
6.344655e+002, 2.006392e-001
6.363940e+002, 2.055593e-001
6.383224e+002, 2.121311e-001
6.402509e+002, 2.199900e-001
6.421794e+002, 2.289853e-001
6.441078e+002, 2.389631e-001
6.460363e+002, 2.497541e-001
6.479648e+002, 2.607733e-001
6.498932e+002, 2.712452e-001
6.518217e+002, 2.806242e-001
6.537502e+002, 2.889390e-001
6.556786e+002, 2.960462e-001
6.576071e+002, 3.015549e-001
6.595356e+002, 3.053038e-001
6.614641e+002, 3.078895e-001
6.633925e+002, 3.095491e-001
6.653210e+002, 3.105773e-001
6.672495e+002, 3.110106e-001
6.691779e+002, 3.110768e-001
6.711064e+002, 3.103420e-001
6.730349e+002, 3.072746e-001
6.749633e+002, 3.013402e-001
6.768918e+002, 2.922217e-001
6.788203e+002, 2.795823e-001
6.807487e+002, 2.635868e-001
6.826772e+002, 2.455474e-001
6.846057e+002, 2.266152e-001
6.865341e+002, 2.084504e-001
6.884626e+002, 1.925899e-001
6.903911e+002, 1.800190e-001
6.923195e+002, 1.704499e-001
6.942480e+002, 1.633773e-001
6.961765e+002, 1.581502e-001
6.981049e+002, 1.540029e-001
7.000334e+002, 1.509589e-001
7.019619e+002, 1.491080e-001
7.038903e+002, 1.492928e-001
7.058188e+002, 1.511209e-001
7.077473e+002, 1.546920e-001
7.096757e+002, 1.600420e-001
7.116042e+002, 1.672094e-001
7.135327e+002, 1.761952e-001
7.154611e+002, 1.869721e-001
7.173896e+002, 1.998856e-001
7.193181e+002, 2.151040e-001
7.212465e+002, 2.300371e-001
7.231750e+002, 2.388878e-001
7.251035e+002, 2.364204e-001
7.270319e+002, 2.227403e-001
7.289604e+002, 2.042900e-001
7.308889e+002, 1.871707e-001
7.328173e+002, 1.732945e-001
7.347458e+002, 1.623734e-001
7.366743e+002, 1.538574e-001
7.386027e+002, 1.473603e-001
7.405312e+002, 1.425473e-001
7.424597e+002, 1.385926e-001
7.443881e+002, 1.353495e-001
7.463166e+002, 1.330240e-001
7.482451e+002, 1.309478e-001
7.501735e+002, 1.291601e-001
7.521020e+002, 1.277594e-001
7.540305e+002, 1.265453e-001
7.559589e+002, 1.257647e-001
7.578874e+002, 1.255107e-001
7.598159e+002, 1.257985e-001
7.617443e+002, 1.264630e-001
7.636728e+002, 1.277374e-001
7.656013e+002, 1.298846e-001
7.675297e+002, 1.330531e-001
7.694582e+002, 1.373023e-001
7.713867e+002, 1.426790e-001
7.733151e+002, 1.493709e-001
7.752436e+002, 1.579002e-001
7.771721e+002, 1.680935e-001
7.791005e+002, 1.800792e-001
7.810290e+002, 1.939624e-001
7.829575e+002, 2.094714e-001
7.848859e+002, 2.261317e-001
7.868144e+002, 2.435445e-001
7.887429e+002, 2.604897e-001
7.906713e+002, 2.756256e-001
7.925998e+002, 2.873848e-001
7.945283e+002, 2.944075e-001
7.964567e+002, 2.970393e-001
7.983852e+002, 2.956293e-001
8.003137e+002, 2.911869e-001
8.022421e+002, 2.851087e-001
8.041706e+002, 2.791013e-001
8.060991e+002, 2.735787e-001
8.080275e+002, 2.683811e-001
8.099560e+002, 2.633989e-001
8.118845e+002, 2.586359e-001
8.138129e+002, 2.539908e-001
8.157414e+002, 2.494776e-001
8.176699e+002, 2.453925e-001
8.195983e+002, 2.422892e-001
8.215268e+002, 2.403432e-001
8.234553e+002, 2.397383e-001
8.253837e+002, 2.405485e-001
8.273122e+002, 2.427404e-001
8.292407e+002, 2.458826e-001
8.311691e+002, 2.492577e-001
8.330976e+002, 2.523327e-001
8.350261e+002, 2.547134e-001
8.369545e+002, 2.550713e-001
8.388830e+002, 2.526016e-001
8.408115e+002, 2.473910e-001
8.427399e+002, 2.395125e-001
8.446684e+002, 2.293940e-001
8.465969e+002, 2.176664e-001
8.485253e+002, 2.051684e-001
8.504538e+002, 1.930155e-001
8.523823e+002, 1.820944e-001
8.543107e+002, 1.728296e-001
8.562392e+002, 1.652176e-001
8.581677e+002, 1.597089e-001
8.600961e+002, 1.558363e-001
8.620246e+002, 1.537657e-001
8.639531e+002, 1.536043e-001
8.658815e+002, 1.551908e-001
8.678100e+002, 1.582988e-001
8.697385e+002, 1.629891e-001
8.716669e+002, 1.693351e-001
8.735954e+002, 1.773292e-001
8.755239e+002, 1.869866e-001
8.774523e+002, 1.980128e-001
8.793808e+002, 2.100896e-001
8.813093e+002, 2.226413e-001
8.832377e+002, 2.346340e-001
8.851662e+002, 2.447835e-001
8.870947e+002, 2.519708e-001
8.890231e+002, 2.556210e-001
8.909516e+002, 2.565514e-001
8.928801e+002, 2.562622e-001
8.948085e+002, 2.565411e-001
8.967370e+002, 2.585912e-001
8.986655e+002, 2.631088e-001
9.005939e+002, 2.691985e-001
9.025224e+002, 2.747865e-001
9.044509e+002, 2.774652e-001
9.063793e+002, 2.762438e-001
9.083078e+002, 2.711764e-001
9.102363e+002, 2.634958e-001
9.121647e+002, 2.549746e-001
9.140932e+002, 2.466182e-001
9.160217e+002, 2.390736e-001
9.179501e+002, 2.325700e-001
9.198786e+002, 2.277744e-001
9.218071e+002, 2.255337e-001
9.237355e+002, 2.268513e-001
9.256640e+002, 2.324114e-001
9.275925e+002, 2.427699e-001
9.295209e+002, 2.582547e-001
9.314494e+002, 2.788509e-001
9.333779e+002, 3.038011e-001
9.353063e+002, 3.317271e-001
9.372348e+002, 3.605442e-001
9.391633e+002, 3.865635e-001
9.410917e+002, 4.063227e-001
9.430202e+002, 4.183590e-001
9.449487e+002, 4.229121e-001
9.468771e+002, 4.233737e-001
9.488056e+002, 4.235740e-001
9.507341e+002, 4.262762e-001
9.526625e+002, 4.329793e-001
9.545910e+002, 4.436654e-001
9.565195e+002, 4.566002e-001
9.584479e+002, 4.697983e-001
9.603764e+002, 4.799024e-001
9.623049e+002, 4.842797e-001
9.642333e+002, 4.818893e-001
9.661618e+002, 4.723495e-001
9.680903e+002, 4.572506e-001
9.700187e+002, 4.391971e-001
9.719472e+002, 4.197177e-001
9.738757e+002, 4.003528e-001
9.758041e+002, 3.818479e-001
9.777326e+002, 3.645208e-001
9.796611e+002, 3.486693e-001
9.815895e+002, 3.345664e-001
9.835180e+002, 3.222535e-001
9.854465e+002, 3.113858e-001
9.873749e+002, 3.018037e-001
9.893034e+002, 2.933818e-001
9.912319e+002, 2.862355e-001
9.931603e+002, 2.816702e-001
9.950888e+002, 2.809932e-001
9.970173e+002, 2.846668e-001
9.989457e+002, 2.926129e-001
1.000874e+003, 3.046331e-001
1.002803e+003, 3.197726e-001
1.004731e+003, 3.369844e-001
1.006660e+003, 3.551974e-001
1.008588e+003, 3.733813e-001
1.010517e+003, 3.896810e-001
1.012445e+003, 4.030401e-001
1.014373e+003, 4.126157e-001
1.016302e+003, 4.176094e-001
1.018230e+003, 4.182416e-001
1.020159e+003, 4.153359e-001
1.022087e+003, 4.097586e-001
1.024016e+003, 4.023106e-001
1.025944e+003, 3.935243e-001
1.027873e+003, 3.840926e-001
1.029801e+003, 3.743772e-001
1.031730e+003, 3.647342e-001
1.033658e+003, 3.553361e-001
1.035587e+003, 3.469808e-001
1.037515e+003, 3.399156e-001
1.039443e+003, 3.336251e-001
1.041372e+003, 3.275365e-001
1.043300e+003, 3.217474e-001
1.045229e+003, 3.158149e-001
1.047157e+003, 3.092741e-001
1.049086e+003, 3.028690e-001
1.051014e+003, 2.979332e-001
1.052943e+003, 2.947326e-001
1.054871e+003, 2.934201e-001
1.056800e+003, 2.938896e-001
1.058728e+003, 2.962234e-001
1.060657e+003, 3.003390e-001
1.062585e+003, 3.058279e-001
1.064514e+003, 3.131377e-001
1.066442e+003, 3.225241e-001
1.068370e+003, 3.336422e-001
1.070299e+003, 3.461553e-001
1.072227e+003, 3.588516e-001
1.074156e+003, 3.707359e-001
1.076084e+003, 3.807648e-001
1.078013e+003, 3.881085e-001
1.079941e+003, 3.920214e-001
1.081870e+003, 3.922419e-001
1.083798e+003, 3.890340e-001
1.085727e+003, 3.833649e-001
1.087655e+003, 3.751547e-001
1.089584e+003, 3.649801e-001
1.091512e+003, 3.534200e-001
1.093441e+003, 3.411903e-001
1.095369e+003, 3.289397e-001
1.097297e+003, 3.168604e-001
1.099226e+003, 3.053302e-001
1.101154e+003, 2.946091e-001
1.103083e+003, 2.846490e-001
1.105011e+003, 2.757903e-001
1.106940e+003, 2.682721e-001
1.108868e+003, 2.618293e-001
1.110797e+003, 2.564672e-001
1.112725e+003, 2.523008e-001
1.114654e+003, 2.493483e-001
1.116582e+003, 2.470925e-001
1.118511e+003, 2.452859e-001
1.120439e+003, 2.435447e-001
1.122368e+003, 2.419989e-001
1.124296e+003, 2.405333e-001
1.126224e+003, 2.389331e-001
1.128153e+003, 2.372595e-001
1.130081e+003, 2.354638e-001
1.132010e+003, 2.337005e-001
1.133938e+003, 2.321749e-001
1.135867e+003, 2.304985e-001
1.137795e+003, 2.285983e-001
1.139724e+003, 2.268784e-001
1.141652e+003, 2.249773e-001
1.143581e+003, 2.223306e-001
1.145509e+003, 2.189265e-001
1.147438e+003, 2.147474e-001
1.149366e+003, 2.096091e-001
1.151295e+003, 2.036522e-001
1.153223e+003, 1.971650e-001
1.155151e+003, 1.902809e-001
1.157080e+003, 1.831012e-001
1.159008e+003, 1.759220e-001
1.160937e+003, 1.689899e-001
1.162865e+003, 1.625547e-001
1.164794e+003, 1.564390e-001
1.166722e+003, 1.506472e-001
1.168651e+003, 1.455666e-001
1.170579e+003, 1.411860e-001
1.172508e+003, 1.374065e-001
1.174436e+003, 1.343866e-001
1.176365e+003, 1.321821e-001
1.178293e+003, 1.307036e-001
1.180222e+003, 1.297577e-001
1.182150e+003, 1.290332e-001
1.184078e+003, 1.283898e-001
1.186007e+003, 1.278193e-001
1.187935e+003, 1.269209e-001
1.189864e+003, 1.254716e-001
1.191792e+003, 1.233967e-001
1.193721e+003, 1.205154e-001
1.195649e+003, 1.171759e-001
1.197578e+003, 1.135905e-001
1.199506e+003, 1.097959e-001
1.201435e+003, 1.058290e-001
1.203363e+003, 1.020472e-001
1.205292e+003, 9.853373e-002
1.207220e+003, 9.520838e-002
1.209149e+003, 9.206392e-002
1.211077e+003, 8.898054e-002
1.213005e+003, 8.587355e-002
1.214934e+003, 8.254048e-002
1.216862e+003, 7.916224e-002
1.218791e+003, 7.567298e-002
1.220719e+003, 7.208501e-002
1.222648e+003, 6.859284e-002
1.224576e+003, 6.519496e-002
1.226505e+003, 6.190985e-002
1.228433e+003, 5.878228e-002
1.230362e+003, 5.583815e-002
1.232290e+003, 5.330148e-002
1.234219e+003, 5.111539e-002
1.236147e+003, 4.901335e-002
1.238076e+003, 4.705980e-002
1.240004e+003, 4.533674e-002
1.241932e+003, 4.394373e-002
1.243861e+003, 4.266844e-002
1.245789e+003, 4.147243e-002
1.247718e+003, 4.050827e-002
1.249646e+003, 3.977815e-002
1.251575e+003, 3.910935e-002
1.253503e+003, 3.854549e-002
1.255432e+003, 3.814100e-002
1.257360e+003, 3.773771e-002
1.259289e+003, 3.739231e-002
1.261217e+003, 3.717776e-002
1.263146e+003, 3.703651e-002
1.265074e+003, 3.702622e-002
1.267003e+003, 3.722339e-002
1.268931e+003, 3.735214e-002
1.270859e+003, 3.743614e-002
1.272788e+003, 3.775953e-002
1.274716e+003, 3.814959e-002
1.276645e+003, 3.843826e-002
1.278573e+003, 3.869369e-002
1.280502e+003, 3.914663e-002
1.282430e+003, 3.979589e-002
1.284359e+003, 4.043533e-002
1.286287e+003, 4.106055e-002
1.288216e+003, 4.179435e-002
1.290144e+003, 4.260274e-002
1.292073e+003, 4.356952e-002
1.294001e+003, 4.463485e-002
1.295930e+003, 4.574038e-002
1.297858e+003, 4.701862e-002
1.299786e+003, 4.852960e-002
1.301715e+003, 5.024117e-002
1.303643e+003, 5.210036e-002
1.305572e+003, 5.424290e-002
1.307500e+003, 5.672349e-002
1.309429e+003, 5.932619e-002
1.311357e+003, 6.222701e-002
1.313286e+003, 6.550433e-002
1.315214e+003, 6.907055e-002
1.317143e+003, 7.305624e-002
1.319071e+003, 7.747422e-002
1.321000e+003, 8.245097e-002
1.322928e+003, 8.822609e-002
1.324857e+003, 9.482455e-002
1.326785e+003, 1.022683e-001
1.328714e+003, 1.108687e-001
1.330642e+003, 1.205800e-001
1.332570e+003, 1.315376e-001
1.334499e+003, 1.439126e-001
1.336427e+003, 1.576327e-001
1.338356e+003, 1.730285e-001
1.340284e+003, 1.899500e-001
1.342213e+003, 2.079851e-001
1.344141e+003, 2.266401e-001
1.346070e+003, 2.449953e-001
1.347998e+003, 2.620567e-001
1.349927e+003, 2.764459e-001
1.351855e+003, 2.869765e-001
1.353784e+003, 2.932521e-001
1.355712e+003, 2.953617e-001
1.357641e+003, 2.939607e-001
1.359569e+003, 2.895439e-001
1.361497e+003, 2.822580e-001
1.363426e+003, 2.725937e-001
1.365354e+003, 2.610121e-001
1.367283e+003, 2.482420e-001
1.369211e+003, 2.354219e-001
1.371140e+003, 2.235150e-001
1.373068e+003, 2.132964e-001
1.374997e+003, 2.054761e-001
1.376925e+003, 2.007753e-001
1.378854e+003, 1.995963e-001
1.380782e+003, 2.021336e-001
1.382711e+003, 2.084541e-001
1.384639e+003, 2.183864e-001
1.386568e+003, 2.309227e-001
1.388496e+003, 2.448691e-001
1.390424e+003, 2.583017e-001
1.392353e+003, 2.689550e-001
1.394281e+003, 2.754851e-001
1.396210e+003, 2.779306e-001
1.398138e+003, 2.767488e-001
1.400067e+003, 2.727030e-001
1.401995e+003, 2.664030e-001
1.403924e+003, 2.576264e-001
1.405852e+003, 2.462022e-001
1.407781e+003, 2.324517e-001
1.409709e+003, 2.169322e-001
1.411638e+003, 2.004028e-001
1.413566e+003, 1.836199e-001
1.415495e+003, 1.668799e-001
1.417423e+003, 1.505527e-001
1.419351e+003, 1.349785e-001
1.421280e+003, 1.209019e-001
1.423208e+003, 1.084163e-001
1.425137e+003, 9.774461e-002
1.427065e+003, 8.962032e-002
1.428994e+003, 8.433754e-002
1.430922e+003, 8.188634e-002
1.432851e+003, 8.244533e-002
1.434779e+003, 8.573485e-002
1.436708e+003, 9.161621e-002
1.438636e+003, 9.947000e-002
1.440565e+003, 1.072126e-001
1.442493e+003, 1.124253e-001
1.444422e+003, 1.133532e-001
1.446350e+003, 1.096009e-001
1.448278e+003, 1.024111e-001
1.450207e+003, 9.351379e-002
1.452135e+003, 8.418726e-002
1.454064e+003, 7.531154e-002
1.455992e+003, 6.696351e-002
1.457921e+003, 5.978344e-002
1.459849e+003, 5.367615e-002
1.461778e+003, 4.828005e-002
1.463706e+003, 4.369743e-002
1.465635e+003, 4.017778e-002
1.467563e+003, 3.766574e-002
1.469492e+003, 3.558291e-002
1.471420e+003, 3.373908e-002
1.473349e+003, 3.232524e-002
1.475277e+003, 3.133933e-002
1.477205e+003, 3.041399e-002
1.479134e+003, 2.967471e-002
1.481062e+003, 2.902000e-002
1.482991e+003, 2.844255e-002
1.484919e+003, 2.780280e-002
1.486848e+003, 2.718657e-002
1.488776e+003, 2.668053e-002
1.490705e+003, 2.624853e-002
1.492633e+003, 2.590810e-002
1.494562e+003, 2.531679e-002
1.496490e+003, 2.470588e-002
1.498419e+003, 2.444478e-002
1.500347e+003, 2.421659e-002
1.502276e+003, 2.392557e-002
1.504204e+003, 2.327345e-002
1.506132e+003, 2.248827e-002
1.508061e+003, 2.238005e-002
1.509989e+003, 2.242531e-002
1.511918e+003, 2.215479e-002
1.513846e+003, 2.185284e-002
1.515775e+003, 2.135539e-002
1.517703e+003, 2.103668e-002
1.519632e+003, 2.051576e-002
1.521560e+003, 2.002612e-002
1.523489e+003, 2.014524e-002
1.525417e+003, 2.004292e-002
1.527346e+003, 1.994452e-002
1.529274e+003, 1.982422e-002
1.531203e+003, 1.950948e-002
1.533131e+003, 1.906895e-002
1.535059e+003, 1.894840e-002
1.536988e+003, 1.863219e-002
1.538916e+003, 1.790509e-002
1.540845e+003, 1.766536e-002
1.542773e+003, 1.782752e-002
1.544702e+003, 1.783981e-002
1.546630e+003, 1.791957e-002
1.548559e+003, 1.793661e-002
1.550487e+003, 1.784967e-002
1.552416e+003, 1.756320e-002
1.554344e+003, 1.706501e-002
1.556273e+003, 1.670376e-002
1.558201e+003, 1.595352e-002
1.560130e+003, 1.585501e-002
1.562058e+003, 1.647571e-002
1.563986e+003, 1.652172e-002
1.565915e+003, 1.639558e-002
1.567843e+003, 1.618649e-002
1.569772e+003, 1.598474e-002
1.571700e+003, 1.598196e-002
1.573629e+003, 1.588584e-002
1.575557e+003, 1.536868e-002
1.577486e+003, 1.539918e-002
1.579414e+003, 1.560057e-002
1.581343e+003, 1.553974e-002
1.583271e+003, 1.564201e-002
1.585200e+003, 1.563837e-002
1.587128e+003, 1.541110e-002
1.589057e+003, 1.529214e-002
1.590985e+003, 1.529963e-002
1.592913e+003, 1.527834e-002
1.594842e+003, 1.525036e-002
1.596770e+003, 1.510710e-002
1.598699e+003, 1.503195e-002
1.600627e+003, 1.508291e-002
1.602556e+003, 1.507940e-002
1.604484e+003, 1.498275e-002
1.606413e+003, 1.492125e-002
1.608341e+003, 1.475907e-002
1.610270e+003, 1.469993e-002
1.612198e+003, 1.476978e-002
1.614127e+003, 1.460972e-002
1.616055e+003, 1.411511e-002
1.617984e+003, 1.421553e-002
1.619912e+003, 1.449354e-002
1.621840e+003, 1.435704e-002
1.623769e+003, 1.441001e-002
1.625697e+003, 1.444481e-002
1.627626e+003, 1.432620e-002
1.629554e+003, 1.441298e-002
1.631483e+003, 1.443416e-002
1.633411e+003, 1.418669e-002
1.635340e+003, 1.387797e-002
1.637268e+003, 1.405571e-002
1.639197e+003, 1.428916e-002
1.641125e+003, 1.419162e-002
1.643054e+003, 1.405340e-002
1.644982e+003, 1.370983e-002
1.646911e+003, 1.357272e-002
1.648839e+003, 1.386165e-002
1.650767e+003, 1.350232e-002
1.652696e+003, 1.259312e-002
1.654624e+003, 1.301129e-002
1.656553e+003, 1.365023e-002
1.658481e+003, 1.365553e-002
1.660410e+003, 1.351336e-002
1.662338e+003, 1.333832e-002
1.664267e+003, 1.352946e-002
1.666195e+003, 1.373291e-002
1.668124e+003, 1.343657e-002
1.670052e+003, 1.318738e-002
1.671981e+003, 1.336684e-002
1.673909e+003, 1.326543e-002
1.675838e+003, 1.320341e-002
1.677766e+003, 1.342599e-002
1.679694e+003, 1.343796e-002
1.681623e+003, 1.342017e-002
1.683551e+003, 1.274398e-002
1.685480e+003, 1.268902e-002
1.687408e+003, 1.322657e-002
1.689337e+003, 1.323330e-002
1.691265e+003, 1.315210e-002
1.693194e+003, 1.299725e-002
1.695122e+003, 1.241238e-002
1.697051e+003, 1.239825e-002
1.698979e+003, 1.225825e-002
1.700908e+003, 1.189768e-002
1.702836e+003, 1.222779e-002
1.704765e+003, 1.219363e-002
1.706693e+003, 1.214741e-002
1.708621e+003, 1.218270e-002
1.710550e+003, 1.222002e-002
1.712478e+003, 1.203597e-002
1.714407e+003, 1.163860e-002
1.716335e+003, 1.115912e-002
1.718264e+003, 1.097803e-002
1.720192e+003, 1.114498e-002
1.722121e+003, 1.114594e-002
1.724049e+003, 1.099603e-002
1.725978e+003, 1.083042e-002
1.727906e+003, 1.061353e-002
1.729835e+003, 1.023187e-002
1.731763e+003, 9.601463e-003
1.733692e+003, 8.973308e-003
1.735620e+003, 9.057309e-003
1.737548e+003, 9.208440e-003
1.739477e+003, 8.966900e-003
1.741405e+003, 8.728621e-003
1.743334e+003, 8.547298e-003
1.745262e+003, 8.679814e-003
1.747191e+003, 8.656559e-003
1.749119e+003, 8.486343e-003
1.751048e+003, 8.237541e-003
1.752976e+003, 8.285487e-003
1.754905e+003, 8.552292e-003
1.756833e+003, 8.642407e-003
1.758762e+003, 8.631214e-003
1.760690e+003, 8.532248e-003
1.762619e+003, 8.576727e-003
1.764547e+003, 8.661564e-003
1.766475e+003, 8.444767e-003
1.768404e+003, 8.234179e-003
1.770332e+003, 8.084760e-003
1.772261e+003, 7.878192e-003
1.774189e+003, 7.888555e-003
1.776118e+003, 7.977511e-003
1.778046e+003, 8.008444e-003
1.779975e+003, 7.883010e-003
1.781903e+003, 7.848495e-003
1.783832e+003, 7.748278e-003
1.785760e+003, 7.715967e-003
1.787689e+003, 7.832586e-003
1.789617e+003, 7.658918e-003
1.791546e+003, 7.302183e-003
1.793474e+003, 7.327149e-003
1.795402e+003, 7.488121e-003
1.797331e+003, 7.566466e-003
1.799259e+003, 7.466309e-003
1.801188e+003, 7.376766e-003
1.803116e+003, 7.391611e-003
1.805045e+003, 7.324244e-003
1.806973e+003, 7.289839e-003
1.808902e+003, 7.261577e-003
1.810830e+003, 7.271632e-003
1.812759e+003, 7.212405e-003
1.814687e+003, 7.030656e-003
1.816616e+003, 6.744564e-003
1.818544e+003, 6.888182e-003
1.820473e+003, 7.082019e-003
1.822401e+003, 7.065348e-003
1.824329e+003, 6.867698e-003
1.826258e+003, 7.054443e-003
1.828186e+003, 7.111154e-003
1.830115e+003, 6.791282e-003
1.832043e+003, 6.737109e-003
1.833972e+003, 6.759892e-003
1.835900e+003, 6.799224e-003
1.837829e+003, 6.827386e-003
1.839757e+003, 6.835550e-003
1.841686e+003, 6.773729e-003
1.843614e+003, 6.403779e-003
1.845543e+003, 6.354711e-003
1.847471e+003, 6.426711e-003
1.849400e+003, 6.294157e-003
1.851328e+003, 6.307662e-003
1.853256e+003, 6.397743e-003
1.855185e+003, 6.433341e-003
1.857113e+003, 6.488055e-003
1.859042e+003, 6.404531e-003
1.860970e+003, 6.229917e-003
1.862899e+003, 5.984261e-003
1.864827e+003, 5.659636e-003
1.866756e+003, 5.430908e-003
1.868684e+003, 5.353004e-003
1.870613e+003, 5.633051e-003
1.872541e+003, 5.619073e-003
1.874470e+003, 5.251171e-003
1.876398e+003, 5.383764e-003
1.878327e+003, 5.465014e-003
1.880255e+003, 5.257393e-003
1.882183e+003, 5.193538e-003
1.884112e+003, 5.027018e-003
1.886040e+003, 5.069656e-003
1.887969e+003, 5.025113e-003
1.889897e+003, 4.817193e-003
1.891826e+003, 4.893915e-003
1.893754e+003, 5.006516e-003
1.895683e+003, 4.828026e-003
1.897611e+003, 4.810137e-003
1.899540e+003, 4.988510e-003
1.901468e+003, 4.895774e-003
1.903397e+003, 4.478626e-003
1.905325e+003, 4.776218e-003
1.907254e+003, 4.980218e-003
1.909182e+003, 5.028137e-003
1.911110e+003, 4.971479e-003
1.913039e+003, 4.717418e-003
1.914967e+003, 4.508871e-003
1.916896e+003, 4.205848e-003
1.918824e+003, 4.304301e-003
1.920753e+003, 4.635227e-003
1.922681e+003, 4.704225e-003
1.924610e+003, 4.225818e-003
1.926538e+003, 4.250946e-003
1.928467e+003, 4.536338e-003
1.930395e+003, 4.223445e-003
1.932324e+003, 4.369460e-003
1.934252e+003, 4.872572e-003
1.936181e+003, 4.595992e-003
1.938109e+003, 4.534365e-003
1.940037e+003, 4.093075e-003
1.941966e+003, 3.391792e-003
1.943894e+003, 3.879446e-003
1.945823e+003, 4.287058e-003
1.947751e+003, 3.892747e-003
1.949680e+003, 3.241749e-003
1.951608e+003, 3.302453e-003
1.953537e+003, 3.935901e-003
1.955465e+003, 3.625910e-003
1.957394e+003, 3.640893e-003
1.959322e+003, 4.136768e-003
1.961251e+003, 4.845982e-003
1.963179e+003, 5.150584e-003
1.965108e+003, 4.626466e-003
1.967036e+003, 4.242846e-003
1.968964e+003, 3.859693e-003
1.970893e+003, 4.313902e-003
1.972821e+003, 4.540123e-003
1.974750e+003, 4.159375e-003
1.976678e+003, 4.997804e-003
1.978607e+003, 7.115378e-003
1.980535e+003, 7.424940e-003
1.982464e+003, 6.679557e-003
1.984392e+003, 7.038322e-003
1.986321e+003, 7.557768e-003
1.988249e+003, 6.602902e-003
1.990178e+003, 5.409732e-003
1.992106e+003, 5.453944e-003
1.994035e+003, 5.966374e-003
1.995963e+003, 5.848368e-003
1.997891e+003, 6.403745e-003
1.999820e+003, 6.519228e-003
2.001748e+003, 5.353633e-003
2.003677e+003, 3.969751e-003
2.005605e+003, 4.100546e-003
2.007534e+003, 5.222362e-003
2.009462e+003, 5.275178e-003
2.011391e+003, 5.537661e-003
2.013319e+003, 6.203321e-003
2.015248e+003, 5.798534e-003
2.017176e+003, 5.070162e-003
2.019105e+003, 4.567096e-003
2.021033e+003, 4.648947e-003
2.022962e+003, 4.815231e-003
2.024890e+003, 4.787407e-003
2.026818e+003, 5.019160e-003
2.028747e+003, 6.020687e-003
2.030675e+003, 6.180646e-003
2.032604e+003, 6.411204e-003
2.034532e+003, 6.767323e-003
2.036461e+003, 6.799336e-003
2.038389e+003, 7.245031e-003
2.040318e+003, 6.904081e-003
2.042246e+003, 6.409067e-003
2.044175e+003, 6.171605e-003
2.046103e+003, 6.925607e-003
2.048031e+003, 8.211278e-003
2.049960e+003, 8.726563e-003
2.051888e+003, 7.822921e-003
2.053817e+003, 7.304141e-003
2.055745e+003, 7.734845e-003
2.057674e+003, 7.750258e-003
2.059602e+003, 7.415029e-003
2.061531e+003, 6.915560e-003
2.063459e+003, 6.730512e-003
2.065388e+003, 6.972873e-003
2.067316e+003, 7.261579e-003
2.069245e+003, 7.466720e-003
2.071173e+003, 7.737836e-003
2.073102e+003, 7.621963e-003
2.075030e+003, 8.089378e-003
2.076958e+003, 8.030194e-003
2.078887e+003, 7.543397e-003
2.080815e+003, 7.642302e-003
2.082744e+003, 7.937269e-003
2.084672e+003, 8.289187e-003
2.086601e+003, 8.108021e-003
2.088529e+003, 7.794407e-003
2.090458e+003, 7.866229e-003
2.092386e+003, 8.014317e-003
2.094315e+003, 8.117812e-003
2.096243e+003, 8.230878e-003
2.098172e+003, 8.594114e-003
2.100100e+003, 8.754306e-003
2.102029e+003, 8.334953e-003
2.103957e+003, 8.594174e-003
2.105885e+003, 8.947282e-003
2.107814e+003, 8.595436e-003
2.109742e+003, 8.526008e-003
2.111671e+003, 8.439247e-003
2.113599e+003, 8.186063e-003
2.115528e+003, 8.146923e-003
2.117456e+003, 7.636959e-003
2.119385e+003, 7.095012e-003
2.121313e+003, 6.924497e-003
2.123242e+003, 7.183360e-003
2.125170e+003, 7.366099e-003
2.127099e+003, 7.254546e-003
2.129027e+003, 6.719271e-003
2.130956e+003, 5.835703e-003
2.132884e+003, 5.485252e-003
2.134813e+003, 5.999321e-003
2.136741e+003, 6.438801e-003
2.138669e+003, 6.468686e-003
2.140598e+003, 6.494077e-003
2.142526e+003, 5.957355e-003
2.144455e+003, 5.851022e-003
2.146383e+003, 5.788842e-003
2.148312e+003, 5.862861e-003
2.150240e+003, 6.302286e-003
2.152169e+003, 5.584755e-003
2.154097e+003, 5.104394e-003
2.156026e+003, 4.721000e-003
2.157954e+003, 4.795055e-003
2.159883e+003, 7.479124e-003
2.161811e+003, 9.880228e-003
2.163740e+003, 9.947451e-003
2.165668e+003, 9.424524e-003
2.167596e+003, 9.194233e-003
2.169525e+003, 9.458598e-003
2.171453e+003, 8.959929e-003
2.173382e+003, 8.546997e-003
2.175310e+003, 9.140089e-003
2.177239e+003, 9.351149e-003
2.179167e+003, 8.866685e-003
2.181096e+003, 9.282706e-003
2.183024e+003, 1.029659e-002
2.184953e+003, 1.014020e-002
2.186881e+003, 9.831585e-003
2.188810e+003, 9.828363e-003
2.190738e+003, 9.419853e-003
2.192667e+003, 9.317748e-003
2.194595e+003, 9.100336e-003
2.196523e+003, 9.777785e-003
2.198452e+003, 1.072507e-002
2.200380e+003, 1.083739e-002
2.202309e+003, 1.053827e-002
2.204237e+003, 1.032517e-002
2.206166e+003, 1.031751e-002
2.208094e+003, 1.023890e-002
2.210023e+003, 1.052384e-002
2.211951e+003, 1.106944e-002
2.213880e+003, 1.073888e-002
2.215808e+003, 1.027838e-002
2.217737e+003, 1.084293e-002
2.219665e+003, 1.146951e-002
2.221594e+003, 1.116734e-002
2.223522e+003, 1.065756e-002
2.225450e+003, 1.060834e-002
2.227379e+003, 1.086136e-002
2.229307e+003, 1.166316e-002
2.231236e+003, 1.151353e-002
2.233164e+003, 1.082348e-002
2.235093e+003, 1.079655e-002
2.237021e+003, 1.118555e-002
2.238950e+003, 1.134087e-002
2.240878e+003, 1.125968e-002
2.242807e+003, 1.115810e-002
2.244735e+003, 1.093090e-002
2.246664e+003, 1.110460e-002
2.248592e+003, 1.114670e-002
2.250521e+003, 1.080740e-002
2.252449e+003, 1.065333e-002
2.254377e+003, 1.063032e-002
2.256306e+003, 1.073331e-002
2.258234e+003, 1.034311e-002
2.260163e+003, 1.048367e-002
2.262091e+003, 1.076840e-002
2.264020e+003, 1.035712e-002
2.265948e+003, 1.036176e-002
2.267877e+003, 1.079248e-002
2.269805e+003, 1.119809e-002
2.271734e+003, 1.131263e-002
2.273662e+003, 1.088159e-002
2.275591e+003, 1.142859e-002
2.277519e+003, 1.200497e-002
2.279448e+003, 1.151356e-002
2.281376e+003, 1.164937e-002
2.283304e+003, 1.177066e-002
2.285233e+003, 1.169698e-002
2.287161e+003, 1.187976e-002
2.289090e+003, 1.151767e-002
2.291018e+003, 1.106865e-002
2.292947e+003, 1.087103e-002
2.294875e+003, 1.068673e-002
2.296804e+003, 1.058589e-002
2.298732e+003, 1.079680e-002
2.300661e+003, 1.125154e-002
2.302589e+003, 1.119541e-002
2.304518e+003, 1.093376e-002
2.306446e+003, 1.090913e-002
2.308375e+003, 1.088310e-002
2.310303e+003, 1.077579e-002
2.312231e+003, 1.098314e-002
2.314160e+003, 1.111735e-002
2.316088e+003, 1.137746e-002
2.318017e+003, 1.185349e-002
2.319945e+003, 1.209961e-002
2.321874e+003, 1.218294e-002
2.323802e+003, 1.213662e-002
2.325731e+003, 1.123927e-002
2.327659e+003, 1.057251e-002
2.329588e+003, 1.052763e-002
2.331516e+003, 1.038158e-002
2.333445e+003, 1.040112e-002
2.335373e+003, 1.025165e-002
2.337302e+003, 1.001514e-002
2.339230e+003, 9.875293e-003
2.341158e+003, 9.971387e-003
2.343087e+003, 1.021559e-002
2.345015e+003, 1.039102e-002
2.346944e+003, 1.066195e-002
2.348872e+003, 1.045465e-002
2.350801e+003, 1.034503e-002
2.352729e+003, 1.048768e-002
2.354658e+003, 1.023228e-002
2.356586e+003, 1.015027e-002
2.358515e+003, 1.023897e-002
2.360443e+003, 1.004543e-002
2.362372e+003, 9.833992e-003
2.364300e+003, 9.998274e-003
2.366229e+003, 1.006934e-002
2.368157e+003, 9.970379e-003
2.370085e+003, 1.003523e-002
2.372014e+003, 1.042049e-002
2.373942e+003, 1.050478e-002
2.375871e+003, 1.053566e-002
2.377799e+003, 1.050435e-002
2.379728e+003, 1.077385e-002
2.381656e+003, 1.110019e-002
2.383585e+003, 1.103941e-002
2.385513e+003, 1.127125e-002
2.387442e+003, 1.173991e-002
2.389370e+003, 1.162189e-002
2.391299e+003, 1.120428e-002
2.393227e+003, 1.111897e-002
2.395156e+003, 1.129264e-002
2.397084e+003, 1.138351e-002
2.399012e+003, 1.168363e-002
2.400941e+003, 1.175007e-002
2.402869e+003, 1.134686e-002
2.404798e+003, 1.141161e-002
2.406726e+003, 1.159771e-002
2.408655e+003, 1.162316e-002
2.410583e+003, 1.186872e-002
2.412512e+003, 1.186289e-002
2.414440e+003, 1.189279e-002
2.416369e+003, 1.214206e-002
2.418297e+003, 1.209066e-002
2.420226e+003, 1.165268e-002
2.422154e+003, 1.160804e-002
2.424083e+003, 1.200142e-002
2.426011e+003, 1.222109e-002
2.427939e+003, 1.193162e-002
2.429868e+003, 1.169474e-002
2.431796e+003, 1.172415e-002
2.433725e+003, 1.132126e-002
2.435653e+003, 1.116009e-002
2.437582e+003, 1.152905e-002
2.439510e+003, 1.169034e-002
2.441439e+003, 1.158346e-002
2.443367e+003, 1.157601e-002
2.445296e+003, 1.153061e-002
2.447224e+003, 1.157972e-002
2.449153e+003, 1.155835e-002
2.451081e+003, 1.121761e-002
2.453010e+003, 1.135665e-002
2.454938e+003, 1.158009e-002
2.456866e+003, 1.127301e-002
2.458795e+003, 1.094921e-002
2.460723e+003, 1.130317e-002
2.462652e+003, 1.142892e-002
2.464580e+003, 1.118436e-002
2.466509e+003, 1.129561e-002
2.468437e+003, 1.140538e-002
2.470366e+003, 1.131678e-002
2.472294e+003, 1.097990e-002
2.474223e+003, 1.079867e-002
2.476151e+003, 1.106976e-002
2.478080e+003, 1.143291e-002
2.480008e+003, 1.122809e-002
2.481937e+003, 1.086131e-002
2.483865e+003, 1.060270e-002
2.485793e+003, 1.089984e-002
2.487722e+003, 1.132496e-002
2.489650e+003, 1.138045e-002
2.491579e+003, 1.130143e-002
2.493507e+003, 1.109491e-002
2.495436e+003, 1.092393e-002
2.497364e+003, 1.079491e-002
2.499293e+003, 1.076528e-002
2.501221e+003, 1.071879e-002
2.503150e+003, 1.077172e-002
2.505078e+003, 1.077617e-002
2.507007e+003, 1.063358e-002
2.508935e+003, 1.080572e-002
2.510864e+003, 1.082145e-002
2.512792e+003, 1.063529e-002
2.514720e+003, 1.073882e-002
2.516649e+003, 1.108740e-002
2.518577e+003, 1.093888e-002
2.520506e+003, 1.060412e-002
2.522434e+003, 1.067595e-002
2.524363e+003, 1.099845e-002
2.526291e+003, 1.134265e-002
2.528220e+003, 1.135328e-002
2.530148e+003, 1.120679e-002
2.532077e+003, 1.085741e-002
2.534005e+003, 1.090929e-002
2.535934e+003, 1.133595e-002
2.537862e+003, 1.126032e-002
2.539791e+003, 1.087519e-002
2.541719e+003, 1.090235e-002
2.543647e+003, 1.083650e-002
2.545576e+003, 1.098290e-002
2.547504e+003, 1.114939e-002
2.549433e+003, 1.076951e-002
2.551361e+003, 1.070778e-002
2.553290e+003, 1.120681e-002
2.555218e+003, 1.126464e-002
2.557147e+003, 1.114084e-002
2.559075e+003, 1.090890e-002
2.561004e+003, 1.088552e-002
2.562932e+003, 1.117160e-002
2.564861e+003, 1.129978e-002
2.566789e+003, 1.136346e-002
2.568718e+003, 1.165047e-002
2.570646e+003, 1.165690e-002
2.572574e+003, 1.112662e-002
2.574503e+003, 1.113670e-002
2.576431e+003, 1.161730e-002
2.578360e+003, 1.167514e-002
2.580288e+003, 1.163802e-002
2.582217e+003, 1.168443e-002
2.584145e+003, 1.181240e-002
2.586074e+003, 1.169742e-002
2.588002e+003, 1.185452e-002
2.589931e+003, 1.214309e-002
2.591859e+003, 1.199670e-002
2.593788e+003, 1.180102e-002
2.595716e+003, 1.157936e-002
2.597645e+003, 1.153450e-002
2.599573e+003, 1.201743e-002
2.601501e+003, 1.216567e-002
2.603430e+003, 1.235103e-002
2.605358e+003, 1.246529e-002
2.607287e+003, 1.227846e-002
2.609215e+003, 1.243964e-002
2.611144e+003, 1.268401e-002
2.613072e+003, 1.240425e-002
2.615001e+003, 1.222879e-002
2.616929e+003, 1.252421e-002
2.618858e+003, 1.271009e-002
2.620786e+003, 1.270550e-002
2.622715e+003, 1.265715e-002
2.624643e+003, 1.259129e-002
2.626572e+003, 1.265038e-002
2.628500e+003, 1.271773e-002
2.630428e+003, 1.288272e-002
2.632357e+003, 1.306315e-002
2.634285e+003, 1.316721e-002
2.636214e+003, 1.308287e-002
2.638142e+003, 1.305604e-002
2.640071e+003, 1.316144e-002
2.641999e+003, 1.307404e-002
2.643928e+003, 1.297852e-002
2.645856e+003, 1.312083e-002
2.647785e+003, 1.333675e-002
2.649713e+003, 1.339419e-002
2.651642e+003, 1.321252e-002
2.653570e+003, 1.294862e-002
2.655499e+003, 1.279613e-002
2.657427e+003, 1.282940e-002
2.659355e+003, 1.275107e-002
2.661284e+003, 1.283790e-002
2.663212e+003, 1.256640e-002
2.665141e+003, 1.227330e-002
2.667069e+003, 1.228811e-002
2.668998e+003, 1.242339e-002
2.670926e+003, 1.242471e-002
2.672855e+003, 1.242530e-002
2.674783e+003, 1.250326e-002
2.676712e+003, 1.232863e-002
2.678640e+003, 1.220390e-002
2.680569e+003, 1.236144e-002
2.682497e+003, 1.279639e-002
2.684426e+003, 1.290320e-002
2.686354e+003, 1.255410e-002
2.688282e+003, 1.252749e-002
2.690211e+003, 1.264093e-002
2.692139e+003, 1.251495e-002
2.694068e+003, 1.237960e-002
2.695996e+003, 1.255731e-002
2.697925e+003, 1.291252e-002
2.699853e+003, 1.313290e-002
2.701782e+003, 1.306400e-002
2.703710e+003, 1.328680e-002
2.705639e+003, 1.346585e-002
2.707567e+003, 1.326090e-002
2.709496e+003, 1.320863e-002
2.711424e+003, 1.356816e-002
2.713353e+003, 1.390692e-002
2.715281e+003, 1.415364e-002
2.717209e+003, 1.431581e-002
2.719138e+003, 1.435454e-002
2.721066e+003, 1.464422e-002
2.722995e+003, 1.470112e-002
2.724923e+003, 1.472784e-002
2.726852e+003, 1.516758e-002
2.728780e+003, 1.562972e-002
2.730709e+003, 1.574606e-002
2.732637e+003, 1.569068e-002
2.734566e+003, 1.577441e-002
2.736494e+003, 1.627878e-002
2.738423e+003, 1.666785e-002
2.740351e+003, 1.666001e-002
2.742280e+003, 1.679912e-002
2.744208e+003, 1.711245e-002
2.746136e+003, 1.734485e-002
2.748065e+003, 1.768582e-002
2.749993e+003, 1.793992e-002
2.751922e+003, 1.825144e-002
2.753850e+003, 1.854937e-002
2.755779e+003, 1.869297e-002
2.757707e+003, 1.887316e-002
2.759636e+003, 1.898540e-002
2.761564e+003, 1.929296e-002
2.763493e+003, 1.932637e-002
2.765421e+003, 1.931374e-002
2.767350e+003, 1.956541e-002
2.769278e+003, 1.983791e-002
2.771207e+003, 1.999319e-002
2.773135e+003, 2.016857e-002
2.775063e+003, 2.036693e-002
2.776992e+003, 2.058813e-002
2.778920e+003, 2.059075e-002
2.780849e+003, 2.076300e-002
2.782777e+003, 2.093278e-002
2.784706e+003, 2.110421e-002
2.786634e+003, 2.124588e-002
2.788563e+003, 2.160397e-002
2.790491e+003, 2.205170e-002
2.792420e+003, 2.192915e-002
2.794348e+003, 2.179453e-002
2.796277e+003, 2.202347e-002
2.798205e+003, 2.242233e-002
2.800134e+003, 2.268714e-002
2.802062e+003, 2.298954e-002
2.803990e+003, 2.329030e-002
2.805919e+003, 2.321966e-002
2.807847e+003, 2.331615e-002
2.809776e+003, 2.363002e-002
2.811704e+003, 2.404867e-002
2.813633e+003, 2.445052e-002
2.815561e+003, 2.493309e-002
2.817490e+003, 2.541876e-002
2.819418e+003, 2.567247e-002
2.821347e+003, 2.574934e-002
2.823275e+003, 2.595949e-002
2.825204e+003, 2.656952e-002
2.827132e+003, 2.691165e-002
2.829061e+003, 2.715522e-002
2.830989e+003, 2.749314e-002
2.832917e+003, 2.763132e-002
2.834846e+003, 2.805272e-002
2.836774e+003, 2.841979e-002
2.838703e+003, 2.851239e-002
2.840631e+003, 2.859556e-002
2.842560e+003, 2.867132e-002
2.844488e+003, 2.838574e-002
2.846417e+003, 2.820788e-002
2.848345e+003, 2.833951e-002
2.850274e+003, 2.843653e-002
2.852202e+003, 2.858230e-002
2.854131e+003, 2.902289e-002
2.856059e+003, 2.947544e-002
2.857988e+003, 2.984112e-002
2.859916e+003, 3.020038e-002
2.861844e+003, 3.052180e-002
2.863773e+003, 3.083204e-002
2.865701e+003, 3.118410e-002
2.867630e+003, 3.122658e-002
2.869558e+003, 3.120384e-002
2.871487e+003, 3.133509e-002
2.873415e+003, 3.161325e-002
2.875344e+003, 3.196052e-002
2.877272e+003, 3.224502e-002
2.879201e+003, 3.243220e-002
2.881129e+003, 3.258369e-002
2.883058e+003, 3.267780e-002
2.884986e+003, 3.307711e-002
2.886915e+003, 3.342035e-002
2.888843e+003, 3.363874e-002
2.890771e+003, 3.373306e-002
2.892700e+003, 3.400648e-002
2.894628e+003, 3.398763e-002
2.896557e+003, 3.404206e-002
2.898485e+003, 3.457183e-002
2.900414e+003, 3.507897e-002
2.902342e+003, 3.537754e-002
2.904271e+003, 3.579623e-002
2.906199e+003, 3.644031e-002
2.908128e+003, 3.692253e-002
2.910056e+003, 3.732278e-002
2.911985e+003, 3.752306e-002
2.913913e+003, 3.733375e-002
2.915842e+003, 3.727869e-002
2.917770e+003, 3.753920e-002
2.919698e+003, 3.795611e-002
2.921627e+003, 3.897336e-002
2.923555e+003, 4.015347e-002
2.925484e+003, 4.096818e-002
2.927412e+003, 4.186242e-002
2.929341e+003, 4.274413e-002
2.931269e+003, 4.323965e-002
2.933198e+003, 4.376964e-002
2.935126e+003, 4.435256e-002
2.937055e+003, 4.511093e-002
2.938983e+003, 4.579733e-002
2.940912e+003, 4.679134e-002
2.942840e+003, 4.744991e-002
2.944769e+003, 4.799312e-002
2.946697e+003, 4.870210e-002
2.948625e+003, 4.951185e-002
2.950554e+003, 5.041692e-002
2.952482e+003, 5.124901e-002
2.954411e+003, 5.257523e-002
2.956339e+003, 5.349292e-002
2.958268e+003, 5.370803e-002
2.960196e+003, 5.436481e-002
2.962125e+003, 5.586161e-002
2.964053e+003, 5.716102e-002
2.965982e+003, 5.823569e-002
2.967910e+003, 5.919577e-002
2.969839e+003, 6.023193e-002
2.971767e+003, 6.143177e-002
2.973696e+003, 6.256952e-002
2.975624e+003, 6.367845e-002
2.977552e+003, 6.502595e-002
2.979481e+003, 6.629345e-002
2.981409e+003, 6.798496e-002
2.983338e+003, 6.946479e-002
2.985266e+003, 7.088080e-002
2.987195e+003, 7.274569e-002
2.989123e+003, 7.464518e-002
2.991052e+003, 7.630123e-002
2.992980e+003, 7.833816e-002
2.994909e+003, 8.019061e-002
2.996837e+003, 8.180697e-002
2.998766e+003, 8.410951e-002
3.000694e+003, 8.655271e-002
3.002623e+003, 8.853512e-002
3.004551e+003, 9.086424e-002
3.006479e+003, 9.364173e-002
3.008408e+003, 9.632611e-002
3.010336e+003, 9.888500e-002
3.012265e+003, 1.015327e-001
3.014193e+003, 1.041988e-001
3.016122e+003, 1.066539e-001
3.018050e+003, 1.092444e-001
3.019979e+003, 1.117257e-001
3.021907e+003, 1.141789e-001
3.023836e+003, 1.160629e-001
3.025764e+003, 1.175792e-001
3.027693e+003, 1.191924e-001
3.029621e+003, 1.207241e-001
3.031550e+003, 1.219966e-001
3.033478e+003, 1.227930e-001
3.035406e+003, 1.229838e-001
3.037335e+003, 1.226856e-001
3.039263e+003, 1.224200e-001
3.041192e+003, 1.219627e-001
3.043120e+003, 1.212946e-001
3.045049e+003, 1.198024e-001
3.046977e+003, 1.182818e-001
3.048906e+003, 1.166158e-001
3.050834e+003, 1.148270e-001
3.052763e+003, 1.132884e-001
3.054691e+003, 1.115149e-001
3.056620e+003, 1.095324e-001
3.058548e+003, 1.075114e-001
3.060477e+003, 1.057289e-001
3.062405e+003, 1.038906e-001
3.064333e+003, 1.020792e-001
3.066262e+003, 1.002302e-001
3.068190e+003, 9.884303e-002
3.070119e+003, 9.721027e-002
3.072047e+003, 9.556146e-002
3.073976e+003, 9.440877e-002
3.075904e+003, 9.356717e-002
3.077833e+003, 9.285139e-002
3.079761e+003, 9.170805e-002
3.081690e+003, 9.070960e-002
3.083618e+003, 8.986067e-002
3.085547e+003, 8.864766e-002
3.087475e+003, 8.789984e-002
3.089404e+003, 8.786955e-002
3.091332e+003, 8.743606e-002
3.093260e+003, 8.681919e-002
3.095189e+003, 8.643694e-002
3.097117e+003, 8.555936e-002
3.099046e+003, 8.510823e-002
3.100974e+003, 8.502980e-002
3.102903e+003, 8.445145e-002
3.104831e+003, 8.388422e-002
3.106760e+003, 8.403420e-002
3.108688e+003, 8.419561e-002
3.110617e+003, 8.394440e-002
3.112545e+003, 8.374302e-002
3.114474e+003, 8.359989e-002
3.116402e+003, 8.366214e-002
3.118331e+003, 8.351033e-002
3.120259e+003, 8.323956e-002
3.122188e+003, 8.318909e-002
3.124116e+003, 8.336613e-002
3.126044e+003, 8.402166e-002
3.127973e+003, 8.385769e-002
3.129901e+003, 8.350048e-002
3.131830e+003, 8.347432e-002
3.133758e+003, 8.362139e-002
3.135687e+003, 8.351824e-002
3.137615e+003, 8.368241e-002
3.139544e+003, 8.401079e-002
3.141472e+003, 8.432318e-002
3.143401e+003, 8.479629e-002
3.145329e+003, 8.525188e-002
3.147258e+003, 8.552963e-002
3.149186e+003, 8.540961e-002
3.151115e+003, 8.598696e-002
3.153043e+003, 8.684550e-002
3.154971e+003, 8.723865e-002
3.156900e+003, 8.738121e-002
3.158828e+003, 8.770497e-002
3.160757e+003, 8.839561e-002
3.162685e+003, 8.889841e-002
3.164614e+003, 8.898198e-002
3.166542e+003, 8.939897e-002
3.168471e+003, 8.956452e-002
3.170399e+003, 9.004394e-002
3.172328e+003, 9.081364e-002
3.174256e+003, 9.174666e-002
3.176185e+003, 9.262943e-002
3.178113e+003, 9.339607e-002
3.180042e+003, 9.382635e-002
3.181970e+003, 9.461889e-002
3.183898e+003, 9.543056e-002
3.185827e+003, 9.582301e-002
3.187755e+003, 9.672678e-002
3.189684e+003, 9.743082e-002
3.191612e+003, 9.809837e-002
3.193541e+003, 9.880204e-002
3.195469e+003, 9.925658e-002
3.197398e+003, 1.003892e-001
3.199326e+003, 1.016508e-001
3.201255e+003, 1.026861e-001
3.203183e+003, 1.036004e-001
3.205112e+003, 1.043736e-001
3.207040e+003, 1.053237e-001
3.208969e+003, 1.063372e-001
3.210897e+003, 1.073233e-001
3.212825e+003, 1.077922e-001
3.214754e+003, 1.082055e-001
3.216682e+003, 1.094856e-001
3.218611e+003, 1.112318e-001
3.220539e+003, 1.121429e-001
3.222468e+003, 1.129135e-001
3.224396e+003, 1.142159e-001
3.226325e+003, 1.152602e-001
3.228253e+003, 1.165181e-001
3.230182e+003, 1.178275e-001
3.232110e+003, 1.190694e-001
3.234039e+003, 1.203801e-001
3.235967e+003, 1.214911e-001
3.237896e+003, 1.225125e-001
3.239824e+003, 1.233992e-001
3.241752e+003, 1.242775e-001
3.243681e+003, 1.254268e-001
3.245609e+003, 1.270449e-001
3.247538e+003, 1.289306e-001
3.249466e+003, 1.307303e-001
3.251395e+003, 1.318376e-001
3.253323e+003, 1.331214e-001
3.255252e+003, 1.349045e-001
3.257180e+003, 1.369664e-001
3.259109e+003, 1.390325e-001
3.261037e+003, 1.404525e-001
3.262966e+003, 1.420842e-001
3.264894e+003, 1.442273e-001
3.266823e+003, 1.468644e-001
3.268751e+003, 1.495965e-001
3.270679e+003, 1.519951e-001
3.272608e+003, 1.539339e-001
3.274536e+003, 1.561196e-001
3.276465e+003, 1.586183e-001
3.278393e+003, 1.612836e-001
3.280322e+003, 1.633339e-001
3.282250e+003, 1.651331e-001
3.284179e+003, 1.671581e-001
3.286107e+003, 1.694078e-001
3.288036e+003, 1.709928e-001
3.289964e+003, 1.722518e-001
3.291893e+003, 1.734983e-001
3.293821e+003, 1.747065e-001
3.295750e+003, 1.755728e-001
3.297678e+003, 1.760566e-001
3.299606e+003, 1.765737e-001
3.301535e+003, 1.769238e-001
3.303463e+003, 1.770978e-001
3.305392e+003, 1.772496e-001
3.307320e+003, 1.768003e-001
3.309249e+003, 1.759795e-001
3.311177e+003, 1.758928e-001
3.313106e+003, 1.757487e-001
3.315034e+003, 1.747801e-001
3.316963e+003, 1.735883e-001
3.318891e+003, 1.735345e-001
3.320820e+003, 1.731169e-001
3.322748e+003, 1.728964e-001
3.324677e+003, 1.727638e-001
3.326605e+003, 1.721521e-001
3.328533e+003, 1.717862e-001
3.330462e+003, 1.713540e-001
3.332390e+003, 1.710417e-001
3.334319e+003, 1.710405e-001
3.336247e+003, 1.717243e-001
3.338176e+003, 1.724387e-001
3.340104e+003, 1.725690e-001
3.342033e+003, 1.729781e-001
3.343961e+003, 1.741626e-001
3.345890e+003, 1.750196e-001
3.347818e+003, 1.755407e-001
3.349747e+003, 1.767897e-001
3.351675e+003, 1.781816e-001
3.353604e+003, 1.798106e-001
3.355532e+003, 1.815651e-001
3.357460e+003, 1.832993e-001
3.359389e+003, 1.854578e-001
3.361317e+003, 1.876966e-001
3.363246e+003, 1.900608e-001
3.365174e+003, 1.925479e-001
3.367103e+003, 1.954898e-001
3.369031e+003, 1.988882e-001
3.370960e+003, 2.025261e-001
3.372888e+003, 2.066702e-001
3.374817e+003, 2.110047e-001
3.376745e+003, 2.162797e-001
3.378674e+003, 2.218877e-001
3.380602e+003, 2.283517e-001
3.382531e+003, 2.347990e-001
3.384459e+003, 2.403684e-001
3.386387e+003, 2.466365e-001
3.388316e+003, 2.534429e-001
3.390244e+003, 2.592789e-001
3.392173e+003, 2.641335e-001
3.394101e+003, 2.693044e-001
3.396030e+003, 2.744353e-001
3.397958e+003, 2.794397e-001
3.399887e+003, 2.855288e-001
3.401815e+003, 2.925974e-001
3.403744e+003, 3.008461e-001
3.405672e+003, 3.094038e-001
3.407601e+003, 3.184292e-001
3.409529e+003, 3.280599e-001
3.411458e+003, 3.368182e-001
3.413386e+003, 3.448448e-001
3.415314e+003, 3.523360e-001
3.417243e+003, 3.586468e-001
3.419171e+003, 3.634926e-001
3.421100e+003, 3.675144e-001
3.423028e+003, 3.712161e-001
3.424957e+003, 3.736007e-001
3.426885e+003, 3.750630e-001
3.428814e+003, 3.770046e-001
3.430742e+003, 3.780863e-001
3.432671e+003, 3.775106e-001
3.434599e+003, 3.749599e-001
3.436528e+003, 3.703201e-001
3.438456e+003, 3.636360e-001
3.440385e+003, 3.548085e-001
3.442313e+003, 3.436509e-001
3.444241e+003, 3.311185e-001
3.446170e+003, 3.182989e-001
3.448098e+003, 3.049318e-001
3.450027e+003, 2.916128e-001
3.451955e+003, 2.784456e-001
3.453884e+003, 2.651414e-001
3.455812e+003, 2.536524e-001
3.457741e+003, 2.443039e-001
3.459669e+003, 2.358747e-001
3.461598e+003, 2.290215e-001
3.463526e+003, 2.237428e-001
3.465455e+003, 2.187354e-001
3.467383e+003, 2.152385e-001
3.469312e+003, 2.137396e-001
3.471240e+003, 2.127380e-001
3.473168e+003, 2.122495e-001
3.475097e+003, 2.132196e-001
3.477025e+003, 2.153377e-001
3.478954e+003, 2.168903e-001
3.480882e+003, 2.173796e-001
3.482811e+003, 2.164714e-001
3.484739e+003, 2.128143e-001
3.486668e+003, 2.068007e-001
3.488596e+003, 1.982618e-001
3.490525e+003, 1.882891e-001
3.492453e+003, 1.770422e-001
3.494382e+003, 1.648284e-001
3.496310e+003, 1.531647e-001
3.498239e+003, 1.424735e-001
3.500167e+003, 1.323395e-001
3.502095e+003, 1.236862e-001
3.504024e+003, 1.161845e-001
3.505952e+003, 1.095577e-001
3.507881e+003, 1.031527e-001
3.509809e+003, 9.723117e-002
3.511738e+003, 9.198523e-002
3.513666e+003, 8.761162e-002
3.515595e+003, 8.358005e-002
3.517523e+003, 7.975259e-002
3.519452e+003, 7.576439e-002
3.521380e+003, 7.254391e-002
3.523309e+003, 6.960519e-002
3.525237e+003, 6.702163e-002
3.527166e+003, 6.496245e-002
3.529094e+003, 6.296765e-002
3.531022e+003, 6.099756e-002
3.532951e+003, 5.884069e-002
3.534879e+003, 5.667799e-002
3.536808e+003, 5.514427e-002
3.538736e+003, 5.387076e-002
3.540665e+003, 5.212260e-002
3.542593e+003, 5.018389e-002
3.544522e+003, 4.884154e-002
3.546450e+003, 4.692833e-002
3.548379e+003, 4.543367e-002
3.550307e+003, 4.466447e-002
3.552236e+003, 4.362506e-002
3.554164e+003, 4.231142e-002
3.556093e+003, 4.103402e-002
3.558021e+003, 3.970793e-002
3.559949e+003, 3.877736e-002
3.561878e+003, 3.808970e-002
3.563806e+003, 3.755088e-002
3.565735e+003, 3.690445e-002
3.567663e+003, 3.574643e-002
3.569592e+003, 3.503132e-002
3.571520e+003, 3.497456e-002
3.573449e+003, 3.486504e-002
3.575377e+003, 3.451990e-002
3.577306e+003, 3.399574e-002
3.579234e+003, 3.373222e-002
3.581163e+003, 3.353235e-002
3.583091e+003, 3.444391e-002
3.585020e+003, 3.523765e-002
3.586948e+003, 3.534529e-002
3.588876e+003, 3.787364e-002
3.590805e+003, 4.249178e-002
3.592733e+003, 4.794801e-002
3.594662e+003, 5.734456e-002
3.596590e+003, 7.264677e-002
3.598519e+003, 9.664845e-002
3.600447e+003, 1.325833e-001
3.602376e+003, 1.737550e-001
3.604304e+003, 1.919654e-001
3.606233e+003, 1.652461e-001
3.608161e+003, 1.180673e-001
3.610090e+003, 8.021943e-002
3.612018e+003, 5.652264e-002
3.613947e+003, 4.188675e-002
3.615875e+003, 3.227215e-002
3.617803e+003, 2.562110e-002
3.619732e+003, 2.079265e-002
3.621660e+003, 1.754428e-002
3.623589e+003, 1.568052e-002
3.625517e+003, 1.390994e-002
3.627446e+003, 1.194133e-002
3.629374e+003, 1.112814e-002
3.631303e+003, 1.064673e-002
3.633231e+003, 9.497764e-003
3.635160e+003, 9.172955e-003
3.637088e+003, 9.199962e-003
3.639017e+003, 9.088740e-003
3.640945e+003, 8.794083e-003
3.642874e+003, 8.275057e-003
3.644802e+003, 7.494499e-003
3.646730e+003, 7.062165e-003
3.648659e+003, 5.695840e-003
3.650587e+003, 4.697036e-003
3.652516e+003, 5.516690e-003
3.654444e+003, 5.432433e-003
3.656373e+003, 4.869238e-003
3.658301e+003, 4.384276e-003
3.660230e+003, 4.831825e-003
3.662158e+003, 5.682613e-003
3.664087e+003, 5.724675e-003
3.666015e+003, 5.063280e-003
3.667944e+003, 4.718461e-003
3.669872e+003, 3.455256e-003
3.671801e+003, 3.523346e-003
3.673729e+003, 3.650093e-003
3.675657e+003, 2.512755e-003
3.677586e+003, 2.704187e-003
3.679514e+003, 3.215014e-003
3.681443e+003, 3.302327e-003
3.683371e+003, 3.179403e-003
3.685300e+003, 2.867097e-003
3.687228e+003, 2.059766e-003
3.689157e+003, 1.967286e-003
3.691085e+003, 2.507995e-003
3.693014e+003, 2.135274e-003
3.694942e+003, 2.129104e-003
3.696871e+003, 3.013884e-003
3.698799e+003, 3.409970e-003
3.700728e+003, 3.440338e-003
3.702656e+003, 3.577568e-003
3.704584e+003, 2.898626e-003
3.706513e+003, 2.850255e-003
3.708441e+003, 3.228401e-003
3.710370e+003, 2.490982e-003
3.712298e+003, 1.812105e-003
3.714227e+003, 2.770334e-003
3.716155e+003, 3.263060e-003
3.718084e+003, 3.575817e-003
3.720012e+003, 3.632974e-003
3.721941e+003, 2.822103e-003
3.723869e+003, 3.156922e-003
3.725798e+003, 3.117069e-003
3.727726e+003, 3.071370e-003
3.729655e+003, 3.597330e-003
3.731583e+003, 3.063678e-003
3.733511e+003, 2.394099e-003
3.735440e+003, 2.410294e-003
3.737368e+003, 3.072990e-003
3.739297e+003, 2.935359e-003
3.741225e+003, 2.309929e-003
3.743154e+003, 7.779006e-004
3.745082e+003, 5.489591e-004
3.747011e+003, 1.882685e-003
3.748939e+003, 1.475624e-003
3.750868e+003, 1.077076e-003
3.752796e+003, 2.055602e-003
3.754725e+003, 3.571133e-003
3.756653e+003, 3.700393e-003
3.758582e+003, 3.517267e-003
3.760510e+003, 3.509015e-003
3.762438e+003, 3.720907e-003
3.764367e+003, 3.531754e-003
3.766295e+003, 3.295899e-003
3.768224e+003, 2.681124e-003
3.770152e+003, 2.257317e-003
3.772081e+003, 2.638308e-003
3.774009e+003, 3.740893e-003
3.775938e+003, 3.679554e-003
3.777866e+003, 3.335035e-003
3.779795e+003, 3.288862e-003
3.781723e+003, 3.588581e-003
3.783652e+003, 4.038443e-003
3.785580e+003, 4.083090e-003
3.787509e+003, 4.053531e-003
3.789437e+003, 3.871160e-003
3.791365e+003, 4.057940e-003
3.793294e+003, 4.415038e-003
3.795222e+003, 3.707517e-003
3.797151e+003, 3.613636e-003
3.799079e+003, 3.340685e-003
3.801008e+003, 2.161038e-003
3.802936e+003, 2.531052e-003
3.804865e+003, 3.404995e-003
3.806793e+003, 3.070996e-003
3.808722e+003, 3.244211e-003
3.810650e+003, 3.686486e-003
3.812579e+003, 3.641590e-003
3.814507e+003, 2.627183e-003
3.816436e+003, 2.230570e-003
3.818364e+003, 2.733170e-003
3.820292e+003, 2.473330e-003
3.822221e+003, 3.009734e-003
3.824149e+003, 4.057248e-003
3.826078e+003, 4.270223e-003
3.828006e+003, 4.286692e-003
3.829935e+003, 4.036665e-003
3.831863e+003, 3.627871e-003
3.833792e+003, 3.268646e-003
3.835720e+003, 2.557288e-003
3.837649e+003, 2.443146e-003
3.839577e+003, 3.599933e-003
3.841506e+003, 4.068622e-003
3.843434e+003, 4.461693e-003
3.845363e+003, 4.635847e-003
3.847291e+003, 3.967928e-003
3.849219e+003, 3.499612e-003
3.851148e+003, 2.785404e-003
3.853076e+003, 1.921620e-003
3.855005e+003, 2.284085e-003
3.856933e+003, 3.242682e-003
3.858862e+003, 3.927464e-003
3.860790e+003, 3.838356e-003
3.862719e+003, 3.362463e-003
3.864647e+003, 3.916682e-003
3.866576e+003, 4.327782e-003
3.868504e+003, 3.936702e-003
3.870433e+003, 3.640437e-003
3.872361e+003, 3.920360e-003
3.874290e+003, 3.578252e-003
3.876218e+003, 3.914034e-003
3.878146e+003, 4.065222e-003
3.880075e+003, 4.073013e-003
3.882003e+003, 4.251521e-003
3.883932e+003, 4.332305e-003
3.885860e+003, 4.288474e-003
3.887789e+003, 4.139480e-003
3.889717e+003, 3.536318e-003
3.891646e+003, 3.975615e-003
3.893574e+003, 4.423750e-003
3.895503e+003, 4.438068e-003
3.897431e+003, 4.735861e-003
3.899360e+003, 4.502894e-003
3.901288e+003, 4.088969e-003
3.903217e+003, 4.217371e-003
3.905145e+003, 4.488601e-003
3.907073e+003, 4.482356e-003
3.909002e+003, 4.212619e-003
3.910930e+003, 4.165309e-003
3.912859e+003, 4.495139e-003
3.914787e+003, 4.596048e-003
3.916716e+003, 4.662054e-003
3.918644e+003, 4.670057e-003
3.920573e+003, 4.805336e-003
3.922501e+003, 5.515932e-003
3.924430e+003, 5.333258e-003
3.926358e+003, 4.598393e-003
3.928287e+003, 5.089601e-003
3.930215e+003, 5.665834e-003
3.932144e+003, 5.424281e-003
3.934072e+003, 4.887200e-003
3.936000e+003, 4.670898e-003
3.937929e+003, 4.823901e-003
3.939857e+003, 5.570245e-003
3.941786e+003, 5.516480e-003
3.943714e+003, 4.937334e-003
3.945643e+003, 5.186887e-003
3.947571e+003, 5.452082e-003
3.949500e+003, 5.659661e-003
3.951428e+003, 5.529752e-003
3.953357e+003, 5.691181e-003
3.955285e+003, 5.897241e-003
3.957214e+003, 5.516998e-003
3.959142e+003, 5.308592e-003
3.961071e+003, 4.986274e-003
3.962999e+003, 4.793651e-003
3.964927e+003, 5.267278e-003
3.966856e+003, 5.564903e-003
3.968784e+003, 5.118174e-003
3.970713e+003, 5.243100e-003
3.972641e+003, 5.923491e-003
3.974570e+003, 5.854337e-003
3.976498e+003, 5.917707e-003
3.978427e+003, 5.932209e-003
3.980355e+003, 5.483443e-003
3.982284e+003, 5.239238e-003
3.984212e+003, 5.763563e-003
3.986141e+003, 5.792452e-003
3.988069e+003, 5.744600e-003
3.989998e+003, 5.929359e-003
3.991926e+003, 5.906072e-003
3.993854e+003, 6.604048e-003
3.995783e+003, 6.414000e-003
3.997711e+003, 5.148773e-003
3.999640e+003, 5.161752e-003
4.001568e+003, 0.000000e+000
##END=



