##NAMES=Mimetite
##RRUFFID=R050007
##IDEAL CHEMISTRY=Pb^2+^_5_(As^5+^O_4_)_3_Cl
##LOCALITY=Pingtouling, Guangdong, China
##OWNER=RRUFF
##SOURCE=Eugene Schlepp
##DESCRIPTION=Reddish orange colored hexagonal prisms
##STATUS=The identification of this mineral has been confirmed by X-ray diffraction and chemical analysis
##URL=rruff.info/R050007
##MEASURED CHEMISTRY=Pb_5.00_((As_0.99_P_0.01_)O_4_)_3_Cl_1.00_
3.991926e+002, 1.707201e-001
4.011211e+002, 1.713509e-001
4.030496e+002, 1.721747e-001
4.049780e+002, 1.736261e-001
4.069065e+002, 1.702745e-001
4.088350e+002, 1.642911e-001
4.107634e+002, 1.560542e-001
4.126919e+002, 1.490938e-001
4.146204e+002, 1.400586e-001
4.165488e+002, 1.330850e-001
4.184773e+002, 1.254861e-001
4.204058e+002, 1.161156e-001
4.223342e+002, 1.066855e-001
4.242627e+002, 9.742810e-002
4.261912e+002, 9.006245e-002
4.281196e+002, 8.429635e-002
4.300481e+002, 7.725943e-002
4.319766e+002, 6.824018e-002
4.339050e+002, 6.082505e-002
4.358335e+002, 5.456331e-002
4.377620e+002, 4.906315e-002
4.396904e+002, 4.423414e-002
4.416189e+002, 3.940979e-002
4.435474e+002, 3.487987e-002
4.454758e+002, 3.130985e-002
4.474043e+002, 2.903909e-002
4.493328e+002, 2.668202e-002
4.512612e+002, 2.450930e-002
4.531897e+002, 2.357979e-002
4.551182e+002, 2.275388e-002
4.570466e+002, 2.121085e-002
4.589751e+002, 2.019659e-002
4.609036e+002, 2.000778e-002
4.628320e+002, 1.930812e-002
4.647605e+002, 1.879728e-002
4.666890e+002, 1.873823e-002
4.686174e+002, 1.853331e-002
4.705459e+002, 1.845183e-002
4.724744e+002, 1.837148e-002
4.744028e+002, 1.841804e-002
4.763313e+002, 1.818136e-002
4.782598e+002, 1.785362e-002
4.801882e+002, 1.801507e-002
4.821167e+002, 1.809853e-002
4.840452e+002, 1.802888e-002
4.859736e+002, 1.799095e-002
4.879021e+002, 1.833392e-002
4.898306e+002, 1.825924e-002
4.917590e+002, 1.808308e-002
4.936875e+002, 1.856888e-002
4.956160e+002, 1.869036e-002
4.975444e+002, 1.895834e-002
4.994729e+002, 1.921588e-002
5.014014e+002, 1.918541e-002
5.033298e+002, 1.948771e-002
5.052583e+002, 1.998122e-002
5.071868e+002, 2.028583e-002
5.091152e+002, 2.085723e-002
5.110437e+002, 2.119742e-002
5.129722e+002, 2.151671e-002
5.149006e+002, 2.226668e-002
5.168291e+002, 2.262769e-002
5.187576e+002, 2.305931e-002
5.206860e+002, 2.408526e-002
5.226145e+002, 2.480643e-002
5.245430e+002, 2.558713e-002
5.264714e+002, 2.672130e-002
5.283999e+002, 2.792412e-002
5.303284e+002, 2.902763e-002
5.322568e+002, 3.043578e-002
5.341853e+002, 3.213736e-002
5.361138e+002, 3.352918e-002
5.380422e+002, 3.495970e-002
5.399707e+002, 3.603556e-002
5.418992e+002, 3.684931e-002
5.438276e+002, 3.776139e-002
5.457561e+002, 3.859967e-002
5.476846e+002, 3.975148e-002
5.496130e+002, 4.130466e-002
5.515415e+002, 4.254629e-002
5.534700e+002, 4.364582e-002
5.553984e+002, 4.441331e-002
5.573269e+002, 4.524751e-002
5.592554e+002, 4.709278e-002
5.611838e+002, 4.940019e-002
5.631123e+002, 5.164909e-002
5.650408e+002, 5.356776e-002
5.669692e+002, 5.401093e-002
5.688977e+002, 5.353518e-002
5.708262e+002, 5.303041e-002
5.727546e+002, 5.328267e-002
5.746831e+002, 5.417674e-002
5.766116e+002, 5.543554e-002
5.785400e+002, 5.707575e-002
5.804685e+002, 5.852229e-002
5.823970e+002, 6.000036e-002
5.843254e+002, 6.147927e-002
5.862539e+002, 6.307577e-002
5.881824e+002, 6.484949e-002
5.901108e+002, 6.662416e-002
5.920393e+002, 6.839117e-002
5.939678e+002, 7.028772e-002
5.958962e+002, 7.235809e-002
5.978247e+002, 7.402725e-002
5.997532e+002, 7.575840e-002
6.016816e+002, 7.746296e-002
6.036101e+002, 7.933850e-002
6.055386e+002, 8.114436e-002
6.074670e+002, 8.300651e-002
6.093955e+002, 8.519965e-002
6.113240e+002, 8.697478e-002
6.132524e+002, 8.834273e-002
6.151809e+002, 9.005011e-002
6.171094e+002, 9.205886e-002
6.190378e+002, 9.386276e-002
6.209663e+002, 9.552744e-002
6.228948e+002, 9.734069e-002
6.248232e+002, 9.949375e-002
6.267517e+002, 1.017686e-001
6.286802e+002, 1.035639e-001
6.306086e+002, 1.052550e-001
6.325371e+002, 1.071954e-001
6.344656e+002, 1.092231e-001
6.363940e+002, 1.113238e-001
6.383225e+002, 1.136139e-001
6.402510e+002, 1.158551e-001
6.421794e+002, 1.179523e-001
6.441079e+002, 1.200902e-001
6.460364e+002, 1.223470e-001
6.479648e+002, 1.249291e-001
6.498933e+002, 1.272397e-001
6.518218e+002, 1.293148e-001
6.537502e+002, 1.316611e-001
6.556787e+002, 1.342700e-001
6.576072e+002, 1.366142e-001
6.595356e+002, 1.388043e-001
6.614641e+002, 1.414084e-001
6.633926e+002, 1.441516e-001
6.653210e+002, 1.470365e-001
6.672495e+002, 1.493880e-001
6.691780e+002, 1.517745e-001
6.711064e+002, 1.545406e-001
6.730349e+002, 1.569377e-001
6.749634e+002, 1.592473e-001
6.768918e+002, 1.619594e-001
6.788203e+002, 1.646495e-001
6.807488e+002, 1.674377e-001
6.826772e+002, 1.702299e-001
6.846057e+002, 1.727257e-001
6.865342e+002, 1.753049e-001
6.884626e+002, 1.779931e-001
6.903911e+002, 1.809223e-001
6.923196e+002, 1.839505e-001
6.942480e+002, 1.869496e-001
6.961765e+002, 1.897653e-001
6.981050e+002, 1.926646e-001
7.000334e+002, 1.960347e-001
7.019619e+002, 1.992505e-001
7.038904e+002, 2.019586e-001
7.058188e+002, 2.052708e-001
7.077473e+002, 2.087424e-001
7.096758e+002, 2.122749e-001
7.116042e+002, 2.151935e-001
7.135327e+002, 2.178151e-001
7.154612e+002, 2.210180e-001
7.173896e+002, 2.244691e-001
7.193181e+002, 2.277806e-001
7.212466e+002, 2.308938e-001
7.231750e+002, 2.341897e-001
7.251035e+002, 2.376426e-001
7.270320e+002, 2.414571e-001
7.289604e+002, 2.450861e-001
7.308889e+002, 2.484851e-001
7.328174e+002, 2.520114e-001
7.347458e+002, 2.556948e-001
7.366743e+002, 2.593643e-001
7.386028e+002, 2.629745e-001
7.405313e+002, 2.667410e-001
7.424597e+002, 2.706747e-001
7.443882e+002, 2.743987e-001
7.463167e+002, 2.782899e-001
7.482451e+002, 2.822810e-001
7.501736e+002, 2.863846e-001
7.521021e+002, 2.903108e-001
7.540305e+002, 2.937450e-001
7.559590e+002, 2.972438e-001
7.578875e+002, 3.013680e-001
7.598159e+002, 3.053286e-001
7.617444e+002, 3.087329e-001
7.636729e+002, 3.118743e-001
7.656013e+002, 3.146422e-001
7.675298e+002, 3.167637e-001
7.694583e+002, 3.179730e-001
7.713867e+002, 3.178075e-001
7.733152e+002, 3.162807e-001
7.752437e+002, 3.123942e-001
7.771721e+002, 3.058872e-001
7.791006e+002, 2.974598e-001
7.810291e+002, 2.870262e-001
7.829575e+002, 2.744934e-001
7.848860e+002, 2.611596e-001
7.868145e+002, 2.482346e-001
7.887429e+002, 2.358358e-001
7.906714e+002, 2.253390e-001
7.925999e+002, 2.198626e-001
7.945283e+002, 2.207715e-001
7.964568e+002, 2.265961e-001
7.983853e+002, 2.335284e-001
8.003137e+002, 2.375902e-001
8.022422e+002, 2.359268e-001
8.041707e+002, 2.281735e-001
8.060991e+002, 2.176611e-001
8.080276e+002, 2.081177e-001
8.099561e+002, 2.026161e-001
8.118845e+002, 2.005089e-001
8.138130e+002, 1.967162e-001
8.157415e+002, 1.877267e-001
8.176699e+002, 1.753979e-001
8.195984e+002, 1.628719e-001
8.215269e+002, 1.510051e-001
8.234553e+002, 1.397798e-001
8.253838e+002, 1.299304e-001
8.273123e+002, 1.212901e-001
8.292407e+002, 1.134969e-001
8.311692e+002, 1.067288e-001
8.330977e+002, 1.000654e-001
8.350261e+002, 9.323443e-002
8.369546e+002, 8.656884e-002
8.388831e+002, 8.013327e-002
8.408115e+002, 7.409036e-002
8.427400e+002, 6.840635e-002
8.446685e+002, 6.317562e-002
8.465969e+002, 5.820723e-002
8.485254e+002, 5.344604e-002
8.504539e+002, 4.869397e-002
8.523823e+002, 4.439744e-002
8.543108e+002, 4.067094e-002
8.562393e+002, 3.724889e-002
8.581677e+002, 3.428828e-002
8.600962e+002, 3.190424e-002
8.620247e+002, 2.964912e-002
8.639531e+002, 2.786577e-002
8.658816e+002, 2.610774e-002
8.678101e+002, 2.435783e-002
8.697385e+002, 2.284789e-002
8.716670e+002, 2.158110e-002
8.735955e+002, 2.065376e-002
8.755239e+002, 1.972568e-002
8.774524e+002, 1.879016e-002
8.793809e+002, 1.796559e-002
8.813093e+002, 1.697734e-002
8.832378e+002, 1.629109e-002
8.851663e+002, 1.583642e-002
8.870947e+002, 1.520136e-002
8.890232e+002, 1.461533e-002
8.909517e+002, 1.421068e-002
8.928801e+002, 1.380575e-002
8.948085e+002, 1.331318e-002
8.967370e+002, 1.291412e-002
8.986655e+002, 1.272947e-002
9.005939e+002, 1.262966e-002
9.025224e+002, 1.235410e-002
9.044509e+002, 1.208225e-002
9.063793e+002, 1.203826e-002
9.083078e+002, 1.211493e-002
9.102363e+002, 1.212428e-002
9.121647e+002, 1.213824e-002
9.140932e+002, 1.240730e-002
9.160217e+002, 1.276040e-002
9.179501e+002, 1.304994e-002
9.198786e+002, 1.322667e-002
9.218071e+002, 1.326149e-002
9.237355e+002, 1.316973e-002
9.256640e+002, 1.325515e-002
9.275925e+002, 1.339774e-002
9.295209e+002, 1.353421e-002
9.314494e+002, 1.383478e-002
9.333779e+002, 1.403419e-002
9.353063e+002, 1.432423e-002
9.372348e+002, 1.483026e-002
9.391633e+002, 1.562162e-002
9.410917e+002, 1.653955e-002
9.430202e+002, 1.744175e-002
9.449487e+002, 1.861107e-002
9.468771e+002, 2.000628e-002
9.488056e+002, 2.140553e-002
9.507341e+002, 2.262884e-002
9.526625e+002, 2.378118e-002
9.545910e+002, 2.452544e-002
9.565195e+002, 2.442157e-002
9.584479e+002, 2.367887e-002
9.603764e+002, 2.252102e-002
9.623049e+002, 2.153842e-002
9.642333e+002, 2.096843e-002
9.661618e+002, 2.048063e-002
9.680903e+002, 2.037382e-002
9.700187e+002, 2.062098e-002
9.719472e+002, 2.093687e-002
9.738757e+002, 2.137882e-002
9.758041e+002, 2.213420e-002
9.777326e+002, 2.307862e-002
9.796611e+002, 2.394555e-002
9.815895e+002, 2.468261e-002
9.835180e+002, 2.516685e-002
9.854465e+002, 2.534237e-002
9.873749e+002, 2.525961e-002
9.893034e+002, 2.519006e-002
9.912319e+002, 2.520675e-002
9.931603e+002, 2.535987e-002
9.950888e+002, 2.580939e-002
9.970173e+002, 2.659106e-002
9.989457e+002, 2.748684e-002
1.000874e+003, 2.819369e-002
1.002803e+003, 2.837772e-002
1.004731e+003, 2.816223e-002
1.006660e+003, 2.776045e-002
1.008588e+003, 2.693861e-002
1.010517e+003, 2.581936e-002
1.012445e+003, 2.491665e-002
1.014373e+003, 2.431182e-002
1.016302e+003, 2.370952e-002
1.018230e+003, 2.293058e-002
1.020159e+003, 2.245631e-002
1.022087e+003, 2.216214e-002
1.024016e+003, 2.185339e-002
1.025944e+003, 2.187093e-002
1.027873e+003, 2.195504e-002
1.029801e+003, 2.181944e-002
1.031730e+003, 2.184083e-002
1.033658e+003, 2.218996e-002
1.035587e+003, 2.244710e-002
1.037515e+003, 2.242989e-002
1.039444e+003, 2.249054e-002
1.041372e+003, 2.265735e-002
1.043301e+003, 2.270346e-002
1.045229e+003, 2.275430e-002
1.047157e+003, 2.287706e-002
1.049086e+003, 2.292894e-002
1.051014e+003, 2.300886e-002
1.052943e+003, 2.333044e-002
1.054871e+003, 2.358024e-002
1.056800e+003, 2.364022e-002
1.058728e+003, 2.391413e-002
1.060657e+003, 2.420366e-002
1.062585e+003, 2.458212e-002
1.064514e+003, 2.491296e-002
1.066442e+003, 2.502942e-002
1.068371e+003, 2.536112e-002
1.070299e+003, 2.583254e-002
1.072228e+003, 2.629598e-002
1.074156e+003, 2.659364e-002
1.076084e+003, 2.701285e-002
1.078013e+003, 2.720819e-002
1.079941e+003, 2.735302e-002
1.081870e+003, 2.769433e-002
1.083798e+003, 2.801984e-002
1.085727e+003, 2.844658e-002
1.087655e+003, 2.873246e-002
1.089584e+003, 2.900269e-002
1.091512e+003, 2.946706e-002
1.093441e+003, 2.986432e-002
1.095369e+003, 2.999889e-002
1.097298e+003, 3.013119e-002
1.099226e+003, 3.039214e-002
1.101155e+003, 3.068390e-002
1.103083e+003, 3.094098e-002
1.105011e+003, 3.114174e-002
1.106940e+003, 3.136089e-002
1.108868e+003, 3.169948e-002
1.110797e+003, 3.204718e-002
1.112725e+003, 3.227442e-002
1.114654e+003, 3.253192e-002
1.116582e+003, 3.272359e-002
1.118511e+003, 3.282760e-002
1.120439e+003, 3.312854e-002
1.122368e+003, 3.345354e-002
1.124296e+003, 3.368958e-002
1.126225e+003, 3.384066e-002
1.128153e+003, 3.398550e-002
1.130082e+003, 3.438000e-002
1.132010e+003, 3.467709e-002
1.133938e+003, 3.495670e-002
1.135867e+003, 3.527417e-002
1.137795e+003, 3.541186e-002
1.139724e+003, 3.555698e-002
1.141652e+003, 3.586873e-002
1.143581e+003, 3.627601e-002
1.145509e+003, 3.648813e-002
1.147438e+003, 3.663589e-002
1.149366e+003, 3.697596e-002
1.151295e+003, 3.750461e-002
1.153223e+003, 3.768969e-002
1.155152e+003, 3.785990e-002
1.157080e+003, 3.808260e-002
1.159009e+003, 3.837910e-002
1.160937e+003, 3.880864e-002
1.162865e+003, 3.911295e-002
1.164794e+003, 3.921595e-002
1.166722e+003, 3.936964e-002
1.168651e+003, 3.970016e-002
1.170579e+003, 4.004236e-002
1.172508e+003, 4.023781e-002
1.174436e+003, 4.035449e-002
1.176365e+003, 4.052330e-002
1.178293e+003, 4.077713e-002
1.180222e+003, 4.093780e-002
1.182150e+003, 4.138898e-002
1.184079e+003, 4.162653e-002
1.186007e+003, 4.176252e-002
1.187936e+003, 4.203974e-002
1.189864e+003, 4.231906e-002
1.191792e+003, 4.266767e-002
1.193721e+003, 4.290415e-002
1.195649e+003, 4.302013e-002
1.197578e+003, 4.326275e-002
1.199506e+003, 4.361868e-002
1.201435e+003, 4.394082e-002
1.203363e+003, 4.413886e-002
1.205292e+003, 4.426588e-002
1.207220e+003, 4.433022e-002
1.209149e+003, 4.464629e-002
1.211077e+003, 4.502301e-002
1.213006e+003, 4.512094e-002
1.214934e+003, 4.512640e-002
1.216863e+003, 4.537850e-002
1.218791e+003, 4.585443e-002
1.220719e+003, 4.635346e-002
1.222648e+003, 4.670347e-002
1.224576e+003, 4.673915e-002
1.226505e+003, 4.677816e-002
1.228433e+003, 4.703235e-002
1.230362e+003, 4.728717e-002
1.232290e+003, 4.744883e-002
1.234219e+003, 4.768674e-002
1.236147e+003, 4.796772e-002
1.238076e+003, 4.831826e-002
1.240004e+003, 4.859721e-002
1.241933e+003, 4.882747e-002
1.243861e+003, 4.898606e-002
1.245790e+003, 4.919958e-002
1.247718e+003, 4.949768e-002
1.249646e+003, 4.975199e-002
1.251575e+003, 4.993398e-002
1.253503e+003, 5.015474e-002
1.255432e+003, 5.033262e-002
1.257360e+003, 5.068133e-002
1.259289e+003, 5.095429e-002
1.261217e+003, 5.105767e-002
1.263146e+003, 5.139976e-002
1.265074e+003, 5.168711e-002
1.267003e+003, 5.192491e-002
1.268931e+003, 5.237956e-002
1.270860e+003, 5.286039e-002
1.272788e+003, 5.307048e-002
1.274717e+003, 5.313841e-002
1.276645e+003, 5.339069e-002
1.278573e+003, 5.369171e-002
1.280502e+003, 5.398930e-002
1.282430e+003, 5.427618e-002
1.284359e+003, 5.447681e-002
1.286287e+003, 5.482618e-002
1.288216e+003, 5.519535e-002
1.290144e+003, 5.554867e-002
1.292073e+003, 5.582344e-002
1.294001e+003, 5.611303e-002
1.295930e+003, 5.654071e-002
1.297858e+003, 5.696988e-002
1.299787e+003, 5.716386e-002
1.301715e+003, 5.742318e-002
1.303644e+003, 5.776095e-002
1.305572e+003, 5.813000e-002
1.307500e+003, 5.845173e-002
1.309429e+003, 5.865352e-002
1.311357e+003, 5.886037e-002
1.313286e+003, 5.902549e-002
1.315214e+003, 5.928435e-002
1.317143e+003, 5.949936e-002
1.319071e+003, 5.933973e-002
1.321000e+003, 5.938222e-002
1.322928e+003, 5.982098e-002
1.324857e+003, 6.014759e-002
1.326785e+003, 6.023172e-002
1.328714e+003, 6.026449e-002
1.330642e+003, 6.037682e-002
1.332571e+003, 6.069624e-002
1.334499e+003, 6.111784e-002
1.336427e+003, 6.114958e-002
1.338356e+003, 6.117864e-002
1.340284e+003, 6.138645e-002
1.342213e+003, 6.180574e-002
1.344141e+003, 6.218693e-002
1.346070e+003, 6.231410e-002
1.347998e+003, 6.240159e-002
1.349927e+003, 6.270165e-002
1.351855e+003, 6.319555e-002
1.353784e+003, 6.357502e-002
1.355712e+003, 6.372862e-002
1.357641e+003, 6.399138e-002
1.359569e+003, 6.428003e-002
1.361498e+003, 6.456698e-002
1.363426e+003, 6.491271e-002
1.365354e+003, 6.519671e-002
1.367283e+003, 6.532804e-002
1.369211e+003, 6.560510e-002
1.371140e+003, 6.589172e-002
1.373068e+003, 6.615753e-002
1.374997e+003, 6.665026e-002
1.376925e+003, 6.713668e-002
1.378854e+003, 6.725321e-002
1.380782e+003, 6.748117e-002
1.382711e+003, 6.780294e-002
1.384639e+003, 6.800163e-002
1.386568e+003, 6.820883e-002
1.388496e+003, 6.854617e-002
1.390424e+003, 6.882257e-002
1.392353e+003, 6.894747e-002
1.394281e+003, 6.901748e-002
1.396210e+003, 6.936830e-002
1.398138e+003, 6.988026e-002
1.400067e+003, 7.017694e-002
1.401995e+003, 7.035018e-002
1.403924e+003, 7.056582e-002
1.405852e+003, 7.077506e-002
1.407781e+003, 7.108521e-002
1.409709e+003, 7.125167e-002
1.411638e+003, 7.158902e-002
1.413566e+003, 7.193075e-002
1.415495e+003, 7.204288e-002
1.417423e+003, 7.223102e-002
1.419351e+003, 7.236540e-002
1.421280e+003, 7.228976e-002
1.423208e+003, 7.233783e-002
1.425137e+003, 7.264759e-002
1.427065e+003, 7.267663e-002
1.428994e+003, 7.268430e-002
1.430922e+003, 7.277770e-002
1.432851e+003, 7.290652e-002
1.434779e+003, 7.310169e-002
1.436708e+003, 7.340286e-002
1.438636e+003, 7.356011e-002
1.440565e+003, 7.365775e-002
1.442493e+003, 7.397055e-002
1.444422e+003, 7.415140e-002
1.446350e+003, 7.428399e-002
1.448278e+003, 7.452405e-002
1.450207e+003, 7.468352e-002
1.452135e+003, 7.482502e-002
1.454064e+003, 7.499295e-002
1.455992e+003, 7.518592e-002
1.457921e+003, 7.541747e-002
1.459849e+003, 7.581419e-002
1.461778e+003, 7.618865e-002
1.463706e+003, 7.625678e-002
1.465635e+003, 7.637908e-002
1.467563e+003, 7.667263e-002
1.469492e+003, 7.685342e-002
1.471420e+003, 7.699996e-002
1.473349e+003, 7.716514e-002
1.475277e+003, 7.735453e-002
1.477205e+003, 7.749327e-002
1.479134e+003, 7.776644e-002
1.481062e+003, 7.797575e-002
1.482991e+003, 7.821111e-002
1.484919e+003, 7.865699e-002
1.486848e+003, 7.897710e-002
1.488776e+003, 7.918712e-002
1.490705e+003, 7.941203e-002
1.492633e+003, 7.986874e-002
1.494562e+003, 8.017056e-002
1.496490e+003, 8.030600e-002
1.498419e+003, 8.050362e-002
1.500347e+003, 8.092067e-002
1.502276e+003, 8.134273e-002
1.504204e+003, 8.157207e-002
1.506132e+003, 8.187784e-002
1.508061e+003, 8.222505e-002
1.509989e+003, 8.250885e-002
1.511918e+003, 8.284261e-002
1.513846e+003, 8.321362e-002
1.515775e+003, 8.345353e-002
1.517703e+003, 8.380140e-002
1.519632e+003, 8.431888e-002
1.521560e+003, 8.485304e-002
1.523489e+003, 8.535380e-002
1.525417e+003, 8.570257e-002
1.527346e+003, 8.596859e-002
1.529274e+003, 8.637647e-002
1.531203e+003, 8.682489e-002
1.533131e+003, 8.714288e-002
1.535059e+003, 8.736821e-002
1.536988e+003, 8.763368e-002
1.538916e+003, 8.780193e-002
1.540845e+003, 8.785629e-002
1.542773e+003, 8.810414e-002
1.544702e+003, 8.843642e-002
1.546630e+003, 8.844456e-002
1.548559e+003, 8.854954e-002
1.550487e+003, 8.894793e-002
1.552416e+003, 8.915690e-002
1.554344e+003, 8.941158e-002
1.556273e+003, 8.981793e-002
1.558201e+003, 9.013624e-002
1.560130e+003, 9.023198e-002
1.562058e+003, 9.045274e-002
1.563986e+003, 9.078268e-002
1.565915e+003, 9.120586e-002
1.567843e+003, 9.149063e-002
1.569772e+003, 9.176194e-002
1.571700e+003, 9.184328e-002
1.573629e+003, 9.188088e-002
1.575557e+003, 9.210417e-002
1.577486e+003, 9.218349e-002
1.579414e+003, 9.232856e-002
1.581343e+003, 9.260655e-002
1.583271e+003, 9.294121e-002
1.585200e+003, 9.291033e-002
1.587128e+003, 9.264467e-002
1.589057e+003, 9.262096e-002
1.590985e+003, 9.290183e-002
1.592913e+003, 9.309711e-002
1.594842e+003, 9.301740e-002
1.596770e+003, 9.290514e-002
1.598699e+003, 9.286942e-002
1.600627e+003, 9.289524e-002
1.602556e+003, 9.275746e-002
1.604484e+003, 9.289340e-002
1.606413e+003, 9.300575e-002
1.608341e+003, 9.290850e-002
1.610270e+003, 9.303672e-002
1.612198e+003, 9.334733e-002
1.614127e+003, 9.347653e-002
1.616055e+003, 9.366580e-002
1.617984e+003, 9.374948e-002
1.619912e+003, 9.367523e-002
1.621840e+003, 9.383392e-002
1.623769e+003, 9.404515e-002
1.625697e+003, 9.435314e-002
1.627626e+003, 9.450872e-002
1.629554e+003, 9.461178e-002
1.631483e+003, 9.480646e-002
1.633411e+003, 9.481268e-002
1.635340e+003, 9.474248e-002
1.637268e+003, 9.499349e-002
1.639197e+003, 9.527002e-002
1.641125e+003, 9.522736e-002
1.643054e+003, 9.524343e-002
1.644982e+003, 9.524982e-002
1.646911e+003, 9.534866e-002
1.648839e+003, 9.561871e-002
1.650767e+003, 9.584064e-002
1.652696e+003, 9.569114e-002
1.654624e+003, 9.545768e-002
1.656553e+003, 9.541722e-002
1.658481e+003, 9.550050e-002
1.660410e+003, 9.570820e-002
1.662338e+003, 9.603572e-002
1.664267e+003, 9.605812e-002
1.666195e+003, 9.591728e-002
1.668124e+003, 9.609944e-002
1.670052e+003, 9.646232e-002
1.671981e+003, 9.673602e-002
1.673909e+003, 9.675101e-002
1.675838e+003, 9.696083e-002
1.677766e+003, 9.728359e-002
1.679694e+003, 9.758593e-002
1.681623e+003, 9.769885e-002
1.683551e+003, 9.768844e-002
1.685480e+003, 9.792825e-002
1.687408e+003, 9.817807e-002
1.689337e+003, 9.838264e-002
1.691265e+003, 9.862851e-002
1.693194e+003, 9.882770e-002
1.695122e+003, 9.881846e-002
1.697051e+003, 9.889071e-002
1.698979e+003, 9.909833e-002
1.700908e+003, 9.909327e-002
1.702836e+003, 9.907316e-002
1.704765e+003, 9.913565e-002
1.706693e+003, 9.922639e-002
1.708621e+003, 9.934889e-002
1.710550e+003, 9.932646e-002
1.712478e+003, 9.938537e-002
1.714407e+003, 9.986016e-002
1.716335e+003, 1.002982e-001
1.718264e+003, 1.003971e-001
1.720192e+003, 1.006556e-001
1.722121e+003, 1.008729e-001
1.724049e+003, 1.009268e-001
1.725978e+003, 1.011615e-001
1.727906e+003, 1.015185e-001
1.729835e+003, 1.016408e-001
1.731763e+003, 1.018621e-001
1.733692e+003, 1.020501e-001
1.735620e+003, 1.019691e-001
1.737548e+003, 1.021593e-001
1.739477e+003, 1.022607e-001
1.741405e+003, 1.024197e-001
1.743334e+003, 1.026228e-001
1.745262e+003, 1.025319e-001
1.747191e+003, 1.025500e-001
1.749119e+003, 1.029813e-001
1.751048e+003, 1.032776e-001
1.752976e+003, 1.033076e-001
1.754905e+003, 1.035780e-001
1.756833e+003, 1.036865e-001
1.758762e+003, 1.039737e-001
1.760690e+003, 1.041105e-001
1.762619e+003, 1.040312e-001
1.764547e+003, 1.044921e-001
1.766475e+003, 1.048526e-001
1.768404e+003, 1.050216e-001
1.770332e+003, 1.051583e-001
1.772261e+003, 1.053797e-001
1.774189e+003, 1.055002e-001
1.776118e+003, 1.055369e-001
1.778046e+003, 1.056596e-001
1.779975e+003, 1.060918e-001
1.781903e+003, 1.064468e-001
1.783832e+003, 1.067513e-001
1.785760e+003, 1.068804e-001
1.787689e+003, 1.069427e-001
1.789617e+003, 1.071944e-001
1.791546e+003, 1.073706e-001
1.793474e+003, 1.075963e-001
1.795402e+003, 1.076134e-001
1.797331e+003, 1.076180e-001
1.799259e+003, 1.078274e-001
1.801188e+003, 1.079294e-001
1.803116e+003, 1.081663e-001
1.805045e+003, 1.085789e-001
1.806973e+003, 1.088630e-001
1.808902e+003, 1.089208e-001
1.810830e+003, 1.091415e-001
1.812759e+003, 1.090852e-001
1.814687e+003, 1.091492e-001
1.816616e+003, 1.095606e-001
1.818544e+003, 1.098199e-001
1.820473e+003, 1.102033e-001
1.822401e+003, 1.103028e-001
1.824329e+003, 1.103080e-001
1.826258e+003, 1.107535e-001
1.828186e+003, 1.112975e-001
1.830115e+003, 1.111576e-001
1.832043e+003, 1.110082e-001
1.833972e+003, 1.112331e-001
1.835900e+003, 1.114250e-001
1.837829e+003, 1.115711e-001
1.839757e+003, 1.122621e-001
1.841686e+003, 1.127743e-001
1.843614e+003, 1.124842e-001
1.845543e+003, 1.121339e-001
1.847471e+003, 1.125025e-001
1.849400e+003, 1.130584e-001
1.851328e+003, 1.130019e-001
1.853256e+003, 1.129589e-001
1.855185e+003, 1.133463e-001
1.857113e+003, 1.139228e-001
1.859042e+003, 1.143056e-001
1.860970e+003, 1.144591e-001
1.862899e+003, 1.142071e-001
1.864827e+003, 1.139315e-001
1.866756e+003, 1.146562e-001
1.868684e+003, 1.152141e-001
1.870613e+003, 1.152376e-001
1.872541e+003, 1.150069e-001
1.874470e+003, 1.150119e-001
1.876398e+003, 1.157051e-001
1.878327e+003, 1.159154e-001
1.880255e+003, 1.159881e-001
1.882183e+003, 1.159616e-001
1.884112e+003, 1.162323e-001
1.886040e+003, 1.160901e-001
1.887969e+003, 1.163364e-001
1.889897e+003, 1.169958e-001
1.891826e+003, 1.173447e-001
1.893754e+003, 1.173737e-001
1.895683e+003, 1.171294e-001
1.897611e+003, 1.178892e-001
1.899540e+003, 1.184318e-001
1.901468e+003, 1.181235e-001
1.903397e+003, 1.182304e-001
1.905325e+003, 1.184181e-001
1.907254e+003, 1.186966e-001
1.909182e+003, 1.182189e-001
1.911110e+003, 1.185603e-001
1.913039e+003, 1.193693e-001
1.914967e+003, 1.194709e-001
1.916896e+003, 1.191652e-001
1.918824e+003, 1.186859e-001
1.920753e+003, 1.184121e-001
1.922681e+003, 1.182116e-001
1.924610e+003, 1.184855e-001
1.926538e+003, 1.191676e-001
1.928467e+003, 1.194014e-001
1.930395e+003, 1.196364e-001
1.932324e+003, 1.194023e-001
1.934252e+003, 1.198468e-001
1.936181e+003, 1.206558e-001
1.938109e+003, 1.215153e-001
1.940037e+003, 1.215456e-001
1.941966e+003, 1.207975e-001
1.943894e+003, 1.204625e-001
1.945823e+003, 1.207877e-001
1.947751e+003, 1.202156e-001
1.949680e+003, 1.207806e-001
1.951608e+003, 1.224915e-001
1.953537e+003, 1.224138e-001
1.955465e+003, 1.218004e-001
1.957394e+003, 1.215936e-001
1.959322e+003, 1.218285e-001
1.961251e+003, 1.229488e-001
1.963179e+003, 1.226931e-001
1.965108e+003, 1.224788e-001
1.967036e+003, 1.236716e-001
1.968964e+003, 1.244880e-001
1.970893e+003, 1.237014e-001
1.972821e+003, 1.240594e-001
1.974750e+003, 1.250474e-001
1.976678e+003, 1.259026e-001
1.978607e+003, 1.270522e-001
1.980535e+003, 1.276275e-001
1.982464e+003, 1.279219e-001
1.984392e+003, 1.262786e-001
1.986321e+003, 1.253087e-001
1.988249e+003, 1.261682e-001
1.990178e+003, 1.256095e-001
1.992106e+003, 1.248591e-001
1.994035e+003, 1.257843e-001
1.995963e+003, 1.262284e-001
1.997891e+003, 1.264989e-001
1.999820e+003, 1.266665e-001
2.001748e+003, 1.265216e-001
2.003677e+003, 1.263425e-001
2.005605e+003, 1.278012e-001
2.007534e+003, 1.283700e-001
2.009462e+003, 1.273864e-001
2.011391e+003, 1.284552e-001
2.013319e+003, 1.288535e-001
2.015248e+003, 1.285467e-001
2.017176e+003, 1.284227e-001
2.019105e+003, 1.281836e-001
2.021033e+003, 1.273640e-001
2.022962e+003, 1.278943e-001
2.024890e+003, 1.285896e-001
2.026818e+003, 1.299822e-001
2.028747e+003, 1.288356e-001
2.030675e+003, 1.278435e-001
2.032604e+003, 1.296794e-001
2.034532e+003, 1.304977e-001
2.036461e+003, 1.302119e-001
2.038389e+003, 1.300654e-001
2.040318e+003, 1.293971e-001
2.042246e+003, 1.299781e-001
2.044175e+003, 1.308657e-001
2.046103e+003, 1.314604e-001
2.048032e+003, 1.326777e-001
2.049960e+003, 1.327751e-001
2.051889e+003, 1.325341e-001
2.053817e+003, 1.328967e-001
2.055746e+003, 1.319008e-001
2.057674e+003, 1.315233e-001
2.059603e+003, 1.320824e-001
2.061531e+003, 1.324486e-001
2.063459e+003, 1.322845e-001
2.065388e+003, 1.322746e-001
2.067316e+003, 1.324717e-001
2.069245e+003, 1.323121e-001
2.071173e+003, 1.319989e-001
2.073102e+003, 1.319304e-001
2.075030e+003, 1.332249e-001
2.076959e+003, 1.336651e-001
2.078887e+003, 1.337540e-001
2.080816e+003, 1.336563e-001
2.082744e+003, 1.338697e-001
2.084673e+003, 1.344021e-001
2.086601e+003, 1.339579e-001
2.088530e+003, 1.338119e-001
2.090458e+003, 1.343374e-001
2.092386e+003, 1.344492e-001
2.094315e+003, 1.350432e-001
2.096243e+003, 1.356055e-001
2.098172e+003, 1.363477e-001
2.100100e+003, 1.367085e-001
2.102029e+003, 1.357908e-001
2.103957e+003, 1.344580e-001
2.105886e+003, 1.349440e-001
2.107814e+003, 1.354790e-001
2.109743e+003, 1.361545e-001
2.111671e+003, 1.371967e-001
2.113600e+003, 1.365326e-001
2.115528e+003, 1.355306e-001
2.117457e+003, 1.360288e-001
2.119385e+003, 1.368935e-001
2.121313e+003, 1.369627e-001
2.123242e+003, 1.367403e-001
2.125170e+003, 1.363061e-001
2.127099e+003, 1.367136e-001
2.129027e+003, 1.359807e-001
2.130956e+003, 1.349057e-001
2.132884e+003, 1.355667e-001
2.134813e+003, 1.361957e-001
2.136741e+003, 1.364228e-001
2.138670e+003, 1.380039e-001
2.140598e+003, 1.376827e-001
2.142527e+003, 1.369150e-001
2.144455e+003, 1.366761e-001
2.146384e+003, 1.355551e-001
2.148312e+003, 1.356339e-001
2.150240e+003, 1.368388e-001
2.152169e+003, 1.363793e-001
2.154097e+003, 1.349225e-001
2.156026e+003, 1.348437e-001
2.157954e+003, 1.385127e-001
2.159883e+003, 1.411001e-001
2.161811e+003, 1.412032e-001
2.163740e+003, 1.419451e-001
2.165668e+003, 1.403757e-001
2.167597e+003, 1.403758e-001
2.169525e+003, 1.410046e-001
2.171454e+003, 1.408311e-001
2.173382e+003, 1.402857e-001
2.175311e+003, 1.401560e-001
2.177239e+003, 1.417492e-001
2.179167e+003, 1.414908e-001
2.181096e+003, 1.409780e-001
2.183024e+003, 1.407508e-001
2.184953e+003, 1.402614e-001
2.186881e+003, 1.409324e-001
2.188810e+003, 1.425542e-001
2.190738e+003, 1.436000e-001
2.192667e+003, 1.446418e-001
2.194595e+003, 1.442726e-001
2.196524e+003, 1.438172e-001
2.198452e+003, 1.446290e-001
2.200381e+003, 1.444201e-001
2.202309e+003, 1.432198e-001
2.204238e+003, 1.423783e-001
2.206166e+003, 1.428823e-001
2.208094e+003, 1.436887e-001
2.210023e+003, 1.441220e-001
2.211951e+003, 1.435658e-001
2.213880e+003, 1.438690e-001
2.215808e+003, 1.447733e-001
2.217737e+003, 1.451734e-001
2.219665e+003, 1.457336e-001
2.221594e+003, 1.463007e-001
2.223522e+003, 1.466748e-001
2.225451e+003, 1.475555e-001
2.227379e+003, 1.473868e-001
2.229308e+003, 1.457158e-001
2.231236e+003, 1.449351e-001
2.233165e+003, 1.460968e-001
2.235093e+003, 1.472948e-001
2.237021e+003, 1.472071e-001
2.238950e+003, 1.465223e-001
2.240878e+003, 1.467601e-001
2.242807e+003, 1.473989e-001
2.244735e+003, 1.478703e-001
2.246664e+003, 1.475882e-001
2.248592e+003, 1.472024e-001
2.250521e+003, 1.475505e-001
2.252449e+003, 1.471295e-001
2.254378e+003, 1.467545e-001
2.256306e+003, 1.474991e-001
2.258235e+003, 1.490032e-001
2.260163e+003, 1.491094e-001
2.262092e+003, 1.494264e-001
2.264020e+003, 1.490386e-001
2.265948e+003, 1.488666e-001
2.267877e+003, 1.489837e-001
2.269805e+003, 1.489071e-001
2.271734e+003, 1.493520e-001
2.273662e+003, 1.506334e-001
2.275591e+003, 1.513571e-001
2.277519e+003, 1.513602e-001
2.279448e+003, 1.511383e-001
2.281376e+003, 1.512496e-001
2.283305e+003, 1.510026e-001
2.285233e+003, 1.513354e-001
2.287162e+003, 1.513718e-001
2.289090e+003, 1.511647e-001
2.291019e+003, 1.510770e-001
2.292947e+003, 1.512193e-001
2.294875e+003, 1.515240e-001
2.296804e+003, 1.519081e-001
2.298732e+003, 1.514988e-001
2.300661e+003, 1.514753e-001
2.302589e+003, 1.519175e-001
2.304518e+003, 1.523033e-001
2.306446e+003, 1.527742e-001
2.308375e+003, 1.530180e-001
2.310303e+003, 1.530446e-001
2.312232e+003, 1.528011e-001
2.314160e+003, 1.525332e-001
2.316089e+003, 1.527789e-001
2.318017e+003, 1.532102e-001
2.319946e+003, 1.541378e-001
2.321874e+003, 1.550291e-001
2.323802e+003, 1.550727e-001
2.325731e+003, 1.541951e-001
2.327659e+003, 1.536344e-001
2.329588e+003, 1.537210e-001
2.331516e+003, 1.537489e-001
2.333445e+003, 1.538864e-001
2.335373e+003, 1.541510e-001
2.337302e+003, 1.543307e-001
2.339230e+003, 1.542933e-001
2.341159e+003, 1.543916e-001
2.343087e+003, 1.546164e-001
2.345016e+003, 1.548403e-001
2.346944e+003, 1.550284e-001
2.348873e+003, 1.552549e-001
2.350801e+003, 1.551910e-001
2.352729e+003, 1.553459e-001
2.354658e+003, 1.556837e-001
2.356586e+003, 1.560611e-001
2.358515e+003, 1.558696e-001
2.360443e+003, 1.557312e-001
2.362372e+003, 1.559317e-001
2.364300e+003, 1.558795e-001
2.366229e+003, 1.558333e-001
2.368157e+003, 1.555619e-001
2.370086e+003, 1.557060e-001
2.372014e+003, 1.562850e-001
2.373942e+003, 1.567674e-001
2.375871e+003, 1.571351e-001
2.377799e+003, 1.573418e-001
2.379728e+003, 1.569587e-001
2.381656e+003, 1.570202e-001
2.383585e+003, 1.577895e-001
2.385513e+003, 1.578630e-001
2.387442e+003, 1.580403e-001
2.389370e+003, 1.585224e-001
2.391299e+003, 1.585500e-001
2.393227e+003, 1.580351e-001
2.395156e+003, 1.579057e-001
2.397084e+003, 1.583508e-001
2.399012e+003, 1.589738e-001
2.400941e+003, 1.587441e-001
2.402869e+003, 1.588312e-001
2.404798e+003, 1.594653e-001
2.406726e+003, 1.598754e-001
2.408655e+003, 1.600610e-001
2.410583e+003, 1.599469e-001
2.412512e+003, 1.594577e-001
2.414440e+003, 1.597599e-001
2.416369e+003, 1.597835e-001
2.418297e+003, 1.597549e-001
2.420226e+003, 1.601180e-001
2.422154e+003, 1.606543e-001
2.424083e+003, 1.609937e-001
2.426011e+003, 1.608162e-001
2.427939e+003, 1.608739e-001
2.429868e+003, 1.614825e-001
2.431796e+003, 1.616374e-001
2.433725e+003, 1.614759e-001
2.435653e+003, 1.620222e-001
2.437582e+003, 1.619252e-001
2.439510e+003, 1.619344e-001
2.441439e+003, 1.619957e-001
2.443367e+003, 1.622927e-001
2.445296e+003, 1.630386e-001
2.447224e+003, 1.634346e-001
2.449153e+003, 1.636980e-001
2.451081e+003, 1.638405e-001
2.453010e+003, 1.631304e-001
2.454938e+003, 1.634136e-001
2.456866e+003, 1.638306e-001
2.458795e+003, 1.638886e-001
2.460723e+003, 1.637757e-001
2.462652e+003, 1.639715e-001
2.464580e+003, 1.641515e-001
2.466509e+003, 1.645493e-001
2.468437e+003, 1.652651e-001
2.470366e+003, 1.646471e-001
2.472294e+003, 1.640173e-001
2.474223e+003, 1.647771e-001
2.476151e+003, 1.651030e-001
2.478080e+003, 1.643522e-001
2.480008e+003, 1.641916e-001
2.481937e+003, 1.643758e-001
2.483865e+003, 1.647441e-001
2.485793e+003, 1.654304e-001
2.487722e+003, 1.659593e-001
2.489650e+003, 1.659865e-001
2.491579e+003, 1.658466e-001
2.493507e+003, 1.658807e-001
2.495436e+003, 1.664685e-001
2.497364e+003, 1.667435e-001
2.499293e+003, 1.670652e-001
2.501221e+003, 1.670789e-001
2.503150e+003, 1.667858e-001
2.505078e+003, 1.671803e-001
2.507007e+003, 1.674626e-001
2.508935e+003, 1.674393e-001
2.510864e+003, 1.670342e-001
2.512792e+003, 1.665244e-001
2.514720e+003, 1.668199e-001
2.516649e+003, 1.674981e-001
2.518577e+003, 1.679943e-001
2.520506e+003, 1.682205e-001
2.522434e+003, 1.679993e-001
2.524363e+003, 1.681487e-001
2.526291e+003, 1.680414e-001
2.528220e+003, 1.677944e-001
2.530148e+003, 1.678710e-001
2.532077e+003, 1.680864e-001
2.534005e+003, 1.687067e-001
2.535934e+003, 1.693878e-001
2.537862e+003, 1.697235e-001
2.539791e+003, 1.694611e-001
2.541719e+003, 1.690931e-001
2.543647e+003, 1.692078e-001
2.545576e+003, 1.691445e-001
2.547504e+003, 1.697761e-001
2.549433e+003, 1.708594e-001
2.551361e+003, 1.711406e-001
2.553290e+003, 1.712392e-001
2.555218e+003, 1.715352e-001
2.557147e+003, 1.710489e-001
2.559075e+003, 1.707874e-001
2.561004e+003, 1.711984e-001
2.562932e+003, 1.717326e-001
2.564861e+003, 1.722487e-001
2.566789e+003, 1.722860e-001
2.568718e+003, 1.721202e-001
2.570646e+003, 1.722496e-001
2.572574e+003, 1.726708e-001
2.574503e+003, 1.728785e-001
2.576431e+003, 1.726586e-001
2.578360e+003, 1.725698e-001
2.580288e+003, 1.724188e-001
2.582217e+003, 1.722240e-001
2.584145e+003, 1.721784e-001
2.586074e+003, 1.725023e-001
2.588002e+003, 1.722253e-001
2.589931e+003, 1.732853e-001
2.591859e+003, 1.747121e-001
2.593788e+003, 1.744230e-001
2.595716e+003, 1.742388e-001
2.597645e+003, 1.751021e-001
2.599573e+003, 1.752845e-001
2.601501e+003, 1.757370e-001
2.603430e+003, 1.759936e-001
2.605358e+003, 1.755682e-001
2.607287e+003, 1.752102e-001
2.609215e+003, 1.753396e-001
2.611144e+003, 1.760322e-001
2.613072e+003, 1.759245e-001
2.615001e+003, 1.761680e-001
2.616929e+003, 1.764288e-001
2.618858e+003, 1.762126e-001
2.620786e+003, 1.763716e-001
2.622715e+003, 1.761156e-001
2.624643e+003, 1.764867e-001
2.626572e+003, 1.768460e-001
2.628500e+003, 1.767572e-001
2.630428e+003, 1.768243e-001
2.632357e+003, 1.766753e-001
2.634285e+003, 1.767059e-001
2.636214e+003, 1.769826e-001
2.638142e+003, 1.772797e-001
2.640071e+003, 1.781185e-001
2.641999e+003, 1.785219e-001
2.643928e+003, 1.783099e-001
2.645856e+003, 1.783431e-001
2.647785e+003, 1.783656e-001
2.649713e+003, 1.788509e-001
2.651642e+003, 1.789143e-001
2.653570e+003, 1.786723e-001
2.655499e+003, 1.791849e-001
2.657427e+003, 1.794654e-001
2.659355e+003, 1.793528e-001
2.661284e+003, 1.792034e-001
2.663212e+003, 1.792966e-001
2.665141e+003, 1.792370e-001
2.667069e+003, 1.791725e-001
2.668998e+003, 1.795125e-001
2.670926e+003, 1.796971e-001
2.672855e+003, 1.796433e-001
2.674783e+003, 1.795914e-001
2.676712e+003, 1.799088e-001
2.678640e+003, 1.802304e-001
2.680569e+003, 1.803606e-001
2.682497e+003, 1.806351e-001
2.684426e+003, 1.812393e-001
2.686354e+003, 1.811436e-001
2.688282e+003, 1.808445e-001
2.690211e+003, 1.809233e-001
2.692139e+003, 1.812723e-001
2.694068e+003, 1.811666e-001
2.695996e+003, 1.806295e-001
2.697925e+003, 1.810638e-001
2.699853e+003, 1.820363e-001
2.701782e+003, 1.823706e-001
2.703710e+003, 1.823563e-001
2.705639e+003, 1.822850e-001
2.707567e+003, 1.824254e-001
2.709496e+003, 1.823078e-001
2.711424e+003, 1.817708e-001
2.713353e+003, 1.819204e-001
2.715281e+003, 1.827493e-001
2.717209e+003, 1.832982e-001
2.719138e+003, 1.834201e-001
2.721066e+003, 1.836878e-001
2.722995e+003, 1.838304e-001
2.724923e+003, 1.841834e-001
2.726852e+003, 1.845076e-001
2.728780e+003, 1.843299e-001
2.730709e+003, 1.843747e-001
2.732637e+003, 1.846109e-001
2.734566e+003, 1.851759e-001
2.736494e+003, 1.852943e-001
2.738423e+003, 1.850109e-001
2.740351e+003, 1.849749e-001
2.742280e+003, 1.851005e-001
2.744208e+003, 1.851979e-001
2.746136e+003, 1.855195e-001
2.748065e+003, 1.858741e-001
2.749993e+003, 1.862683e-001
2.751922e+003, 1.865480e-001
2.753850e+003, 1.865044e-001
2.755779e+003, 1.863759e-001
2.757707e+003, 1.862444e-001
2.759636e+003, 1.866048e-001
2.761564e+003, 1.872377e-001
2.763493e+003, 1.876447e-001
2.765421e+003, 1.877518e-001
2.767350e+003, 1.876083e-001
2.769278e+003, 1.873216e-001
2.771207e+003, 1.875043e-001
2.773135e+003, 1.875538e-001
2.775063e+003, 1.876397e-001
2.776992e+003, 1.880120e-001
2.778920e+003, 1.880934e-001
2.780849e+003, 1.882373e-001
2.782777e+003, 1.885385e-001
2.784706e+003, 1.891644e-001
2.786634e+003, 1.895440e-001
2.788563e+003, 1.892233e-001
2.790491e+003, 1.890031e-001
2.792420e+003, 1.893962e-001
2.794348e+003, 1.896984e-001
2.796277e+003, 1.900221e-001
2.798205e+003, 1.900657e-001
2.800134e+003, 1.899724e-001
2.802062e+003, 1.905017e-001
2.803990e+003, 1.906883e-001
2.805919e+003, 1.902813e-001
2.807847e+003, 1.900528e-001
2.809776e+003, 1.903953e-001
2.811704e+003, 1.910754e-001
2.813633e+003, 1.917894e-001
2.815561e+003, 1.919264e-001
2.817490e+003, 1.914220e-001
2.819418e+003, 1.913024e-001
2.821347e+003, 1.917216e-001
2.823275e+003, 1.922226e-001
2.825204e+003, 1.923298e-001
2.827132e+003, 1.919735e-001
2.829061e+003, 1.923482e-001
2.830989e+003, 1.930760e-001
2.832917e+003, 1.932142e-001
2.834846e+003, 1.933201e-001
2.836774e+003, 1.936784e-001
2.838703e+003, 1.939267e-001
2.840631e+003, 1.944441e-001
2.842560e+003, 1.946476e-001
2.844488e+003, 1.943265e-001
2.846417e+003, 1.937602e-001
2.848345e+003, 1.936358e-001
2.850274e+003, 1.934218e-001
2.852202e+003, 1.933146e-001
2.854131e+003, 1.932745e-001
2.856059e+003, 1.939758e-001
2.857988e+003, 1.942998e-001
2.859916e+003, 1.940086e-001
2.861844e+003, 1.940823e-001
2.863773e+003, 1.943262e-001
2.865701e+003, 1.946744e-001
2.867630e+003, 1.943656e-001
2.869558e+003, 1.947520e-001
2.871487e+003, 1.948904e-001
2.873415e+003, 1.947812e-001
2.875344e+003, 1.953997e-001
2.877272e+003, 1.961796e-001
2.879201e+003, 1.965758e-001
2.881129e+003, 1.962453e-001
2.883058e+003, 1.958944e-001
2.884986e+003, 1.966699e-001
2.886915e+003, 1.969096e-001
2.888843e+003, 1.965191e-001
2.890771e+003, 1.969755e-001
2.892700e+003, 1.974871e-001
2.894628e+003, 1.978032e-001
2.896557e+003, 1.978315e-001
2.898485e+003, 1.975295e-001
2.900414e+003, 1.974191e-001
2.902342e+003, 1.978250e-001
2.904271e+003, 1.983109e-001
2.906199e+003, 1.989931e-001
2.908128e+003, 1.993756e-001
2.910056e+003, 1.990961e-001
2.911985e+003, 1.989762e-001
2.913913e+003, 1.992320e-001
2.915842e+003, 1.986869e-001
2.917770e+003, 1.984262e-001
2.919698e+003, 1.987204e-001
2.921627e+003, 1.988769e-001
2.923555e+003, 1.983689e-001
2.925484e+003, 1.974133e-001
2.927412e+003, 1.970270e-001
2.929341e+003, 1.970028e-001
2.931269e+003, 1.969024e-001
2.933198e+003, 1.968398e-001
2.935126e+003, 1.968877e-001
2.937055e+003, 1.970290e-001
2.938983e+003, 1.969386e-001
2.940912e+003, 1.970200e-001
2.942840e+003, 1.980648e-001
2.944769e+003, 1.983547e-001
2.946697e+003, 1.980812e-001
2.948625e+003, 1.984029e-001
2.950554e+003, 1.990169e-001
2.952482e+003, 1.991960e-001
2.954411e+003, 1.985579e-001
2.956339e+003, 1.984226e-001
2.958268e+003, 1.987244e-001
2.960196e+003, 1.987702e-001
2.962125e+003, 1.997363e-001
2.964053e+003, 2.008118e-001
2.965982e+003, 2.007215e-001
2.967910e+003, 2.001753e-001
2.969839e+003, 2.001704e-001
2.971767e+003, 2.005028e-001
2.973696e+003, 2.005122e-001
2.975624e+003, 2.002049e-001
2.977552e+003, 2.009302e-001
2.979481e+003, 2.020862e-001
2.981409e+003, 2.020935e-001
2.983338e+003, 2.014294e-001
2.985266e+003, 2.022542e-001
2.987195e+003, 2.032202e-001
2.989123e+003, 2.029499e-001
2.991052e+003, 2.019499e-001
2.992980e+003, 2.023852e-001
2.994909e+003, 2.037630e-001
2.996837e+003, 2.033851e-001
2.998766e+003, 2.033533e-001
3.000694e+003, 2.033748e-001
3.002623e+003, 2.033055e-001
3.004551e+003, 2.036872e-001
3.006479e+003, 2.046027e-001
3.008408e+003, 2.050779e-001
3.010336e+003, 2.046836e-001
3.012265e+003, 2.049862e-001
3.014193e+003, 2.049851e-001
3.016122e+003, 2.053942e-001
3.018050e+003, 2.058755e-001
3.019979e+003, 2.059655e-001
3.021907e+003, 2.061674e-001
3.023836e+003, 2.063351e-001
3.025764e+003, 2.063434e-001
3.027693e+003, 2.062111e-001
3.029621e+003, 2.064438e-001
3.031550e+003, 2.070836e-001
3.033478e+003, 2.071921e-001
3.035406e+003, 2.071168e-001
3.037335e+003, 2.071302e-001
3.039263e+003, 2.075807e-001
3.041192e+003, 2.072631e-001
3.043120e+003, 2.074151e-001
3.045049e+003, 2.080554e-001
3.046977e+003, 2.073419e-001
3.048906e+003, 2.072791e-001
3.050834e+003, 2.068792e-001
3.052763e+003, 2.066317e-001
3.054691e+003, 2.071775e-001
3.056620e+003, 2.082651e-001
3.058548e+003, 2.088534e-001
3.060477e+003, 2.093011e-001
3.062405e+003, 2.091117e-001
3.064333e+003, 2.082433e-001
3.066262e+003, 2.083322e-001
3.068190e+003, 2.092277e-001
3.070119e+003, 2.087845e-001
3.072047e+003, 2.086195e-001
3.073976e+003, 2.091791e-001
3.075904e+003, 2.091794e-001
3.077833e+003, 2.092056e-001
3.079761e+003, 2.100808e-001
3.081690e+003, 2.104894e-001
3.083618e+003, 2.109037e-001
3.085547e+003, 2.110006e-001
3.087475e+003, 2.107751e-001
3.089404e+003, 2.111819e-001
3.091332e+003, 2.117027e-001
3.093260e+003, 2.114487e-001
3.095189e+003, 2.114366e-001
3.097117e+003, 2.117466e-001
3.099046e+003, 2.121259e-001
3.100974e+003, 2.121520e-001
3.102903e+003, 2.115034e-001
3.104831e+003, 2.113291e-001
3.106760e+003, 2.115334e-001
3.108688e+003, 2.112897e-001
3.110617e+003, 2.122941e-001
3.112545e+003, 2.137293e-001
3.114474e+003, 2.138094e-001
3.116402e+003, 2.132867e-001
3.118331e+003, 2.136136e-001
3.120259e+003, 2.144789e-001
3.122188e+003, 2.139348e-001
3.124116e+003, 2.138034e-001
3.126044e+003, 2.138613e-001
3.127973e+003, 2.137424e-001
3.129901e+003, 2.142374e-001
3.131830e+003, 2.148585e-001
3.133758e+003, 2.146825e-001
3.135687e+003, 2.143896e-001
3.137615e+003, 2.150835e-001
3.139544e+003, 2.148598e-001
3.141472e+003, 2.151681e-001
3.143401e+003, 2.156239e-001
3.145329e+003, 2.157066e-001
3.147258e+003, 2.157233e-001
3.149186e+003, 2.156925e-001
3.151115e+003, 2.155830e-001
3.153043e+003, 2.158909e-001
3.154971e+003, 2.167390e-001
3.156900e+003, 2.168703e-001
3.158828e+003, 2.161328e-001
3.160757e+003, 2.158068e-001
3.162685e+003, 2.168397e-001
3.164614e+003, 2.170358e-001
3.166542e+003, 2.169908e-001
3.168471e+003, 2.171635e-001
3.170399e+003, 2.168877e-001
3.172328e+003, 2.170780e-001
3.174256e+003, 2.180004e-001
3.176185e+003, 2.178300e-001
3.178113e+003, 2.171777e-001
3.180042e+003, 2.170895e-001
3.181970e+003, 2.174778e-001
3.183898e+003, 2.184844e-001
3.185827e+003, 2.194927e-001
3.187755e+003, 2.184816e-001
3.189684e+003, 2.172388e-001
3.191612e+003, 2.177123e-001
3.193541e+003, 2.185732e-001
3.195469e+003, 2.183045e-001
3.197398e+003, 2.180972e-001
3.199326e+003, 2.180278e-001
3.201255e+003, 2.180311e-001
3.203183e+003, 2.174992e-001
3.205112e+003, 2.179246e-001
3.207040e+003, 2.187199e-001
3.208969e+003, 2.191566e-001
3.210897e+003, 2.198482e-001
3.212825e+003, 2.205387e-001
3.214754e+003, 2.203498e-001
3.216682e+003, 2.196428e-001
3.218611e+003, 2.194045e-001
3.220539e+003, 2.195284e-001
3.222468e+003, 2.200905e-001
3.224396e+003, 2.198860e-001
3.226325e+003, 2.203213e-001
3.228253e+003, 2.209902e-001
3.230182e+003, 2.208333e-001
3.232110e+003, 2.211942e-001
3.234039e+003, 2.211862e-001
3.235967e+003, 2.209354e-001
3.237896e+003, 2.208706e-001
3.239824e+003, 2.208800e-001
3.241752e+003, 2.212310e-001
3.243681e+003, 2.220468e-001
3.245609e+003, 2.223841e-001
3.247538e+003, 2.221126e-001
3.249466e+003, 2.214659e-001
3.251395e+003, 2.214785e-001
3.253323e+003, 2.216908e-001
3.255252e+003, 2.220653e-001
3.257180e+003, 2.216210e-001
3.259109e+003, 2.212441e-001
3.261037e+003, 2.219731e-001
3.262966e+003, 2.224281e-001
3.264894e+003, 2.227325e-001
3.266823e+003, 2.230730e-001
3.268751e+003, 2.235708e-001
3.270679e+003, 2.234903e-001
3.272608e+003, 2.232634e-001
3.274536e+003, 2.235181e-001
3.276465e+003, 2.232388e-001
3.278393e+003, 2.234669e-001
3.280322e+003, 2.244527e-001
3.282250e+003, 2.247449e-001
3.284179e+003, 2.243360e-001
3.286107e+003, 2.236500e-001
3.288036e+003, 2.237099e-001
3.289964e+003, 2.241592e-001
3.291893e+003, 2.243420e-001
3.293821e+003, 2.254644e-001
3.295750e+003, 2.260839e-001
3.297678e+003, 2.253421e-001
3.299606e+003, 2.240627e-001
3.301535e+003, 2.235866e-001
3.303463e+003, 2.238304e-001
3.305392e+003, 2.239201e-001
3.307320e+003, 2.248710e-001
3.309249e+003, 2.256533e-001
3.311177e+003, 2.261265e-001
3.313106e+003, 2.258453e-001
3.315034e+003, 2.254383e-001
3.316963e+003, 2.248314e-001
3.318891e+003, 2.250616e-001
3.320820e+003, 2.253849e-001
3.322748e+003, 2.255923e-001
3.324677e+003, 2.259296e-001
3.326605e+003, 2.263901e-001
3.328533e+003, 2.260432e-001
3.330462e+003, 2.253223e-001
3.332390e+003, 2.262423e-001
3.334319e+003, 2.272303e-001
3.336247e+003, 2.265872e-001
3.338176e+003, 2.261192e-001
3.340104e+003, 2.261278e-001
3.342033e+003, 2.268061e-001
3.343961e+003, 2.274281e-001
3.345890e+003, 2.281287e-001
3.347818e+003, 2.283001e-001
3.349747e+003, 2.278953e-001
3.351675e+003, 2.273751e-001
3.353604e+003, 2.275014e-001
3.355532e+003, 2.274807e-001
3.357460e+003, 2.274656e-001
3.359389e+003, 2.280327e-001
3.361317e+003, 2.290418e-001
3.363246e+003, 2.289529e-001
3.365174e+003, 2.279032e-001
3.367103e+003, 2.280161e-001
3.369031e+003, 2.291734e-001
3.370960e+003, 2.291927e-001
3.372888e+003, 2.281903e-001
3.374817e+003, 2.281334e-001
3.376745e+003, 2.288250e-001
3.378674e+003, 2.297053e-001
3.380602e+003, 2.295632e-001
3.382531e+003, 2.299004e-001
3.384459e+003, 2.308577e-001
3.386387e+003, 2.302104e-001
3.388316e+003, 2.291048e-001
3.390244e+003, 2.301109e-001
3.392173e+003, 2.311726e-001
3.394101e+003, 2.300862e-001
3.396030e+003, 2.294386e-001
3.397958e+003, 2.302765e-001
3.399887e+003, 2.308208e-001
3.401815e+003, 2.313605e-001
3.403744e+003, 2.311613e-001
3.405672e+003, 2.303201e-001
3.407601e+003, 2.305530e-001
3.409529e+003, 2.311030e-001
3.411458e+003, 2.315156e-001
3.413386e+003, 2.316327e-001
3.415314e+003, 2.312747e-001
3.417243e+003, 2.306990e-001
3.419171e+003, 2.307953e-001
3.421100e+003, 2.309514e-001
3.423028e+003, 2.316123e-001
3.424957e+003, 2.324016e-001
3.426885e+003, 2.332948e-001
3.428814e+003, 2.328054e-001
3.430742e+003, 2.328143e-001
3.432671e+003, 2.332139e-001
3.434599e+003, 2.330651e-001
3.436528e+003, 2.323430e-001
3.438456e+003, 2.325539e-001
3.440385e+003, 2.335191e-001
3.442313e+003, 2.334075e-001
3.444241e+003, 2.336595e-001
3.446170e+003, 2.334616e-001
3.448098e+003, 2.321482e-001
3.450027e+003, 2.315392e-001
3.451955e+003, 2.324881e-001
3.453884e+003, 2.334832e-001
3.455812e+003, 2.339852e-001
3.457741e+003, 2.335012e-001
3.459669e+003, 2.338826e-001
3.461598e+003, 2.355608e-001
3.463526e+003, 2.352124e-001
3.465455e+003, 2.343765e-001
3.467383e+003, 2.346578e-001
3.469312e+003, 2.345909e-001
3.471240e+003, 2.347849e-001
3.473168e+003, 2.348555e-001
3.475097e+003, 2.357255e-001
3.477025e+003, 2.358391e-001
3.478954e+003, 2.356221e-001
3.480882e+003, 2.358238e-001
3.482811e+003, 2.357390e-001
3.484739e+003, 2.365477e-001
3.486668e+003, 2.373344e-001
3.488596e+003, 2.365435e-001
3.490525e+003, 2.358813e-001
3.492453e+003, 2.362807e-001
3.494382e+003, 2.366608e-001
3.496310e+003, 2.365461e-001
3.498239e+003, 2.376957e-001
3.500167e+003, 2.374372e-001
3.502095e+003, 2.362153e-001
3.504024e+003, 2.365780e-001
3.505952e+003, 2.374731e-001
3.507881e+003, 2.380825e-001
3.509809e+003, 2.384672e-001
3.511738e+003, 2.393960e-001
3.513666e+003, 2.386425e-001
3.515595e+003, 2.384241e-001
3.517523e+003, 2.388086e-001
3.519452e+003, 2.397439e-001
3.521380e+003, 2.409302e-001
3.523309e+003, 2.398989e-001
3.525237e+003, 2.391347e-001
3.527166e+003, 2.389859e-001
3.529094e+003, 2.386024e-001
3.531022e+003, 2.392889e-001
3.532951e+003, 2.397516e-001
3.534879e+003, 2.388739e-001
3.536808e+003, 2.396321e-001
3.538736e+003, 2.402962e-001
3.540665e+003, 2.405615e-001
3.542593e+003, 2.402846e-001
3.544522e+003, 2.393559e-001
3.546450e+003, 2.393132e-001
3.548379e+003, 2.394907e-001
3.550307e+003, 2.399486e-001
3.552236e+003, 2.400682e-001
3.554164e+003, 2.405093e-001
3.556093e+003, 2.407338e-001
3.558021e+003, 2.404232e-001
3.559949e+003, 2.402427e-001
3.561878e+003, 2.400275e-001
3.563806e+003, 2.410241e-001
3.565735e+003, 2.413646e-001
3.567663e+003, 2.413282e-001
3.569592e+003, 2.421937e-001
3.571520e+003, 2.435087e-001
3.573449e+003, 2.441459e-001
3.575377e+003, 2.432427e-001
3.577306e+003, 2.426133e-001
3.579234e+003, 2.423189e-001
3.581163e+003, 2.429665e-001
3.583091e+003, 2.431615e-001
3.585020e+003, 2.428159e-001
3.586948e+003, 2.424024e-001
3.588876e+003, 2.429076e-001
3.590805e+003, 2.429782e-001
3.592733e+003, 2.431823e-001
3.594662e+003, 2.435224e-001
3.596590e+003, 2.423705e-001
3.598519e+003, 2.421893e-001
3.600447e+003, 2.431836e-001
3.602376e+003, 2.439185e-001
3.604304e+003, 2.447136e-001
3.606233e+003, 2.454253e-001
3.608161e+003, 2.447665e-001
3.610090e+003, 2.439651e-001
3.612018e+003, 2.430824e-001
3.613947e+003, 2.427668e-001
3.615875e+003, 2.430427e-001
3.617803e+003, 2.434313e-001
3.619732e+003, 2.441048e-001
3.621660e+003, 2.430628e-001
3.623589e+003, 2.414992e-001
3.625517e+003, 2.426745e-001
3.627446e+003, 2.451537e-001
3.629374e+003, 2.463656e-001
3.631303e+003, 2.456518e-001
3.633231e+003, 2.450438e-001
3.635160e+003, 2.457273e-001
3.637088e+003, 2.459260e-001
3.639017e+003, 2.452092e-001
3.640945e+003, 2.455111e-001
3.642874e+003, 2.453127e-001
3.644802e+003, 2.439454e-001
3.646730e+003, 2.447166e-001
3.648659e+003, 2.463676e-001
3.650587e+003, 2.458175e-001
3.652516e+003, 2.442576e-001
3.654444e+003, 2.445148e-001
3.656373e+003, 2.460122e-001
3.658301e+003, 2.467697e-001
3.660230e+003, 2.470077e-001
3.662158e+003, 2.476171e-001
3.664087e+003, 2.476946e-001
3.666015e+003, 2.465239e-001
3.667944e+003, 2.464856e-001
3.669872e+003, 2.479235e-001
3.671801e+003, 2.490486e-001
3.673729e+003, 2.488837e-001
3.675657e+003, 2.479450e-001
3.677586e+003, 2.474235e-001
3.679514e+003, 2.470162e-001
3.681443e+003, 2.472737e-001
3.683371e+003, 2.487595e-001
3.685300e+003, 2.495249e-001
3.687228e+003, 2.490599e-001
3.689157e+003, 2.480453e-001
3.691085e+003, 2.472662e-001
3.693014e+003, 2.489991e-001
3.694942e+003, 2.511691e-001
3.696871e+003, 2.515728e-001
3.698799e+003, 2.514910e-001
3.700728e+003, 2.512268e-001
3.702656e+003, 2.495210e-001
3.704584e+003, 2.489531e-001
3.706513e+003, 2.498953e-001
3.708441e+003, 2.508648e-001
3.710370e+003, 2.520714e-001
3.712298e+003, 2.515789e-001
3.714227e+003, 2.505963e-001
3.716155e+003, 2.516365e-001
3.718084e+003, 2.510949e-001
3.720012e+003, 2.492617e-001
3.721941e+003, 2.506070e-001
3.723869e+003, 2.522939e-001
3.725798e+003, 2.519374e-001
3.727726e+003, 2.513313e-001
3.729655e+003, 2.528739e-001
3.731583e+003, 2.529231e-001
3.733511e+003, 2.522606e-001
3.735440e+003, 2.525015e-001
3.737368e+003, 2.525719e-001
3.739297e+003, 2.523993e-001
3.741225e+003, 2.526045e-001
3.743154e+003, 2.531523e-001
3.745082e+003, 2.535722e-001
3.747011e+003, 2.529240e-001
3.748939e+003, 2.530221e-001
3.750868e+003, 2.540164e-001
3.752796e+003, 2.545556e-001
3.754725e+003, 2.539605e-001
3.756653e+003, 2.530910e-001
3.758582e+003, 2.538363e-001
3.760510e+003, 2.546622e-001
3.762438e+003, 2.538547e-001
3.764367e+003, 2.528034e-001
3.766295e+003, 2.534656e-001
3.768224e+003, 2.548639e-001
3.770152e+003, 2.552154e-001
3.772081e+003, 2.555231e-001
3.774009e+003, 2.547935e-001
3.775938e+003, 2.546468e-001
3.777866e+003, 2.570597e-001
3.779795e+003, 2.568273e-001
3.781723e+003, 2.561100e-001
3.783652e+003, 2.558286e-001
3.785580e+003, 2.550340e-001
3.787509e+003, 2.563222e-001
3.789437e+003, 2.571870e-001
3.791365e+003, 2.568400e-001
3.793294e+003, 2.561429e-001
3.795222e+003, 2.560087e-001
3.797151e+003, 2.564764e-001
3.799079e+003, 2.567998e-001
3.801008e+003, 2.575186e-001
3.802936e+003, 2.576727e-001
3.804865e+003, 2.575682e-001
3.806793e+003, 2.569991e-001
3.808722e+003, 2.568310e-001
3.810650e+003, 2.579862e-001
3.812579e+003, 2.585803e-001
3.814507e+003, 2.582551e-001
3.816436e+003, 2.571487e-001
3.818364e+003, 2.579803e-001
3.820292e+003, 2.589663e-001
3.822221e+003, 2.587527e-001
3.824149e+003, 2.585378e-001
3.826078e+003, 2.589284e-001
3.828006e+003, 2.597710e-001
3.829935e+003, 2.619348e-001
3.831863e+003, 2.615515e-001
3.833792e+003, 2.597792e-001
3.835720e+003, 2.589057e-001
3.837649e+003, 2.601612e-001
3.839577e+003, 2.607504e-001
3.841506e+003, 2.605645e-001
3.843434e+003, 2.603798e-001
3.845363e+003, 2.615403e-001
3.847291e+003, 2.620204e-001
3.849219e+003, 2.613950e-001
3.851148e+003, 2.607664e-001
3.853076e+003, 2.603789e-001
3.855005e+003, 2.600058e-001
3.856933e+003, 2.603942e-001
3.858862e+003, 2.606682e-001
3.860790e+003, 2.610152e-001
3.862719e+003, 2.613817e-001
3.864647e+003, 2.610239e-001
3.866576e+003, 2.609947e-001
3.868504e+003, 2.615952e-001
3.870433e+003, 2.625512e-001
3.872361e+003, 2.633522e-001
3.874290e+003, 2.627826e-001
3.876218e+003, 2.628628e-001
3.878146e+003, 2.627882e-001
3.880075e+003, 2.624701e-001
3.882003e+003, 2.624578e-001
3.883932e+003, 2.631489e-001
3.885860e+003, 2.638414e-001
3.887789e+003, 2.638346e-001
3.889717e+003, 2.629488e-001
3.891646e+003, 2.617340e-001
3.893574e+003, 2.609509e-001
3.895503e+003, 2.613745e-001
3.897431e+003, 2.621349e-001
3.899360e+003, 2.618699e-001
3.901288e+003, 2.629139e-001
3.903217e+003, 2.647551e-001
3.905145e+003, 2.646725e-001
3.907073e+003, 2.660668e-001
3.909002e+003, 2.669044e-001
3.910930e+003, 2.653096e-001
3.912859e+003, 2.650096e-001
3.914787e+003, 2.640941e-001
3.916716e+003, 2.634754e-001
3.918644e+003, 2.637985e-001
3.920573e+003, 2.653939e-001
3.922501e+003, 2.653669e-001
3.924430e+003, 2.647680e-001
3.926358e+003, 2.651267e-001
3.928287e+003, 2.660135e-001
3.930215e+003, 2.662245e-001
3.932144e+003, 2.654399e-001
3.934072e+003, 2.661603e-001
3.936000e+003, 2.675596e-001
3.937929e+003, 2.663369e-001
3.939857e+003, 2.663206e-001
3.941786e+003, 2.670333e-001
3.943714e+003, 2.670749e-001
3.945643e+003, 2.668386e-001
3.947571e+003, 2.659093e-001
3.949500e+003, 2.648864e-001
3.951428e+003, 2.649530e-001
3.953357e+003, 2.664231e-001
3.955285e+003, 2.668495e-001
3.957214e+003, 2.667337e-001
3.959142e+003, 2.671791e-001
3.961071e+003, 2.666474e-001
3.962999e+003, 2.666578e-001
3.964927e+003, 2.688129e-001
3.966856e+003, 2.700114e-001
3.968784e+003, 2.711988e-001
3.970713e+003, 2.712114e-001
3.972641e+003, 2.708568e-001
3.974570e+003, 2.717949e-001
3.976498e+003, 2.711984e-001
3.978427e+003, 2.689888e-001
3.980355e+003, 2.656843e-001
3.982284e+003, 2.658213e-001
3.984212e+003, 2.691698e-001
3.986141e+003, 2.703895e-001
3.988069e+003, 2.707481e-001
3.989998e+003, 2.715051e-001
3.991926e+003, 2.718670e-001
3.993854e+003, 2.723166e-001
3.995783e+003, 2.725699e-001
3.997711e+003, 2.729574e-001
3.999640e+003, 2.730891e-001
##END=



