##NAMES=Mimetite
##RRUFFID=R050527
##IDEAL CHEMISTRY=Pb^2+^_5_(As^5+^O_4_)_3_Cl
##LOCALITY=Tsumeb mine, Tsumeb, Otavi District, Oshikoto, Namibia
##OWNER=RRUFF
##SOURCE=University of Arizona Mineral Museum
##DESCRIPTION=Yellow hexagonal prisms, monoclinic polytype
##STATUS=The identification of this mineral has been confirmed by X-ray diffraction and chemical analysis
##URL=rruff.info/R050527
##MEASURED CHEMISTRY=Pb_5.00_(As_1.00_O_4_)_3_Cl_1.00_
399.1926, 0.6126936
401.1211, 0.5487890
403.0496, 0.5487890
404.9780, 0.5591922
406.9065, 0.5723656
408.8350, 0.5619653
410.7634, 0.5462261
412.6919, 0.4972762
414.6204, 0.4468040
416.5488, 0.4111537
418.4773, 0.3877741
420.4058, 0.3590291
422.3342, 0.3275522
424.2627, 0.3018035
426.1912, 0.2803034
428.1196, 0.2618981
430.0481, 0.2367808
431.9766, 0.2126715
433.9050, 0.1942789
435.8335, 0.1753591
437.7620, 0.1611078
439.6904, 0.1478507
441.6189, 0.1343751
443.5474, 0.1222803
445.4758, 0.1107553
447.4043, 9.7752102E-02
449.3328, 8.9125037E-02
451.2612, 8.3370820E-02
453.1897, 7.7387437E-02
455.1182, 7.2806858E-02
457.0466, 7.0402727E-02
458.9751, 6.4617433E-02
460.9036, 5.9343152E-02
462.8320, 5.6787271E-02
464.7605, 5.5801619E-02
466.6890, 5.3379279E-02
468.6174, 5.1292311E-02
470.5459, 5.0307982E-02
472.4744, 4.9003031E-02
474.4028, 4.7877200E-02
476.3313, 4.5321081E-02
478.2598, 4.3617859E-02
480.1882, 4.2937640E-02
482.1167, 4.2316861E-02
484.0452, 4.2074580E-02
485.9736, 4.0734261E-02
487.9021, 4.0274579E-02
489.8306, 4.1001100E-02
491.7590, 4.0573038E-02
493.6875, 4.0681209E-02
495.6160, 4.0308580E-02
497.5444, 3.9990641E-02
499.4729, 4.0259968E-02
501.4014, 4.0378928E-02
503.3298, 4.0067311E-02
505.2583, 4.0342972E-02
507.1868, 4.0217180E-02
509.1152, 4.0517561E-02
511.0437, 4.1289669E-02
512.9722, 4.1674569E-02
514.9006, 4.2344950E-02
516.8291, 4.3759290E-02
518.7576, 4.4017911E-02
520.6860, 4.3961369E-02
522.6145, 4.4831611E-02
524.5430, 4.6349190E-02
526.4714, 4.9195431E-02
528.3999, 5.1973041E-02
530.3284, 5.3531948E-02
532.2568, 5.4799251E-02
534.1853, 5.8695301E-02
536.1138, 6.2313680E-02
538.0422, 6.5762848E-02
539.9707, 6.8766437E-02
541.8992, 7.0582010E-02
543.8276, 7.3039353E-02
545.7561, 7.5588711E-02
547.6846, 7.7586412E-02
549.6130, 8.0523401E-02
551.5415, 8.3570547E-02
553.4700, 8.4094010E-02
555.3984, 8.4617138E-02
557.3269, 8.7930068E-02
559.2554, 9.1073908E-02
561.1838, 9.4516188E-02
563.1123, 0.1001212
565.0408, 0.1070045
566.9692, 0.1102778
568.8977, 0.1103501
570.8262, 0.1092910
572.7546, 0.1090005
574.6831, 0.1107725
576.6116, 0.1132385
578.5400, 0.1147682
580.4685, 0.1173555
582.3970, 0.1216597
584.3254, 0.1260733
586.2539, 0.1298581
588.1824, 0.1341611
590.1108, 0.1396811
592.0393, 0.1440106
593.9678, 0.1484255
595.8962, 0.1536981
597.8247, 0.1589120
599.7532, 0.1646733
601.6816, 0.1706896
603.6101, 0.1753410
605.5386, 0.1806102
607.4670, 0.1862146
609.3955, 0.1914801
611.3240, 0.1973097
613.2524, 0.2033004
615.1809, 0.2086899
617.1094, 0.2142487
619.0378, 0.2189926
620.9663, 0.2243389
622.8948, 0.2307034
624.8232, 0.2371941
626.7517, 0.2424735
628.6802, 0.2478188
630.6086, 0.2535705
632.5371, 0.2600704
634.4656, 0.2664329
636.3940, 0.2732618
638.3225, 0.2800598
640.2510, 0.2863293
642.1794, 0.2935548
644.1079, 0.3000291
646.0364, 0.3066094
647.9648, 0.3141026
649.8933, 0.3222212
651.8218, 0.3294505
653.7502, 0.3355925
655.6787, 0.3433438
657.6072, 0.3516670
659.5356, 0.3597926
661.4641, 0.3673787
663.3926, 0.3745150
665.3210, 0.3817827
667.2495, 0.3901082
669.1780, 0.3978476
671.1064, 0.4054519
673.0349, 0.4133971
674.9634, 0.4221181
676.8918, 0.4303094
678.8203, 0.4375862
680.7488, 0.4467034
682.6772, 0.4551702
684.6057, 0.4631582
686.5342, 0.4717419
688.4626, 0.4796283
690.3911, 0.4877050
692.3196, 0.4962217
694.2480, 0.5042870
696.1765, 0.5123335
698.1050, 0.5203013
700.0334, 0.5286508
701.9619, 0.5374085
703.8904, 0.5459737
705.8188, 0.5536543
707.7473, 0.5609903
709.6758, 0.5683885
711.6042, 0.5761572
713.5327, 0.5838259
715.4612, 0.5910559
717.3896, 0.5991464
719.3181, 0.6076992
721.2466, 0.6159852
723.1750, 0.6232824
725.1035, 0.6311744
727.0320, 0.6381499
728.9604, 0.6435655
730.8889, 0.6496885
732.8174, 0.6581858
734.7458, 0.6650183
736.6743, 0.6700235
738.6028, 0.6757504
740.5313, 0.6817519
742.4597, 0.6888124
744.3882, 0.6961930
746.3167, 0.7020421
748.2451, 0.7066446
750.1736, 0.7121127
752.1021, 0.7172550
754.0305, 0.7198743
755.9590, 0.7222660
757.8875, 0.7251641
759.8159, 0.7262531
761.7444, 0.7268463
763.6729, 0.7255237
765.6013, 0.7204530
767.5298, 0.7142669
769.4583, 0.7053805
771.3867, 0.6916648
773.3152, 0.6722638
775.2437, 0.6489007
777.1721, 0.6221091
779.1006, 0.5911137
781.0291, 0.5582629
782.9575, 0.5266623
784.8860, 0.4964905
786.8145, 0.4685419
788.7429, 0.4452754
790.6714, 0.4285571
792.5999, 0.4207535
794.5283, 0.4230589
796.4568, 0.4309175
798.3853, 0.4375246
800.3137, 0.4372685
802.2422, 0.4279375
804.1707, 0.4100438
806.0991, 0.3886206
808.0276, 0.3702688
809.9561, 0.3598257
811.8845, 0.3555041
813.8130, 0.3480651
815.7415, 0.3320133
817.6699, 0.3101069
819.5984, 0.2866327
821.5269, 0.2648780
823.4553, 0.2451777
825.3838, 0.2270018
827.3123, 0.2107679
829.2407, 0.1957920
831.1692, 0.1823298
833.0977, 0.1702053
835.0261, 0.1587393
836.9546, 0.1474600
838.8831, 0.1370904
840.8115, 0.1275202
842.7400, 0.1177010
844.6685, 0.1084270
846.5969, 9.9449188E-02
848.5254, 9.0974487E-02
850.4539, 8.2990959E-02
852.3823, 7.5621963E-02
854.3108, 6.9012381E-02
856.2393, 6.3289717E-02
858.1677, 5.8287490E-02
860.0962, 5.3769529E-02
862.0247, 4.9518801E-02
863.9531, 4.5653790E-02
865.8816, 4.1886769E-02
867.8101, 3.8557790E-02
869.7385, 3.5561070E-02
871.6670, 3.2950658E-02
873.5955, 3.0699300E-02
875.5239, 2.8606400E-02
877.4524, 2.6515851E-02
879.3809, 2.4509249E-02
881.3093, 2.3129400E-02
883.2378, 2.1846389E-02
885.1663, 2.0669861E-02
887.0947, 1.9291390E-02
889.0232, 1.7863121E-02
890.9517, 1.6818359E-02
892.8801, 1.6096190E-02
894.8085, 1.5439690E-02
896.7370, 1.4792340E-02
898.6655, 1.4458460E-02
900.5939, 1.3964360E-02
902.5224, 1.3270010E-02
904.4509, 1.2959250E-02
906.3793, 1.2643250E-02
908.3078, 1.2370870E-02
910.2363, 1.2212270E-02
912.1647, 1.1933260E-02
914.0932, 1.1910440E-02
916.0217, 1.2333000E-02
917.9501, 1.2908040E-02
919.8786, 1.2859340E-02
921.8071, 1.2703390E-02
923.7355, 1.2390030E-02
925.6640, 1.1963470E-02
927.5925, 1.1722120E-02
929.5209, 1.1808860E-02
931.4494, 1.1949370E-02
933.3779, 1.2381030E-02
935.3063, 1.3038760E-02
937.2348, 1.3675670E-02
939.1633, 1.4257290E-02
941.0917, 1.4668090E-02
943.0202, 1.5825531E-02
944.9487, 1.7306510E-02
946.8771, 1.8873051E-02
948.8056, 2.0730190E-02
950.7341, 2.2235621E-02
952.6625, 2.3313720E-02
954.5910, 2.4133950E-02
956.5195, 2.4445809E-02
958.4479, 2.3878081E-02
960.3764, 2.2731369E-02
962.3049, 2.1314031E-02
964.2333, 2.0047290E-02
966.1618, 1.9071391E-02
968.0903, 1.8367650E-02
970.0187, 1.8495459E-02
971.9472, 1.8942790E-02
973.8757, 1.9358220E-02
975.8041, 1.9906010E-02
977.7326, 2.0611070E-02
979.6611, 2.1607639E-02
981.5895, 2.2159850E-02
983.5180, 2.2369109E-02
985.4465, 2.2621511E-02
987.3749, 2.2819569E-02
989.3034, 2.3010639E-02
991.2319, 2.2956939E-02
993.1603, 2.2967070E-02
995.0888, 2.3234220E-02
997.0173, 2.3908149E-02
998.9457, 2.4618439E-02
1000.874, 2.5445390E-02
1002.803, 2.6009619E-02
1004.731, 2.5667990E-02
1006.660, 2.5064681E-02
1008.588, 2.4410229E-02
1010.517, 2.3350431E-02
1012.445, 2.2334330E-02
1014.373, 2.1564949E-02
1016.302, 2.0837590E-02
1018.230, 1.9990761E-02
1020.159, 1.9292990E-02
1022.087, 1.8601719E-02
1024.016, 1.8040409E-02
1025.944, 1.7394589E-02
1027.873, 1.6916050E-02
1029.801, 1.6825659E-02
1031.730, 1.6865039E-02
1033.658, 1.6905030E-02
1035.587, 1.6686261E-02
1037.515, 1.6556369E-02
1039.444, 1.6810270E-02
1041.372, 1.6819470E-02
1043.301, 1.6524050E-02
1045.229, 1.6416160E-02
1047.157, 1.6554000E-02
1049.086, 1.6754201E-02
1051.014, 1.6558640E-02
1052.943, 1.6394030E-02
1054.871, 1.6580161E-02
1056.800, 1.6505770E-02
1058.728, 1.6599979E-02
1060.657, 1.6939690E-02
1062.585, 1.6975040E-02
1064.514, 1.6824560E-02
1066.442, 1.6660130E-02
1068.371, 1.6856940E-02
1070.299, 1.7171090E-02
1072.228, 1.7607849E-02
1074.156, 1.7876960E-02
1076.084, 1.7970441E-02
1078.013, 1.8123239E-02
1079.941, 1.8272610E-02
1081.870, 1.8515030E-02
1083.798, 1.8778140E-02
1085.727, 1.9274279E-02
1087.655, 1.9624401E-02
1089.584, 1.9723590E-02
1091.512, 1.9978860E-02
1093.441, 2.0090280E-02
1095.369, 2.0127971E-02
1097.298, 2.0560831E-02
1099.226, 2.0889150E-02
1101.155, 2.1140721E-02
1103.083, 2.1356070E-02
1105.011, 2.1531170E-02
1106.940, 2.1556759E-02
1108.868, 2.1606840E-02
1110.797, 2.1796180E-02
1112.725, 2.1890640E-02
1114.654, 2.2037620E-02
1116.582, 2.2132020E-02
1118.511, 2.2184741E-02
1120.439, 2.2312360E-02
1122.368, 2.2601649E-02
1124.296, 2.2979479E-02
1126.225, 2.3319140E-02
1128.153, 2.3332110E-02
1130.082, 2.3444600E-02
1132.010, 2.3825400E-02
1133.938, 2.3961540E-02
1135.867, 2.3985000E-02
1137.795, 2.3937739E-02
1139.724, 2.4103200E-02
1141.652, 2.4256419E-02
1143.581, 2.4229551E-02
1145.509, 2.4412511E-02
1147.438, 2.4461471E-02
1149.366, 2.4437640E-02
1151.295, 2.4697490E-02
1153.223, 2.4853241E-02
1155.152, 2.4874501E-02
1157.080, 2.4964049E-02
1159.009, 2.5179369E-02
1160.937, 2.5278751E-02
1162.865, 2.5427399E-02
1164.794, 2.5628200E-02
1166.722, 2.5884960E-02
1168.651, 2.6096020E-02
1170.579, 2.6002999E-02
1172.508, 2.6231160E-02
1174.436, 2.6383800E-02
1176.365, 2.6393941E-02
1178.293, 2.6573829E-02
1180.222, 2.6769510E-02
1182.150, 2.6795421E-02
1184.079, 2.7187141E-02
1186.007, 2.7586980E-02
1187.936, 2.7958220E-02
1189.864, 2.8016040E-02
1191.792, 2.8059831E-02
1193.721, 2.8146960E-02
1195.649, 2.8310360E-02
1197.578, 2.8607359E-02
1199.506, 2.8708650E-02
1201.435, 2.8969159E-02
1203.363, 2.9212311E-02
1205.292, 2.9292550E-02
1207.220, 2.9247150E-02
1209.149, 2.9249420E-02
1211.077, 2.9468540E-02
1213.006, 2.9710840E-02
1214.934, 2.9889479E-02
1216.863, 2.9965481E-02
1218.791, 2.9822720E-02
1220.719, 2.9679550E-02
1222.648, 3.0068841E-02
1224.576, 3.0512471E-02
1226.505, 3.0601880E-02
1228.433, 3.0626159E-02
1230.362, 3.0860890E-02
1232.290, 3.0942321E-02
1234.219, 3.0907489E-02
1236.147, 3.0991390E-02
1238.076, 3.1217420E-02
1240.004, 3.1538211E-02
1241.933, 3.1768549E-02
1243.861, 3.1807691E-02
1245.790, 3.1952001E-02
1247.718, 3.2217961E-02
1249.646, 3.2578211E-02
1251.575, 3.2790478E-02
1253.503, 3.2963961E-02
1255.432, 3.3213120E-02
1257.360, 3.3471610E-02
1259.289, 3.3840470E-02
1261.217, 3.4183890E-02
1263.146, 3.4347821E-02
1265.074, 3.4504268E-02
1267.003, 3.4955040E-02
1268.931, 3.5553269E-02
1270.860, 3.6179870E-02
1272.788, 3.6838930E-02
1274.717, 3.7277840E-02
1276.645, 3.7524499E-02
1278.573, 3.7695181E-02
1280.502, 3.7806861E-02
1282.430, 3.7927940E-02
1284.359, 3.7902560E-02
1286.287, 3.7848219E-02
1288.216, 3.7996572E-02
1290.144, 3.8341779E-02
1292.073, 3.8679369E-02
1294.001, 3.8970102E-02
1295.930, 3.9413959E-02
1297.858, 3.9714329E-02
1299.787, 3.9975598E-02
1301.715, 4.0204640E-02
1303.644, 4.0435258E-02
1305.572, 4.0895618E-02
1307.500, 4.1242599E-02
1309.429, 4.1239541E-02
1311.357, 4.1391719E-02
1313.286, 4.1453529E-02
1315.214, 4.1604251E-02
1317.143, 4.1795559E-02
1319.071, 4.1987240E-02
1321.000, 4.2124450E-02
1322.928, 4.2223401E-02
1324.857, 4.2345021E-02
1326.785, 4.2205539E-02
1328.714, 4.2073961E-02
1330.642, 4.2162530E-02
1332.571, 4.2317878E-02
1334.499, 4.2515378E-02
1336.427, 4.2638320E-02
1338.356, 4.2581599E-02
1340.284, 4.2729311E-02
1342.213, 4.2964421E-02
1344.141, 4.3056019E-02
1346.070, 4.3239951E-02
1347.998, 4.3384921E-02
1349.927, 4.3386530E-02
1351.855, 4.3570269E-02
1353.784, 4.3928299E-02
1355.712, 4.4239730E-02
1357.641, 4.4381589E-02
1359.569, 4.4488210E-02
1361.498, 4.4816729E-02
1363.426, 4.5187589E-02
1365.354, 4.5263082E-02
1367.283, 4.5288451E-02
1369.211, 4.5640171E-02
1371.140, 4.5762569E-02
1373.068, 4.5797881E-02
1374.997, 4.6011299E-02
1376.925, 4.6244912E-02
1378.854, 4.6598330E-02
1380.782, 4.6908621E-02
1382.711, 4.7163989E-02
1384.639, 4.7621340E-02
1386.568, 4.7908530E-02
1388.496, 4.7963850E-02
1390.424, 4.8486609E-02
1392.353, 4.9054369E-02
1394.281, 4.9215131E-02
1396.210, 4.9314041E-02
1398.138, 4.9494442E-02
1400.067, 4.9739551E-02
1401.995, 4.9982719E-02
1403.924, 5.0185680E-02
1405.852, 5.0280299E-02
1407.781, 5.0486449E-02
1409.709, 5.0730560E-02
1411.638, 5.0912920E-02
1413.566, 5.0939448E-02
1415.495, 5.1035918E-02
1417.423, 5.1316962E-02
1419.351, 5.1377561E-02
1421.280, 5.1368199E-02
1423.208, 5.1606160E-02
1425.137, 5.2014992E-02
1427.065, 5.2183650E-02
1428.994, 5.2201100E-02
1430.922, 5.2553680E-02
1432.851, 5.2838549E-02
1434.779, 5.2871741E-02
1436.708, 5.3157561E-02
1438.636, 5.3419631E-02
1440.565, 5.3513430E-02
1442.493, 5.3749010E-02
1444.422, 5.4081801E-02
1446.350, 5.4422580E-02
1448.278, 5.4876879E-02
1450.207, 5.5540521E-02
1452.135, 5.6339871E-02
1454.064, 5.6779761E-02
1455.992, 5.7016861E-02
1457.921, 5.7603370E-02
1459.849, 5.8320612E-02
1461.778, 5.8696698E-02
1463.706, 5.8970481E-02
1465.635, 5.9130110E-02
1467.563, 5.9389111E-02
1469.492, 5.9894029E-02
1471.420, 6.0409568E-02
1473.349, 6.0827959E-02
1475.277, 6.1010029E-02
1477.205, 6.0947161E-02
1479.134, 6.0814049E-02
1481.062, 6.0622640E-02
1482.991, 6.0518380E-02
1484.919, 6.0379680E-02
1486.848, 6.0131419E-02
1488.776, 5.9906121E-02
1490.705, 5.9617680E-02
1492.633, 5.9477750E-02
1494.562, 5.9403099E-02
1496.490, 5.9058849E-02
1498.419, 5.8866542E-02
1500.347, 5.8649901E-02
1502.276, 5.8259070E-02
1504.204, 5.8152761E-02
1506.132, 5.8253080E-02
1508.061, 5.8101699E-02
1509.989, 5.7920951E-02
1511.918, 5.7636749E-02
1513.846, 5.7501581E-02
1515.775, 5.7745691E-02
1517.703, 5.7989821E-02
1519.632, 5.7958171E-02
1521.560, 5.7864878E-02
1523.489, 5.8028411E-02
1525.417, 5.8281120E-02
1527.346, 5.8452848E-02
1529.274, 5.8620661E-02
1531.203, 5.8725830E-02
1533.131, 5.8602531E-02
1535.059, 5.8623690E-02
1536.988, 5.8669511E-02
1538.916, 5.8736298E-02
1540.845, 5.8694500E-02
1542.773, 5.8429878E-02
1544.702, 5.8477111E-02
1546.630, 5.8473770E-02
1548.559, 5.8205608E-02
1550.487, 5.8313370E-02
1552.416, 5.8233950E-02
1554.344, 5.8117270E-02
1556.273, 5.8100410E-02
1558.201, 5.8071509E-02
1560.130, 5.8016408E-02
1562.058, 5.8036178E-02
1563.986, 5.8321629E-02
1565.915, 5.8514640E-02
1567.843, 5.8418881E-02
1569.772, 5.8352672E-02
1571.700, 5.8486480E-02
1573.629, 5.8694620E-02
1575.557, 5.8628280E-02
1577.486, 5.8515862E-02
1579.414, 5.8515549E-02
1581.343, 5.8538571E-02
1583.271, 5.8484688E-02
1585.200, 5.8399972E-02
1587.128, 5.8350701E-02
1589.057, 5.8271039E-02
1590.985, 5.8026940E-02
1592.913, 5.7905011E-02
1594.842, 5.7869349E-02
1596.770, 5.7659149E-02
1598.699, 5.7360020E-02
1600.627, 5.7227701E-02
1602.556, 5.7114389E-02
1604.484, 5.6862321E-02
1606.413, 5.6766730E-02
1608.341, 5.6836709E-02
1610.270, 5.6656830E-02
1612.198, 5.6447431E-02
1614.127, 5.6501050E-02
1616.055, 5.6441281E-02
1617.984, 5.6450412E-02
1619.912, 5.6453090E-02
1621.840, 5.6212269E-02
1623.769, 5.6008860E-02
1625.697, 5.6022160E-02
1627.626, 5.6228410E-02
1629.554, 5.6261901E-02
1631.483, 5.6168862E-02
1633.411, 5.6243721E-02
1635.340, 5.6342471E-02
1637.268, 5.6403931E-02
1639.197, 5.6529921E-02
1641.125, 5.6473501E-02
1643.054, 5.6442380E-02
1644.982, 5.6596991E-02
1646.911, 5.6631830E-02
1648.839, 5.6274351E-02
1650.767, 5.6004860E-02
1652.696, 5.5945951E-02
1654.624, 5.6038111E-02
1656.553, 5.6158189E-02
1658.481, 5.5859681E-02
1660.410, 5.5677719E-02
1662.338, 5.5941310E-02
1664.267, 5.6114070E-02
1666.195, 5.6146611E-02
1668.124, 5.6124289E-02
1670.052, 5.6092512E-02
1671.981, 5.6033470E-02
1673.909, 5.6072719E-02
1675.838, 5.6104992E-02
1677.766, 5.6011379E-02
1679.694, 5.5829350E-02
1681.623, 5.5834930E-02
1683.551, 5.6110829E-02
1685.480, 5.6200542E-02
1687.408, 5.6151628E-02
1689.337, 5.6088630E-02
1691.265, 5.5864550E-02
1693.194, 5.5603791E-02
1695.122, 5.5460248E-02
1697.051, 5.5480812E-02
1698.979, 5.5476811E-02
1700.908, 5.5275291E-02
1702.836, 5.4799061E-02
1704.765, 5.4315209E-02
1706.693, 5.3978499E-02
1708.621, 5.3624649E-02
1710.550, 5.3427350E-02
1712.478, 5.3457782E-02
1714.407, 5.3659592E-02
1716.335, 5.3822409E-02
1718.264, 5.4030389E-02
1720.192, 5.4286830E-02
1722.121, 5.4390538E-02
1724.049, 5.4526400E-02
1725.978, 5.4688379E-02
1727.906, 5.4682739E-02
1729.835, 5.4548521E-02
1731.763, 5.4099809E-02
1733.692, 5.3465091E-02
1735.620, 5.3084020E-02
1737.548, 5.2651189E-02
1739.477, 5.2120849E-02
1741.405, 5.2073259E-02
1743.334, 5.2303609E-02
1745.262, 5.2449320E-02
1747.191, 5.2970398E-02
1749.119, 5.4018151E-02
1751.048, 5.4908689E-02
1752.976, 5.5523839E-02
1754.905, 5.6457359E-02
1756.833, 5.7135660E-02
1758.762, 5.7487920E-02
1760.690, 5.8017809E-02
1762.619, 5.8535989E-02
1764.547, 5.8977541E-02
1766.475, 5.9194651E-02
1768.404, 5.9198409E-02
1770.332, 5.9372820E-02
1772.261, 5.9712950E-02
1774.189, 5.9941001E-02
1776.118, 5.9958879E-02
1778.046, 5.9912931E-02
1779.975, 6.0016468E-02
1781.903, 6.0295731E-02
1783.832, 6.0220551E-02
1785.760, 6.0086519E-02
1787.689, 6.0244761E-02
1789.617, 6.0337879E-02
1791.546, 6.0330980E-02
1793.474, 6.0254809E-02
1795.402, 6.0060151E-02
1797.331, 6.0176369E-02
1799.259, 6.0657389E-02
1801.188, 6.0741100E-02
1803.116, 6.0750630E-02
1805.045, 6.0778901E-02
1806.973, 6.0798649E-02
1808.902, 6.0852461E-02
1810.830, 6.1099581E-02
1812.759, 6.1445560E-02
1814.687, 6.1136272E-02
1816.616, 6.1028220E-02
1818.544, 6.1361142E-02
1820.473, 6.1683308E-02
1822.401, 6.1980732E-02
1824.329, 6.2070739E-02
1826.258, 6.2040959E-02
1828.186, 6.1872050E-02
1830.115, 6.1960429E-02
1832.043, 6.1767220E-02
1833.972, 6.1825790E-02
1835.900, 6.2160119E-02
1837.829, 6.2317390E-02
1839.757, 6.2434942E-02
1841.686, 6.2547550E-02
1843.614, 6.2555008E-02
1845.543, 6.2956929E-02
1847.471, 6.3074261E-02
1849.400, 6.3110240E-02
1851.328, 6.3272692E-02
1853.256, 6.3151509E-02
1855.185, 6.3159063E-02
1857.113, 6.3115299E-02
1859.042, 6.3256711E-02
1860.970, 6.3720971E-02
1862.899, 6.3393883E-02
1864.827, 6.2784709E-02
1866.756, 6.2738433E-02
1868.684, 6.3012697E-02
1870.613, 6.3129507E-02
1872.541, 6.3765258E-02
1874.470, 6.3717633E-02
1876.398, 6.3426197E-02
1878.327, 6.3103393E-02
1880.255, 6.3546836E-02
1882.183, 6.3869841E-02
1884.112, 6.4158082E-02
1886.040, 6.4596623E-02
1887.969, 6.4572357E-02
1889.897, 6.4133808E-02
1891.826, 6.3644238E-02
1893.754, 6.3938007E-02
1895.683, 6.4361081E-02
1897.611, 6.4320311E-02
1899.540, 6.4692684E-02
1901.468, 6.5155901E-02
1903.397, 6.4814560E-02
1905.325, 6.4327419E-02
1907.254, 6.4716980E-02
1909.182, 6.4646609E-02
1911.110, 6.4300679E-02
1913.039, 6.4593010E-02
1914.967, 6.4660557E-02
1916.896, 6.4851992E-02
1918.824, 6.5317810E-02
1920.753, 6.5371342E-02
1922.681, 6.5244220E-02
1924.610, 6.5012902E-02
1926.538, 6.5314583E-02
1928.467, 6.5312147E-02
1930.395, 6.4929754E-02
1932.324, 6.5184847E-02
1934.252, 6.5680198E-02
1936.181, 6.5238707E-02
1938.109, 6.5525822E-02
1940.037, 6.5867104E-02
1941.966, 6.5497577E-02
1943.894, 6.6340543E-02
1945.823, 6.6371493E-02
1947.751, 6.6475853E-02
1949.680, 6.6776223E-02
1951.608, 6.6226862E-02
1953.537, 6.6427089E-02
1955.465, 6.6717111E-02
1957.394, 6.6242613E-02
1959.322, 6.6338293E-02
1961.251, 6.5929607E-02
1963.179, 6.5931812E-02
1965.108, 6.6484891E-02
1967.036, 6.6524982E-02
1968.964, 6.6646837E-02
1970.893, 6.6518411E-02
1972.821, 6.6366397E-02
1974.750, 6.4779207E-02
1976.678, 6.5588564E-02
1978.607, 6.8393119E-02
1980.535, 6.9588542E-02
1982.464, 6.9100291E-02
1984.392, 6.8683252E-02
1986.321, 6.7396633E-02
1988.249, 6.7619771E-02
1990.178, 6.9722347E-02
1992.106, 6.9220543E-02
1994.035, 6.7814633E-02
1995.963, 6.7327753E-02
1997.891, 6.7553923E-02
1999.820, 6.7611523E-02
2001.748, 6.8093993E-02
2003.677, 6.7799143E-02
2005.605, 6.7500107E-02
2007.534, 6.8242118E-02
2009.462, 6.8627872E-02
2011.391, 6.8778470E-02
2013.319, 6.8059497E-02
2015.248, 6.8606570E-02
2017.176, 6.9330141E-02
2019.105, 6.8946823E-02
2021.033, 6.9728538E-02
2022.962, 6.9274053E-02
2024.890, 6.7373797E-02
2026.818, 6.7528963E-02
2028.747, 6.7988120E-02
2030.675, 6.7286476E-02
2032.604, 6.7828812E-02
2034.532, 6.8539679E-02
2036.461, 6.9520563E-02
2038.389, 6.9834843E-02
2040.318, 6.9039769E-02
2042.246, 6.9299243E-02
2044.175, 6.9219612E-02
2046.103, 6.9720827E-02
2048.032, 7.0802778E-02
2049.960, 7.0709877E-02
2051.889, 6.9391683E-02
2053.817, 6.9302581E-02
2055.746, 6.9590293E-02
2057.674, 6.9727913E-02
2059.603, 6.9498278E-02
2061.531, 6.9372118E-02
2063.459, 6.8998247E-02
2065.388, 6.8356887E-02
2067.316, 6.8388663E-02
2069.245, 6.9605067E-02
2071.173, 7.0243657E-02
2073.102, 6.9986314E-02
2075.030, 7.0544466E-02
2076.959, 7.0441619E-02
2078.887, 6.9127291E-02
2080.816, 6.8456113E-02
2082.744, 6.9560193E-02
2084.673, 6.9670029E-02
2086.601, 6.9169559E-02
2088.530, 6.9371536E-02
2090.458, 6.9910139E-02
2092.386, 6.9249406E-02
2094.315, 6.8318307E-02
2096.243, 6.8023458E-02
2098.172, 6.8477303E-02
2100.100, 6.9144152E-02
2102.029, 6.9305807E-02
2103.957, 6.9058880E-02
2105.886, 6.9225132E-02
2107.814, 6.9103777E-02
2109.743, 6.9501817E-02
2111.671, 6.9838412E-02
2113.600, 6.9348253E-02
2115.528, 6.8172060E-02
2117.457, 6.8337277E-02
2119.385, 6.8824083E-02
2121.313, 6.8750747E-02
2123.242, 6.8713881E-02
2125.170, 6.8870477E-02
2127.099, 6.9168940E-02
2129.027, 6.9496840E-02
2130.956, 6.9232590E-02
2132.884, 6.8612628E-02
2134.813, 6.9169171E-02
2136.741, 6.9626577E-02
2138.670, 6.9848381E-02
2140.598, 6.9817089E-02
2142.527, 6.9583356E-02
2144.455, 6.9310509E-02
2146.384, 6.9787011E-02
2148.312, 7.0602357E-02
2150.240, 7.1177587E-02
2152.169, 7.1560331E-02
2154.097, 7.1004190E-02
2156.026, 7.0131034E-02
2157.954, 6.9847368E-02
2159.883, 7.1780309E-02
2161.811, 7.1761310E-02
2163.740, 7.1275339E-02
2165.668, 7.1089529E-02
2167.597, 7.1580216E-02
2169.525, 7.1051478E-02
2171.454, 7.0581071E-02
2173.382, 7.0591129E-02
2175.311, 7.1381859E-02
2177.239, 7.1628712E-02
2179.167, 7.1736142E-02
2181.096, 7.2711900E-02
2183.024, 7.2094433E-02
2184.953, 7.1503423E-02
2186.881, 7.1903571E-02
2188.810, 7.2230957E-02
2190.738, 7.1988083E-02
2192.667, 7.0550866E-02
2194.595, 7.0758156E-02
2196.524, 7.2036691E-02
2198.452, 7.1860597E-02
2200.381, 7.1602762E-02
2202.309, 7.0930801E-02
2204.238, 7.0918120E-02
2206.166, 7.1259327E-02
2208.094, 7.1010038E-02
2210.023, 7.0859879E-02
2211.951, 7.1421698E-02
2213.880, 7.1390569E-02
2215.808, 7.0786513E-02
2217.737, 7.0755593E-02
2219.665, 7.0603840E-02
2221.594, 6.9998473E-02
2223.522, 7.0686139E-02
2225.451, 7.1989879E-02
2227.379, 7.2062351E-02
2229.308, 7.1693189E-02
2231.236, 7.1137458E-02
2233.165, 7.0941173E-02
2235.093, 7.1453571E-02
2237.021, 7.2055697E-02
2238.950, 7.1775071E-02
2240.878, 7.1592331E-02
2242.807, 7.1289122E-02
2244.735, 7.0747398E-02
2246.664, 7.0667773E-02
2248.592, 7.1032360E-02
2250.521, 7.1462117E-02
2252.449, 7.1210571E-02
2254.378, 7.1140580E-02
2256.306, 7.2094887E-02
2258.235, 7.2242588E-02
2260.163, 7.1334846E-02
2262.092, 7.0760190E-02
2264.020, 7.1202099E-02
2265.948, 7.1714178E-02
2267.877, 7.1674153E-02
2269.805, 7.2047487E-02
2271.734, 7.1811311E-02
2273.662, 7.1513139E-02
2275.591, 7.2092429E-02
2277.519, 7.2142422E-02
2279.448, 7.1992338E-02
2281.376, 7.1930401E-02
2283.305, 7.1718752E-02
2285.233, 7.1858652E-02
2287.162, 7.1631446E-02
2289.090, 7.1685337E-02
2291.019, 7.1666613E-02
2292.947, 7.1083680E-02
2294.875, 7.1317270E-02
2296.804, 7.1718633E-02
2298.732, 7.1476541E-02
2300.661, 7.1598306E-02
2302.589, 7.1878240E-02
2304.518, 7.1995042E-02
2306.446, 7.1663998E-02
2308.375, 7.1369007E-02
2310.303, 7.1360461E-02
2312.232, 7.1259879E-02
2314.160, 7.1130358E-02
2316.089, 7.1448334E-02
2318.017, 7.1605846E-02
2319.946, 7.1751297E-02
2321.874, 7.2157249E-02
2323.802, 7.2466239E-02
2325.731, 7.2083227E-02
2327.659, 7.1601242E-02
2329.588, 7.1557678E-02
2331.516, 7.1858652E-02
2333.445, 7.1765728E-02
2335.373, 7.1618482E-02
2337.302, 7.1494780E-02
2339.230, 7.1586631E-02
2341.159, 7.1614839E-02
2343.087, 7.1466997E-02
2345.016, 7.1284361E-02
2346.944, 7.1207643E-02
2348.873, 7.1252070E-02
2350.801, 7.1289159E-02
2352.729, 7.1404278E-02
2354.658, 7.1541227E-02
2356.586, 7.1547247E-02
2358.515, 7.1698502E-02
2360.443, 7.1485952E-02
2362.372, 7.1546003E-02
2364.300, 7.1902484E-02
2366.229, 7.1470447E-02
2368.157, 7.1238637E-02
2370.086, 7.1350932E-02
2372.014, 7.1201444E-02
2373.942, 7.1303964E-02
2375.871, 7.1406230E-02
2377.799, 7.1380571E-02
2379.728, 7.1355700E-02
2381.656, 7.1045041E-02
2383.585, 7.0340313E-02
2385.513, 7.0665203E-02
2387.442, 7.1298383E-02
2389.370, 7.1498960E-02
2391.299, 7.1926139E-02
2393.227, 7.1925357E-02
2395.156, 7.1513921E-02
2397.084, 7.1325317E-02
2399.012, 7.1134612E-02
2400.941, 7.1237393E-02
2402.869, 7.1456268E-02
2404.798, 7.1758144E-02
2406.726, 7.2080150E-02
2408.655, 7.2091676E-02
2410.583, 7.2150573E-02
2412.512, 7.2153263E-02
2414.440, 7.2267398E-02
2416.369, 7.2469249E-02
2418.297, 7.2343037E-02
2420.226, 7.2166368E-02
2422.154, 7.1334921E-02
2424.083, 7.1323559E-02
2426.011, 7.1976230E-02
2427.939, 7.2165079E-02
2429.868, 7.1898773E-02
2431.796, 7.1842581E-02
2433.725, 7.2187997E-02
2435.653, 7.2328024E-02
2437.582, 7.1958631E-02
2439.510, 7.2483927E-02
2441.439, 7.2536990E-02
2443.367, 7.2574228E-02
2445.296, 7.2611079E-02
2447.224, 7.2498500E-02
2449.153, 7.2162770E-02
2451.081, 7.1707532E-02
2453.010, 7.2099820E-02
2454.938, 7.2367787E-02
2456.866, 7.2062433E-02
2458.795, 7.2334833E-02
2460.723, 7.2577953E-02
2462.652, 7.2474733E-02
2464.580, 7.2270297E-02
2466.509, 7.2679229E-02
2468.437, 7.3016576E-02
2470.366, 7.2726823E-02
2472.294, 7.2298937E-02
2474.223, 7.1683027E-02
2476.151, 7.1803853E-02
2478.080, 7.2383091E-02
2480.008, 7.2482407E-02
2481.937, 7.2408341E-02
2483.865, 7.2114378E-02
2485.793, 7.2392330E-02
2487.722, 7.2346494E-02
2489.650, 7.2497047E-02
2491.579, 7.3121414E-02
2493.507, 7.2952136E-02
2495.436, 7.2491959E-02
2497.364, 7.3116273E-02
2499.293, 7.3526368E-02
2501.221, 7.2754867E-02
2503.150, 7.2447211E-02
2505.078, 7.2471596E-02
2507.007, 7.2112851E-02
2508.935, 7.1870573E-02
2510.864, 7.2244152E-02
2512.792, 7.2615393E-02
2514.720, 7.2738849E-02
2516.649, 7.2221152E-02
2518.577, 7.2334751E-02
2520.506, 7.3019587E-02
2522.434, 7.3526517E-02
2524.363, 7.3266514E-02
2526.291, 7.3231183E-02
2528.220, 7.3452577E-02
2530.148, 7.3274903E-02
2532.077, 7.2932459E-02
2534.005, 7.2486803E-02
2535.934, 7.2460286E-02
2537.862, 7.3112160E-02
2539.791, 7.3037393E-02
2541.719, 7.3004507E-02
2543.647, 7.2887227E-02
2545.576, 7.2990067E-02
2547.504, 7.3056437E-02
2549.433, 7.2856158E-02
2551.361, 7.2527707E-02
2553.290, 7.3068947E-02
2555.218, 7.3799007E-02
2557.147, 7.3811233E-02
2559.075, 7.3334411E-02
2561.004, 7.2825983E-02
2562.932, 7.2739750E-02
2564.861, 7.3193014E-02
2566.789, 7.3451407E-02
2568.718, 7.3201723E-02
2570.646, 7.3491827E-02
2572.574, 7.3545009E-02
2574.503, 7.3289849E-02
2576.431, 7.2712958E-02
2578.360, 7.2725102E-02
2580.288, 7.2858833E-02
2582.217, 7.3173247E-02
2584.145, 7.3658057E-02
2586.074, 7.3703170E-02
2588.002, 7.3060878E-02
2589.931, 7.2767183E-02
2591.859, 7.3283382E-02
2593.788, 7.3467299E-02
2595.716, 7.3412493E-02
2597.645, 7.3355213E-02
2599.573, 7.3553517E-02
2601.501, 7.3775686E-02
2603.430, 7.3545977E-02
2605.358, 7.3379532E-02
2607.287, 7.3316760E-02
2609.215, 7.3168583E-02
2611.144, 7.2943158E-02
2613.072, 7.3037744E-02
2615.001, 7.3181838E-02
2616.929, 7.3303193E-02
2618.858, 7.3521890E-02
2620.786, 7.3676467E-02
2622.715, 7.3701829E-02
2624.643, 7.3472157E-02
2626.572, 7.3417433E-02
2628.500, 7.3725067E-02
2630.428, 7.3861457E-02
2632.357, 7.3956288E-02
2634.285, 7.3985361E-02
2636.214, 7.3848620E-02
2638.142, 7.3639490E-02
2640.071, 7.3209681E-02
2641.999, 7.3035352E-02
2643.928, 7.3253527E-02
2645.856, 7.3375367E-02
2647.785, 7.3396243E-02
2649.713, 7.3295154E-02
2651.642, 7.3041081E-02
2653.570, 7.3112980E-02
2655.499, 7.3326372E-02
2657.427, 7.3638543E-02
2659.355, 7.3696882E-02
2661.284, 7.3533118E-02
2663.212, 7.3413163E-02
2665.141, 7.3282473E-02
2667.069, 7.3167682E-02
2668.998, 7.3093459E-02
2670.926, 7.3113181E-02
2672.855, 7.3053554E-02
2674.783, 7.2798051E-02
2676.712, 7.2741710E-02
2678.640, 7.2994001E-02
2680.569, 7.3111407E-02
2682.497, 7.2958574E-02
2684.426, 7.3133573E-02
2686.354, 7.3219493E-02
2688.282, 7.3074684E-02
2690.211, 7.3434971E-02
2692.139, 7.3604748E-02
2694.068, 7.3338181E-02
2695.996, 7.3231183E-02
2697.925, 7.3218390E-02
2699.853, 7.3256187E-02
2701.782, 7.3238701E-02
2703.710, 7.3113836E-02
2705.639, 7.3610313E-02
2707.567, 7.3895849E-02
2709.496, 7.3627450E-02
2711.424, 7.3498771E-02
2713.353, 7.4256226E-02
2715.281, 7.4567907E-02
2717.209, 7.3949307E-02
2719.138, 7.3458329E-02
2721.066, 7.3495299E-02
2722.995, 7.3908113E-02
2724.923, 7.3878840E-02
2726.852, 7.4157067E-02
2728.780, 7.4340463E-02
2730.709, 7.4337393E-02
2732.637, 7.3956609E-02
2734.566, 7.3519498E-02
2736.494, 7.4009493E-02
2738.423, 7.4721523E-02
2740.351, 7.3925316E-02
2742.280, 7.3149383E-02
2744.208, 7.3377497E-02
2746.136, 7.3882148E-02
2748.065, 7.4221447E-02
2749.993, 7.4317411E-02
2751.922, 7.4521363E-02
2753.850, 7.5025767E-02
2755.779, 7.4795566E-02
2757.707, 7.4271843E-02
2759.636, 7.3808037E-02
2761.564, 7.4234948E-02
2763.493, 7.4217297E-02
2765.421, 7.3746227E-02
2767.350, 7.3871464E-02
2769.278, 7.4290954E-02
2771.207, 7.3967427E-02
2773.135, 7.3620766E-02
2775.063, 7.4164324E-02
2776.992, 7.4479103E-02
2778.920, 7.4070290E-02
2780.849, 7.4046493E-02
2782.777, 7.3851183E-02
2784.706, 7.3743567E-02
2786.634, 7.4268773E-02
2788.563, 7.4132279E-02
2790.491, 7.4084103E-02
2792.420, 7.4213699E-02
2794.348, 7.4145690E-02
2796.277, 7.4405298E-02
2798.205, 7.4690111E-02
2800.134, 7.4501231E-02
2802.062, 7.4396059E-02
2803.990, 7.4286833E-02
2805.919, 7.4245870E-02
2807.847, 7.4753173E-02
2809.776, 7.5029850E-02
2811.704, 7.4617207E-02
2813.633, 7.4451260E-02
2815.561, 7.3787488E-02
2817.490, 7.3826797E-02
2819.418, 7.4384913E-02
2821.347, 7.4358381E-02
2823.275, 7.4510992E-02
2825.204, 7.4904338E-02
2827.132, 7.4515574E-02
2829.061, 7.4211158E-02
2830.989, 7.4838169E-02
2832.917, 7.5019792E-02
2834.846, 7.4380338E-02
2836.774, 7.4249484E-02
2838.703, 7.4572012E-02
2840.631, 7.3757097E-02
2842.560, 7.3407710E-02
2844.488, 7.3514223E-02
2846.417, 7.3246822E-02
2848.345, 7.3639683E-02
2850.274, 7.4099667E-02
2852.202, 7.4159592E-02
2854.131, 7.3569886E-02
2856.059, 7.2917148E-02
2857.988, 7.3814057E-02
2859.916, 7.4632138E-02
2861.844, 7.4462198E-02
2863.773, 7.4271679E-02
2865.701, 7.4239157E-02
2867.630, 7.3995478E-02
2869.558, 7.3462076E-02
2871.487, 7.3482759E-02
2873.415, 7.4115232E-02
2875.344, 7.4410647E-02
2877.272, 7.4497983E-02
2879.201, 7.4389704E-02
2881.129, 7.4508987E-02
2883.058, 7.4161567E-02
2884.986, 7.3970430E-02
2886.915, 7.3675863E-02
2888.843, 7.4026257E-02
2890.771, 7.4366540E-02
2892.700, 7.4302658E-02
2894.628, 7.4038573E-02
2896.557, 7.4123129E-02
2898.485, 7.4757740E-02
2900.414, 7.4612238E-02
2902.342, 7.3732957E-02
2904.271, 7.3665783E-02
2906.199, 7.3739022E-02
2908.128, 7.4248843E-02
2910.056, 7.4627139E-02
2911.985, 7.4228473E-02
2913.913, 7.4085847E-02
2915.842, 7.3672988E-02
2917.770, 7.4059203E-02
2919.698, 7.5255767E-02
2921.627, 7.4658833E-02
2923.555, 7.3638871E-02
2925.484, 7.4100003E-02
2927.412, 7.4060790E-02
2929.341, 7.4272446E-02
2931.269, 7.4412607E-02
2933.198, 7.4658759E-02
2935.126, 7.4806951E-02
2937.055, 7.3783882E-02
2938.983, 7.3453411E-02
2940.912, 7.4230641E-02
2942.840, 7.4437648E-02
2944.769, 7.3853187E-02
2946.697, 7.3118702E-02
2948.625, 7.3212206E-02
2950.554, 7.3650166E-02
2952.482, 7.3638909E-02
2954.411, 7.3397681E-02
2956.339, 7.4575387E-02
2958.268, 7.5361863E-02
2960.196, 7.4737243E-02
2962.125, 7.4757650E-02
2964.053, 7.4964076E-02
2965.982, 7.4450471E-02
2967.910, 7.4735783E-02
2969.839, 7.5091399E-02
2971.767, 7.4516997E-02
2973.696, 7.3643297E-02
2975.624, 7.3820993E-02
2977.552, 7.4102461E-02
2979.481, 7.4247263E-02
2981.409, 7.4393332E-02
2983.338, 7.5000077E-02
2985.266, 7.5388826E-02
2987.195, 7.5083703E-02
2989.123, 7.4771740E-02
2991.052, 7.4857347E-02
2992.980, 7.4937947E-02
2994.909, 7.4486993E-02
2996.837, 7.4554920E-02
2998.766, 7.5454153E-02
3000.694, 7.6406278E-02
3002.623, 7.6569043E-02
3004.551, 7.7011131E-02
3006.479, 7.6643497E-02
3008.408, 7.5599208E-02
3010.336, 7.5316757E-02
3012.265, 7.5181119E-02
3014.193, 7.5302526E-02
3016.122, 7.5414442E-02
3018.050, 7.5887486E-02
3019.979, 7.6466732E-02
3021.907, 7.6851808E-02
3023.836, 7.6505937E-02
3025.764, 7.6158807E-02
3027.693, 7.5717203E-02
3029.621, 7.5684763E-02
3031.550, 7.4699961E-02
3033.478, 7.4613407E-02
3035.406, 7.5690173E-02
3037.335, 7.5529709E-02
3039.263, 7.5223468E-02
3041.192, 7.5572513E-02
3043.120, 7.5724207E-02
3045.049, 7.5350083E-02
3046.977, 7.5312823E-02
3048.906, 7.5457580E-02
3050.834, 7.5607233E-02
3052.763, 7.5967163E-02
3054.691, 7.6065153E-02
3056.620, 7.6219030E-02
3058.548, 7.5479940E-02
3060.477, 7.4930809E-02
3062.405, 7.5134642E-02
3064.333, 7.4713752E-02
3066.262, 7.5021803E-02
3068.190, 7.5511530E-02
3070.119, 7.4516252E-02
3072.047, 7.3767282E-02
3073.976, 7.4336573E-02
3075.904, 7.5140573E-02
3077.833, 7.6123923E-02
3079.761, 7.6047972E-02
3081.690, 7.5690128E-02
3083.618, 7.5583339E-02
3085.547, 7.6034933E-02
3087.475, 7.6543838E-02
3089.404, 7.6314583E-02
3091.332, 7.5850517E-02
3093.260, 7.6012284E-02
3095.189, 7.5736448E-02
3097.117, 7.5616866E-02
3099.046, 7.5677983E-02
3100.974, 7.5879604E-02
3102.903, 7.7033646E-02
3104.831, 7.6746479E-02
3106.760, 7.5910471E-02
3108.688, 7.5821802E-02
3110.617, 7.6528206E-02
3112.545, 7.7769756E-02
3114.474, 7.7140510E-02
3116.402, 7.6230027E-02
3118.331, 7.5901419E-02
3120.259, 7.5799502E-02
3122.188, 7.5679816E-02
3124.116, 7.5521842E-02
3126.044, 7.6612912E-02
3127.973, 7.6904051E-02
3129.901, 7.6081447E-02
3131.830, 7.6565623E-02
3133.758, 7.6719463E-02
3135.687, 7.6418027E-02
3137.615, 7.6343790E-02
3139.544, 7.6127984E-02
3141.472, 7.5994328E-02
3143.401, 7.6012768E-02
3145.329, 7.6149650E-02
3147.258, 7.6587990E-02
3149.186, 7.6077409E-02
3151.115, 7.5508311E-02
3153.043, 7.5719997E-02
3154.971, 7.6166950E-02
3156.900, 7.6737858E-02
3158.828, 7.6654360E-02
3160.757, 7.6296441E-02
3162.685, 7.5868927E-02
3164.614, 7.5728923E-02
3166.542, 7.5903699E-02
3168.471, 7.6082893E-02
3170.399, 7.6280728E-02
3172.328, 7.6584160E-02
3174.256, 7.6653093E-02
3176.185, 7.6375961E-02
3178.113, 7.6287962E-02
3180.042, 7.5700827E-02
3181.970, 7.5680248E-02
3183.898, 7.6271333E-02
3185.827, 7.6456599E-02
3187.755, 7.6061100E-02
3189.684, 7.5718738E-02
3191.612, 7.5621963E-02
3193.541, 7.5700283E-02
3195.469, 7.5811721E-02
3197.398, 7.6231673E-02
3199.326, 7.6147214E-02
3201.255, 7.6254621E-02
3203.183, 7.6152541E-02
3205.112, 7.6111667E-02
3207.040, 7.6482162E-02
3208.969, 7.6668672E-02
3210.897, 7.6640211E-02
3212.825, 7.6361187E-02
3214.754, 7.6308928E-02
3216.682, 7.6587997E-02
3218.611, 7.6150760E-02
3220.539, 7.6115742E-02
3222.468, 7.6239809E-02
3224.396, 7.5927690E-02
3226.325, 7.6008327E-02
3228.253, 7.6413527E-02
3230.182, 7.6560490E-02
3232.110, 7.6146811E-02
3234.039, 7.6250829E-02
3235.967, 7.6431043E-02
3237.896, 7.6155663E-02
3239.824, 7.6002844E-02
3241.752, 7.5724661E-02
3243.681, 7.5969011E-02
3245.609, 7.6429851E-02
3247.538, 7.6187797E-02
3249.466, 7.6081589E-02
3251.395, 7.6733828E-02
3253.323, 7.7133298E-02
3255.252, 7.6330371E-02
3257.180, 7.6235227E-02
3259.109, 7.6957032E-02
3261.037, 7.6756321E-02
3262.966, 7.6703697E-02
3264.894, 7.6744176E-02
3266.823, 7.6437831E-02
3268.751, 7.6039784E-02
3270.679, 7.6059520E-02
3272.608, 7.6083884E-02
3274.536, 7.5924262E-02
3276.465, 7.5854383E-02
3278.393, 7.5844750E-02
3280.322, 7.6503262E-02
3282.250, 7.7501103E-02
3284.179, 7.7666998E-02
3286.107, 7.7324443E-02
3288.036, 7.7141881E-02
3289.964, 7.6902322E-02
3291.893, 7.6633677E-02
3293.821, 7.6150328E-02
3295.750, 7.5954877E-02
3297.678, 7.6217256E-02
3299.606, 7.6846048E-02
3301.535, 7.7055193E-02
3303.463, 7.6533496E-02
3305.392, 7.6499753E-02
3307.320, 7.6951772E-02
3309.249, 7.7080794E-02
3311.177, 7.6890022E-02
3313.106, 7.7060327E-02
3315.034, 7.7059619E-02
3316.963, 7.7025123E-02
3318.891, 7.7029273E-02
3320.820, 7.6492563E-02
3322.748, 7.6542072E-02
3324.677, 7.6912887E-02
3326.605, 7.6867007E-02
3328.533, 7.7084862E-02
3330.462, 7.7177033E-02
3332.390, 7.6409459E-02
3334.319, 7.6270454E-02
3336.247, 7.6780088E-02
3338.176, 7.7276498E-02
3340.104, 7.7229433E-02
3342.033, 7.6375842E-02
3343.961, 7.6167233E-02
3345.890, 7.6230131E-02
3347.818, 7.6472603E-02
3349.747, 7.6192260E-02
3351.675, 7.5844750E-02
3353.604, 7.5828098E-02
3355.532, 7.6026559E-02
3357.460, 7.6366991E-02
3359.389, 7.6733626E-02
3361.317, 7.6832287E-02
3363.246, 7.6437794E-02
3365.174, 7.5958788E-02
3367.103, 7.6498277E-02
3369.031, 7.7272378E-02
3370.960, 7.7308923E-02
3372.888, 7.6754257E-02
3374.817, 7.6764271E-02
3376.745, 7.7286556E-02
3378.674, 7.7080943E-02
3380.602, 7.6705746E-02
3382.531, 7.6384649E-02
3384.459, 7.6557077E-02
3386.387, 7.7317551E-02
3388.316, 7.7677339E-02
3390.244, 7.7920891E-02
3392.173, 7.8033701E-02
3394.101, 7.7641293E-02
3396.030, 7.7425838E-02
3397.958, 7.6993942E-02
3399.887, 7.7261813E-02
3401.815, 7.7417329E-02
3403.744, 7.7156924E-02
3405.672, 7.6747149E-02
3407.601, 7.7386484E-02
3409.529, 7.7941157E-02
3411.458, 7.7835903E-02
3413.386, 7.7493250E-02
3415.314, 7.7188939E-02
3417.243, 7.7110536E-02
3419.171, 7.7656418E-02
3421.100, 7.7813432E-02
3423.028, 7.8027546E-02
3424.957, 7.7969901E-02
3426.885, 7.7874199E-02
3428.814, 7.7822313E-02
3430.742, 7.7293172E-02
3432.671, 7.7005692E-02
3434.599, 7.7017993E-02
3436.528, 7.7402323E-02
3438.456, 7.7602193E-02
3440.385, 7.7961177E-02
3442.313, 7.8218773E-02
3444.241, 7.7484973E-02
3446.170, 7.6734141E-02
3448.098, 7.6668158E-02
3450.027, 7.7211186E-02
3451.955, 7.7689819E-02
3453.884, 7.7173151E-02
3455.812, 7.7105358E-02
3457.741, 7.7576749E-02
3459.669, 7.6904073E-02
3461.598, 7.6989233E-02
3463.526, 7.7673063E-02
3465.455, 7.7775858E-02
3467.383, 7.7514358E-02
3469.312, 7.7402093E-02
3471.240, 7.7274159E-02
3473.168, 7.7421963E-02
3475.097, 7.7169754E-02
3477.025, 7.6983258E-02
3478.954, 7.6975778E-02
3480.882, 7.7455781E-02
3482.811, 7.8531243E-02
3484.739, 7.8601390E-02
3486.668, 7.8711353E-02
3488.596, 7.8930929E-02
3490.525, 7.8909673E-02
3492.453, 7.8002773E-02
3494.382, 7.6592341E-02
3496.310, 7.6549262E-02
3498.239, 7.7242531E-02
3500.167, 7.7611692E-02
3502.095, 7.7830873E-02
3504.024, 7.8211360E-02
3505.952, 7.8010187E-02
3507.881, 7.7789329E-02
3509.809, 7.8270391E-02
3511.738, 7.8569867E-02
3513.666, 7.7871419E-02
3515.595, 7.7412806E-02
3517.523, 7.7129342E-02
3519.452, 7.7482827E-02
3521.380, 7.7394642E-02
3523.309, 7.7905633E-02
3525.237, 7.8693323E-02
3527.166, 7.8123689E-02
3529.094, 7.8003369E-02
3531.022, 7.8165419E-02
3532.951, 7.8247778E-02
3534.879, 7.7483431E-02
3536.808, 7.6545857E-02
3538.736, 7.7319212E-02
3540.665, 7.7523589E-02
3542.593, 7.7008776E-02
3544.522, 7.7399112E-02
3546.450, 7.8273132E-02
3548.379, 7.8237742E-02
3550.307, 7.7713117E-02
3552.236, 7.7709563E-02
3554.164, 7.8220516E-02
3556.093, 7.8439303E-02
3558.021, 7.8633912E-02
3559.949, 7.8415200E-02
3561.878, 7.8407273E-02
3563.806, 7.8268923E-02
3565.735, 7.8141257E-02
3567.663, 7.8292891E-02
3569.592, 7.7996783E-02
3571.520, 7.8052342E-02
3573.449, 7.8233503E-02
3575.377, 7.8062728E-02
3577.306, 7.7278949E-02
3579.234, 7.7551603E-02
3581.163, 7.7717319E-02
3583.091, 7.7853583E-02
3585.020, 7.8340083E-02
3586.948, 7.8478187E-02
3588.876, 7.7906817E-02
3590.805, 7.7322617E-02
3592.733, 7.7664740E-02
3594.662, 7.7871583E-02
3596.590, 7.7605084E-02
3598.519, 7.7912211E-02
3600.447, 7.8073397E-02
3602.376, 7.8328483E-02
3604.304, 7.8525081E-02
3606.233, 7.8756563E-02
3608.161, 7.7866308E-02
3610.090, 7.6738611E-02
3612.018, 7.7561818E-02
3613.947, 7.8300469E-02
3615.875, 7.7465013E-02
3617.803, 7.7200182E-02
3619.732, 7.7885292E-02
3621.660, 7.8019269E-02
3623.589, 7.8146540E-02
3625.517, 7.8547791E-02
3627.446, 7.9158969E-02
3629.374, 7.8933671E-02
3631.303, 7.8398131E-02
3633.231, 7.8667983E-02
3635.160, 7.9072744E-02
3637.088, 7.9311788E-02
3639.017, 7.8453697E-02
3640.945, 7.8471683E-02
3642.874, 7.8969039E-02
3644.802, 7.8562200E-02
3646.730, 7.8120559E-02
3648.659, 7.8206956E-02
3650.587, 7.8700513E-02
3652.516, 7.8636207E-02
3654.444, 7.7853702E-02
3656.373, 7.7190563E-02
3658.301, 7.7460341E-02
3660.230, 7.8868426E-02
3662.158, 7.9971917E-02
3664.087, 7.8760333E-02
3666.015, 7.7219538E-02
3667.944, 7.7069066E-02
3669.872, 7.8054093E-02
3671.801, 7.8031562E-02
3673.729, 7.9181708E-02
3675.657, 8.0509476E-02
3677.586, 7.9694770E-02
3679.514, 7.9737402E-02
3681.443, 7.9615884E-02
3683.371, 7.9248197E-02
3685.300, 7.9464503E-02
3687.228, 7.8882731E-02
3689.157, 7.8531630E-02
3691.085, 7.8970186E-02
3693.014, 7.9520687E-02
3694.942, 8.0119491E-02
3696.871, 7.9751380E-02
3698.799, 7.8410320E-02
3700.728, 7.8169137E-02
3702.656, 7.9063676E-02
3704.584, 7.9391502E-02
3706.513, 7.9212807E-02
3708.441, 7.9937987E-02
3710.370, 7.9638317E-02
3712.298, 7.8685820E-02
3714.227, 7.8997061E-02
3716.155, 7.9336450E-02
3718.084, 7.9423800E-02
3720.012, 8.0239400E-02
3721.941, 8.0596201E-02
3723.869, 7.9891108E-02
3725.798, 7.9790317E-02
3727.726, 7.9494461E-02
3729.655, 7.9690233E-02
3731.583, 7.9595983E-02
3733.511, 7.9807959E-02
3735.440, 7.9414487E-02
3737.368, 7.9077467E-02
3739.297, 7.8774467E-02
3741.225, 7.8876063E-02
3743.154, 7.9258017E-02
3745.082, 7.9176739E-02
3747.011, 7.9400837E-02
3748.939, 7.9239413E-02
3750.868, 7.9150736E-02
3752.796, 7.8792863E-02
3754.725, 7.9734422E-02
3756.653, 8.0430083E-02
3758.582, 7.9817027E-02
3760.510, 7.9382509E-02
3762.438, 7.9608187E-02
3764.367, 7.9829060E-02
3766.295, 7.9239853E-02
3768.224, 7.8911863E-02
3770.152, 7.9733267E-02
3772.081, 7.9824880E-02
3774.009, 7.8439452E-02
3775.938, 7.8203343E-02
3777.866, 7.9431318E-02
3779.795, 8.0040239E-02
3781.723, 7.9536922E-02
3783.652, 7.9312503E-02
3785.580, 7.9191051E-02
3787.509, 7.9582483E-02
3789.437, 8.0456682E-02
3791.365, 8.0438621E-02
3793.294, 8.0441490E-02
3795.222, 8.0103546E-02
3797.151, 8.0772191E-02
3799.079, 8.1022799E-02
3801.008, 8.0174923E-02
3802.936, 7.9728171E-02
3804.865, 8.0023468E-02
3806.793, 7.9576723E-02
3808.722, 7.9682633E-02
3810.650, 8.0067366E-02
3812.579, 8.0155067E-02
3814.507, 7.9840332E-02
3816.436, 7.9935633E-02
3818.364, 8.0561019E-02
3820.292, 8.0102831E-02
3822.221, 7.9175867E-02
3824.149, 7.8757308E-02
3826.078, 7.9095706E-02
3828.006, 8.0313228E-02
3829.935, 8.1210591E-02
3831.863, 8.0722228E-02
3833.792, 7.9419672E-02
3835.720, 7.9216257E-02
3837.649, 8.0257103E-02
3839.577, 8.0377847E-02
3841.506, 8.0137059E-02
3843.434, 8.0473870E-02
3845.363, 8.1089333E-02
3847.291, 8.0497563E-02
3849.219, 8.0045022E-02
3851.148, 8.0348738E-02
3853.076, 8.0055542E-02
3855.005, 7.9479977E-02
3856.933, 7.9149313E-02
3858.862, 7.9235829E-02
3860.790, 8.0153242E-02
3862.719, 8.1021719E-02
3864.647, 8.0407083E-02
3866.576, 7.9981282E-02
3868.504, 8.0384083E-02
3870.433, 8.1092797E-02
3872.361, 8.0895677E-02
3874.290, 7.9960957E-02
3876.218, 8.0024593E-02
3878.146, 8.0571428E-02
3880.075, 8.0175161E-02
3882.003, 7.9815842E-02
3883.932, 8.0134027E-02
3885.860, 7.9438083E-02
3887.789, 7.9787612E-02
3889.717, 8.0595084E-02
3891.646, 8.0542348E-02
3893.574, 8.0208637E-02
3895.503, 8.0458760E-02
3897.431, 8.0492623E-02
3899.360, 8.0548972E-02
3901.288, 8.0352657E-02
3903.217, 7.9475202E-02
3905.145, 7.8790322E-02
3907.073, 7.8449734E-02
3909.002, 7.9393171E-02
3910.930, 7.9561234E-02
3912.859, 7.9812847E-02
3914.787, 8.0245741E-02
3916.716, 8.0581158E-02
3918.644, 8.0607608E-02
3920.573, 8.0285959E-02
3922.501, 8.0442533E-02
3924.430, 8.0606729E-02
3926.358, 8.0318213E-02
3928.287, 7.9650983E-02
3930.215, 7.9266883E-02
3932.144, 8.0207244E-02
3934.072, 8.0565959E-02
3936.000, 8.0275923E-02
3937.929, 7.9950809E-02
3939.857, 8.0057926E-02
3941.786, 8.1187584E-02
3943.714, 8.1684619E-02
3945.643, 8.1400059E-02
3947.571, 8.1372842E-02
3949.500, 8.0781527E-02
3951.428, 7.9658657E-02
3953.357, 7.9161391E-02
3955.285, 8.0037452E-02
3957.214, 7.9685412E-02
3959.142, 7.9768978E-02
3961.071, 7.9467088E-02
3962.999, 7.8620933E-02
3964.927, 7.8687958E-02
3966.856, 8.0236889E-02
3968.784, 8.1060492E-02
3970.713, 7.9878919E-02
3972.641, 7.9393767E-02
3974.570, 7.9324119E-02
3976.498, 7.9095677E-02
3978.427, 7.9965703E-02
3980.355, 8.1621163E-02
3982.284, 8.1903674E-02
3984.212, 8.1162333E-02
3986.141, 8.1022158E-02
3988.069, 8.0987260E-02
3989.998, 8.0409668E-02
3991.926, 8.0497801E-02
3993.854, 8.1157580E-02
3995.783, 8.0980547E-02
3997.711, 8.0117904E-02
3999.640, 8.0117904E-02
##END=



