##NAMES=Montebrasite
##RRUFFID=R050500
##IDEAL CHEMISTRY=LiAlPO_4_(OH)
##LOCALITY=Pala, San Diego County, California, USA
##OWNER=RRUFF
##SOURCE=California Institute of Technology
##DESCRIPTION=White fragment
##STATUS=The identification of this mineral has been confirmed by X-ray diffraction and chemical analysis
##URL=rruff.info/R050500
##MEASURED CHEMISTRY=LiAl(PO_4_)((OH)_0.52_F_0.48_)
3.953357e+002, 7.950097e-002
3.972641e+002, 7.856029e-002
3.991926e+002, 7.994998e-002
4.011211e+002, 8.342525e-002
4.030495e+002, 8.576703e-002
4.049780e+002, 8.519650e-002
4.069065e+002, 8.270854e-002
4.088349e+002, 8.092635e-002
4.107634e+002, 8.256242e-002
4.126919e+002, 8.491064e-002
4.146203e+002, 8.363502e-002
4.165488e+002, 8.069177e-002
4.184773e+002, 7.837918e-002
4.204057e+002, 7.629315e-002
4.223342e+002, 7.394232e-002
4.242627e+002, 7.163657e-002
4.261911e+002, 7.026969e-002
4.281196e+002, 6.988567e-002
4.300481e+002, 6.838871e-002
4.319765e+002, 6.711093e-002
4.339050e+002, 6.616981e-002
4.358335e+002, 6.514725e-002
4.377619e+002, 6.453640e-002
4.396904e+002, 6.475276e-002
4.416189e+002, 6.524783e-002
4.435473e+002, 6.631128e-002
4.454758e+002, 6.786721e-002
4.474043e+002, 6.961342e-002
4.493327e+002, 7.097816e-002
4.512612e+002, 7.184307e-002
4.531897e+002, 7.330804e-002
4.551181e+002, 7.523888e-002
4.570466e+002, 7.661633e-002
4.589751e+002, 7.788722e-002
4.609035e+002, 7.916225e-002
4.628320e+002, 8.092262e-002
4.647605e+002, 8.209480e-002
4.666889e+002, 8.335498e-002
4.686174e+002, 8.418677e-002
4.705459e+002, 8.492290e-002
4.724743e+002, 8.579793e-002
4.744028e+002, 8.563875e-002
4.763313e+002, 8.554086e-002
4.782597e+002, 8.587628e-002
4.801882e+002, 8.595236e-002
4.821167e+002, 8.569729e-002
4.840451e+002, 8.534883e-002
4.859736e+002, 8.445080e-002
4.879021e+002, 8.345811e-002
4.898305e+002, 8.270955e-002
4.917590e+002, 8.203351e-002
4.936875e+002, 8.072920e-002
4.956159e+002, 7.858847e-002
4.975444e+002, 7.660515e-002
4.994729e+002, 7.508488e-002
5.014013e+002, 7.372142e-002
5.033298e+002, 7.231407e-002
5.052583e+002, 7.113340e-002
5.071867e+002, 6.987109e-002
5.091152e+002, 6.835657e-002
5.110437e+002, 6.728273e-002
5.129721e+002, 6.648475e-002
5.149006e+002, 6.523655e-002
5.168290e+002, 6.420744e-002
5.187575e+002, 6.361543e-002
5.206860e+002, 6.254607e-002
5.226144e+002, 6.213415e-002
5.245429e+002, 6.319859e-002
5.264714e+002, 6.389660e-002
5.283998e+002, 6.457694e-002
5.303283e+002, 6.559265e-002
5.322568e+002, 6.596832e-002
5.341852e+002, 6.556563e-002
5.361137e+002, 6.527570e-002
5.380422e+002, 6.498426e-002
5.399706e+002, 6.409096e-002
5.418991e+002, 6.286757e-002
5.438276e+002, 6.152172e-002
5.457560e+002, 6.017990e-002
5.476845e+002, 5.900834e-002
5.496130e+002, 5.769031e-002
5.515414e+002, 5.606237e-002
5.534699e+002, 5.461149e-002
5.553984e+002, 5.282276e-002
5.573268e+002, 5.110910e-002
5.592553e+002, 4.970155e-002
5.611838e+002, 4.846252e-002
5.631122e+002, 4.714385e-002
5.650407e+002, 4.562202e-002
5.669692e+002, 4.431809e-002
5.688976e+002, 4.336109e-002
5.708261e+002, 4.254812e-002
5.727546e+002, 4.189182e-002
5.746830e+002, 4.216648e-002
5.766115e+002, 4.246281e-002
5.785400e+002, 4.303738e-002
5.804684e+002, 4.416985e-002
5.823969e+002, 4.558774e-002
5.843254e+002, 4.754979e-002
5.862538e+002, 4.956379e-002
5.881823e+002, 5.111196e-002
5.901108e+002, 5.209918e-002
5.920392e+002, 5.247018e-002
5.939677e+002, 5.220766e-002
5.958962e+002, 5.152319e-002
5.978246e+002, 5.059952e-002
5.997531e+002, 4.898884e-002
6.016816e+002, 4.717492e-002
6.036100e+002, 4.578277e-002
6.055385e+002, 4.480679e-002
6.074670e+002, 4.390378e-002
6.093954e+002, 4.275576e-002
6.113239e+002, 4.180824e-002
6.132524e+002, 4.098504e-002
6.151808e+002, 4.040901e-002
6.171093e+002, 4.004337e-002
6.190378e+002, 3.975902e-002
6.209662e+002, 3.952242e-002
6.228947e+002, 3.940419e-002
6.248232e+002, 3.946690e-002
6.267516e+002, 3.969648e-002
6.286801e+002, 3.984654e-002
6.306086e+002, 4.007230e-002
6.325370e+002, 4.039456e-002
6.344655e+002, 4.050828e-002
6.363940e+002, 4.052209e-002
6.383224e+002, 4.029516e-002
6.402509e+002, 3.952689e-002
6.421794e+002, 3.838831e-002
6.441078e+002, 3.753242e-002
6.460363e+002, 3.669007e-002
6.479648e+002, 3.562373e-002
6.498932e+002, 3.455703e-002
6.518217e+002, 3.362785e-002
6.537502e+002, 3.257672e-002
6.556786e+002, 3.162007e-002
6.576071e+002, 3.061239e-002
6.595356e+002, 2.932497e-002
6.614641e+002, 2.832715e-002
6.633925e+002, 2.741257e-002
6.653210e+002, 2.627388e-002
6.672495e+002, 2.492832e-002
6.691779e+002, 2.294763e-002
6.711064e+002, 2.084533e-002
6.730349e+002, 1.910979e-002
6.749633e+002, 1.750128e-002
6.768918e+002, 1.591166e-002
6.788203e+002, 1.439756e-002
6.807487e+002, 1.299370e-002
6.826772e+002, 1.193878e-002
6.846057e+002, 1.107726e-002
6.865341e+002, 1.019837e-002
6.884626e+002, 9.410985e-003
6.903911e+002, 8.781027e-003
6.923195e+002, 8.350438e-003
6.942480e+002, 7.883264e-003
6.961765e+002, 7.510992e-003
6.981049e+002, 7.193496e-003
7.000334e+002, 6.932634e-003
7.019619e+002, 6.518080e-003
7.038903e+002, 6.192775e-003
7.058188e+002, 6.005527e-003
7.077473e+002, 5.856141e-003
7.096757e+002, 5.791883e-003
7.116042e+002, 5.732635e-003
7.135327e+002, 5.703672e-003
7.154611e+002, 5.784431e-003
7.173896e+002, 5.648721e-003
7.193181e+002, 5.308156e-003
7.212465e+002, 5.100625e-003
7.231750e+002, 5.104558e-003
7.251035e+002, 5.255480e-003
7.270319e+002, 5.121625e-003
7.289604e+002, 4.977561e-003
7.308889e+002, 4.893560e-003
7.328173e+002, 4.742148e-003
7.347458e+002, 4.729894e-003
7.366743e+002, 4.700361e-003
7.386027e+002, 4.870881e-003
7.405312e+002, 4.995180e-003
7.424597e+002, 4.897330e-003
7.443881e+002, 4.762748e-003
7.463166e+002, 4.737375e-003
7.482451e+002, 4.756740e-003
7.501735e+002, 5.002795e-003
7.521020e+002, 5.075079e-003
7.540305e+002, 5.009618e-003
7.559589e+002, 5.128599e-003
7.578874e+002, 5.089753e-003
7.598159e+002, 5.167623e-003
7.617443e+002, 5.378406e-003
7.636728e+002, 5.601303e-003
7.656013e+002, 5.811339e-003
7.675297e+002, 6.132933e-003
7.694582e+002, 6.501911e-003
7.713867e+002, 6.913324e-003
7.733151e+002, 7.164421e-003
7.752436e+002, 7.513682e-003
7.771721e+002, 8.151020e-003
7.791005e+002, 8.792196e-003
7.810290e+002, 9.448785e-003
7.829575e+002, 1.016506e-002
7.848859e+002, 1.111437e-002
7.868144e+002, 1.214429e-002
7.887429e+002, 1.317612e-002
7.906713e+002, 1.438359e-002
7.925998e+002, 1.566458e-002
7.945283e+002, 1.700595e-002
7.964567e+002, 1.868706e-002
7.983852e+002, 2.015014e-002
8.003137e+002, 2.160429e-002
8.022421e+002, 2.317288e-002
8.041706e+002, 2.468972e-002
8.060991e+002, 2.614593e-002
8.080275e+002, 2.752899e-002
8.099560e+002, 2.881519e-002
8.118845e+002, 2.983307e-002
8.138129e+002, 3.039571e-002
8.157414e+002, 3.090269e-002
8.176699e+002, 3.114413e-002
8.195983e+002, 3.101594e-002
8.215268e+002, 3.046170e-002
8.234553e+002, 2.966592e-002
8.253837e+002, 2.851565e-002
8.273122e+002, 2.710622e-002
8.292407e+002, 2.542122e-002
8.311691e+002, 2.336674e-002
8.330976e+002, 2.115420e-002
8.350261e+002, 1.895473e-002
8.369545e+002, 1.659096e-002
8.388830e+002, 1.443502e-002
8.408115e+002, 1.246779e-002
8.427399e+002, 1.073539e-002
8.446684e+002, 9.332780e-003
8.465969e+002, 8.186843e-003
8.485253e+002, 7.044744e-003
8.504538e+002, 6.288558e-003
8.523823e+002, 6.003440e-003
8.543107e+002, 5.688044e-003
8.562392e+002, 5.325143e-003
8.581677e+002, 5.252891e-003
8.600961e+002, 5.079738e-003
8.620246e+002, 4.857606e-003
8.639531e+002, 4.575056e-003
8.658815e+002, 4.461899e-003
8.678100e+002, 4.435393e-003
8.697385e+002, 4.480795e-003
8.716669e+002, 4.470013e-003
8.735954e+002, 4.524285e-003
8.755239e+002, 4.673826e-003
8.774523e+002, 4.623225e-003
8.793808e+002, 4.598971e-003
8.813093e+002, 4.754599e-003
8.832377e+002, 4.829352e-003
8.851662e+002, 4.870266e-003
8.870947e+002, 5.044995e-003
8.890231e+002, 5.181217e-003
8.909516e+002, 5.227711e-003
8.928801e+002, 5.272328e-003
8.948085e+002, 5.335780e-003
8.967370e+002, 5.507472e-003
8.986655e+002, 5.665346e-003
9.005939e+002, 5.823298e-003
9.025224e+002, 5.965379e-003
9.044509e+002, 6.014941e-003
9.063793e+002, 6.205727e-003
9.083078e+002, 6.473122e-003
9.102363e+002, 6.697376e-003
9.121647e+002, 6.854523e-003
9.140932e+002, 6.888709e-003
9.160217e+002, 7.073175e-003
9.179501e+002, 7.340340e-003
9.198786e+002, 7.475952e-003
9.218071e+002, 7.692695e-003
9.237355e+002, 7.906604e-003
9.256640e+002, 8.144570e-003
9.275925e+002, 8.538648e-003
9.295209e+002, 8.833440e-003
9.314494e+002, 9.031988e-003
9.333779e+002, 9.250282e-003
9.353063e+002, 9.631198e-003
9.372348e+002, 1.007514e-002
9.391633e+002, 1.049815e-002
9.410917e+002, 1.091290e-002
9.430202e+002, 1.131185e-002
9.449487e+002, 1.177525e-002
9.468771e+002, 1.229785e-002
9.488056e+002, 1.283329e-002
9.507341e+002, 1.346639e-002
9.526625e+002, 1.418561e-002
9.545910e+002, 1.482714e-002
9.565195e+002, 1.551048e-002
9.584479e+002, 1.632619e-002
9.603764e+002, 1.710455e-002
9.623049e+002, 1.789035e-002
9.642333e+002, 1.882350e-002
9.661618e+002, 1.978478e-002
9.680903e+002, 2.070723e-002
9.700187e+002, 2.184671e-002
9.719472e+002, 2.308590e-002
9.738757e+002, 2.441558e-002
9.758041e+002, 2.575532e-002
9.777326e+002, 2.732928e-002
9.796611e+002, 2.911667e-002
9.815895e+002, 3.105203e-002
9.835180e+002, 3.312504e-002
9.854465e+002, 3.516347e-002
9.873749e+002, 3.736152e-002
9.893034e+002, 3.996518e-002
9.912319e+002, 4.261156e-002
9.931603e+002, 4.544342e-002
9.950888e+002, 4.846496e-002
9.970173e+002, 5.151460e-002
9.989457e+002, 5.464982e-002
1.000874e+003, 5.773344e-002
1.002803e+003, 6.044322e-002
1.004731e+003, 6.309006e-002
1.006660e+003, 6.572461e-002
1.008588e+003, 6.831965e-002
1.010517e+003, 7.062865e-002
1.012445e+003, 7.254546e-002
1.014373e+003, 7.412282e-002
1.016302e+003, 7.522921e-002
1.018230e+003, 7.570891e-002
1.020159e+003, 7.567499e-002
1.022087e+003, 7.484972e-002
1.024016e+003, 7.317326e-002
1.025944e+003, 7.075236e-002
1.027873e+003, 6.788786e-002
1.029801e+003, 6.479881e-002
1.031730e+003, 6.191749e-002
1.033658e+003, 5.952804e-002
1.035587e+003, 5.812003e-002
1.037515e+003, 5.754777e-002
1.039443e+003, 5.780391e-002
1.041372e+003, 5.881192e-002
1.043300e+003, 6.040658e-002
1.045229e+003, 6.280468e-002
1.047157e+003, 6.568383e-002
1.049086e+003, 6.893533e-002
1.051014e+003, 7.263375e-002
1.052943e+003, 7.682995e-002
1.054871e+003, 8.117219e-002
1.056800e+003, 8.530054e-002
1.058728e+003, 8.918867e-002
1.060657e+003, 9.279624e-002
1.062585e+003, 9.607966e-002
1.064514e+003, 9.878150e-002
1.066442e+003, 1.011659e-001
1.068370e+003, 1.030966e-001
1.070299e+003, 1.045845e-001
1.072227e+003, 1.057359e-001
1.074156e+003, 1.066246e-001
1.076084e+003, 1.070966e-001
1.078013e+003, 1.071025e-001
1.079941e+003, 1.068066e-001
1.081870e+003, 1.062095e-001
1.083798e+003, 1.053846e-001
1.085727e+003, 1.044730e-001
1.087655e+003, 1.035014e-001
1.089584e+003, 1.024146e-001
1.091512e+003, 1.013490e-001
1.093441e+003, 1.002306e-001
1.095369e+003, 9.897013e-002
1.097297e+003, 9.769402e-002
1.099226e+003, 9.621327e-002
1.101154e+003, 9.465398e-002
1.103083e+003, 9.297928e-002
1.105011e+003, 9.134393e-002
1.106940e+003, 8.961082e-002
1.108868e+003, 8.765703e-002
1.110797e+003, 8.556135e-002
1.112725e+003, 8.355934e-002
1.114654e+003, 8.158297e-002
1.116582e+003, 7.964808e-002
1.118511e+003, 7.781417e-002
1.120439e+003, 7.604867e-002
1.122368e+003, 7.409525e-002
1.124296e+003, 7.209247e-002
1.126224e+003, 7.011245e-002
1.128153e+003, 6.805553e-002
1.130081e+003, 6.597998e-002
1.132010e+003, 6.386644e-002
1.133938e+003, 6.159701e-002
1.135867e+003, 5.934366e-002
1.137795e+003, 5.708035e-002
1.139724e+003, 5.480697e-002
1.141652e+003, 5.252779e-002
1.143581e+003, 5.035040e-002
1.145509e+003, 4.820525e-002
1.147438e+003, 4.622620e-002
1.149366e+003, 4.448291e-002
1.151295e+003, 4.280963e-002
1.153223e+003, 4.111622e-002
1.155151e+003, 3.948001e-002
1.157080e+003, 3.789568e-002
1.159008e+003, 3.646759e-002
1.160937e+003, 3.497340e-002
1.162865e+003, 3.343098e-002
1.164794e+003, 3.193087e-002
1.166722e+003, 3.055662e-002
1.168651e+003, 2.929094e-002
1.170579e+003, 2.812240e-002
1.172508e+003, 2.714514e-002
1.174436e+003, 2.618710e-002
1.176365e+003, 2.536656e-002
1.178293e+003, 2.464771e-002
1.180222e+003, 2.399122e-002
1.182150e+003, 2.355229e-002
1.184078e+003, 2.317062e-002
1.186007e+003, 2.298702e-002
1.187935e+003, 2.292021e-002
1.189864e+003, 2.276107e-002
1.191792e+003, 2.241671e-002
1.193721e+003, 2.193318e-002
1.195649e+003, 2.120923e-002
1.197578e+003, 2.022258e-002
1.199506e+003, 1.896004e-002
1.201435e+003, 1.746526e-002
1.203363e+003, 1.584463e-002
1.205292e+003, 1.427722e-002
1.207220e+003, 1.266509e-002
1.209149e+003, 1.104251e-002
1.211077e+003, 9.492626e-003
1.213005e+003, 8.063077e-003
1.214934e+003, 6.834134e-003
1.216862e+003, 5.732779e-003
1.218791e+003, 4.836162e-003
1.220719e+003, 4.080739e-003
1.222648e+003, 3.343240e-003
1.224576e+003, 2.741943e-003
1.226505e+003, 2.299879e-003
1.228433e+003, 1.955594e-003
1.230362e+003, 1.627204e-003
1.232290e+003, 1.298272e-003
1.234219e+003, 9.868569e-004
1.236147e+003, 8.850583e-004
1.238076e+003, 8.392895e-004
1.240004e+003, 8.309405e-004
1.241932e+003, 7.152965e-004
1.243861e+003, 5.210587e-004
1.245789e+003, 4.726308e-004
1.247718e+003, 3.886046e-004
1.249646e+003, 1.412936e-004
1.251575e+003, 2.083835e-005
1.253503e+003, -4.527189e-005
1.255432e+003, -2.165327e-004
1.257360e+003, -2.913427e-004
1.259289e+003, -2.843539e-004
1.261217e+003, -3.384797e-004
1.263146e+003, -3.255159e-004
1.265074e+003, -2.081033e-004
1.267003e+003, -3.174951e-004
1.268931e+003, -4.834878e-004
1.270859e+003, -4.659491e-004
1.272788e+003, -4.286296e-004
1.274716e+003, -3.926691e-004
1.276645e+003, -3.754476e-004
1.278573e+003, -4.758546e-004
1.280502e+003, -4.032587e-004
1.282430e+003, -2.065012e-004
1.284359e+003, -3.348156e-004
1.286287e+003, -5.498781e-004
1.288216e+003, -5.578905e-004
1.290144e+003, -5.883809e-004
1.292073e+003, -6.898580e-004
1.294001e+003, -7.088060e-004
1.295930e+003, -8.196993e-004
1.297858e+003, -8.646909e-004
1.299786e+003, -8.083726e-004
1.301715e+003, -7.700960e-004
1.303643e+003, -8.106352e-004
1.305572e+003, -8.363907e-004
1.307500e+003, -8.858732e-004
1.309429e+003, -8.222218e-004
1.311357e+003, -7.035186e-004
1.313286e+003, -7.183027e-004
1.315214e+003, -8.777707e-004
1.317143e+003, -8.448242e-004
1.319071e+003, -7.507203e-004
1.321000e+003, -7.698857e-004
1.322928e+003, -9.039054e-004
1.324857e+003, -1.005948e-003
1.326785e+003, -1.032093e-003
1.328714e+003, -1.137875e-003
1.330642e+003, -1.236423e-003
1.332570e+003, -1.156854e-003
1.334499e+003, -1.138158e-003
1.336427e+003, -1.087976e-003
1.338356e+003, -1.134973e-003
1.340284e+003, -1.226629e-003
1.342213e+003, -1.274913e-003
1.344141e+003, -1.295291e-003
1.346070e+003, -1.349358e-003
1.347998e+003, -1.377325e-003
1.349927e+003, -1.301482e-003
1.351855e+003, -1.285390e-003
1.353784e+003, -1.366135e-003
1.355712e+003, -1.389696e-003
1.357641e+003, -1.371085e-003
1.359569e+003, -1.281220e-003
1.361497e+003, -1.188333e-003
1.363426e+003, -1.187186e-003
1.365354e+003, -1.253526e-003
1.367283e+003, -1.391496e-003
1.369211e+003, -1.472712e-003
1.371140e+003, -1.418784e-003
1.373068e+003, -1.348893e-003
1.374997e+003, -1.438243e-003
1.376925e+003, -1.551716e-003
1.378854e+003, -1.520591e-003
1.380782e+003, -1.452815e-003
1.382711e+003, -1.445984e-003
1.384639e+003, -1.365306e-003
1.386568e+003, -1.170313e-003
1.388496e+003, -1.122540e-003
1.390424e+003, -1.310265e-003
1.392353e+003, -1.428816e-003
1.394281e+003, -1.262373e-003
1.396210e+003, -1.246674e-003
1.398138e+003, -1.310071e-003
1.400067e+003, -1.408340e-003
1.401995e+003, -1.464134e-003
1.403924e+003, -1.450285e-003
1.405852e+003, -1.412456e-003
1.407781e+003, -1.430917e-003
1.409709e+003, -1.474445e-003
1.411638e+003, -1.561709e-003
1.413566e+003, -1.545486e-003
1.415495e+003, -1.318839e-003
1.417423e+003, -1.012021e-003
1.419351e+003, -8.988309e-004
1.421280e+003, -1.278657e-003
1.423208e+003, -1.391110e-003
1.425137e+003, -1.311537e-003
1.427065e+003, -1.453245e-003
1.428994e+003, -1.482700e-003
1.430922e+003, -1.341945e-003
1.432851e+003, -1.272170e-003
1.434779e+003, -1.109239e-003
1.436708e+003, -9.407352e-004
1.438636e+003, -1.206000e-003
1.440565e+003, -1.382947e-003
1.442493e+003, -1.305009e-003
1.444422e+003, -1.277289e-003
1.446350e+003, -1.349147e-003
1.448278e+003, -1.348980e-003
1.450207e+003, -1.403087e-003
1.452135e+003, -1.479068e-003
1.454064e+003, -1.381287e-003
1.455992e+003, -7.942829e-004
1.457921e+003, -7.309741e-004
1.459849e+003, -1.223867e-003
1.461778e+003, -1.483755e-003
1.463706e+003, -1.358354e-003
1.465635e+003, -1.293071e-003
1.467563e+003, -1.303745e-003
1.469492e+003, -1.226054e-003
1.471420e+003, -1.012017e-003
1.473349e+003, -9.934076e-004
1.475277e+003, -1.144267e-003
1.477205e+003, -1.252802e-003
1.479134e+003, -1.382814e-003
1.481062e+003, -1.307288e-003
1.482991e+003, -1.186921e-003
1.484919e+003, -1.220186e-003
1.486848e+003, -1.131873e-003
1.488776e+003, -9.567792e-004
1.490705e+003, -1.181094e-003
1.492633e+003, -1.443458e-003
1.494562e+003, -1.236132e-003
1.496490e+003, -9.645807e-004
1.498419e+003, -1.066298e-003
1.500347e+003, -1.267390e-003
1.502276e+003, -1.359468e-003
1.504204e+003, -1.031028e-003
1.506132e+003, -5.172543e-004
1.508061e+003, -8.390188e-004
1.509989e+003, -1.180017e-003
1.511918e+003, -1.108753e-003
1.513846e+003, -1.161180e-003
1.515775e+003, -1.255089e-003
1.517703e+003, -1.218127e-003
1.519632e+003, -1.002919e-003
1.521560e+003, -8.780808e-004
1.523489e+003, -1.040982e-003
1.525417e+003, -1.076702e-003
1.527346e+003, -1.141152e-003
1.529274e+003, -1.296940e-003
1.531203e+003, -1.380789e-003
1.533131e+003, -1.221548e-003
1.535059e+003, -1.266333e-003
1.536988e+003, -1.207727e-003
1.538916e+003, -7.011843e-004
1.540845e+003, -6.594630e-004
1.542773e+003, -9.718193e-004
1.544702e+003, -1.162080e-003
1.546630e+003, -1.316208e-003
1.548559e+003, -1.252754e-003
1.550487e+003, -1.109272e-003
1.552416e+003, -1.121317e-003
1.554344e+003, -1.062897e-003
1.556273e+003, -6.935729e-004
1.558201e+003, -1.525037e-004
1.560130e+003, -2.945326e-004
1.562058e+003, -9.685308e-004
1.563986e+003, -1.175162e-003
1.565915e+003, -1.147744e-003
1.567843e+003, -1.108533e-003
1.569772e+003, -1.074048e-003
1.571700e+003, -1.146890e-003
1.573629e+003, -1.062813e-003
1.575557e+003, -6.834464e-004
1.577486e+003, -6.528824e-004
1.579414e+003, -9.843141e-004
1.581343e+003, -1.012441e-003
1.583271e+003, -1.018162e-003
1.585200e+003, -1.111418e-003
1.587128e+003, -1.204675e-003
1.589057e+003, -1.233510e-003
1.590985e+003, -9.645175e-004
1.592913e+003, -7.850758e-004
1.594842e+003, -8.397363e-004
1.596770e+003, -9.842356e-004
1.598699e+003, -1.069713e-003
1.600627e+003, -9.491806e-004
1.602556e+003, -8.279704e-004
1.604484e+003, -7.683037e-004
1.606413e+003, -7.002971e-004
1.608341e+003, -8.090175e-004
1.610270e+003, -8.149745e-004
1.612198e+003, -7.939452e-004
1.614127e+003, -5.970266e-004
1.616055e+003, -2.569558e-004
1.617984e+003, -3.838600e-004
1.619912e+003, -7.313378e-004
1.621840e+003, -7.768997e-004
1.623769e+003, -7.279256e-004
1.625697e+003, -7.347387e-004
1.627626e+003, -7.618836e-004
1.629554e+003, -8.495370e-004
1.631483e+003, -9.732301e-004
1.633411e+003, -8.283075e-004
1.635340e+003, -5.459875e-004
1.637268e+003, -7.705522e-004
1.639197e+003, -1.053008e-003
1.641125e+003, -1.162432e-003
1.643054e+003, -9.730360e-004
1.644982e+003, -5.660849e-004
1.646911e+003, -6.598438e-004
1.648839e+003, -9.606149e-004
1.650767e+003, -6.424275e-004
1.652696e+003, 8.486815e-005
1.654624e+003, -3.934646e-004
1.656553e+003, -1.045689e-003
1.658481e+003, -1.166488e-003
1.660410e+003, -1.058889e-003
1.662338e+003, -1.111952e-003
1.664267e+003, -1.234881e-003
1.666195e+003, -1.142255e-003
1.668124e+003, -8.869074e-004
1.670052e+003, -9.277497e-004
1.671981e+003, -1.150788e-003
1.673909e+003, -1.023106e-003
1.675838e+003, -1.022203e-003
1.677766e+003, -1.378985e-003
1.679694e+003, -1.294823e-003
1.681623e+003, -1.102706e-003
1.683551e+003, -6.622900e-004
1.685480e+003, -6.406431e-004
1.687408e+003, -1.055548e-003
1.689337e+003, -1.173586e-003
1.691265e+003, -1.162026e-003
1.693194e+003, -9.840556e-004
1.695122e+003, -7.144671e-004
1.697051e+003, -9.457526e-004
1.698979e+003, -7.311555e-004
1.700908e+003, -5.469232e-004
1.702836e+003, -1.156888e-003
1.704765e+003, -1.210894e-003
1.706693e+003, -1.120821e-003
1.708621e+003, -1.211935e-003
1.710550e+003, -1.316019e-003
1.712478e+003, -1.196702e-003
1.714407e+003, -1.024339e-003
1.716335e+003, -6.333312e-004
1.718264e+003, -6.691613e-004
1.720192e+003, -1.104412e-003
1.722121e+003, -1.205439e-003
1.724049e+003, -1.261046e-003
1.725978e+003, -1.361867e-003
1.727906e+003, -1.369468e-003
1.729835e+003, -1.398535e-003
1.731763e+003, -1.153114e-003
1.733692e+003, -8.524969e-004
1.735620e+003, -1.212575e-003
1.737548e+003, -1.497383e-003
1.739477e+003, -1.314401e-003
1.741405e+003, -1.128025e-003
1.743334e+003, -1.134716e-003
1.745262e+003, -1.298455e-003
1.747191e+003, -1.404794e-003
1.749119e+003, -1.345572e-003
1.751048e+003, -1.272650e-003
1.752976e+003, -1.444644e-003
1.754905e+003, -1.524946e-003
1.756833e+003, -1.174568e-003
1.758762e+003, -1.351108e-003
1.760690e+003, -1.478502e-003
1.762619e+003, -1.278383e-003
1.764547e+003, -1.216059e-003
1.766475e+003, -1.259246e-003
1.768404e+003, -1.264675e-003
1.770332e+003, -1.419779e-003
1.772261e+003, -1.369118e-003
1.774189e+003, -1.512855e-003
1.776118e+003, -1.623586e-003
1.778046e+003, -1.542586e-003
1.779975e+003, -1.431729e-003
1.781903e+003, -1.471956e-003
1.783832e+003, -1.446133e-003
1.785760e+003, -1.537005e-003
1.787689e+003, -1.621802e-003
1.789617e+003, -1.613923e-003
1.791546e+003, -1.311434e-003
1.793474e+003, -1.209037e-003
1.795402e+003, -1.370528e-003
1.797331e+003, -1.660106e-003
1.799259e+003, -1.686650e-003
1.801188e+003, -1.523686e-003
1.803116e+003, -1.583289e-003
1.805045e+003, -1.669450e-003
1.806973e+003, -1.680270e-003
1.808902e+003, -1.667306e-003
1.810830e+003, -1.581320e-003
1.812759e+003, -1.688691e-003
1.814687e+003, -1.798740e-003
1.816616e+003, -1.825348e-003
1.818544e+003, -1.708803e-003
1.820473e+003, -1.694498e-003
1.822401e+003, -1.692511e-003
1.824329e+003, -1.643406e-003
1.826258e+003, -1.867163e-003
1.828186e+003, -1.849033e-003
1.830115e+003, -1.443139e-003
1.832043e+003, -1.214449e-003
1.833972e+003, -1.464351e-003
1.835900e+003, -1.985243e-003
1.837829e+003, -1.866454e-003
1.839757e+003, -1.515007e-003
1.841686e+003, -1.521915e-003
1.843614e+003, -1.461512e-003
1.845543e+003, -1.557047e-003
1.847471e+003, -1.941904e-003
1.849400e+003, -1.794529e-003
1.851328e+003, -1.607634e-003
1.853256e+003, -1.815266e-003
1.855185e+003, -1.835635e-003
1.857113e+003, -1.828223e-003
1.859042e+003, -1.815506e-003
1.860970e+003, -1.762643e-003
1.862899e+003, -1.560714e-003
1.864827e+003, -1.511523e-003
1.866756e+003, -1.662858e-003
1.868684e+003, -1.644080e-003
1.870613e+003, -1.492372e-003
1.872541e+003, -1.369616e-003
1.874470e+003, -1.438805e-003
1.876398e+003, -1.837376e-003
1.878327e+003, -1.892310e-003
1.880255e+003, -1.740970e-003
1.882183e+003, -1.930105e-003
1.884112e+003, -2.034556e-003
1.886040e+003, -2.157422e-003
1.887969e+003, -2.104876e-003
1.889897e+003, -1.861990e-003
1.891826e+003, -1.574059e-003
1.893754e+003, -1.466768e-003
1.895683e+003, -1.427386e-003
1.897611e+003, -1.565503e-003
1.899540e+003, -1.560244e-003
1.901468e+003, -1.445472e-003
1.903397e+003, -1.567458e-003
1.905325e+003, -1.456186e-003
1.907254e+003, -1.400426e-003
1.909182e+003, -1.795970e-003
1.911110e+003, -1.869167e-003
1.913039e+003, -1.097921e-003
1.914967e+003, -7.484518e-004
1.916896e+003, -1.079182e-003
1.918824e+003, -1.483818e-003
1.920753e+003, -1.843311e-003
1.922681e+003, -1.714424e-003
1.924610e+003, -1.814711e-003
1.926538e+003, -1.631216e-003
1.928467e+003, -1.118360e-003
1.930395e+003, -1.055623e-003
1.932324e+003, -1.174162e-003
1.934252e+003, -1.604350e-003
1.936181e+003, -1.932141e-003
1.938109e+003, -1.386889e-003
1.940037e+003, -7.761823e-004
1.941966e+003, -8.884451e-004
1.943894e+003, -9.608209e-004
1.945823e+003, -7.033945e-004
1.947751e+003, -1.182951e-003
1.949680e+003, -1.951294e-003
1.951608e+003, -1.904614e-003
1.953537e+003, -1.164080e-003
1.955465e+003, -1.345401e-003
1.957394e+003, -1.408973e-003
1.959322e+003, -5.471115e-004
1.961251e+003, -2.996952e-004
1.963179e+003, -9.372139e-004
1.965108e+003, -1.198667e-003
1.967036e+003, -7.010964e-004
1.968964e+003, -4.575122e-005
1.970893e+003, -8.017314e-005
1.972821e+003, -1.040907e-004
1.974750e+003, 3.508560e-004
1.976678e+003, -1.001274e-003
1.978607e+003, -1.536908e-003
1.980535e+003, -1.088729e-003
1.982464e+003, -1.312371e-003
1.984392e+003, -7.073479e-004
1.986321e+003, -1.180496e-003
1.988249e+003, -2.317091e-003
1.990178e+003, -2.611908e-003
1.992106e+003, -1.808098e-003
1.994035e+003, -1.531770e-003
1.995963e+003, -1.822309e-003
1.997891e+003, -2.307057e-003
1.999820e+003, -2.891992e-003
2.001748e+003, -2.506279e-003
2.003677e+003, -2.152696e-003
2.005605e+003, -2.177087e-003
2.007534e+003, -1.655299e-003
2.009462e+003, -1.852697e-003
2.011391e+003, -2.336649e-003
2.013319e+003, -1.578630e-003
2.015248e+003, -1.013638e-003
2.017176e+003, -9.396388e-004
2.019105e+003, -9.162645e-004
2.021033e+003, -1.530725e-003
2.022962e+003, -2.558345e-003
2.024890e+003, -2.555018e-003
2.026818e+003, -2.565306e-003
2.028747e+003, -1.870016e-003
2.030675e+003, -1.280508e-003
2.032604e+003, -2.005008e-003
2.034532e+003, -2.839945e-003
2.036461e+003, -3.450792e-003
2.038389e+003, -3.296590e-003
2.040318e+003, -3.059279e-003
2.042246e+003, -3.347243e-003
2.044175e+003, -4.278692e-003
2.046103e+003, -4.603455e-003
2.048031e+003, -4.505233e-003
2.049960e+003, -3.757286e-003
2.051888e+003, -2.636332e-003
2.053817e+003, -2.423082e-003
2.055745e+003, -3.167527e-003
2.057674e+003, -2.697160e-003
2.059602e+003, -2.212604e-003
2.061531e+003, -2.715997e-003
2.063459e+003, -3.426549e-003
2.065388e+003, -3.816283e-003
2.067316e+003, -4.201324e-003
2.069245e+003, -3.976567e-003
2.071173e+003, -3.932719e-003
2.073102e+003, -3.846776e-003
2.075030e+003, -3.580902e-003
2.076958e+003, -3.270158e-003
2.078887e+003, -3.334830e-003
2.080815e+003, -3.018746e-003
2.082744e+003, -2.764317e-003
2.084672e+003, -2.633805e-003
2.086601e+003, -3.084064e-003
2.088529e+003, -3.361657e-003
2.090458e+003, -3.316124e-003
2.092386e+003, -3.011109e-003
2.094315e+003, -2.865597e-003
2.096243e+003, -3.119237e-003
2.098172e+003, -3.149475e-003
2.100100e+003, -3.254473e-003
2.102029e+003, -3.441798e-003
2.103957e+003, -3.185845e-003
2.105885e+003, -2.602363e-003
2.107814e+003, -2.915317e-003
2.109742e+003, -4.021465e-003
2.111671e+003, -4.178715e-003
2.113599e+003, -3.784921e-003
2.115528e+003, -3.544947e-003
2.117456e+003, -3.303435e-003
2.119385e+003, -3.341934e-003
2.121313e+003, -3.731712e-003
2.123242e+003, -3.255420e-003
2.125170e+003, -3.318499e-003
2.127099e+003, -3.748121e-003
2.129027e+003, -3.406161e-003
2.130956e+003, -2.607203e-003
2.132884e+003, -2.360212e-003
2.134813e+003, -3.060129e-003
2.136741e+003, -3.613953e-003
2.138669e+003, -3.374789e-003
2.140598e+003, -2.710393e-003
2.142526e+003, -2.096839e-003
2.144455e+003, -3.036267e-003
2.146383e+003, -3.576781e-003
2.148312e+003, -3.443650e-003
2.150240e+003, -3.922672e-003
2.152169e+003, -4.074896e-003
2.154097e+003, -3.501053e-003
2.156026e+003, -2.708179e-003
2.157954e+003, -3.018738e-003
2.159883e+003, -4.867442e-003
2.161811e+003, -6.288916e-003
2.163740e+003, -5.559424e-003
2.165668e+003, -4.225173e-003
2.167596e+003, -5.058632e-003
2.169525e+003, -5.790329e-003
2.171453e+003, -5.891002e-003
2.173382e+003, -4.662832e-003
2.175310e+003, -4.491592e-003
2.177239e+003, -5.880177e-003
2.179167e+003, -5.515474e-003
2.181096e+003, -4.206490e-003
2.183024e+003, -4.286626e-003
2.184953e+003, -5.588858e-003
2.186881e+003, -6.151918e-003
2.188810e+003, -5.010092e-003
2.190738e+003, -4.908639e-003
2.192667e+003, -5.620539e-003
2.194595e+003, -5.675309e-003
2.196523e+003, -4.832444e-003
2.198452e+003, -5.376549e-003
2.200380e+003, -5.402652e-003
2.202309e+003, -4.879417e-003
2.204237e+003, -5.145025e-003
2.206166e+003, -5.304024e-003
2.208094e+003, -5.028377e-003
2.210023e+003, -4.433827e-003
2.211951e+003, -4.199315e-003
2.213880e+003, -4.697084e-003
2.215808e+003, -4.535177e-003
2.217737e+003, -4.244359e-003
2.219665e+003, -3.372559e-003
2.221594e+003, -2.965132e-003
2.223522e+003, -3.580646e-003
2.225450e+003, -3.958091e-003
2.227379e+003, -3.729544e-003
2.229307e+003, -4.036490e-003
2.231236e+003, -4.741187e-003
2.233164e+003, -4.368233e-003
2.235093e+003, -3.522646e-003
2.237021e+003, -2.879935e-003
2.238950e+003, -2.691384e-003
2.240878e+003, -3.452793e-003
2.242807e+003, -3.918725e-003
2.244735e+003, -3.904623e-003
2.246664e+003, -4.449112e-003
2.248592e+003, -4.094941e-003
2.250521e+003, -3.619722e-003
2.252449e+003, -3.963440e-003
2.254377e+003, -4.417553e-003
2.256306e+003, -4.323579e-003
2.258234e+003, -3.760356e-003
2.260163e+003, -3.795961e-003
2.262091e+003, -4.009124e-003
2.264020e+003, -4.195819e-003
2.265948e+003, -4.554241e-003
2.267877e+003, -4.051308e-003
2.269805e+003, -3.552196e-003
2.271734e+003, -4.161420e-003
2.273662e+003, -3.853698e-003
2.275591e+003, -3.518842e-003
2.277519e+003, -3.463622e-003
2.279448e+003, -3.740228e-003
2.281376e+003, -4.096637e-003
2.283304e+003, -4.300735e-003
2.285233e+003, -4.001688e-003
2.287161e+003, -3.820134e-003
2.289090e+003, -4.142561e-003
2.291018e+003, -3.941264e-003
2.292947e+003, -3.383823e-003
2.294875e+003, -3.137336e-003
2.296804e+003, -3.442512e-003
2.298732e+003, -3.633828e-003
2.300661e+003, -3.396675e-003
2.302589e+003, -3.384805e-003
2.304518e+003, -3.609348e-003
2.306446e+003, -3.600732e-003
2.308375e+003, -3.428679e-003
2.310303e+003, -3.476999e-003
2.312231e+003, -3.618652e-003
2.314160e+003, -3.332271e-003
2.316088e+003, -3.182624e-003
2.318017e+003, -3.228905e-003
2.319945e+003, -3.222125e-003
2.321874e+003, -3.358579e-003
2.323802e+003, -3.478460e-003
2.325731e+003, -2.939365e-003
2.327659e+003, -2.491126e-003
2.329588e+003, -2.491181e-003
2.331516e+003, -2.468991e-003
2.333445e+003, -2.439321e-003
2.335373e+003, -2.289561e-003
2.337302e+003, -2.178955e-003
2.339230e+003, -2.139714e-003
2.341158e+003, -2.187139e-003
2.343087e+003, -2.217829e-003
2.345015e+003, -2.146726e-003
2.346944e+003, -2.152516e-003
2.348872e+003, -2.736573e-003
2.350801e+003, -2.730716e-003
2.352729e+003, -2.355453e-003
2.354658e+003, -1.794981e-003
2.356586e+003, -1.566430e-003
2.358515e+003, -1.843475e-003
2.360443e+003, -1.788861e-003
2.362372e+003, -1.652690e-003
2.364300e+003, -1.424880e-003
2.366229e+003, -1.160123e-003
2.368157e+003, -1.153928e-003
2.370085e+003, -1.605594e-003
2.372014e+003, -2.258732e-003
2.373942e+003, -2.455306e-003
2.375871e+003, -2.277007e-003
2.377799e+003, -2.402315e-003
2.379728e+003, -2.731297e-003
2.381656e+003, -2.791396e-003
2.383585e+003, -2.585641e-003
2.385513e+003, -2.608089e-003
2.387442e+003, -2.645648e-003
2.389370e+003, -2.546195e-003
2.391299e+003, -2.384722e-003
2.393227e+003, -2.221179e-003
2.395156e+003, -2.187756e-003
2.397084e+003, -2.620777e-003
2.399012e+003, -2.837215e-003
2.400941e+003, -2.691825e-003
2.402869e+003, -2.816850e-003
2.404798e+003, -2.785512e-003
2.406726e+003, -2.825911e-003
2.408655e+003, -2.997317e-003
2.410583e+003, -2.745672e-003
2.412512e+003, -2.657859e-003
2.414440e+003, -2.606682e-003
2.416369e+003, -2.654492e-003
2.418297e+003, -2.927190e-003
2.420226e+003, -2.790297e-003
2.422154e+003, -2.499597e-003
2.424083e+003, -2.274685e-003
2.426011e+003, -2.510403e-003
2.427939e+003, -2.496325e-003
2.429868e+003, -2.235906e-003
2.431796e+003, -2.199119e-003
2.433725e+003, -2.646525e-003
2.435653e+003, -2.891672e-003
2.437582e+003, -2.831815e-003
2.439510e+003, -2.414429e-003
2.441439e+003, -2.592076e-003
2.443367e+003, -2.867176e-003
2.445296e+003, -2.646456e-003
2.447224e+003, -3.111212e-003
2.449153e+003, -3.226086e-003
2.451081e+003, -2.386140e-003
2.453010e+003, -2.354893e-003
2.454938e+003, -2.945123e-003
2.456866e+003, -2.842267e-003
2.458795e+003, -2.395221e-003
2.460723e+003, -2.364766e-003
2.462652e+003, -2.636428e-003
2.464580e+003, -2.683834e-003
2.466509e+003, -2.225708e-003
2.468437e+003, -2.007520e-003
2.470366e+003, -2.225935e-003
2.472294e+003, -2.887610e-003
2.474223e+003, -3.136950e-003
2.476151e+003, -2.673223e-003
2.478080e+003, -2.083531e-003
2.480008e+003, -1.936417e-003
2.481937e+003, -2.353250e-003
2.483865e+003, -2.537820e-003
2.485793e+003, -2.464080e-003
2.487722e+003, -2.226695e-003
2.489650e+003, -1.967224e-003
2.491579e+003, -2.046337e-003
2.493507e+003, -2.284849e-003
2.495436e+003, -2.468663e-003
2.497364e+003, -2.405391e-003
2.499293e+003, -2.320374e-003
2.501221e+003, -2.428301e-003
2.503150e+003, -2.240118e-003
2.505078e+003, -2.007626e-003
2.507007e+003, -2.389795e-003
2.508935e+003, -2.726736e-003
2.510864e+003, -2.467690e-003
2.512792e+003, -2.222896e-003
2.514720e+003, -2.247003e-003
2.516649e+003, -2.151330e-003
2.518577e+003, -2.608323e-003
2.520506e+003, -2.912331e-003
2.522434e+003, -2.569220e-003
2.524363e+003, -2.238736e-003
2.526291e+003, -2.238575e-003
2.528220e+003, -2.576083e-003
2.530148e+003, -2.785076e-003
2.532077e+003, -2.862051e-003
2.534005e+003, -3.153393e-003
2.535934e+003, -3.191953e-003
2.537862e+003, -2.639739e-003
2.539791e+003, -2.132095e-003
2.541719e+003, -2.328319e-003
2.543647e+003, -2.640594e-003
2.545576e+003, -2.825967e-003
2.547504e+003, -2.746144e-003
2.549433e+003, -2.540466e-003
2.551361e+003, -2.506752e-003
2.553290e+003, -2.729737e-003
2.555218e+003, -2.934005e-003
2.557147e+003, -3.082280e-003
2.559075e+003, -2.749758e-003
2.561004e+003, -2.426621e-003
2.562932e+003, -2.645901e-003
2.564861e+003, -2.929198e-003
2.566789e+003, -2.979280e-003
2.568718e+003, -2.975788e-003
2.570646e+003, -3.063949e-003
2.572574e+003, -3.027357e-003
2.574503e+003, -2.860458e-003
2.576431e+003, -2.964302e-003
2.578360e+003, -2.996468e-003
2.580288e+003, -2.738673e-003
2.582217e+003, -2.742126e-003
2.584145e+003, -3.008285e-003
2.586074e+003, -2.915626e-003
2.588002e+003, -2.672867e-003
2.589931e+003, -2.710856e-003
2.591859e+003, -2.917818e-003
2.593788e+003, -2.958267e-003
2.595716e+003, -2.880731e-003
2.597645e+003, -2.952971e-003
2.599573e+003, -3.137053e-003
2.601501e+003, -2.860982e-003
2.603430e+003, -2.843354e-003
2.605358e+003, -3.063674e-003
2.607287e+003, -3.511233e-003
2.609215e+003, -3.579972e-003
2.611144e+003, -2.997266e-003
2.613072e+003, -2.912131e-003
2.615001e+003, -3.172093e-003
2.616929e+003, -2.808407e-003
2.618858e+003, -2.936537e-003
2.620786e+003, -3.371634e-003
2.622715e+003, -3.058649e-003
2.624643e+003, -2.989306e-003
2.626572e+003, -3.242883e-003
2.628500e+003, -3.356633e-003
2.630428e+003, -3.256773e-003
2.632357e+003, -3.161617e-003
2.634285e+003, -2.895864e-003
2.636214e+003, -2.884171e-003
2.638142e+003, -3.141933e-003
2.640071e+003, -3.174715e-003
2.641999e+003, -2.994699e-003
2.643928e+003, -2.804783e-003
2.645856e+003, -2.952038e-003
2.647785e+003, -3.410911e-003
2.649713e+003, -3.404507e-003
2.651642e+003, -2.982281e-003
2.653570e+003, -2.866536e-003
2.655499e+003, -3.002065e-003
2.657427e+003, -3.014297e-003
2.659355e+003, -2.814903e-003
2.661284e+003, -2.633665e-003
2.663212e+003, -2.629442e-003
2.665141e+003, -2.610337e-003
2.667069e+003, -2.523476e-003
2.668998e+003, -2.448401e-003
2.670926e+003, -2.592379e-003
2.672855e+003, -2.563893e-003
2.674783e+003, -2.494958e-003
2.676712e+003, -2.401923e-003
2.678640e+003, -2.241166e-003
2.680569e+003, -2.222785e-003
2.682497e+003, -2.374520e-003
2.684426e+003, -2.318392e-003
2.686354e+003, -2.353319e-003
2.688282e+003, -2.484289e-003
2.690211e+003, -2.512261e-003
2.692139e+003, -2.582554e-003
2.694068e+003, -2.585690e-003
2.695996e+003, -2.353154e-003
2.697925e+003, -2.183132e-003
2.699853e+003, -2.369901e-003
2.701782e+003, -2.340641e-003
2.703710e+003, -2.382582e-003
2.705639e+003, -2.500090e-003
2.707567e+003, -2.557860e-003
2.709496e+003, -2.523449e-003
2.711424e+003, -2.373952e-003
2.713353e+003, -2.347866e-003
2.715281e+003, -2.464316e-003
2.717209e+003, -2.621431e-003
2.719138e+003, -2.679790e-003
2.721066e+003, -2.632165e-003
2.722995e+003, -2.637858e-003
2.724923e+003, -2.614451e-003
2.726852e+003, -2.424765e-003
2.728780e+003, -2.391419e-003
2.730709e+003, -2.324973e-003
2.732637e+003, -2.330458e-003
2.734566e+003, -2.652752e-003
2.736494e+003, -2.698636e-003
2.738423e+003, -2.203661e-003
2.740351e+003, -1.923273e-003
2.742280e+003, -2.120953e-003
2.744208e+003, -2.212789e-003
2.746136e+003, -1.935724e-003
2.748065e+003, -1.877578e-003
2.749993e+003, -2.250872e-003
2.751922e+003, -2.188235e-003
2.753850e+003, -2.116223e-003
2.755779e+003, -2.119019e-003
2.757707e+003, -2.396693e-003
2.759636e+003, -2.347495e-003
2.761564e+003, -2.163962e-003
2.763493e+003, -2.197966e-003
2.765421e+003, -2.369266e-003
2.767350e+003, -2.364376e-003
2.769278e+003, -2.105962e-003
2.771207e+003, -1.933395e-003
2.773135e+003, -2.140898e-003
2.775063e+003, -2.136092e-003
2.776992e+003, -1.878584e-003
2.778920e+003, -1.828904e-003
2.780849e+003, -2.020275e-003
2.782777e+003, -2.068013e-003
2.784706e+003, -1.868026e-003
2.786634e+003, -1.626335e-003
2.788563e+003, -1.669019e-003
2.790491e+003, -1.601330e-003
2.792420e+003, -1.672235e-003
2.794348e+003, -1.715781e-003
2.796277e+003, -1.670557e-003
2.798205e+003, -1.714344e-003
2.800134e+003, -1.730757e-003
2.802062e+003, -2.004522e-003
2.803990e+003, -2.058908e-003
2.805919e+003, -1.829144e-003
2.807847e+003, -1.705500e-003
2.809776e+003, -1.992269e-003
2.811704e+003, -2.105846e-003
2.813633e+003, -2.140458e-003
2.815561e+003, -1.984850e-003
2.817490e+003, -1.598749e-003
2.819418e+003, -1.501824e-003
2.821347e+003, -1.619972e-003
2.823275e+003, -1.800845e-003
2.825204e+003, -1.804542e-003
2.827132e+003, -1.550070e-003
2.829061e+003, -1.448462e-003
2.830989e+003, -1.645665e-003
2.832917e+003, -1.656478e-003
2.834846e+003, -1.277979e-003
2.836774e+003, -1.067324e-003
2.838703e+003, -1.378725e-003
2.840631e+003, -1.381964e-003
2.842560e+003, -1.547086e-003
2.844488e+003, -1.914195e-003
2.846417e+003, -1.683391e-003
2.848345e+003, -1.511528e-003
2.850274e+003, -1.514758e-003
2.852202e+003, -1.408874e-003
2.854131e+003, -1.296705e-003
2.856059e+003, -1.311609e-003
2.857988e+003, -1.391523e-003
2.859916e+003, -1.367605e-003
2.861844e+003, -1.256990e-003
2.863773e+003, -1.305742e-003
2.865701e+003, -1.545856e-003
2.867630e+003, -1.449937e-003
2.869558e+003, -1.650364e-003
2.871487e+003, -1.662445e-003
2.873415e+003, -1.570893e-003
2.875344e+003, -1.345420e-003
2.877272e+003, -1.365691e-003
2.879201e+003, -1.666979e-003
2.881129e+003, -1.719039e-003
2.883058e+003, -1.747032e-003
2.884986e+003, -1.696221e-003
2.886915e+003, -1.488273e-003
2.888843e+003, -1.499637e-003
2.890771e+003, -1.599877e-003
2.892700e+003, -1.621377e-003
2.894628e+003, -1.523345e-003
2.896557e+003, -1.415882e-003
2.898485e+003, -1.397300e-003
2.900414e+003, -1.318397e-003
2.902342e+003, -1.188281e-003
2.904271e+003, -1.278703e-003
2.906199e+003, -1.355396e-003
2.908128e+003, -1.390789e-003
2.910056e+003, -1.293793e-003
2.911985e+003, -1.230983e-003
2.913913e+003, -1.161614e-003
2.915842e+003, -1.232018e-003
2.917770e+003, -1.241843e-003
2.919698e+003, -1.196414e-003
2.921627e+003, -1.085630e-003
2.923555e+003, -1.014180e-003
2.925484e+003, -6.960114e-004
2.927412e+003, -7.853985e-004
2.929341e+003, -1.152272e-003
2.931269e+003, -1.254657e-003
2.933198e+003, -1.099881e-003
2.935126e+003, -1.041853e-003
2.937055e+003, -8.257296e-004
2.938983e+003, -8.616240e-004
2.940912e+003, -1.070204e-003
2.942840e+003, -1.319066e-003
2.944769e+003, -1.067593e-003
2.946697e+003, -1.169787e-003
2.948625e+003, -9.590528e-004
2.950554e+003, -5.875749e-004
2.952482e+003, -6.858692e-004
2.954411e+003, -1.121849e-003
2.956339e+003, -1.374121e-003
2.958268e+003, -1.249327e-003
2.960196e+003, -1.325142e-003
2.962125e+003, -1.489176e-003
2.964053e+003, -1.610350e-003
2.965982e+003, -1.364063e-003
2.967910e+003, -8.640985e-004
2.969839e+003, -1.271646e-003
2.971767e+003, -1.529319e-003
2.973696e+003, -1.241190e-003
2.975624e+003, -1.481160e-003
2.977552e+003, -1.383518e-003
2.979481e+003, -1.352202e-003
2.981409e+003, -1.454552e-003
2.983338e+003, -1.420682e-003
2.985266e+003, -1.367885e-003
2.987195e+003, -1.479939e-003
2.989123e+003, -1.415834e-003
2.991052e+003, -1.207291e-003
2.992980e+003, -1.458246e-003
2.994909e+003, -1.480432e-003
2.996837e+003, -1.315387e-003
2.998766e+003, -1.003665e-003
3.000694e+003, -9.621312e-004
3.002623e+003, -1.450316e-003
3.004551e+003, -1.328170e-003
3.006479e+003, -1.260101e-003
3.008408e+003, -1.398768e-003
3.010336e+003, -1.497637e-003
3.012265e+003, -1.630517e-003
3.014193e+003, -1.023612e-003
3.016122e+003, -2.636687e-004
3.018050e+003, -5.846703e-004
3.019979e+003, -1.181946e-003
3.021907e+003, -1.382600e-003
3.023836e+003, -1.668626e-003
3.025764e+003, -1.523532e-003
3.027693e+003, -1.367021e-003
3.029621e+003, -1.331124e-003
3.031550e+003, -1.347066e-003
3.033478e+003, -1.278373e-003
3.035406e+003, -1.043685e-003
3.037335e+003, -1.099193e-003
3.039263e+003, -1.522651e-003
3.041192e+003, -1.757144e-003
3.043120e+003, -1.911332e-003
3.045049e+003, -1.684475e-003
3.046977e+003, -1.362887e-003
3.048906e+003, -1.406976e-003
3.050834e+003, -1.647707e-003
3.052763e+003, -1.572913e-003
3.054691e+003, -1.091955e-003
3.056620e+003, -1.081447e-003
3.058548e+003, -1.391679e-003
3.060477e+003, -1.790935e-003
3.062405e+003, -1.830603e-003
3.064333e+003, -1.387222e-003
3.066262e+003, -1.338093e-003
3.068190e+003, -1.420416e-003
3.070119e+003, -1.379273e-003
3.072047e+003, -1.330255e-003
3.073976e+003, -1.489641e-003
3.075904e+003, -1.513413e-003
3.077833e+003, -1.541092e-003
3.079761e+003, -1.475533e-003
3.081690e+003, -1.481803e-003
3.083618e+003, -1.590941e-003
3.085547e+003, -1.445540e-003
3.087475e+003, -1.297376e-003
3.089404e+003, -1.402227e-003
3.091332e+003, -1.241658e-003
3.093260e+003, -1.122556e-003
3.095189e+003, -8.823731e-004
3.097117e+003, -9.468441e-004
3.099046e+003, -1.295380e-003
3.100974e+003, -1.644969e-003
3.102903e+003, -1.296246e-003
3.104831e+003, -1.257928e-003
3.106760e+003, -1.363329e-003
3.108688e+003, -1.180636e-003
3.110617e+003, -1.171104e-003
3.112545e+003, -1.379378e-003
3.114474e+003, -1.575604e-003
3.116402e+003, -1.429334e-003
3.118331e+003, -1.234437e-003
3.120259e+003, -1.232342e-003
3.122188e+003, -1.352514e-003
3.124116e+003, -1.185126e-003
3.126044e+003, -8.961075e-004
3.127973e+003, -1.359478e-003
3.129901e+003, -1.671745e-003
3.131830e+003, -1.268550e-003
3.133758e+003, -7.972876e-004
3.135687e+003, -1.195865e-003
3.137615e+003, -1.440288e-003
3.139544e+003, -1.141391e-003
3.141472e+003, -9.427415e-004
3.143401e+003, -9.091108e-004
3.145329e+003, -9.612531e-004
3.147258e+003, -7.280259e-004
3.149186e+003, -8.912885e-004
3.151115e+003, -1.373412e-003
3.153043e+003, -1.563914e-003
3.154971e+003, -1.452757e-003
3.156900e+003, -1.101517e-003
3.158828e+003, -1.013223e-003
3.160757e+003, -8.439223e-004
3.162685e+003, -9.541142e-004
3.164614e+003, -1.269038e-003
3.166542e+003, -8.432677e-004
3.168471e+003, -7.526292e-004
3.170399e+003, -1.101542e-003
3.172328e+003, -1.342628e-003
3.174256e+003, -1.286536e-003
3.176185e+003, -9.211003e-004
3.178113e+003, -1.022290e-003
3.180042e+003, -1.009685e-003
3.181970e+003, -8.614593e-004
3.183898e+003, -1.198085e-003
3.185827e+003, -1.339844e-003
3.187755e+003, -8.035006e-004
3.189684e+003, -9.807167e-004
3.191612e+003, -1.563802e-003
3.193541e+003, -1.371566e-003
3.195469e+003, -7.403920e-004
3.197398e+003, -7.969973e-004
3.199326e+003, -1.105667e-003
3.201255e+003, -1.206632e-003
3.203183e+003, -9.977337e-004
3.205112e+003, -6.059852e-004
3.207040e+003, -5.884405e-004
3.208969e+003, -6.406902e-004
3.210897e+003, -4.435240e-004
3.212825e+003, -5.451291e-004
3.214754e+003, -1.089892e-003
3.216682e+003, -9.628910e-004
3.218611e+003, -6.555857e-004
3.220539e+003, -5.516960e-004
3.222468e+003, -1.043248e-003
3.224396e+003, -1.528926e-003
3.226325e+003, -8.774935e-004
3.228253e+003, -6.614702e-004
3.230182e+003, -1.289495e-003
3.232110e+003, -1.592840e-003
3.234039e+003, -1.268198e-003
3.235967e+003, -8.608996e-004
3.237896e+003, -8.310033e-004
3.239824e+003, -1.104646e-003
3.241752e+003, -1.455506e-003
3.243681e+003, -1.596927e-003
3.245609e+003, -1.080926e-003
3.247538e+003, -4.644190e-004
3.249466e+003, -3.864773e-004
3.251395e+003, -5.766102e-004
3.253323e+003, -4.839930e-004
3.255252e+003, -6.447485e-004
3.257180e+003, -1.264538e-003
3.259109e+003, -1.253559e-003
3.261037e+003, -7.779687e-004
3.262966e+003, -7.083319e-004
3.264894e+003, -7.241442e-004
3.266823e+003, -8.011973e-004
3.268751e+003, -8.913252e-004
3.270679e+003, -1.083996e-003
3.272608e+003, -1.253908e-003
3.274536e+003, -1.575834e-003
3.276465e+003, -1.172037e-003
3.278393e+003, -9.852062e-004
3.280322e+003, -1.308471e-003
3.282250e+003, -9.443785e-004
3.284179e+003, -5.935694e-004
3.286107e+003, -6.133305e-004
3.288036e+003, -6.708920e-004
3.289964e+003, -7.141364e-004
3.291893e+003, -7.033661e-004
3.293821e+003, -3.406213e-004
3.295750e+003, -2.612710e-004
3.297678e+003, -2.887660e-004
3.299606e+003, 3.265464e-004
3.301535e+003, 8.216806e-004
3.303463e+003, 3.138371e-004
3.305392e+003, 8.417752e-005
3.307320e+003, 3.101335e-006
3.309249e+003, 3.669185e-004
3.311177e+003, 7.237962e-004
3.313106e+003, 6.702525e-004
3.315034e+003, 7.380851e-004
3.316963e+003, 8.753884e-004
3.318891e+003, 1.729088e-003
3.320820e+003, 2.469889e-003
3.322748e+003, 2.893067e-003
3.324677e+003, 3.363350e-003
3.326605e+003, 3.433208e-003
3.328533e+003, 3.496744e-003
3.330462e+003, 3.369211e-003
3.332390e+003, 3.643178e-003
3.334319e+003, 4.441810e-003
3.336247e+003, 5.005174e-003
3.338176e+003, 4.836902e-003
3.340104e+003, 4.903173e-003
3.342033e+003, 5.554100e-003
3.343961e+003, 6.461121e-003
3.345890e+003, 7.048324e-003
3.347818e+003, 7.222683e-003
3.349747e+003, 7.187207e-003
3.351675e+003, 7.415541e-003
3.353604e+003, 7.897072e-003
3.355532e+003, 8.518766e-003
3.357460e+003, 8.840109e-003
3.359389e+003, 8.795203e-003
3.361317e+003, 8.817251e-003
3.363246e+003, 9.256543e-003
3.365174e+003, 9.885272e-003
3.367103e+003, 1.000715e-002
3.369031e+003, 9.812807e-003
3.370960e+003, 1.020008e-002
3.372888e+003, 1.047610e-002
3.374817e+003, 1.041708e-002
3.376745e+003, 1.031742e-002
3.378674e+003, 1.037277e-002
3.380602e+003, 9.643006e-003
3.382531e+003, 8.771049e-003
3.384459e+003, 8.369722e-003
3.386387e+003, 7.881643e-003
3.388316e+003, 7.589621e-003
3.390244e+003, 6.841087e-003
3.392173e+003, 6.090284e-003
3.394101e+003, 5.674028e-003
3.396030e+003, 5.400505e-003
3.397958e+003, 4.381252e-003
3.399887e+003, 3.161489e-003
3.401815e+003, 2.682026e-003
3.403744e+003, 2.383343e-003
3.405672e+003, 1.736726e-003
3.407601e+003, 1.169196e-003
3.409529e+003, 7.595936e-004
3.411458e+003, 2.857628e-004
3.413386e+003, -1.310134e-004
3.415314e+003, 9.803144e-005
3.417243e+003, -4.129965e-004
3.419171e+003, -1.567246e-003
3.421100e+003, -2.460398e-003
3.423028e+003, -2.433508e-003
3.424957e+003, -2.095220e-003
3.426885e+003, -2.127270e-003
3.428814e+003, -2.392577e-003
3.430742e+003, -3.003846e-003
3.432671e+003, -3.258097e-003
3.434599e+003, -3.395314e-003
3.436528e+003, -2.790247e-003
3.438456e+003, -2.481376e-003
3.440385e+003, -2.687288e-003
3.442313e+003, -2.767607e-003
3.444241e+003, -2.942213e-003
3.446170e+003, -3.285721e-003
3.448098e+003, -3.426554e-003
3.450027e+003, -3.030869e-003
3.451955e+003, -3.210199e-003
3.453884e+003, -3.780261e-003
3.455812e+003, -3.388994e-003
3.457741e+003, -2.734076e-003
3.459669e+003, -3.064674e-003
3.461598e+003, -3.197702e-003
3.463526e+003, -3.263411e-003
3.465455e+003, -3.179448e-003
3.467383e+003, -2.988174e-003
3.469312e+003, -3.066384e-003
3.471240e+003, -3.035865e-003
3.473168e+003, -3.667269e-003
3.475097e+003, -4.004820e-003
3.477025e+003, -3.787596e-003
3.478954e+003, -4.587379e-003
3.480882e+003, -4.546717e-003
3.482811e+003, -3.988986e-003
3.484739e+003, -4.030608e-003
3.486668e+003, -4.463838e-003
3.488596e+003, -3.741139e-003
3.490525e+003, -2.610244e-003
3.492453e+003, -2.655389e-003
3.494382e+003, -3.437996e-003
3.496310e+003, -3.572606e-003
3.498239e+003, -3.286759e-003
3.500167e+003, -3.673329e-003
3.502095e+003, -4.031995e-003
3.504024e+003, -3.701997e-003
3.505952e+003, -3.517259e-003
3.507881e+003, -3.643528e-003
3.509809e+003, -3.715515e-003
3.511738e+003, -3.959124e-003
3.513666e+003, -3.791320e-003
3.515595e+003, -3.633895e-003
3.517523e+003, -3.617198e-003
3.519452e+003, -4.016688e-003
3.521380e+003, -4.419401e-003
3.523309e+003, -4.170641e-003
3.525237e+003, -4.163401e-003
3.527166e+003, -4.064772e-003
3.529094e+003, -3.679917e-003
3.531022e+003, -3.809054e-003
3.532951e+003, -4.364323e-003
3.534879e+003, -4.487491e-003
3.536808e+003, -4.773183e-003
3.538736e+003, -4.833322e-003
3.540665e+003, -4.352687e-003
3.542593e+003, -3.864356e-003
3.544522e+003, -3.690757e-003
3.546450e+003, -4.297682e-003
3.548379e+003, -4.836567e-003
3.550307e+003, -4.185455e-003
3.552236e+003, -3.843329e-003
3.554164e+003, -4.251365e-003
3.556093e+003, -4.387772e-003
3.558021e+003, -4.790758e-003
3.559949e+003, -4.687206e-003
3.561878e+003, -4.310978e-003
3.563806e+003, -4.259418e-003
3.565735e+003, -4.170084e-003
3.567663e+003, -4.149144e-003
3.569592e+003, -4.532850e-003
3.571520e+003, -4.586299e-003
3.573449e+003, -4.299079e-003
3.575377e+003, -4.501185e-003
3.577306e+003, -5.086315e-003
3.579234e+003, -5.177738e-003
3.581163e+003, -5.002798e-003
3.583091e+003, -4.980914e-003
3.585020e+003, -4.733177e-003
3.586948e+003, -4.592977e-003
3.588876e+003, -4.830921e-003
3.590805e+003, -5.636561e-003
3.592733e+003, -5.790956e-003
3.594662e+003, -5.288279e-003
3.596590e+003, -4.244119e-003
3.598519e+003, -4.295286e-003
3.600447e+003, -5.046945e-003
3.602376e+003, -4.673075e-003
3.604304e+003, -5.008253e-003
3.606233e+003, -4.791792e-003
3.608161e+003, -4.304937e-003
3.610090e+003, -5.171382e-003
3.612018e+003, -5.535445e-003
3.613947e+003, -5.532471e-003
3.615875e+003, -4.981168e-003
3.617803e+003, -4.026565e-003
3.619732e+003, -3.721386e-003
3.621660e+003, -4.992589e-003
3.623589e+003, -5.725158e-003
3.625517e+003, -5.377383e-003
3.627446e+003, -4.049795e-003
3.629374e+003, -3.743087e-003
3.631303e+003, -4.559924e-003
3.633231e+003, -5.104356e-003
3.635160e+003, -5.123670e-003
3.637088e+003, -5.599976e-003
3.639017e+003, -6.183296e-003
3.640945e+003, -5.707073e-003
3.642874e+003, -5.688837e-003
3.644802e+003, -5.852280e-003
3.646730e+003, -5.212909e-003
3.648659e+003, -4.321482e-003
3.650587e+003, -4.608208e-003
3.652516e+003, -5.474913e-003
3.654444e+003, -6.084080e-003
3.656373e+003, -6.239013e-003
3.658301e+003, -6.186679e-003
3.660230e+003, -6.077978e-003
3.662158e+003, -6.341444e-003
3.664087e+003, -6.690368e-003
3.666015e+003, -6.785359e-003
3.667944e+003, -6.343687e-003
3.669872e+003, -5.322712e-003
3.671801e+003, -5.407391e-003
3.673729e+003, -5.359299e-003
3.675657e+003, -4.359604e-003
3.677586e+003, -5.644284e-003
3.679514e+003, -6.576487e-003
3.681443e+003, -6.140644e-003
3.683371e+003, -5.586124e-003
3.685300e+003, -5.844839e-003
3.687228e+003, -5.460791e-003
3.689157e+003, -5.438344e-003
3.691085e+003, -6.453635e-003
3.693014e+003, -6.680774e-003
3.694942e+003, -6.776588e-003
3.696871e+003, -6.177119e-003
3.698799e+003, -5.544186e-003
3.700728e+003, -6.049130e-003
3.702656e+003, -6.316049e-003
3.704584e+003, -6.571703e-003
3.706513e+003, -6.861950e-003
3.708441e+003, -5.990865e-003
3.710370e+003, -5.705416e-003
3.712298e+003, -6.086003e-003
3.714227e+003, -5.862607e-003
3.716155e+003, -5.590977e-003
3.718084e+003, -6.142829e-003
3.720012e+003, -6.505162e-003
3.721941e+003, -6.772747e-003
3.723869e+003, -5.817610e-003
3.725798e+003, -5.597880e-003
3.727726e+003, -5.333316e-003
3.729655e+003, -5.151098e-003
3.731583e+003, -5.070595e-003
3.733511e+003, -5.077567e-003
3.735440e+003, -5.075529e-003
3.737368e+003, -5.515138e-003
3.739297e+003, -6.131109e-003
3.741225e+003, -6.194584e-003
3.743154e+003, -5.645091e-003
3.745082e+003, -4.885022e-003
3.747011e+003, -5.509716e-003
3.748939e+003, -5.193051e-003
3.750868e+003, -5.383815e-003
3.752796e+003, -6.627849e-003
3.754725e+003, -6.905353e-003
3.756653e+003, -6.686457e-003
3.758582e+003, -6.911681e-003
3.760510e+003, -6.983893e-003
3.762438e+003, -6.687344e-003
3.764367e+003, -6.360115e-003
3.766295e+003, -6.630541e-003
3.768224e+003, -6.337629e-003
3.770152e+003, -5.801778e-003
3.772081e+003, -5.866562e-003
3.774009e+003, -5.530418e-003
3.775938e+003, -5.809826e-003
3.777866e+003, -6.143843e-003
3.779795e+003, -5.802753e-003
3.781723e+003, -6.324097e-003
3.783652e+003, -6.236454e-003
3.785580e+003, -6.097587e-003
3.787509e+003, -6.784641e-003
3.789437e+003, -7.101087e-003
3.791365e+003, -7.202304e-003
3.793294e+003, -6.979127e-003
3.795222e+003, -6.486276e-003
3.797151e+003, -6.777707e-003
3.799079e+003, -6.775799e-003
3.801008e+003, -5.379571e-003
3.802936e+003, -4.612635e-003
3.804865e+003, -5.643446e-003
3.806793e+003, -6.166811e-003
3.808722e+003, -6.437376e-003
3.810650e+003, -6.783751e-003
3.812579e+003, -7.360686e-003
3.814507e+003, -7.231198e-003
3.816436e+003, -6.759542e-003
3.818364e+003, -7.032737e-003
3.820292e+003, -6.290861e-003
3.822221e+003, -5.575026e-003
3.824149e+003, -6.285557e-003
3.826078e+003, -6.790958e-003
3.828006e+003, -6.624771e-003
3.829935e+003, -6.556098e-003
3.831863e+003, -6.979247e-003
3.833792e+003, -6.999754e-003
3.835720e+003, -6.231121e-003
3.837649e+003, -5.290125e-003
3.839577e+003, -5.654461e-003
3.841506e+003, -6.373152e-003
3.843434e+003, -6.618676e-003
3.845363e+003, -6.468601e-003
3.847291e+003, -6.556701e-003
3.849219e+003, -6.348232e-003
3.851148e+003, -5.195270e-003
3.853076e+003, -3.250404e-003
3.855005e+003, -4.514960e-003
3.856933e+003, -6.429587e-003
3.858862e+003, -6.885963e-003
3.860790e+003, -6.347904e-003
3.862719e+003, -5.845478e-003
3.864647e+003, -5.989307e-003
3.866576e+003, -6.756064e-003
3.868504e+003, -6.948662e-003
3.870433e+003, -6.775008e-003
3.872361e+003, -6.918220e-003
3.874290e+003, -6.957876e-003
3.876218e+003, -7.320743e-003
3.878146e+003, -6.447671e-003
3.880075e+003, -6.094317e-003
3.882003e+003, -6.894493e-003
3.883932e+003, -6.342131e-003
3.885860e+003, -5.881031e-003
3.887789e+003, -6.146089e-003
3.889717e+003, -5.862521e-003
3.891646e+003, -6.169467e-003
3.893574e+003, -7.198632e-003
3.895503e+003, -7.317903e-003
3.897431e+003, -6.592344e-003
3.899360e+003, -6.315053e-003
3.901288e+003, -6.440286e-003
3.903217e+003, -6.474416e-003
3.905145e+003, -6.950519e-003
3.907073e+003, -7.381706e-003
3.909002e+003, -6.741885e-003
3.910930e+003, -6.381085e-003
3.912859e+003, -6.628237e-003
3.914787e+003, -6.909562e-003
3.916716e+003, -6.885201e-003
3.918644e+003, -6.779727e-003
3.920573e+003, -6.729649e-003
3.922501e+003, -6.698038e-003
3.924430e+003, -6.259107e-003
3.926358e+003, -6.639366e-003
3.928287e+003, -6.423648e-003
3.930215e+003, -6.039651e-003
3.932144e+003, -6.665578e-003
3.934072e+003, -7.434650e-003
3.936000e+003, -6.752838e-003
3.937929e+003, -6.302138e-003
3.939857e+003, -6.909945e-003
3.941786e+003, -6.727321e-003
3.943714e+003, -6.198718e-003
3.945643e+003, -6.403806e-003
3.947571e+003, -6.703649e-003
3.949500e+003, -6.519104e-003
3.951428e+003, -6.085560e-003
3.953357e+003, -5.847325e-003
3.955285e+003, -6.184002e-003
3.957214e+003, -6.621787e-003
3.959142e+003, -6.755576e-003
3.961071e+003, -6.755878e-003
3.962999e+003, -6.771750e-003
3.964927e+003, -6.559132e-003
3.966856e+003, -6.190701e-003
3.968784e+003, -6.599222e-003
3.970713e+003, -7.022070e-003
3.972641e+003, -7.291208e-003
3.974570e+003, -7.425637e-003
3.976498e+003, -6.946012e-003
3.978427e+003, -6.127305e-003
3.980355e+003, -6.436873e-003
3.982284e+003, -7.195606e-003
3.984212e+003, -7.067897e-003
3.986141e+003, -7.605829e-003
3.988069e+003, -7.289796e-003
3.989998e+003, -6.838298e-003
3.991926e+003, -7.436099e-003
3.993854e+003, -7.596642e-003
3.995783e+003, -7.155641e-003
3.997711e+003, -7.044740e-003
##END=



