##NAMES=Mottramite
##RRUFFID=R050521
##IDEAL CHEMISTRY=Pb^2+^Cu^2+^V^5+^O_4_(OH)
##LOCALITY=Tsumeb mine, Tsumeb, Otavi District, Oshikoto, Namibia
##OWNER=RRUFF
##SOURCE=University of Arizona Mineral Museum
##DESCRIPTION=Green tubular sprays
##STATUS=The identification of this mineral has been confirmed by X-ray diffraction and chemical analysis
##URL=rruff.info/R050521
##MEASURED CHEMISTRY=Pb_1.00_Cu_1.00_((V_0.97_As_0.03_)_Î£=1_O_4_)(OH)
399.1926, 0.6380659
401.1211, 0.7119054
403.0496, 0.7119054
404.9780, 0.7195497
406.9065, 0.6959102
408.8350, 0.6824852
410.7634, 0.6622627
412.6919, 0.6230140
414.6204, 0.6088170
416.5488, 0.5832816
418.4773, 0.5474905
420.4058, 0.5301251
422.3342, 0.4850031
424.2627, 0.4498331
426.1912, 0.4371795
428.1196, 0.4280846
430.0481, 0.4044566
431.9766, 0.4007405
433.9050, 0.3988942
435.8335, 0.3913162
437.7620, 0.4014437
439.6904, 0.4104678
441.6189, 0.4244242
443.5474, 0.4342578
445.4758, 0.4434314
447.4043, 0.4556899
449.3328, 0.4665095
451.2612, 0.4858159
453.1897, 0.5029850
455.1182, 0.5114329
457.0466, 0.5235146
458.9751, 0.5407918
460.9036, 0.5552992
462.8320, 0.5749218
464.7605, 0.5963453
466.6890, 0.6153496
468.6174, 0.6356800
470.5459, 0.6617334
472.4744, 0.6857209
474.4028, 0.7049426
476.3313, 0.7366374
478.2598, 0.7625740
480.1882, 0.7800418
482.1167, 0.7957866
484.0452, 0.7888424
485.9736, 0.7636312
487.9021, 0.7282876
489.8306, 0.6798127
491.7590, 0.6306710
493.6875, 0.5698633
495.6160, 0.5116698
497.5444, 0.4677740
499.4729, 0.4368441
501.4014, 0.4115571
503.3298, 0.3960745
505.2583, 0.3866364
507.1868, 0.3796961
509.1152, 0.3792872
511.0437, 0.3816294
512.9722, 0.3885914
514.9006, 0.3972016
516.8291, 0.4034892
518.7576, 0.4153877
520.6860, 0.4291979
522.6145, 0.4392186
524.5430, 0.4533041
526.4714, 0.4660182
528.3999, 0.4775073
530.3284, 0.4931043
532.2568, 0.5023307
534.1853, 0.5118704
536.1138, 0.5192825
538.0422, 0.5291425
539.9707, 0.5370338
541.8992, 0.5474478
543.8276, 0.5624151
545.7561, 0.5702654
547.6846, 0.5808877
549.6130, 0.5892042
551.5415, 0.5995966
553.4700, 0.6082630
555.3984, 0.6174583
557.3269, 0.6283758
559.2554, 0.6321053
561.1838, 0.6401317
563.1123, 0.6512598
565.0408, 0.6577778
566.9692, 0.6649700
568.8977, 0.6693289
570.8262, 0.6746254
572.7546, 0.6814128
574.6831, 0.6869676
576.6116, 0.6953986
578.5400, 0.7032620
580.4685, 0.7126271
582.3970, 0.7160799
584.3254, 0.7224072
586.2539, 0.7339668
588.1824, 0.7407430
590.1108, 0.7477561
592.0393, 0.7525479
593.9678, 0.7559738
595.8962, 0.7704679
597.8247, 0.7722061
599.7532, 0.7752346
601.6816, 0.7853509
603.6101, 0.7876554
605.5386, 0.7935828
607.4670, 0.7999290
609.3955, 0.8066668
611.3240, 0.8134981
613.2524, 0.8182669
615.1809, 0.8216205
617.1094, 0.8232079
619.0378, 0.8321541
620.9663, 0.8377603
622.8948, 0.8423261
624.8232, 0.8490999
626.7517, 0.8520659
628.6802, 0.8562508
630.6086, 0.8571626
632.5371, 0.8619605
634.4656, 0.8723803
636.3940, 0.8776200
638.3225, 0.8819264
640.2510, 0.8831237
642.1794, 0.8851470
644.1079, 0.8861836
646.0364, 0.8886965
647.9648, 0.8886830
649.8933, 0.8906792
651.8218, 0.8989667
653.7502, 0.8997454
655.6787, 0.8992184
657.6072, 0.9011179
659.5356, 0.8980995
661.4641, 0.8945776
663.3926, 0.8932871
665.3210, 0.8888006
667.2495, 0.8834908
669.1780, 0.8738474
671.1064, 0.8655391
673.0349, 0.8589612
674.9634, 0.8516560
676.8918, 0.8413725
678.8203, 0.8310464
680.7488, 0.8183113
682.6772, 0.8078215
684.6057, 0.7994986
686.5342, 0.7876186
688.4626, 0.7766742
690.3911, 0.7633153
692.3196, 0.7502574
694.2480, 0.7403213
696.1765, 0.7298042
698.1050, 0.7172128
700.0334, 0.7051252
701.9619, 0.6924334
703.8904, 0.6797624
705.8188, 0.6687577
707.7473, 0.6545624
709.6758, 0.6409166
711.6042, 0.6283041
713.5327, 0.6140883
715.4612, 0.6000106
717.3896, 0.5868111
719.3181, 0.5738063
721.2466, 0.5616332
723.1750, 0.5505003
725.1035, 0.5399087
727.0320, 0.5278753
728.9604, 0.5143013
730.8889, 0.5021448
732.8174, 0.4905844
734.7458, 0.4789247
736.6743, 0.4674550
738.6028, 0.4552483
740.5313, 0.4426100
742.4597, 0.4291112
744.3882, 0.4157645
746.3167, 0.4028871
748.2451, 0.3900865
750.1736, 0.3785585
752.1021, 0.3673820
754.0305, 0.3574354
755.9590, 0.3484208
757.8875, 0.3395787
759.8159, 0.3306440
761.7444, 0.3216462
763.6729, 0.3128034
765.6013, 0.3040596
767.5298, 0.2952840
769.4583, 0.2869576
771.3867, 0.2796574
773.3152, 0.2724392
775.2437, 0.2665119
777.1721, 0.2624026
779.1006, 0.2600993
781.0291, 0.2592555
782.9575, 0.2601230
784.8860, 0.2635843
786.8145, 0.2687819
788.7429, 0.2758152
790.6714, 0.2842615
792.5999, 0.2944703
794.5283, 0.3061914
796.4568, 0.3189985
798.3853, 0.3341508
800.3137, 0.3502063
802.2422, 0.3659301
804.1707, 0.3809771
806.0991, 0.3952348
808.0276, 0.4088897
809.9561, 0.4201149
811.8845, 0.4279058
813.8130, 0.4324715
815.7415, 0.4343085
817.6699, 0.4306024
819.5984, 0.4208403
821.5269, 0.4045443
823.4553, 0.3799824
825.3838, 0.3487345
827.3123, 0.3147761
829.2407, 0.2876975
831.1692, 0.2817068
833.0977, 0.3039487
835.0261, 0.3460870
836.9546, 0.3873899
838.8831, 0.4100921
840.8115, 0.4114836
842.7400, 0.3997491
844.6685, 0.3826390
846.5969, 0.3626445
848.5254, 0.3419737
850.4539, 0.3215822
852.3823, 0.3009556
854.3108, 0.2806410
856.2393, 0.2611018
858.1677, 0.2425230
860.0962, 0.2253882
862.0247, 0.2094101
863.9531, 0.1939743
865.8816, 0.1786068
867.8101, 0.1634950
869.7385, 0.1485643
871.6670, 0.1341010
873.5955, 0.1205762
875.5239, 0.1084929
877.4524, 9.7103693E-02
879.3809, 8.5157633E-02
881.3093, 7.4251063E-02
883.2378, 6.5701284E-02
885.1663, 5.8577850E-02
887.0947, 5.3215880E-02
889.0232, 4.9786109E-02
890.9517, 4.7261879E-02
892.8801, 4.5744639E-02
894.8085, 4.4598170E-02
896.7370, 4.3235999E-02
898.6655, 4.1931830E-02
900.5939, 4.0875271E-02
902.5224, 4.0288690E-02
904.4509, 3.9843280E-02
906.3793, 3.9592799E-02
908.3078, 3.9576322E-02
910.2363, 3.9688699E-02
912.1647, 4.0277131E-02
914.0932, 4.1974168E-02
916.0217, 4.4188820E-02
917.9501, 4.6732280E-02
919.8786, 4.9855679E-02
921.8071, 5.3955119E-02
923.7355, 5.8875911E-02
925.6640, 6.5540388E-02
927.5925, 7.4003592E-02
929.5209, 8.4879562E-02
931.4494, 9.8623388E-02
933.3779, 0.1135993
935.3063, 0.1258268
937.2348, 0.1295189
939.1633, 0.1226507
941.0917, 0.1106989
943.0202, 0.1008813
944.9487, 9.5911339E-02
946.8771, 9.2331462E-02
948.8056, 8.5755818E-02
950.7341, 7.6670490E-02
952.6625, 6.7778148E-02
954.5910, 6.0347661E-02
956.5195, 5.5368960E-02
958.4479, 5.2836530E-02
960.3764, 5.1577501E-02
962.3049, 5.0754581E-02
964.2333, 5.0776180E-02
966.1618, 5.1795799E-02
968.0903, 5.3137980E-02
970.0187, 5.4970890E-02
971.9472, 5.8171671E-02
973.8757, 6.2486131E-02
975.8041, 6.7275994E-02
977.7326, 7.3419981E-02
979.6611, 8.1594728E-02
981.5895, 9.1780633E-02
983.5180, 0.1042521
985.4465, 0.1197195
987.3749, 0.1386770
989.3034, 0.1603535
991.2319, 0.1821008
993.1603, 0.1969816
995.0888, 0.1989532
997.0173, 0.1869764
998.9457, 0.1652985
1000.874, 0.1406903
1002.803, 0.1180317
1004.731, 9.9637538E-02
1006.660, 8.6431041E-02
1008.588, 7.7270404E-02
1010.517, 7.0151873E-02
1012.445, 6.3919157E-02
1014.373, 5.8203720E-02
1016.302, 5.2956849E-02
1018.230, 4.8405372E-02
1020.159, 4.4508521E-02
1022.087, 4.1285370E-02
1024.016, 3.8532481E-02
1025.944, 3.6091860E-02
1027.873, 3.4276102E-02
1029.801, 3.3010930E-02
1031.730, 3.1833619E-02
1033.658, 3.0980971E-02
1035.587, 3.0128529E-02
1037.515, 2.9200541E-02
1039.444, 2.8399950E-02
1041.372, 2.7800679E-02
1043.301, 2.7097020E-02
1045.229, 2.6435670E-02
1047.157, 2.5665840E-02
1049.086, 2.5066679E-02
1051.014, 2.4899971E-02
1052.943, 2.4771430E-02
1054.871, 2.4343921E-02
1056.800, 2.4220619E-02
1058.728, 2.4184640E-02
1060.657, 2.4068801E-02
1062.585, 2.3765160E-02
1064.514, 2.3573101E-02
1066.442, 2.3727089E-02
1068.371, 2.3454459E-02
1070.299, 2.3130169E-02
1072.228, 2.3358850E-02
1074.156, 2.3522800E-02
1076.084, 2.3459321E-02
1078.013, 2.3461310E-02
1079.941, 2.3444461E-02
1081.870, 2.3152711E-02
1083.798, 2.2771770E-02
1085.727, 2.2455670E-02
1087.655, 2.2365520E-02
1089.584, 2.2461500E-02
1091.512, 2.2554461E-02
1093.441, 2.2741040E-02
1095.369, 2.3224570E-02
1097.298, 2.3676520E-02
1099.226, 2.3918580E-02
1101.155, 2.4224050E-02
1103.083, 2.4599360E-02
1105.011, 2.4896570E-02
1106.940, 2.5034741E-02
1108.868, 2.5348790E-02
1110.797, 2.5780410E-02
1112.725, 2.6264559E-02
1114.654, 2.6339300E-02
1116.582, 2.6170829E-02
1118.511, 2.5894880E-02
1120.439, 2.6050180E-02
1122.368, 2.6295930E-02
1124.296, 2.6086951E-02
1126.225, 2.5997160E-02
1128.153, 2.6321910E-02
1130.082, 2.6622901E-02
1132.010, 2.7008830E-02
1133.938, 2.7364710E-02
1135.867, 2.7527180E-02
1137.795, 2.7797470E-02
1139.724, 2.7920550E-02
1141.652, 2.8139779E-02
1143.581, 2.8466070E-02
1145.509, 2.8499359E-02
1147.438, 2.8576041E-02
1149.366, 2.8855469E-02
1151.295, 2.9036500E-02
1153.223, 2.8913870E-02
1155.152, 2.8967030E-02
1157.080, 2.9229110E-02
1159.009, 2.9319391E-02
1160.937, 2.9319810E-02
1162.865, 2.9324351E-02
1164.794, 2.9100651E-02
1166.722, 2.8739100E-02
1168.651, 2.8568570E-02
1170.579, 2.8600911E-02
1172.508, 2.8991930E-02
1174.436, 2.9418580E-02
1176.365, 2.9830920E-02
1178.293, 3.0151870E-02
1180.222, 3.0504620E-02
1182.150, 3.0869180E-02
1184.079, 3.1339549E-02
1186.007, 3.1703278E-02
1187.936, 3.1649821E-02
1189.864, 3.1799350E-02
1191.792, 3.2235339E-02
1193.721, 3.2386821E-02
1195.649, 3.2200791E-02
1197.578, 3.1944118E-02
1199.506, 3.1836111E-02
1201.435, 3.1610619E-02
1203.363, 3.1570349E-02
1205.292, 3.1813040E-02
1207.220, 3.2130182E-02
1209.149, 3.2438230E-02
1211.077, 3.2924000E-02
1213.006, 3.3332519E-02
1214.934, 3.3729620E-02
1216.863, 3.3929162E-02
1218.791, 3.4191381E-02
1220.719, 3.4415640E-02
1222.648, 3.4519691E-02
1224.576, 3.4778971E-02
1226.505, 3.5053018E-02
1228.433, 3.5060350E-02
1230.362, 3.5386439E-02
1232.290, 3.5727680E-02
1234.219, 3.5786361E-02
1236.147, 3.5953298E-02
1238.076, 3.6226619E-02
1240.004, 3.6483020E-02
1241.933, 3.6581419E-02
1243.861, 3.6875792E-02
1245.790, 3.7244871E-02
1247.718, 3.7516192E-02
1249.646, 3.7705880E-02
1251.575, 3.7918650E-02
1253.503, 3.8210601E-02
1255.432, 3.8614940E-02
1257.360, 3.8953539E-02
1259.289, 3.9249890E-02
1261.217, 3.9597951E-02
1263.146, 3.9979778E-02
1265.074, 4.0531829E-02
1267.003, 4.1030239E-02
1268.931, 4.1905958E-02
1270.860, 4.2878471E-02
1272.788, 4.3870889E-02
1274.717, 4.5084208E-02
1276.645, 4.6080481E-02
1278.573, 4.6371240E-02
1280.502, 4.6261240E-02
1282.430, 4.6096109E-02
1284.359, 4.5668591E-02
1286.287, 4.5164250E-02
1288.216, 4.4844579E-02
1290.144, 4.4707529E-02
1292.073, 4.4693239E-02
1294.001, 4.4619210E-02
1295.930, 4.4662472E-02
1297.858, 4.4770919E-02
1299.787, 4.4886239E-02
1301.715, 4.5435991E-02
1303.644, 4.5809880E-02
1305.572, 4.5966141E-02
1307.500, 4.6291091E-02
1309.429, 4.6914451E-02
1311.357, 4.7154158E-02
1313.286, 4.7333770E-02
1315.214, 4.7606360E-02
1317.143, 4.7757380E-02
1319.071, 4.7970209E-02
1321.000, 4.8576090E-02
1322.928, 4.9244270E-02
1324.857, 4.9613621E-02
1326.785, 4.9922321E-02
1328.714, 5.0223429E-02
1330.642, 5.0640151E-02
1332.571, 5.1237050E-02
1334.499, 5.1709831E-02
1336.427, 5.2299611E-02
1338.356, 5.2818421E-02
1340.284, 5.3412851E-02
1342.213, 5.3995982E-02
1344.141, 5.4518700E-02
1346.070, 5.5121440E-02
1347.998, 5.5688038E-02
1349.927, 5.6234099E-02
1351.855, 5.6864429E-02
1353.784, 5.7584651E-02
1355.712, 5.8202319E-02
1357.641, 5.8850270E-02
1359.569, 5.9771340E-02
1361.498, 6.0746402E-02
1363.426, 6.1589099E-02
1365.354, 6.2442169E-02
1367.283, 6.3150249E-02
1369.211, 6.3966498E-02
1371.140, 6.4882420E-02
1373.068, 6.5965436E-02
1374.997, 6.6964723E-02
1376.925, 6.7924462E-02
1378.854, 6.8987720E-02
1380.782, 7.0035636E-02
1382.711, 7.1032546E-02
1384.639, 7.2020501E-02
1386.568, 7.2963931E-02
1388.496, 7.4318849E-02
1390.424, 7.5475790E-02
1392.353, 7.6278083E-02
1394.281, 7.7160008E-02
1396.210, 7.8229092E-02
1398.138, 7.9109348E-02
1400.067, 7.9671323E-02
1401.995, 8.0314577E-02
1403.924, 8.0965184E-02
1405.852, 8.1692301E-02
1407.781, 8.2456157E-02
1409.709, 8.3102278E-02
1411.638, 8.3761051E-02
1413.566, 8.4371410E-02
1415.495, 8.4868200E-02
1417.423, 8.5399836E-02
1419.351, 8.5798651E-02
1421.280, 8.5990623E-02
1423.208, 8.6199723E-02
1425.137, 8.6539209E-02
1427.065, 8.6788230E-02
1428.994, 8.6952910E-02
1430.922, 8.6885683E-02
1432.851, 8.6794540E-02
1434.779, 8.6831607E-02
1436.708, 8.6765893E-02
1438.636, 8.6265758E-02
1440.565, 8.5668758E-02
1442.493, 8.5265793E-02
1444.422, 8.4839121E-02
1446.350, 8.4340990E-02
1448.278, 8.3906658E-02
1450.207, 8.3430357E-02
1452.135, 8.2938462E-02
1454.064, 8.2498513E-02
1455.992, 8.2177617E-02
1457.921, 8.1364967E-02
1459.849, 8.0480851E-02
1461.778, 7.9939380E-02
1463.706, 7.9404272E-02
1465.635, 7.8714333E-02
1467.563, 7.8010418E-02
1469.492, 7.7345267E-02
1471.420, 7.6423407E-02
1473.349, 7.5530387E-02
1475.277, 7.4961193E-02
1477.205, 7.4365906E-02
1479.134, 7.3766381E-02
1481.062, 7.2948493E-02
1482.991, 7.2307393E-02
1484.919, 7.2011702E-02
1486.848, 7.1728364E-02
1488.776, 7.1465328E-02
1490.705, 7.1069278E-02
1492.633, 7.0723973E-02
1494.562, 7.0536561E-02
1496.490, 7.0327573E-02
1498.419, 7.0112422E-02
1500.347, 7.0054092E-02
1502.276, 6.9790788E-02
1504.204, 6.9430001E-02
1506.132, 6.9178261E-02
1508.061, 6.8489037E-02
1509.989, 6.7603983E-02
1511.918, 6.7130707E-02
1513.846, 6.6908248E-02
1515.775, 6.6731639E-02
1517.703, 6.6469602E-02
1519.632, 6.6421218E-02
1521.560, 6.6513158E-02
1523.489, 6.6462353E-02
1525.417, 6.6517986E-02
1527.346, 6.6715948E-02
1529.274, 6.6591211E-02
1531.203, 6.6465512E-02
1533.131, 6.6554792E-02
1535.059, 6.6670828E-02
1536.988, 6.6692077E-02
1538.916, 6.6618517E-02
1540.845, 6.6564754E-02
1542.773, 6.6472813E-02
1544.702, 6.6293210E-02
1546.630, 6.6184074E-02
1548.559, 6.6126190E-02
1550.487, 6.5933622E-02
1552.416, 6.5666862E-02
1554.344, 6.5629981E-02
1556.273, 6.5723181E-02
1558.201, 6.5982647E-02
1560.130, 6.5885417E-02
1562.058, 6.5588862E-02
1563.986, 6.5401852E-02
1565.915, 6.5291278E-02
1567.843, 6.5251842E-02
1569.772, 6.5282151E-02
1571.700, 6.5288231E-02
1573.629, 6.5463178E-02
1575.557, 6.5896787E-02
1577.486, 6.6191822E-02
1579.414, 6.6467047E-02
1581.343, 6.6881269E-02
1583.271, 6.7058943E-02
1585.200, 6.7193098E-02
1587.128, 6.7456692E-02
1589.057, 6.7727260E-02
1590.985, 6.7789651E-02
1592.913, 6.7998230E-02
1594.842, 6.8159848E-02
1596.770, 6.8134271E-02
1598.699, 6.8003736E-02
1600.627, 6.7916520E-02
1602.556, 6.7914203E-02
1604.484, 6.8076558E-02
1606.413, 6.8061046E-02
1608.341, 6.8256646E-02
1610.270, 6.8729289E-02
1612.198, 6.9161557E-02
1614.127, 6.9218017E-02
1616.055, 6.9598690E-02
1617.984, 6.9869317E-02
1619.912, 6.9979116E-02
1621.840, 7.0227422E-02
1623.769, 7.0499383E-02
1625.697, 7.0704266E-02
1627.626, 7.0832767E-02
1629.554, 7.1029633E-02
1631.483, 7.1229778E-02
1633.411, 7.1354017E-02
1635.340, 7.1207613E-02
1637.268, 7.0788972E-02
1639.197, 7.0825674E-02
1641.125, 7.1050078E-02
1643.054, 7.0996501E-02
1644.982, 7.1266010E-02
1646.911, 7.1618937E-02
1648.839, 7.1572453E-02
1650.767, 7.1567759E-02
1652.696, 7.2225019E-02
1654.624, 7.2613820E-02
1656.553, 7.2397813E-02
1658.481, 7.2382309E-02
1660.410, 7.2746880E-02
1662.338, 7.3158823E-02
1664.267, 7.3387571E-02
1666.195, 7.3595367E-02
1668.124, 7.3636383E-02
1670.052, 7.3521808E-02
1671.981, 7.3612168E-02
1673.909, 7.3846497E-02
1675.838, 7.3928080E-02
1677.766, 7.3869750E-02
1679.694, 7.3974587E-02
1681.623, 7.4402720E-02
1683.551, 7.4723497E-02
1685.480, 7.4801192E-02
1687.408, 7.4911147E-02
1689.337, 7.4980520E-02
1691.265, 7.5186320E-02
1693.194, 7.5440191E-02
1695.122, 7.5693421E-02
1697.051, 7.5938821E-02
1698.979, 7.6055966E-02
1700.908, 7.6049142E-02
1702.836, 7.6195300E-02
1704.765, 7.6500341E-02
1706.693, 7.6679423E-02
1708.621, 7.6680727E-02
1710.550, 7.6693743E-02
1712.478, 7.6961502E-02
1714.407, 7.7363826E-02
1716.335, 7.7788502E-02
1718.264, 7.8324907E-02
1720.192, 7.8745872E-02
1722.121, 7.9482213E-02
1724.049, 8.0329292E-02
1725.978, 8.0789469E-02
1727.906, 8.1345350E-02
1729.835, 8.1730567E-02
1731.763, 8.1527524E-02
1733.692, 8.1199162E-02
1735.620, 8.0717720E-02
1737.548, 8.0312707E-02
1739.477, 8.0166832E-02
1741.405, 8.0154993E-02
1743.334, 8.0190383E-02
1745.262, 8.0293059E-02
1747.191, 8.0936283E-02
1749.119, 8.1670754E-02
1751.048, 8.2265712E-02
1752.976, 8.2891777E-02
1754.905, 8.3540268E-02
1756.833, 8.4371611E-02
1758.762, 8.4829897E-02
1760.690, 8.5487619E-02
1762.619, 8.6195640E-02
1764.547, 8.6422592E-02
1766.475, 8.6627699E-02
1768.404, 8.6960599E-02
1770.332, 8.6990923E-02
1772.261, 8.7022088E-02
1774.189, 8.7114729E-02
1776.118, 8.7123677E-02
1778.046, 8.7229870E-02
1779.975, 8.7340087E-02
1781.903, 8.7332197E-02
1783.832, 8.7322026E-02
1785.760, 8.7589338E-02
1787.689, 8.7837577E-02
1789.617, 8.8487327E-02
1791.546, 8.9501433E-02
1793.474, 8.9840807E-02
1795.402, 8.9947298E-02
1797.331, 9.0610668E-02
1799.259, 9.1074564E-02
1801.188, 9.1270268E-02
1803.116, 9.1829911E-02
1805.045, 9.2534661E-02
1806.973, 9.3234427E-02
1808.902, 9.4002068E-02
1810.830, 9.4700098E-02
1812.759, 9.5454194E-02
1814.687, 9.6399017E-02
1816.616, 9.7417466E-02
1818.544, 9.8408058E-02
1820.473, 9.9416487E-02
1822.401, 0.1000693
1824.329, 0.1006226
1826.258, 0.1008171
1828.186, 0.1006227
1830.115, 0.1004117
1832.043, 9.9491782E-02
1833.972, 9.8238602E-02
1835.900, 9.6715599E-02
1837.829, 9.5211282E-02
1839.757, 9.3931809E-02
1841.686, 9.2722863E-02
1843.614, 9.0934090E-02
1845.543, 8.8767469E-02
1847.471, 8.7853201E-02
1849.400, 8.7020069E-02
1851.328, 8.6407363E-02
1853.256, 8.6282410E-02
1855.185, 8.6009733E-02
1857.113, 8.5573763E-02
1859.042, 8.4988311E-02
1860.970, 8.4636949E-02
1862.899, 8.4336929E-02
1864.827, 8.4163457E-02
1866.756, 8.4472977E-02
1868.684, 8.4535703E-02
1870.613, 8.4591053E-02
1872.541, 8.4408231E-02
1874.470, 8.4230587E-02
1876.398, 8.4233053E-02
1878.327, 8.4359303E-02
1880.255, 8.4289171E-02
1882.183, 8.4524669E-02
1884.112, 8.4812813E-02
1886.040, 8.4537752E-02
1887.969, 8.3872050E-02
1889.897, 8.4249422E-02
1891.826, 8.4232129E-02
1893.754, 8.3953410E-02
1895.683, 8.3758362E-02
1897.611, 8.3473042E-02
1899.540, 8.3858714E-02
1901.468, 8.3787091E-02
1903.397, 8.3506167E-02
1905.325, 8.4119022E-02
1907.254, 8.4282607E-02
1909.182, 8.4229723E-02
1911.110, 8.3904691E-02
1913.039, 8.4126674E-02
1914.967, 8.4500194E-02
1916.896, 8.4274933E-02
1918.824, 8.4198177E-02
1920.753, 8.4404983E-02
1922.681, 8.4848017E-02
1924.610, 8.5544951E-02
1926.538, 8.6040057E-02
1928.467, 8.6036503E-02
1930.395, 8.6185582E-02
1932.324, 8.6724222E-02
1934.252, 8.7051563E-02
1936.181, 8.7899476E-02
1938.109, 8.9051157E-02
1940.037, 8.9545973E-02
1941.966, 8.9073703E-02
1943.894, 8.9503787E-02
1945.823, 9.0371042E-02
1947.751, 9.1092460E-02
1949.680, 9.1568567E-02
1951.608, 9.1032349E-02
1953.537, 8.9829080E-02
1955.465, 8.9507863E-02
1957.394, 8.7852791E-02
1959.322, 8.5995033E-02
1961.251, 8.5683569E-02
1963.179, 8.4919810E-02
1965.108, 8.3291493E-02
1967.036, 8.2567751E-02
1968.964, 8.1624918E-02
1970.893, 8.0108263E-02
1972.821, 7.9701260E-02
1974.750, 7.9312347E-02
1976.678, 7.8954533E-02
1978.607, 8.0258846E-02
1980.535, 8.0725983E-02
1982.464, 7.9139806E-02
1984.392, 7.9246327E-02
1986.321, 7.9388507E-02
1988.249, 7.8738563E-02
1990.178, 7.8250676E-02
1992.106, 7.8123771E-02
1994.035, 7.8537777E-02
1995.963, 7.8037150E-02
1997.891, 7.8142934E-02
1999.820, 7.8744918E-02
2001.748, 7.7089757E-02
2003.677, 7.5846247E-02
2005.605, 7.5626448E-02
2007.534, 7.6717533E-02
2009.462, 7.8452870E-02
2011.391, 7.8382537E-02
2013.319, 7.6938637E-02
2015.248, 7.6809227E-02
2017.176, 7.8616053E-02
2019.105, 8.0490500E-02
2021.033, 7.9034463E-02
2022.962, 7.7655710E-02
2024.890, 7.7050596E-02
2026.818, 7.7394560E-02
2028.747, 7.8912452E-02
2030.675, 8.0151893E-02
2032.604, 8.0545217E-02
2034.532, 8.0462746E-02
2036.461, 7.9292342E-02
2038.389, 7.8329667E-02
2040.318, 7.9614840E-02
2042.246, 8.0587141E-02
2044.175, 8.0398344E-02
2046.103, 8.1018403E-02
2048.032, 8.0194011E-02
2049.960, 8.0434673E-02
2051.889, 8.0087610E-02
2053.817, 8.0831617E-02
2055.746, 8.1675902E-02
2057.674, 8.0959357E-02
2059.603, 8.0836922E-02
2061.531, 8.1024706E-02
2063.459, 8.0988497E-02
2065.388, 8.0138303E-02
2067.316, 8.0392443E-02
2069.245, 8.0586903E-02
2071.173, 8.1119157E-02
2073.102, 8.1453338E-02
2075.030, 8.1265002E-02
2076.959, 8.1116281E-02
2078.887, 8.1323087E-02
2080.816, 8.1749171E-02
2082.744, 8.1842087E-02
2084.673, 8.2618289E-02
2086.601, 8.2596041E-02
2088.530, 8.2408696E-02
2090.458, 8.2214497E-02
2092.386, 8.1921831E-02
2094.315, 8.2460850E-02
2096.243, 8.2314372E-02
2098.172, 8.1482790E-02
2100.100, 8.1487194E-02
2102.029, 8.1253298E-02
2103.957, 8.1091680E-02
2105.886, 8.1240028E-02
2107.814, 8.1970848E-02
2109.743, 8.2555011E-02
2111.671, 8.2275443E-02
2113.600, 8.2498752E-02
2115.528, 8.2522243E-02
2117.457, 8.2053207E-02
2119.385, 8.2319006E-02
2121.313, 8.2473792E-02
2123.242, 8.2387753E-02
2125.170, 8.1888020E-02
2127.099, 8.1890777E-02
2129.027, 8.1702463E-02
2130.956, 8.1211857E-02
2132.884, 8.1042573E-02
2134.813, 8.1438497E-02
2136.741, 8.1615761E-02
2138.670, 8.1952877E-02
2140.598, 8.2057171E-02
2142.527, 8.0969937E-02
2144.455, 8.1622079E-02
2146.384, 8.2565591E-02
2148.312, 8.1994459E-02
2150.240, 8.1134617E-02
2152.169, 8.1733286E-02
2154.097, 8.2230628E-02
2156.026, 8.2159609E-02
2157.954, 8.2398042E-02
2159.883, 8.4123209E-02
2161.811, 8.3921410E-02
2163.740, 8.3644062E-02
2165.668, 8.4537022E-02
2167.597, 8.5411102E-02
2169.525, 8.3587833E-02
2171.454, 8.2638763E-02
2173.382, 8.3278567E-02
2175.311, 8.2830623E-02
2177.239, 8.1770413E-02
2179.167, 8.2328789E-02
2181.096, 8.3787091E-02
2183.024, 8.4500477E-02
2184.953, 8.4072620E-02
2186.881, 8.4571637E-02
2188.810, 8.5399561E-02
2190.738, 8.5676096E-02
2192.667, 8.5602328E-02
2194.595, 8.4476851E-02
2196.524, 8.3955579E-02
2198.452, 8.5888967E-02
2200.381, 8.6307257E-02
2202.309, 8.4838919E-02
2204.238, 8.5143112E-02
2206.166, 8.5288979E-02
2208.094, 8.5604347E-02
2210.023, 8.5579172E-02
2211.951, 8.5511222E-02
2213.880, 8.6932831E-02
2215.808, 8.6896203E-02
2217.737, 8.5201971E-02
2219.665, 8.5112877E-02
2221.594, 8.5312903E-02
2223.522, 8.4719777E-02
2225.451, 8.5158110E-02
2227.379, 8.5958429E-02
2229.308, 8.6293533E-02
2231.236, 8.6488821E-02
2233.165, 8.6304918E-02
2235.093, 8.6322993E-02
2237.021, 8.5862689E-02
2238.950, 8.6231247E-02
2240.878, 8.7060191E-02
2242.807, 8.6639717E-02
2244.735, 8.5882314E-02
2246.664, 8.6532049E-02
2248.592, 8.7137409E-02
2250.521, 8.6932100E-02
2252.449, 8.5933477E-02
2254.378, 8.6140163E-02
2256.306, 8.7259643E-02
2258.235, 8.7081529E-02
2260.163, 8.6756833E-02
2262.092, 8.6765088E-02
2264.020, 8.7013222E-02
2265.948, 8.7650113E-02
2267.877, 8.7624528E-02
2269.805, 8.7352127E-02
2271.734, 8.7834977E-02
2273.662, 8.7842040E-02
2275.591, 8.7305419E-02
2277.519, 8.7293588E-02
2279.448, 8.7724671E-02
2281.376, 8.8078991E-02
2283.305, 8.7910682E-02
2285.233, 8.7966502E-02
2287.162, 8.8085361E-02
2289.090, 8.8106103E-02
2291.019, 8.8333517E-02
2292.947, 8.8182896E-02
2294.875, 8.8182613E-02
2296.804, 8.8180743E-02
2298.732, 8.7824963E-02
2300.661, 8.7823667E-02
2302.589, 8.7896198E-02
2304.518, 8.8086657E-02
2306.446, 8.8556960E-02
2308.375, 8.9060768E-02
2310.303, 8.8959493E-02
2312.232, 8.8742763E-02
2314.160, 8.8925540E-02
2316.089, 8.8736661E-02
2318.017, 8.8837393E-02
2319.946, 8.9146033E-02
2321.874, 8.9184113E-02
2323.802, 8.9384787E-02
2325.731, 8.9086764E-02
2327.659, 8.8776700E-02
2329.588, 8.9169502E-02
2331.516, 8.9609593E-02
2333.445, 8.9976728E-02
2335.373, 8.9874707E-02
2337.302, 8.9411117E-02
2339.230, 8.9211613E-02
2341.159, 8.9075647E-02
2343.087, 8.9067392E-02
2345.016, 8.9414343E-02
2346.944, 8.9389831E-02
2348.873, 8.9122057E-02
2350.801, 8.9361541E-02
2352.729, 8.9724571E-02
2354.658, 9.0068817E-02
2356.586, 9.0267263E-02
2358.515, 9.0357408E-02
2360.443, 9.0575807E-02
2362.372, 9.0793923E-02
2364.300, 9.0617977E-02
2366.229, 9.0573363E-02
2368.157, 9.0855166E-02
2370.086, 9.0603396E-02
2372.014, 9.0475447E-02
2373.942, 9.0521932E-02
2375.871, 9.0185769E-02
2377.799, 8.9939192E-02
2379.728, 9.0072043E-02
2381.656, 8.9919589E-02
2383.585, 9.0029597E-02
2385.513, 9.0249471E-02
2387.442, 9.0226457E-02
2389.370, 9.0101518E-02
2391.299, 9.0206891E-02
2393.227, 9.0908930E-02
2395.156, 9.1201223E-02
2397.084, 9.0826303E-02
2399.012, 9.0932868E-02
2400.941, 9.1474362E-02
2402.869, 9.2005797E-02
2404.798, 9.1862410E-02
2406.726, 9.1606088E-02
2408.655, 9.1497518E-02
2410.583, 9.1325097E-02
2412.512, 9.1291361E-02
2414.440, 9.1457918E-02
2416.369, 9.1822833E-02
2418.297, 9.2415527E-02
2420.226, 9.2731386E-02
2422.154, 9.2535973E-02
2424.083, 9.1922387E-02
2426.011, 9.1367736E-02
2427.939, 9.1600597E-02
2429.868, 9.1987789E-02
2431.796, 9.2318468E-02
2433.725, 9.2850782E-02
2435.653, 9.2622869E-02
2437.582, 9.2606418E-02
2439.510, 9.2617244E-02
2441.439, 9.2652723E-02
2443.367, 9.3363412E-02
2445.296, 9.4339967E-02
2447.224, 9.4034329E-02
2449.153, 9.3263723E-02
2451.081, 9.3344137E-02
2453.010, 9.3472824E-02
2454.938, 9.3890257E-02
2456.866, 9.4352476E-02
2458.795, 9.4476521E-02
2460.723, 9.4156377E-02
2462.652, 9.3979813E-02
2464.580, 9.3855843E-02
2466.509, 9.4215848E-02
2468.437, 9.4678961E-02
2470.366, 9.4406962E-02
2472.294, 9.4339311E-02
2474.223, 9.4681263E-02
2476.151, 9.4600342E-02
2478.080, 9.4215557E-02
2480.008, 9.4243221E-02
2481.937, 9.4656870E-02
2483.865, 9.5215410E-02
2485.793, 9.5313281E-02
2487.722, 9.5369488E-02
2489.650, 9.5230967E-02
2491.579, 9.4973840E-02
2493.507, 9.5023282E-02
2495.436, 9.4956562E-02
2497.364, 9.5292203E-02
2499.293, 9.5133029E-02
2501.221, 9.5256299E-02
2503.150, 9.5838167E-02
2505.078, 9.6083529E-02
2507.007, 9.6136279E-02
2508.935, 9.6504427E-02
2510.864, 9.7137168E-02
2512.792, 9.6865490E-02
2514.720, 9.6089110E-02
2516.649, 9.5993869E-02
2518.577, 9.5942907E-02
2520.506, 9.5977962E-02
2522.434, 9.6250936E-02
2524.363, 9.6488513E-02
2526.291, 9.6643202E-02
2528.220, 9.6686088E-02
2530.148, 9.6826904E-02
2532.077, 9.7027652E-02
2534.005, 9.6801467E-02
2535.934, 9.6576728E-02
2537.862, 9.6700817E-02
2539.791, 9.7165667E-02
2541.719, 9.7909123E-02
2543.647, 9.7939588E-02
2545.576, 9.8030642E-02
2547.504, 9.8251283E-02
2549.433, 9.8504283E-02
2551.361, 9.8235860E-02
2553.290, 9.7997673E-02
2555.218, 9.8188303E-02
2557.147, 9.8440930E-02
2559.075, 9.8316208E-02
2561.004, 9.8183230E-02
2562.932, 9.8032720E-02
2564.861, 9.8286718E-02
2566.789, 9.8833837E-02
2568.718, 9.8793790E-02
2570.646, 9.8778144E-02
2572.574, 9.9005073E-02
2574.503, 9.9485941E-02
2576.431, 9.9800453E-02
2578.360, 9.9704273E-02
2580.288, 9.9318244E-02
2582.217, 9.9423327E-02
2584.145, 9.9784806E-02
2586.074, 9.9562943E-02
2588.002, 9.9760339E-02
2589.931, 9.9681057E-02
2591.859, 0.1001794
2593.788, 0.1008235
2595.716, 0.1011199
2597.645, 0.1009952
2599.573, 0.1010892
2601.501, 0.1013368
2603.430, 0.1014749
2605.358, 0.1014072
2607.287, 0.1014623
2609.215, 0.1013838
2611.144, 0.1010568
2613.072, 0.1014335
2615.001, 0.1015227
2616.929, 0.1014246
2618.858, 0.1020330
2620.786, 0.1025445
2622.715, 0.1023100
2624.643, 0.1023408
2626.572, 0.1028276
2628.500, 0.1028744
2630.428, 0.1027302
2632.357, 0.1027712
2634.285, 0.1029658
2636.214, 0.1030275
2638.142, 0.1029251
2640.071, 0.1029977
2641.999, 0.1030719
2643.928, 0.1032207
2645.856, 0.1035923
2647.785, 0.1038605
2649.713, 0.1037586
2651.642, 0.1036921
2653.570, 0.1039210
2655.499, 0.1043618
2657.427, 0.1045511
2659.355, 0.1044283
2661.284, 0.1046573
2663.212, 0.1046299
2665.141, 0.1043860
2667.069, 0.1043955
2668.998, 0.1048448
2670.926, 0.1051945
2672.855, 0.1051404
2674.783, 0.1050507
2676.712, 0.1049331
2678.640, 0.1053246
2680.569, 0.1056559
2682.497, 0.1055573
2684.426, 0.1057351
2686.354, 0.1059984
2688.282, 0.1058376
2690.211, 0.1062357
2692.139, 0.1064823
2694.068, 0.1063750
2695.996, 0.1065967
2697.925, 0.1066273
2699.853, 0.1067844
2701.782, 0.1067823
2703.710, 0.1068235
2705.639, 0.1071616
2707.567, 0.1071407
2709.496, 0.1070640
2711.424, 0.1072274
2713.353, 0.1072475
2715.281, 0.1077536
2717.209, 0.1080668
2719.138, 0.1078872
2721.066, 0.1082314
2722.995, 0.1086005
2724.923, 0.1088000
2726.852, 0.1085376
2728.780, 0.1085545
2730.709, 0.1088335
2732.637, 0.1088670
2734.566, 0.1090335
2736.494, 0.1092132
2738.423, 0.1093766
2740.351, 0.1091559
2742.280, 0.1092394
2744.208, 0.1098958
2746.136, 0.1102053
2748.065, 0.1101894
2749.993, 0.1103788
2751.922, 0.1108920
2753.850, 0.1114182
2755.779, 0.1116669
2757.707, 0.1116368
2759.636, 0.1115875
2761.564, 0.1114990
2763.493, 0.1115092
2765.421, 0.1122303
2767.350, 0.1127804
2769.278, 0.1131545
2771.207, 0.1131318
2773.135, 0.1131390
2775.063, 0.1129685
2776.992, 0.1129302
2778.920, 0.1132013
2780.849, 0.1135477
2782.777, 0.1138562
2784.706, 0.1139644
2786.634, 0.1142742
2788.563, 0.1146860
2790.491, 0.1148138
2792.420, 0.1150537
2794.348, 0.1150492
2796.277, 0.1147527
2798.205, 0.1151236
2800.134, 0.1158478
2802.062, 0.1164149
2803.990, 0.1166687
2805.919, 0.1168184
2807.847, 0.1172187
2809.776, 0.1172628
2811.704, 0.1173217
2813.633, 0.1177263
2815.561, 0.1180561
2817.490, 0.1181191
2819.418, 0.1184757
2821.347, 0.1188142
2823.275, 0.1187830
2825.204, 0.1190531
2827.132, 0.1191323
2829.061, 0.1194727
2830.989, 0.1202896
2832.917, 0.1207028
2834.846, 0.1207362
2836.774, 0.1209872
2838.703, 0.1217474
2840.631, 0.1222836
2842.560, 0.1225056
2844.488, 0.1226986
2846.417, 0.1231171
2848.345, 0.1229348
2850.274, 0.1232243
2852.202, 0.1234578
2854.131, 0.1235629
2856.059, 0.1238209
2857.988, 0.1240110
2859.916, 0.1246037
2861.844, 0.1249769
2863.773, 0.1250657
2865.701, 0.1252631
2867.630, 0.1254339
2869.558, 0.1256995
2871.487, 0.1260773
2873.415, 0.1263313
2875.344, 0.1270346
2877.272, 0.1273134
2879.201, 0.1276350
2881.129, 0.1283842
2883.058, 0.1287661
2884.986, 0.1286952
2886.915, 0.1289627
2888.843, 0.1296401
2890.771, 0.1303398
2892.700, 0.1306232
2894.628, 0.1311237
2896.557, 0.1313252
2898.485, 0.1314988
2900.414, 0.1321212
2902.342, 0.1324913
2904.271, 0.1330062
2906.199, 0.1335361
2908.128, 0.1340908
2910.056, 0.1345940
2911.985, 0.1350386
2913.913, 0.1353238
2915.842, 0.1352774
2917.770, 0.1356515
2919.698, 0.1358948
2921.627, 0.1362793
2923.555, 0.1365613
2925.484, 0.1368113
2927.412, 0.1369764
2929.341, 0.1368421
2931.269, 0.1366296
2933.198, 0.1367196
2935.126, 0.1369546
2937.055, 0.1372333
2938.983, 0.1374534
2940.912, 0.1377791
2942.840, 0.1384677
2944.769, 0.1392375
2946.697, 0.1391854
2948.625, 0.1391129
2950.554, 0.1399887
2952.482, 0.1408506
2954.411, 0.1412345
2956.339, 0.1416867
2958.268, 0.1424309
2960.196, 0.1421825
2962.125, 0.1420926
2964.053, 0.1423657
2965.982, 0.1427096
2967.910, 0.1430955
2969.839, 0.1432604
2971.767, 0.1438989
2973.696, 0.1442211
2975.624, 0.1441380
2977.552, 0.1444462
2979.481, 0.1450877
2981.409, 0.1450071
2983.338, 0.1454180
2985.266, 0.1463900
2987.195, 0.1469621
2989.123, 0.1468118
2991.052, 0.1470886
2992.980, 0.1479465
2994.909, 0.1484127
2996.837, 0.1487667
2998.766, 0.1490451
3000.694, 0.1493704
3002.623, 0.1494722
3004.551, 0.1494858
3006.479, 0.1501864
3008.408, 0.1513152
3010.336, 0.1519180
3012.265, 0.1523759
3014.193, 0.1530407
3016.122, 0.1535463
3018.050, 0.1536115
3019.979, 0.1540696
3021.907, 0.1547783
3023.836, 0.1545719
3025.764, 0.1542370
3027.693, 0.1548969
3029.621, 0.1556933
3031.550, 0.1562271
3033.478, 0.1562139
3035.406, 0.1565024
3037.335, 0.1573712
3039.263, 0.1579347
3041.192, 0.1578329
3043.120, 0.1583638
3045.049, 0.1589299
3046.977, 0.1591528
3048.906, 0.1595468
3050.834, 0.1599555
3052.763, 0.1600742
3054.691, 0.1596933
3056.620, 0.1593459
3058.548, 0.1598314
3060.477, 0.1607396
3062.405, 0.1613836
3064.333, 0.1610256
3066.262, 0.1608355
3068.190, 0.1613744
3070.119, 0.1617403
3072.047, 0.1621553
3073.976, 0.1629128
3075.904, 0.1630325
3077.833, 0.1628968
3079.761, 0.1635177
3081.690, 0.1647716
3083.618, 0.1655650
3085.547, 0.1656414
3087.475, 0.1653699
3089.404, 0.1657272
3091.332, 0.1662485
3093.260, 0.1667553
3095.189, 0.1669592
3097.117, 0.1663578
3099.046, 0.1660205
3100.974, 0.1652753
3102.903, 0.1645577
3104.831, 0.1639183
3106.760, 0.1630878
3108.688, 0.1622446
3110.617, 0.1611027
3112.545, 0.1593537
3114.474, 0.1579973
3116.402, 0.1570203
3118.331, 0.1559544
3120.259, 0.1551284
3122.188, 0.1547079
3124.116, 0.1538443
3126.044, 0.1525423
3127.973, 0.1517086
3129.901, 0.1509306
3131.830, 0.1499840
3133.758, 0.1491910
3135.687, 0.1490697
3137.615, 0.1485462
3139.544, 0.1471952
3141.472, 0.1459388
3143.401, 0.1452888
3145.329, 0.1445316
3147.258, 0.1438473
3149.186, 0.1436633
3151.115, 0.1427909
3153.043, 0.1420189
3154.971, 0.1411273
3156.900, 0.1394287
3158.828, 0.1376192
3160.757, 0.1362027
3162.685, 0.1357122
3164.614, 0.1352124
3166.542, 0.1338305
3168.471, 0.1328863
3170.399, 0.1319004
3172.328, 0.1307470
3174.256, 0.1298659
3176.185, 0.1286516
3178.113, 0.1275445
3180.042, 0.1264489
3181.970, 0.1248480
3183.898, 0.1233338
3185.827, 0.1227926
3187.755, 0.1220687
3189.684, 0.1209316
3191.612, 0.1197305
3193.541, 0.1195415
3195.469, 0.1186710
3197.398, 0.1173990
3199.326, 0.1167641
3201.255, 0.1159303
3203.183, 0.1149996
3205.112, 0.1140818
3207.040, 0.1129629
3208.969, 0.1117074
3210.897, 0.1107331
3212.825, 0.1102160
3214.754, 0.1091056
3216.682, 0.1077627
3218.611, 0.1067573
3220.539, 0.1062651
3222.468, 0.1054793
3224.396, 0.1047425
3226.325, 0.1039573
3228.253, 0.1027032
3230.182, 0.1018350
3232.110, 0.1015680
3234.039, 0.1010857
3235.967, 0.1004203
3237.896, 9.9851191E-02
3239.824, 9.9367879E-02
3241.752, 9.8438524E-02
3243.681, 9.7353242E-02
3245.609, 9.6987262E-02
3247.538, 9.6390329E-02
3249.466, 9.5282383E-02
3251.395, 9.4146334E-02
3253.323, 9.4189256E-02
3255.252, 9.4132423E-02
3257.180, 9.3382917E-02
3259.109, 9.2352770E-02
3261.037, 9.1740511E-02
3262.966, 9.1308087E-02
3264.894, 9.0749159E-02
3266.823, 9.0010077E-02
3268.751, 8.9229278E-02
3270.679, 8.8794053E-02
3272.608, 8.8868693E-02
3274.536, 8.8616133E-02
3276.465, 8.8121928E-02
3278.393, 8.7683842E-02
3280.322, 8.6846098E-02
3282.250, 8.6112492E-02
3284.179, 8.6079597E-02
3286.107, 8.5721388E-02
3288.036, 8.4916033E-02
3289.964, 8.4932983E-02
3291.893, 8.5141502E-02
3293.821, 8.4510423E-02
3295.750, 8.3853677E-02
3297.678, 8.3533563E-02
3299.606, 8.2824811E-02
3301.535, 8.2783751E-02
3303.463, 8.3164163E-02
3305.392, 8.3013982E-02
3307.320, 8.2440503E-02
3309.249, 8.2504317E-02
3311.177, 8.2327783E-02
3313.106, 8.2022034E-02
3315.034, 8.1960477E-02
3316.963, 8.1474960E-02
3318.891, 8.1166007E-02
3320.820, 8.1139848E-02
3322.748, 8.1543513E-02
3324.677, 8.1196398E-02
3326.605, 8.0399662E-02
3328.533, 8.0527946E-02
3330.462, 8.0371603E-02
3332.390, 7.9883464E-02
3334.319, 8.0088608E-02
3336.247, 8.0509447E-02
3338.176, 8.0093950E-02
3340.104, 7.9460837E-02
3342.033, 7.9320222E-02
3343.961, 7.9242028E-02
3345.890, 7.9130381E-02
3347.818, 7.9481848E-02
3349.747, 7.9710133E-02
3351.675, 7.9491757E-02
3353.604, 7.9402640E-02
3355.532, 7.9503343E-02
3357.460, 7.9994857E-02
3359.389, 7.9957381E-02
3361.317, 7.9546429E-02
3363.246, 7.8718737E-02
3365.174, 7.8502797E-02
3367.103, 7.8075141E-02
3369.031, 7.8087911E-02
3370.960, 7.8645863E-02
3372.888, 7.8901768E-02
3374.817, 7.9131767E-02
3376.745, 7.9240523E-02
3378.674, 7.9787374E-02
3380.602, 7.9354107E-02
3382.531, 7.8687839E-02
3384.459, 7.8870058E-02
3386.387, 7.9148829E-02
3388.316, 7.8852139E-02
3390.244, 7.8785278E-02
3392.173, 7.8568511E-02
3394.101, 7.9117939E-02
3396.030, 8.0282047E-02
3397.958, 8.0197833E-02
3399.887, 7.9745010E-02
3401.815, 7.9456747E-02
3403.744, 7.9069093E-02
3405.672, 7.9873741E-02
3407.601, 8.0530107E-02
3409.529, 8.0076493E-02
3411.458, 7.9968572E-02
3413.386, 7.9942644E-02
3415.314, 7.9560481E-02
3417.243, 7.8861147E-02
3419.171, 7.9303399E-02
3421.100, 7.9810344E-02
3423.028, 7.9581209E-02
3424.957, 8.0118053E-02
3426.885, 8.0302142E-02
3428.814, 7.9590157E-02
3430.742, 7.8528412E-02
3432.671, 7.8867041E-02
3434.599, 7.9819553E-02
3436.528, 7.9932854E-02
3438.456, 8.0392130E-02
3440.385, 8.0563009E-02
3442.313, 7.9986781E-02
3444.241, 7.9995543E-02
3446.170, 8.0597192E-02
3448.098, 8.0610760E-02
3450.027, 8.0719918E-02
3451.955, 8.0831699E-02
3453.884, 8.0700129E-02
3455.812, 8.1017569E-02
3457.741, 8.1039771E-02
3459.669, 8.1212029E-02
3461.598, 8.0980152E-02
3463.526, 8.0657877E-02
3465.455, 8.1110969E-02
3467.383, 8.1096113E-02
3469.312, 8.1459127E-02
3471.240, 8.1577897E-02
3473.168, 8.0530234E-02
3475.097, 8.0671757E-02
3477.025, 8.0878712E-02
3478.954, 8.0625400E-02
3480.882, 8.1244864E-02
3482.811, 8.1241347E-02
3484.739, 8.1051350E-02
3486.668, 8.1302159E-02
3488.596, 8.1082903E-02
3490.525, 8.1370369E-02
3492.453, 8.1858903E-02
3494.382, 8.1537917E-02
3496.310, 8.1874020E-02
3498.239, 8.1832893E-02
3500.167, 8.2130343E-02
3502.095, 8.2332671E-02
3504.024, 8.2555249E-02
3505.952, 8.2506083E-02
3507.881, 8.2278609E-02
3509.809, 8.2334243E-02
3511.738, 8.2136907E-02
3513.666, 8.2378574E-02
3515.595, 8.2739256E-02
3517.523, 8.2430772E-02
3519.452, 8.2094081E-02
3521.380, 8.1703819E-02
3523.309, 8.2057767E-02
3525.237, 8.2614802E-02
3527.166, 8.2640253E-02
3529.094, 8.2357667E-02
3531.022, 8.2106397E-02
3532.951, 8.2591757E-02
3534.879, 8.3318308E-02
3536.808, 8.3741449E-02
3538.736, 8.3921976E-02
3540.665, 8.3698727E-02
3542.593, 8.3527781E-02
3544.522, 8.4215872E-02
3546.450, 8.4126227E-02
3548.379, 8.3348133E-02
3550.307, 8.3004199E-02
3552.236, 8.3119050E-02
3554.164, 8.3611123E-02
3556.093, 8.3644539E-02
3558.021, 8.3755873E-02
3559.949, 8.4246330E-02
3561.878, 8.4087178E-02
3563.806, 8.3836041E-02
3565.735, 8.4037840E-02
3567.663, 8.3697490E-02
3569.592, 8.3483197E-02
3571.520, 8.3249189E-02
3573.449, 8.3074763E-02
3575.377, 8.3299316E-02
3577.306, 8.4297143E-02
3579.234, 8.4413260E-02
3581.163, 8.4283501E-02
3583.091, 8.4615968E-02
3585.020, 8.4615007E-02
3586.948, 8.4270909E-02
3588.876, 8.4151886E-02
3590.805, 8.3817907E-02
3592.733, 8.3780460E-02
3594.662, 8.3847977E-02
3596.590, 8.3446823E-02
3598.519, 8.3478473E-02
3600.447, 8.3796218E-02
3602.376, 8.4159970E-02
3604.304, 8.4016569E-02
3606.233, 8.3907500E-02
3608.161, 8.4400140E-02
3610.090, 8.4283419E-02
3612.018, 8.3706930E-02
3613.947, 8.4281608E-02
3615.875, 8.5295878E-02
3617.803, 8.5061327E-02
3619.732, 8.5078619E-02
3621.660, 8.4924757E-02
3623.589, 8.4699437E-02
3625.517, 8.4301516E-02
3627.446, 8.4159173E-02
3629.374, 8.4541567E-02
3631.303, 8.5416421E-02
3633.231, 8.5179187E-02
3635.160, 8.4648423E-02
3637.088, 8.4906921E-02
3639.017, 8.4856853E-02
3640.945, 8.5202739E-02
3642.874, 8.5804828E-02
3644.802, 8.5552223E-02
3646.730, 8.6276308E-02
3648.659, 8.6999543E-02
3650.587, 8.6056978E-02
3652.516, 8.5737526E-02
3654.444, 8.5566983E-02
3656.373, 8.5326001E-02
3658.301, 8.6197741E-02
3660.230, 8.6990193E-02
3662.158, 8.6544313E-02
3664.087, 8.5267529E-02
3666.015, 8.4934801E-02
3667.944, 8.6689591E-02
3669.872, 8.6757123E-02
3671.801, 8.5452653E-02
3673.729, 8.5508361E-02
3675.657, 8.6610273E-02
3677.586, 8.7123677E-02
3679.514, 8.6972862E-02
3681.443, 8.7050959E-02
3683.371, 8.6708888E-02
3685.300, 8.6124927E-02
3687.228, 8.6564198E-02
3689.157, 8.6633436E-02
3691.085, 8.7226063E-02
3693.014, 8.7831661E-02
3694.942, 8.7653190E-02
3696.871, 8.7291643E-02
3698.799, 8.7350711E-02
3700.728, 8.7256894E-02
3702.656, 8.7561652E-02
3704.584, 8.6268388E-02
3706.513, 8.6214513E-02
3708.441, 8.6864837E-02
3710.370, 8.5964613E-02
3712.298, 8.6495899E-02
3714.227, 8.6912148E-02
3716.155, 8.6384267E-02
3718.084, 8.6584382E-02
3720.012, 8.6990677E-02
3721.941, 8.6670257E-02
3723.869, 8.6884789E-02
3725.798, 8.8085078E-02
3727.726, 8.7748639E-02
3729.655, 8.7369472E-02
3731.583, 8.8532709E-02
3733.511, 8.8952132E-02
3735.440, 8.8202991E-02
3737.368, 8.7463848E-02
3739.297, 8.8182569E-02
3741.225, 8.8434517E-02
3743.154, 8.8392086E-02
3745.082, 8.9233987E-02
3747.011, 8.9182891E-02
3748.939, 8.8548757E-02
3750.868, 8.8943347E-02
3752.796, 9.0009138E-02
3754.725, 9.0209298E-02
3756.653, 8.9520849E-02
3758.582, 8.9643061E-02
3760.510, 8.9536726E-02
3762.438, 8.8692643E-02
3764.367, 8.8350832E-02
3766.295, 8.8660091E-02
3768.224, 8.8868819E-02
3770.152, 8.8769183E-02
3772.081, 8.8231891E-02
3774.009, 8.8406183E-02
3775.938, 8.8831499E-02
3777.866, 8.8592507E-02
3779.795, 8.8144332E-02
3781.723, 8.8812716E-02
3783.652, 8.9174673E-02
3785.580, 8.9697637E-02
3787.509, 9.0516873E-02
3789.437, 8.9775987E-02
3791.365, 8.9034863E-02
3793.294, 8.9491896E-02
3795.222, 8.9543447E-02
3797.151, 8.9960016E-02
3799.079, 9.0539187E-02
3801.008, 9.1055237E-02
3802.936, 9.1342106E-02
3804.865, 9.1030389E-02
3806.793, 9.0167008E-02
3808.722, 9.0277858E-02
3810.650, 9.0629287E-02
3812.579, 9.0777658E-02
3814.507, 8.9775212E-02
3816.436, 8.9011073E-02
3818.364, 8.9504808E-02
3820.292, 9.0167247E-02
3822.221, 9.0607032E-02
3824.149, 9.0659901E-02
3826.078, 9.0624347E-02
3828.006, 9.0365477E-02
3829.935, 9.0317301E-02
3831.863, 9.0804197E-02
3833.792, 9.1467284E-02
3835.720, 9.0927973E-02
3837.649, 9.0125538E-02
3839.577, 8.9630187E-02
3841.506, 8.9972652E-02
3843.434, 9.0014957E-02
3845.363, 8.9277580E-02
3847.291, 9.0034291E-02
3849.219, 9.0595283E-02
3851.148, 9.1120660E-02
3853.076, 9.1566123E-02
3855.005, 9.1830283E-02
3856.933, 9.1369674E-02
3858.862, 9.0769291E-02
3860.790, 9.1152214E-02
3862.719, 9.1235638E-02
3864.647, 9.0691537E-02
3866.576, 9.0581477E-02
3868.504, 8.9956798E-02
3870.433, 8.9753091E-02
3872.361, 9.0621449E-02
3874.290, 9.1527537E-02
3876.218, 9.1420263E-02
3878.146, 9.1060340E-02
3880.075, 9.0374790E-02
3882.003, 8.9940824E-02
3883.932, 9.1670208E-02
3885.860, 9.2188612E-02
3887.789, 9.0379968E-02
3889.717, 9.0365767E-02
3891.646, 9.1571443E-02
3893.574, 9.2156127E-02
3895.503, 9.1925628E-02
3897.431, 9.1999337E-02
3899.360, 9.1889016E-02
3901.288, 9.2585467E-02
3903.217, 9.3235143E-02
3905.145, 9.2475168E-02
3907.073, 9.1798678E-02
3909.002, 9.1131039E-02
3910.930, 9.0984918E-02
3912.859, 9.1641031E-02
3914.787, 9.2198737E-02
3916.716, 9.2164442E-02
3918.644, 9.2426181E-02
3920.573, 9.2409991E-02
3922.501, 9.2213027E-02
3924.430, 9.2024148E-02
3926.358, 9.1902949E-02
3928.287, 9.1960639E-02
3930.215, 9.2043810E-02
3932.144, 9.2198573E-02
3934.072, 9.2429787E-02
3936.000, 9.2190817E-02
3937.929, 9.2507347E-02
3939.857, 9.2399828E-02
3941.786, 9.1819473E-02
3943.714, 9.2607483E-02
3945.643, 9.2763893E-02
3947.571, 9.2171490E-02
3949.500, 9.2515349E-02
3951.428, 9.3109772E-02
3953.357, 9.3066908E-02
3955.285, 9.3538083E-02
3957.214, 9.2746161E-02
3959.142, 9.1812432E-02
3961.071, 9.2226967E-02
3962.999, 9.2409737E-02
3964.927, 9.1840707E-02
3966.856, 9.2184968E-02
3968.784, 9.3337737E-02
3970.713, 9.3285941E-02
3972.641, 9.2371874E-02
3974.570, 9.2323512E-02
3976.498, 9.2187747E-02
3978.427, 9.2356503E-02
3980.355, 9.2804126E-02
3982.284, 9.2867687E-02
3984.212, 9.2408553E-02
3986.141, 9.3490779E-02
3988.069, 9.4269983E-02
3989.998, 9.3972407E-02
3991.926, 9.3465261E-02
3993.854, 9.2968233E-02
3995.783, 9.3308084E-02
3997.711, 9.4014093E-02
3999.640, 9.4014093E-02
##END=



