##NAMES=Muscovite
##RRUFFID=R050080
##IDEAL CHEMISTRY=KAl_2_(Si_3_Al)O_10_(OH)_2_
##LOCALITY=Brazil
##OWNER=RRUFF
##SOURCE=Rock Currier
##DESCRIPTION=Tan colored micaceous crystals of 2M1 polytype
##STATUS=The identification of this mineral has been confirmed by X-ray diffraction and chemical analysis
##URL=rruff.info/R050080
##MEASURED CHEMISTRY=(K_0.93_Na_0.07_)(Al_0.99_Fe^3+^_0.01_)_2_(Si_3.00_Al_1.00_)O_10_((OH)_0.97_F_0.03_)_2_
3.991926e+002, 2.173782e-001
4.011211e+002, 2.297778e-001
4.030496e+002, 2.308825e-001
4.049780e+002, 2.335187e-001
4.069065e+002, 2.358281e-001
4.088350e+002, 2.368033e-001
4.107634e+002, 2.361879e-001
4.126919e+002, 2.343850e-001
4.146204e+002, 2.326526e-001
4.165488e+002, 2.328241e-001
4.184773e+002, 2.345955e-001
4.204058e+002, 2.386797e-001
4.223342e+002, 2.429722e-001
4.242627e+002, 2.431102e-001
4.261912e+002, 2.428395e-001
4.281196e+002, 2.474706e-001
4.300481e+002, 2.506324e-001
4.319766e+002, 2.519411e-001
4.339050e+002, 2.550432e-001
4.358335e+002, 2.584481e-001
4.377620e+002, 2.595521e-001
4.396904e+002, 2.600387e-001
4.416189e+002, 2.623975e-001
4.435474e+002, 2.650805e-001
4.454758e+002, 2.667621e-001
4.474043e+002, 2.705195e-001
4.493328e+002, 2.741603e-001
4.512612e+002, 2.786080e-001
4.531897e+002, 2.801275e-001
4.551182e+002, 2.796920e-001
4.570466e+002, 2.789946e-001
4.589751e+002, 2.770373e-001
4.609036e+002, 2.756077e-001
4.628320e+002, 2.737939e-001
4.647605e+002, 2.706422e-001
4.666890e+002, 2.668045e-001
4.686174e+002, 2.612162e-001
4.705459e+002, 2.562225e-001
4.724744e+002, 2.506265e-001
4.744028e+002, 2.434645e-001
4.763313e+002, 2.381922e-001
4.782598e+002, 2.343211e-001
4.801882e+002, 2.297559e-001
4.821167e+002, 2.245792e-001
4.840452e+002, 2.188908e-001
4.859736e+002, 2.127130e-001
4.879021e+002, 2.075747e-001
4.898306e+002, 2.027436e-001
4.917590e+002, 1.976538e-001
4.936875e+002, 1.938748e-001
4.956160e+002, 1.914692e-001
4.975444e+002, 1.895427e-001
4.994729e+002, 1.891069e-001
5.014014e+002, 1.901340e-001
5.033298e+002, 1.905186e-001
5.052583e+002, 1.923598e-001
5.071868e+002, 1.962860e-001
5.091152e+002, 2.005009e-001
5.110437e+002, 2.051129e-001
5.129722e+002, 2.109422e-001
5.149006e+002, 2.180149e-001
5.168291e+002, 2.262405e-001
5.187576e+002, 2.331767e-001
5.206860e+002, 2.396132e-001
5.226145e+002, 2.462333e-001
5.245430e+002, 2.529831e-001
5.264714e+002, 2.578578e-001
5.283999e+002, 2.596343e-001
5.303284e+002, 2.576658e-001
5.322568e+002, 2.531558e-001
5.341853e+002, 2.477243e-001
5.361138e+002, 2.414633e-001
5.380422e+002, 2.337827e-001
5.399707e+002, 2.260541e-001
5.418992e+002, 2.187350e-001
5.438276e+002, 2.112691e-001
5.457561e+002, 2.046452e-001
5.476846e+002, 1.979807e-001
5.496130e+002, 1.920971e-001
5.515415e+002, 1.865692e-001
5.534700e+002, 1.800872e-001
5.553984e+002, 1.747738e-001
5.573269e+002, 1.700766e-001
5.592554e+002, 1.652232e-001
5.611838e+002, 1.604470e-001
5.631123e+002, 1.564623e-001
5.650408e+002, 1.533420e-001
5.669692e+002, 1.509941e-001
5.688977e+002, 1.492038e-001
5.708262e+002, 1.482501e-001
5.727546e+002, 1.484699e-001
5.746831e+002, 1.488467e-001
5.766116e+002, 1.491814e-001
5.785400e+002, 1.500099e-001
5.804685e+002, 1.507805e-001
5.823970e+002, 1.512079e-001
5.843254e+002, 1.512775e-001
5.862539e+002, 1.509280e-001
5.881824e+002, 1.506363e-001
5.901108e+002, 1.498445e-001
5.920393e+002, 1.497053e-001
5.939678e+002, 1.502441e-001
5.958962e+002, 1.505692e-001
5.978247e+002, 1.509495e-001
5.997532e+002, 1.517338e-001
6.016816e+002, 1.525194e-001
6.036101e+002, 1.539364e-001
6.055386e+002, 1.559467e-001
6.074670e+002, 1.579176e-001
6.093955e+002, 1.600363e-001
6.113240e+002, 1.615722e-001
6.132524e+002, 1.620389e-001
6.151809e+002, 1.626684e-001
6.171094e+002, 1.627337e-001
6.190378e+002, 1.619055e-001
6.209663e+002, 1.606684e-001
6.228948e+002, 1.585089e-001
6.248232e+002, 1.561667e-001
6.267517e+002, 1.546353e-001
6.286802e+002, 1.537907e-001
6.306086e+002, 1.542976e-001
6.325371e+002, 1.566834e-001
6.344656e+002, 1.603133e-001
6.363940e+002, 1.636655e-001
6.383225e+002, 1.663387e-001
6.402510e+002, 1.680362e-001
6.421794e+002, 1.693383e-001
6.441079e+002, 1.699084e-001
6.460364e+002, 1.700560e-001
6.479648e+002, 1.699890e-001
6.498933e+002, 1.697825e-001
6.518218e+002, 1.696996e-001
6.537502e+002, 1.696372e-001
6.556787e+002, 1.689261e-001
6.576072e+002, 1.674584e-001
6.595356e+002, 1.664131e-001
6.614641e+002, 1.660361e-001
6.633926e+002, 1.658602e-001
6.653210e+002, 1.649029e-001
6.672495e+002, 1.637967e-001
6.691780e+002, 1.624636e-001
6.711064e+002, 1.612929e-001
6.730349e+002, 1.604263e-001
6.749634e+002, 1.599334e-001
6.768918e+002, 1.597122e-001
6.788203e+002, 1.591084e-001
6.807488e+002, 1.581831e-001
6.826772e+002, 1.572491e-001
6.846057e+002, 1.564866e-001
6.865342e+002, 1.557270e-001
6.884626e+002, 1.543454e-001
6.903911e+002, 1.530813e-001
6.923196e+002, 1.523443e-001
6.942480e+002, 1.512820e-001
6.961765e+002, 1.495855e-001
6.981050e+002, 1.479184e-001
7.000334e+002, 1.464200e-001
7.019619e+002, 1.450636e-001
7.038904e+002, 1.439245e-001
7.058188e+002, 1.428678e-001
7.077473e+002, 1.417741e-001
7.096758e+002, 1.410227e-001
7.116042e+002, 1.405723e-001
7.135327e+002, 1.403787e-001
7.154612e+002, 1.402476e-001
7.173896e+002, 1.399329e-001
7.193181e+002, 1.401753e-001
7.212466e+002, 1.402244e-001
7.231750e+002, 1.396459e-001
7.251035e+002, 1.389552e-001
7.270320e+002, 1.380669e-001
7.289604e+002, 1.371875e-001
7.308889e+002, 1.366906e-001
7.328174e+002, 1.367857e-001
7.347458e+002, 1.369579e-001
7.366743e+002, 1.371571e-001
7.386028e+002, 1.376990e-001
7.405313e+002, 1.385233e-001
7.424597e+002, 1.393334e-001
7.443882e+002, 1.398481e-001
7.463167e+002, 1.398650e-001
7.482451e+002, 1.392320e-001
7.501736e+002, 1.377400e-001
7.521021e+002, 1.362019e-001
7.540305e+002, 1.342910e-001
7.559590e+002, 1.314311e-001
7.578875e+002, 1.280934e-001
7.598159e+002, 1.247654e-001
7.617444e+002, 1.215732e-001
7.636729e+002, 1.181366e-001
7.656013e+002, 1.146396e-001
7.675298e+002, 1.114509e-001
7.694583e+002, 1.086576e-001
7.713867e+002, 1.061405e-001
7.733152e+002, 1.039791e-001
7.752437e+002, 1.025366e-001
7.771721e+002, 1.014573e-001
7.791006e+002, 1.009002e-001
7.810291e+002, 1.004047e-001
7.829575e+002, 9.991060e-002
7.848860e+002, 9.951456e-002
7.868145e+002, 9.963748e-002
7.887429e+002, 9.991144e-002
7.906714e+002, 1.004198e-001
7.925999e+002, 1.011880e-001
7.945283e+002, 1.022330e-001
7.964568e+002, 1.036035e-001
7.983853e+002, 1.046402e-001
8.003137e+002, 1.052191e-001
8.022422e+002, 1.050814e-001
8.041707e+002, 1.047388e-001
8.060991e+002, 1.038589e-001
8.080276e+002, 1.024622e-001
8.099561e+002, 1.012474e-001
8.118845e+002, 1.003027e-001
8.138130e+002, 9.934066e-002
8.157415e+002, 9.832399e-002
8.176699e+002, 9.757706e-002
8.195984e+002, 9.726661e-002
8.215269e+002, 9.756659e-002
8.234553e+002, 9.805509e-002
8.253838e+002, 9.805278e-002
8.273123e+002, 9.707995e-002
8.292407e+002, 9.565187e-002
8.311692e+002, 9.360415e-002
8.330977e+002, 9.074116e-002
8.350261e+002, 8.734668e-002
8.369546e+002, 8.367994e-002
8.388831e+002, 8.027637e-002
8.408115e+002, 7.743519e-002
8.427400e+002, 7.516956e-002
8.446685e+002, 7.376279e-002
8.465969e+002, 7.313912e-002
8.485254e+002, 7.293019e-002
8.504539e+002, 7.303327e-002
8.523823e+002, 7.335528e-002
8.543108e+002, 7.391186e-002
8.562393e+002, 7.467292e-002
8.581677e+002, 7.552254e-002
8.600962e+002, 7.660967e-002
8.620247e+002, 7.773728e-002
8.639531e+002, 7.959799e-002
8.658816e+002, 8.168043e-002
8.678101e+002, 8.399446e-002
8.697385e+002, 8.658052e-002
8.716670e+002, 8.930056e-002
8.735955e+002, 9.173054e-002
8.755239e+002, 9.411281e-002
8.774524e+002, 9.654571e-002
8.793809e+002, 9.878517e-002
8.813093e+002, 1.008497e-001
8.832378e+002, 1.030346e-001
8.851663e+002, 1.059710e-001
8.870947e+002, 1.090183e-001
8.890232e+002, 1.121926e-001
8.909517e+002, 1.164553e-001
8.928801e+002, 1.213491e-001
8.948085e+002, 1.267957e-001
8.967370e+002, 1.330843e-001
8.986655e+002, 1.398890e-001
9.005939e+002, 1.473659e-001
9.025224e+002, 1.544967e-001
9.044509e+002, 1.611131e-001
9.063793e+002, 1.670637e-001
9.083078e+002, 1.718413e-001
9.102363e+002, 1.759531e-001
9.121647e+002, 1.792939e-001
9.140932e+002, 1.818098e-001
9.160217e+002, 1.837656e-001
9.179501e+002, 1.859287e-001
9.198786e+002, 1.883820e-001
9.218071e+002, 1.908229e-001
9.237355e+002, 1.929806e-001
9.256640e+002, 1.950902e-001
9.275925e+002, 1.965043e-001
9.295209e+002, 1.974115e-001
9.314494e+002, 1.975051e-001
9.333779e+002, 1.963820e-001
9.353063e+002, 1.948874e-001
9.372348e+002, 1.931889e-001
9.391633e+002, 1.914521e-001
9.410917e+002, 1.900320e-001
9.430202e+002, 1.887050e-001
9.449487e+002, 1.880344e-001
9.468771e+002, 1.883074e-001
9.488056e+002, 1.894827e-001
9.507341e+002, 1.919959e-001
9.526625e+002, 1.958224e-001
9.545910e+002, 2.013693e-001
9.565195e+002, 2.083619e-001
9.584479e+002, 2.163351e-001
9.603764e+002, 2.253398e-001
9.623049e+002, 2.352221e-001
9.642333e+002, 2.457287e-001
9.661618e+002, 2.564283e-001
9.680903e+002, 2.674213e-001
9.700187e+002, 2.780153e-001
9.719472e+002, 2.873943e-001
9.738757e+002, 2.949384e-001
9.758041e+002, 3.001648e-001
9.777326e+002, 3.036840e-001
9.796611e+002, 3.055316e-001
9.815895e+002, 3.056086e-001
9.835180e+002, 3.039095e-001
9.854465e+002, 3.009146e-001
9.873749e+002, 2.973944e-001
9.893034e+002, 2.935661e-001
9.912319e+002, 2.890794e-001
9.931603e+002, 2.848018e-001
9.950888e+002, 2.809007e-001
9.970173e+002, 2.772072e-001
9.989457e+002, 2.737195e-001
1.000874e+003, 2.706639e-001
1.002803e+003, 2.677347e-001
1.004731e+003, 2.647045e-001
1.006660e+003, 2.618877e-001
1.008588e+003, 2.593144e-001
1.010517e+003, 2.562850e-001
1.012445e+003, 2.528939e-001
1.014373e+003, 2.496160e-001
1.016302e+003, 2.462175e-001
1.018230e+003, 2.424370e-001
1.020159e+003, 2.381248e-001
1.022087e+003, 2.335601e-001
1.024016e+003, 2.289200e-001
1.025944e+003, 2.238309e-001
1.027873e+003, 2.182018e-001
1.029801e+003, 2.119050e-001
1.031730e+003, 2.048079e-001
1.033658e+003, 1.969543e-001
1.035587e+003, 1.883002e-001
1.037515e+003, 1.787283e-001
1.039444e+003, 1.684121e-001
1.041372e+003, 1.581602e-001
1.043301e+003, 1.487394e-001
1.045229e+003, 1.406476e-001
1.047157e+003, 1.342567e-001
1.049086e+003, 1.297477e-001
1.051014e+003, 1.271209e-001
1.052943e+003, 1.264864e-001
1.054871e+003, 1.265957e-001
1.056800e+003, 1.269249e-001
1.058728e+003, 1.270877e-001
1.060657e+003, 1.268989e-001
1.062585e+003, 1.262499e-001
1.064514e+003, 1.247002e-001
1.066442e+003, 1.219783e-001
1.068371e+003, 1.187590e-001
1.070299e+003, 1.151766e-001
1.072228e+003, 1.113568e-001
1.074156e+003, 1.073735e-001
1.076084e+003, 1.030142e-001
1.078013e+003, 9.859859e-002
1.079941e+003, 9.439124e-002
1.081870e+003, 9.028444e-002
1.083798e+003, 8.622611e-002
1.085727e+003, 8.205529e-002
1.087655e+003, 7.807425e-002
1.089584e+003, 7.464523e-002
1.091512e+003, 7.142407e-002
1.093441e+003, 6.833119e-002
1.095369e+003, 6.554426e-002
1.097298e+003, 6.302891e-002
1.099226e+003, 6.072915e-002
1.101155e+003, 5.838677e-002
1.103083e+003, 5.653080e-002
1.105011e+003, 5.478165e-002
1.106940e+003, 5.293804e-002
1.108868e+003, 5.083936e-002
1.110797e+003, 4.845028e-002
1.112725e+003, 4.613956e-002
1.114654e+003, 4.406960e-002
1.116582e+003, 4.181236e-002
1.118511e+003, 3.947486e-002
1.120439e+003, 3.737881e-002
1.122368e+003, 3.542215e-002
1.124296e+003, 3.342083e-002
1.126225e+003, 3.124844e-002
1.128153e+003, 2.894897e-002
1.130082e+003, 2.712250e-002
1.132010e+003, 2.568490e-002
1.133938e+003, 2.401002e-002
1.135867e+003, 2.217814e-002
1.137795e+003, 2.061319e-002
1.139724e+003, 1.935436e-002
1.141652e+003, 1.843559e-002
1.143581e+003, 1.753513e-002
1.145509e+003, 1.648702e-002
1.147438e+003, 1.560788e-002
1.149366e+003, 1.505353e-002
1.151295e+003, 1.444642e-002
1.153223e+003, 1.385058e-002
1.155152e+003, 1.330751e-002
1.157080e+003, 1.283557e-002
1.159009e+003, 1.238758e-002
1.160937e+003, 1.192774e-002
1.162865e+003, 1.151954e-002
1.164794e+003, 1.116381e-002
1.166722e+003, 1.079026e-002
1.168651e+003, 1.036737e-002
1.170579e+003, 9.830541e-003
1.172508e+003, 9.625208e-003
1.174436e+003, 9.504744e-003
1.176365e+003, 9.274634e-003
1.178293e+003, 9.028506e-003
1.180222e+003, 8.976188e-003
1.182150e+003, 9.003105e-003
1.184079e+003, 8.654998e-003
1.186007e+003, 8.172868e-003
1.187936e+003, 8.145230e-003
1.189864e+003, 8.106334e-003
1.191792e+003, 7.812652e-003
1.193721e+003, 7.607266e-003
1.195649e+003, 7.573761e-003
1.197578e+003, 7.425947e-003
1.199506e+003, 7.088921e-003
1.201435e+003, 6.805624e-003
1.203363e+003, 6.558029e-003
1.205292e+003, 6.366069e-003
1.207220e+003, 6.429777e-003
1.209149e+003, 6.319514e-003
1.211077e+003, 6.238042e-003
1.213006e+003, 6.206551e-003
1.214934e+003, 6.166710e-003
1.216863e+003, 6.139149e-003
1.218791e+003, 5.989747e-003
1.220719e+003, 5.786278e-003
1.222648e+003, 5.585704e-003
1.224576e+003, 5.417062e-003
1.226505e+003, 5.311063e-003
1.228433e+003, 5.038760e-003
1.230362e+003, 4.822132e-003
1.232290e+003, 4.627192e-003
1.234219e+003, 4.479357e-003
1.236147e+003, 4.452012e-003
1.238076e+003, 4.498746e-003
1.240004e+003, 4.289578e-003
1.241933e+003, 4.197260e-003
1.243861e+003, 4.081317e-003
1.245790e+003, 3.911416e-003
1.247718e+003, 3.886201e-003
1.249646e+003, 3.955604e-003
1.251575e+003, 3.829240e-003
1.253503e+003, 3.635087e-003
1.255432e+003, 3.573275e-003
1.257360e+003, 3.534368e-003
1.259289e+003, 3.335032e-003
1.261217e+003, 3.156585e-003
1.263146e+003, 3.171353e-003
1.265074e+003, 3.228323e-003
1.267003e+003, 3.227731e-003
1.268931e+003, 3.117478e-003
1.270860e+003, 2.815715e-003
1.272788e+003, 2.553787e-003
1.274717e+003, 2.654063e-003
1.276645e+003, 2.779878e-003
1.278573e+003, 2.809718e-003
1.280502e+003, 2.886636e-003
1.282430e+003, 2.953823e-003
1.284359e+003, 2.599393e-003
1.286287e+003, 2.204389e-003
1.288216e+003, 2.260209e-003
1.290144e+003, 2.521162e-003
1.292073e+003, 2.732225e-003
1.294001e+003, 2.535711e-003
1.295930e+003, 2.262192e-003
1.297858e+003, 2.228108e-003
1.299787e+003, 2.432446e-003
1.301715e+003, 2.533012e-003
1.303644e+003, 2.357173e-003
1.305572e+003, 2.341317e-003
1.307500e+003, 2.373833e-003
1.309429e+003, 2.277746e-003
1.311357e+003, 2.343841e-003
1.313286e+003, 2.435691e-003
1.315214e+003, 2.572351e-003
1.317143e+003, 2.473280e-003
1.319071e+003, 2.232793e-003
1.321000e+003, 2.102674e-003
1.322928e+003, 2.225210e-003
1.324857e+003, 2.273838e-003
1.326785e+003, 2.225449e-003
1.328714e+003, 2.017280e-003
1.330642e+003, 2.050186e-003
1.332571e+003, 2.147512e-003
1.334499e+003, 2.124248e-003
1.336427e+003, 1.895494e-003
1.338356e+003, 1.751230e-003
1.340284e+003, 1.754779e-003
1.342213e+003, 1.876337e-003
1.344141e+003, 2.005619e-003
1.346070e+003, 2.026847e-003
1.347998e+003, 2.031140e-003
1.349927e+003, 2.049942e-003
1.351855e+003, 2.099330e-003
1.353784e+003, 2.369734e-003
1.355712e+003, 2.278391e-003
1.357641e+003, 2.216506e-003
1.359569e+003, 2.303318e-003
1.361498e+003, 2.376813e-003
1.363426e+003, 2.631767e-003
1.365354e+003, 2.940426e-003
1.367283e+003, 2.842586e-003
1.369211e+003, 2.810130e-003
1.371140e+003, 3.065669e-003
1.373068e+003, 3.526444e-003
1.374997e+003, 3.758620e-003
1.376925e+003, 3.795820e-003
1.378854e+003, 3.697577e-003
1.380782e+003, 3.239603e-003
1.382711e+003, 2.754981e-003
1.384639e+003, 2.638862e-003
1.386568e+003, 2.763312e-003
1.388496e+003, 2.894553e-003
1.390424e+003, 2.895102e-003
1.392353e+003, 3.086959e-003
1.394281e+003, 3.226221e-003
1.396210e+003, 3.274039e-003
1.398138e+003, 3.347484e-003
1.400067e+003, 3.343237e-003
1.401995e+003, 3.380789e-003
1.403924e+003, 3.698348e-003
1.405852e+003, 4.185885e-003
1.407781e+003, 4.226440e-003
1.409709e+003, 3.864733e-003
1.411638e+003, 3.834954e-003
1.413566e+003, 3.947085e-003
1.415495e+003, 3.860454e-003
1.417423e+003, 3.816977e-003
1.419351e+003, 4.020444e-003
1.421280e+003, 4.060454e-003
1.423208e+003, 4.028263e-003
1.425137e+003, 4.063015e-003
1.427065e+003, 3.932288e-003
1.428994e+003, 3.852208e-003
1.430922e+003, 3.941214e-003
1.432851e+003, 3.934422e-003
1.434779e+003, 3.907127e-003
1.436708e+003, 3.999975e-003
1.438636e+003, 3.907521e-003
1.440565e+003, 3.847173e-003
1.442493e+003, 3.979264e-003
1.444422e+003, 3.971567e-003
1.446350e+003, 3.858990e-003
1.448278e+003, 3.901295e-003
1.450207e+003, 4.064328e-003
1.452135e+003, 4.125619e-003
1.454064e+003, 3.986420e-003
1.455992e+003, 3.657345e-003
1.457921e+003, 3.799362e-003
1.459849e+003, 3.890207e-003
1.461778e+003, 3.602589e-003
1.463706e+003, 3.515850e-003
1.465635e+003, 3.509786e-003
1.467563e+003, 3.227999e-003
1.469492e+003, 3.179934e-003
1.471420e+003, 3.093992e-003
1.473349e+003, 2.622399e-003
1.475277e+003, 2.457640e-003
1.477205e+003, 2.377572e-003
1.479134e+003, 2.352205e-003
1.481062e+003, 2.438102e-003
1.482991e+003, 2.336394e-003
1.484919e+003, 2.263935e-003
1.486848e+003, 2.243574e-003
1.488776e+003, 2.191492e-003
1.490705e+003, 2.275585e-003
1.492633e+003, 2.466959e-003
1.494562e+003, 2.243361e-003
1.496490e+003, 2.136102e-003
1.498419e+003, 2.248975e-003
1.500347e+003, 2.272350e-003
1.502276e+003, 2.237482e-003
1.504204e+003, 2.065276e-003
1.506132e+003, 1.810517e-003
1.508061e+003, 1.713375e-003
1.509989e+003, 1.848875e-003
1.511918e+003, 1.962903e-003
1.513846e+003, 1.895754e-003
1.515775e+003, 1.864090e-003
1.517703e+003, 1.771939e-003
1.519632e+003, 1.991698e-003
1.521560e+003, 2.044000e-003
1.523489e+003, 2.184039e-003
1.525417e+003, 2.181480e-003
1.527346e+003, 2.130405e-003
1.529274e+003, 2.018808e-003
1.531203e+003, 2.056351e-003
1.533131e+003, 2.133889e-003
1.535059e+003, 2.251172e-003
1.536988e+003, 2.457412e-003
1.538916e+003, 2.398765e-003
1.540845e+003, 2.060245e-003
1.542773e+003, 2.090586e-003
1.544702e+003, 2.368020e-003
1.546630e+003, 2.484962e-003
1.548559e+003, 2.712757e-003
1.550487e+003, 2.664467e-003
1.552416e+003, 2.402929e-003
1.554344e+003, 2.469033e-003
1.556273e+003, 2.701023e-003
1.558201e+003, 2.796614e-003
1.560130e+003, 2.704128e-003
1.562058e+003, 2.658773e-003
1.563986e+003, 2.813701e-003
1.565915e+003, 3.083453e-003
1.567843e+003, 3.138633e-003
1.569772e+003, 3.122706e-003
1.571700e+003, 3.072947e-003
1.573629e+003, 2.962853e-003
1.575557e+003, 2.747821e-003
1.577486e+003, 2.805594e-003
1.579414e+003, 3.167488e-003
1.581343e+003, 3.298904e-003
1.583271e+003, 3.180862e-003
1.585200e+003, 3.228144e-003
1.587128e+003, 3.343477e-003
1.589057e+003, 3.666263e-003
1.590985e+003, 3.841494e-003
1.592913e+003, 3.781030e-003
1.594842e+003, 3.549951e-003
1.596770e+003, 3.234742e-003
1.598699e+003, 3.218308e-003
1.600627e+003, 3.349264e-003
1.602556e+003, 3.328608e-003
1.604484e+003, 3.426986e-003
1.606413e+003, 3.409924e-003
1.608341e+003, 3.597516e-003
1.610270e+003, 3.742517e-003
1.612198e+003, 3.668700e-003
1.614127e+003, 3.674045e-003
1.616055e+003, 4.042295e-003
1.617984e+003, 4.062948e-003
1.619912e+003, 4.103086e-003
1.621840e+003, 4.094116e-003
1.623769e+003, 4.064917e-003
1.625697e+003, 4.089489e-003
1.627626e+003, 4.345573e-003
1.629554e+003, 4.346790e-003
1.631483e+003, 4.256519e-003
1.633411e+003, 4.097707e-003
1.635340e+003, 3.984339e-003
1.637268e+003, 3.929056e-003
1.639197e+003, 4.066724e-003
1.641125e+003, 4.200508e-003
1.643054e+003, 4.325708e-003
1.644982e+003, 4.186230e-003
1.646911e+003, 4.170399e-003
1.648839e+003, 4.208864e-003
1.650767e+003, 4.195685e-003
1.652696e+003, 4.008744e-003
1.654624e+003, 4.044549e-003
1.656553e+003, 4.372180e-003
1.658481e+003, 4.534434e-003
1.660410e+003, 4.409568e-003
1.662338e+003, 4.592272e-003
1.664267e+003, 4.712013e-003
1.666195e+003, 4.568402e-003
1.668124e+003, 4.320298e-003
1.670052e+003, 4.395394e-003
1.671981e+003, 4.291143e-003
1.673909e+003, 3.880193e-003
1.675838e+003, 3.485647e-003
1.677766e+003, 3.897474e-003
1.679694e+003, 4.226450e-003
1.681623e+003, 4.043421e-003
1.683551e+003, 4.090487e-003
1.685480e+003, 4.084226e-003
1.687408e+003, 3.658166e-003
1.689337e+003, 3.687403e-003
1.691265e+003, 4.015728e-003
1.693194e+003, 4.207055e-003
1.695122e+003, 3.858114e-003
1.697051e+003, 3.340162e-003
1.698979e+003, 3.527981e-003
1.700908e+003, 3.513372e-003
1.702836e+003, 3.384353e-003
1.704765e+003, 3.439025e-003
1.706693e+003, 3.708209e-003
1.708621e+003, 3.822369e-003
1.710550e+003, 3.619220e-003
1.712478e+003, 3.399331e-003
1.714407e+003, 3.411680e-003
1.716335e+003, 3.308096e-003
1.718264e+003, 3.465182e-003
1.720192e+003, 3.670552e-003
1.722121e+003, 3.613805e-003
1.724049e+003, 3.530924e-003
1.725978e+003, 3.437034e-003
1.727906e+003, 3.148591e-003
1.729835e+003, 2.684727e-003
1.731763e+003, 2.313820e-003
1.733692e+003, 2.125973e-003
1.735620e+003, 1.918410e-003
1.737548e+003, 1.736645e-003
1.739477e+003, 1.305702e-003
1.741405e+003, 8.256941e-004
1.743334e+003, 7.008163e-004
1.745262e+003, 5.626250e-004
1.747191e+003, 6.015662e-004
1.749119e+003, 9.222879e-004
1.751048e+003, 1.194497e-003
1.752976e+003, 1.242074e-003
1.754905e+003, 1.500931e-003
1.756833e+003, 1.996278e-003
1.758762e+003, 2.205031e-003
1.760690e+003, 2.418098e-003
1.762619e+003, 2.658090e-003
1.764547e+003, 2.991445e-003
1.766475e+003, 3.025570e-003
1.768404e+003, 2.790836e-003
1.770332e+003, 2.722770e-003
1.772261e+003, 2.513870e-003
1.774189e+003, 2.622273e-003
1.776118e+003, 2.515571e-003
1.778046e+003, 2.297168e-003
1.779975e+003, 2.443410e-003
1.781903e+003, 2.245878e-003
1.783832e+003, 2.383677e-003
1.785760e+003, 2.696391e-003
1.787689e+003, 2.532304e-003
1.789617e+003, 2.338283e-003
1.791546e+003, 2.361384e-003
1.793474e+003, 1.998657e-003
1.795402e+003, 1.754806e-003
1.797331e+003, 1.954802e-003
1.799259e+003, 2.101945e-003
1.801188e+003, 2.143859e-003
1.803116e+003, 2.326601e-003
1.805045e+003, 2.281871e-003
1.806973e+003, 2.175435e-003
1.808902e+003, 1.885372e-003
1.810830e+003, 1.545485e-003
1.812759e+003, 1.624791e-003
1.814687e+003, 1.642966e-003
1.816616e+003, 1.279416e-003
1.818544e+003, 1.775527e-003
1.820473e+003, 2.180744e-003
1.822401e+003, 1.693131e-003
1.824329e+003, 1.633907e-003
1.826258e+003, 1.656006e-003
1.828186e+003, 1.522971e-003
1.830115e+003, 1.424127e-003
1.832043e+003, 1.301762e-003
1.833972e+003, 1.072698e-003
1.835900e+003, 1.207102e-003
1.837829e+003, 1.209555e-003
1.839757e+003, 1.481811e-003
1.841686e+003, 1.657790e-003
1.843614e+003, 1.084069e-003
1.845543e+003, 1.031722e-003
1.847471e+003, 1.456535e-003
1.849400e+003, 1.610218e-003
1.851328e+003, 1.249631e-003
1.853256e+003, 7.567560e-004
1.855185e+003, 8.393040e-004
1.857113e+003, 9.571266e-004
1.859042e+003, 9.116284e-004
1.860970e+003, 8.175034e-004
1.862899e+003, 1.306174e-003
1.864827e+003, 1.899085e-003
1.866756e+003, 1.699702e-003
1.868684e+003, 8.143664e-004
1.870613e+003, 2.128381e-004
1.872541e+003, 3.874420e-004
1.874470e+003, 9.029382e-004
1.876398e+003, 1.147454e-003
1.878327e+003, 8.903568e-004
1.880255e+003, 7.742696e-004
1.882183e+003, 6.751485e-004
1.884112e+003, -3.357857e-004
1.886040e+003, -6.456276e-004
1.887969e+003, -4.877892e-005
1.889897e+003, -2.069536e-004
1.891826e+003, -1.807765e-004
1.893754e+003, 3.524796e-004
1.895683e+003, 2.262705e-004
1.897611e+003, -7.946743e-006
1.899540e+003, -4.903646e-004
1.901468e+003, -9.737220e-004
1.903397e+003, -5.170614e-004
1.905325e+003, -1.335135e-005
1.907254e+003, 4.345030e-004
1.909182e+003, 4.872975e-004
1.911110e+003, -3.312052e-004
1.913039e+003, -4.639851e-004
1.914967e+003, -8.756837e-004
1.916896e+003, -1.524425e-003
1.918824e+003, -1.719401e-003
1.920753e+003, -1.273287e-003
1.922681e+003, -2.114236e-003
1.924610e+003, -3.088694e-003
1.926538e+003, -2.548212e-003
1.928467e+003, -2.555228e-003
1.930395e+003, -2.896442e-003
1.932324e+003, -2.483405e-003
1.934252e+003, -2.787058e-003
1.936181e+003, -2.706494e-003
1.938109e+003, -3.204552e-003
1.940037e+003, -3.030988e-003
1.941966e+003, -3.423827e-003
1.943894e+003, -3.562518e-003
1.945823e+003, -3.548099e-003
1.947751e+003, -3.523901e-003
1.949680e+003, -4.523084e-003
1.951608e+003, -5.084271e-003
1.953537e+003, -4.455266e-003
1.955465e+003, -3.967479e-003
1.957394e+003, -4.846537e-003
1.959322e+003, -4.569624e-003
1.961251e+003, -4.363138e-003
1.963179e+003, -5.446501e-003
1.965108e+003, -5.541802e-003
1.967036e+003, -5.881684e-003
1.968964e+003, -7.347329e-003
1.970893e+003, -8.032734e-003
1.972821e+003, -7.881839e-003
1.974750e+003, -8.848862e-003
1.976678e+003, -7.566842e-003
1.978607e+003, -3.570000e-003
1.980535e+003, -2.777653e-003
1.982464e+003, -3.924946e-003
1.984392e+003, -4.565949e-003
1.986321e+003, -4.903921e-003
1.988249e+003, -5.873084e-003
1.990178e+003, -6.527622e-003
1.992106e+003, -6.560757e-003
1.994035e+003, -6.716966e-003
1.995963e+003, -6.200746e-003
1.997891e+003, -5.840498e-003
1.999820e+003, -6.031789e-003
2.001748e+003, -4.844016e-003
2.003677e+003, -4.805265e-003
2.005605e+003, -6.423451e-003
2.007534e+003, -6.632527e-003
2.009462e+003, -7.402989e-003
2.011391e+003, -6.808124e-003
2.013319e+003, -4.827653e-003
2.015248e+003, -6.691047e-003
2.017176e+003, -7.550324e-003
2.019105e+003, -6.204430e-003
2.021033e+003, -7.439804e-003
2.022962e+003, -8.490490e-003
2.024890e+003, -9.249236e-003
2.026818e+003, -7.921716e-003
2.028747e+003, -7.564808e-003
2.030675e+003, -7.711921e-003
2.032604e+003, -6.429439e-003
2.034532e+003, -7.447206e-003
2.036461e+003, -7.372230e-003
2.038389e+003, -5.653631e-003
2.040318e+003, -5.420043e-003
2.042246e+003, -5.753500e-003
2.044175e+003, -5.558558e-003
2.046103e+003, -5.050424e-003
2.048032e+003, -3.499903e-003
2.049960e+003, -2.144465e-003
2.051889e+003, -2.654797e-003
2.053817e+003, -2.968197e-003
2.055746e+003, -3.045859e-003
2.057674e+003, -4.047144e-003
2.059603e+003, -3.157950e-003
2.061531e+003, -2.445340e-003
2.063459e+003, -2.609616e-003
2.065388e+003, -2.732771e-003
2.067316e+003, -3.146237e-003
2.069245e+003, -3.677489e-003
2.071173e+003, -2.660665e-003
2.073102e+003, -2.012908e-003
2.075030e+003, -9.807227e-004
2.076959e+003, -1.401969e-003
2.078887e+003, -2.103284e-003
2.080816e+003, -1.881753e-003
2.082744e+003, -8.395243e-004
2.084673e+003, -1.111244e-003
2.086601e+003, -1.628046e-003
2.088530e+003, -1.059952e-003
2.090458e+003, -2.043695e-004
2.092386e+003, -3.705979e-004
2.094315e+003, -1.259545e-003
2.096243e+003, -1.423037e-003
2.098172e+003, -9.286695e-004
2.100100e+003, -4.682296e-004
2.102029e+003, -4.077000e-004
2.103957e+003, -5.505487e-004
2.105886e+003, -1.161108e-003
2.107814e+003, -1.001377e-003
2.109743e+003, 4.853593e-004
2.111671e+003, -6.255200e-004
2.113600e+003, -1.884033e-003
2.115528e+003, -1.740249e-003
2.117457e+003, -2.155816e-003
2.119385e+003, -2.245407e-003
2.121313e+003, -1.186260e-003
2.123242e+003, -1.563709e-003
2.125170e+003, -1.496917e-003
2.127099e+003, -6.986643e-004
2.129027e+003, -1.282968e-003
2.130956e+003, -2.809088e-003
2.132884e+003, -3.590530e-003
2.134813e+003, -4.178341e-003
2.136741e+003, -4.839506e-003
2.138670e+003, -2.952604e-003
2.140598e+003, -1.897336e-003
2.142527e+003, -2.820055e-003
2.144455e+003, -2.349738e-003
2.146384e+003, -3.702805e-003
2.148312e+003, -5.789013e-003
2.150240e+003, -4.724196e-003
2.152169e+003, -5.805923e-003
2.154097e+003, -7.023990e-003
2.156026e+003, -7.744818e-003
2.157954e+003, -5.263378e-003
2.159883e+003, -1.819656e-003
2.161811e+003, -9.731093e-004
2.163740e+003, -1.144085e-003
2.165668e+003, -1.293874e-003
2.167597e+003, -1.138188e-003
2.169525e+003, -2.678800e-003
2.171454e+003, -3.851984e-003
2.173382e+003, -3.280979e-003
2.175311e+003, -5.851705e-004
2.177239e+003, 7.985611e-005
2.179167e+003, -3.370822e-003
2.181096e+003, -3.393383e-003
2.183024e+003, -4.148349e-004
2.184953e+003, 1.370731e-004
2.186881e+003, 6.523987e-004
2.188810e+003, -8.247604e-004
2.190738e+003, -8.961148e-004
2.192667e+003, 9.051737e-004
2.194595e+003, 4.040904e-004
2.196524e+003, -6.097880e-005
2.198452e+003, -6.082522e-004
2.200381e+003, -3.824640e-004
2.202309e+003, 8.386676e-004
2.204238e+003, -2.298077e-004
2.206166e+003, -1.396366e-003
2.208094e+003, -1.078939e-003
2.210023e+003, 5.051028e-005
2.211951e+003, 5.679194e-004
2.213880e+003, 3.851975e-004
2.215808e+003, -1.146628e-003
2.217737e+003, -1.431322e-003
2.219665e+003, -1.214948e-004
2.221594e+003, 6.165042e-004
2.223522e+003, 3.833429e-004
2.225451e+003, 5.342270e-004
2.227379e+003, 1.239663e-003
2.229308e+003, 4.718079e-004
2.231236e+003, 6.930712e-004
2.233165e+003, 2.309931e-003
2.235093e+003, 2.840644e-003
2.237021e+003, 1.674421e-003
2.238950e+003, 1.556603e-003
2.240878e+003, 2.239638e-003
2.242807e+003, 2.285485e-003
2.244735e+003, 2.264805e-003
2.246664e+003, 2.965889e-003
2.248592e+003, 3.035735e-003
2.250521e+003, 2.363555e-003
2.252449e+003, 2.327120e-003
2.254378e+003, 1.519057e-003
2.256306e+003, 2.195816e-003
2.258235e+003, 2.544924e-003
2.260163e+003, 1.353747e-003
2.262092e+003, 9.122484e-004
2.264020e+003, 1.530631e-003
2.265948e+003, 2.451199e-003
2.267877e+003, 2.934103e-003
2.269805e+003, 2.888683e-003
2.271734e+003, 3.654825e-003
2.273662e+003, 4.824711e-003
2.275591e+003, 4.547379e-003
2.277519e+003, 3.408530e-003
2.279448e+003, 3.284677e-003
2.281376e+003, 4.000311e-003
2.283305e+003, 4.566676e-003
2.285233e+003, 4.838489e-003
2.287162e+003, 4.682084e-003
2.289090e+003, 4.163776e-003
2.291019e+003, 4.029361e-003
2.292947e+003, 3.815026e-003
2.294875e+003, 3.488213e-003
2.296804e+003, 3.988912e-003
2.298732e+003, 4.465304e-003
2.300661e+003, 4.181693e-003
2.302589e+003, 3.982957e-003
2.304518e+003, 4.150063e-003
2.306446e+003, 4.603588e-003
2.308375e+003, 4.496547e-003
2.310303e+003, 4.472881e-003
2.312232e+003, 4.876877e-003
2.314160e+003, 4.990657e-003
2.316089e+003, 5.070176e-003
2.318017e+003, 5.257516e-003
2.319946e+003, 5.114230e-003
2.321874e+003, 5.077287e-003
2.323802e+003, 5.297634e-003
2.325731e+003, 4.360774e-003
2.327659e+003, 3.806747e-003
2.329588e+003, 4.176677e-003
2.331516e+003, 4.135528e-003
2.333445e+003, 4.172584e-003
2.335373e+003, 4.540726e-003
2.337302e+003, 4.063596e-003
2.339230e+003, 3.525188e-003
2.341159e+003, 3.325626e-003
2.343087e+003, 3.527542e-003
2.345016e+003, 3.726125e-003
2.346944e+003, 3.820916e-003
2.348873e+003, 4.028204e-003
2.350801e+003, 3.559750e-003
2.352729e+003, 3.423171e-003
2.354658e+003, 3.512496e-003
2.356586e+003, 3.359811e-003
2.358515e+003, 3.636346e-003
2.360443e+003, 4.275220e-003
2.362372e+003, 4.333201e-003
2.364300e+003, 3.910257e-003
2.366229e+003, 3.729450e-003
2.368157e+003, 3.791878e-003
2.370086e+003, 3.124809e-003
2.372014e+003, 3.242161e-003
2.373942e+003, 3.215645e-003
2.375871e+003, 2.995393e-003
2.377799e+003, 3.652480e-003
2.379728e+003, 3.821739e-003
2.381656e+003, 3.851086e-003
2.383585e+003, 4.044014e-003
2.385513e+003, 3.661820e-003
2.387442e+003, 3.280959e-003
2.389370e+003, 3.296302e-003
2.391299e+003, 4.067832e-003
2.393227e+003, 4.106913e-003
2.395156e+003, 3.964244e-003
2.397084e+003, 3.657620e-003
2.399012e+003, 2.998972e-003
2.400941e+003, 3.624075e-003
2.402869e+003, 4.359312e-003
2.404798e+003, 4.587983e-003
2.406726e+003, 4.842266e-003
2.408655e+003, 5.006664e-003
2.410583e+003, 4.426821e-003
2.412512e+003, 4.071170e-003
2.414440e+003, 4.291301e-003
2.416369e+003, 3.977790e-003
2.418297e+003, 3.730911e-003
2.420226e+003, 4.434309e-003
2.422154e+003, 4.672814e-003
2.424083e+003, 3.821275e-003
2.426011e+003, 3.681177e-003
2.427939e+003, 4.333624e-003
2.429868e+003, 5.127108e-003
2.431796e+003, 4.920976e-003
2.433725e+003, 4.415215e-003
2.435653e+003, 4.545174e-003
2.437582e+003, 4.295114e-003
2.439510e+003, 4.163914e-003
2.441439e+003, 4.346142e-003
2.443367e+003, 4.321620e-003
2.445296e+003, 5.036185e-003
2.447224e+003, 4.889099e-003
2.449153e+003, 4.417636e-003
2.451081e+003, 4.083879e-003
2.453010e+003, 4.212374e-003
2.454938e+003, 4.752405e-003
2.456866e+003, 4.725779e-003
2.458795e+003, 4.378355e-003
2.460723e+003, 5.120692e-003
2.462652e+003, 5.276548e-003
2.464580e+003, 4.256030e-003
2.466509e+003, 3.556417e-003
2.468437e+003, 3.848608e-003
2.470366e+003, 4.333888e-003
2.472294e+003, 4.323892e-003
2.474223e+003, 4.233452e-003
2.476151e+003, 3.791530e-003
2.478080e+003, 3.674795e-003
2.480008e+003, 4.388214e-003
2.481937e+003, 4.505777e-003
2.483865e+003, 4.690482e-003
2.485793e+003, 5.016660e-003
2.487722e+003, 4.712920e-003
2.489650e+003, 4.587536e-003
2.491579e+003, 4.788918e-003
2.493507e+003, 4.121830e-003
2.495436e+003, 3.620886e-003
2.497364e+003, 4.307061e-003
2.499293e+003, 5.033233e-003
2.501221e+003, 4.603421e-003
2.503150e+003, 4.108096e-003
2.505078e+003, 4.470402e-003
2.507007e+003, 4.767592e-003
2.508935e+003, 4.646932e-003
2.510864e+003, 4.967989e-003
2.512792e+003, 4.401941e-003
2.514720e+003, 4.131982e-003
2.516649e+003, 4.907651e-003
2.518577e+003, 5.307172e-003
2.520506e+003, 4.783904e-003
2.522434e+003, 4.469749e-003
2.524363e+003, 4.569866e-003
2.526291e+003, 4.534139e-003
2.528220e+003, 4.539791e-003
2.530148e+003, 5.023472e-003
2.532077e+003, 5.249263e-003
2.534005e+003, 4.477674e-003
2.535934e+003, 3.675419e-003
2.537862e+003, 3.577785e-003
2.539791e+003, 4.126417e-003
2.541719e+003, 4.990956e-003
2.543647e+003, 5.726306e-003
2.545576e+003, 6.248181e-003
2.547504e+003, 5.467880e-003
2.549433e+003, 4.968920e-003
2.551361e+003, 4.889175e-003
2.553290e+003, 4.040684e-003
2.555218e+003, 4.442268e-003
2.557147e+003, 5.353625e-003
2.559075e+003, 5.360985e-003
2.561004e+003, 5.064849e-003
2.562932e+003, 4.987751e-003
2.564861e+003, 5.118805e-003
2.566789e+003, 5.501125e-003
2.568718e+003, 5.726822e-003
2.570646e+003, 5.210027e-003
2.572574e+003, 5.034592e-003
2.574503e+003, 4.664009e-003
2.576431e+003, 4.496325e-003
2.578360e+003, 5.183607e-003
2.580288e+003, 5.449031e-003
2.582217e+003, 4.895624e-003
2.584145e+003, 4.787105e-003
2.586074e+003, 5.614823e-003
2.588002e+003, 6.071372e-003
2.589931e+003, 5.231900e-003
2.591859e+003, 5.074190e-003
2.593788e+003, 5.804207e-003
2.595716e+003, 5.819043e-003
2.597645e+003, 5.400321e-003
2.599573e+003, 5.873517e-003
2.601501e+003, 6.325100e-003
2.603430e+003, 6.047174e-003
2.605358e+003, 5.335500e-003
2.607287e+003, 5.804933e-003
2.609215e+003, 5.896699e-003
2.611144e+003, 5.435602e-003
2.613072e+003, 5.349378e-003
2.615001e+003, 5.957243e-003
2.616929e+003, 5.811659e-003
2.618858e+003, 5.559762e-003
2.620786e+003, 5.849685e-003
2.622715e+003, 4.926350e-003
2.624643e+003, 4.719929e-003
2.626572e+003, 5.755495e-003
2.628500e+003, 6.193341e-003
2.630428e+003, 5.971995e-003
2.632357e+003, 5.639216e-003
2.634285e+003, 5.934771e-003
2.636214e+003, 5.974937e-003
2.638142e+003, 6.070922e-003
2.640071e+003, 6.987869e-003
2.641999e+003, 7.394817e-003
2.643928e+003, 7.019146e-003
2.645856e+003, 6.531916e-003
2.647785e+003, 6.290940e-003
2.649713e+003, 6.211354e-003
2.651642e+003, 6.147595e-003
2.653570e+003, 6.279627e-003
2.655499e+003, 5.958040e-003
2.657427e+003, 5.378582e-003
2.659355e+003, 5.115451e-003
2.661284e+003, 5.234534e-003
2.663212e+003, 5.440800e-003
2.665141e+003, 5.430384e-003
2.667069e+003, 5.766330e-003
2.668998e+003, 5.700477e-003
2.670926e+003, 5.380226e-003
2.672855e+003, 5.236939e-003
2.674783e+003, 5.166357e-003
2.676712e+003, 5.250269e-003
2.678640e+003, 5.670630e-003
2.680569e+003, 5.207284e-003
2.682497e+003, 4.468567e-003
2.684426e+003, 4.833504e-003
2.686354e+003, 5.163664e-003
2.688282e+003, 5.630787e-003
2.690211e+003, 6.179858e-003
2.692139e+003, 6.105254e-003
2.694068e+003, 5.966348e-003
2.695996e+003, 5.902226e-003
2.697925e+003, 5.245496e-003
2.699853e+003, 5.214229e-003
2.701782e+003, 5.634265e-003
2.703710e+003, 5.647171e-003
2.705639e+003, 5.536132e-003
2.707567e+003, 5.564560e-003
2.709496e+003, 5.562560e-003
2.711424e+003, 5.207817e-003
2.713353e+003, 4.718558e-003
2.715281e+003, 5.655389e-003
2.717209e+003, 6.543883e-003
2.719138e+003, 6.112063e-003
2.721066e+003, 5.567792e-003
2.722995e+003, 5.661807e-003
2.724923e+003, 6.107132e-003
2.726852e+003, 6.405801e-003
2.728780e+003, 5.846994e-003
2.730709e+003, 5.540309e-003
2.732637e+003, 5.724072e-003
2.734566e+003, 5.757048e-003
2.736494e+003, 5.771595e-003
2.738423e+003, 6.054458e-003
2.740351e+003, 6.063838e-003
2.742280e+003, 5.531192e-003
2.744208e+003, 5.449714e-003
2.746136e+003, 5.887662e-003
2.748065e+003, 6.082557e-003
2.749993e+003, 6.159937e-003
2.751922e+003, 6.193148e-003
2.753850e+003, 6.021485e-003
2.755779e+003, 5.856088e-003
2.757707e+003, 6.239797e-003
2.759636e+003, 6.062354e-003
2.761564e+003, 6.042015e-003
2.763493e+003, 6.546709e-003
2.765421e+003, 6.682298e-003
2.767350e+003, 6.864899e-003
2.769278e+003, 7.030236e-003
2.771207e+003, 6.728136e-003
2.773135e+003, 6.047229e-003
2.775063e+003, 6.145616e-003
2.776992e+003, 6.916301e-003
2.778920e+003, 6.998255e-003
2.780849e+003, 6.661457e-003
2.782777e+003, 6.728793e-003
2.784706e+003, 7.022070e-003
2.786634e+003, 6.402198e-003
2.788563e+003, 6.637792e-003
2.790491e+003, 6.936432e-003
2.792420e+003, 6.945492e-003
2.794348e+003, 6.810904e-003
2.796277e+003, 6.670602e-003
2.798205e+003, 6.501476e-003
2.800134e+003, 6.562636e-003
2.802062e+003, 7.279902e-003
2.803990e+003, 7.104559e-003
2.805919e+003, 6.568503e-003
2.807847e+003, 6.977768e-003
2.809776e+003, 7.046860e-003
2.811704e+003, 6.701751e-003
2.813633e+003, 6.987405e-003
2.815561e+003, 7.835906e-003
2.817490e+003, 7.962182e-003
2.819418e+003, 7.305898e-003
2.821347e+003, 7.004157e-003
2.823275e+003, 7.290176e-003
2.825204e+003, 7.586568e-003
2.827132e+003, 7.924193e-003
2.829061e+003, 7.745901e-003
2.830989e+003, 7.747683e-003
2.832917e+003, 8.072761e-003
2.834846e+003, 8.421988e-003
2.836774e+003, 8.197766e-003
2.838703e+003, 8.809065e-003
2.840631e+003, 9.723952e-003
2.842560e+003, 9.335750e-003
2.844488e+003, 8.473791e-003
2.846417e+003, 7.698529e-003
2.848345e+003, 7.407533e-003
2.850274e+003, 7.242013e-003
2.852202e+003, 7.289307e-003
2.854131e+003, 7.340243e-003
2.856059e+003, 7.041913e-003
2.857988e+003, 7.004007e-003
2.859916e+003, 7.230628e-003
2.861844e+003, 8.245288e-003
2.863773e+003, 9.126529e-003
2.865701e+003, 9.530844e-003
2.867630e+003, 9.631479e-003
2.869558e+003, 9.830665e-003
2.871487e+003, 9.478496e-003
2.873415e+003, 9.223744e-003
2.875344e+003, 9.468144e-003
2.877272e+003, 1.005516e-002
2.879201e+003, 1.034554e-002
2.881129e+003, 9.997160e-003
2.883058e+003, 9.691086e-003
2.884986e+003, 9.769530e-003
2.886915e+003, 9.425187e-003
2.888843e+003, 9.744480e-003
2.890771e+003, 9.993137e-003
2.892700e+003, 1.006181e-002
2.894628e+003, 1.010526e-002
2.896557e+003, 9.942932e-003
2.898485e+003, 9.813519e-003
2.900414e+003, 9.178824e-003
2.902342e+003, 9.328861e-003
2.904271e+003, 1.011019e-002
2.906199e+003, 1.043849e-002
2.908128e+003, 1.116979e-002
2.910056e+003, 1.104518e-002
2.911985e+003, 1.092839e-002
2.913913e+003, 1.124825e-002
2.915842e+003, 1.112133e-002
2.917770e+003, 1.060650e-002
2.919698e+003, 1.048025e-002
2.921627e+003, 1.030512e-002
2.923555e+003, 1.071165e-002
2.925484e+003, 1.110761e-002
2.927412e+003, 1.071921e-002
2.929341e+003, 9.879220e-003
2.931269e+003, 9.596292e-003
2.933198e+003, 9.611459e-003
2.935126e+003, 9.677455e-003
2.937055e+003, 9.810517e-003
2.938983e+003, 9.309741e-003
2.940912e+003, 9.862021e-003
2.942840e+003, 1.085358e-002
2.944769e+003, 1.122689e-002
2.946697e+003, 1.220282e-002
2.948625e+003, 1.254843e-002
2.950554e+003, 1.192562e-002
2.952482e+003, 1.111364e-002
2.954411e+003, 1.121766e-002
2.956339e+003, 1.153616e-002
2.958268e+003, 1.131068e-002
2.960196e+003, 1.087554e-002
2.962125e+003, 1.068474e-002
2.964053e+003, 1.090981e-002
2.965982e+003, 1.161332e-002
2.967910e+003, 1.123890e-002
2.969839e+003, 1.022144e-002
2.971767e+003, 9.826750e-003
2.973696e+003, 9.678022e-003
2.975624e+003, 9.323812e-003
2.977552e+003, 9.218149e-003
2.979481e+003, 9.253638e-003
2.981409e+003, 8.864489e-003
2.983338e+003, 8.552366e-003
2.985266e+003, 9.150261e-003
2.987195e+003, 9.282174e-003
2.989123e+003, 9.330179e-003
2.991052e+003, 9.251292e-003
2.992980e+003, 8.802791e-003
2.994909e+003, 9.047884e-003
2.996837e+003, 9.118029e-003
2.998766e+003, 9.183333e-003
3.000694e+003, 9.839993e-003
3.002623e+003, 9.579919e-003
3.004551e+003, 8.787318e-003
3.006479e+003, 8.416363e-003
3.008408e+003, 9.272948e-003
3.010336e+003, 9.771978e-003
3.012265e+003, 9.306503e-003
3.014193e+003, 9.883039e-003
3.016122e+003, 9.807321e-003
3.018050e+003, 8.800880e-003
3.019979e+003, 8.895473e-003
3.021907e+003, 9.482149e-003
3.023836e+003, 1.028063e-002
3.025764e+003, 1.066847e-002
3.027693e+003, 1.068669e-002
3.029621e+003, 1.072905e-002
3.031550e+003, 1.023081e-002
3.033478e+003, 1.006597e-002
3.035406e+003, 1.016025e-002
3.037335e+003, 9.929169e-003
3.039263e+003, 9.083267e-003
3.041192e+003, 9.213354e-003
3.043120e+003, 8.817750e-003
3.045049e+003, 7.893111e-003
3.046977e+003, 8.608539e-003
3.048906e+003, 9.038371e-003
3.050834e+003, 9.495539e-003
3.052763e+003, 9.621325e-003
3.054691e+003, 9.675456e-003
3.056620e+003, 9.264595e-003
3.058548e+003, 9.402205e-003
3.060477e+003, 1.007377e-002
3.062405e+003, 9.928638e-003
3.064333e+003, 1.012719e-002
3.066262e+003, 1.097544e-002
3.068190e+003, 1.171079e-002
3.070119e+003, 1.118382e-002
3.072047e+003, 1.073841e-002
3.073976e+003, 1.087859e-002
3.075904e+003, 1.054899e-002
3.077833e+003, 1.115859e-002
3.079761e+003, 1.130725e-002
3.081690e+003, 1.051070e-002
3.083618e+003, 9.966492e-003
3.085547e+003, 1.003216e-002
3.087475e+003, 1.034843e-002
3.089404e+003, 1.092221e-002
3.091332e+003, 1.138746e-002
3.093260e+003, 1.152242e-002
3.095189e+003, 1.077271e-002
3.097117e+003, 9.903586e-003
3.099046e+003, 9.867517e-003
3.100974e+003, 9.834689e-003
3.102903e+003, 9.734974e-003
3.104831e+003, 1.013006e-002
3.106760e+003, 1.104781e-002
3.108688e+003, 1.178388e-002
3.110617e+003, 1.129655e-002
3.112545e+003, 1.139858e-002
3.114474e+003, 1.219174e-002
3.116402e+003, 1.161473e-002
3.118331e+003, 1.086406e-002
3.120259e+003, 1.211628e-002
3.122188e+003, 1.231412e-002
3.124116e+003, 1.097364e-002
3.126044e+003, 9.897405e-003
3.127973e+003, 1.013031e-002
3.129901e+003, 1.112487e-002
3.131830e+003, 1.164556e-002
3.133758e+003, 1.125147e-002
3.135687e+003, 1.139324e-002
3.137615e+003, 1.133222e-002
3.139544e+003, 1.120859e-002
3.141472e+003, 1.120623e-002
3.143401e+003, 1.216041e-002
3.145329e+003, 1.219603e-002
3.147258e+003, 1.249047e-002
3.149186e+003, 1.315580e-002
3.151115e+003, 1.272215e-002
3.153043e+003, 1.223221e-002
3.154971e+003, 1.297791e-002
3.156900e+003, 1.317200e-002
3.158828e+003, 1.204937e-002
3.160757e+003, 1.125901e-002
3.162685e+003, 1.221548e-002
3.164614e+003, 1.314230e-002
3.166542e+003, 1.255217e-002
3.168471e+003, 1.229237e-002
3.170399e+003, 1.248182e-002
3.172328e+003, 1.300030e-002
3.174256e+003, 1.348581e-002
3.176185e+003, 1.365680e-002
3.178113e+003, 1.311104e-002
3.180042e+003, 1.285728e-002
3.181970e+003, 1.346340e-002
3.183898e+003, 1.330062e-002
3.185827e+003, 1.254173e-002
3.187755e+003, 1.277257e-002
3.189684e+003, 1.350296e-002
3.191612e+003, 1.372715e-002
3.193541e+003, 1.343740e-002
3.195469e+003, 1.332787e-002
3.197398e+003, 1.293091e-002
3.199326e+003, 1.319480e-002
3.201255e+003, 1.426881e-002
3.203183e+003, 1.426827e-002
3.205112e+003, 1.357373e-002
3.207040e+003, 1.361847e-002
3.208969e+003, 1.310134e-002
3.210897e+003, 1.192034e-002
3.212825e+003, 1.225977e-002
3.214754e+003, 1.312237e-002
3.216682e+003, 1.330891e-002
3.218611e+003, 1.318424e-002
3.220539e+003, 1.317779e-002
3.222468e+003, 1.396254e-002
3.224396e+003, 1.341794e-002
3.226325e+003, 1.355643e-002
3.228253e+003, 1.418257e-002
3.230182e+003, 1.435879e-002
3.232110e+003, 1.533305e-002
3.234039e+003, 1.445089e-002
3.235967e+003, 1.499117e-002
3.237896e+003, 1.623612e-002
3.239824e+003, 1.553851e-002
3.241752e+003, 1.424702e-002
3.243681e+003, 1.332632e-002
3.245609e+003, 1.265392e-002
3.247538e+003, 1.305203e-002
3.249466e+003, 1.422897e-002
3.251395e+003, 1.487491e-002
3.253323e+003, 1.477199e-002
3.255252e+003, 1.398144e-002
3.257180e+003, 1.363105e-002
3.259109e+003, 1.371655e-002
3.261037e+003, 1.404077e-002
3.262966e+003, 1.486622e-002
3.264894e+003, 1.448934e-002
3.266823e+003, 1.405660e-002
3.268751e+003, 1.476547e-002
3.270679e+003, 1.578682e-002
3.272608e+003, 1.565937e-002
3.274536e+003, 1.631274e-002
3.276465e+003, 1.638670e-002
3.278393e+003, 1.593202e-002
3.280322e+003, 1.488821e-002
3.282250e+003, 1.513211e-002
3.284179e+003, 1.625620e-002
3.286107e+003, 1.655402e-002
3.288036e+003, 1.530332e-002
3.289964e+003, 1.470378e-002
3.291893e+003, 1.449282e-002
3.293821e+003, 1.483403e-002
3.295750e+003, 1.634450e-002
3.297678e+003, 1.683756e-002
3.299606e+003, 1.694535e-002
3.301535e+003, 1.684145e-002
3.303463e+003, 1.607694e-002
3.305392e+003, 1.564606e-002
3.307320e+003, 1.596372e-002
3.309249e+003, 1.545376e-002
3.311177e+003, 1.479314e-002
3.313106e+003, 1.595515e-002
3.315034e+003, 1.574258e-002
3.316963e+003, 1.429427e-002
3.318891e+003, 1.490895e-002
3.320820e+003, 1.632361e-002
3.322748e+003, 1.574435e-002
3.324677e+003, 1.523978e-002
3.326605e+003, 1.496506e-002
3.328533e+003, 1.570260e-002
3.330462e+003, 1.622076e-002
3.332390e+003, 1.603791e-002
3.334319e+003, 1.625911e-002
3.336247e+003, 1.632100e-002
3.338176e+003, 1.694097e-002
3.340104e+003, 1.708246e-002
3.342033e+003, 1.607319e-002
3.343961e+003, 1.573954e-002
3.345890e+003, 1.640184e-002
3.347818e+003, 1.680952e-002
3.349747e+003, 1.628034e-002
3.351675e+003, 1.642173e-002
3.353604e+003, 1.652897e-002
3.355532e+003, 1.651307e-002
3.357460e+003, 1.701369e-002
3.359389e+003, 1.728559e-002
3.361317e+003, 1.811218e-002
3.363246e+003, 1.833500e-002
3.365174e+003, 1.739131e-002
3.367103e+003, 1.664543e-002
3.369031e+003, 1.695380e-002
3.370960e+003, 1.659192e-002
3.372888e+003, 1.497211e-002
3.374817e+003, 1.499868e-002
3.376745e+003, 1.613433e-002
3.378674e+003, 1.661731e-002
3.380602e+003, 1.614134e-002
3.382531e+003, 1.558284e-002
3.384459e+003, 1.629534e-002
3.386387e+003, 1.675152e-002
3.388316e+003, 1.648621e-002
3.390244e+003, 1.724700e-002
3.392173e+003, 1.756304e-002
3.394101e+003, 1.756495e-002
3.396030e+003, 1.643287e-002
3.397958e+003, 1.682950e-002
3.399887e+003, 1.775746e-002
3.401815e+003, 1.795292e-002
3.403744e+003, 1.756375e-002
3.405672e+003, 1.665679e-002
3.407601e+003, 1.606592e-002
3.409529e+003, 1.636322e-002
3.411458e+003, 1.763358e-002
3.413386e+003, 1.894198e-002
3.415314e+003, 1.837232e-002
3.417243e+003, 1.727052e-002
3.419171e+003, 1.689374e-002
3.421100e+003, 1.582050e-002
3.423028e+003, 1.590055e-002
3.424957e+003, 1.715624e-002
3.426885e+003, 1.692086e-002
3.428814e+003, 1.704712e-002
3.430742e+003, 1.706459e-002
3.432671e+003, 1.710566e-002
3.434599e+003, 1.724808e-002
3.436528e+003, 1.790327e-002
3.438456e+003, 1.852360e-002
3.440385e+003, 1.800125e-002
3.442313e+003, 1.726796e-002
3.444241e+003, 1.642211e-002
3.446170e+003, 1.587042e-002
3.448098e+003, 1.660671e-002
3.450027e+003, 1.639392e-002
3.451955e+003, 1.603916e-002
3.453884e+003, 1.673755e-002
3.455812e+003, 1.791637e-002
3.457741e+003, 1.818258e-002
3.459669e+003, 1.811971e-002
3.461598e+003, 1.857355e-002
3.463526e+003, 1.938321e-002
3.465455e+003, 1.842530e-002
3.467383e+003, 1.783190e-002
3.469312e+003, 1.815556e-002
3.471240e+003, 1.830477e-002
3.473168e+003, 1.693537e-002
3.475097e+003, 1.689914e-002
3.477025e+003, 1.805172e-002
3.478954e+003, 1.764248e-002
3.480882e+003, 1.711675e-002
3.482811e+003, 1.769091e-002
3.484739e+003, 1.857052e-002
3.486668e+003, 1.949625e-002
3.488596e+003, 1.791603e-002
3.490525e+003, 1.625307e-002
3.492453e+003, 1.694366e-002
3.494382e+003, 1.811941e-002
3.496310e+003, 1.851733e-002
3.498239e+003, 1.775326e-002
3.500167e+003, 1.668971e-002
3.502095e+003, 1.577590e-002
3.504024e+003, 1.579542e-002
3.505952e+003, 1.631303e-002
3.507881e+003, 1.820436e-002
3.509809e+003, 1.856675e-002
3.511738e+003, 1.763973e-002
3.513666e+003, 1.813550e-002
3.515595e+003, 1.799747e-002
3.517523e+003, 1.659002e-002
3.519452e+003, 1.628362e-002
3.521380e+003, 1.610000e-002
3.523309e+003, 1.518856e-002
3.525237e+003, 1.578464e-002
3.527166e+003, 1.601475e-002
3.529094e+003, 1.518834e-002
3.531022e+003, 1.463678e-002
3.532951e+003, 1.414833e-002
3.534879e+003, 1.448776e-002
3.536808e+003, 1.630341e-002
3.538736e+003, 1.811782e-002
3.540665e+003, 1.831714e-002
3.542593e+003, 1.655541e-002
3.544522e+003, 1.573895e-002
3.546450e+003, 1.611173e-002
3.548379e+003, 1.606108e-002
3.550307e+003, 1.576785e-002
3.552236e+003, 1.545624e-002
3.554164e+003, 1.578557e-002
3.556093e+003, 1.653022e-002
3.558021e+003, 1.654761e-002
3.559949e+003, 1.557665e-002
3.561878e+003, 1.610166e-002
3.563806e+003, 1.638426e-002
3.565735e+003, 1.505618e-002
3.567663e+003, 1.392907e-002
3.569592e+003, 1.415401e-002
3.571520e+003, 1.471429e-002
3.573449e+003, 1.589672e-002
3.575377e+003, 1.623195e-002
3.577306e+003, 1.590633e-002
3.579234e+003, 1.664958e-002
3.581163e+003, 1.581868e-002
3.583091e+003, 1.524571e-002
3.585020e+003, 1.691320e-002
3.586948e+003, 1.814395e-002
3.588876e+003, 1.829861e-002
3.590805e+003, 1.821549e-002
3.592733e+003, 1.835054e-002
3.594662e+003, 1.950134e-002
3.596590e+003, 2.040975e-002
3.598519e+003, 2.224628e-002
3.600447e+003, 2.344851e-002
3.602376e+003, 2.525841e-002
3.604304e+003, 2.746835e-002
3.606233e+003, 2.996345e-002
3.608161e+003, 3.311888e-002
3.610090e+003, 3.568508e-002
3.612018e+003, 3.891337e-002
3.613947e+003, 4.191352e-002
3.615875e+003, 4.435549e-002
3.617803e+003, 4.687114e-002
3.619732e+003, 5.085605e-002
3.621660e+003, 5.703852e-002
3.623589e+003, 6.059846e-002
3.625517e+003, 6.151688e-002
3.627446e+003, 6.174005e-002
3.629374e+003, 6.228668e-002
3.631303e+003, 6.206275e-002
3.633231e+003, 5.845158e-002
3.635160e+003, 5.495114e-002
3.637088e+003, 5.322325e-002
3.639017e+003, 5.016896e-002
3.640945e+003, 4.643397e-002
3.642874e+003, 4.743128e-002
3.644802e+003, 4.919336e-002
3.646730e+003, 4.815799e-002
3.648659e+003, 4.628388e-002
3.650587e+003, 4.241071e-002
3.652516e+003, 3.924701e-002
3.654444e+003, 3.780586e-002
3.656373e+003, 3.693648e-002
3.658301e+003, 3.593841e-002
3.660230e+003, 3.293356e-002
3.662158e+003, 2.949597e-002
3.664087e+003, 2.764187e-002
3.666015e+003, 2.561730e-002
3.667944e+003, 2.225560e-002
3.669872e+003, 2.007836e-002
3.671801e+003, 1.761296e-002
3.673729e+003, 1.532235e-002
3.675657e+003, 1.404286e-002
3.677586e+003, 1.219037e-002
3.679514e+003, 1.041921e-002
3.681443e+003, 1.014966e-002
3.683371e+003, 9.435728e-003
3.685300e+003, 9.273316e-003
3.687228e+003, 8.680880e-003
3.689157e+003, 7.233176e-003
3.691085e+003, 6.972190e-003
3.693014e+003, 7.140877e-003
3.694942e+003, 7.240479e-003
3.696871e+003, 8.020250e-003
3.698799e+003, 7.980299e-003
3.700728e+003, 7.770350e-003
3.702656e+003, 7.808952e-003
3.704584e+003, 5.752248e-003
3.706513e+003, 4.348404e-003
3.708441e+003, 4.545489e-003
3.710370e+003, 6.058258e-003
3.712298e+003, 6.556714e-003
3.714227e+003, 7.529852e-003
3.716155e+003, 7.017415e-003
3.718084e+003, 6.646914e-003
3.720012e+003, 7.291571e-003
3.721941e+003, 7.309941e-003
3.723869e+003, 6.300475e-003
3.725798e+003, 5.646113e-003
3.727726e+003, 5.659787e-003
3.729655e+003, 4.559400e-003
3.731583e+003, 5.117719e-003
3.733511e+003, 6.793445e-003
3.735440e+003, 6.403323e-003
3.737368e+003, 5.956813e-003
3.739297e+003, 6.716221e-003
3.741225e+003, 6.583721e-003
3.743154e+003, 6.059692e-003
3.745082e+003, 6.563232e-003
3.747011e+003, 6.254806e-003
3.748939e+003, 6.686086e-003
3.750868e+003, 5.737361e-003
3.752796e+003, 5.487145e-003
3.754725e+003, 7.968054e-003
3.756653e+003, 8.695832e-003
3.758582e+003, 7.368552e-003
3.760510e+003, 6.734069e-003
3.762438e+003, 8.393432e-003
3.764367e+003, 8.567194e-003
3.766295e+003, 7.669886e-003
3.768224e+003, 7.233685e-003
3.770152e+003, 6.689282e-003
3.772081e+003, 6.439275e-003
3.774009e+003, 5.593454e-003
3.775938e+003, 6.255252e-003
3.777866e+003, 6.969314e-003
3.779795e+003, 7.444963e-003
3.781723e+003, 7.924237e-003
3.783652e+003, 8.477723e-003
3.785580e+003, 8.234409e-003
3.787509e+003, 6.637790e-003
3.789437e+003, 6.128445e-003
3.791365e+003, 7.216924e-003
3.793294e+003, 6.495836e-003
3.795222e+003, 4.883985e-003
3.797151e+003, 5.613891e-003
3.799079e+003, 6.832285e-003
3.801008e+003, 7.726951e-003
3.802936e+003, 6.620233e-003
3.804865e+003, 7.272515e-003
3.806793e+003, 7.384994e-003
3.808722e+003, 8.656242e-003
3.810650e+003, 1.041785e-002
3.812579e+003, 1.045603e-002
3.814507e+003, 9.612057e-003
3.816436e+003, 9.092754e-003
3.818364e+003, 1.025642e-002
3.820292e+003, 9.721988e-003
3.822221e+003, 8.255827e-003
3.824149e+003, 8.656423e-003
3.826078e+003, 8.826186e-003
3.828006e+003, 7.117374e-003
3.829935e+003, 5.627559e-003
3.831863e+003, 5.978526e-003
3.833792e+003, 7.489788e-003
3.835720e+003, 8.123992e-003
3.837649e+003, 7.621095e-003
3.839577e+003, 7.573435e-003
3.841506e+003, 7.726540e-003
3.843434e+003, 7.723577e-003
3.845363e+003, 6.914651e-003
3.847291e+003, 6.150037e-003
3.849219e+003, 5.774496e-003
3.851148e+003, 5.175502e-003
3.853076e+003, 3.226321e-003
3.855005e+003, 3.923278e-003
3.856933e+003, 5.015760e-003
3.858862e+003, 7.026664e-003
3.860790e+003, 7.173039e-003
3.862719e+003, 6.766441e-003
3.864647e+003, 5.391706e-003
3.866576e+003, 5.271041e-003
3.868504e+003, 4.593501e-003
3.870433e+003, 4.635603e-003
3.872361e+003, 6.930311e-003
3.874290e+003, 7.961390e-003
3.876218e+003, 6.774471e-003
3.878146e+003, 6.550446e-003
3.880075e+003, 6.086977e-003
3.882003e+003, 5.053960e-003
3.883932e+003, 6.400434e-003
3.885860e+003, 7.348177e-003
3.887789e+003, 7.527075e-003
3.889717e+003, 9.079253e-003
3.891646e+003, 1.000630e-002
3.893574e+003, 8.253205e-003
3.895503e+003, 8.577063e-003
3.897431e+003, 8.050677e-003
3.899360e+003, 6.849169e-003
3.901288e+003, 6.260522e-003
3.903217e+003, 7.380046e-003
3.905145e+003, 7.896090e-003
3.907073e+003, 6.859263e-003
3.909002e+003, 6.541925e-003
3.910930e+003, 7.636990e-003
3.912859e+003, 8.641798e-003
3.914787e+003, 7.371441e-003
3.916716e+003, 6.928915e-003
3.918644e+003, 6.592688e-003
3.920573e+003, 5.353474e-003
3.922501e+003, 5.362383e-003
3.924430e+003, 7.610773e-003
3.926358e+003, 8.419428e-003
3.928287e+003, 6.500957e-003
3.930215e+003, 6.703674e-003
3.932144e+003, 7.332558e-003
3.934072e+003, 6.365525e-003
3.936000e+003, 5.453738e-003
3.937929e+003, 5.497369e-003
3.939857e+003, 6.810800e-003
3.941786e+003, 7.406472e-003
3.943714e+003, 7.872810e-003
3.945643e+003, 7.563674e-003
3.947571e+003, 5.980317e-003
3.949500e+003, 6.652129e-003
3.951428e+003, 7.361158e-003
3.953357e+003, 8.377922e-003
3.955285e+003, 8.699983e-003
3.957214e+003, 9.009263e-003
3.959142e+003, 1.010514e-002
3.961071e+003, 7.934008e-003
3.962999e+003, 6.115498e-003
3.964927e+003, 7.148060e-003
3.966856e+003, 9.348511e-003
3.968784e+003, 9.959805e-003
3.970713e+003, 8.768829e-003
3.972641e+003, 8.809390e-003
3.974570e+003, 8.686954e-003
3.976498e+003, 7.323842e-003
3.978427e+003, 6.926649e-003
3.980355e+003, 9.058770e-003
3.982284e+003, 9.878096e-003
3.984212e+003, 9.150852e-003
3.986141e+003, 8.734413e-003
3.988069e+003, 7.218241e-003
3.989998e+003, 6.358873e-003
3.991926e+003, 8.573263e-003
3.993854e+003, 9.378811e-003
3.995783e+003, 7.511061e-003
3.997711e+003, 6.043511e-003
3.999640e+003, 6.046426e-003
##END=



