##NAMES=Muscovite
##RRUFFID=R050188
##IDEAL CHEMISTRY=KAl_2_(Si_3_Al)O_10_(OH)_2_
##LOCALITY=Sapinero, near Blue Mesa Reservoir, Gunnison County, Colorado, USA
##OWNER=RRUFF
##SOURCE=Dave Bunk Minerals
##DESCRIPTION=Black pseudohexagonal crystal, polytype 2M1, associated with quartz
##STATUS=The identification of this mineral has been confirmed by X-ray diffraction and chemical analysis
##URL=rruff.info/R050188
##MEASURED CHEMISTRY=(K_0.91_Na_0.09_)(Al_0.86_Fe^3+^_0.06_Fe^2+^_0.04_Mg_0.03_Ti_0.01_)_2_(Si_0.78_Al_0.22_)_4_O_10_(OH)_2_
5.014013e+001, 8.736590e-003
5.206860e+001, 5.810526e-003
5.399707e+001, 7.448612e-003
5.592553e+001, 9.623278e-003
5.785400e+001, 8.556364e-003
5.978246e+001, 8.145200e-003
6.171093e+001, 9.991957e-003
6.363940e+001, 1.338541e-002
6.556786e+001, 1.443208e-002
6.749633e+001, 1.470110e-002
6.942480e+001, 1.522144e-002
7.135326e+001, 1.422103e-002
7.328172e+001, 1.471641e-002
7.521019e+001, 1.652841e-002
7.713866e+001, 1.704825e-002
7.906712e+001, 1.722780e-002
8.099559e+001, 1.897617e-002
8.292406e+001, 1.994791e-002
8.485252e+001, 2.083400e-002
8.678099e+001, 2.179645e-002
8.870946e+001, 2.289182e-002
9.063792e+001, 2.276203e-002
9.256638e+001, 2.279130e-002
9.449485e+001, 2.315622e-002
9.642332e+001, 2.401992e-002
9.835178e+001, 2.529204e-002
1.002803e+002, 2.577816e-002
1.022087e+002, 2.572520e-002
1.041372e+002, 2.551820e-002
1.060657e+002, 2.536056e-002
1.079941e+002, 2.585906e-002
1.099226e+002, 2.501803e-002
1.118510e+002, 2.387521e-002
1.137795e+002, 2.328262e-002
1.157080e+002, 2.259343e-002
1.176364e+002, 2.205429e-002
1.195649e+002, 2.224936e-002
1.214934e+002, 2.318065e-002
1.234218e+002, 2.385232e-002
1.253503e+002, 2.434427e-002
1.272788e+002, 2.471689e-002
1.292072e+002, 2.509622e-002
1.311357e+002, 2.575494e-002
1.330642e+002, 2.597363e-002
1.349926e+002, 2.613808e-002
1.369211e+002, 2.620070e-002
1.388496e+002, 2.576138e-002
1.407780e+002, 2.546759e-002
1.427065e+002, 2.503460e-002
1.446350e+002, 2.421598e-002
1.465634e+002, 2.363639e-002
1.484919e+002, 2.349590e-002
1.504204e+002, 2.446377e-002
1.523488e+002, 2.533434e-002
1.542773e+002, 2.583675e-002
1.562058e+002, 2.618787e-002
1.581342e+002, 2.666100e-002
1.600627e+002, 2.732009e-002
1.619912e+002, 2.806971e-002
1.639196e+002, 2.815569e-002
1.658481e+002, 2.763641e-002
1.677766e+002, 2.735739e-002
1.697050e+002, 2.719767e-002
1.716335e+002, 2.690632e-002
1.735620e+002, 2.701435e-002
1.754904e+002, 2.727181e-002
1.774189e+002, 2.806614e-002
1.793474e+002, 2.903609e-002
1.812758e+002, 2.976326e-002
1.832043e+002, 3.020076e-002
1.851328e+002, 3.079989e-002
1.870612e+002, 3.116141e-002
1.889897e+002, 3.152819e-002
1.909182e+002, 3.203363e-002
1.928466e+002, 3.235038e-002
1.947751e+002, 3.256771e-002
1.967036e+002, 3.304634e-002
1.986320e+002, 3.329686e-002
2.005605e+002, 3.329504e-002
2.024890e+002, 3.344371e-002
2.044174e+002, 3.413792e-002
2.063459e+002, 3.467741e-002
2.082744e+002, 3.485294e-002
2.102028e+002, 3.501632e-002
2.121313e+002, 3.561728e-002
2.140598e+002, 3.624897e-002
2.159882e+002, 3.677968e-002
2.179167e+002, 3.698760e-002
2.198452e+002, 3.716918e-002
2.217736e+002, 3.790040e-002
2.237021e+002, 3.863163e-002
2.256305e+002, 3.898384e-002
2.275590e+002, 3.915369e-002
2.294875e+002, 3.983121e-002
2.314159e+002, 4.089798e-002
2.333444e+002, 4.151980e-002
2.352729e+002, 4.195328e-002
2.372013e+002, 4.254807e-002
2.391298e+002, 4.306452e-002
2.410583e+002, 4.355389e-002
2.429867e+002, 4.413994e-002
2.449152e+002, 4.490126e-002
2.468437e+002, 4.561859e-002
2.487721e+002, 4.637940e-002
2.507006e+002, 4.705910e-002
2.526291e+002, 4.730488e-002
2.545575e+002, 4.765074e-002
2.564860e+002, 4.818240e-002
2.584145e+002, 4.859193e-002
2.603429e+002, 4.852049e-002
2.622714e+002, 4.827257e-002
2.641999e+002, 4.775996e-002
2.661283e+002, 4.702356e-002
2.680568e+002, 4.629342e-002
2.699853e+002, 4.573118e-002
2.719137e+002, 4.593361e-002
2.738422e+002, 4.622047e-002
2.757707e+002, 4.645981e-002
2.776991e+002, 4.713437e-002
2.796276e+002, 4.780589e-002
2.815561e+002, 4.828243e-002
2.834845e+002, 4.881481e-002
2.854130e+002, 4.942687e-002
2.873415e+002, 5.002813e-002
2.892699e+002, 5.081273e-002
2.911984e+002, 5.137264e-002
2.931269e+002, 5.194149e-002
2.950553e+002, 5.279297e-002
2.969838e+002, 5.313206e-002
2.989123e+002, 5.346791e-002
3.008407e+002, 5.376697e-002
3.027692e+002, 5.426089e-002
3.046977e+002, 5.471465e-002
3.066261e+002, 5.507735e-002
3.085546e+002, 5.558616e-002
3.104831e+002, 5.587538e-002
3.124115e+002, 5.627204e-002
3.143400e+002, 5.684121e-002
3.162685e+002, 5.737673e-002
3.181969e+002, 5.772882e-002
3.201254e+002, 5.826258e-002
3.220539e+002, 5.876915e-002
3.239823e+002, 5.924184e-002
3.259108e+002, 5.974241e-002
3.278392e+002, 6.003755e-002
3.297677e+002, 6.039336e-002
3.316962e+002, 6.101068e-002
3.336246e+002, 6.162176e-002
3.355531e+002, 6.215304e-002
3.374816e+002, 6.275768e-002
3.394100e+002, 6.337622e-002
3.413385e+002, 6.374890e-002
3.432670e+002, 6.362790e-002
3.451954e+002, 6.353995e-002
3.471239e+002, 6.363929e-002
3.490524e+002, 6.364202e-002
3.509808e+002, 6.353027e-002
3.529093e+002, 6.345680e-002
3.548378e+002, 6.318460e-002
3.567662e+002, 6.290399e-002
3.586947e+002, 6.321408e-002
3.606232e+002, 6.363258e-002
3.625516e+002, 6.413055e-002
3.644801e+002, 6.485876e-002
3.664086e+002, 6.550018e-002
3.683370e+002, 6.629849e-002
3.702655e+002, 6.709280e-002
3.721940e+002, 6.782620e-002
3.741224e+002, 6.838957e-002
3.760509e+002, 6.894813e-002
3.779794e+002, 6.936236e-002
3.799078e+002, 6.938305e-002
3.818363e+002, 6.948483e-002
3.837648e+002, 6.960560e-002
3.856932e+002, 6.970287e-002
3.876217e+002, 6.986561e-002
3.895502e+002, 7.016213e-002
3.914786e+002, 7.061645e-002
3.934071e+002, 7.108335e-002
3.953356e+002, 7.141748e-002
3.972640e+002, 7.198079e-002
3.991925e+002, 7.252066e-002
4.011210e+002, 7.285499e-002
4.030494e+002, 7.326373e-002
4.049779e+002, 7.377687e-002
4.069064e+002, 7.408275e-002
4.088348e+002, 7.437036e-002
4.107633e+002, 7.458569e-002
4.126917e+002, 7.474709e-002
4.146202e+002, 7.474737e-002
4.165487e+002, 7.477392e-002
4.184771e+002, 7.483464e-002
4.204056e+002, 7.500462e-002
4.223341e+002, 7.510148e-002
4.242625e+002, 7.546264e-002
4.261910e+002, 7.614409e-002
4.281195e+002, 7.682581e-002
4.300479e+002, 7.732870e-002
4.319764e+002, 7.762972e-002
4.339049e+002, 7.804117e-002
4.358333e+002, 7.868275e-002
4.377618e+002, 7.872759e-002
4.396903e+002, 7.869779e-002
4.416187e+002, 7.879202e-002
4.435472e+002, 7.903899e-002
4.454757e+002, 7.951834e-002
4.474041e+002, 8.029398e-002
4.493326e+002, 8.079647e-002
4.512611e+002, 8.127767e-002
4.531895e+002, 8.231717e-002
4.551180e+002, 8.306800e-002
4.570465e+002, 8.331665e-002
4.589749e+002, 8.401151e-002
4.609034e+002, 8.471979e-002
4.628319e+002, 8.500862e-002
4.647603e+002, 8.565877e-002
4.666888e+002, 8.651324e-002
4.686173e+002, 8.672469e-002
4.705457e+002, 8.647735e-002
4.724742e+002, 8.605732e-002
4.744027e+002, 8.601379e-002
4.763311e+002, 8.583064e-002
4.782596e+002, 8.518418e-002
4.801881e+002, 8.458818e-002
4.821165e+002, 8.372343e-002
4.840450e+002, 8.225691e-002
4.859735e+002, 8.096184e-002
4.879019e+002, 8.009416e-002
4.898304e+002, 7.946826e-002
4.917589e+002, 7.895027e-002
4.936873e+002, 7.879692e-002
4.956158e+002, 7.909363e-002
4.975443e+002, 7.932529e-002
4.994727e+002, 7.971541e-002
5.014012e+002, 8.029144e-002
5.033297e+002, 8.103501e-002
5.052581e+002, 8.174764e-002
5.071866e+002, 8.220121e-002
5.091151e+002, 8.260688e-002
5.110435e+002, 8.310869e-002
5.129720e+002, 8.407196e-002
5.149005e+002, 8.506741e-002
5.168289e+002, 8.591622e-002
5.187574e+002, 8.652144e-002
5.206859e+002, 8.675415e-002
5.226143e+002, 8.687483e-002
5.245428e+002, 8.693335e-002
5.264713e+002, 8.693338e-002
5.283997e+002, 8.604632e-002
5.303282e+002, 8.511300e-002
5.322567e+002, 8.404380e-002
5.341851e+002, 8.255297e-002
5.361136e+002, 8.147411e-002
5.380421e+002, 7.979594e-002
5.399705e+002, 7.786384e-002
5.418990e+002, 7.656552e-002
5.438275e+002, 7.507452e-002
5.457559e+002, 7.329652e-002
5.476844e+002, 7.174625e-002
5.496129e+002, 7.035782e-002
5.515413e+002, 6.906012e-002
5.534698e+002, 6.753013e-002
5.553983e+002, 6.604976e-002
5.573267e+002, 6.451800e-002
5.592552e+002, 6.284584e-002
5.611837e+002, 6.139331e-002
5.631121e+002, 6.021497e-002
5.650406e+002, 5.902237e-002
5.669691e+002, 5.845470e-002
5.688975e+002, 5.782284e-002
5.708260e+002, 5.723792e-002
5.727545e+002, 5.649618e-002
5.746829e+002, 5.582961e-002
5.766114e+002, 5.549934e-002
5.785399e+002, 5.499510e-002
5.804683e+002, 5.462598e-002
5.823968e+002, 5.412535e-002
5.843253e+002, 5.315144e-002
5.862537e+002, 5.236732e-002
5.881822e+002, 5.148017e-002
5.901107e+002, 5.053869e-002
5.920391e+002, 4.949340e-002
5.939676e+002, 4.867933e-002
5.958961e+002, 4.760559e-002
5.978245e+002, 4.646426e-002
5.997530e+002, 4.573190e-002
6.016815e+002, 4.506225e-002
6.036099e+002, 4.447763e-002
6.055384e+002, 4.385003e-002
6.074669e+002, 4.352443e-002
6.093953e+002, 4.320842e-002
6.113238e+002, 4.272562e-002
6.132523e+002, 4.298297e-002
6.151807e+002, 4.316743e-002
6.171091e+002, 4.279771e-002
6.190376e+002, 4.267964e-002
6.209661e+002, 4.305934e-002
6.228945e+002, 4.358614e-002
6.248230e+002, 4.481936e-002
6.267515e+002, 4.600216e-002
6.286799e+002, 4.731651e-002
6.306084e+002, 4.842116e-002
6.325369e+002, 4.888736e-002
6.344653e+002, 4.863476e-002
6.363938e+002, 4.844320e-002
6.383223e+002, 4.823503e-002
6.402507e+002, 4.786120e-002
6.421792e+002, 4.789918e-002
6.441077e+002, 4.817287e-002
6.460361e+002, 4.821324e-002
6.479646e+002, 4.834561e-002
6.498931e+002, 4.873011e-002
6.518215e+002, 4.919039e-002
6.537500e+002, 4.964294e-002
6.556785e+002, 5.007623e-002
6.576069e+002, 5.013149e-002
6.595354e+002, 5.052913e-002
6.614639e+002, 5.156669e-002
6.633923e+002, 5.244151e-002
6.653208e+002, 5.301910e-002
6.672493e+002, 5.394059e-002
6.691777e+002, 5.459035e-002
6.711062e+002, 5.533018e-002
6.730347e+002, 5.662812e-002
6.749631e+002, 5.769783e-002
6.768916e+002, 5.826976e-002
6.788201e+002, 5.920775e-002
6.807485e+002, 6.003748e-002
6.826770e+002, 6.083703e-002
6.846055e+002, 6.111368e-002
6.865339e+002, 6.104568e-002
6.884624e+002, 6.173592e-002
6.903909e+002, 6.275178e-002
6.923193e+002, 6.333253e-002
6.942478e+002, 6.432471e-002
6.961763e+002, 6.489685e-002
6.981047e+002, 6.583420e-002
7.000332e+002, 6.437031e-002
##END=



