##NAMES=Natrojarosite
##RRUFFID=R050471
##IDEAL CHEMISTRY=NaFe^3+^_3_(S^6+^O_4_)_2_(OH)_6_
##LOCALITY=Bristol mine, Pioche, Lincoln County, Nevada, USA
##OWNER=RRUFF
##SOURCE=Marcus Origlieri
##DESCRIPTION=Tan colored, fine-grained massive
##STATUS=The identification of this mineral has been confirmed by X-ray diffraction and chemical analysis
##URL=rruff.info/R050471
##MEASURED CHEMISTRY=(Na_0.60_K_0.30_Pb_0.10_)_Σ=1_(Fe^3+^_2.98_Al_0.02_)_Σ=3_((S_0.95_As_0.05_)_Σ=1_O_4_)_2_(OH)_6_
3.741225e+002, 1.000949e-001
3.760510e+002, 9.920779e-002
3.779795e+002, 1.041075e-001
3.799079e+002, 1.064330e-001
3.818364e+002, 1.108386e-001
3.837649e+002, 1.192263e-001
3.856933e+002, 1.254933e-001
3.876218e+002, 1.252979e-001
3.895503e+002, 1.318087e-001
3.914787e+002, 1.372225e-001
3.934072e+002, 1.386391e-001
3.953357e+002, 1.424208e-001
3.972641e+002, 1.482646e-001
3.991926e+002, 1.502980e-001
4.011211e+002, 1.558513e-001
4.030495e+002, 1.650460e-001
4.049780e+002, 1.672525e-001
4.069065e+002, 1.705615e-001
4.088349e+002, 1.800843e-001
4.107634e+002, 1.864612e-001
4.126919e+002, 1.914894e-001
4.146203e+002, 1.958206e-001
4.165488e+002, 2.021397e-001
4.184773e+002, 2.099244e-001
4.204057e+002, 2.180195e-001
4.223342e+002, 2.229222e-001
4.242627e+002, 2.285192e-001
4.261911e+002, 2.359558e-001
4.281196e+002, 2.444232e-001
4.300481e+002, 2.532271e-001
4.319765e+002, 2.600912e-001
4.339050e+002, 2.670093e-001
4.358335e+002, 2.763978e-001
4.377619e+002, 2.882934e-001
4.396904e+002, 2.999432e-001
4.416189e+002, 3.098902e-001
4.435473e+002, 3.148097e-001
4.454758e+002, 3.116332e-001
4.474043e+002, 3.008178e-001
4.493327e+002, 2.888385e-001
4.512612e+002, 2.866303e-001
4.531897e+002, 2.987532e-001
4.551181e+002, 3.191134e-001
4.570466e+002, 3.384177e-001
4.589751e+002, 3.560093e-001
4.609035e+002, 3.701486e-001
4.628320e+002, 3.835990e-001
4.647605e+002, 3.930878e-001
4.666889e+002, 3.977192e-001
4.686174e+002, 3.985610e-001
4.705459e+002, 3.939787e-001
4.724743e+002, 3.854439e-001
4.744028e+002, 3.711291e-001
4.763313e+002, 3.508752e-001
4.782597e+002, 3.302900e-001
4.801882e+002, 3.094213e-001
4.821167e+002, 2.867403e-001
4.840451e+002, 2.681634e-001
4.859736e+002, 2.548751e-001
4.879021e+002, 2.500914e-001
4.898305e+002, 2.578141e-001
4.917590e+002, 2.745246e-001
4.936875e+002, 2.976374e-001
4.956159e+002, 3.228339e-001
4.975444e+002, 3.466114e-001
4.994729e+002, 3.610860e-001
5.014013e+002, 3.660288e-001
5.033298e+002, 3.640199e-001
5.052583e+002, 3.559982e-001
5.071867e+002, 3.441348e-001
5.091152e+002, 3.284570e-001
5.110437e+002, 3.133743e-001
5.129721e+002, 2.980881e-001
5.149006e+002, 2.829514e-001
5.168290e+002, 2.691471e-001
5.187575e+002, 2.565120e-001
5.206860e+002, 2.451262e-001
5.226144e+002, 2.341099e-001
5.245429e+002, 2.233105e-001
5.264714e+002, 2.134539e-001
5.283998e+002, 2.040247e-001
5.303283e+002, 1.944092e-001
5.322568e+002, 1.853289e-001
5.341852e+002, 1.771969e-001
5.361137e+002, 1.692614e-001
5.380422e+002, 1.620340e-001
5.399706e+002, 1.548990e-001
5.418991e+002, 1.482597e-001
5.438276e+002, 1.423623e-001
5.457560e+002, 1.360289e-001
5.476845e+002, 1.305642e-001
5.496130e+002, 1.261457e-001
5.515414e+002, 1.225585e-001
5.534699e+002, 1.199434e-001
5.553984e+002, 1.177510e-001
5.573268e+002, 1.169143e-001
5.592553e+002, 1.166202e-001
5.611838e+002, 1.172994e-001
5.631122e+002, 1.188629e-001
5.650407e+002, 1.207127e-001
5.669692e+002, 1.223439e-001
5.688976e+002, 1.236734e-001
5.708261e+002, 1.252167e-001
5.727546e+002, 1.260195e-001
5.746830e+002, 1.267074e-001
5.766115e+002, 1.268626e-001
5.785400e+002, 1.262372e-001
5.804684e+002, 1.252917e-001
5.823969e+002, 1.241278e-001
5.843254e+002, 1.223555e-001
5.862538e+002, 1.203608e-001
5.881823e+002, 1.177046e-001
5.901108e+002, 1.148722e-001
5.920392e+002, 1.123367e-001
5.939677e+002, 1.097642e-001
5.958962e+002, 1.073032e-001
5.978246e+002, 1.052354e-001
5.997531e+002, 1.035445e-001
6.016816e+002, 1.025813e-001
6.036100e+002, 1.028224e-001
6.055385e+002, 1.037953e-001
6.074670e+002, 1.057700e-001
6.093954e+002, 1.085398e-001
6.113239e+002, 1.128523e-001
6.132524e+002, 1.190059e-001
6.151808e+002, 1.273669e-001
6.171093e+002, 1.382418e-001
6.190378e+002, 1.514109e-001
6.209662e+002, 1.665545e-001
6.228947e+002, 1.822544e-001
6.248232e+002, 1.950593e-001
6.267516e+002, 2.012133e-001
6.286801e+002, 1.983650e-001
6.306086e+002, 1.870185e-001
6.325370e+002, 1.706624e-001
6.344655e+002, 1.526746e-001
6.363940e+002, 1.356318e-001
6.383224e+002, 1.208027e-001
6.402509e+002, 1.088606e-001
6.421794e+002, 9.968423e-002
6.441078e+002, 9.327386e-002
6.460363e+002, 8.891211e-002
6.479648e+002, 8.587104e-002
6.498932e+002, 8.399190e-002
6.518217e+002, 8.343165e-002
6.537502e+002, 8.392987e-002
6.556786e+002, 8.508091e-002
6.576071e+002, 8.656801e-002
6.595356e+002, 8.808335e-002
6.614641e+002, 8.955264e-002
6.633925e+002, 9.043745e-002
6.653210e+002, 9.067972e-002
6.672495e+002, 9.032951e-002
6.691779e+002, 8.903761e-002
6.711064e+002, 8.713286e-002
6.730349e+002, 8.511400e-002
6.749633e+002, 8.330056e-002
6.768918e+002, 8.121157e-002
6.788203e+002, 7.880270e-002
6.807487e+002, 7.651713e-002
6.826772e+002, 7.395635e-002
6.846057e+002, 7.111422e-002
6.865341e+002, 6.839520e-002
6.884626e+002, 6.562718e-002
6.903911e+002, 6.302433e-002
6.923195e+002, 6.062611e-002
6.942480e+002, 5.794978e-002
6.961765e+002, 5.566809e-002
6.981049e+002, 5.358063e-002
7.000334e+002, 5.164503e-002
7.019619e+002, 4.975566e-002
7.038903e+002, 4.834679e-002
7.058188e+002, 4.688472e-002
7.077473e+002, 4.536393e-002
7.096757e+002, 4.408738e-002
7.116042e+002, 4.333710e-002
7.135327e+002, 4.246642e-002
7.154611e+002, 4.151920e-002
7.173896e+002, 4.080979e-002
7.193181e+002, 3.995074e-002
7.212465e+002, 3.919274e-002
7.231750e+002, 3.869553e-002
7.251035e+002, 3.840153e-002
7.270319e+002, 3.780834e-002
7.289604e+002, 3.727625e-002
7.308889e+002, 3.690817e-002
7.328173e+002, 3.665787e-002
7.347458e+002, 3.637673e-002
7.366743e+002, 3.626286e-002
7.386027e+002, 3.628697e-002
7.405312e+002, 3.620499e-002
7.424597e+002, 3.591194e-002
7.443881e+002, 3.565878e-002
7.463166e+002, 3.560627e-002
7.482451e+002, 3.548501e-002
7.501735e+002, 3.543827e-002
7.521020e+002, 3.573827e-002
7.540305e+002, 3.598071e-002
7.559589e+002, 3.629205e-002
7.578874e+002, 3.657098e-002
7.598159e+002, 3.704536e-002
7.617443e+002, 3.736980e-002
7.636728e+002, 3.775097e-002
7.656013e+002, 3.823861e-002
7.675297e+002, 3.908020e-002
7.694582e+002, 3.990079e-002
7.713867e+002, 4.058624e-002
7.733151e+002, 4.139638e-002
7.752436e+002, 4.267444e-002
7.771721e+002, 4.407070e-002
7.791005e+002, 4.568816e-002
7.810290e+002, 4.750006e-002
7.829575e+002, 4.953886e-002
7.848859e+002, 5.157908e-002
7.868144e+002, 5.407028e-002
7.887429e+002, 5.706986e-002
7.906713e+002, 6.058353e-002
7.925998e+002, 6.413570e-002
7.945283e+002, 6.768087e-002
7.964567e+002, 7.151553e-002
7.983852e+002, 7.526948e-002
8.003137e+002, 7.873584e-002
8.022421e+002, 8.167012e-002
8.041706e+002, 8.451419e-002
8.060991e+002, 8.691376e-002
8.080275e+002, 8.859885e-002
8.099560e+002, 8.984984e-002
8.118845e+002, 9.044970e-002
8.138129e+002, 9.014480e-002
8.157414e+002, 8.917040e-002
8.176699e+002, 8.752962e-002
8.195983e+002, 8.561232e-002
8.215268e+002, 8.347777e-002
8.234553e+002, 8.097535e-002
8.253837e+002, 7.847287e-002
8.273122e+002, 7.604793e-002
8.292407e+002, 7.349041e-002
8.311691e+002, 7.127018e-002
8.330976e+002, 6.913991e-002
8.350261e+002, 6.757087e-002
8.369545e+002, 6.640060e-002
8.388830e+002, 6.565418e-002
8.408115e+002, 6.547192e-002
8.427399e+002, 6.572878e-002
8.446684e+002, 6.638935e-002
8.465969e+002, 6.717560e-002
8.485253e+002, 6.794637e-002
8.504538e+002, 6.894782e-002
8.523823e+002, 7.012267e-002
8.543107e+002, 7.129541e-002
8.562392e+002, 7.221641e-002
8.581677e+002, 7.340336e-002
8.600961e+002, 7.409900e-002
8.620246e+002, 7.453269e-002
8.639531e+002, 7.488237e-002
8.658815e+002, 7.520871e-002
8.678100e+002, 7.530037e-002
8.697385e+002, 7.479047e-002
8.716669e+002, 7.389712e-002
8.735954e+002, 7.274520e-002
8.755239e+002, 7.138266e-002
8.774523e+002, 6.991517e-002
8.793808e+002, 6.866682e-002
8.813093e+002, 6.747123e-002
8.832377e+002, 6.625682e-002
8.851662e+002, 6.542911e-002
8.870947e+002, 6.510632e-002
8.890231e+002, 6.490412e-002
8.909516e+002, 6.475526e-002
8.928801e+002, 6.494694e-002
8.948085e+002, 6.542509e-002
8.967370e+002, 6.588142e-002
8.986655e+002, 6.653274e-002
9.005939e+002, 6.719238e-002
9.025224e+002, 6.813302e-002
9.044509e+002, 6.912986e-002
9.063793e+002, 6.995551e-002
9.083078e+002, 7.066903e-002
9.102363e+002, 7.137170e-002
9.121647e+002, 7.184643e-002
9.140932e+002, 7.216262e-002
9.160217e+002, 7.242755e-002
9.179501e+002, 7.262932e-002
9.198786e+002, 7.282134e-002
9.218071e+002, 7.293621e-002
9.237355e+002, 7.302671e-002
9.256640e+002, 7.330506e-002
9.275925e+002, 7.389819e-002
9.295209e+002, 7.473918e-002
9.314494e+002, 7.587331e-002
9.333779e+002, 7.717666e-002
9.353063e+002, 7.882581e-002
9.372348e+002, 8.083908e-002
9.391633e+002, 8.312356e-002
9.410917e+002, 8.589999e-002
9.430202e+002, 8.922788e-002
9.449487e+002, 9.287525e-002
9.468771e+002, 9.691104e-002
9.488056e+002, 1.016428e-001
9.507341e+002, 1.069385e-001
9.526625e+002, 1.126232e-001
9.545910e+002, 1.188505e-001
9.565195e+002, 1.255416e-001
9.584479e+002, 1.327055e-001
9.603764e+002, 1.406090e-001
9.623049e+002, 1.495698e-001
9.642333e+002, 1.593775e-001
9.661618e+002, 1.700083e-001
9.680903e+002, 1.818965e-001
9.700187e+002, 1.951258e-001
9.719472e+002, 2.098515e-001
9.738757e+002, 2.261962e-001
9.758041e+002, 2.440137e-001
9.777326e+002, 2.633400e-001
9.796611e+002, 2.845748e-001
9.815895e+002, 3.078745e-001
9.835180e+002, 3.328196e-001
9.854465e+002, 3.591743e-001
9.873749e+002, 3.869893e-001
9.893034e+002, 4.164670e-001
9.912319e+002, 4.465027e-001
9.931603e+002, 4.774921e-001
9.950888e+002, 5.086178e-001
9.970173e+002, 5.383565e-001
9.989457e+002, 5.653698e-001
1.000874e+003, 5.885898e-001
1.002803e+003, 6.038530e-001
1.004731e+003, 6.017739e-001
1.006660e+003, 5.844349e-001
1.008588e+003, 5.603716e-001
1.010517e+003, 5.265985e-001
1.012445e+003, 4.968270e-001
1.014373e+003, 4.873964e-001
1.016302e+003, 4.874167e-001
1.018230e+003, 4.809206e-001
1.020159e+003, 4.649525e-001
1.022087e+003, 4.429025e-001
1.024016e+003, 4.175732e-001
1.025944e+003, 3.907261e-001
1.027873e+003, 3.639541e-001
1.029801e+003, 3.378954e-001
1.031730e+003, 3.125664e-001
1.033658e+003, 2.879704e-001
1.035587e+003, 2.639415e-001
1.037515e+003, 2.406458e-001
1.039443e+003, 2.185993e-001
1.041372e+003, 1.984779e-001
1.043300e+003, 1.808678e-001
1.045229e+003, 1.663936e-001
1.047157e+003, 1.559417e-001
1.049086e+003, 1.494312e-001
1.051014e+003, 1.462168e-001
1.052943e+003, 1.460370e-001
1.054871e+003, 1.486118e-001
1.056800e+003, 1.539058e-001
1.058728e+003, 1.617207e-001
1.060657e+003, 1.717872e-001
1.062585e+003, 1.843823e-001
1.064514e+003, 1.999298e-001
1.066442e+003, 2.186327e-001
1.068370e+003, 2.399828e-001
1.070299e+003, 2.642863e-001
1.072227e+003, 2.925885e-001
1.074156e+003, 3.261231e-001
1.076084e+003, 3.650948e-001
1.078013e+003, 4.082344e-001
1.079941e+003, 4.507307e-001
1.081870e+003, 4.841612e-001
1.083798e+003, 5.041974e-001
1.085727e+003, 5.147600e-001
1.087655e+003, 5.206846e-001
1.089584e+003, 5.228500e-001
1.091512e+003, 5.159609e-001
1.093441e+003, 4.949498e-001
1.095369e+003, 4.616393e-001
1.097297e+003, 4.230912e-001
1.099226e+003, 3.854903e-001
1.101154e+003, 3.516410e-001
1.103083e+003, 3.219471e-001
1.105011e+003, 2.960333e-001
1.106940e+003, 2.729329e-001
1.108868e+003, 2.519123e-001
1.110797e+003, 2.320897e-001
1.112725e+003, 2.132706e-001
1.114654e+003, 1.951681e-001
1.116582e+003, 1.778851e-001
1.118511e+003, 1.617882e-001
1.120439e+003, 1.473801e-001
1.122368e+003, 1.346904e-001
1.124296e+003, 1.238860e-001
1.126224e+003, 1.150721e-001
1.128153e+003, 1.084135e-001
1.130081e+003, 1.039291e-001
1.132010e+003, 1.014377e-001
1.133938e+003, 1.006762e-001
1.135867e+003, 1.014441e-001
1.137795e+003, 1.036932e-001
1.139724e+003, 1.071967e-001
1.141652e+003, 1.111535e-001
1.143581e+003, 1.153933e-001
1.145509e+003, 1.198246e-001
1.147438e+003, 1.240531e-001
1.149366e+003, 1.281016e-001
1.151295e+003, 1.323070e-001
1.153223e+003, 1.364190e-001
1.155151e+003, 1.406350e-001
1.157080e+003, 1.449965e-001
1.159008e+003, 1.494459e-001
1.160937e+003, 1.537494e-001
1.162865e+003, 1.580785e-001
1.164794e+003, 1.623590e-001
1.166722e+003, 1.664381e-001
1.168651e+003, 1.702617e-001
1.170579e+003, 1.736907e-001
1.172508e+003, 1.765449e-001
1.174436e+003, 1.789827e-001
1.176365e+003, 1.810823e-001
1.178293e+003, 1.825351e-001
1.180222e+003, 1.830584e-001
1.182150e+003, 1.827543e-001
1.184078e+003, 1.815966e-001
1.186007e+003, 1.795073e-001
1.187935e+003, 1.765066e-001
1.189864e+003, 1.726594e-001
1.191792e+003, 1.678612e-001
1.193721e+003, 1.622031e-001
1.195649e+003, 1.560262e-001
1.197578e+003, 1.492838e-001
1.199506e+003, 1.419998e-001
1.201435e+003, 1.342795e-001
1.203363e+003, 1.262648e-001
1.205292e+003, 1.182515e-001
1.207220e+003, 1.102237e-001
1.209149e+003, 1.021463e-001
1.211077e+003, 9.436083e-002
1.213005e+003, 8.701247e-002
1.214934e+003, 8.012321e-002
1.216862e+003, 7.358940e-002
1.218791e+003, 6.723268e-002
1.220719e+003, 6.143473e-002
1.222648e+003, 5.617636e-002
1.224576e+003, 5.123732e-002
1.226505e+003, 4.673845e-002
1.228433e+003, 4.260442e-002
1.230362e+003, 3.888954e-002
1.232290e+003, 3.555924e-002
1.234219e+003, 3.259739e-002
1.236147e+003, 2.993696e-002
1.238076e+003, 2.732359e-002
1.240004e+003, 2.519666e-002
1.241932e+003, 2.334592e-002
1.243861e+003, 2.145515e-002
1.245789e+003, 1.995304e-002
1.247718e+003, 1.882340e-002
1.249646e+003, 1.771861e-002
1.251575e+003, 1.661890e-002
1.253503e+003, 1.569087e-002
1.255432e+003, 1.488181e-002
1.257360e+003, 1.407923e-002
1.259289e+003, 1.328999e-002
1.261217e+003, 1.268391e-002
1.263146e+003, 1.222386e-002
1.265074e+003, 1.159849e-002
1.267003e+003, 1.089335e-002
1.268931e+003, 1.034363e-002
1.270859e+003, 9.922853e-003
1.272788e+003, 9.575926e-003
1.274716e+003, 9.222856e-003
1.276645e+003, 8.689602e-003
1.278573e+003, 8.211110e-003
1.280502e+003, 7.994555e-003
1.282430e+003, 7.798613e-003
1.284359e+003, 7.533846e-003
1.286287e+003, 7.272229e-003
1.288216e+003, 7.020246e-003
1.290144e+003, 6.864655e-003
1.292073e+003, 6.648307e-003
1.294001e+003, 6.408707e-003
1.295930e+003, 6.335477e-003
1.297858e+003, 6.293071e-003
1.299786e+003, 6.242851e-003
1.301715e+003, 6.312815e-003
1.303643e+003, 6.409611e-003
1.305572e+003, 6.485187e-003
1.307500e+003, 6.470318e-003
1.309429e+003, 6.405571e-003
1.311357e+003, 6.301922e-003
1.313286e+003, 6.217318e-003
1.315214e+003, 6.296189e-003
1.317143e+003, 6.252747e-003
1.319071e+003, 6.171331e-003
1.321000e+003, 6.183412e-003
1.322928e+003, 6.229752e-003
1.324857e+003, 6.274285e-003
1.326785e+003, 6.252576e-003
1.328714e+003, 6.156492e-003
1.330642e+003, 6.161650e-003
1.332570e+003, 6.268043e-003
1.334499e+003, 6.273718e-003
1.336427e+003, 6.218079e-003
1.338356e+003, 6.167314e-003
1.340284e+003, 6.141525e-003
1.342213e+003, 6.179903e-003
1.344141e+003, 6.215882e-003
1.346070e+003, 6.282513e-003
1.347998e+003, 6.411939e-003
1.349927e+003, 6.512565e-003
1.351855e+003, 6.492259e-003
1.353784e+003, 6.451157e-003
1.355712e+003, 6.431929e-003
1.357641e+003, 6.522275e-003
1.359569e+003, 6.672584e-003
1.361497e+003, 6.613326e-003
1.363426e+003, 6.555251e-003
1.365354e+003, 6.576978e-003
1.367283e+003, 6.579696e-003
1.369211e+003, 6.666524e-003
1.371140e+003, 6.697659e-003
1.373068e+003, 6.694546e-003
1.374997e+003, 6.737331e-003
1.376925e+003, 6.706764e-003
1.378854e+003, 6.778638e-003
1.380782e+003, 6.862772e-003
1.382711e+003, 6.941481e-003
1.384639e+003, 7.003488e-003
1.386568e+003, 7.125247e-003
1.388496e+003, 7.170614e-003
1.390424e+003, 7.308947e-003
1.392353e+003, 7.435020e-003
1.394281e+003, 7.449982e-003
1.396210e+003, 7.492261e-003
1.398138e+003, 7.582226e-003
1.400067e+003, 7.710015e-003
1.401995e+003, 7.849724e-003
1.403924e+003, 7.965536e-003
1.405852e+003, 8.024086e-003
1.407781e+003, 8.113446e-003
1.409709e+003, 8.310160e-003
1.411638e+003, 8.495336e-003
1.413566e+003, 8.692258e-003
1.415495e+003, 8.860861e-003
1.417423e+003, 8.989798e-003
1.419351e+003, 9.098518e-003
1.421280e+003, 9.105525e-003
1.423208e+003, 9.170234e-003
1.425137e+003, 9.238816e-003
1.427065e+003, 9.233359e-003
1.428994e+003, 9.313359e-003
1.430922e+003, 9.399698e-003
1.432851e+003, 9.338778e-003
1.434779e+003, 9.379677e-003
1.436708e+003, 9.510300e-003
1.438636e+003, 9.482845e-003
1.440565e+003, 9.418033e-003
1.442493e+003, 9.324647e-003
1.444422e+003, 9.350174e-003
1.446350e+003, 9.319765e-003
1.448278e+003, 9.106805e-003
1.450207e+003, 8.970702e-003
1.452135e+003, 8.928326e-003
1.454064e+003, 8.937016e-003
1.455992e+003, 9.093278e-003
1.457921e+003, 8.906010e-003
1.459849e+003, 8.607722e-003
1.461778e+003, 8.479696e-003
1.463706e+003, 8.507644e-003
1.465635e+003, 8.480775e-003
1.467563e+003, 8.102451e-003
1.469492e+003, 7.875682e-003
1.471420e+003, 7.743498e-003
1.473349e+003, 7.436768e-003
1.475277e+003, 7.068942e-003
1.477205e+003, 6.761997e-003
1.479134e+003, 6.565937e-003
1.481062e+003, 6.397014e-003
1.482991e+003, 6.234377e-003
1.484919e+003, 6.076742e-003
1.486848e+003, 6.039998e-003
1.488776e+003, 6.142060e-003
1.490705e+003, 6.111683e-003
1.492633e+003, 5.894349e-003
1.494562e+003, 5.913179e-003
1.496490e+003, 6.065900e-003
1.498419e+003, 5.935938e-003
1.500347e+003, 5.793175e-003
1.502276e+003, 5.742847e-003
1.504204e+003, 5.947209e-003
1.506132e+003, 6.272942e-003
1.508061e+003, 6.259337e-003
1.509989e+003, 6.126564e-003
1.511918e+003, 6.183918e-003
1.513846e+003, 6.188187e-003
1.515775e+003, 6.330911e-003
1.517703e+003, 6.500413e-003
1.519632e+003, 6.753831e-003
1.521560e+003, 7.047378e-003
1.523489e+003, 7.119657e-003
1.525417e+003, 7.209065e-003
1.527346e+003, 7.378353e-003
1.529274e+003, 7.515698e-003
1.531203e+003, 7.702865e-003
1.533131e+003, 7.809061e-003
1.535059e+003, 7.676577e-003
1.536988e+003, 7.836175e-003
1.538916e+003, 8.239890e-003
1.540845e+003, 8.345411e-003
1.542773e+003, 8.296407e-003
1.544702e+003, 8.157361e-003
1.546630e+003, 7.960011e-003
1.548559e+003, 7.902255e-003
1.550487e+003, 7.951848e-003
1.552416e+003, 8.006591e-003
1.554344e+003, 8.086571e-003
1.556273e+003, 8.181660e-003
1.558201e+003, 8.270750e-003
1.560130e+003, 8.316590e-003
1.562058e+003, 8.113652e-003
1.563986e+003, 8.023348e-003
1.565915e+003, 8.031762e-003
1.567843e+003, 7.990505e-003
1.569772e+003, 8.015482e-003
1.571700e+003, 7.916897e-003
1.573629e+003, 7.989565e-003
1.575557e+003, 8.158977e-003
1.577486e+003, 8.178003e-003
1.579414e+003, 8.068111e-003
1.581343e+003, 7.972894e-003
1.583271e+003, 7.909009e-003
1.585200e+003, 7.830929e-003
1.587128e+003, 7.833486e-003
1.589057e+003, 7.862737e-003
1.590985e+003, 7.881342e-003
1.592913e+003, 7.888492e-003
1.594842e+003, 7.844491e-003
1.596770e+003, 7.843597e-003
1.598699e+003, 7.752471e-003
1.600627e+003, 7.717904e-003
1.602556e+003, 7.840262e-003
1.604484e+003, 7.857011e-003
1.606413e+003, 7.857253e-003
1.608341e+003, 7.937669e-003
1.610270e+003, 8.080811e-003
1.612198e+003, 8.260946e-003
1.614127e+003, 8.429730e-003
1.616055e+003, 8.629808e-003
1.617984e+003, 8.582425e-003
1.619912e+003, 8.709211e-003
1.621840e+003, 9.015882e-003
1.623769e+003, 9.213218e-003
1.625697e+003, 9.396253e-003
1.627626e+003, 9.586552e-003
1.629554e+003, 9.846156e-003
1.631483e+003, 1.011230e-002
1.633411e+003, 1.031852e-002
1.635340e+003, 1.059933e-002
1.637268e+003, 1.060286e-002
1.639197e+003, 1.040112e-002
1.641125e+003, 1.013477e-002
1.643054e+003, 9.978051e-003
1.644982e+003, 1.009192e-002
1.646911e+003, 1.004716e-002
1.648839e+003, 9.754781e-003
1.650767e+003, 1.000981e-002
1.652696e+003, 1.039977e-002
1.654624e+003, 1.003355e-002
1.656553e+003, 9.553633e-003
1.658481e+003, 9.320525e-003
1.660410e+003, 9.124596e-003
1.662338e+003, 8.983285e-003
1.664267e+003, 8.789743e-003
1.666195e+003, 8.739823e-003
1.668124e+003, 8.732538e-003
1.670052e+003, 8.463916e-003
1.671981e+003, 8.249052e-003
1.673909e+003, 8.248602e-003
1.675838e+003, 7.980700e-003
1.677766e+003, 7.627212e-003
1.679694e+003, 7.564245e-003
1.681623e+003, 7.540503e-003
1.683551e+003, 7.787333e-003
1.685480e+003, 7.804574e-003
1.687408e+003, 7.512346e-003
1.689337e+003, 7.277043e-003
1.691265e+003, 7.065141e-003
1.693194e+003, 6.937859e-003
1.695122e+003, 7.198335e-003
1.697051e+003, 7.326196e-003
1.698979e+003, 7.281732e-003
1.700908e+003, 7.255991e-003
1.702836e+003, 6.833741e-003
1.704765e+003, 6.811807e-003
1.706693e+003, 6.927697e-003
1.708621e+003, 6.984906e-003
1.710550e+003, 6.863877e-003
1.712478e+003, 6.711088e-003
1.714407e+003, 6.907506e-003
1.716335e+003, 7.146079e-003
1.718264e+003, 7.001087e-003
1.720192e+003, 6.700438e-003
1.722121e+003, 6.695296e-003
1.724049e+003, 6.643347e-003
1.725978e+003, 6.499663e-003
1.727906e+003, 6.524283e-003
1.729835e+003, 6.547093e-003
1.731763e+003, 6.504304e-003
1.733692e+003, 6.495185e-003
1.735620e+003, 6.164334e-003
1.737548e+003, 5.825458e-003
1.739477e+003, 5.685494e-003
1.741405e+003, 5.545060e-003
1.743334e+003, 5.433419e-003
1.745262e+003, 5.334172e-003
1.747191e+003, 5.307574e-003
1.749119e+003, 5.251299e-003
1.751048e+003, 5.140647e-003
1.752976e+003, 5.034142e-003
1.754905e+003, 5.169143e-003
1.756833e+003, 5.220929e-003
1.758762e+003, 5.171434e-003
1.760690e+003, 5.284870e-003
1.762619e+003, 5.338372e-003
1.764547e+003, 5.333717e-003
1.766475e+003, 5.524263e-003
1.768404e+003, 5.575958e-003
1.770332e+003, 5.591949e-003
1.772261e+003, 5.719409e-003
1.774189e+003, 5.713834e-003
1.776118e+003, 5.654026e-003
1.778046e+003, 5.683890e-003
1.779975e+003, 5.666159e-003
1.781903e+003, 5.699703e-003
1.783832e+003, 5.760103e-003
1.785760e+003, 5.637930e-003
1.787689e+003, 5.474856e-003
1.789617e+003, 5.486245e-003
1.791546e+003, 5.582180e-003
1.793474e+003, 5.630196e-003
1.795402e+003, 5.503411e-003
1.797331e+003, 5.605096e-003
1.799259e+003, 5.541872e-003
1.801188e+003, 5.456429e-003
1.803116e+003, 5.353980e-003
1.805045e+003, 5.414136e-003
1.806973e+003, 5.370238e-003
1.808902e+003, 5.346816e-003
1.810830e+003, 5.311855e-003
1.812759e+003, 5.321617e-003
1.814687e+003, 5.167759e-003
1.816616e+003, 5.151616e-003
1.818544e+003, 5.111170e-003
1.820473e+003, 5.208019e-003
1.822401e+003, 5.356685e-003
1.824329e+003, 5.411401e-003
1.826258e+003, 5.334752e-003
1.828186e+003, 5.375305e-003
1.830115e+003, 5.432317e-003
1.832043e+003, 5.338299e-003
1.833972e+003, 5.182228e-003
1.835900e+003, 5.184920e-003
1.837829e+003, 5.116758e-003
1.839757e+003, 5.251707e-003
1.841686e+003, 5.299942e-003
1.843614e+003, 5.262018e-003
1.845543e+003, 5.066702e-003
1.847471e+003, 5.037131e-003
1.849400e+003, 5.231964e-003
1.851328e+003, 5.292497e-003
1.853256e+003, 5.514625e-003
1.855185e+003, 5.649583e-003
1.857113e+003, 5.680989e-003
1.859042e+003, 5.640492e-003
1.860970e+003, 5.447550e-003
1.862899e+003, 5.326875e-003
1.864827e+003, 5.440000e-003
1.866756e+003, 5.621995e-003
1.868684e+003, 5.419138e-003
1.870613e+003, 5.208441e-003
1.872541e+003, 5.210132e-003
1.874470e+003, 5.444250e-003
1.876398e+003, 5.520972e-003
1.878327e+003, 5.152170e-003
1.880255e+003, 4.957975e-003
1.882183e+003, 5.075550e-003
1.884112e+003, 5.315195e-003
1.886040e+003, 5.419609e-003
1.887969e+003, 5.404069e-003
1.889897e+003, 5.313954e-003
1.891826e+003, 5.452866e-003
1.893754e+003, 5.864068e-003
1.895683e+003, 5.875553e-003
1.897611e+003, 5.844586e-003
1.899540e+003, 5.933116e-003
1.901468e+003, 6.236999e-003
1.903397e+003, 6.189052e-003
1.905325e+003, 6.160912e-003
1.907254e+003, 5.978001e-003
1.909182e+003, 5.957546e-003
1.911110e+003, 5.958328e-003
1.913039e+003, 6.110517e-003
1.914967e+003, 6.626841e-003
1.916896e+003, 7.021056e-003
1.918824e+003, 7.007368e-003
1.920753e+003, 7.024148e-003
1.922681e+003, 7.232530e-003
1.924610e+003, 7.077373e-003
1.926538e+003, 7.449168e-003
1.928467e+003, 8.030307e-003
1.930395e+003, 8.258010e-003
1.932324e+003, 8.259045e-003
1.934252e+003, 8.269555e-003
1.936181e+003, 7.954207e-003
1.938109e+003, 8.184687e-003
1.940037e+003, 8.292092e-003
1.941966e+003, 8.583399e-003
1.943894e+003, 9.400257e-003
1.945823e+003, 9.625632e-003
1.947751e+003, 9.297882e-003
1.949680e+003, 9.710653e-003
1.951608e+003, 1.048598e-002
1.953537e+003, 1.073512e-002
1.955465e+003, 1.080868e-002
1.957394e+003, 1.243628e-002
1.959322e+003, 1.437217e-002
1.961251e+003, 1.484738e-002
1.963179e+003, 1.470289e-002
1.965108e+003, 1.524493e-002
1.967036e+003, 1.493397e-002
1.968964e+003, 1.433301e-002
1.970893e+003, 1.461009e-002
1.972821e+003, 1.489650e-002
1.974750e+003, 1.517214e-002
1.976678e+003, 1.602805e-002
1.978607e+003, 1.722762e-002
1.980535e+003, 1.808495e-002
1.982464e+003, 1.831188e-002
1.984392e+003, 1.878725e-002
1.986321e+003, 1.961294e-002
1.988249e+003, 1.910930e-002
1.990178e+003, 1.896389e-002
1.992106e+003, 1.905978e-002
1.994035e+003, 1.804027e-002
1.995963e+003, 1.704521e-002
1.997891e+003, 1.768516e-002
1.999820e+003, 1.792649e-002
2.001748e+003, 1.566420e-002
2.003677e+003, 1.289321e-002
2.005605e+003, 1.329812e-002
2.007534e+003, 1.550528e-002
2.009462e+003, 1.646767e-002
2.011391e+003, 1.568384e-002
2.013319e+003, 1.598541e-002
2.015248e+003, 1.638975e-002
2.017176e+003, 1.606341e-002
2.019105e+003, 1.534174e-002
2.021033e+003, 1.556013e-002
2.022962e+003, 1.620861e-002
2.024890e+003, 1.776643e-002
2.026818e+003, 1.781244e-002
2.028747e+003, 1.853853e-002
2.030675e+003, 1.923318e-002
2.032604e+003, 1.951018e-002
2.034532e+003, 1.964427e-002
2.036461e+003, 1.958716e-002
2.038389e+003, 2.083537e-002
2.040318e+003, 2.179790e-002
2.042246e+003, 2.222214e-002
2.044175e+003, 2.299920e-002
2.046103e+003, 2.181532e-002
2.048031e+003, 2.130735e-002
2.049960e+003, 2.153340e-002
2.051888e+003, 2.078297e-002
2.053817e+003, 2.007669e-002
2.055745e+003, 1.921573e-002
2.057674e+003, 1.886673e-002
2.059602e+003, 1.804828e-002
2.061531e+003, 1.711454e-002
2.063459e+003, 1.623592e-002
2.065388e+003, 1.554991e-002
2.067316e+003, 1.555924e-002
2.069245e+003, 1.604158e-002
2.071173e+003, 1.622522e-002
2.073102e+003, 1.541363e-002
2.075030e+003, 1.577091e-002
2.076958e+003, 1.581273e-002
2.078887e+003, 1.562048e-002
2.080815e+003, 1.529970e-002
2.082744e+003, 1.515273e-002
2.084672e+003, 1.574868e-002
2.086601e+003, 1.592754e-002
2.088529e+003, 1.551989e-002
2.090458e+003, 1.534799e-002
2.092386e+003, 1.496824e-002
2.094315e+003, 1.497033e-002
2.096243e+003, 1.557481e-002
2.098172e+003, 1.545324e-002
2.100100e+003, 1.518391e-002
2.102029e+003, 1.525703e-002
2.103957e+003, 1.529922e-002
2.105885e+003, 1.550069e-002
2.107814e+003, 1.553395e-002
2.109742e+003, 1.523162e-002
2.111671e+003, 1.481413e-002
2.113599e+003, 1.491555e-002
2.115528e+003, 1.529199e-002
2.117456e+003, 1.497867e-002
2.119385e+003, 1.441206e-002
2.121313e+003, 1.392705e-002
2.123242e+003, 1.450600e-002
2.125170e+003, 1.485740e-002
2.127099e+003, 1.429172e-002
2.129027e+003, 1.432787e-002
2.130956e+003, 1.409976e-002
2.132884e+003, 1.390411e-002
2.134813e+003, 1.439941e-002
2.136741e+003, 1.425990e-002
2.138669e+003, 1.360010e-002
2.140598e+003, 1.359252e-002
2.142526e+003, 1.344148e-002
2.144455e+003, 1.308667e-002
2.146383e+003, 1.294713e-002
2.148312e+003, 1.340282e-002
2.150240e+003, 1.278228e-002
2.152169e+003, 1.252974e-002
2.154097e+003, 1.361724e-002
2.156026e+003, 1.412084e-002
2.157954e+003, 1.386843e-002
2.159883e+003, 1.457802e-002
2.161811e+003, 1.378601e-002
2.163740e+003, 1.264696e-002
2.165668e+003, 1.309768e-002
2.167596e+003, 1.277250e-002
2.169525e+003, 1.275386e-002
2.171453e+003, 1.190901e-002
2.173382e+003, 1.163065e-002
2.175310e+003, 1.147067e-002
2.177239e+003, 1.164019e-002
2.179167e+003, 1.237462e-002
2.181096e+003, 1.215857e-002
2.183024e+003, 1.187713e-002
2.184953e+003, 1.168725e-002
2.186881e+003, 1.075269e-002
2.188810e+003, 1.076717e-002
2.190738e+003, 1.107781e-002
2.192667e+003, 1.083227e-002
2.194595e+003, 1.198200e-002
2.196523e+003, 1.249765e-002
2.198452e+003, 1.164279e-002
2.200380e+003, 1.127463e-002
2.202309e+003, 1.176129e-002
2.204237e+003, 1.164292e-002
2.206166e+003, 1.098015e-002
2.208094e+003, 1.084091e-002
2.210023e+003, 1.118518e-002
2.211951e+003, 1.124952e-002
2.213880e+003, 1.120880e-002
2.215808e+003, 1.081127e-002
2.217737e+003, 1.107939e-002
2.219665e+003, 1.144378e-002
2.221594e+003, 1.089222e-002
2.223522e+003, 1.059751e-002
2.225450e+003, 1.059084e-002
2.227379e+003, 1.073789e-002
2.229307e+003, 1.099117e-002
2.231236e+003, 1.075836e-002
2.233164e+003, 1.107057e-002
2.235093e+003, 1.167454e-002
2.237021e+003, 1.188592e-002
2.238950e+003, 1.214035e-002
2.240878e+003, 1.208531e-002
2.242807e+003, 1.250096e-002
2.244735e+003, 1.277456e-002
2.246664e+003, 1.238376e-002
2.248592e+003, 1.301731e-002
2.250521e+003, 1.332242e-002
2.252449e+003, 1.251687e-002
2.254377e+003, 1.150255e-002
2.256306e+003, 1.116003e-002
2.258234e+003, 1.090285e-002
2.260163e+003, 1.109093e-002
2.262091e+003, 1.092913e-002
2.264020e+003, 1.080820e-002
2.265948e+003, 1.096553e-002
2.267877e+003, 1.094783e-002
2.269805e+003, 1.170560e-002
2.271734e+003, 1.215486e-002
2.273662e+003, 1.210766e-002
2.275591e+003, 1.193183e-002
2.277519e+003, 1.169898e-002
2.279448e+003, 1.154811e-002
2.281376e+003, 1.154917e-002
2.283304e+003, 1.101867e-002
2.285233e+003, 1.061726e-002
2.287161e+003, 1.067274e-002
2.289090e+003, 1.060744e-002
2.291018e+003, 1.057309e-002
2.292947e+003, 1.035217e-002
2.294875e+003, 1.024367e-002
2.296804e+003, 1.036546e-002
2.298732e+003, 1.034006e-002
2.300661e+003, 1.046936e-002
2.302589e+003, 1.043535e-002
2.304518e+003, 9.772459e-003
2.306446e+003, 9.535450e-003
2.308375e+003, 9.757116e-003
2.310303e+003, 9.468174e-003
2.312231e+003, 9.425747e-003
2.314160e+003, 9.759102e-003
2.316088e+003, 9.981990e-003
2.318017e+003, 1.025821e-002
2.319945e+003, 1.069520e-002
2.321874e+003, 1.075360e-002
2.323802e+003, 1.063014e-002
2.325731e+003, 1.031085e-002
2.327659e+003, 1.021251e-002
2.329588e+003, 1.017950e-002
2.331516e+003, 1.001797e-002
2.333445e+003, 9.971547e-003
2.335373e+003, 1.009998e-002
2.337302e+003, 9.926200e-003
2.339230e+003, 9.617278e-003
2.341158e+003, 9.598085e-003
2.343087e+003, 9.730753e-003
2.345015e+003, 9.708660e-003
2.346944e+003, 9.516891e-003
2.348872e+003, 9.362375e-003
2.350801e+003, 9.483933e-003
2.352729e+003, 9.072351e-003
2.354658e+003, 9.107606e-003
2.356586e+003, 9.600319e-003
2.358515e+003, 9.734470e-003
2.360443e+003, 9.788179e-003
2.362372e+003, 1.004701e-002
2.364300e+003, 1.018517e-002
2.366229e+003, 9.689118e-003
2.368157e+003, 9.550828e-003
2.370085e+003, 9.668671e-003
2.372014e+003, 9.664606e-003
2.373942e+003, 9.566222e-003
2.375871e+003, 9.378849e-003
2.377799e+003, 9.106388e-003
2.379728e+003, 8.968369e-003
2.381656e+003, 8.760261e-003
2.383585e+003, 8.447229e-003
2.385513e+003, 9.038142e-003
2.387442e+003, 9.530174e-003
2.389370e+003, 9.328720e-003
2.391299e+003, 9.175902e-003
2.393227e+003, 9.251873e-003
2.395156e+003, 9.228003e-003
2.397084e+003, 8.857051e-003
2.399012e+003, 8.845678e-003
2.400941e+003, 9.018572e-003
2.402869e+003, 8.711972e-003
2.404798e+003, 8.498604e-003
2.406726e+003, 9.160258e-003
2.408655e+003, 9.930967e-003
2.410583e+003, 1.001377e-002
2.412512e+003, 9.864956e-003
2.414440e+003, 1.001995e-002
2.416369e+003, 1.026611e-002
2.418297e+003, 1.003769e-002
2.420226e+003, 9.473503e-003
2.422154e+003, 9.346447e-003
2.424083e+003, 9.557645e-003
2.426011e+003, 1.006911e-002
2.427939e+003, 1.042717e-002
2.429868e+003, 1.028292e-002
2.431796e+003, 1.015144e-002
2.433725e+003, 9.899020e-003
2.435653e+003, 1.002990e-002
2.437582e+003, 1.020066e-002
2.439510e+003, 1.014081e-002
2.441439e+003, 1.015719e-002
2.443367e+003, 1.044866e-002
2.445296e+003, 1.059694e-002
2.447224e+003, 1.065425e-002
2.449153e+003, 1.070958e-002
2.451081e+003, 1.095202e-002
2.453010e+003, 1.129896e-002
2.454938e+003, 1.125946e-002
2.456866e+003, 1.091872e-002
2.458795e+003, 1.097119e-002
2.460723e+003, 1.107565e-002
2.462652e+003, 1.122663e-002
2.464580e+003, 1.164176e-002
2.466509e+003, 1.159145e-002
2.468437e+003, 1.123776e-002
2.470366e+003, 1.118713e-002
2.472294e+003, 1.130541e-002
2.474223e+003, 1.135769e-002
2.476151e+003, 1.154504e-002
2.478080e+003, 1.135417e-002
2.480008e+003, 1.141928e-002
2.481937e+003, 1.178653e-002
2.483865e+003, 1.184434e-002
2.485793e+003, 1.165566e-002
2.487722e+003, 1.166135e-002
2.489650e+003, 1.208253e-002
2.491579e+003, 1.234080e-002
2.493507e+003, 1.215874e-002
2.495436e+003, 1.210598e-002
2.497364e+003, 1.241740e-002
2.499293e+003, 1.283518e-002
2.501221e+003, 1.271904e-002
2.503150e+003, 1.234156e-002
2.505078e+003, 1.211642e-002
2.507007e+003, 1.226911e-002
2.508935e+003, 1.264762e-002
2.510864e+003, 1.277826e-002
2.512792e+003, 1.265698e-002
2.514720e+003, 1.277323e-002
2.516649e+003, 1.289477e-002
2.518577e+003, 1.284088e-002
2.520506e+003, 1.269963e-002
2.522434e+003, 1.284704e-002
2.524363e+003, 1.298082e-002
2.526291e+003, 1.313477e-002
2.528220e+003, 1.331264e-002
2.530148e+003, 1.328270e-002
2.532077e+003, 1.315849e-002
2.534005e+003, 1.304580e-002
2.535934e+003, 1.331597e-002
2.537862e+003, 1.342021e-002
2.539791e+003, 1.328372e-002
2.541719e+003, 1.318180e-002
2.543647e+003, 1.354755e-002
2.545576e+003, 1.351426e-002
2.547504e+003, 1.303501e-002
2.549433e+003, 1.278692e-002
2.551361e+003, 1.313859e-002
2.553290e+003, 1.358549e-002
2.555218e+003, 1.380289e-002
2.557147e+003, 1.412024e-002
2.559075e+003, 1.437847e-002
2.561004e+003, 1.435447e-002
2.562932e+003, 1.451380e-002
2.564861e+003, 1.447598e-002
2.566789e+003, 1.419422e-002
2.568718e+003, 1.443037e-002
2.570646e+003, 1.473585e-002
2.572574e+003, 1.470396e-002
2.574503e+003, 1.472610e-002
2.576431e+003, 1.453863e-002
2.578360e+003, 1.459848e-002
2.580288e+003, 1.495993e-002
2.582217e+003, 1.513228e-002
2.584145e+003, 1.504696e-002
2.586074e+003, 1.509890e-002
2.588002e+003, 1.499839e-002
2.589931e+003, 1.495633e-002
2.591859e+003, 1.519495e-002
2.593788e+003, 1.592454e-002
2.595716e+003, 1.617094e-002
2.597645e+003, 1.617628e-002
2.599573e+003, 1.575350e-002
2.601501e+003, 1.564559e-002
2.603430e+003, 1.604215e-002
2.605358e+003, 1.645342e-002
2.607287e+003, 1.663202e-002
2.609215e+003, 1.658781e-002
2.611144e+003, 1.660629e-002
2.613072e+003, 1.675902e-002
2.615001e+003, 1.675017e-002
2.616929e+003, 1.679673e-002
2.618858e+003, 1.719742e-002
2.620786e+003, 1.731151e-002
2.622715e+003, 1.722569e-002
2.624643e+003, 1.748378e-002
2.626572e+003, 1.744015e-002
2.628500e+003, 1.723065e-002
2.630428e+003, 1.723866e-002
2.632357e+003, 1.746239e-002
2.634285e+003, 1.791728e-002
2.636214e+003, 1.780458e-002
2.638142e+003, 1.762825e-002
2.640071e+003, 1.784704e-002
2.641999e+003, 1.785758e-002
2.643928e+003, 1.766285e-002
2.645856e+003, 1.780968e-002
2.647785e+003, 1.815449e-002
2.649713e+003, 1.839140e-002
2.651642e+003, 1.849457e-002
2.653570e+003, 1.856554e-002
2.655499e+003, 1.849174e-002
2.657427e+003, 1.860814e-002
2.659355e+003, 1.879822e-002
2.661284e+003, 1.883880e-002
2.663212e+003, 1.875121e-002
2.665141e+003, 1.861525e-002
2.667069e+003, 1.871869e-002
2.668998e+003, 1.888813e-002
2.670926e+003, 1.896212e-002
2.672855e+003, 1.912227e-002
2.674783e+003, 1.931254e-002
2.676712e+003, 1.937434e-002
2.678640e+003, 1.951452e-002
2.680569e+003, 1.979791e-002
2.682497e+003, 1.989673e-002
2.684426e+003, 1.994152e-002
2.686354e+003, 1.993257e-002
2.688282e+003, 1.989577e-002
2.690211e+003, 1.995836e-002
2.692139e+003, 2.032246e-002
2.694068e+003, 2.067084e-002
2.695996e+003, 2.060015e-002
2.697925e+003, 2.055729e-002
2.699853e+003, 2.059965e-002
2.701782e+003, 2.061024e-002
2.703710e+003, 2.095437e-002
2.705639e+003, 2.138769e-002
2.707567e+003, 2.143965e-002
2.709496e+003, 2.144264e-002
2.711424e+003, 2.169661e-002
2.713353e+003, 2.174958e-002
2.715281e+003, 2.167239e-002
2.717209e+003, 2.170373e-002
2.719138e+003, 2.191292e-002
2.721066e+003, 2.214293e-002
2.722995e+003, 2.222230e-002
2.724923e+003, 2.216619e-002
2.726852e+003, 2.235069e-002
2.728780e+003, 2.255086e-002
2.730709e+003, 2.267469e-002
2.732637e+003, 2.295602e-002
2.734566e+003, 2.334102e-002
2.736494e+003, 2.332518e-002
2.738423e+003, 2.337474e-002
2.740351e+003, 2.366883e-002
2.742280e+003, 2.371394e-002
2.744208e+003, 2.365335e-002
2.746136e+003, 2.370169e-002
2.748065e+003, 2.401213e-002
2.749993e+003, 2.429719e-002
2.751922e+003, 2.432520e-002
2.753850e+003, 2.437212e-002
2.755779e+003, 2.465637e-002
2.757707e+003, 2.461113e-002
2.759636e+003, 2.457736e-002
2.761564e+003, 2.466140e-002
2.763493e+003, 2.494855e-002
2.765421e+003, 2.512867e-002
2.767350e+003, 2.525965e-002
2.769278e+003, 2.555764e-002
2.771207e+003, 2.559578e-002
2.773135e+003, 2.558466e-002
2.775063e+003, 2.562077e-002
2.776992e+003, 2.597036e-002
2.778920e+003, 2.643110e-002
2.780849e+003, 2.666519e-002
2.782777e+003, 2.684544e-002
2.784706e+003, 2.693838e-002
2.786634e+003, 2.702159e-002
2.788563e+003, 2.734444e-002
2.790491e+003, 2.738936e-002
2.792420e+003, 2.736523e-002
2.794348e+003, 2.784906e-002
2.796277e+003, 2.834558e-002
2.798205e+003, 2.836975e-002
2.800134e+003, 2.846462e-002
2.802062e+003, 2.829825e-002
2.803990e+003, 2.827520e-002
2.805919e+003, 2.869615e-002
2.807847e+003, 2.908403e-002
2.809776e+003, 2.922509e-002
2.811704e+003, 2.940993e-002
2.813633e+003, 2.941062e-002
2.815561e+003, 2.953771e-002
2.817490e+003, 2.984172e-002
2.819418e+003, 3.016322e-002
2.821347e+003, 3.048241e-002
2.823275e+003, 3.043419e-002
2.825204e+003, 3.043676e-002
2.827132e+003, 3.056631e-002
2.829061e+003, 3.091845e-002
2.830989e+003, 3.135491e-002
2.832917e+003, 3.176494e-002
2.834846e+003, 3.189556e-002
2.836774e+003, 3.201564e-002
2.838703e+003, 3.255105e-002
2.840631e+003, 3.274188e-002
2.842560e+003, 3.306717e-002
2.844488e+003, 3.322357e-002
2.846417e+003, 3.357669e-002
2.848345e+003, 3.446673e-002
2.850274e+003, 3.501599e-002
2.852202e+003, 3.528576e-002
2.854131e+003, 3.558848e-002
2.856059e+003, 3.561652e-002
2.857988e+003, 3.555841e-002
2.859916e+003, 3.528416e-002
2.861844e+003, 3.496773e-002
2.863773e+003, 3.496846e-002
2.865701e+003, 3.523097e-002
2.867630e+003, 3.503061e-002
2.869558e+003, 3.494525e-002
2.871487e+003, 3.527227e-002
2.873415e+003, 3.564808e-002
2.875344e+003, 3.598493e-002
2.877272e+003, 3.626901e-002
2.879201e+003, 3.635852e-002
2.881129e+003, 3.666878e-002
2.883058e+003, 3.696170e-002
2.884986e+003, 3.703563e-002
2.886915e+003, 3.726415e-002
2.888843e+003, 3.745488e-002
2.890771e+003, 3.741131e-002
2.892700e+003, 3.772432e-002
2.894628e+003, 3.809386e-002
2.896557e+003, 3.851163e-002
2.898485e+003, 3.883950e-002
2.900414e+003, 3.910808e-002
2.902342e+003, 3.926878e-002
2.904271e+003, 3.955292e-002
2.906199e+003, 4.018976e-002
2.908128e+003, 4.054742e-002
2.910056e+003, 4.108636e-002
2.911985e+003, 4.155249e-002
2.913913e+003, 4.205222e-002
2.915842e+003, 4.286098e-002
2.917770e+003, 4.323310e-002
2.919698e+003, 4.344354e-002
2.921627e+003, 4.418920e-002
2.923555e+003, 4.486324e-002
2.925484e+003, 4.501965e-002
2.927412e+003, 4.483170e-002
2.929341e+003, 4.406168e-002
2.931269e+003, 4.327788e-002
2.933198e+003, 4.296142e-002
2.935126e+003, 4.302378e-002
2.937055e+003, 4.289311e-002
2.938983e+003, 4.270179e-002
2.940912e+003, 4.267320e-002
2.942840e+003, 4.277618e-002
2.944769e+003, 4.266521e-002
2.946697e+003, 4.230780e-002
2.948625e+003, 4.257484e-002
2.950554e+003, 4.303813e-002
2.952482e+003, 4.352128e-002
2.954411e+003, 4.397713e-002
2.956339e+003, 4.405600e-002
2.958268e+003, 4.472436e-002
2.960196e+003, 4.496333e-002
2.962125e+003, 4.474558e-002
2.964053e+003, 4.485819e-002
2.965982e+003, 4.523495e-002
2.967910e+003, 4.542866e-002
2.969839e+003, 4.517912e-002
2.971767e+003, 4.486009e-002
2.973696e+003, 4.492388e-002
2.975624e+003, 4.491383e-002
2.977552e+003, 4.482516e-002
2.979481e+003, 4.498155e-002
2.981409e+003, 4.525228e-002
2.983338e+003, 4.539988e-002
2.985266e+003, 4.521916e-002
2.987195e+003, 4.528065e-002
2.989123e+003, 4.589602e-002
2.991052e+003, 4.620760e-002
2.992980e+003, 4.617236e-002
2.994909e+003, 4.631194e-002
2.996837e+003, 4.667825e-002
2.998766e+003, 4.694951e-002
3.000694e+003, 4.701742e-002
3.002623e+003, 4.723961e-002
3.004551e+003, 4.742191e-002
3.006479e+003, 4.744285e-002
3.008408e+003, 4.794138e-002
3.010336e+003, 4.868397e-002
3.012265e+003, 4.917416e-002
3.014193e+003, 4.962700e-002
3.016122e+003, 5.029384e-002
3.018050e+003, 5.048570e-002
3.019979e+003, 5.016396e-002
3.021907e+003, 5.038408e-002
3.023836e+003, 5.054754e-002
3.025764e+003, 5.083600e-002
3.027693e+003, 5.113650e-002
3.029621e+003, 5.142386e-002
3.031550e+003, 5.156282e-002
3.033478e+003, 5.177573e-002
3.035406e+003, 5.213140e-002
3.037335e+003, 5.256995e-002
3.039263e+003, 5.305414e-002
3.041192e+003, 5.364301e-002
3.043120e+003, 5.390316e-002
3.045049e+003, 5.407194e-002
3.046977e+003, 5.441564e-002
3.048906e+003, 5.482298e-002
3.050834e+003, 5.521348e-002
3.052763e+003, 5.563546e-002
3.054691e+003, 5.580782e-002
3.056620e+003, 5.633991e-002
3.058548e+003, 5.665652e-002
3.060477e+003, 5.685882e-002
3.062405e+003, 5.729472e-002
3.064333e+003, 5.738539e-002
3.066262e+003, 5.818003e-002
3.068190e+003, 5.869801e-002
3.070119e+003, 5.861055e-002
3.072047e+003, 5.890860e-002
3.073976e+003, 5.988265e-002
3.075904e+003, 6.051034e-002
3.077833e+003, 6.045118e-002
3.079761e+003, 6.076700e-002
3.081690e+003, 6.108279e-002
3.083618e+003, 6.148339e-002
3.085547e+003, 6.235729e-002
3.087475e+003, 6.240089e-002
3.089404e+003, 6.219422e-002
3.091332e+003, 6.283560e-002
3.093260e+003, 6.403630e-002
3.095189e+003, 6.463726e-002
3.097117e+003, 6.462263e-002
3.099046e+003, 6.497329e-002
3.100974e+003, 6.549387e-002
3.102903e+003, 6.621256e-002
3.104831e+003, 6.686696e-002
3.106760e+003, 6.716067e-002
3.108688e+003, 6.762236e-002
3.110617e+003, 6.803972e-002
3.112545e+003, 6.871781e-002
3.114474e+003, 6.937365e-002
3.116402e+003, 7.016665e-002
3.118331e+003, 7.076596e-002
3.120259e+003, 7.104255e-002
3.122188e+003, 7.151909e-002
3.124116e+003, 7.212873e-002
3.126044e+003, 7.200506e-002
3.127973e+003, 7.228558e-002
3.129901e+003, 7.351568e-002
3.131830e+003, 7.444597e-002
3.133758e+003, 7.475451e-002
3.135687e+003, 7.499130e-002
3.137615e+003, 7.514125e-002
3.139544e+003, 7.503577e-002
3.141472e+003, 7.503206e-002
3.143401e+003, 7.555942e-002
3.145329e+003, 7.589088e-002
3.147258e+003, 7.633179e-002
3.149186e+003, 7.697098e-002
3.151115e+003, 7.724237e-002
3.153043e+003, 7.743589e-002
3.154971e+003, 7.768405e-002
3.156900e+003, 7.787723e-002
3.158828e+003, 7.803362e-002
3.160757e+003, 7.830089e-002
3.162685e+003, 7.934750e-002
3.164614e+003, 8.000468e-002
3.166542e+003, 8.003777e-002
3.168471e+003, 8.034551e-002
3.170399e+003, 8.055991e-002
3.172328e+003, 8.107819e-002
3.174256e+003, 8.182447e-002
3.176185e+003, 8.210361e-002
3.178113e+003, 8.259713e-002
3.180042e+003, 8.332048e-002
3.181970e+003, 8.405251e-002
3.183898e+003, 8.459243e-002
3.185827e+003, 8.546995e-002
3.187755e+003, 8.635602e-002
3.189684e+003, 8.676042e-002
3.191612e+003, 8.761854e-002
3.193541e+003, 8.862155e-002
3.195469e+003, 8.903078e-002
3.197398e+003, 8.966162e-002
3.199326e+003, 9.019015e-002
3.201255e+003, 9.062711e-002
3.203183e+003, 9.120428e-002
3.205112e+003, 9.226569e-002
3.207040e+003, 9.365207e-002
3.208969e+003, 9.466476e-002
3.210897e+003, 9.516806e-002
3.212825e+003, 9.622112e-002
3.214754e+003, 9.692439e-002
3.216682e+003, 9.780964e-002
3.218611e+003, 9.877686e-002
3.220539e+003, 9.979663e-002
3.222468e+003, 1.004817e-001
3.224396e+003, 1.015152e-001
3.226325e+003, 1.029418e-001
3.228253e+003, 1.043498e-001
3.230182e+003, 1.054071e-001
3.232110e+003, 1.062794e-001
3.234039e+003, 1.075115e-001
3.235967e+003, 1.090899e-001
3.237896e+003, 1.104693e-001
3.239824e+003, 1.116534e-001
3.241752e+003, 1.132385e-001
3.243681e+003, 1.151794e-001
3.245609e+003, 1.166172e-001
3.247538e+003, 1.185253e-001
3.249466e+003, 1.210094e-001
3.251395e+003, 1.237910e-001
3.253323e+003, 1.255429e-001
3.255252e+003, 1.271834e-001
3.257180e+003, 1.292074e-001
3.259109e+003, 1.318419e-001
3.261037e+003, 1.345527e-001
3.262966e+003, 1.371053e-001
3.264894e+003, 1.397471e-001
3.266823e+003, 1.422025e-001
3.268751e+003, 1.444274e-001
3.270679e+003, 1.469658e-001
3.272608e+003, 1.502095e-001
3.274536e+003, 1.537969e-001
3.276465e+003, 1.567463e-001
3.278393e+003, 1.596609e-001
3.280322e+003, 1.632610e-001
3.282250e+003, 1.667497e-001
3.284179e+003, 1.698223e-001
3.286107e+003, 1.729003e-001
3.288036e+003, 1.762656e-001
3.289964e+003, 1.798003e-001
3.291893e+003, 1.829144e-001
3.293821e+003, 1.857550e-001
3.295750e+003, 1.888870e-001
3.297678e+003, 1.928882e-001
3.299606e+003, 1.966311e-001
3.301535e+003, 2.001715e-001
3.303463e+003, 2.041163e-001
3.305392e+003, 2.076812e-001
3.307320e+003, 2.115855e-001
3.309249e+003, 2.162180e-001
3.311177e+003, 2.214793e-001
3.313106e+003, 2.266669e-001
3.315034e+003, 2.318242e-001
3.316963e+003, 2.377122e-001
3.318891e+003, 2.437911e-001
3.320820e+003, 2.501902e-001
3.322748e+003, 2.575276e-001
3.324677e+003, 2.656716e-001
3.326605e+003, 2.741370e-001
3.328533e+003, 2.830289e-001
3.330462e+003, 2.926937e-001
3.332390e+003, 3.039726e-001
3.334319e+003, 3.160098e-001
3.336247e+003, 3.286636e-001
3.338176e+003, 3.428615e-001
3.340104e+003, 3.580566e-001
3.342033e+003, 3.736617e-001
3.343961e+003, 3.895708e-001
3.345890e+003, 4.050829e-001
3.347818e+003, 4.194725e-001
3.349747e+003, 4.328504e-001
3.351675e+003, 4.443750e-001
3.353604e+003, 4.522112e-001
3.355532e+003, 4.560799e-001
3.357460e+003, 4.561140e-001
3.359389e+003, 4.512882e-001
3.361317e+003, 4.425183e-001
3.363246e+003, 4.310703e-001
3.365174e+003, 4.176053e-001
3.367103e+003, 4.048441e-001
3.369031e+003, 3.940164e-001
3.370960e+003, 3.851147e-001
3.372888e+003, 3.789269e-001
3.374817e+003, 3.745808e-001
3.376745e+003, 3.716832e-001
3.378674e+003, 3.681788e-001
3.380602e+003, 3.629982e-001
3.382531e+003, 3.556627e-001
3.384459e+003, 3.447702e-001
3.386387e+003, 3.300287e-001
3.388316e+003, 3.127256e-001
3.390244e+003, 2.946352e-001
3.392173e+003, 2.772666e-001
3.394101e+003, 2.611059e-001
3.396030e+003, 2.475836e-001
3.397958e+003, 2.363495e-001
3.399887e+003, 2.264031e-001
3.401815e+003, 2.181460e-001
3.403744e+003, 2.117077e-001
3.405672e+003, 2.055968e-001
3.407601e+003, 1.997917e-001
3.409529e+003, 1.934247e-001
3.411458e+003, 1.862186e-001
3.413386e+003, 1.795692e-001
3.415314e+003, 1.729519e-001
3.417243e+003, 1.652593e-001
3.419171e+003, 1.576092e-001
3.421100e+003, 1.505141e-001
3.423028e+003, 1.436594e-001
3.424957e+003, 1.368557e-001
3.426885e+003, 1.308553e-001
3.428814e+003, 1.260309e-001
3.430742e+003, 1.212353e-001
3.432671e+003, 1.162358e-001
3.434599e+003, 1.120963e-001
3.436528e+003, 1.078772e-001
3.438456e+003, 1.039793e-001
3.440385e+003, 1.004929e-001
3.442313e+003, 9.697788e-002
3.444241e+003, 9.328218e-002
3.446170e+003, 9.029476e-002
3.448098e+003, 8.797334e-002
3.450027e+003, 8.553179e-002
3.451955e+003, 8.259985e-002
3.453884e+003, 8.002114e-002
3.455812e+003, 7.785551e-002
3.457741e+003, 7.514288e-002
3.459669e+003, 7.259502e-002
3.461598e+003, 7.023521e-002
3.463526e+003, 6.688850e-002
3.465455e+003, 6.409090e-002
3.467383e+003, 6.191606e-002
3.469312e+003, 5.965684e-002
3.471240e+003, 5.715210e-002
3.473168e+003, 5.499478e-002
3.475097e+003, 5.297315e-002
3.477025e+003, 5.109040e-002
3.478954e+003, 4.936406e-002
3.480882e+003, 4.747348e-002
3.482811e+003, 4.536198e-002
3.484739e+003, 4.344780e-002
3.486668e+003, 4.192821e-002
3.488596e+003, 4.066881e-002
3.490525e+003, 3.907691e-002
3.492453e+003, 3.786975e-002
3.494382e+003, 3.677967e-002
3.496310e+003, 3.582035e-002
3.498239e+003, 3.526565e-002
3.500167e+003, 3.472750e-002
3.502095e+003, 3.391634e-002
3.504024e+003, 3.276841e-002
3.505952e+003, 3.225459e-002
3.507881e+003, 3.230158e-002
3.509809e+003, 3.162230e-002
3.511738e+003, 3.025259e-002
3.513666e+003, 2.962184e-002
3.515595e+003, 2.922986e-002
3.517523e+003, 2.838395e-002
3.519452e+003, 2.782930e-002
3.521380e+003, 2.741016e-002
3.523309e+003, 2.673259e-002
3.525237e+003, 2.570736e-002
3.527166e+003, 2.546788e-002
3.529094e+003, 2.516240e-002
3.531022e+003, 2.448942e-002
3.532951e+003, 2.370636e-002
3.534879e+003, 2.291609e-002
3.536808e+003, 2.294443e-002
3.538736e+003, 2.322467e-002
3.540665e+003, 2.288143e-002
3.542593e+003, 2.230348e-002
3.544522e+003, 2.173847e-002
3.546450e+003, 2.101828e-002
3.548379e+003, 2.052857e-002
3.550307e+003, 2.049398e-002
3.552236e+003, 2.038625e-002
3.554164e+003, 1.985095e-002
3.556093e+003, 1.959407e-002
3.558021e+003, 1.984701e-002
3.559949e+003, 2.038752e-002
3.561878e+003, 2.009048e-002
3.563806e+003, 1.960251e-002
3.565735e+003, 1.941911e-002
3.567663e+003, 1.884014e-002
3.569592e+003, 1.805910e-002
3.571520e+003, 1.791674e-002
3.573449e+003, 1.794635e-002
3.575377e+003, 1.790071e-002
3.577306e+003, 1.754270e-002
3.579234e+003, 1.771665e-002
3.581163e+003, 1.813602e-002
3.583091e+003, 1.809573e-002
3.585020e+003, 1.761662e-002
3.586948e+003, 1.744764e-002
3.588876e+003, 1.714733e-002
3.590805e+003, 1.642743e-002
3.592733e+003, 1.692683e-002
3.594662e+003, 1.722662e-002
3.596590e+003, 1.672790e-002
3.598519e+003, 1.617051e-002
3.600447e+003, 1.614292e-002
3.602376e+003, 1.628452e-002
3.604304e+003, 1.613145e-002
3.606233e+003, 1.534899e-002
3.608161e+003, 1.517639e-002
3.610090e+003, 1.514397e-002
3.612018e+003, 1.524516e-002
3.613947e+003, 1.477242e-002
3.615875e+003, 1.424977e-002
3.617803e+003, 1.489197e-002
3.619732e+003, 1.477404e-002
3.621660e+003, 1.340857e-002
3.623589e+003, 1.301382e-002
3.625517e+003, 1.363815e-002
3.627446e+003, 1.357949e-002
3.629374e+003, 1.418970e-002
3.631303e+003, 1.380530e-002
3.633231e+003, 1.357480e-002
3.635160e+003, 1.319540e-002
3.637088e+003, 1.275849e-002
3.639017e+003, 1.326033e-002
3.640945e+003, 1.323186e-002
3.642874e+003, 1.293625e-002
3.644802e+003, 1.338114e-002
3.646730e+003, 1.384101e-002
3.648659e+003, 1.366364e-002
3.650587e+003, 1.325299e-002
3.652516e+003, 1.336121e-002
3.654444e+003, 1.347966e-002
3.656373e+003, 1.290022e-002
3.658301e+003, 1.243605e-002
3.660230e+003, 1.292516e-002
3.662158e+003, 1.295635e-002
3.664087e+003, 1.278135e-002
3.666015e+003, 1.315526e-002
3.667944e+003, 1.374781e-002
3.669872e+003, 1.387406e-002
3.671801e+003, 1.256648e-002
3.673729e+003, 1.273952e-002
3.675657e+003, 1.424771e-002
3.677586e+003, 1.435162e-002
3.679514e+003, 1.326980e-002
3.681443e+003, 1.225933e-002
3.683371e+003, 1.265053e-002
3.685300e+003, 1.315092e-002
3.687228e+003, 1.314874e-002
3.689157e+003, 1.295083e-002
3.691085e+003, 1.287468e-002
3.693014e+003, 1.325377e-002
3.694942e+003, 1.330652e-002
3.696871e+003, 1.364060e-002
3.698799e+003, 1.375295e-002
3.700728e+003, 1.371850e-002
3.702656e+003, 1.412242e-002
3.704584e+003, 1.379578e-002
3.706513e+003, 1.335862e-002
3.708441e+003, 1.390094e-002
3.710370e+003, 1.473019e-002
3.712298e+003, 1.459402e-002
3.714227e+003, 1.434065e-002
3.716155e+003, 1.363721e-002
3.718084e+003, 1.345787e-002
3.720012e+003, 1.410486e-002
3.721941e+003, 1.436476e-002
3.723869e+003, 1.430730e-002
3.725798e+003, 1.398225e-002
3.727726e+003, 1.425480e-002
3.729655e+003, 1.472716e-002
3.731583e+003, 1.479859e-002
3.733511e+003, 1.476869e-002
3.735440e+003, 1.518985e-002
3.737368e+003, 1.491885e-002
3.739297e+003, 1.436383e-002
3.741225e+003, 1.458724e-002
3.743154e+003, 1.523583e-002
3.745082e+003, 1.513623e-002
3.747011e+003, 1.525291e-002
3.748939e+003, 1.643440e-002
3.750868e+003, 1.693756e-002
3.752796e+003, 1.642432e-002
3.754725e+003, 1.589351e-002
3.756653e+003, 1.605614e-002
3.758582e+003, 1.619456e-002
3.760510e+003, 1.601978e-002
3.762438e+003, 1.549168e-002
3.764367e+003, 1.535144e-002
3.766295e+003, 1.582481e-002
3.768224e+003, 1.665043e-002
3.770152e+003, 1.601964e-002
3.772081e+003, 1.542518e-002
3.774009e+003, 1.611434e-002
3.775938e+003, 1.637808e-002
3.777866e+003, 1.651403e-002
3.779795e+003, 1.588273e-002
3.781723e+003, 1.535197e-002
3.783652e+003, 1.611366e-002
3.785580e+003, 1.661814e-002
3.787509e+003, 1.627626e-002
3.789437e+003, 1.611136e-002
3.791365e+003, 1.647965e-002
3.793294e+003, 1.671135e-002
3.795222e+003, 1.688312e-002
3.797151e+003, 1.669572e-002
3.799079e+003, 1.671973e-002
3.801008e+003, 1.730058e-002
3.802936e+003, 1.708224e-002
3.804865e+003, 1.732979e-002
3.806793e+003, 1.776844e-002
3.808722e+003, 1.728734e-002
3.810650e+003, 1.689604e-002
3.812579e+003, 1.717303e-002
3.814507e+003, 1.771116e-002
3.816436e+003, 1.812382e-002
3.818364e+003, 1.840384e-002
3.820292e+003, 1.862397e-002
3.822221e+003, 1.818457e-002
3.824149e+003, 1.756489e-002
3.826078e+003, 1.705025e-002
3.828006e+003, 1.636805e-002
3.829935e+003, 1.650834e-002
3.831863e+003, 1.780553e-002
3.833792e+003, 1.865917e-002
3.835720e+003, 1.890574e-002
3.837649e+003, 1.856228e-002
3.839577e+003, 1.769929e-002
3.841506e+003, 1.730033e-002
3.843434e+003, 1.715929e-002
3.845363e+003, 1.772773e-002
3.847291e+003, 1.793161e-002
3.849219e+003, 1.842518e-002
3.851148e+003, 1.915802e-002
3.853076e+003, 1.937753e-002
3.855005e+003, 1.906967e-002
3.856933e+003, 1.866904e-002
3.858862e+003, 1.777438e-002
3.860790e+003, 1.746594e-002
3.862719e+003, 1.804153e-002
3.864647e+003, 1.858367e-002
3.866576e+003, 1.849080e-002
3.868504e+003, 1.802320e-002
3.870433e+003, 1.751032e-002
3.872361e+003, 1.754903e-002
3.874290e+003, 1.784479e-002
3.876218e+003, 1.792590e-002
3.878146e+003, 1.862047e-002
3.880075e+003, 1.859898e-002
3.882003e+003, 1.826132e-002
3.883932e+003, 1.823832e-002
3.885860e+003, 1.830888e-002
3.887789e+003, 1.797831e-002
3.889717e+003, 1.799289e-002
3.891646e+003, 1.799938e-002
3.893574e+003, 1.737100e-002
3.895503e+003, 1.791232e-002
3.897431e+003, 1.882164e-002
3.899360e+003, 1.912210e-002
3.901288e+003, 1.906927e-002
3.903217e+003, 1.872671e-002
3.905145e+003, 1.871141e-002
3.907073e+003, 1.919371e-002
3.909002e+003, 1.892922e-002
3.910930e+003, 1.837683e-002
3.912859e+003, 1.868347e-002
3.914787e+003, 1.923317e-002
3.916716e+003, 1.906133e-002
3.918644e+003, 1.881031e-002
3.920573e+003, 1.859439e-002
3.922501e+003, 1.862278e-002
3.924430e+003, 1.929248e-002
3.926358e+003, 1.924228e-002
3.928287e+003, 1.874495e-002
3.930215e+003, 1.779006e-002
3.932144e+003, 1.766878e-002
3.934072e+003, 1.823317e-002
3.936000e+003, 1.833589e-002
3.937929e+003, 1.862841e-002
3.939857e+003, 1.867164e-002
3.941786e+003, 1.869196e-002
3.943714e+003, 1.935340e-002
3.945643e+003, 1.975819e-002
3.947571e+003, 1.944087e-002
3.949500e+003, 1.911150e-002
3.951428e+003, 1.886266e-002
3.953357e+003, 1.840487e-002
3.955285e+003, 1.902991e-002
3.957214e+003, 1.998403e-002
3.959142e+003, 2.065041e-002
3.961071e+003, 2.060902e-002
3.962999e+003, 2.003303e-002
3.964927e+003, 1.968856e-002
3.966856e+003, 1.871730e-002
3.968784e+003, 1.870083e-002
3.970713e+003, 2.029254e-002
3.972641e+003, 2.070783e-002
3.974570e+003, 1.998080e-002
3.976498e+003, 1.967296e-002
3.978427e+003, 1.970820e-002
3.980355e+003, 1.957496e-002
3.982284e+003, 1.940573e-002
3.984212e+003, 1.959066e-002
3.986141e+003, 1.945331e-002
3.988069e+003, 1.986245e-002
3.989998e+003, 1.975887e-002
3.991926e+003, 1.972384e-002
3.993854e+003, 1.975647e-002
3.995783e+003, 1.962029e-002
3.997711e+003, 1.948007e-002
3.999640e+003, 2.016397e-002
##END=



