##NAMES=Natrolite
##RRUFFID=R040112
##IDEAL CHEMISTRY=Na_2_(Si_3_Al_2_)O_10_&#183;2H_2_O
##LOCALITY=Ice River Alkaline Complex, Moose Creek Valley, Yoho National Park, British Columbia, Canada
##OWNER=RRUFF
##SOURCE=National Museums of Canada
##DESCRIPTION=Colorless pseudohexagonal prism
##STATUS=The identification of this mineral has been confirmed by X-ray diffraction and chemical analysis
##URL=rruff.info/R040112
##MEASURED CHEMISTRY=Na_2.00_(Si_3.00_Al_2.00_)O_10_Â·2H_2_O
3.991926e+002, 0.000000e+000
4.011211e+002, 1.477080e-001
4.030496e+002, 1.482349e-001
4.049780e+002, 1.577219e-001
4.069065e+002, 1.636178e-001
4.088350e+002, 1.696363e-001
4.107634e+002, 1.754361e-001
4.126919e+002, 1.784842e-001
4.146204e+002, 1.811644e-001
4.165488e+002, 1.805221e-001
4.184773e+002, 1.758176e-001
4.204058e+002, 1.649181e-001
4.223342e+002, 1.475492e-001
4.242627e+002, 1.299461e-001
4.261912e+002, 1.141017e-001
4.281196e+002, 9.913155e-002
4.300481e+002, 8.561415e-002
4.319766e+002, 7.526381e-002
4.339050e+002, 7.045158e-002
4.358335e+002, 6.975734e-002
4.377620e+002, 7.290421e-002
4.396904e+002, 7.907233e-002
4.416189e+002, 8.322459e-002
4.435474e+002, 7.968942e-002
4.454758e+002, 6.754702e-002
4.474043e+002, 5.537413e-002
4.493328e+002, 4.732612e-002
4.512612e+002, 4.213490e-002
4.531897e+002, 3.812172e-002
4.551182e+002, 3.546038e-002
4.570466e+002, 3.584426e-002
4.589751e+002, 3.701912e-002
4.609036e+002, 3.853451e-002
4.628320e+002, 4.091899e-002
4.647605e+002, 4.443674e-002
4.666890e+002, 4.849726e-002
4.686174e+002, 5.288939e-002
4.705459e+002, 5.806773e-002
4.724744e+002, 6.583526e-002
4.744028e+002, 7.376131e-002
4.763313e+002, 8.132491e-002
4.782598e+002, 9.022491e-002
4.801882e+002, 9.821732e-002
4.821167e+002, 1.045331e-001
4.840452e+002, 1.093542e-001
4.859736e+002, 1.116607e-001
4.879021e+002, 1.117598e-001
4.898306e+002, 1.095090e-001
4.917590e+002, 1.063187e-001
4.936875e+002, 1.041777e-001
4.956160e+002, 1.021956e-001
4.975444e+002, 1.006050e-001
4.994729e+002, 1.009762e-001
5.014014e+002, 1.026656e-001
5.033298e+002, 1.043348e-001
5.052583e+002, 1.056977e-001
5.071868e+002, 1.060256e-001
5.091152e+002, 1.045505e-001
5.110437e+002, 1.013251e-001
5.129722e+002, 9.685192e-002
5.149006e+002, 9.125385e-002
5.168291e+002, 8.475696e-002
5.187576e+002, 7.749655e-002
5.206860e+002, 7.079188e-002
5.226145e+002, 6.543626e-002
5.245430e+002, 6.226264e-002
5.264714e+002, 6.117833e-002
5.283999e+002, 6.130363e-002
5.303284e+002, 6.200248e-002
5.322568e+002, 6.306297e-002
5.341853e+002, 6.467121e-002
5.361138e+002, 6.737194e-002
5.380422e+002, 7.043470e-002
5.399707e+002, 7.219299e-002
5.418992e+002, 7.205644e-002
5.438276e+002, 7.173934e-002
5.457561e+002, 7.162048e-002
5.476846e+002, 7.054328e-002
5.496130e+002, 6.826808e-002
5.515415e+002, 6.612194e-002
5.534700e+002, 6.481972e-002
5.553984e+002, 6.375604e-002
5.573269e+002, 6.302503e-002
5.592554e+002, 6.259351e-002
5.611838e+002, 6.263920e-002
5.631123e+002, 6.317268e-002
5.650408e+002, 6.460681e-002
5.669692e+002, 6.677818e-002
5.688977e+002, 7.071871e-002
5.708262e+002, 7.635869e-002
5.727546e+002, 8.234069e-002
5.746831e+002, 8.731076e-002
5.766116e+002, 8.948216e-002
5.785400e+002, 8.814012e-002
5.804685e+002, 8.411574e-002
5.823970e+002, 7.996967e-002
5.843254e+002, 7.651962e-002
5.862539e+002, 7.472581e-002
5.881824e+002, 7.549221e-002
5.901108e+002, 7.908398e-002
5.920393e+002, 8.477535e-002
5.939678e+002, 9.197145e-002
5.958962e+002, 9.936514e-002
5.978247e+002, 1.046556e-001
5.997532e+002, 1.066194e-001
6.016816e+002, 1.063603e-001
6.036101e+002, 1.054628e-001
6.055386e+002, 1.043656e-001
6.074670e+002, 1.040565e-001
6.093955e+002, 1.051790e-001
6.113240e+002, 1.082731e-001
6.132524e+002, 1.128201e-001
6.151809e+002, 1.176039e-001
6.171094e+002, 1.222284e-001
6.190378e+002, 1.254761e-001
6.209663e+002, 1.264713e-001
6.228948e+002, 1.245562e-001
6.248232e+002, 1.203067e-001
6.267517e+002, 1.139952e-001
6.286802e+002, 1.062849e-001
6.306086e+002, 9.797117e-002
6.325371e+002, 9.009591e-002
6.344656e+002, 8.241393e-002
6.363940e+002, 7.525215e-002
6.383225e+002, 6.914674e-002
6.402510e+002, 6.471699e-002
6.421794e+002, 6.143372e-002
6.441079e+002, 5.937256e-002
6.460364e+002, 5.847772e-002
6.479648e+002, 5.826297e-002
6.498933e+002, 5.836591e-002
6.518218e+002, 5.891132e-002
6.537502e+002, 5.889623e-002
6.556787e+002, 5.815619e-002
6.576072e+002, 5.693336e-002
6.595356e+002, 5.521444e-002
6.614641e+002, 5.349070e-002
6.633926e+002, 5.234541e-002
6.653210e+002, 5.160710e-002
6.672495e+002, 5.162351e-002
6.691780e+002, 5.297043e-002
6.711064e+002, 5.570514e-002
6.730349e+002, 5.919363e-002
6.749634e+002, 6.273001e-002
6.768918e+002, 6.529627e-002
6.788203e+002, 6.584026e-002
6.807488e+002, 6.405508e-002
6.826772e+002, 6.099707e-002
6.846057e+002, 5.679226e-002
6.865342e+002, 5.232606e-002
6.884626e+002, 4.815865e-002
6.903911e+002, 4.513904e-002
6.923196e+002, 4.341387e-002
6.942480e+002, 4.253587e-002
6.961765e+002, 4.187206e-002
6.981050e+002, 4.111303e-002
7.000334e+002, 4.036251e-002
7.019619e+002, 3.891490e-002
7.038904e+002, 3.659549e-002
7.058188e+002, 3.411926e-002
7.077473e+002, 3.212987e-002
7.096758e+002, 3.125124e-002
7.116042e+002, 3.118837e-002
7.135327e+002, 3.147409e-002
7.154612e+002, 3.254898e-002
7.173896e+002, 3.406315e-002
7.193181e+002, 3.514770e-002
7.212466e+002, 3.481505e-002
7.231750e+002, 3.252008e-002
7.251035e+002, 2.919134e-002
7.270320e+002, 2.554175e-002
7.289604e+002, 2.238732e-002
7.308889e+002, 1.998409e-002
7.328174e+002, 1.806603e-002
7.347458e+002, 1.662967e-002
7.366743e+002, 1.578095e-002
7.386028e+002, 1.509401e-002
7.405313e+002, 1.459931e-002
7.424597e+002, 1.418938e-002
7.443882e+002, 1.378431e-002
7.463167e+002, 1.362171e-002
7.482451e+002, 1.343878e-002
7.501736e+002, 1.325899e-002
7.521021e+002, 1.337968e-002
7.540305e+002, 1.350989e-002
7.559590e+002, 1.338389e-002
7.578875e+002, 1.357053e-002
7.598159e+002, 1.369757e-002
7.617444e+002, 1.377960e-002
7.636729e+002, 1.375385e-002
7.656013e+002, 1.360732e-002
7.675298e+002, 1.321157e-002
7.694583e+002, 1.287741e-002
7.713867e+002, 1.275259e-002
7.733152e+002, 1.288285e-002
7.752437e+002, 1.285904e-002
7.771721e+002, 1.277675e-002
7.791006e+002, 1.275425e-002
7.810291e+002, 1.261898e-002
7.829575e+002, 1.261234e-002
7.848860e+002, 1.263620e-002
7.868145e+002, 1.252753e-002
7.887429e+002, 1.252663e-002
7.906714e+002, 1.276495e-002
7.925999e+002, 1.279867e-002
7.945283e+002, 1.273176e-002
7.964568e+002, 1.278397e-002
7.983853e+002, 1.297170e-002
8.003137e+002, 1.319363e-002
8.022422e+002, 1.337792e-002
8.041707e+002, 1.335158e-002
8.060991e+002, 1.348004e-002
8.080276e+002, 1.369582e-002
8.099561e+002, 1.382567e-002
8.118845e+002, 1.403365e-002
8.138130e+002, 1.437770e-002
8.157415e+002, 1.466833e-002
8.176699e+002, 1.496991e-002
8.195984e+002, 1.515028e-002
8.215269e+002, 1.551319e-002
8.234553e+002, 1.555234e-002
8.253838e+002, 1.581692e-002
8.273123e+002, 1.633678e-002
8.292407e+002, 1.669721e-002
8.311692e+002, 1.708655e-002
8.330977e+002, 1.744589e-002
8.350261e+002, 1.791617e-002
8.369546e+002, 1.851557e-002
8.388831e+002, 1.907417e-002
8.408115e+002, 1.986681e-002
8.427400e+002, 2.046075e-002
8.446685e+002, 2.067918e-002
8.465969e+002, 2.097490e-002
8.485254e+002, 2.144200e-002
8.504539e+002, 2.186598e-002
8.523823e+002, 2.235999e-002
8.543108e+002, 2.285741e-002
8.562393e+002, 2.351715e-002
8.581677e+002, 2.413980e-002
8.600962e+002, 2.492335e-002
8.620247e+002, 2.583358e-002
8.639531e+002, 2.677704e-002
8.658816e+002, 2.786415e-002
8.678101e+002, 2.896635e-002
8.697385e+002, 2.999537e-002
8.716670e+002, 3.123174e-002
8.735955e+002, 3.268836e-002
8.755239e+002, 3.443432e-002
8.774524e+002, 3.595268e-002
8.793809e+002, 3.754585e-002
8.813093e+002, 3.937494e-002
8.832378e+002, 4.162636e-002
8.851663e+002, 4.412409e-002
8.870947e+002, 4.680511e-002
8.890232e+002, 4.954358e-002
8.909517e+002, 5.254442e-002
8.928801e+002, 5.555705e-002
8.948085e+002, 5.831949e-002
8.967370e+002, 6.082163e-002
8.986655e+002, 6.342883e-002
9.005939e+002, 6.600354e-002
9.025224e+002, 6.858666e-002
9.044509e+002, 7.136308e-002
9.063793e+002, 7.480246e-002
9.083078e+002, 7.800487e-002
9.102363e+002, 8.134509e-002
9.121647e+002, 8.519977e-002
9.140932e+002, 8.933429e-002
9.160217e+002, 9.411305e-002
9.179501e+002, 9.961018e-002
9.198786e+002, 1.051877e-001
9.218071e+002, 1.112476e-001
9.237355e+002, 1.182539e-001
9.256640e+002, 1.255449e-001
9.275925e+002, 1.331038e-001
9.295209e+002, 1.414307e-001
9.314494e+002, 1.502552e-001
9.333779e+002, 1.596517e-001
9.353063e+002, 1.693569e-001
9.372348e+002, 1.791351e-001
9.391633e+002, 1.893268e-001
9.410917e+002, 2.002909e-001
9.430202e+002, 2.121017e-001
9.449487e+002, 2.242813e-001
9.468771e+002, 2.365466e-001
9.488056e+002, 2.490341e-001
9.507341e+002, 2.615126e-001
9.526625e+002, 2.743372e-001
9.545910e+002, 2.868434e-001
9.565195e+002, 2.981938e-001
9.584479e+002, 3.078569e-001
9.603764e+002, 3.145809e-001
9.623049e+002, 3.167536e-001
9.642333e+002, 3.131226e-001
9.661618e+002, 3.036706e-001
9.680903e+002, 2.918407e-001
9.700187e+002, 2.821538e-001
9.719472e+002, 2.767842e-001
9.738757e+002, 2.766315e-001
9.758041e+002, 2.800917e-001
9.777326e+002, 2.833021e-001
9.796611e+002, 2.835419e-001
9.815895e+002, 2.802091e-001
9.835180e+002, 2.738085e-001
9.854465e+002, 2.649279e-001
9.873749e+002, 2.540641e-001
9.893034e+002, 2.415337e-001
9.912319e+002, 2.284077e-001
9.931603e+002, 2.162434e-001
9.950888e+002, 2.069391e-001
9.970173e+002, 2.005272e-001
9.989457e+002, 1.930188e-001
1.000874e+003, 1.809850e-001
1.002803e+003, 1.670368e-001
1.004731e+003, 1.543335e-001
1.006660e+003, 1.436828e-001
1.008588e+003, 1.341703e-001
1.010517e+003, 1.243493e-001
1.012445e+003, 1.138807e-001
1.014373e+003, 1.031436e-001
1.016302e+003, 9.249585e-002
1.018230e+003, 8.252816e-002
1.020159e+003, 7.380849e-002
1.022087e+003, 6.659740e-002
1.024016e+003, 6.127217e-002
1.025944e+003, 5.797360e-002
1.027873e+003, 5.701873e-002
1.029801e+003, 5.901429e-002
1.031730e+003, 6.439792e-002
1.033658e+003, 7.456490e-002
1.035587e+003, 9.094968e-002
1.037515e+003, 1.116595e-001
1.039444e+003, 1.298777e-001
1.041372e+003, 1.390585e-001
1.043301e+003, 1.399758e-001
1.045229e+003, 1.378585e-001
1.047157e+003, 1.364004e-001
1.049086e+003, 1.367476e-001
1.051014e+003, 1.392864e-001
1.052943e+003, 1.435855e-001
1.054871e+003, 1.486162e-001
1.056800e+003, 1.534323e-001
1.058728e+003, 1.569103e-001
1.060657e+003, 1.575826e-001
1.062585e+003, 1.543853e-001
1.064514e+003, 1.469356e-001
1.066442e+003, 1.369131e-001
1.068371e+003, 1.269496e-001
1.070299e+003, 1.185635e-001
1.072228e+003, 1.128695e-001
1.074156e+003, 1.097417e-001
1.076084e+003, 1.088434e-001
1.078013e+003, 1.100162e-001
1.079941e+003, 1.122536e-001
1.081870e+003, 1.143739e-001
1.083798e+003, 1.152757e-001
1.085727e+003, 1.141094e-001
1.087655e+003, 1.113002e-001
1.089584e+003, 1.071025e-001
1.091512e+003, 1.020167e-001
1.093441e+003, 9.685172e-002
1.095369e+003, 9.203466e-002
1.097298e+003, 8.759528e-002
1.099226e+003, 8.371679e-002
1.101155e+003, 7.999287e-002
1.103083e+003, 7.635561e-002
1.105011e+003, 7.314608e-002
1.106940e+003, 7.011336e-002
1.108868e+003, 6.647797e-002
1.110797e+003, 6.185080e-002
1.112725e+003, 5.656809e-002
1.114654e+003, 5.080588e-002
1.116582e+003, 4.509851e-002
1.118511e+003, 4.012242e-002
1.120439e+003, 3.587703e-002
1.122368e+003, 3.252171e-002
1.124296e+003, 2.972208e-002
1.126225e+003, 2.743078e-002
1.128153e+003, 2.547537e-002
1.130082e+003, 2.393809e-002
1.132010e+003, 2.234779e-002
1.133938e+003, 2.091937e-002
1.135867e+003, 1.983641e-002
1.137795e+003, 1.903817e-002
1.139724e+003, 1.804628e-002
1.141652e+003, 1.717325e-002
1.143581e+003, 1.652982e-002
1.145509e+003, 1.570261e-002
1.147438e+003, 1.478601e-002
1.149366e+003, 1.422758e-002
1.151295e+003, 1.372586e-002
1.153223e+003, 1.324279e-002
1.155152e+003, 1.278617e-002
1.157080e+003, 1.238701e-002
1.159009e+003, 1.192843e-002
1.160937e+003, 1.133934e-002
1.162865e+003, 1.109163e-002
1.164794e+003, 1.088750e-002
1.166722e+003, 1.048978e-002
1.168651e+003, 9.992080e-003
1.170579e+003, 9.527746e-003
1.172508e+003, 9.231105e-003
1.174436e+003, 8.973310e-003
1.176365e+003, 8.633175e-003
1.178293e+003, 8.271844e-003
1.180222e+003, 7.900110e-003
1.182150e+003, 7.588263e-003
1.184079e+003, 7.472221e-003
1.186007e+003, 7.331276e-003
1.187936e+003, 7.002715e-003
1.189864e+003, 6.596715e-003
1.191792e+003, 6.410794e-003
1.193721e+003, 6.225152e-003
1.195649e+003, 6.026485e-003
1.197578e+003, 5.863667e-003
1.199506e+003, 5.751627e-003
1.201435e+003, 5.447546e-003
1.203363e+003, 5.128031e-003
1.205292e+003, 4.985933e-003
1.207220e+003, 4.898911e-003
1.209149e+003, 4.724475e-003
1.211077e+003, 4.602184e-003
1.213006e+003, 4.582726e-003
1.214934e+003, 4.476295e-003
1.216863e+003, 4.181083e-003
1.218791e+003, 3.865843e-003
1.220719e+003, 3.788738e-003
1.222648e+003, 3.912752e-003
1.224576e+003, 3.829385e-003
1.226505e+003, 3.676631e-003
1.228433e+003, 3.612589e-003
1.230362e+003, 3.454941e-003
1.232290e+003, 3.264621e-003
1.234219e+003, 3.341135e-003
1.236147e+003, 3.403620e-003
1.238076e+003, 3.198022e-003
1.240004e+003, 3.109984e-003
1.241933e+003, 3.061733e-003
1.243861e+003, 3.050252e-003
1.245790e+003, 3.044105e-003
1.247718e+003, 3.025495e-003
1.249646e+003, 3.008128e-003
1.251575e+003, 2.942341e-003
1.253503e+003, 3.030160e-003
1.255432e+003, 3.078274e-003
1.257360e+003, 2.856317e-003
1.259289e+003, 2.672690e-003
1.261217e+003, 2.809658e-003
1.263146e+003, 2.948713e-003
1.265074e+003, 2.961220e-003
1.267003e+003, 2.892648e-003
1.268931e+003, 2.993687e-003
1.270860e+003, 3.026892e-003
1.272788e+003, 3.060139e-003
1.274717e+003, 2.967312e-003
1.276645e+003, 2.886660e-003
1.278573e+003, 2.832856e-003
1.280502e+003, 2.955118e-003
1.282430e+003, 3.142314e-003
1.284359e+003, 2.993038e-003
1.286287e+003, 2.850990e-003
1.288216e+003, 2.795703e-003
1.290144e+003, 2.630649e-003
1.292073e+003, 2.809455e-003
1.294001e+003, 2.837063e-003
1.295930e+003, 2.897696e-003
1.297858e+003, 3.030361e-003
1.299787e+003, 3.025244e-003
1.301715e+003, 2.961306e-003
1.303644e+003, 2.828776e-003
1.305572e+003, 2.548344e-003
1.307500e+003, 2.474435e-003
1.309429e+003, 2.717169e-003
1.311357e+003, 2.859062e-003
1.313286e+003, 2.913532e-003
1.315214e+003, 2.759421e-003
1.317143e+003, 2.670873e-003
1.319071e+003, 2.760686e-003
1.321000e+003, 2.515860e-003
1.322928e+003, 2.480307e-003
1.324857e+003, 2.713625e-003
1.326785e+003, 2.745849e-003
1.328714e+003, 2.690063e-003
1.330642e+003, 2.713982e-003
1.332571e+003, 2.745914e-003
1.334499e+003, 2.669030e-003
1.336427e+003, 2.647141e-003
1.338356e+003, 2.680982e-003
1.340284e+003, 2.892067e-003
1.342213e+003, 2.813375e-003
1.344141e+003, 2.774668e-003
1.346070e+003, 2.784358e-003
1.347998e+003, 2.706240e-003
1.349927e+003, 2.535059e-003
1.351855e+003, 2.442088e-003
1.353784e+003, 2.612476e-003
1.355712e+003, 2.911555e-003
1.357641e+003, 2.863185e-003
1.359569e+003, 2.714989e-003
1.361498e+003, 2.717540e-003
1.363426e+003, 2.770161e-003
1.365354e+003, 2.833850e-003
1.367283e+003, 2.734484e-003
1.369211e+003, 2.638269e-003
1.371140e+003, 2.501622e-003
1.373068e+003, 2.434901e-003
1.374997e+003, 2.761271e-003
1.376925e+003, 2.659261e-003
1.378854e+003, 2.419987e-003
1.380782e+003, 2.457886e-003
1.382711e+003, 2.439700e-003
1.384639e+003, 2.463794e-003
1.386568e+003, 2.314863e-003
1.388496e+003, 2.769044e-003
1.390424e+003, 2.435391e-003
1.392353e+003, 2.401238e-003
1.394281e+003, 2.670041e-003
1.396210e+003, 3.186726e-003
1.398138e+003, 2.704905e-003
1.400067e+003, 2.978759e-003
1.401995e+003, 2.741681e-003
1.403924e+003, 2.822282e-003
1.405852e+003, 3.171085e-003
1.407781e+003, 2.892185e-003
1.409709e+003, 2.873850e-003
1.411638e+003, 2.931617e-003
1.413566e+003, 2.909675e-003
1.415495e+003, 2.958876e-003
1.417423e+003, 2.752047e-003
1.419351e+003, 3.038658e-003
1.421280e+003, 3.136590e-003
1.423208e+003, 2.809564e-003
1.425137e+003, 2.952414e-003
1.427065e+003, 2.953473e-003
1.428994e+003, 2.948350e-003
1.430922e+003, 3.291100e-003
1.432851e+003, 3.168235e-003
1.434779e+003, 2.760340e-003
1.436708e+003, 2.736301e-003
1.438636e+003, 2.918383e-003
1.440565e+003, 2.971720e-003
1.442493e+003, 2.845445e-003
1.444422e+003, 2.697801e-003
1.446350e+003, 2.650416e-003
1.448278e+003, 3.099889e-003
1.450207e+003, 3.098999e-003
1.452135e+003, 2.932962e-003
1.454064e+003, 2.423420e-003
1.455992e+003, 1.551758e-003
1.457921e+003, 3.119071e-003
1.459849e+003, 2.954298e-003
1.461778e+003, 2.730096e-003
1.463706e+003, 2.143418e-003
1.465635e+003, 2.852473e-003
1.467563e+003, 2.581479e-003
1.469492e+003, 2.565719e-003
1.471420e+003, 1.817137e-003
1.473349e+003, 2.502423e-003
1.475277e+003, 2.376683e-003
1.477205e+003, 2.955908e-003
1.479134e+003, 2.520267e-003
1.481062e+003, 2.534703e-003
1.482991e+003, 2.386624e-003
1.484919e+003, 2.101345e-003
1.486848e+003, 2.047522e-003
1.488776e+003, 2.084963e-003
1.490705e+003, 2.396367e-003
1.492633e+003, 2.230987e-003
1.494562e+003, 1.721403e-003
1.496490e+003, 2.146692e-003
1.498419e+003, 2.031972e-003
1.500347e+003, 2.433038e-003
1.502276e+003, 2.292352e-003
1.504204e+003, 1.116648e-003
1.506132e+003, 1.116759e-003
1.508061e+003, 2.411075e-003
1.509989e+003, 2.229909e-003
1.511918e+003, 2.057204e-003
1.513846e+003, 2.221522e-003
1.515775e+003, 1.859299e-003
1.517703e+003, 2.284320e-003
1.519632e+003, 1.001914e-003
1.521560e+003, 1.872088e-003
1.523489e+003, 2.025313e-003
1.525417e+003, 1.909047e-003
1.527346e+003, 2.242021e-003
1.529274e+003, 2.434820e-003
1.531203e+003, 2.134732e-003
1.533131e+003, 2.374666e-003
1.535059e+003, 3.204299e-003
1.536988e+003, 1.941586e-003
1.538916e+003, 1.245295e-003
1.540845e+003, 2.555171e-003
1.542773e+003, 2.916888e-003
1.544702e+003, 2.445068e-003
1.546630e+003, 2.912247e-003
1.548559e+003, 2.414461e-003
1.550487e+003, 3.186064e-003
1.552416e+003, 2.812230e-003
1.554344e+003, 2.979280e-003
1.556273e+003, 2.267064e-003
1.558201e+003, 2.194266e-003
1.560130e+003, 3.769270e-003
1.562058e+003, 3.791817e-003
1.563986e+003, 3.753960e-003
1.565915e+003, 4.307110e-003
1.567843e+003, 3.932518e-003
1.569772e+003, 4.401209e-003
1.571700e+003, 4.475847e-003
1.573629e+003, 4.227563e-003
1.575557e+003, 3.590995e-003
1.577486e+003, 5.109192e-003
1.579414e+003, 4.726023e-003
1.581343e+003, 4.852476e-003
1.583271e+003, 4.963948e-003
1.585200e+003, 5.044782e-003
1.587128e+003, 5.197867e-003
1.589057e+003, 5.442085e-003
1.590985e+003, 5.666712e-003
1.592913e+003, 5.559897e-003
1.594842e+003, 5.567665e-003
1.596770e+003, 5.811479e-003
1.598699e+003, 6.028148e-003
1.600627e+003, 6.057892e-003
1.602556e+003, 6.202939e-003
1.604484e+003, 6.502297e-003
1.606413e+003, 6.669320e-003
1.608341e+003, 6.859713e-003
1.610270e+003, 7.131423e-003
1.612198e+003, 7.303167e-003
1.614127e+003, 7.340630e-003
1.616055e+003, 7.126944e-003
1.617984e+003, 9.182636e-003
1.619912e+003, 9.278532e-003
1.621840e+003, 9.722131e-003
1.623769e+003, 1.097408e-002
1.625697e+003, 1.162184e-002
1.627626e+003, 1.259753e-002
1.629554e+003, 1.325107e-002
1.631483e+003, 1.326794e-002
1.633411e+003, 1.234869e-002
1.635340e+003, 1.175532e-002
1.637268e+003, 1.156189e-002
1.639197e+003, 1.055906e-002
1.641125e+003, 9.393184e-003
1.643054e+003, 8.077150e-003
1.644982e+003, 6.195117e-003
1.646911e+003, 6.782689e-003
1.648839e+003, 6.450208e-003
1.650767e+003, 4.408299e-003
1.652696e+003, 4.009726e-003
1.654624e+003, 6.040505e-003
1.656553e+003, 4.895893e-003
1.658481e+003, 4.611802e-003
1.660410e+003, 4.468588e-003
1.662338e+003, 4.380966e-003
1.664267e+003, 4.567598e-003
1.666195e+003, 3.795309e-003
1.668124e+003, 3.296300e-003
1.670052e+003, 4.256747e-003
1.671981e+003, 3.799388e-003
1.673909e+003, 3.087717e-003
1.675838e+003, 4.269777e-003
1.677766e+003, 3.555808e-003
1.679694e+003, 3.253020e-003
1.681623e+003, 2.668723e-003
1.683551e+003, 1.640344e-003
1.685480e+003, 3.645395e-003
1.687408e+003, 2.827363e-003
1.689337e+003, 3.385541e-003
1.691265e+003, 3.247739e-003
1.693194e+003, 2.530902e-003
1.695122e+003, 1.371649e-003
1.697051e+003, 3.167686e-003
1.698979e+003, 1.159015e-003
1.700908e+003, 3.553570e-003
1.702836e+003, 2.155635e-003
1.704765e+003, 2.358344e-003
1.706693e+003, 2.626399e-003
1.708621e+003, 2.237820e-003
1.710550e+003, 2.369329e-003
1.712478e+003, 2.116478e-003
1.714407e+003, 1.938598e-003
1.716335e+003, 1.326176e-003
1.718264e+003, 2.582022e-003
1.720192e+003, 2.451925e-003
1.722121e+003, 2.263401e-003
1.724049e+003, 2.422824e-003
1.725978e+003, 2.493646e-003
1.727906e+003, 2.331068e-003
1.729835e+003, 2.158582e-003
1.731763e+003, 1.465946e-003
1.733692e+003, 9.706293e-004
1.735620e+003, 2.345788e-003
1.737548e+003, 1.753555e-003
1.739477e+003, 1.867988e-003
1.741405e+003, 1.825079e-003
1.743334e+003, 1.473693e-003
1.745262e+003, 1.680118e-003
1.747191e+003, 1.629693e-003
1.749119e+003, 1.693318e-003
1.751048e+003, 1.576938e-003
1.752976e+003, 2.015599e-003
1.754905e+003, 1.555248e-003
1.756833e+003, 1.727367e-003
1.758762e+003, 1.897653e-003
1.760690e+003, 1.637147e-003
1.762619e+003, 2.138712e-003
1.764547e+003, 1.540960e-003
1.766475e+003, 1.385544e-003
1.768404e+003, 1.952811e-003
1.770332e+003, 1.427558e-003
1.772261e+003, 1.389262e-003
1.774189e+003, 1.845323e-003
1.776118e+003, 1.765185e-003
1.778046e+003, 1.468359e-003
1.779975e+003, 1.576540e-003
1.781903e+003, 1.593602e-003
1.783832e+003, 9.783227e-004
1.785760e+003, 1.263437e-003
1.787689e+003, 9.588934e-004
1.789617e+003, 1.029823e-003
1.791546e+003, 1.258767e-003
1.793474e+003, 1.624019e-003
1.795402e+003, 9.928696e-004
1.797331e+003, 1.358972e-003
1.799259e+003, 1.210753e-003
1.801188e+003, 1.077375e-003
1.803116e+003, 1.107237e-003
1.805045e+003, 1.155194e-003
1.806973e+003, 1.184954e-003
1.808902e+003, 9.037837e-004
1.810830e+003, 9.269483e-004
1.812759e+003, 1.294696e-003
1.814687e+003, 1.287629e-003
1.816616e+003, 9.245790e-004
1.818544e+003, 8.541559e-004
1.820473e+003, 9.928832e-004
1.822401e+003, 8.873007e-004
1.824329e+003, 4.424919e-004
1.826258e+003, 1.013624e-003
1.828186e+003, 4.439854e-004
1.830115e+003, 1.027015e-003
1.832043e+003, 1.126964e-003
1.833972e+003, 9.274567e-004
1.835900e+003, 4.213841e-004
1.837829e+003, 6.591233e-004
1.839757e+003, 1.021148e-003
1.841686e+003, 6.730594e-004
1.843614e+003, -7.318371e-005
1.845543e+003, 9.804945e-004
1.847471e+003, 5.847716e-004
1.849400e+003, 6.330715e-004
1.851328e+003, 8.125279e-004
1.853256e+003, 7.690149e-004
1.855185e+003, 4.617090e-004
1.857113e+003, 1.887291e-004
1.859042e+003, 2.283439e-004
1.860970e+003, 2.893216e-004
1.862899e+003, 3.542225e-004
1.864827e+003, 1.653161e-004
1.866756e+003, -4.928253e-004
1.868684e+003, -5.786960e-004
1.870613e+003, 5.721270e-005
1.872541e+003, -9.728424e-005
1.874470e+003, -1.525967e-004
1.876398e+003, -1.409924e-004
1.878327e+003, -2.761161e-004
1.880255e+003, -6.828250e-004
1.882183e+003, -5.563279e-004
1.884112e+003, -3.973708e-004
1.886040e+003, -8.097437e-004
1.887969e+003, -1.379476e-003
1.889897e+003, -1.225772e-003
1.891826e+003, -1.273456e-003
1.893754e+003, -1.453005e-003
1.895683e+003, -1.527799e-003
1.897611e+003, -1.532247e-003
1.899540e+003, -1.140163e-003
1.901468e+003, -1.395460e-003
1.903397e+003, -1.235303e-003
1.905325e+003, -6.441857e-004
1.907254e+003, -4.771120e-004
1.909182e+003, -8.260894e-004
1.911110e+003, -6.050219e-004
1.913039e+003, -9.023740e-004
1.914967e+003, -1.495059e-003
1.916896e+003, -1.555497e-003
1.918824e+003, -1.145111e-003
1.920753e+003, -1.896360e-003
1.922681e+003, -2.086702e-003
1.924610e+003, -2.257874e-003
1.926538e+003, -2.489322e-003
1.928467e+003, -2.172045e-003
1.930395e+003, -2.211929e-003
1.932324e+003, -2.684925e-003
1.934252e+003, -2.815234e-003
1.936181e+003, -3.163580e-003
1.938109e+003, -4.284839e-003
1.940037e+003, -4.025639e-003
1.941966e+003, -2.649745e-003
1.943894e+003, -2.048708e-003
1.945823e+003, -2.554673e-003
1.947751e+003, -3.208707e-003
1.949680e+003, -2.765724e-003
1.951608e+003, -2.744572e-003
1.953537e+003, -3.671269e-003
1.955465e+003, -4.383156e-003
1.957394e+003, -4.285961e-003
1.959322e+003, -4.059487e-003
1.961251e+003, -4.189802e-003
1.963179e+003, -5.135160e-003
1.965108e+003, -5.030149e-003
1.967036e+003, -3.827099e-003
1.968964e+003, -4.312289e-003
1.970893e+003, -6.185187e-003
1.972821e+003, -5.211372e-003
1.974750e+003, -3.754362e-003
1.976678e+003, -4.486694e-003
1.978607e+003, -3.932329e-003
1.980535e+003, -4.374108e-003
1.982464e+003, -5.573214e-003
1.984392e+003, -3.774450e-003
1.986321e+003, -2.575510e-003
1.988249e+003, -4.568133e-003
1.990178e+003, -3.853821e-003
1.992106e+003, -1.865790e-003
1.994035e+003, -2.032839e-003
1.995963e+003, -3.314973e-003
1.997891e+003, -4.662583e-003
1.999820e+003, -4.387120e-003
2.001748e+003, -3.757067e-003
2.003677e+003, -4.270122e-003
2.005605e+003, -3.493159e-003
2.007534e+003, -3.364951e-003
2.009462e+003, -4.722126e-003
2.011391e+003, -4.975068e-003
2.013319e+003, -3.748830e-003
2.015248e+003, -2.758645e-003
2.017176e+003, -3.660831e-003
2.019105e+003, -4.041902e-003
2.021033e+003, -2.715201e-003
2.022962e+003, -2.401443e-003
2.024890e+003, -3.869932e-003
2.026818e+003, -3.208867e-003
2.028747e+003, -2.008562e-003
2.030675e+003, -2.749162e-003
2.032604e+003, -1.698954e-003
2.034532e+003, -1.142799e-003
2.036461e+003, 3.427674e-004
2.038389e+003, 3.269379e-004
2.040318e+003, -3.867869e-004
2.042246e+003, 7.373642e-004
2.044175e+003, 5.629149e-004
2.046103e+003, -5.327583e-004
2.048032e+003, -8.684187e-004
2.049960e+003, 7.113707e-004
2.051889e+003, 2.106183e-003
2.053817e+003, 2.512531e-003
2.055746e+003, 2.788374e-003
2.057674e+003, 1.979247e-003
2.059603e+003, 2.140275e-003
2.061531e+003, 2.186529e-003
2.063459e+003, 1.409040e-003
2.065388e+003, 1.815011e-003
2.067316e+003, 1.851856e-003
2.069245e+003, 5.647964e-004
2.071173e+003, -3.115170e-004
2.073102e+003, -5.965916e-004
2.075030e+003, -8.393120e-004
2.076959e+003, -1.249502e-003
2.078887e+003, -8.419626e-004
2.080816e+003, -7.608326e-004
2.082744e+003, -1.024551e-003
2.084673e+003, -1.654597e-003
2.086601e+003, -2.177985e-003
2.088530e+003, -1.694188e-003
2.090458e+003, -1.842861e-003
2.092386e+003, -1.885584e-003
2.094315e+003, -1.205772e-003
2.096243e+003, -1.322504e-003
2.098172e+003, -2.968774e-004
2.100100e+003, 1.207298e-003
2.102029e+003, 3.332135e-004
2.103957e+003, -7.270880e-004
2.105886e+003, -6.113747e-004
2.107814e+003, -5.965743e-004
2.109743e+003, -9.818248e-004
2.111671e+003, -5.141621e-004
2.113600e+003, 3.755042e-004
2.115528e+003, 8.333180e-005
2.117457e+003, -9.069638e-004
2.119385e+003, -2.074724e-003
2.121313e+003, -1.742091e-003
2.123242e+003, -1.014424e-003
2.125170e+003, -2.811950e-004
2.127099e+003, 1.005619e-003
2.129027e+003, 7.005121e-004
2.130956e+003, 1.418169e-004
2.132884e+003, -2.508253e-004
2.134813e+003, -1.329779e-003
2.136741e+003, -1.624047e-003
2.138670e+003, 2.444877e-004
2.140598e+003, 2.488283e-004
2.142527e+003, -2.026058e-004
2.144455e+003, -8.232580e-004
2.146384e+003, -6.520191e-004
2.148312e+003, -1.277375e-003
2.150240e+003, -1.003907e-003
2.152169e+003, -2.146288e-003
2.154097e+003, -4.972189e-003
2.156026e+003, -5.016926e-003
2.157954e+003, -2.578768e-003
2.159883e+003, -9.800011e-004
2.161811e+003, -2.610940e-003
2.163740e+003, -2.630923e-003
2.165668e+003, -1.802462e-003
2.167597e+003, -6.490044e-004
2.169525e+003, -1.002806e-003
2.171454e+003, -3.156059e-004
2.173382e+003, -1.151752e-003
2.175311e+003, -1.563098e-003
2.177239e+003, -2.345318e-003
2.179167e+003, -4.779580e-003
2.181096e+003, -3.369076e-003
2.183024e+003, -1.434509e-003
2.184953e+003, -2.326742e-003
2.186881e+003, -2.999425e-003
2.188810e+003, -3.202451e-003
2.190738e+003, -2.436865e-003
2.192667e+003, -1.026723e-003
2.194595e+003, -1.068298e-003
2.196524e+003, -1.113868e-003
2.198452e+003, -4.796513e-004
2.200381e+003, 3.582615e-004
2.202309e+003, 1.902150e-003
2.204238e+003, 1.332720e-003
2.206166e+003, -8.707316e-006
2.208094e+003, -7.315095e-004
2.210023e+003, -1.336641e-003
2.211951e+003, -1.384498e-003
2.213880e+003, -7.010486e-004
2.215808e+003, -3.116605e-004
2.217737e+003, 6.600487e-004
2.219665e+003, 1.810955e-003
2.221594e+003, 6.447581e-004
2.223522e+003, -2.579370e-004
2.225451e+003, 4.102586e-004
2.227379e+003, 6.506778e-004
2.229308e+003, 3.657526e-004
2.231236e+003, 1.193466e-003
2.233165e+003, 1.114208e-003
2.235093e+003, 2.125151e-004
2.237021e+003, 2.954808e-004
2.238950e+003, 1.028449e-003
2.240878e+003, 7.487900e-004
2.242807e+003, 1.499367e-003
2.244735e+003, 2.515030e-003
2.246664e+003, 2.412523e-003
2.248592e+003, 2.397369e-003
2.250521e+003, 2.402808e-003
2.252449e+003, 2.309563e-003
2.254378e+003, 2.557484e-003
2.256306e+003, 1.987427e-003
2.258235e+003, 1.792685e-003
2.260163e+003, 2.565474e-003
2.262092e+003, 3.148268e-003
2.264020e+003, 2.965159e-003
2.265948e+003, 2.986173e-003
2.267877e+003, 2.219510e-003
2.269805e+003, 1.735903e-003
2.271734e+003, 1.629785e-003
2.273662e+003, 1.952777e-003
2.275591e+003, 3.485042e-003
2.277519e+003, 4.438635e-003
2.279448e+003, 3.246771e-003
2.281376e+003, 2.345089e-003
2.283305e+003, 2.522020e-003
2.285233e+003, 3.172470e-003
2.287162e+003, 3.214547e-003
2.289090e+003, 3.058651e-003
2.291019e+003, 2.639456e-003
2.292947e+003, 2.092471e-003
2.294875e+003, 2.016996e-003
2.296804e+003, 2.250267e-003
2.298732e+003, 2.380372e-003
2.300661e+003, 3.078815e-003
2.302589e+003, 2.790296e-003
2.304518e+003, 1.973759e-003
2.306446e+003, 1.890097e-003
2.308375e+003, 1.988604e-003
2.310303e+003, 2.346171e-003
2.312232e+003, 2.261150e-003
2.314160e+003, 1.814810e-003
2.316089e+003, 2.123210e-003
2.318017e+003, 2.630156e-003
2.319946e+003, 2.819488e-003
2.321874e+003, 2.724827e-003
2.323802e+003, 3.050487e-003
2.325731e+003, 3.253503e-003
2.327659e+003, 2.849976e-003
2.329588e+003, 2.041807e-003
2.331516e+003, 1.970618e-003
2.333445e+003, 2.288871e-003
2.335373e+003, 2.152665e-003
2.337302e+003, 2.332091e-003
2.339230e+003, 2.332626e-003
2.341159e+003, 2.168739e-003
2.343087e+003, 2.265443e-003
2.345016e+003, 2.844173e-003
2.346944e+003, 3.369007e-003
2.348873e+003, 2.867566e-003
2.350801e+003, 2.561668e-003
2.352729e+003, 2.553756e-003
2.354658e+003, 2.473782e-003
2.356586e+003, 2.182457e-003
2.358515e+003, 2.279875e-003
2.360443e+003, 2.535429e-003
2.362372e+003, 2.410134e-003
2.364300e+003, 2.232260e-003
2.366229e+003, 2.138512e-003
2.368157e+003, 2.435477e-003
2.370086e+003, 2.691750e-003
2.372014e+003, 2.326642e-003
2.373942e+003, 1.786761e-003
2.375871e+003, 1.386470e-003
2.377799e+003, 1.598837e-003
2.379728e+003, 1.771486e-003
2.381656e+003, 1.782374e-003
2.383585e+003, 2.120831e-003
2.385513e+003, 2.099086e-003
2.387442e+003, 2.368796e-003
2.389370e+003, 2.775254e-003
2.391299e+003, 2.463035e-003
2.393227e+003, 2.436323e-003
2.395156e+003, 2.649189e-003
2.397084e+003, 2.152456e-003
2.399012e+003, 2.471524e-003
2.400941e+003, 3.340106e-003
2.402869e+003, 2.937791e-003
2.404798e+003, 2.872000e-003
2.406726e+003, 2.992820e-003
2.408655e+003, 2.716640e-003
2.410583e+003, 3.329458e-003
2.412512e+003, 3.496130e-003
2.414440e+003, 3.000570e-003
2.416369e+003, 2.315382e-003
2.418297e+003, 2.379550e-003
2.420226e+003, 2.829236e-003
2.422154e+003, 2.542549e-003
2.424083e+003, 2.471951e-003
2.426011e+003, 2.848253e-003
2.427939e+003, 2.882301e-003
2.429868e+003, 2.792074e-003
2.431796e+003, 2.455510e-003
2.433725e+003, 2.189544e-003
2.435653e+003, 2.125451e-003
2.437582e+003, 2.128591e-003
2.439510e+003, 1.945703e-003
2.441439e+003, 2.668872e-003
2.443367e+003, 3.167013e-003
2.445296e+003, 2.598281e-003
2.447224e+003, 2.481008e-003
2.449153e+003, 2.716685e-003
2.451081e+003, 3.228253e-003
2.453010e+003, 3.495871e-003
2.454938e+003, 3.106222e-003
2.456866e+003, 2.987999e-003
2.458795e+003, 3.274536e-003
2.460723e+003, 3.249052e-003
2.462652e+003, 3.151995e-003
2.464580e+003, 3.018347e-003
2.466509e+003, 2.843695e-003
2.468437e+003, 1.934042e-003
2.470366e+003, 1.970979e-003
2.472294e+003, 2.522855e-003
2.474223e+003, 2.862044e-003
2.476151e+003, 2.871103e-003
2.478080e+003, 2.948510e-003
2.480008e+003, 3.219133e-003
2.481937e+003, 3.249765e-003
2.483865e+003, 2.642989e-003
2.485793e+003, 2.445739e-003
2.487722e+003, 2.246401e-003
2.489650e+003, 2.804710e-003
2.491579e+003, 3.051669e-003
2.493507e+003, 3.183625e-003
2.495436e+003, 2.873406e-003
2.497364e+003, 2.575569e-003
2.499293e+003, 2.325651e-003
2.501221e+003, 2.703004e-003
2.503150e+003, 3.413075e-003
2.505078e+003, 3.488150e-003
2.507007e+003, 3.472502e-003
2.508935e+003, 3.525464e-003
2.510864e+003, 3.500798e-003
2.512792e+003, 3.626114e-003
2.514720e+003, 3.103417e-003
2.516649e+003, 2.456133e-003
2.518577e+003, 1.884476e-003
2.520506e+003, 2.055596e-003
2.522434e+003, 2.296853e-003
2.524363e+003, 2.013994e-003
2.526291e+003, 1.846648e-003
2.528220e+003, 2.253938e-003
2.530148e+003, 3.157269e-003
2.532077e+003, 3.668849e-003
2.534005e+003, 3.647298e-003
2.535934e+003, 3.219857e-003
2.537862e+003, 3.426591e-003
2.539791e+003, 3.739136e-003
2.541719e+003, 3.728201e-003
2.543647e+003, 3.314102e-003
2.545576e+003, 2.775726e-003
2.547504e+003, 3.117729e-003
2.549433e+003, 3.261401e-003
2.551361e+003, 2.280252e-003
2.553290e+003, 2.326824e-003
2.555218e+003, 2.883520e-003
2.557147e+003, 3.337559e-003
2.559075e+003, 3.463915e-003
2.561004e+003, 2.505048e-003
2.562932e+003, 1.993732e-003
2.564861e+003, 2.717698e-003
2.566789e+003, 3.214944e-003
2.568718e+003, 3.036754e-003
2.570646e+003, 3.640740e-003
2.572574e+003, 3.769193e-003
2.574503e+003, 3.248307e-003
2.576431e+003, 3.312815e-003
2.578360e+003, 3.390788e-003
2.580288e+003, 3.362539e-003
2.582217e+003, 3.158077e-003
2.584145e+003, 2.871446e-003
2.586074e+003, 3.259042e-003
2.588002e+003, 3.788360e-003
2.589931e+003, 3.531344e-003
2.591859e+003, 2.688376e-003
2.593788e+003, 2.552804e-003
2.595716e+003, 3.479099e-003
2.597645e+003, 3.590563e-003
2.599573e+003, 3.317698e-003
2.601501e+003, 3.366846e-003
2.603430e+003, 3.505795e-003
2.605358e+003, 3.227163e-003
2.607287e+003, 2.956153e-003
2.609215e+003, 2.870708e-003
2.611144e+003, 3.106010e-003
2.613072e+003, 3.459550e-003
2.615001e+003, 3.350514e-003
2.616929e+003, 3.148196e-003
2.618858e+003, 3.110925e-003
2.620786e+003, 3.738688e-003
2.622715e+003, 3.773788e-003
2.624643e+003, 3.315685e-003
2.626572e+003, 3.703722e-003
2.628500e+003, 3.579577e-003
2.630428e+003, 3.475278e-003
2.632357e+003, 3.220114e-003
2.634285e+003, 2.879309e-003
2.636214e+003, 3.494664e-003
2.638142e+003, 3.689523e-003
2.640071e+003, 3.321054e-003
2.641999e+003, 3.133944e-003
2.643928e+003, 3.302800e-003
2.645856e+003, 3.281295e-003
2.647785e+003, 3.240927e-003
2.649713e+003, 3.494069e-003
2.651642e+003, 3.921208e-003
2.653570e+003, 3.864246e-003
2.655499e+003, 3.544417e-003
2.657427e+003, 3.153838e-003
2.659355e+003, 2.961403e-003
2.661284e+003, 3.333330e-003
2.663212e+003, 3.643325e-003
2.665141e+003, 3.121820e-003
2.667069e+003, 3.491611e-003
2.668998e+003, 3.601117e-003
2.670926e+003, 3.250711e-003
2.672855e+003, 3.227037e-003
2.674783e+003, 2.984896e-003
2.676712e+003, 2.867012e-003
2.678640e+003, 2.784821e-003
2.680569e+003, 2.916911e-003
2.682497e+003, 2.986466e-003
2.684426e+003, 2.660045e-003
2.686354e+003, 2.158713e-003
2.688282e+003, 2.382226e-003
2.690211e+003, 2.731092e-003
2.692139e+003, 3.036197e-003
2.694068e+003, 3.422121e-003
2.695996e+003, 3.137818e-003
2.697925e+003, 3.095336e-003
2.699853e+003, 4.014151e-003
2.701782e+003, 3.796147e-003
2.703710e+003, 3.042244e-003
2.705639e+003, 3.039022e-003
2.707567e+003, 3.346959e-003
2.709496e+003, 3.590480e-003
2.711424e+003, 3.674325e-003
2.713353e+003, 3.328055e-003
2.715281e+003, 3.320136e-003
2.717209e+003, 3.478522e-003
2.719138e+003, 3.482889e-003
2.721066e+003, 3.719502e-003
2.722995e+003, 3.887332e-003
2.724923e+003, 3.151578e-003
2.726852e+003, 2.956782e-003
2.728780e+003, 3.318421e-003
2.730709e+003, 3.426931e-003
2.732637e+003, 3.551222e-003
2.734566e+003, 3.734414e-003
2.736494e+003, 3.684748e-003
2.738423e+003, 3.387020e-003
2.740351e+003, 3.674276e-003
2.742280e+003, 4.370502e-003
2.744208e+003, 4.323383e-003
2.746136e+003, 4.517395e-003
2.748065e+003, 4.211302e-003
2.749993e+003, 3.291044e-003
2.751922e+003, 3.196983e-003
2.753850e+003, 3.607260e-003
2.755779e+003, 4.156967e-003
2.757707e+003, 4.338969e-003
2.759636e+003, 3.963413e-003
2.761564e+003, 3.699145e-003
2.763493e+003, 4.185788e-003
2.765421e+003, 4.728221e-003
2.767350e+003, 4.639833e-003
2.769278e+003, 3.929392e-003
2.771207e+003, 3.562031e-003
2.773135e+003, 3.532347e-003
2.775063e+003, 3.793328e-003
2.776992e+003, 3.611922e-003
2.778920e+003, 3.561605e-003
2.780849e+003, 4.043624e-003
2.782777e+003, 4.265341e-003
2.784706e+003, 4.352101e-003
2.786634e+003, 4.115408e-003
2.788563e+003, 3.930248e-003
2.790491e+003, 4.067109e-003
2.792420e+003, 4.250225e-003
2.794348e+003, 4.146684e-003
2.796277e+003, 3.858302e-003
2.798205e+003, 4.376831e-003
2.800134e+003, 4.741194e-003
2.802062e+003, 3.823628e-003
2.803990e+003, 3.642200e-003
2.805919e+003, 4.740632e-003
2.807847e+003, 5.133152e-003
2.809776e+003, 5.106292e-003
2.811704e+003, 4.799885e-003
2.813633e+003, 4.490606e-003
2.815561e+003, 4.852271e-003
2.817490e+003, 4.676775e-003
2.819418e+003, 3.986774e-003
2.821347e+003, 3.637277e-003
2.823275e+003, 3.631038e-003
2.825204e+003, 4.505318e-003
2.827132e+003, 5.182523e-003
2.829061e+003, 5.196037e-003
2.830989e+003, 4.785349e-003
2.832917e+003, 4.167103e-003
2.834846e+003, 4.183889e-003
2.836774e+003, 4.589248e-003
2.838703e+003, 4.718507e-003
2.840631e+003, 4.609661e-003
2.842560e+003, 4.192535e-003
2.844488e+003, 4.207769e-003
2.846417e+003, 4.262295e-003
2.848345e+003, 4.461713e-003
2.850274e+003, 4.243337e-003
2.852202e+003, 4.760019e-003
2.854131e+003, 5.398898e-003
2.856059e+003, 4.859845e-003
2.857988e+003, 4.683931e-003
2.859916e+003, 4.792301e-003
2.861844e+003, 4.360481e-003
2.863773e+003, 4.171082e-003
2.865701e+003, 4.377602e-003
2.867630e+003, 4.564213e-003
2.869558e+003, 4.366320e-003
2.871487e+003, 4.445737e-003
2.873415e+003, 4.188949e-003
2.875344e+003, 3.998580e-003
2.877272e+003, 4.894990e-003
2.879201e+003, 5.606450e-003
2.881129e+003, 5.764415e-003
2.883058e+003, 6.050747e-003
2.884986e+003, 6.061807e-003
2.886915e+003, 5.744566e-003
2.888843e+003, 5.641960e-003
2.890771e+003, 5.027973e-003
2.892700e+003, 5.204656e-003
2.894628e+003, 5.463377e-003
2.896557e+003, 5.703014e-003
2.898485e+003, 5.856360e-003
2.900414e+003, 5.960291e-003
2.902342e+003, 6.112968e-003
2.904271e+003, 6.573733e-003
2.906199e+003, 6.627080e-003
2.908128e+003, 5.993668e-003
2.910056e+003, 5.513612e-003
2.911985e+003, 5.787191e-003
2.913913e+003, 6.166061e-003
2.915842e+003, 6.139269e-003
2.917770e+003, 6.029184e-003
2.919698e+003, 5.669382e-003
2.921627e+003, 5.567333e-003
2.923555e+003, 5.728349e-003
2.925484e+003, 5.294119e-003
2.927412e+003, 5.019744e-003
2.929341e+003, 5.246518e-003
2.931269e+003, 5.690976e-003
2.933198e+003, 6.341562e-003
2.935126e+003, 6.856820e-003
2.937055e+003, 6.623295e-003
2.938983e+003, 5.476687e-003
2.940912e+003, 4.991731e-003
2.942840e+003, 5.782203e-003
2.944769e+003, 6.609208e-003
2.946697e+003, 6.184325e-003
2.948625e+003, 5.664715e-003
2.950554e+003, 5.836647e-003
2.952482e+003, 5.782185e-003
2.954411e+003, 6.316499e-003
2.956339e+003, 7.028117e-003
2.958268e+003, 6.908326e-003
2.960196e+003, 6.681896e-003
2.962125e+003, 6.520608e-003
2.964053e+003, 6.787753e-003
2.965982e+003, 6.805408e-003
2.967910e+003, 6.469694e-003
2.969839e+003, 6.007963e-003
2.971767e+003, 6.040061e-003
2.973696e+003, 6.806171e-003
2.975624e+003, 7.264228e-003
2.977552e+003, 7.645221e-003
2.979481e+003, 7.222814e-003
2.981409e+003, 6.370257e-003
2.983338e+003, 6.534028e-003
2.985266e+003, 7.257730e-003
2.987195e+003, 7.996105e-003
2.989123e+003, 7.939682e-003
2.991052e+003, 8.401185e-003
2.992980e+003, 8.445132e-003
2.994909e+003, 7.680207e-003
2.996837e+003, 7.358960e-003
2.998766e+003, 7.778959e-003
3.000694e+003, 7.709948e-003
3.002623e+003, 6.721269e-003
3.004551e+003, 6.937251e-003
3.006479e+003, 7.722409e-003
3.008408e+003, 8.039352e-003
3.010336e+003, 8.138651e-003
3.012265e+003, 7.872420e-003
3.014193e+003, 7.784522e-003
3.016122e+003, 8.753483e-003
3.018050e+003, 8.375774e-003
3.019979e+003, 7.498818e-003
3.021907e+003, 7.641681e-003
3.023836e+003, 7.585487e-003
3.025764e+003, 7.624207e-003
3.027693e+003, 7.945849e-003
3.029621e+003, 7.804981e-003
3.031550e+003, 7.012018e-003
3.033478e+003, 7.383242e-003
3.035406e+003, 8.388012e-003
3.037335e+003, 8.219146e-003
3.039263e+003, 8.074195e-003
3.041192e+003, 8.429254e-003
3.043120e+003, 8.262807e-003
3.045049e+003, 8.284389e-003
3.046977e+003, 8.467644e-003
3.048906e+003, 7.983739e-003
3.050834e+003, 7.337763e-003
3.052763e+003, 8.628290e-003
3.054691e+003, 9.338514e-003
3.056620e+003, 9.064459e-003
3.058548e+003, 9.223348e-003
3.060477e+003, 9.743923e-003
3.062405e+003, 1.028764e-002
3.064333e+003, 9.555335e-003
3.066262e+003, 8.714718e-003
3.068190e+003, 8.607741e-003
3.070119e+003, 7.981061e-003
3.072047e+003, 8.422587e-003
3.073976e+003, 9.477074e-003
3.075904e+003, 1.030814e-002
3.077833e+003, 1.053363e-002
3.079761e+003, 1.027006e-002
3.081690e+003, 1.119074e-002
3.083618e+003, 1.103950e-002
3.085547e+003, 9.966709e-003
3.087475e+003, 1.008260e-002
3.089404e+003, 1.079157e-002
3.091332e+003, 1.141025e-002
3.093260e+003, 1.138884e-002
3.095189e+003, 1.100172e-002
3.097117e+003, 1.090811e-002
3.099046e+003, 1.130741e-002
3.100974e+003, 1.141102e-002
3.102903e+003, 1.098902e-002
3.104831e+003, 1.106576e-002
3.106760e+003, 1.134366e-002
3.108688e+003, 1.087732e-002
3.110617e+003, 1.069892e-002
3.112545e+003, 1.091733e-002
3.114474e+003, 1.156416e-002
3.116402e+003, 1.229920e-002
3.118331e+003, 1.282012e-002
3.120259e+003, 1.261650e-002
3.122188e+003, 1.237872e-002
3.124116e+003, 1.181955e-002
3.126044e+003, 1.177993e-002
3.127973e+003, 1.222344e-002
3.129901e+003, 1.318684e-002
3.131830e+003, 1.379572e-002
3.133758e+003, 1.383568e-002
3.135687e+003, 1.303245e-002
3.137615e+003, 1.266234e-002
3.139544e+003, 1.336970e-002
3.141472e+003, 1.421712e-002
3.143401e+003, 1.429741e-002
3.145329e+003, 1.467653e-002
3.147258e+003, 1.528988e-002
3.149186e+003, 1.509307e-002
3.151115e+003, 1.539984e-002
3.153043e+003, 1.614844e-002
3.154971e+003, 1.627648e-002
3.156900e+003, 1.636254e-002
3.158828e+003, 1.719942e-002
3.160757e+003, 1.877986e-002
3.162685e+003, 1.883838e-002
3.164614e+003, 1.827922e-002
3.166542e+003, 1.824868e-002
3.168471e+003, 1.800619e-002
3.170399e+003, 1.848309e-002
3.172328e+003, 1.903063e-002
3.174256e+003, 1.905116e-002
3.176185e+003, 1.985558e-002
3.178113e+003, 2.035285e-002
3.180042e+003, 2.049010e-002
3.181970e+003, 2.055144e-002
3.183898e+003, 2.026571e-002
3.185827e+003, 2.000057e-002
3.187755e+003, 2.010784e-002
3.189684e+003, 2.003465e-002
3.191612e+003, 2.027307e-002
3.193541e+003, 2.055056e-002
3.195469e+003, 2.071740e-002
3.197398e+003, 2.057678e-002
3.199326e+003, 1.964626e-002
3.201255e+003, 1.974019e-002
3.203183e+003, 2.021066e-002
3.205112e+003, 1.949459e-002
3.207040e+003, 1.983536e-002
3.208969e+003, 2.030499e-002
3.210897e+003, 2.033749e-002
3.212825e+003, 2.012039e-002
3.214754e+003, 1.928883e-002
3.216682e+003, 1.878069e-002
3.218611e+003, 1.842719e-002
3.220539e+003, 1.800179e-002
3.222468e+003, 1.796822e-002
3.224396e+003, 1.770401e-002
3.226325e+003, 1.795486e-002
3.228253e+003, 1.936364e-002
3.230182e+003, 2.017371e-002
3.232110e+003, 2.019564e-002
3.234039e+003, 2.058508e-002
3.235967e+003, 2.058561e-002
3.237896e+003, 2.029438e-002
3.239824e+003, 1.920929e-002
3.241752e+003, 1.734903e-002
3.243681e+003, 1.704297e-002
3.245609e+003, 1.842072e-002
3.247538e+003, 1.912085e-002
3.249466e+003, 1.869168e-002
3.251395e+003, 1.882505e-002
3.253323e+003, 1.872818e-002
3.255252e+003, 1.889909e-002
3.257180e+003, 1.832370e-002
3.259109e+003, 1.793650e-002
3.261037e+003, 1.880543e-002
3.262966e+003, 1.969508e-002
3.264894e+003, 1.951400e-002
3.266823e+003, 1.947000e-002
3.268751e+003, 2.053064e-002
3.270679e+003, 2.173777e-002
3.272608e+003, 2.225741e-002
3.274536e+003, 2.305039e-002
3.276465e+003, 2.384626e-002
3.278393e+003, 2.321853e-002
3.280322e+003, 2.266156e-002
3.282250e+003, 2.351328e-002
3.284179e+003, 2.398839e-002
3.286107e+003, 2.454029e-002
3.288036e+003, 2.673577e-002
3.289964e+003, 2.756007e-002
3.291893e+003, 2.822245e-002
3.293821e+003, 2.913792e-002
3.295750e+003, 3.089746e-002
3.297678e+003, 3.285190e-002
3.299606e+003, 3.404061e-002
3.301535e+003, 3.516551e-002
3.303463e+003, 3.726542e-002
3.305392e+003, 3.863589e-002
3.307320e+003, 4.000673e-002
3.309249e+003, 4.224513e-002
3.311177e+003, 4.437591e-002
3.313106e+003, 4.539844e-002
3.315034e+003, 4.678724e-002
3.316963e+003, 4.874975e-002
3.318891e+003, 4.967649e-002
3.320820e+003, 4.986549e-002
3.322748e+003, 5.029295e-002
3.324677e+003, 5.114321e-002
3.326605e+003, 4.948176e-002
3.328533e+003, 4.688058e-002
3.330462e+003, 4.597810e-002
3.332390e+003, 4.453279e-002
3.334319e+003, 4.101066e-002
3.336247e+003, 3.934171e-002
3.338176e+003, 3.854183e-002
3.340104e+003, 3.600740e-002
3.342033e+003, 3.396539e-002
3.343961e+003, 3.218786e-002
3.345890e+003, 3.048464e-002
3.347818e+003, 2.928359e-002
3.349747e+003, 2.858273e-002
3.351675e+003, 2.753454e-002
3.353604e+003, 2.758099e-002
3.355532e+003, 2.699143e-002
3.357460e+003, 2.550017e-002
3.359389e+003, 2.534891e-002
3.361317e+003, 2.474508e-002
3.363246e+003, 2.351929e-002
3.365174e+003, 2.345400e-002
3.367103e+003, 2.416652e-002
3.369031e+003, 2.415732e-002
3.370960e+003, 2.337591e-002
3.372888e+003, 2.286119e-002
3.374817e+003, 2.230666e-002
3.376745e+003, 2.158329e-002
3.378674e+003, 2.170139e-002
3.380602e+003, 2.189801e-002
3.382531e+003, 2.149568e-002
3.384459e+003, 2.144189e-002
3.386387e+003, 2.055491e-002
3.388316e+003, 2.102381e-002
3.390244e+003, 2.143096e-002
3.392173e+003, 2.144689e-002
3.394101e+003, 2.133417e-002
3.396030e+003, 2.107210e-002
3.397958e+003, 2.223449e-002
3.399887e+003, 2.196031e-002
3.401815e+003, 2.055573e-002
3.403744e+003, 1.991846e-002
3.405672e+003, 2.020561e-002
3.407601e+003, 1.978449e-002
3.409529e+003, 2.027624e-002
3.411458e+003, 2.001540e-002
3.413386e+003, 1.902276e-002
3.415314e+003, 1.957939e-002
3.417243e+003, 2.079787e-002
3.419171e+003, 2.043531e-002
3.421100e+003, 1.996927e-002
3.423028e+003, 2.049149e-002
3.424957e+003, 2.101454e-002
3.426885e+003, 2.036126e-002
3.428814e+003, 1.827400e-002
3.430742e+003, 1.753564e-002
3.432671e+003, 1.812014e-002
3.434599e+003, 1.894595e-002
3.436528e+003, 1.859616e-002
3.438456e+003, 1.827053e-002
3.440385e+003, 1.896801e-002
3.442313e+003, 1.988207e-002
3.444241e+003, 2.059909e-002
3.446170e+003, 2.070000e-002
3.448098e+003, 2.113688e-002
3.450027e+003, 2.016184e-002
3.451955e+003, 1.826677e-002
3.453884e+003, 1.858343e-002
3.455812e+003, 1.995789e-002
3.457741e+003, 1.980633e-002
3.459669e+003, 1.960114e-002
3.461598e+003, 1.949762e-002
3.463526e+003, 1.931310e-002
3.465455e+003, 1.994916e-002
3.467383e+003, 2.102057e-002
3.469312e+003, 2.049341e-002
3.471240e+003, 2.035779e-002
3.473168e+003, 2.052074e-002
3.475097e+003, 2.088061e-002
3.477025e+003, 2.064382e-002
3.478954e+003, 2.090571e-002
3.480882e+003, 1.984452e-002
3.482811e+003, 1.944638e-002
3.484739e+003, 2.007435e-002
3.486668e+003, 2.076475e-002
3.488596e+003, 2.101933e-002
3.490525e+003, 2.141102e-002
3.492453e+003, 2.181456e-002
3.494382e+003, 2.147730e-002
3.496310e+003, 2.137645e-002
3.498239e+003, 2.207547e-002
3.500167e+003, 2.235753e-002
3.502095e+003, 2.335750e-002
3.504024e+003, 2.439214e-002
3.505952e+003, 2.518181e-002
3.507881e+003, 2.725291e-002
3.509809e+003, 2.921870e-002
3.511738e+003, 3.016613e-002
3.513666e+003, 3.096994e-002
3.515595e+003, 3.323780e-002
3.517523e+003, 3.703291e-002
3.519452e+003, 4.083988e-002
3.521380e+003, 4.416049e-002
3.523309e+003, 4.701544e-002
3.525237e+003, 4.970936e-002
3.527166e+003, 5.332446e-002
3.529094e+003, 5.747600e-002
3.531022e+003, 6.272340e-002
3.532951e+003, 6.687712e-002
3.534879e+003, 6.832594e-002
3.536808e+003, 6.883488e-002
3.538736e+003, 6.828986e-002
3.540665e+003, 6.538160e-002
3.542593e+003, 5.955444e-002
3.544522e+003, 5.486378e-002
3.546450e+003, 5.160138e-002
3.548379e+003, 4.814887e-002
3.550307e+003, 4.438207e-002
3.552236e+003, 4.064006e-002
3.554164e+003, 3.721844e-002
3.556093e+003, 3.447638e-002
3.558021e+003, 3.147329e-002
3.559949e+003, 2.884212e-002
3.561878e+003, 2.560761e-002
3.563806e+003, 2.367397e-002
3.565735e+003, 2.230654e-002
3.567663e+003, 2.190915e-002
3.569592e+003, 2.143945e-002
3.571520e+003, 1.957976e-002
3.573449e+003, 1.898420e-002
3.575377e+003, 1.882713e-002
3.577306e+003, 1.731179e-002
3.579234e+003, 1.683684e-002
3.581163e+003, 1.717566e-002
3.583091e+003, 1.735086e-002
3.585020e+003, 1.685189e-002
3.586948e+003, 1.618235e-002
3.588876e+003, 1.547832e-002
3.590805e+003, 1.521036e-002
3.592733e+003, 1.479025e-002
3.594662e+003, 1.414265e-002
3.596590e+003, 1.464333e-002
3.598519e+003, 1.367055e-002
3.600447e+003, 1.344877e-002
3.602376e+003, 1.342455e-002
3.604304e+003, 1.301707e-002
3.606233e+003, 1.263190e-002
3.608161e+003, 1.079459e-002
3.610090e+003, 1.140085e-002
3.612018e+003, 1.209412e-002
3.613947e+003, 1.388977e-002
3.615875e+003, 1.361504e-002
3.617803e+003, 1.164304e-002
3.619732e+003, 1.007310e-002
3.621660e+003, 9.888506e-003
3.623589e+003, 1.132496e-002
3.625517e+003, 1.094194e-002
3.627446e+003, 7.694742e-003
3.629374e+003, 9.194800e-003
3.631303e+003, 9.579008e-003
3.633231e+003, 8.967597e-003
3.635160e+003, 1.005357e-002
3.637088e+003, 1.033595e-002
3.639017e+003, 1.026883e-002
3.640945e+003, 9.610881e-003
3.642874e+003, 8.229054e-003
3.644802e+003, 8.094381e-003
3.646730e+003, 7.968253e-003
3.648659e+003, 6.277683e-003
3.650587e+003, 5.783501e-003
3.652516e+003, 5.561088e-003
3.654444e+003, 5.362516e-003
3.656373e+003, 6.720823e-003
3.658301e+003, 8.012864e-003
3.660230e+003, 8.395455e-003
3.662158e+003, 9.236191e-003
3.664087e+003, 7.488326e-003
3.666015e+003, 7.185368e-003
3.667944e+003, 7.323462e-003
3.669872e+003, 5.747291e-003
3.671801e+003, 6.056990e-003
3.673729e+003, 5.601586e-003
3.675657e+003, 6.245209e-003
3.677586e+003, 8.009715e-003
3.679514e+003, 1.130170e-002
3.681443e+003, 1.100758e-002
3.683371e+003, 7.574785e-003
3.685300e+003, 4.606808e-003
3.687228e+003, 3.122414e-003
3.689157e+003, 6.291504e-003
3.691085e+003, 6.095774e-003
3.693014e+003, 5.392374e-003
3.694942e+003, 6.635294e-003
3.696871e+003, 7.639407e-003
3.698799e+003, 6.919582e-003
3.700728e+003, 6.025506e-003
3.702656e+003, 6.424730e-003
3.704584e+003, 6.266154e-003
3.706513e+003, 6.274846e-003
3.708441e+003, 5.779874e-003
3.710370e+003, 4.714046e-003
3.712298e+003, 5.107193e-003
3.714227e+003, 6.152722e-003
3.716155e+003, 8.724487e-003
3.718084e+003, 8.852237e-003
3.720012e+003, 6.862007e-003
3.721941e+003, 5.743331e-003
3.723869e+003, 6.126800e-003
3.725798e+003, 7.604348e-003
3.727726e+003, 8.234076e-003
3.729655e+003, 6.535308e-003
3.731583e+003, 5.918481e-003
3.733511e+003, 6.730293e-003
3.735440e+003, 4.589013e-003
3.737368e+003, 4.918927e-003
3.739297e+003, 5.798219e-003
3.741225e+003, 5.195123e-003
3.743154e+003, 2.763018e-003
3.745082e+003, 7.190274e-003
3.747011e+003, 6.465608e-003
3.748939e+003, 4.442907e-003
3.750868e+003, 3.528268e-003
3.752796e+003, 6.048024e-003
3.754725e+003, 6.407069e-003
3.756653e+003, 6.892751e-003
3.758582e+003, 6.963265e-003
3.760510e+003, 6.754965e-003
3.762438e+003, 6.949345e-003
3.764367e+003, 7.054941e-003
3.766295e+003, 7.289820e-003
3.768224e+003, 6.314760e-003
3.770152e+003, 7.689232e-003
3.772081e+003, 8.272479e-003
3.774009e+003, 8.253198e-003
3.775938e+003, 7.990963e-003
3.777866e+003, 7.686803e-003
3.779795e+003, 8.678191e-003
3.781723e+003, 9.388538e-003
3.783652e+003, 9.908075e-003
3.785580e+003, 9.807717e-003
3.787509e+003, 8.734795e-003
3.789437e+003, 9.367132e-003
3.791365e+003, 8.227511e-003
3.793294e+003, 7.487689e-003
3.795222e+003, 7.825733e-003
3.797151e+003, 9.820292e-003
3.799079e+003, 8.931156e-003
3.801008e+003, 6.853490e-003
3.802936e+003, 6.922235e-003
3.804865e+003, 6.603063e-003
3.806793e+003, 7.641226e-003
3.808722e+003, 9.229172e-003
3.810650e+003, 8.534547e-003
3.812579e+003, 7.257329e-003
3.814507e+003, 4.915508e-003
3.816436e+003, 6.573640e-003
3.818364e+003, 5.515612e-003
3.820292e+003, 5.462497e-003
3.822221e+003, 8.378378e-003
3.824149e+003, 7.597912e-003
3.826078e+003, 6.993414e-003
3.828006e+003, 8.768509e-003
3.829935e+003, 7.427373e-003
3.831863e+003, 5.371492e-003
3.833792e+003, 4.902594e-003
3.835720e+003, 4.711199e-003
3.837649e+003, 2.711430e-003
3.839577e+003, 4.899207e-003
3.841506e+003, 7.897005e-003
3.843434e+003, 8.588529e-003
3.845363e+003, 9.509425e-003
3.847291e+003, 7.639873e-003
3.849219e+003, 6.332580e-003
3.851148e+003, 4.579325e-003
3.853076e+003, 4.146281e-003
3.855005e+003, 7.463710e-003
3.856933e+003, 6.808846e-003
3.858862e+003, 7.438736e-003
3.860790e+003, 9.302618e-003
3.862719e+003, 1.141572e-002
3.864647e+003, 9.440401e-003
3.866576e+003, 1.033752e-002
3.868504e+003, 8.354358e-003
3.870433e+003, 7.851148e-003
3.872361e+003, 7.800397e-003
3.874290e+003, 9.371357e-003
3.876218e+003, 1.007112e-002
3.878146e+003, 9.777845e-003
3.880075e+003, 9.657780e-003
3.882003e+003, 9.486497e-003
3.883932e+003, 5.835317e-003
3.885860e+003, 4.829921e-003
3.887789e+003, 7.195172e-003
3.889717e+003, 8.671653e-003
3.891646e+003, 9.433229e-003
3.893574e+003, 8.241118e-003
3.895503e+003, 9.493894e-003
3.897431e+003, 9.868922e-003
3.899360e+003, 1.014606e-002
3.901288e+003, 1.000026e-002
3.903217e+003, 8.660140e-003
3.905145e+003, 8.582287e-003
3.907073e+003, 8.890595e-003
3.909002e+003, 8.326028e-003
3.910930e+003, 9.647793e-003
3.912859e+003, 1.027367e-002
3.914787e+003, 1.037939e-002
3.916716e+003, 1.125060e-002
3.918644e+003, 8.936439e-003
3.920573e+003, 9.534474e-003
3.922501e+003, 1.184482e-002
3.924430e+003, 1.057739e-002
3.926358e+003, 9.830885e-003
3.928287e+003, 1.081935e-002
3.930215e+003, 9.993476e-003
3.932144e+003, 8.671987e-003
3.934072e+003, 7.078798e-003
3.936000e+003, 6.630578e-003
3.937929e+003, 8.834566e-003
3.939857e+003, 1.105994e-002
3.941786e+003, 1.023209e-002
3.943714e+003, 9.539302e-003
3.945643e+003, 8.144801e-003
3.947571e+003, 8.333321e-003
3.949500e+003, 1.022963e-002
3.951428e+003, 8.514822e-003
3.953357e+003, 7.729995e-003
3.955285e+003, 1.031649e-002
3.957214e+003, 1.111850e-002
3.959142e+003, 1.040147e-002
3.961071e+003, 9.826218e-003
3.962999e+003, 1.020495e-002
3.964927e+003, 1.141912e-002
3.966856e+003, 1.103804e-002
3.968784e+003, 9.703279e-003
3.970713e+003, 1.048674e-002
3.972641e+003, 1.053929e-002
3.974570e+003, 1.123567e-002
3.976498e+003, 1.183676e-002
3.978427e+003, 1.042609e-002
3.980355e+003, 9.120928e-003
3.982284e+003, 9.990083e-003
3.984212e+003, 9.336553e-003
3.986141e+003, 9.309313e-003
3.988069e+003, 8.858490e-003
3.989998e+003, 1.026462e-002
3.991926e+003, 1.160246e-002
3.993854e+003, 1.247417e-002
3.995783e+003, 1.291130e-002
3.997711e+003, 1.307488e-002
3.999640e+003, 1.307628e-002
##END=



