##NAMES=Natrojarosite
##RRUFFID=R050289
##IDEAL CHEMISTRY=NaFe^3+^_3_(S^6+^O_4_)_2_(OH)_6_
##LOCALITY=Bristol mine, Pioche, Lincoln County, Nevada, USA
##OWNER=RRUFF
##SOURCE=Marcus Origlieri
##DESCRIPTION=Mustard-colored massive
##STATUS=The identification of this mineral has been confirmed by X-ray diffraction and chemical analysis
##URL=rruff.info/R050289
##MEASURED CHEMISTRY=(Na_0.99_K_0.01_)_Î£=1_Fe^3+^_3.00_(S_1.00_O_4_)_2_(OH)_6_
3.991926e+002, 1.331120e-001
4.011211e+002, 1.424716e-001
4.030495e+002, 1.437582e-001
4.049780e+002, 1.448252e-001
4.069065e+002, 1.512364e-001
4.088349e+002, 1.599735e-001
4.107634e+002, 1.664134e-001
4.126919e+002, 1.776218e-001
4.146203e+002, 1.879247e-001
4.165488e+002, 1.933003e-001
4.184773e+002, 1.995547e-001
4.204057e+002, 2.090641e-001
4.223342e+002, 2.204235e-001
4.242627e+002, 2.296575e-001
4.261911e+002, 2.358211e-001
4.281196e+002, 2.433357e-001
4.300481e+002, 2.515856e-001
4.319765e+002, 2.592046e-001
4.339050e+002, 2.668172e-001
4.358335e+002, 2.759117e-001
4.377619e+002, 2.850593e-001
4.396904e+002, 2.950003e-001
4.416189e+002, 2.996118e-001
4.435473e+002, 2.998920e-001
4.454758e+002, 2.930416e-001
4.474043e+002, 2.822996e-001
4.493327e+002, 2.756557e-001
4.512612e+002, 2.802812e-001
4.531897e+002, 2.930596e-001
4.551181e+002, 3.093247e-001
4.570466e+002, 3.240835e-001
4.589751e+002, 3.377527e-001
4.609035e+002, 3.458558e-001
4.628320e+002, 3.532082e-001
4.647605e+002, 3.589335e-001
4.666889e+002, 3.621512e-001
4.686174e+002, 3.618323e-001
4.705459e+002, 3.574421e-001
4.724743e+002, 3.501440e-001
4.744028e+002, 3.404171e-001
4.763313e+002, 3.262940e-001
4.782597e+002, 3.105975e-001
4.801882e+002, 2.936645e-001
4.821167e+002, 2.765492e-001
4.840451e+002, 2.604611e-001
4.859736e+002, 2.487315e-001
4.879021e+002, 2.432948e-001
4.898305e+002, 2.473125e-001
4.917590e+002, 2.615147e-001
4.936875e+002, 2.837668e-001
4.956159e+002, 3.065614e-001
4.975444e+002, 3.245105e-001
4.994729e+002, 3.335386e-001
5.014013e+002, 3.343382e-001
5.033298e+002, 3.303009e-001
5.052583e+002, 3.226648e-001
5.071867e+002, 3.125862e-001
5.091152e+002, 2.988039e-001
5.110437e+002, 2.849004e-001
5.129721e+002, 2.723680e-001
5.149006e+002, 2.613150e-001
5.168290e+002, 2.517653e-001
5.187575e+002, 2.410825e-001
5.206860e+002, 2.306015e-001
5.226144e+002, 2.214206e-001
5.245429e+002, 2.137257e-001
5.264714e+002, 2.048525e-001
5.283998e+002, 1.961920e-001
5.303283e+002, 1.888958e-001
5.322568e+002, 1.814058e-001
5.341852e+002, 1.739015e-001
5.361137e+002, 1.669697e-001
5.380422e+002, 1.607456e-001
5.399706e+002, 1.545567e-001
5.418991e+002, 1.488226e-001
5.438276e+002, 1.433182e-001
5.457560e+002, 1.372261e-001
5.476845e+002, 1.315981e-001
5.496130e+002, 1.266439e-001
5.515414e+002, 1.223144e-001
5.534699e+002, 1.186920e-001
5.553984e+002, 1.155001e-001
5.573268e+002, 1.131347e-001
5.592553e+002, 1.110867e-001
5.611838e+002, 1.098351e-001
5.631122e+002, 1.097416e-001
5.650407e+002, 1.103211e-001
5.669692e+002, 1.108645e-001
5.688976e+002, 1.108516e-001
5.708261e+002, 1.105427e-001
5.727546e+002, 1.104630e-001
5.746830e+002, 1.108760e-001
5.766115e+002, 1.102820e-001
5.785400e+002, 1.091004e-001
5.804684e+002, 1.076839e-001
5.823969e+002, 1.060688e-001
5.843254e+002, 1.043044e-001
5.862538e+002, 1.028292e-001
5.881823e+002, 1.009122e-001
5.901108e+002, 9.894798e-002
5.920392e+002, 9.763947e-002
5.939677e+002, 9.623659e-002
5.958962e+002, 9.503001e-002
5.978246e+002, 9.428278e-002
5.997531e+002, 9.425724e-002
6.016816e+002, 9.496052e-002
6.036100e+002, 9.644109e-002
6.055385e+002, 9.897749e-002
6.074670e+002, 1.026444e-001
6.093954e+002, 1.072791e-001
6.113239e+002, 1.133522e-001
6.132524e+002, 1.211073e-001
6.151808e+002, 1.309010e-001
6.171093e+002, 1.424543e-001
6.190378e+002, 1.553490e-001
6.209662e+002, 1.682503e-001
6.228947e+002, 1.789531e-001
6.248232e+002, 1.851800e-001
6.267516e+002, 1.843686e-001
6.286801e+002, 1.758330e-001
6.306086e+002, 1.619344e-001
6.325370e+002, 1.452282e-001
6.344655e+002, 1.284161e-001
6.363940e+002, 1.136570e-001
6.383224e+002, 1.016773e-001
6.402509e+002, 9.225961e-002
6.421794e+002, 8.507821e-002
6.441078e+002, 8.016224e-002
6.460363e+002, 7.678273e-002
6.479648e+002, 7.424809e-002
6.498932e+002, 7.250775e-002
6.518217e+002, 7.163790e-002
6.537502e+002, 7.144146e-002
6.556786e+002, 7.206671e-002
6.576071e+002, 7.306805e-002
6.595356e+002, 7.406044e-002
6.614641e+002, 7.529033e-002
6.633925e+002, 7.628687e-002
6.653210e+002, 7.701857e-002
6.672495e+002, 7.759842e-002
6.691779e+002, 7.772438e-002
6.711064e+002, 7.722684e-002
6.730349e+002, 7.674804e-002
6.749633e+002, 7.632530e-002
6.768918e+002, 7.550807e-002
6.788203e+002, 7.417584e-002
6.807487e+002, 7.256691e-002
6.826772e+002, 7.045759e-002
6.846057e+002, 6.796915e-002
6.865341e+002, 6.531470e-002
6.884626e+002, 6.236711e-002
6.903911e+002, 5.945460e-002
6.923195e+002, 5.667883e-002
6.942480e+002, 5.385851e-002
6.961765e+002, 5.107164e-002
6.981049e+002, 4.816160e-002
7.000334e+002, 4.580817e-002
7.019619e+002, 4.346040e-002
7.038903e+002, 4.159740e-002
7.058188e+002, 3.990147e-002
7.077473e+002, 3.807638e-002
7.096757e+002, 3.651659e-002
7.116042e+002, 3.545655e-002
7.135327e+002, 3.435682e-002
7.154611e+002, 3.324579e-002
7.173896e+002, 3.227595e-002
7.193181e+002, 3.119958e-002
7.212465e+002, 3.002279e-002
7.231750e+002, 2.923625e-002
7.251035e+002, 2.874504e-002
7.270319e+002, 2.796256e-002
7.289604e+002, 2.729960e-002
7.308889e+002, 2.686324e-002
7.328173e+002, 2.632856e-002
7.347458e+002, 2.603268e-002
7.366743e+002, 2.598753e-002
7.386027e+002, 2.580450e-002
7.405312e+002, 2.552480e-002
7.424597e+002, 2.507405e-002
7.443881e+002, 2.476549e-002
7.463166e+002, 2.471362e-002
7.482451e+002, 2.443197e-002
7.501735e+002, 2.421083e-002
7.521020e+002, 2.420219e-002
7.540305e+002, 2.417723e-002
7.559589e+002, 2.415446e-002
7.578874e+002, 2.390896e-002
7.598159e+002, 2.414934e-002
7.617443e+002, 2.453771e-002
7.636728e+002, 2.450097e-002
7.656013e+002, 2.436796e-002
7.675297e+002, 2.476562e-002
7.694582e+002, 2.508681e-002
7.713867e+002, 2.510814e-002
7.733151e+002, 2.496505e-002
7.752436e+002, 2.511349e-002
7.771721e+002, 2.542867e-002
7.791005e+002, 2.575201e-002
7.810290e+002, 2.621967e-002
7.829575e+002, 2.662908e-002
7.848859e+002, 2.669961e-002
7.868144e+002, 2.696143e-002
7.887429e+002, 2.739014e-002
7.906713e+002, 2.804703e-002
7.925998e+002, 2.838924e-002
7.945283e+002, 2.831778e-002
7.964567e+002, 2.855463e-002
7.983852e+002, 2.879738e-002
8.003137e+002, 2.885633e-002
8.022421e+002, 2.885442e-002
8.041706e+002, 2.903301e-002
8.060991e+002, 2.918678e-002
8.080275e+002, 2.919428e-002
8.099560e+002, 2.936894e-002
8.118845e+002, 2.953390e-002
8.138129e+002, 2.945703e-002
8.157414e+002, 2.946804e-002
8.176699e+002, 2.948276e-002
8.195983e+002, 2.956557e-002
8.215268e+002, 2.973214e-002
8.234553e+002, 2.999438e-002
8.253837e+002, 3.016895e-002
8.273122e+002, 3.052389e-002
8.292407e+002, 3.075995e-002
8.311691e+002, 3.099741e-002
8.330976e+002, 3.121838e-002
8.350261e+002, 3.193620e-002
8.369545e+002, 3.244076e-002
8.388830e+002, 3.291058e-002
8.408115e+002, 3.368761e-002
8.427399e+002, 3.460059e-002
8.446684e+002, 3.551272e-002
8.465969e+002, 3.631433e-002
8.485253e+002, 3.699534e-002
8.504538e+002, 3.774964e-002
8.523823e+002, 3.850150e-002
8.543107e+002, 3.907529e-002
8.562392e+002, 3.961113e-002
8.581677e+002, 4.069668e-002
8.600961e+002, 4.161867e-002
8.620246e+002, 4.218123e-002
8.639531e+002, 4.276973e-002
8.658815e+002, 4.356913e-002
8.678100e+002, 4.435356e-002
8.697385e+002, 4.506344e-002
8.716669e+002, 4.572628e-002
8.735954e+002, 4.632991e-002
8.755239e+002, 4.703277e-002
8.774523e+002, 4.781118e-002
8.793808e+002, 4.842607e-002
8.813093e+002, 4.919184e-002
8.832377e+002, 4.999641e-002
8.851662e+002, 5.086539e-002
8.870947e+002, 5.195475e-002
8.890231e+002, 5.299199e-002
8.909516e+002, 5.392494e-002
8.928801e+002, 5.504170e-002
8.948085e+002, 5.635118e-002
8.967370e+002, 5.750575e-002
8.986655e+002, 5.887686e-002
9.005939e+002, 6.034084e-002
9.025224e+002, 6.192307e-002
9.044509e+002, 6.366475e-002
9.063793e+002, 6.536071e-002
9.083078e+002, 6.681386e-002
9.102363e+002, 6.855725e-002
9.121647e+002, 7.031650e-002
9.140932e+002, 7.183452e-002
9.160217e+002, 7.346535e-002
9.179501e+002, 7.539134e-002
9.198786e+002, 7.751868e-002
9.218071e+002, 7.967242e-002
9.237355e+002, 8.203322e-002
9.256640e+002, 8.480234e-002
9.275925e+002, 8.777003e-002
9.295209e+002, 9.099923e-002
9.314494e+002, 9.462284e-002
9.333779e+002, 9.838592e-002
9.353063e+002, 1.023795e-001
9.372348e+002, 1.068914e-001
9.391633e+002, 1.117587e-001
9.410917e+002, 1.168116e-001
9.430202e+002, 1.221089e-001
9.449487e+002, 1.278408e-001
9.468771e+002, 1.339012e-001
9.488056e+002, 1.400220e-001
9.507341e+002, 1.467636e-001
9.526625e+002, 1.539976e-001
9.545910e+002, 1.613388e-001
9.565195e+002, 1.690761e-001
9.584479e+002, 1.774959e-001
9.603764e+002, 1.866112e-001
9.623049e+002, 1.962367e-001
9.642333e+002, 2.063368e-001
9.661618e+002, 2.170283e-001
9.680903e+002, 2.282159e-001
9.700187e+002, 2.401534e-001
9.719472e+002, 2.526941e-001
9.738757e+002, 2.659845e-001
9.758041e+002, 2.801240e-001
9.777326e+002, 2.950938e-001
9.796611e+002, 3.109054e-001
9.815895e+002, 3.279569e-001
9.835180e+002, 3.459758e-001
9.854465e+002, 3.648025e-001
9.873749e+002, 3.846382e-001
9.893034e+002, 4.050206e-001
9.912319e+002, 4.251612e-001
9.931603e+002, 4.464223e-001
9.950888e+002, 4.695077e-001
9.970173e+002, 4.931112e-001
9.989457e+002, 5.159014e-001
1.000874e+003, 5.370023e-001
1.002803e+003, 5.528655e-001
1.004731e+003, 5.598819e-001
1.006660e+003, 5.565217e-001
1.008588e+003, 5.342864e-001
1.010517e+003, 4.892797e-001
1.012445e+003, 4.521597e-001
1.014373e+003, 4.456538e-001
1.016302e+003, 4.531554e-001
1.018230e+003, 4.541750e-001
1.020159e+003, 4.451347e-001
1.022087e+003, 4.288946e-001
1.024016e+003, 4.086632e-001
1.025944e+003, 3.863711e-001
1.027873e+003, 3.632125e-001
1.029801e+003, 3.399379e-001
1.031730e+003, 3.169685e-001
1.033658e+003, 2.943889e-001
1.035587e+003, 2.721880e-001
1.037515e+003, 2.499047e-001
1.039443e+003, 2.283101e-001
1.041372e+003, 2.074479e-001
1.043300e+003, 1.877906e-001
1.045229e+003, 1.699086e-001
1.047157e+003, 1.541868e-001
1.049086e+003, 1.413251e-001
1.051014e+003, 1.316165e-001
1.052943e+003, 1.252077e-001
1.054871e+003, 1.218487e-001
1.056800e+003, 1.211486e-001
1.058728e+003, 1.232572e-001
1.060657e+003, 1.282688e-001
1.062585e+003, 1.361389e-001
1.064514e+003, 1.472623e-001
1.066442e+003, 1.626781e-001
1.068370e+003, 1.830186e-001
1.070299e+003, 2.090074e-001
1.072227e+003, 2.409149e-001
1.074156e+003, 2.783911e-001
1.076084e+003, 3.198488e-001
1.078013e+003, 3.629012e-001
1.079941e+003, 4.042616e-001
1.081870e+003, 4.410685e-001
1.083798e+003, 4.713588e-001
1.085727e+003, 4.954547e-001
1.087655e+003, 5.132684e-001
1.089584e+003, 5.222703e-001
1.091512e+003, 5.182448e-001
1.093441e+003, 4.990217e-001
1.095369e+003, 4.676971e-001
1.097297e+003, 4.313707e-001
1.099226e+003, 3.954733e-001
1.101154e+003, 3.624972e-001
1.103083e+003, 3.334706e-001
1.105011e+003, 3.085422e-001
1.106940e+003, 2.868128e-001
1.108868e+003, 2.673830e-001
1.110797e+003, 2.495369e-001
1.112725e+003, 2.326691e-001
1.114654e+003, 2.161513e-001
1.116582e+003, 2.002898e-001
1.118511e+003, 1.854937e-001
1.120439e+003, 1.716656e-001
1.122368e+003, 1.585506e-001
1.124296e+003, 1.464249e-001
1.126224e+003, 1.354404e-001
1.128153e+003, 1.255271e-001
1.130081e+003, 1.167645e-001
1.132010e+003, 1.095167e-001
1.133938e+003, 1.042892e-001
1.135867e+003, 1.016062e-001
1.137795e+003, 1.012643e-001
1.139724e+003, 1.030808e-001
1.141652e+003, 1.061938e-001
1.143581e+003, 1.098342e-001
1.145509e+003, 1.137608e-001
1.147438e+003, 1.178983e-001
1.149366e+003, 1.220179e-001
1.151295e+003, 1.259331e-001
1.153223e+003, 1.297801e-001
1.155151e+003, 1.335823e-001
1.157080e+003, 1.372374e-001
1.159008e+003, 1.408017e-001
1.160937e+003, 1.441738e-001
1.162865e+003, 1.474471e-001
1.164794e+003, 1.504460e-001
1.166722e+003, 1.531990e-001
1.168651e+003, 1.558098e-001
1.170579e+003, 1.581410e-001
1.172508e+003, 1.597458e-001
1.174436e+003, 1.608176e-001
1.176365e+003, 1.614415e-001
1.178293e+003, 1.616204e-001
1.180222e+003, 1.612826e-001
1.182150e+003, 1.603755e-001
1.184078e+003, 1.587100e-001
1.186007e+003, 1.562478e-001
1.187935e+003, 1.531145e-001
1.189864e+003, 1.494141e-001
1.191792e+003, 1.449181e-001
1.193721e+003, 1.398498e-001
1.195649e+003, 1.342551e-001
1.197578e+003, 1.282059e-001
1.199506e+003, 1.218442e-001
1.201435e+003, 1.152726e-001
1.203363e+003, 1.084435e-001
1.205292e+003, 1.015410e-001
1.207220e+003, 9.467356e-002
1.209149e+003, 8.778416e-002
1.211077e+003, 8.101862e-002
1.213005e+003, 7.442383e-002
1.214934e+003, 6.814629e-002
1.216862e+003, 6.222819e-002
1.218791e+003, 5.674977e-002
1.220719e+003, 5.175122e-002
1.222648e+003, 4.715471e-002
1.224576e+003, 4.302002e-002
1.226505e+003, 3.926356e-002
1.228433e+003, 3.588464e-002
1.230362e+003, 3.291861e-002
1.232290e+003, 3.045754e-002
1.234219e+003, 2.826097e-002
1.236147e+003, 2.618135e-002
1.238076e+003, 2.424423e-002
1.240004e+003, 2.256769e-002
1.241932e+003, 2.115739e-002
1.243861e+003, 1.988584e-002
1.245789e+003, 1.869930e-002
1.247718e+003, 1.756698e-002
1.249646e+003, 1.664657e-002
1.251575e+003, 1.601047e-002
1.253503e+003, 1.541185e-002
1.255432e+003, 1.467284e-002
1.257360e+003, 1.382497e-002
1.259289e+003, 1.312206e-002
1.261217e+003, 1.254208e-002
1.263146e+003, 1.204145e-002
1.265074e+003, 1.149232e-002
1.267003e+003, 1.106838e-002
1.268931e+003, 1.061683e-002
1.270859e+003, 1.030703e-002
1.272788e+003, 1.000564e-002
1.274716e+003, 9.716360e-003
1.276645e+003, 9.543141e-003
1.278573e+003, 9.212146e-003
1.280502e+003, 8.857520e-003
1.282430e+003, 8.774023e-003
1.284359e+003, 8.574479e-003
1.286287e+003, 8.170367e-003
1.288216e+003, 7.995879e-003
1.290144e+003, 7.846956e-003
1.292073e+003, 7.601341e-003
1.294001e+003, 7.435969e-003
1.295930e+003, 7.390123e-003
1.297858e+003, 7.281619e-003
1.299786e+003, 7.067295e-003
1.301715e+003, 6.973804e-003
1.303643e+003, 6.949539e-003
1.305572e+003, 7.019573e-003
1.307500e+003, 7.113884e-003
1.309429e+003, 7.216176e-003
1.311357e+003, 7.245500e-003
1.313286e+003, 7.239977e-003
1.315214e+003, 7.179073e-003
1.317143e+003, 7.163525e-003
1.319071e+003, 7.088201e-003
1.321000e+003, 6.949344e-003
1.322928e+003, 6.913796e-003
1.324857e+003, 7.049598e-003
1.326785e+003, 7.040090e-003
1.328714e+003, 7.002566e-003
1.330642e+003, 6.987297e-003
1.332570e+003, 6.953043e-003
1.334499e+003, 6.942335e-003
1.336427e+003, 7.070637e-003
1.338356e+003, 7.160239e-003
1.340284e+003, 7.157705e-003
1.342213e+003, 7.135733e-003
1.344141e+003, 7.121232e-003
1.346070e+003, 7.097284e-003
1.347998e+003, 7.126358e-003
1.349927e+003, 7.224758e-003
1.351855e+003, 7.279516e-003
1.353784e+003, 7.345997e-003
1.355712e+003, 7.341545e-003
1.357641e+003, 7.421777e-003
1.359569e+003, 7.564127e-003
1.361497e+003, 7.711771e-003
1.363426e+003, 7.647797e-003
1.365354e+003, 7.548654e-003
1.367283e+003, 7.561534e-003
1.369211e+003, 7.583059e-003
1.371140e+003, 7.731470e-003
1.373068e+003, 7.891468e-003
1.374997e+003, 7.914064e-003
1.376925e+003, 7.949038e-003
1.378854e+003, 8.070371e-003
1.380782e+003, 8.129244e-003
1.382711e+003, 8.150047e-003
1.384639e+003, 8.199001e-003
1.386568e+003, 8.396190e-003
1.388496e+003, 8.414655e-003
1.390424e+003, 8.356105e-003
1.392353e+003, 8.442094e-003
1.394281e+003, 8.663426e-003
1.396210e+003, 8.849410e-003
1.398138e+003, 8.957732e-003
1.400067e+003, 8.971861e-003
1.401995e+003, 9.038744e-003
1.403924e+003, 9.123667e-003
1.405852e+003, 9.103563e-003
1.407781e+003, 9.182981e-003
1.409709e+003, 9.499627e-003
1.411638e+003, 9.647230e-003
1.413566e+003, 9.766784e-003
1.415495e+003, 9.985402e-003
1.417423e+003, 1.018105e-002
1.419351e+003, 1.040256e-002
1.421280e+003, 1.043584e-002
1.423208e+003, 1.053671e-002
1.425137e+003, 1.064088e-002
1.427065e+003, 1.054406e-002
1.428994e+003, 1.053678e-002
1.430922e+003, 1.055937e-002
1.432851e+003, 1.060373e-002
1.434779e+003, 1.074847e-002
1.436708e+003, 1.080906e-002
1.438636e+003, 1.054593e-002
1.440565e+003, 1.040999e-002
1.442493e+003, 1.050260e-002
1.444422e+003, 1.054199e-002
1.446350e+003, 1.044331e-002
1.448278e+003, 1.031869e-002
1.450207e+003, 1.024060e-002
1.452135e+003, 1.027060e-002
1.454064e+003, 1.032126e-002
1.455992e+003, 1.054711e-002
1.457921e+003, 1.042012e-002
1.459849e+003, 1.008196e-002
1.461778e+003, 9.948661e-003
1.463706e+003, 9.897990e-003
1.465635e+003, 9.839673e-003
1.467563e+003, 9.546839e-003
1.469492e+003, 9.362033e-003
1.471420e+003, 9.450751e-003
1.473349e+003, 9.402548e-003
1.475277e+003, 9.143859e-003
1.477205e+003, 8.976455e-003
1.479134e+003, 8.838813e-003
1.481062e+003, 8.754735e-003
1.482991e+003, 8.585370e-003
1.484919e+003, 8.444237e-003
1.486848e+003, 8.401912e-003
1.488776e+003, 8.487284e-003
1.490705e+003, 8.447339e-003
1.492633e+003, 8.311545e-003
1.494562e+003, 8.462851e-003
1.496490e+003, 8.632891e-003
1.498419e+003, 8.477117e-003
1.500347e+003, 8.260200e-003
1.502276e+003, 8.187869e-003
1.504204e+003, 8.575487e-003
1.506132e+003, 9.087237e-003
1.508061e+003, 8.774904e-003
1.509989e+003, 8.253571e-003
1.511918e+003, 8.153403e-003
1.513846e+003, 8.243201e-003
1.515775e+003, 8.480774e-003
1.517703e+003, 8.614762e-003
1.519632e+003, 8.821844e-003
1.521560e+003, 8.968955e-003
1.523489e+003, 8.726920e-003
1.525417e+003, 8.721962e-003
1.527346e+003, 8.802289e-003
1.529274e+003, 8.906933e-003
1.531203e+003, 9.015993e-003
1.533131e+003, 9.285023e-003
1.535059e+003, 9.273658e-003
1.536988e+003, 9.347096e-003
1.538916e+003, 1.005068e-002
1.540845e+003, 1.025363e-002
1.542773e+003, 9.964145e-003
1.544702e+003, 9.806603e-003
1.546630e+003, 9.639593e-003
1.548559e+003, 9.621591e-003
1.550487e+003, 9.627664e-003
1.552416e+003, 9.723471e-003
1.554344e+003, 9.945805e-003
1.556273e+003, 1.014926e-002
1.558201e+003, 1.067802e-002
1.560130e+003, 1.062340e-002
1.562058e+003, 9.941767e-003
1.563986e+003, 9.747563e-003
1.565915e+003, 9.796832e-003
1.567843e+003, 9.975117e-003
1.569772e+003, 1.021499e-002
1.571700e+003, 1.017736e-002
1.573629e+003, 1.019066e-002
1.575557e+003, 1.052659e-002
1.577486e+003, 1.049525e-002
1.579414e+003, 1.036950e-002
1.581343e+003, 1.045433e-002
1.583271e+003, 1.054660e-002
1.585200e+003, 1.057911e-002
1.587128e+003, 1.054461e-002
1.589057e+003, 1.052494e-002
1.590985e+003, 1.059835e-002
1.592913e+003, 1.078716e-002
1.594842e+003, 1.081331e-002
1.596770e+003, 1.077866e-002
1.598699e+003, 1.082024e-002
1.600627e+003, 1.083189e-002
1.602556e+003, 1.083811e-002
1.604484e+003, 1.083215e-002
1.606413e+003, 1.083478e-002
1.608341e+003, 1.090148e-002
1.610270e+003, 1.101069e-002
1.612198e+003, 1.117984e-002
1.614127e+003, 1.131620e-002
1.616055e+003, 1.173483e-002
1.617984e+003, 1.197285e-002
1.619912e+003, 1.189858e-002
1.621840e+003, 1.206967e-002
1.623769e+003, 1.228458e-002
1.625697e+003, 1.239125e-002
1.627626e+003, 1.254150e-002
1.629554e+003, 1.281928e-002
1.631483e+003, 1.294289e-002
1.633411e+003, 1.327271e-002
1.635340e+003, 1.373647e-002
1.637268e+003, 1.358699e-002
1.639197e+003, 1.319928e-002
1.641125e+003, 1.298717e-002
1.643054e+003, 1.296804e-002
1.644982e+003, 1.329270e-002
1.646911e+003, 1.343923e-002
1.648839e+003, 1.301957e-002
1.650767e+003, 1.308733e-002
1.652696e+003, 1.383544e-002
1.654624e+003, 1.320372e-002
1.656553e+003, 1.230439e-002
1.658481e+003, 1.222187e-002
1.660410e+003, 1.232165e-002
1.662338e+003, 1.221950e-002
1.664267e+003, 1.192261e-002
1.666195e+003, 1.175254e-002
1.668124e+003, 1.191125e-002
1.670052e+003, 1.183386e-002
1.671981e+003, 1.148478e-002
1.673909e+003, 1.144953e-002
1.675838e+003, 1.148930e-002
1.677766e+003, 1.123123e-002
1.679694e+003, 1.118889e-002
1.681623e+003, 1.130193e-002
1.683551e+003, 1.167076e-002
1.685480e+003, 1.146635e-002
1.687408e+003, 1.100350e-002
1.689337e+003, 1.091161e-002
1.691265e+003, 1.082086e-002
1.693194e+003, 1.088213e-002
1.695122e+003, 1.134662e-002
1.697051e+003, 1.129537e-002
1.698979e+003, 1.137969e-002
1.700908e+003, 1.144923e-002
1.702836e+003, 1.091687e-002
1.704765e+003, 1.078963e-002
1.706693e+003, 1.077828e-002
1.708621e+003, 1.082078e-002
1.710550e+003, 1.081824e-002
1.712478e+003, 1.086576e-002
1.714407e+003, 1.106300e-002
1.716335e+003, 1.150912e-002
1.718264e+003, 1.142096e-002
1.720192e+003, 1.093516e-002
1.722121e+003, 1.074920e-002
1.724049e+003, 1.067295e-002
1.725978e+003, 1.056828e-002
1.727906e+003, 1.069828e-002
1.729835e+003, 1.078368e-002
1.731763e+003, 1.085971e-002
1.733692e+003, 1.090965e-002
1.735620e+003, 1.029455e-002
1.737548e+003, 9.743483e-003
1.739477e+003, 9.585386e-003
1.741405e+003, 9.092155e-003
1.743334e+003, 8.727032e-003
1.745262e+003, 8.580666e-003
1.747191e+003, 8.606398e-003
1.749119e+003, 8.787317e-003
1.751048e+003, 8.935449e-003
1.752976e+003, 8.907418e-003
1.754905e+003, 8.944314e-003
1.756833e+003, 9.111329e-003
1.758762e+003, 9.055439e-003
1.760690e+003, 9.323480e-003
1.762619e+003, 9.738413e-003
1.764547e+003, 9.803938e-003
1.766475e+003, 9.822693e-003
1.768404e+003, 9.889007e-003
1.770332e+003, 9.985334e-003
1.772261e+003, 1.005497e-002
1.774189e+003, 9.736368e-003
1.776118e+003, 9.480321e-003
1.778046e+003, 9.611018e-003
1.779975e+003, 9.792884e-003
1.781903e+003, 9.781531e-003
1.783832e+003, 9.774622e-003
1.785760e+003, 9.729568e-003
1.787689e+003, 9.597657e-003
1.789617e+003, 9.511888e-003
1.791546e+003, 9.606493e-003
1.793474e+003, 9.718918e-003
1.795402e+003, 9.788025e-003
1.797331e+003, 9.732795e-003
1.799259e+003, 9.535238e-003
1.801188e+003, 9.423823e-003
1.803116e+003, 9.394293e-003
1.805045e+003, 9.366921e-003
1.806973e+003, 9.392184e-003
1.808902e+003, 9.434464e-003
1.810830e+003, 9.471533e-003
1.812759e+003, 9.264555e-003
1.814687e+003, 9.226803e-003
1.816616e+003, 9.380211e-003
1.818544e+003, 9.497725e-003
1.820473e+003, 9.732902e-003
1.822401e+003, 9.631159e-003
1.824329e+003, 9.507294e-003
1.826258e+003, 9.616060e-003
1.828186e+003, 9.572844e-003
1.830115e+003, 9.451298e-003
1.832043e+003, 9.368315e-003
1.833972e+003, 9.355645e-003
1.835900e+003, 9.212726e-003
1.837829e+003, 9.320780e-003
1.839757e+003, 9.508810e-003
1.841686e+003, 9.386673e-003
1.843614e+003, 9.435003e-003
1.845543e+003, 9.387882e-003
1.847471e+003, 9.210235e-003
1.849400e+003, 9.279476e-003
1.851328e+003, 9.528710e-003
1.853256e+003, 9.594682e-003
1.855185e+003, 9.609430e-003
1.857113e+003, 9.726778e-003
1.859042e+003, 9.763123e-003
1.860970e+003, 9.998770e-003
1.862899e+003, 9.890465e-003
1.864827e+003, 9.587958e-003
1.866756e+003, 9.607638e-003
1.868684e+003, 9.827396e-003
1.870613e+003, 9.957246e-003
1.872541e+003, 9.970401e-003
1.874470e+003, 9.848332e-003
1.876398e+003, 9.651136e-003
1.878327e+003, 9.416042e-003
1.880255e+003, 9.333390e-003
1.882183e+003, 9.382140e-003
1.884112e+003, 9.385427e-003
1.886040e+003, 9.593422e-003
1.887969e+003, 9.388671e-003
1.889897e+003, 9.596579e-003
1.891826e+003, 1.022407e-002
1.893754e+003, 1.063118e-002
1.895683e+003, 1.068915e-002
1.897611e+003, 1.078728e-002
1.899540e+003, 1.089849e-002
1.901468e+003, 1.087081e-002
1.903397e+003, 1.078663e-002
1.905325e+003, 1.073729e-002
1.907254e+003, 1.070034e-002
1.909182e+003, 1.055774e-002
1.911110e+003, 1.078291e-002
1.913039e+003, 1.119597e-002
1.914967e+003, 1.142030e-002
1.916896e+003, 1.121867e-002
1.918824e+003, 1.116621e-002
1.920753e+003, 1.106958e-002
1.922681e+003, 1.143800e-002
1.924610e+003, 1.136662e-002
1.926538e+003, 1.133174e-002
1.928467e+003, 1.159725e-002
1.930395e+003, 1.191575e-002
1.932324e+003, 1.251374e-002
1.934252e+003, 1.242163e-002
1.936181e+003, 1.179787e-002
1.938109e+003, 1.166951e-002
1.940037e+003, 1.227207e-002
1.941966e+003, 1.289032e-002
1.943894e+003, 1.345917e-002
1.945823e+003, 1.341621e-002
1.947751e+003, 1.370131e-002
1.949680e+003, 1.417543e-002
1.951608e+003, 1.368222e-002
1.953537e+003, 1.419462e-002
1.955465e+003, 1.462328e-002
1.957394e+003, 1.496233e-002
1.959322e+003, 1.668048e-002
1.961251e+003, 1.753975e-002
1.963179e+003, 1.710788e-002
1.965108e+003, 1.809462e-002
1.967036e+003, 1.875446e-002
1.968964e+003, 1.843745e-002
1.970893e+003, 1.942034e-002
1.972821e+003, 2.043725e-002
1.974750e+003, 2.080943e-002
1.976678e+003, 2.172527e-002
1.978607e+003, 2.331765e-002
1.980535e+003, 2.437371e-002
1.982464e+003, 2.516713e-002
1.984392e+003, 2.571524e-002
1.986321e+003, 2.599925e-002
1.988249e+003, 2.619577e-002
1.990178e+003, 2.687763e-002
1.992106e+003, 2.735805e-002
1.994035e+003, 2.654493e-002
1.995963e+003, 2.494933e-002
1.997891e+003, 2.366822e-002
1.999820e+003, 2.301923e-002
2.001748e+003, 2.101988e-002
2.003677e+003, 1.828954e-002
2.005605e+003, 1.748493e-002
2.007534e+003, 1.850347e-002
2.009462e+003, 1.823420e-002
2.011391e+003, 1.768376e-002
2.013319e+003, 1.794468e-002
2.015248e+003, 1.826040e-002
2.017176e+003, 1.895210e-002
2.019105e+003, 1.888173e-002
2.021033e+003, 1.884638e-002
2.022962e+003, 1.849427e-002
2.024890e+003, 1.917251e-002
2.026818e+003, 2.028010e-002
2.028747e+003, 2.236051e-002
2.030675e+003, 2.295891e-002
2.032604e+003, 2.317525e-002
2.034532e+003, 2.358566e-002
2.036461e+003, 2.273492e-002
2.038389e+003, 2.425392e-002
2.040318e+003, 2.645830e-002
2.042246e+003, 2.781800e-002
2.044175e+003, 2.857419e-002
2.046103e+003, 2.750592e-002
2.048031e+003, 2.641837e-002
2.049960e+003, 2.704923e-002
2.051888e+003, 2.704673e-002
2.053817e+003, 2.578082e-002
2.055745e+003, 2.427132e-002
2.057674e+003, 2.341428e-002
2.059602e+003, 2.207335e-002
2.061531e+003, 2.112534e-002
2.063459e+003, 2.086028e-002
2.065388e+003, 2.104399e-002
2.067316e+003, 2.083931e-002
2.069245e+003, 2.065330e-002
2.071173e+003, 2.086775e-002
2.073102e+003, 2.027841e-002
2.075030e+003, 2.002086e-002
2.076958e+003, 1.923577e-002
2.078887e+003, 1.886385e-002
2.080815e+003, 1.928200e-002
2.082744e+003, 1.929016e-002
2.084672e+003, 1.945742e-002
2.086601e+003, 1.916673e-002
2.088529e+003, 1.955990e-002
2.090458e+003, 1.951881e-002
2.092386e+003, 1.926337e-002
2.094315e+003, 1.931820e-002
2.096243e+003, 1.945663e-002
2.098172e+003, 1.971154e-002
2.100100e+003, 1.966055e-002
2.102029e+003, 1.941605e-002
2.103957e+003, 1.940871e-002
2.105885e+003, 1.936779e-002
2.107814e+003, 1.944987e-002
2.109742e+003, 1.908405e-002
2.111671e+003, 1.822594e-002
2.113599e+003, 1.838119e-002
2.115528e+003, 1.944299e-002
2.117456e+003, 1.947919e-002
2.119385e+003, 1.891070e-002
2.121313e+003, 1.863384e-002
2.123242e+003, 1.924246e-002
2.125170e+003, 1.935438e-002
2.127099e+003, 1.899577e-002
2.129027e+003, 1.940836e-002
2.130956e+003, 1.972622e-002
2.132884e+003, 1.929730e-002
2.134813e+003, 1.888572e-002
2.136741e+003, 1.876433e-002
2.138669e+003, 1.806722e-002
2.140598e+003, 1.778030e-002
2.142526e+003, 1.677208e-002
2.144455e+003, 1.612497e-002
2.146383e+003, 1.709919e-002
2.148312e+003, 1.802623e-002
2.150240e+003, 1.806119e-002
2.152169e+003, 1.728296e-002
2.154097e+003, 1.731665e-002
2.156026e+003, 1.784460e-002
2.157954e+003, 1.838261e-002
2.159883e+003, 1.854412e-002
2.161811e+003, 1.754471e-002
2.163740e+003, 1.748491e-002
2.165668e+003, 1.840596e-002
2.167596e+003, 1.755241e-002
2.169525e+003, 1.621336e-002
2.171453e+003, 1.567134e-002
2.173382e+003, 1.687750e-002
2.175310e+003, 1.614793e-002
2.177239e+003, 1.509568e-002
2.179167e+003, 1.544230e-002
2.181096e+003, 1.554855e-002
2.183024e+003, 1.569651e-002
2.184953e+003, 1.657180e-002
2.186881e+003, 1.690898e-002
2.188810e+003, 1.706800e-002
2.190738e+003, 1.681284e-002
2.192667e+003, 1.666307e-002
2.194595e+003, 1.641988e-002
2.196523e+003, 1.665605e-002
2.198452e+003, 1.687915e-002
2.200380e+003, 1.802485e-002
2.202309e+003, 1.872975e-002
2.204237e+003, 1.795793e-002
2.206166e+003, 1.704413e-002
2.208094e+003, 1.683122e-002
2.210023e+003, 1.698998e-002
2.211951e+003, 1.673849e-002
2.213880e+003, 1.617474e-002
2.215808e+003, 1.642133e-002
2.217737e+003, 1.691494e-002
2.219665e+003, 1.704357e-002
2.221594e+003, 1.667579e-002
2.223522e+003, 1.643549e-002
2.225450e+003, 1.600002e-002
2.227379e+003, 1.646578e-002
2.229307e+003, 1.742272e-002
2.231236e+003, 1.703648e-002
2.233164e+003, 1.720334e-002
2.235093e+003, 1.815424e-002
2.237021e+003, 1.796184e-002
2.238950e+003, 1.827533e-002
2.240878e+003, 1.825280e-002
2.242807e+003, 1.778944e-002
2.244735e+003, 1.812738e-002
2.246664e+003, 1.819013e-002
2.248592e+003, 1.747929e-002
2.250521e+003, 1.765250e-002
2.252449e+003, 1.772233e-002
2.254377e+003, 1.719924e-002
2.256306e+003, 1.696191e-002
2.258234e+003, 1.647761e-002
2.260163e+003, 1.695944e-002
2.262091e+003, 1.734352e-002
2.264020e+003, 1.698792e-002
2.265948e+003, 1.677467e-002
2.267877e+003, 1.677042e-002
2.269805e+003, 1.746818e-002
2.271734e+003, 1.780229e-002
2.273662e+003, 1.802365e-002
2.275591e+003, 1.817136e-002
2.277519e+003, 1.782289e-002
2.279448e+003, 1.757852e-002
2.281376e+003, 1.735972e-002
2.283304e+003, 1.723564e-002
2.285233e+003, 1.758570e-002
2.287161e+003, 1.709647e-002
2.289090e+003, 1.671749e-002
2.291018e+003, 1.652470e-002
2.292947e+003, 1.638567e-002
2.294875e+003, 1.628545e-002
2.296804e+003, 1.610413e-002
2.298732e+003, 1.615759e-002
2.300661e+003, 1.622143e-002
2.302589e+003, 1.593003e-002
2.304518e+003, 1.602223e-002
2.306446e+003, 1.591838e-002
2.308375e+003, 1.560515e-002
2.310303e+003, 1.541143e-002
2.312231e+003, 1.580101e-002
2.314160e+003, 1.605975e-002
2.316088e+003, 1.594147e-002
2.318017e+003, 1.570036e-002
2.319945e+003, 1.599614e-002
2.321874e+003, 1.633833e-002
2.323802e+003, 1.626358e-002
2.325731e+003, 1.604382e-002
2.327659e+003, 1.585365e-002
2.329588e+003, 1.572745e-002
2.331516e+003, 1.557069e-002
2.333445e+003, 1.559449e-002
2.335373e+003, 1.569627e-002
2.337302e+003, 1.546213e-002
2.339230e+003, 1.540723e-002
2.341158e+003, 1.561452e-002
2.343087e+003, 1.558093e-002
2.345015e+003, 1.549649e-002
2.346944e+003, 1.559599e-002
2.348872e+003, 1.537298e-002
2.350801e+003, 1.546136e-002
2.352729e+003, 1.549879e-002
2.354658e+003, 1.544395e-002
2.356586e+003, 1.550337e-002
2.358515e+003, 1.579932e-002
2.360443e+003, 1.599229e-002
2.362372e+003, 1.588033e-002
2.364300e+003, 1.594228e-002
2.366229e+003, 1.582994e-002
2.368157e+003, 1.575404e-002
2.370085e+003, 1.547184e-002
2.372014e+003, 1.541891e-002
2.373942e+003, 1.556875e-002
2.375871e+003, 1.555001e-002
2.377799e+003, 1.515284e-002
2.379728e+003, 1.487477e-002
2.381656e+003, 1.494884e-002
2.383585e+003, 1.486297e-002
2.385513e+003, 1.520187e-002
2.387442e+003, 1.562344e-002
2.389370e+003, 1.545396e-002
2.391299e+003, 1.530056e-002
2.393227e+003, 1.554624e-002
2.395156e+003, 1.554389e-002
2.397084e+003, 1.529492e-002
2.399012e+003, 1.525176e-002
2.400941e+003, 1.571055e-002
2.402869e+003, 1.525711e-002
2.404798e+003, 1.475893e-002
2.406726e+003, 1.520028e-002
2.408655e+003, 1.569845e-002
2.410583e+003, 1.624259e-002
2.412512e+003, 1.628505e-002
2.414440e+003, 1.612418e-002
2.416369e+003, 1.622866e-002
2.418297e+003, 1.628719e-002
2.420226e+003, 1.619930e-002
2.422154e+003, 1.611045e-002
2.424083e+003, 1.625854e-002
2.426011e+003, 1.618776e-002
2.427939e+003, 1.622610e-002
2.429868e+003, 1.683016e-002
2.431796e+003, 1.718029e-002
2.433725e+003, 1.634579e-002
2.435653e+003, 1.646040e-002
2.437582e+003, 1.707386e-002
2.439510e+003, 1.734381e-002
2.441439e+003, 1.717026e-002
2.443367e+003, 1.690912e-002
2.445296e+003, 1.732098e-002
2.447224e+003, 1.752714e-002
2.449153e+003, 1.748376e-002
2.451081e+003, 1.771114e-002
2.453010e+003, 1.777785e-002
2.454938e+003, 1.784388e-002
2.456866e+003, 1.806846e-002
2.458795e+003, 1.809262e-002
2.460723e+003, 1.798572e-002
2.462652e+003, 1.819590e-002
2.464580e+003, 1.820885e-002
2.466509e+003, 1.777074e-002
2.468437e+003, 1.799181e-002
2.470366e+003, 1.829419e-002
2.472294e+003, 1.806366e-002
2.474223e+003, 1.801170e-002
2.476151e+003, 1.825348e-002
2.478080e+003, 1.827249e-002
2.480008e+003, 1.835563e-002
2.481937e+003, 1.847584e-002
2.483865e+003, 1.852491e-002
2.485793e+003, 1.864557e-002
2.487722e+003, 1.853733e-002
2.489650e+003, 1.844354e-002
2.491579e+003, 1.869611e-002
2.493507e+003, 1.934727e-002
2.495436e+003, 1.965025e-002
2.497364e+003, 1.955697e-002
2.499293e+003, 1.933944e-002
2.501221e+003, 1.913848e-002
2.503150e+003, 1.929798e-002
2.505078e+003, 1.932640e-002
2.507007e+003, 1.944238e-002
2.508935e+003, 1.938553e-002
2.510864e+003, 1.940091e-002
2.512792e+003, 1.968682e-002
2.514720e+003, 1.954508e-002
2.516649e+003, 1.936412e-002
2.518577e+003, 1.951951e-002
2.520506e+003, 1.935898e-002
2.522434e+003, 1.939484e-002
2.524363e+003, 1.946362e-002
2.526291e+003, 1.970748e-002
2.528220e+003, 2.011862e-002
2.530148e+003, 1.963381e-002
2.532077e+003, 1.968112e-002
2.534005e+003, 2.025495e-002
2.535934e+003, 2.051485e-002
2.537862e+003, 2.031526e-002
2.539791e+003, 1.992139e-002
2.541719e+003, 1.994292e-002
2.543647e+003, 1.998298e-002
2.545576e+003, 1.987462e-002
2.547504e+003, 1.978035e-002
2.549433e+003, 1.998904e-002
2.551361e+003, 2.012317e-002
2.553290e+003, 2.010673e-002
2.555218e+003, 2.007180e-002
2.557147e+003, 2.027922e-002
2.559075e+003, 2.035330e-002
2.561004e+003, 2.034753e-002
2.562932e+003, 2.062678e-002
2.564861e+003, 2.059129e-002
2.566789e+003, 2.037808e-002
2.568718e+003, 2.083125e-002
2.570646e+003, 2.104731e-002
2.572574e+003, 2.082018e-002
2.574503e+003, 2.095419e-002
2.576431e+003, 2.129608e-002
2.578360e+003, 2.110636e-002
2.580288e+003, 2.086375e-002
2.582217e+003, 2.068890e-002
2.584145e+003, 2.055056e-002
2.586074e+003, 2.095349e-002
2.588002e+003, 2.113159e-002
2.589931e+003, 2.097648e-002
2.591859e+003, 2.115368e-002
2.593788e+003, 2.114478e-002
2.595716e+003, 2.097270e-002
2.597645e+003, 2.113757e-002
2.599573e+003, 2.137837e-002
2.601501e+003, 2.133340e-002
2.603430e+003, 2.105662e-002
2.605358e+003, 2.135145e-002
2.607287e+003, 2.176588e-002
2.609215e+003, 2.170353e-002
2.611144e+003, 2.162838e-002
2.613072e+003, 2.178994e-002
2.615001e+003, 2.176262e-002
2.616929e+003, 2.187340e-002
2.618858e+003, 2.203563e-002
2.620786e+003, 2.206493e-002
2.622715e+003, 2.207405e-002
2.624643e+003, 2.202367e-002
2.626572e+003, 2.200683e-002
2.628500e+003, 2.185989e-002
2.630428e+003, 2.194838e-002
2.632357e+003, 2.226340e-002
2.634285e+003, 2.252959e-002
2.636214e+003, 2.262732e-002
2.638142e+003, 2.269645e-002
2.640071e+003, 2.259223e-002
2.641999e+003, 2.214449e-002
2.643928e+003, 2.205810e-002
2.645856e+003, 2.231027e-002
2.647785e+003, 2.264705e-002
2.649713e+003, 2.292536e-002
2.651642e+003, 2.287201e-002
2.653570e+003, 2.281115e-002
2.655499e+003, 2.252441e-002
2.657427e+003, 2.251912e-002
2.659355e+003, 2.270859e-002
2.661284e+003, 2.247515e-002
2.663212e+003, 2.248137e-002
2.665141e+003, 2.273514e-002
2.667069e+003, 2.273059e-002
2.668998e+003, 2.266908e-002
2.670926e+003, 2.246392e-002
2.672855e+003, 2.233387e-002
2.674783e+003, 2.266294e-002
2.676712e+003, 2.314544e-002
2.678640e+003, 2.303299e-002
2.680569e+003, 2.280391e-002
2.682497e+003, 2.276699e-002
2.684426e+003, 2.284738e-002
2.686354e+003, 2.318967e-002
2.688282e+003, 2.321394e-002
2.690211e+003, 2.285350e-002
2.692139e+003, 2.278826e-002
2.694068e+003, 2.314648e-002
2.695996e+003, 2.344366e-002
2.697925e+003, 2.346015e-002
2.699853e+003, 2.347864e-002
2.701782e+003, 2.343967e-002
2.703710e+003, 2.335587e-002
2.705639e+003, 2.359061e-002
2.707567e+003, 2.382517e-002
2.709496e+003, 2.397083e-002
2.711424e+003, 2.407012e-002
2.713353e+003, 2.382053e-002
2.715281e+003, 2.369251e-002
2.717209e+003, 2.394422e-002
2.719138e+003, 2.399115e-002
2.721066e+003, 2.390199e-002
2.722995e+003, 2.404227e-002
2.724923e+003, 2.417510e-002
2.726852e+003, 2.436334e-002
2.728780e+003, 2.451042e-002
2.730709e+003, 2.461169e-002
2.732637e+003, 2.466103e-002
2.734566e+003, 2.478554e-002
2.736494e+003, 2.473949e-002
2.738423e+003, 2.464891e-002
2.740351e+003, 2.471325e-002
2.742280e+003, 2.482600e-002
2.744208e+003, 2.505291e-002
2.746136e+003, 2.520717e-002
2.748065e+003, 2.511523e-002
2.749993e+003, 2.519145e-002
2.751922e+003, 2.527690e-002
2.753850e+003, 2.551529e-002
2.755779e+003, 2.573314e-002
2.757707e+003, 2.571156e-002
2.759636e+003, 2.573914e-002
2.761564e+003, 2.562260e-002
2.763493e+003, 2.546622e-002
2.765421e+003, 2.564462e-002
2.767350e+003, 2.574443e-002
2.769278e+003, 2.578065e-002
2.771207e+003, 2.605630e-002
2.773135e+003, 2.629375e-002
2.775063e+003, 2.629954e-002
2.776992e+003, 2.636772e-002
2.778920e+003, 2.656117e-002
2.780849e+003, 2.662714e-002
2.782777e+003, 2.660950e-002
2.784706e+003, 2.657579e-002
2.786634e+003, 2.671695e-002
2.788563e+003, 2.663957e-002
2.790491e+003, 2.665109e-002
2.792420e+003, 2.673940e-002
2.794348e+003, 2.686555e-002
2.796277e+003, 2.685255e-002
2.798205e+003, 2.685863e-002
2.800134e+003, 2.716882e-002
2.802062e+003, 2.742831e-002
2.803990e+003, 2.746199e-002
2.805919e+003, 2.723595e-002
2.807847e+003, 2.721422e-002
2.809776e+003, 2.764678e-002
2.811704e+003, 2.802885e-002
2.813633e+003, 2.806706e-002
2.815561e+003, 2.815034e-002
2.817490e+003, 2.798146e-002
2.819418e+003, 2.777727e-002
2.821347e+003, 2.807081e-002
2.823275e+003, 2.814052e-002
2.825204e+003, 2.808811e-002
2.827132e+003, 2.832828e-002
2.829061e+003, 2.887566e-002
2.830989e+003, 2.864855e-002
2.832917e+003, 2.845221e-002
2.834846e+003, 2.883226e-002
2.836774e+003, 2.901805e-002
2.838703e+003, 2.900831e-002
2.840631e+003, 2.908012e-002
2.842560e+003, 2.939527e-002
2.844488e+003, 2.931135e-002
2.846417e+003, 2.866013e-002
2.848345e+003, 2.801984e-002
2.850274e+003, 2.784823e-002
2.852202e+003, 2.825015e-002
2.854131e+003, 2.862086e-002
2.856059e+003, 2.905831e-002
2.857988e+003, 2.927364e-002
2.859916e+003, 2.937246e-002
2.861844e+003, 2.971317e-002
2.863773e+003, 2.990278e-002
2.865701e+003, 3.011042e-002
2.867630e+003, 3.058895e-002
2.869558e+003, 3.098443e-002
2.871487e+003, 3.126528e-002
2.873415e+003, 3.115333e-002
2.875344e+003, 3.128196e-002
2.877272e+003, 3.125603e-002
2.879201e+003, 3.106844e-002
2.881129e+003, 3.107702e-002
2.883058e+003, 3.121181e-002
2.884986e+003, 3.146152e-002
2.886915e+003, 3.145558e-002
2.888843e+003, 3.111820e-002
2.890771e+003, 3.102067e-002
2.892700e+003, 3.137816e-002
2.894628e+003, 3.181767e-002
2.896557e+003, 3.223963e-002
2.898485e+003, 3.227172e-002
2.900414e+003, 3.203984e-002
2.902342e+003, 3.211518e-002
2.904271e+003, 3.219743e-002
2.906199e+003, 3.252998e-002
2.908128e+003, 3.264115e-002
2.910056e+003, 3.245177e-002
2.911985e+003, 3.201245e-002
2.913913e+003, 3.155816e-002
2.915842e+003, 3.167946e-002
2.917770e+003, 3.164781e-002
2.919698e+003, 3.158798e-002
2.921627e+003, 3.226520e-002
2.923555e+003, 3.301919e-002
2.925484e+003, 3.325406e-002
2.927412e+003, 3.328495e-002
2.929341e+003, 3.343239e-002
2.931269e+003, 3.380193e-002
2.933198e+003, 3.390809e-002
2.935126e+003, 3.383182e-002
2.937055e+003, 3.378968e-002
2.938983e+003, 3.367402e-002
2.940912e+003, 3.375205e-002
2.942840e+003, 3.412811e-002
2.944769e+003, 3.432807e-002
2.946697e+003, 3.453187e-002
2.948625e+003, 3.496373e-002
2.950554e+003, 3.529504e-002
2.952482e+003, 3.586736e-002
2.954411e+003, 3.643590e-002
2.956339e+003, 3.687925e-002
2.958268e+003, 3.706421e-002
2.960196e+003, 3.700558e-002
2.962125e+003, 3.683780e-002
2.964053e+003, 3.661016e-002
2.965982e+003, 3.678567e-002
2.967910e+003, 3.699083e-002
2.969839e+003, 3.686915e-002
2.971767e+003, 3.655788e-002
2.973696e+003, 3.626642e-002
2.975624e+003, 3.630668e-002
2.977552e+003, 3.659393e-002
2.979481e+003, 3.663744e-002
2.981409e+003, 3.676655e-002
2.983338e+003, 3.711241e-002
2.985266e+003, 3.704216e-002
2.987195e+003, 3.660788e-002
2.989123e+003, 3.667981e-002
2.991052e+003, 3.681175e-002
2.992980e+003, 3.697475e-002
2.994909e+003, 3.724149e-002
2.996837e+003, 3.769425e-002
2.998766e+003, 3.815654e-002
3.000694e+003, 3.802035e-002
3.002623e+003, 3.806487e-002
3.004551e+003, 3.872834e-002
3.006479e+003, 3.897926e-002
3.008408e+003, 3.912627e-002
3.010336e+003, 3.948325e-002
3.012265e+003, 4.014605e-002
3.014193e+003, 4.045671e-002
3.016122e+003, 4.054736e-002
3.018050e+003, 4.075625e-002
3.019979e+003, 4.089585e-002
3.021907e+003, 4.121318e-002
3.023836e+003, 4.146003e-002
3.025764e+003, 4.157339e-002
3.027693e+003, 4.175334e-002
3.029621e+003, 4.231534e-002
3.031550e+003, 4.284760e-002
3.033478e+003, 4.316739e-002
3.035406e+003, 4.354366e-002
3.037335e+003, 4.410105e-002
3.039263e+003, 4.414687e-002
3.041192e+003, 4.423677e-002
3.043120e+003, 4.496953e-002
3.045049e+003, 4.506054e-002
3.046977e+003, 4.523700e-002
3.048906e+003, 4.571113e-002
3.050834e+003, 4.603858e-002
3.052763e+003, 4.656742e-002
3.054691e+003, 4.671109e-002
3.056620e+003, 4.707381e-002
3.058548e+003, 4.750171e-002
3.060477e+003, 4.778391e-002
3.062405e+003, 4.836329e-002
3.064333e+003, 4.904090e-002
3.066262e+003, 4.904268e-002
3.068190e+003, 4.909274e-002
3.070119e+003, 4.902061e-002
3.072047e+003, 4.942124e-002
3.073976e+003, 5.037201e-002
3.075904e+003, 5.105423e-002
3.077833e+003, 5.122948e-002
3.079761e+003, 5.159508e-002
3.081690e+003, 5.221649e-002
3.083618e+003, 5.243456e-002
3.085547e+003, 5.287927e-002
3.087475e+003, 5.362805e-002
3.089404e+003, 5.404065e-002
3.091332e+003, 5.420335e-002
3.093260e+003, 5.457827e-002
3.095189e+003, 5.501232e-002
3.097117e+003, 5.573621e-002
3.099046e+003, 5.645442e-002
3.100974e+003, 5.713290e-002
3.102903e+003, 5.760409e-002
3.104831e+003, 5.787839e-002
3.106760e+003, 5.841806e-002
3.108688e+003, 5.900975e-002
3.110617e+003, 5.957070e-002
3.112545e+003, 6.029034e-002
3.114474e+003, 6.103570e-002
3.116402e+003, 6.134638e-002
3.118331e+003, 6.177136e-002
3.120259e+003, 6.259106e-002
3.122188e+003, 6.319743e-002
3.124116e+003, 6.328323e-002
3.126044e+003, 6.406215e-002
3.127973e+003, 6.482460e-002
3.129901e+003, 6.495494e-002
3.131830e+003, 6.522749e-002
3.133758e+003, 6.564213e-002
3.135687e+003, 6.595206e-002
3.137615e+003, 6.683244e-002
3.139544e+003, 6.714448e-002
3.141472e+003, 6.749018e-002
3.143401e+003, 6.817523e-002
3.145329e+003, 6.844485e-002
3.147258e+003, 6.853221e-002
3.149186e+003, 6.907468e-002
3.151115e+003, 6.938046e-002
3.153043e+003, 6.939886e-002
3.154971e+003, 7.023804e-002
3.156900e+003, 7.120280e-002
3.158828e+003, 7.161919e-002
3.160757e+003, 7.197654e-002
3.162685e+003, 7.262675e-002
3.164614e+003, 7.324269e-002
3.166542e+003, 7.351242e-002
3.168471e+003, 7.417234e-002
3.170399e+003, 7.465811e-002
3.172328e+003, 7.534762e-002
3.174256e+003, 7.596985e-002
3.176185e+003, 7.673588e-002
3.178113e+003, 7.798430e-002
3.180042e+003, 7.873171e-002
3.181970e+003, 7.957830e-002
3.183898e+003, 8.085445e-002
3.185827e+003, 8.153500e-002
3.187755e+003, 8.216771e-002
3.189684e+003, 8.307595e-002
3.191612e+003, 8.364806e-002
3.193541e+003, 8.441216e-002
3.195469e+003, 8.562101e-002
3.197398e+003, 8.663542e-002
3.199326e+003, 8.725950e-002
3.201255e+003, 8.823027e-002
3.203183e+003, 8.901960e-002
3.205112e+003, 8.980350e-002
3.207040e+003, 9.085924e-002
3.208969e+003, 9.137009e-002
3.210897e+003, 9.186229e-002
3.212825e+003, 9.317283e-002
3.214754e+003, 9.468134e-002
3.216682e+003, 9.589013e-002
3.218611e+003, 9.671735e-002
3.220539e+003, 9.705940e-002
3.222468e+003, 9.797016e-002
3.224396e+003, 9.954698e-002
3.226325e+003, 1.012350e-001
3.228253e+003, 1.024926e-001
3.230182e+003, 1.035072e-001
3.232110e+003, 1.052189e-001
3.234039e+003, 1.068109e-001
3.235967e+003, 1.082124e-001
3.237896e+003, 1.100360e-001
3.239824e+003, 1.115539e-001
3.241752e+003, 1.128803e-001
3.243681e+003, 1.149653e-001
3.245609e+003, 1.173822e-001
3.247538e+003, 1.197233e-001
3.249466e+003, 1.221025e-001
3.251395e+003, 1.243583e-001
3.253323e+003, 1.269462e-001
3.255252e+003, 1.293734e-001
3.257180e+003, 1.316058e-001
3.259109e+003, 1.339776e-001
3.261037e+003, 1.363516e-001
3.262966e+003, 1.390606e-001
3.264894e+003, 1.412566e-001
3.266823e+003, 1.437540e-001
3.268751e+003, 1.468230e-001
3.270679e+003, 1.495736e-001
3.272608e+003, 1.526559e-001
3.274536e+003, 1.557694e-001
3.276465e+003, 1.587286e-001
3.278393e+003, 1.620271e-001
3.280322e+003, 1.657631e-001
3.282250e+003, 1.688018e-001
3.284179e+003, 1.716407e-001
3.286107e+003, 1.747741e-001
3.288036e+003, 1.775997e-001
3.289964e+003, 1.806576e-001
3.291893e+003, 1.837027e-001
3.293821e+003, 1.864706e-001
3.295750e+003, 1.893532e-001
3.297678e+003, 1.928142e-001
3.299606e+003, 1.960605e-001
3.301535e+003, 1.995226e-001
3.303463e+003, 2.032934e-001
3.305392e+003, 2.072372e-001
3.307320e+003, 2.118271e-001
3.309249e+003, 2.164116e-001
3.311177e+003, 2.208142e-001
3.313106e+003, 2.256287e-001
3.315034e+003, 2.308027e-001
3.316963e+003, 2.357680e-001
3.318891e+003, 2.417791e-001
3.320820e+003, 2.486276e-001
3.322748e+003, 2.551620e-001
3.324677e+003, 2.625564e-001
3.326605e+003, 2.706496e-001
3.328533e+003, 2.788891e-001
3.330462e+003, 2.881683e-001
3.332390e+003, 2.985281e-001
3.334319e+003, 3.099845e-001
3.336247e+003, 3.227319e-001
3.338176e+003, 3.356287e-001
3.340104e+003, 3.493131e-001
3.342033e+003, 3.642412e-001
3.343961e+003, 3.790412e-001
3.345890e+003, 3.930981e-001
3.347818e+003, 4.066705e-001
3.349747e+003, 4.192657e-001
3.351675e+003, 4.293845e-001
3.353604e+003, 4.352339e-001
3.355532e+003, 4.369028e-001
3.357460e+003, 4.338409e-001
3.359389e+003, 4.251161e-001
3.361317e+003, 4.119227e-001
3.363246e+003, 3.952200e-001
3.365174e+003, 3.759944e-001
3.367103e+003, 3.552417e-001
3.369031e+003, 3.370779e-001
3.370960e+003, 3.229976e-001
3.372888e+003, 3.122224e-001
3.374817e+003, 3.047292e-001
3.376745e+003, 3.000436e-001
3.378674e+003, 2.953242e-001
3.380602e+003, 2.903351e-001
3.382531e+003, 2.840656e-001
3.384459e+003, 2.749588e-001
3.386387e+003, 2.630132e-001
3.388316e+003, 2.489660e-001
3.390244e+003, 2.338071e-001
3.392173e+003, 2.185676e-001
3.394101e+003, 2.051450e-001
3.396030e+003, 1.932719e-001
3.397958e+003, 1.830001e-001
3.399887e+003, 1.745583e-001
3.401815e+003, 1.678227e-001
3.403744e+003, 1.621045e-001
3.405672e+003, 1.571393e-001
3.407601e+003, 1.533421e-001
3.409529e+003, 1.496771e-001
3.411458e+003, 1.456973e-001
3.413386e+003, 1.413274e-001
3.415314e+003, 1.368659e-001
3.417243e+003, 1.323701e-001
3.419171e+003, 1.276428e-001
3.421100e+003, 1.226244e-001
3.423028e+003, 1.179823e-001
3.424957e+003, 1.139701e-001
3.426885e+003, 1.095136e-001
3.428814e+003, 1.053603e-001
3.430742e+003, 1.018163e-001
3.432671e+003, 9.802297e-002
3.434599e+003, 9.477122e-002
3.436528e+003, 9.159767e-002
3.438456e+003, 8.802618e-002
3.440385e+003, 8.397088e-002
3.442313e+003, 8.063757e-002
3.444241e+003, 7.874479e-002
3.446170e+003, 7.679363e-002
3.448098e+003, 7.385846e-002
3.450027e+003, 7.044995e-002
3.451955e+003, 6.744882e-002
3.453884e+003, 6.530213e-002
3.455812e+003, 6.346061e-002
3.457741e+003, 6.120054e-002
3.459669e+003, 5.882162e-002
3.461598e+003, 5.670574e-002
3.463526e+003, 5.413083e-002
3.465455e+003, 5.132070e-002
3.467383e+003, 4.907706e-002
3.469312e+003, 4.747535e-002
3.471240e+003, 4.570976e-002
3.473168e+003, 4.369800e-002
3.475097e+003, 4.178980e-002
3.477025e+003, 3.988420e-002
3.478954e+003, 3.857062e-002
3.480882e+003, 3.759321e-002
3.482811e+003, 3.638648e-002
3.484739e+003, 3.539686e-002
3.486668e+003, 3.434736e-002
3.488596e+003, 3.342927e-002
3.490525e+003, 3.209748e-002
3.492453e+003, 3.073906e-002
3.494382e+003, 3.064313e-002
3.496310e+003, 3.046848e-002
3.498239e+003, 2.968365e-002
3.500167e+003, 2.883134e-002
3.502095e+003, 2.817724e-002
3.504024e+003, 2.816820e-002
3.505952e+003, 2.747827e-002
3.507881e+003, 2.643144e-002
3.509809e+003, 2.594759e-002
3.511738e+003, 2.519916e-002
3.513666e+003, 2.485873e-002
3.515595e+003, 2.418574e-002
3.517523e+003, 2.356961e-002
3.519452e+003, 2.348853e-002
3.521380e+003, 2.308945e-002
3.523309e+003, 2.232688e-002
3.525237e+003, 2.160060e-002
3.527166e+003, 2.150875e-002
3.529094e+003, 2.103644e-002
3.531022e+003, 2.111226e-002
3.532951e+003, 2.091519e-002
3.534879e+003, 2.017825e-002
3.536808e+003, 1.990779e-002
3.538736e+003, 1.951121e-002
3.540665e+003, 1.925910e-002
3.542593e+003, 1.894897e-002
3.544522e+003, 1.821677e-002
3.546450e+003, 1.799332e-002
3.548379e+003, 1.779371e-002
3.550307e+003, 1.785612e-002
3.552236e+003, 1.784967e-002
3.554164e+003, 1.779055e-002
3.556093e+003, 1.710694e-002
3.558021e+003, 1.651334e-002
3.559949e+003, 1.645496e-002
3.561878e+003, 1.713333e-002
3.563806e+003, 1.776886e-002
3.565735e+003, 1.809572e-002
3.567663e+003, 1.758958e-002
3.569592e+003, 1.659271e-002
3.571520e+003, 1.641705e-002
3.573449e+003, 1.683477e-002
3.575377e+003, 1.728070e-002
3.577306e+003, 1.736459e-002
3.579234e+003, 1.724689e-002
3.581163e+003, 1.667312e-002
3.583091e+003, 1.616994e-002
3.585020e+003, 1.647493e-002
3.586948e+003, 1.719659e-002
3.588876e+003, 1.687745e-002
3.590805e+003, 1.631285e-002
3.592733e+003, 1.639082e-002
3.594662e+003, 1.588940e-002
3.596590e+003, 1.535477e-002
3.598519e+003, 1.487899e-002
3.600447e+003, 1.500249e-002
3.602376e+003, 1.470620e-002
3.604304e+003, 1.478619e-002
3.606233e+003, 1.539132e-002
3.608161e+003, 1.571000e-002
3.610090e+003, 1.517776e-002
3.612018e+003, 1.436103e-002
3.613947e+003, 1.384677e-002
3.615875e+003, 1.392335e-002
3.617803e+003, 1.451781e-002
3.619732e+003, 1.452414e-002
3.621660e+003, 1.426137e-002
3.623589e+003, 1.396957e-002
3.625517e+003, 1.350543e-002
3.627446e+003, 1.403871e-002
3.629374e+003, 1.480313e-002
3.631303e+003, 1.444404e-002
3.633231e+003, 1.351294e-002
3.635160e+003, 1.321113e-002
3.637088e+003, 1.377934e-002
3.639017e+003, 1.388242e-002
3.640945e+003, 1.395686e-002
3.642874e+003, 1.399365e-002
3.644802e+003, 1.389545e-002
3.646730e+003, 1.347848e-002
3.648659e+003, 1.452625e-002
3.650587e+003, 1.457878e-002
3.652516e+003, 1.341055e-002
3.654444e+003, 1.343585e-002
3.656373e+003, 1.387482e-002
3.658301e+003, 1.368226e-002
3.660230e+003, 1.362053e-002
3.662158e+003, 1.327703e-002
3.664087e+003, 1.317402e-002
3.666015e+003, 1.336166e-002
3.667944e+003, 1.383155e-002
3.669872e+003, 1.418663e-002
3.671801e+003, 1.393968e-002
3.673729e+003, 1.424696e-002
3.675657e+003, 1.437808e-002
3.677586e+003, 1.359382e-002
3.679514e+003, 1.371117e-002
3.681443e+003, 1.304421e-002
3.683371e+003, 1.235385e-002
3.685300e+003, 1.237339e-002
3.687228e+003, 1.369374e-002
3.689157e+003, 1.412113e-002
3.691085e+003, 1.336491e-002
3.693014e+003, 1.342364e-002
3.694942e+003, 1.346167e-002
3.696871e+003, 1.336314e-002
3.698799e+003, 1.424161e-002
3.700728e+003, 1.456272e-002
3.702656e+003, 1.408463e-002
3.704584e+003, 1.387720e-002
3.706513e+003, 1.400944e-002
3.708441e+003, 1.416689e-002
3.710370e+003, 1.411242e-002
3.712298e+003, 1.409783e-002
3.714227e+003, 1.401967e-002
3.716155e+003, 1.426770e-002
3.718084e+003, 1.436377e-002
3.720012e+003, 1.447599e-002
3.721941e+003, 1.461816e-002
3.723869e+003, 1.448127e-002
3.725798e+003, 1.513899e-002
3.727726e+003, 1.512905e-002
3.729655e+003, 1.484680e-002
3.731583e+003, 1.487275e-002
3.733511e+003, 1.475825e-002
3.735440e+003, 1.546063e-002
3.737368e+003, 1.581080e-002
3.739297e+003, 1.544714e-002
3.741225e+003, 1.546710e-002
3.743154e+003, 1.628119e-002
3.745082e+003, 1.626161e-002
3.747011e+003, 1.552300e-002
3.748939e+003, 1.587600e-002
3.750868e+003, 1.554747e-002
3.752796e+003, 1.540306e-002
3.754725e+003, 1.551985e-002
3.756653e+003, 1.549172e-002
3.758582e+003, 1.508998e-002
3.760510e+003, 1.493661e-002
3.762438e+003, 1.542100e-002
3.764367e+003, 1.585452e-002
3.766295e+003, 1.572741e-002
3.768224e+003, 1.589039e-002
3.770152e+003, 1.633195e-002
3.772081e+003, 1.675049e-002
3.774009e+003, 1.668209e-002
3.775938e+003, 1.641371e-002
3.777866e+003, 1.636975e-002
3.779795e+003, 1.623375e-002
3.781723e+003, 1.570227e-002
3.783652e+003, 1.590012e-002
3.785580e+003, 1.559938e-002
3.787509e+003, 1.495802e-002
3.789437e+003, 1.505167e-002
3.791365e+003, 1.560747e-002
3.793294e+003, 1.527563e-002
3.795222e+003, 1.517806e-002
3.797151e+003, 1.563543e-002
3.799079e+003, 1.664161e-002
3.801008e+003, 1.811483e-002
3.802936e+003, 1.805549e-002
3.804865e+003, 1.793937e-002
3.806793e+003, 1.804536e-002
3.808722e+003, 1.674476e-002
3.810650e+003, 1.637931e-002
3.812579e+003, 1.682986e-002
3.814507e+003, 1.739999e-002
3.816436e+003, 1.777789e-002
3.818364e+003, 1.768358e-002
3.820292e+003, 1.794865e-002
3.822221e+003, 1.739836e-002
3.824149e+003, 1.721418e-002
3.826078e+003, 1.752546e-002
3.828006e+003, 1.709750e-002
3.829935e+003, 1.729936e-002
3.831863e+003, 1.791514e-002
3.833792e+003, 1.794971e-002
3.835720e+003, 1.779419e-002
3.837649e+003, 1.792036e-002
3.839577e+003, 1.737754e-002
3.841506e+003, 1.701563e-002
3.843434e+003, 1.694881e-002
3.845363e+003, 1.674508e-002
3.847291e+003, 1.654428e-002
3.849219e+003, 1.701547e-002
3.851148e+003, 1.846971e-002
3.853076e+003, 1.939690e-002
3.855005e+003, 1.881476e-002
3.856933e+003, 1.756149e-002
3.858862e+003, 1.717068e-002
3.860790e+003, 1.734111e-002
3.862719e+003, 1.719476e-002
3.864647e+003, 1.735355e-002
3.866576e+003, 1.789371e-002
3.868504e+003, 1.866277e-002
3.870433e+003, 1.786856e-002
3.872361e+003, 1.645124e-002
3.874290e+003, 1.612582e-002
3.876218e+003, 1.650128e-002
3.878146e+003, 1.720220e-002
3.880075e+003, 1.687949e-002
3.882003e+003, 1.675746e-002
3.883932e+003, 1.745847e-002
3.885860e+003, 1.786635e-002
3.887789e+003, 1.777241e-002
3.889717e+003, 1.742027e-002
3.891646e+003, 1.733212e-002
3.893574e+003, 1.738898e-002
3.895503e+003, 1.709809e-002
3.897431e+003, 1.683267e-002
3.899360e+003, 1.758500e-002
3.901288e+003, 1.785656e-002
3.903217e+003, 1.763123e-002
3.905145e+003, 1.768142e-002
3.907073e+003, 1.729348e-002
3.909002e+003, 1.706954e-002
3.910930e+003, 1.691910e-002
3.912859e+003, 1.710361e-002
3.914787e+003, 1.791756e-002
3.916716e+003, 1.868821e-002
3.918644e+003, 1.808911e-002
3.920573e+003, 1.713254e-002
3.922501e+003, 1.753884e-002
3.924430e+003, 1.776982e-002
3.926358e+003, 1.749873e-002
3.928287e+003, 1.716524e-002
3.930215e+003, 1.756115e-002
3.932144e+003, 1.719600e-002
3.934072e+003, 1.697355e-002
3.936000e+003, 1.751967e-002
3.937929e+003, 1.740743e-002
3.939857e+003, 1.734003e-002
3.941786e+003, 1.792169e-002
3.943714e+003, 1.772770e-002
3.945643e+003, 1.736116e-002
3.947571e+003, 1.744780e-002
3.949500e+003, 1.793845e-002
3.951428e+003, 1.809654e-002
3.953357e+003, 1.780824e-002
3.955285e+003, 1.709809e-002
3.957214e+003, 1.690227e-002
3.959142e+003, 1.784548e-002
3.961071e+003, 1.895625e-002
3.962999e+003, 1.863802e-002
3.964927e+003, 1.810898e-002
3.966856e+003, 1.782842e-002
3.968784e+003, 1.783517e-002
3.970713e+003, 1.769473e-002
3.972641e+003, 1.764488e-002
3.974570e+003, 1.740394e-002
3.976498e+003, 1.723609e-002
3.978427e+003, 1.729259e-002
3.980355e+003, 1.776307e-002
3.982284e+003, 1.755926e-002
3.984212e+003, 1.720367e-002
3.986141e+003, 1.727811e-002
3.988069e+003, 1.776069e-002
3.989998e+003, 1.825493e-002
3.991926e+003, 1.786393e-002
3.993854e+003, 1.776539e-002
3.995783e+003, 1.787331e-002
3.997711e+003, 1.802145e-002
3.999640e+003, 1.847795e-002
4.001568e+003, 0.000000e+000
##END=



