##NAMES=Natrolite
##RRUFFID=R050589
##IDEAL CHEMISTRY=Na_2_(Si_3_Al_2_)O_10_&#183;2H_2_O
##LOCALITY=Mont Saint-Hilaire, Rouville County, Quebec, Canada
##OWNER=RRUFF
##SOURCE=Bob Downs
##DESCRIPTION=White to colorless prismatic crystals associated with aegirine
##STATUS=The identification of this mineral has been confirmed by X-ray diffraction and chemical analysis
##URL=rruff.info/R050589
##MEASURED CHEMISTRY=Na_2.00_(Si_3.00_Al_2.00_)O_10_Â·2H_2_O
3.991926e+002, 1.535569e-001
4.011211e+002, 1.868757e-001
4.030496e+002, 1.877741e-001
4.049780e+002, 2.004132e-001
4.069065e+002, 2.017322e-001
4.088350e+002, 2.098881e-001
4.107634e+002, 2.167559e-001
4.126919e+002, 2.182068e-001
4.146204e+002, 2.147652e-001
4.165488e+002, 2.077931e-001
4.184773e+002, 2.017487e-001
4.204058e+002, 1.878738e-001
4.223342e+002, 1.698910e-001
4.242627e+002, 1.494686e-001
4.261912e+002, 1.309969e-001
4.281196e+002, 1.168553e-001
4.300481e+002, 1.051343e-001
4.319766e+002, 9.574609e-002
4.339050e+002, 8.897370e-002
4.358335e+002, 8.777741e-002
4.377620e+002, 9.265168e-002
4.396904e+002, 9.737478e-002
4.416189e+002, 9.937845e-002
4.435474e+002, 9.227809e-002
4.454758e+002, 7.987183e-002
4.474043e+002, 6.845121e-002
4.493328e+002, 5.981949e-002
4.512612e+002, 5.321066e-002
4.531897e+002, 4.903081e-002
4.551182e+002, 4.779263e-002
4.570466e+002, 4.904059e-002
4.589751e+002, 4.981837e-002
4.609036e+002, 5.149816e-002
4.628320e+002, 5.501694e-002
4.647605e+002, 5.928701e-002
4.666890e+002, 6.367048e-002
4.686174e+002, 6.892905e-002
4.705459e+002, 7.704497e-002
4.724744e+002, 8.539501e-002
4.744028e+002, 9.265660e-002
4.763313e+002, 1.025837e-001
4.782598e+002, 1.134787e-001
4.801882e+002, 1.231205e-001
4.821167e+002, 1.313206e-001
4.840452e+002, 1.368860e-001
4.859736e+002, 1.386800e-001
4.879021e+002, 1.378759e-001
4.898306e+002, 1.347023e-001
4.917590e+002, 1.301406e-001
4.936875e+002, 1.271904e-001
4.956160e+002, 1.256889e-001
4.975444e+002, 1.244315e-001
4.994729e+002, 1.240333e-001
5.014014e+002, 1.242565e-001
5.033298e+002, 1.249855e-001
5.052583e+002, 1.257471e-001
5.071868e+002, 1.250967e-001
5.091152e+002, 1.220561e-001
5.110437e+002, 1.185487e-001
5.129722e+002, 1.137655e-001
5.149006e+002, 1.073579e-001
5.168291e+002, 1.001823e-001
5.187576e+002, 9.314109e-002
5.206860e+002, 8.688403e-002
5.226145e+002, 8.177076e-002
5.245430e+002, 7.828983e-002
5.264714e+002, 7.661298e-002
5.283999e+002, 7.682667e-002
5.303284e+002, 7.746777e-002
5.322568e+002, 7.866292e-002
5.341853e+002, 8.025512e-002
5.361138e+002, 8.263081e-002
5.380422e+002, 8.513983e-002
5.399707e+002, 8.732796e-002
5.418992e+002, 8.721232e-002
5.438276e+002, 8.644615e-002
5.457561e+002, 8.665429e-002
5.476846e+002, 8.601543e-002
5.496130e+002, 8.435135e-002
5.515415e+002, 8.321320e-002
5.534700e+002, 8.250982e-002
5.553984e+002, 8.152456e-002
5.573269e+002, 8.125000e-002
5.592554e+002, 8.130831e-002
5.611838e+002, 8.175264e-002
5.631123e+002, 8.307426e-002
5.650408e+002, 8.641721e-002
5.669692e+002, 9.178770e-002
5.688977e+002, 9.789150e-002
5.708262e+002, 1.048037e-001
5.727546e+002, 1.125380e-001
5.746831e+002, 1.185639e-001
5.766116e+002, 1.210527e-001
5.785400e+002, 1.201455e-001
5.804685e+002, 1.166155e-001
5.823970e+002, 1.124317e-001
5.843254e+002, 1.089118e-001
5.862539e+002, 1.070041e-001
5.881824e+002, 1.081058e-001
5.901108e+002, 1.119795e-001
5.920393e+002, 1.184032e-001
5.939678e+002, 1.266913e-001
5.958962e+002, 1.344423e-001
5.978247e+002, 1.394047e-001
5.997532e+002, 1.412876e-001
6.016816e+002, 1.408698e-001
6.036101e+002, 1.393822e-001
6.055386e+002, 1.380886e-001
6.074670e+002, 1.375736e-001
6.093955e+002, 1.385925e-001
6.113240e+002, 1.414593e-001
6.132524e+002, 1.462382e-001
6.151809e+002, 1.510739e-001
6.171094e+002, 1.542292e-001
6.190378e+002, 1.560824e-001
6.209663e+002, 1.559470e-001
6.228948e+002, 1.530704e-001
6.248232e+002, 1.474499e-001
6.267517e+002, 1.398571e-001
6.286802e+002, 1.307104e-001
6.306086e+002, 1.210359e-001
6.325371e+002, 1.113840e-001
6.344656e+002, 1.028197e-001
6.363940e+002, 9.517149e-002
6.383225e+002, 8.787190e-002
6.402510e+002, 8.223297e-002
6.421794e+002, 7.879778e-002
6.441079e+002, 7.625627e-002
6.460364e+002, 7.460593e-002
6.479648e+002, 7.419397e-002
6.498933e+002, 7.438538e-002
6.518218e+002, 7.451299e-002
6.537502e+002, 7.451127e-002
6.556787e+002, 7.438103e-002
6.576072e+002, 7.377542e-002
6.595356e+002, 7.276007e-002
6.614641e+002, 7.176653e-002
6.633926e+002, 7.045772e-002
6.653210e+002, 6.982295e-002
6.672495e+002, 7.051675e-002
6.691780e+002, 7.176263e-002
6.711064e+002, 7.419987e-002
6.730349e+002, 7.809791e-002
6.749634e+002, 8.158415e-002
6.768918e+002, 8.331819e-002
6.788203e+002, 8.313394e-002
6.807488e+002, 8.124162e-002
6.826772e+002, 7.762586e-002
6.846057e+002, 7.319808e-002
6.865342e+002, 6.863872e-002
6.884626e+002, 6.460401e-002
6.903911e+002, 6.215266e-002
6.923196e+002, 6.056857e-002
6.942480e+002, 5.955674e-002
6.961765e+002, 5.867588e-002
6.981050e+002, 5.758529e-002
7.000334e+002, 5.609347e-002
7.019619e+002, 5.404426e-002
7.038904e+002, 5.147272e-002
7.058188e+002, 4.849862e-002
7.077473e+002, 4.613864e-002
7.096758e+002, 4.490547e-002
7.116042e+002, 4.437298e-002
7.135327e+002, 4.438790e-002
7.154612e+002, 4.484563e-002
7.173896e+002, 4.577831e-002
7.193181e+002, 4.646359e-002
7.212466e+002, 4.624651e-002
7.231750e+002, 4.451204e-002
7.251035e+002, 4.091718e-002
7.270320e+002, 3.684941e-002
7.289604e+002, 3.338378e-002
7.308889e+002, 3.054546e-002
7.328174e+002, 2.837510e-002
7.347458e+002, 2.670014e-002
7.366743e+002, 2.536791e-002
7.386028e+002, 2.441278e-002
7.405313e+002, 2.364844e-002
7.424597e+002, 2.295837e-002
7.443882e+002, 2.239960e-002
7.463167e+002, 2.203884e-002
7.482451e+002, 2.191307e-002
7.501736e+002, 2.115728e-002
7.521021e+002, 2.090247e-002
7.540305e+002, 2.104072e-002
7.559590e+002, 2.084542e-002
7.578875e+002, 2.060073e-002
7.598159e+002, 2.078842e-002
7.617444e+002, 2.073053e-002
7.636729e+002, 2.061544e-002
7.656013e+002, 2.024627e-002
7.675298e+002, 1.980621e-002
7.694583e+002, 1.961913e-002
7.713867e+002, 1.916802e-002
7.733152e+002, 1.893944e-002
7.752437e+002, 1.894075e-002
7.771721e+002, 1.886209e-002
7.791006e+002, 1.861035e-002
7.810291e+002, 1.816034e-002
7.829575e+002, 1.752586e-002
7.848860e+002, 1.735054e-002
7.868145e+002, 1.766095e-002
7.887429e+002, 1.790817e-002
7.906714e+002, 1.766585e-002
7.925999e+002, 1.746607e-002
7.945283e+002, 1.745675e-002
7.964568e+002, 1.733261e-002
7.983853e+002, 1.682595e-002
8.003137e+002, 1.659764e-002
8.022422e+002, 1.673629e-002
8.041707e+002, 1.681759e-002
8.060991e+002, 1.680874e-002
8.080276e+002, 1.694087e-002
8.099561e+002, 1.735446e-002
8.118845e+002, 1.728249e-002
8.138130e+002, 1.727489e-002
8.157415e+002, 1.767096e-002
8.176699e+002, 1.812101e-002
8.195984e+002, 1.846352e-002
8.215269e+002, 1.848535e-002
8.234553e+002, 1.867820e-002
8.253838e+002, 1.908365e-002
8.273123e+002, 1.948423e-002
8.292407e+002, 1.968208e-002
8.311692e+002, 1.997981e-002
8.330977e+002, 2.092136e-002
8.350261e+002, 2.173748e-002
8.369546e+002, 2.204544e-002
8.388831e+002, 2.258603e-002
8.408115e+002, 2.279414e-002
8.427400e+002, 2.321676e-002
8.446685e+002, 2.437158e-002
8.465969e+002, 2.538044e-002
8.485254e+002, 2.597902e-002
8.504539e+002, 2.664167e-002
8.523823e+002, 2.755949e-002
8.543108e+002, 2.852540e-002
8.562393e+002, 2.942902e-002
8.581677e+002, 3.043019e-002
8.600962e+002, 3.148930e-002
8.620247e+002, 3.250938e-002
8.639531e+002, 3.368218e-002
8.658816e+002, 3.504033e-002
8.678101e+002, 3.609709e-002
8.697385e+002, 3.699474e-002
8.716670e+002, 3.834656e-002
8.735955e+002, 3.983697e-002
8.755239e+002, 4.132809e-002
8.774524e+002, 4.271721e-002
8.793809e+002, 4.400266e-002
8.813093e+002, 4.542618e-002
8.832378e+002, 4.709180e-002
8.851663e+002, 4.930025e-002
8.870947e+002, 5.134678e-002
8.890232e+002, 5.337321e-002
8.909517e+002, 5.596838e-002
8.928801e+002, 5.870076e-002
8.948085e+002, 6.158939e-002
8.967370e+002, 6.520300e-002
8.986655e+002, 6.922180e-002
9.005939e+002, 7.317127e-002
9.025224e+002, 7.735771e-002
9.044509e+002, 8.233548e-002
9.063793e+002, 8.779358e-002
9.083078e+002, 9.362039e-002
9.102363e+002, 1.002109e-001
9.121647e+002, 1.074315e-001
9.140932e+002, 1.154502e-001
9.160217e+002, 1.247124e-001
9.179501e+002, 1.352312e-001
9.198786e+002, 1.466713e-001
9.218071e+002, 1.588914e-001
9.237355e+002, 1.719872e-001
9.256640e+002, 1.856030e-001
9.275925e+002, 2.001024e-001
9.295209e+002, 2.158113e-001
9.314494e+002, 2.324428e-001
9.333779e+002, 2.491857e-001
9.353063e+002, 2.659066e-001
9.372348e+002, 2.829641e-001
9.391633e+002, 2.997635e-001
9.410917e+002, 3.161095e-001
9.430202e+002, 3.324826e-001
9.449487e+002, 3.483403e-001
9.468771e+002, 3.632327e-001
9.488056e+002, 3.774137e-001
9.507341e+002, 3.903157e-001
9.526625e+002, 4.024796e-001
9.545910e+002, 4.151582e-001
9.565195e+002, 4.265823e-001
9.584479e+002, 4.347852e-001
9.603764e+002, 4.382413e-001
9.623049e+002, 4.346793e-001
9.642333e+002, 4.230627e-001
9.661618e+002, 4.059888e-001
9.680903e+002, 3.891519e-001
9.700187e+002, 3.773396e-001
9.719472e+002, 3.712643e-001
9.738757e+002, 3.690753e-001
9.758041e+002, 3.673536e-001
9.777326e+002, 3.630979e-001
9.796611e+002, 3.557378e-001
9.815895e+002, 3.465298e-001
9.835180e+002, 3.356893e-001
9.854465e+002, 3.234668e-001
9.873749e+002, 3.102393e-001
9.893034e+002, 2.959004e-001
9.912319e+002, 2.802957e-001
9.931603e+002, 2.658833e-001
9.950888e+002, 2.540749e-001
9.970173e+002, 2.439207e-001
9.989457e+002, 2.331853e-001
1.000874e+003, 2.193991e-001
1.002803e+003, 2.039386e-001
1.004731e+003, 1.895675e-001
1.006660e+003, 1.771464e-001
1.008588e+003, 1.659123e-001
1.010517e+003, 1.547704e-001
1.012445e+003, 1.435213e-001
1.014373e+003, 1.324351e-001
1.016302e+003, 1.217583e-001
1.018230e+003, 1.116686e-001
1.020159e+003, 1.027188e-001
1.022087e+003, 9.550539e-002
1.024016e+003, 9.033150e-002
1.025944e+003, 8.790731e-002
1.027873e+003, 8.866972e-002
1.029801e+003, 9.235216e-002
1.031730e+003, 9.941948e-002
1.033658e+003, 1.109783e-001
1.035587e+003, 1.274561e-001
1.037515e+003, 1.475556e-001
1.039444e+003, 1.661145e-001
1.041372e+003, 1.767769e-001
1.043301e+003, 1.791806e-001
1.045229e+003, 1.780995e-001
1.047157e+003, 1.770131e-001
1.049086e+003, 1.778729e-001
1.051014e+003, 1.806305e-001
1.052943e+003, 1.847103e-001
1.054871e+003, 1.895421e-001
1.056800e+003, 1.933610e-001
1.058728e+003, 1.945079e-001
1.060657e+003, 1.920183e-001
1.062585e+003, 1.854359e-001
1.064514e+003, 1.749306e-001
1.066442e+003, 1.630056e-001
1.068371e+003, 1.520230e-001
1.070299e+003, 1.433781e-001
1.072228e+003, 1.378730e-001
1.074156e+003, 1.353352e-001
1.076084e+003, 1.352422e-001
1.078013e+003, 1.367919e-001
1.079941e+003, 1.389661e-001
1.081870e+003, 1.410731e-001
1.083798e+003, 1.419367e-001
1.085727e+003, 1.406969e-001
1.087655e+003, 1.369683e-001
1.089584e+003, 1.312434e-001
1.091512e+003, 1.246866e-001
1.093441e+003, 1.181775e-001
1.095369e+003, 1.119640e-001
1.097298e+003, 1.062482e-001
1.099226e+003, 1.010632e-001
1.101155e+003, 9.615367e-002
1.103083e+003, 9.184267e-002
1.105011e+003, 8.787202e-002
1.106940e+003, 8.388174e-002
1.108868e+003, 7.941893e-002
1.110797e+003, 7.431482e-002
1.112725e+003, 6.846263e-002
1.114654e+003, 6.226724e-002
1.116582e+003, 5.620400e-002
1.118511e+003, 5.069248e-002
1.120439e+003, 4.604929e-002
1.122368e+003, 4.233093e-002
1.124296e+003, 3.913690e-002
1.126225e+003, 3.600887e-002
1.128153e+003, 3.345850e-002
1.130082e+003, 3.160122e-002
1.132010e+003, 2.998719e-002
1.133938e+003, 2.838817e-002
1.135867e+003, 2.679141e-002
1.137795e+003, 2.523218e-002
1.139724e+003, 2.406271e-002
1.141652e+003, 2.279648e-002
1.143581e+003, 2.162521e-002
1.145509e+003, 2.066379e-002
1.147438e+003, 1.971633e-002
1.149366e+003, 1.905062e-002
1.151295e+003, 1.821312e-002
1.153223e+003, 1.723748e-002
1.155152e+003, 1.643516e-002
1.157080e+003, 1.563575e-002
1.159009e+003, 1.500658e-002
1.160937e+003, 1.436034e-002
1.162865e+003, 1.365037e-002
1.164794e+003, 1.309672e-002
1.166722e+003, 1.260772e-002
1.168651e+003, 1.230310e-002
1.170579e+003, 1.179846e-002
1.172508e+003, 1.116007e-002
1.174436e+003, 1.085121e-002
1.176365e+003, 1.054073e-002
1.178293e+003, 1.018988e-002
1.180222e+003, 9.740072e-003
1.182150e+003, 9.568912e-003
1.184079e+003, 9.226662e-003
1.186007e+003, 8.728955e-003
1.187936e+003, 8.410414e-003
1.189864e+003, 8.272253e-003
1.191792e+003, 7.947587e-003
1.193721e+003, 7.694946e-003
1.195649e+003, 7.598985e-003
1.197578e+003, 7.367853e-003
1.199506e+003, 6.881181e-003
1.201435e+003, 6.582583e-003
1.203363e+003, 6.446232e-003
1.205292e+003, 6.397172e-003
1.207220e+003, 6.343313e-003
1.209149e+003, 6.168603e-003
1.211077e+003, 5.802966e-003
1.213006e+003, 5.589477e-003
1.214934e+003, 5.309904e-003
1.216863e+003, 5.043251e-003
1.218791e+003, 5.119334e-003
1.220719e+003, 5.081899e-003
1.222648e+003, 4.859129e-003
1.224576e+003, 4.719851e-003
1.226505e+003, 4.693254e-003
1.228433e+003, 4.595481e-003
1.230362e+003, 4.294593e-003
1.232290e+003, 4.178886e-003
1.234219e+003, 4.252282e-003
1.236147e+003, 4.028153e-003
1.238076e+003, 3.998769e-003
1.240004e+003, 4.016670e-003
1.241933e+003, 3.791836e-003
1.243861e+003, 3.866087e-003
1.245790e+003, 3.717114e-003
1.247718e+003, 3.625636e-003
1.249646e+003, 3.831025e-003
1.251575e+003, 3.729741e-003
1.253503e+003, 3.491149e-003
1.255432e+003, 3.463279e-003
1.257360e+003, 3.430280e-003
1.259289e+003, 3.346869e-003
1.261217e+003, 3.308017e-003
1.263146e+003, 3.423784e-003
1.265074e+003, 3.591552e-003
1.267003e+003, 3.647273e-003
1.268931e+003, 3.637418e-003
1.270860e+003, 3.665666e-003
1.272788e+003, 3.696617e-003
1.274717e+003, 3.791984e-003
1.276645e+003, 3.684568e-003
1.278573e+003, 3.438149e-003
1.280502e+003, 3.518818e-003
1.282430e+003, 3.744513e-003
1.284359e+003, 3.651571e-003
1.286287e+003, 3.671940e-003
1.288216e+003, 3.784998e-003
1.290144e+003, 3.642805e-003
1.292073e+003, 3.327402e-003
1.294001e+003, 3.245768e-003
1.295930e+003, 3.505473e-003
1.297858e+003, 3.716572e-003
1.299787e+003, 3.546069e-003
1.301715e+003, 3.472386e-003
1.303644e+003, 3.146801e-003
1.305572e+003, 2.901212e-003
1.307500e+003, 3.039502e-003
1.309429e+003, 3.222417e-003
1.311357e+003, 3.384670e-003
1.313286e+003, 3.290902e-003
1.315214e+003, 3.060982e-003
1.317143e+003, 3.149238e-003
1.319071e+003, 3.191381e-003
1.321000e+003, 3.381950e-003
1.322928e+003, 3.444608e-003
1.324857e+003, 3.421410e-003
1.326785e+003, 3.403174e-003
1.328714e+003, 3.355467e-003
1.330642e+003, 3.143921e-003
1.332571e+003, 2.881418e-003
1.334499e+003, 2.886788e-003
1.336427e+003, 2.962434e-003
1.338356e+003, 2.900123e-003
1.340284e+003, 2.765515e-003
1.342213e+003, 2.656319e-003
1.344141e+003, 2.652351e-003
1.346070e+003, 2.775391e-003
1.347998e+003, 3.042317e-003
1.349927e+003, 2.787433e-003
1.351855e+003, 2.650024e-003
1.353784e+003, 2.785527e-003
1.355712e+003, 2.865775e-003
1.357641e+003, 2.838437e-003
1.359569e+003, 2.680576e-003
1.361498e+003, 2.519583e-003
1.363426e+003, 2.635813e-003
1.365354e+003, 2.877702e-003
1.367283e+003, 2.802014e-003
1.369211e+003, 2.817590e-003
1.371140e+003, 2.891312e-003
1.373068e+003, 2.916454e-003
1.374997e+003, 2.773606e-003
1.376925e+003, 2.650087e-003
1.378854e+003, 2.794147e-003
1.380782e+003, 2.787160e-003
1.382711e+003, 2.871516e-003
1.384639e+003, 2.997833e-003
1.386568e+003, 3.036685e-003
1.388496e+003, 3.052791e-003
1.390424e+003, 3.361419e-003
1.392353e+003, 3.277897e-003
1.394281e+003, 2.942338e-003
1.396210e+003, 2.896157e-003
1.398138e+003, 3.121858e-003
1.400067e+003, 3.236498e-003
1.401995e+003, 3.271920e-003
1.403924e+003, 3.014528e-003
1.405852e+003, 2.834209e-003
1.407781e+003, 2.757545e-003
1.409709e+003, 2.686817e-003
1.411638e+003, 2.629799e-003
1.413566e+003, 2.906981e-003
1.415495e+003, 3.029569e-003
1.417423e+003, 2.912224e-003
1.419351e+003, 2.849659e-003
1.421280e+003, 2.837729e-003
1.423208e+003, 2.743949e-003
1.425137e+003, 2.712570e-003
1.427065e+003, 2.899920e-003
1.428994e+003, 3.047803e-003
1.430922e+003, 2.920047e-003
1.432851e+003, 2.627551e-003
1.434779e+003, 2.532415e-003
1.436708e+003, 2.283306e-003
1.438636e+003, 2.387183e-003
1.440565e+003, 2.776357e-003
1.442493e+003, 2.840039e-003
1.444422e+003, 2.673618e-003
1.446350e+003, 2.288193e-003
1.448278e+003, 2.117690e-003
1.450207e+003, 2.098525e-003
1.452135e+003, 2.227086e-003
1.454064e+003, 2.171157e-003
1.455992e+003, 2.014501e-003
1.457921e+003, 1.989740e-003
1.459849e+003, 2.070451e-003
1.461778e+003, 1.875346e-003
1.463706e+003, 1.651772e-003
1.465635e+003, 1.821849e-003
1.467563e+003, 1.949343e-003
1.469492e+003, 1.919378e-003
1.471420e+003, 2.190371e-003
1.473349e+003, 2.264029e-003
1.475277e+003, 2.323703e-003
1.477205e+003, 2.449463e-003
1.479134e+003, 2.793392e-003
1.481062e+003, 2.744595e-003
1.482991e+003, 2.595801e-003
1.484919e+003, 2.816673e-003
1.486848e+003, 3.006257e-003
1.488776e+003, 3.041528e-003
1.490705e+003, 2.918041e-003
1.492633e+003, 2.775126e-003
1.494562e+003, 2.842423e-003
1.496490e+003, 2.740469e-003
1.498419e+003, 2.625946e-003
1.500347e+003, 2.726664e-003
1.502276e+003, 3.180891e-003
1.504204e+003, 3.452477e-003
1.506132e+003, 3.239559e-003
1.508061e+003, 2.855650e-003
1.509989e+003, 2.950262e-003
1.511918e+003, 3.101288e-003
1.513846e+003, 3.159070e-003
1.515775e+003, 3.313903e-003
1.517703e+003, 3.285774e-003
1.519632e+003, 2.888686e-003
1.521560e+003, 2.934736e-003
1.523489e+003, 3.125631e-003
1.525417e+003, 3.176716e-003
1.527346e+003, 3.193851e-003
1.529274e+003, 3.241265e-003
1.531203e+003, 3.398932e-003
1.533131e+003, 3.663460e-003
1.535059e+003, 3.718395e-003
1.536988e+003, 3.654601e-003
1.538916e+003, 3.368649e-003
1.540845e+003, 3.214641e-003
1.542773e+003, 3.410333e-003
1.544702e+003, 3.702483e-003
1.546630e+003, 3.914906e-003
1.548559e+003, 3.869727e-003
1.550487e+003, 3.711339e-003
1.552416e+003, 3.745592e-003
1.554344e+003, 4.002296e-003
1.556273e+003, 4.408821e-003
1.558201e+003, 4.352653e-003
1.560130e+003, 4.113817e-003
1.562058e+003, 3.901899e-003
1.563986e+003, 3.794927e-003
1.565915e+003, 3.808373e-003
1.567843e+003, 4.048030e-003
1.569772e+003, 4.343673e-003
1.571700e+003, 4.308969e-003
1.573629e+003, 4.219815e-003
1.575557e+003, 4.062064e-003
1.577486e+003, 4.296953e-003
1.579414e+003, 4.392632e-003
1.581343e+003, 4.188045e-003
1.583271e+003, 4.101953e-003
1.585200e+003, 4.281761e-003
1.587128e+003, 4.780854e-003
1.589057e+003, 4.736986e-003
1.590985e+003, 4.671507e-003
1.592913e+003, 5.061302e-003
1.594842e+003, 5.280974e-003
1.596770e+003, 5.231758e-003
1.598699e+003, 5.190523e-003
1.600627e+003, 5.471325e-003
1.602556e+003, 5.967089e-003
1.604484e+003, 6.289631e-003
1.606413e+003, 6.540592e-003
1.608341e+003, 6.940757e-003
1.610270e+003, 7.154098e-003
1.612198e+003, 7.441681e-003
1.614127e+003, 7.960822e-003
1.616055e+003, 8.529954e-003
1.617984e+003, 9.552812e-003
1.619912e+003, 1.078587e-002
1.621840e+003, 1.219584e-002
1.623769e+003, 1.361631e-002
1.625697e+003, 1.488986e-002
1.627626e+003, 1.592286e-002
1.629554e+003, 1.687850e-002
1.631483e+003, 1.726884e-002
1.633411e+003, 1.659200e-002
1.635340e+003, 1.552016e-002
1.637268e+003, 1.407382e-002
1.639197e+003, 1.264551e-002
1.641125e+003, 1.122728e-002
1.643054e+003, 1.015251e-002
1.644982e+003, 9.201989e-003
1.646911e+003, 8.463680e-003
1.648839e+003, 7.949975e-003
1.650767e+003, 7.272852e-003
1.652696e+003, 6.514761e-003
1.654624e+003, 6.081177e-003
1.656553e+003, 5.890122e-003
1.658481e+003, 5.527198e-003
1.660410e+003, 5.367656e-003
1.662338e+003, 5.329166e-003
1.664267e+003, 5.044200e-003
1.666195e+003, 4.877890e-003
1.668124e+003, 4.543177e-003
1.670052e+003, 4.438462e-003
1.671981e+003, 4.487233e-003
1.673909e+003, 4.339736e-003
1.675838e+003, 3.933668e-003
1.677766e+003, 3.794119e-003
1.679694e+003, 3.827292e-003
1.681623e+003, 3.801496e-003
1.683551e+003, 3.980435e-003
1.685480e+003, 3.989655e-003
1.687408e+003, 3.719149e-003
1.689337e+003, 3.660898e-003
1.691265e+003, 3.620137e-003
1.693194e+003, 3.610846e-003
1.695122e+003, 3.622747e-003
1.697051e+003, 3.557255e-003
1.698979e+003, 3.735939e-003
1.700908e+003, 3.277146e-003
1.702836e+003, 3.035396e-003
1.704765e+003, 2.680066e-003
1.706693e+003, 2.308384e-003
1.708621e+003, 2.394649e-003
1.710550e+003, 2.628129e-003
1.712478e+003, 2.400283e-003
1.714407e+003, 2.011290e-003
1.716335e+003, 2.125383e-003
1.718264e+003, 2.339455e-003
1.720192e+003, 2.135761e-003
1.722121e+003, 1.881205e-003
1.724049e+003, 1.758191e-003
1.725978e+003, 1.936160e-003
1.727906e+003, 2.009790e-003
1.729835e+003, 1.630701e-003
1.731763e+003, 9.820162e-004
1.733692e+003, 5.176928e-004
1.735620e+003, 5.562510e-004
1.737548e+003, 6.375913e-004
1.739477e+003, 1.830738e-004
1.741405e+003, -6.396779e-004
1.743334e+003, -9.598859e-004
1.745262e+003, -9.991224e-004
1.747191e+003, -6.373490e-004
1.749119e+003, -2.464443e-004
1.751048e+003, 2.702438e-004
1.752976e+003, 6.738307e-004
1.754905e+003, 1.068678e-003
1.756833e+003, 1.423013e-003
1.758762e+003, 1.381314e-003
1.760690e+003, 1.217215e-003
1.762619e+003, 1.611214e-003
1.764547e+003, 2.430975e-003
1.766475e+003, 2.323604e-003
1.768404e+003, 1.669937e-003
1.770332e+003, 1.228934e-003
1.772261e+003, 1.535530e-003
1.774189e+003, 1.968554e-003
1.776118e+003, 1.972876e-003
1.778046e+003, 1.819339e-003
1.779975e+003, 1.574716e-003
1.781903e+003, 1.871520e-003
1.783832e+003, 2.773937e-003
1.785760e+003, 2.620956e-003
1.787689e+003, 2.035911e-003
1.789617e+003, 2.469975e-003
1.791546e+003, 2.829185e-003
1.793474e+003, 2.146237e-003
1.795402e+003, 1.508194e-003
1.797331e+003, 1.378793e-003
1.799259e+003, 1.384931e-003
1.801188e+003, 1.203191e-003
1.803116e+003, 1.212019e-003
1.805045e+003, 1.391541e-003
1.806973e+003, 1.366218e-003
1.808902e+003, 1.073472e-003
1.810830e+003, 1.031538e-003
1.812759e+003, 1.192934e-003
1.814687e+003, 1.105385e-003
1.816616e+003, 8.683835e-004
1.818544e+003, 7.387188e-004
1.820473e+003, 8.876186e-004
1.822401e+003, 9.097775e-004
1.824329e+003, 7.549245e-004
1.826258e+003, 9.971872e-004
1.828186e+003, 1.171601e-003
1.830115e+003, 1.780599e-003
1.832043e+003, 1.911708e-003
1.833972e+003, 1.323326e-003
1.835900e+003, 7.530149e-004
1.837829e+003, 1.041186e-003
1.839757e+003, 5.711422e-004
1.841686e+003, -3.034073e-004
1.843614e+003, -1.711458e-004
1.845543e+003, 1.800467e-004
1.847471e+003, 8.404210e-004
1.849400e+003, 9.293292e-004
1.851328e+003, -9.010632e-005
1.853256e+003, -4.595531e-004
1.855185e+003, -5.886653e-004
1.857113e+003, -7.689887e-004
1.859042e+003, -6.889211e-004
1.860970e+003, -7.436651e-004
1.862899e+003, -2.606242e-004
1.864827e+003, -3.598425e-004
1.866756e+003, -4.530715e-004
1.868684e+003, -1.499493e-004
1.870613e+003, -4.615031e-004
1.872541e+003, -8.302326e-004
1.874470e+003, -3.675387e-004
1.876398e+003, 8.710854e-005
1.878327e+003, -9.582532e-004
1.880255e+003, -1.328348e-003
1.882183e+003, -2.053695e-003
1.884112e+003, -1.843550e-003
1.886040e+003, -1.288948e-003
1.887969e+003, -1.098811e-003
1.889897e+003, -1.223308e-003
1.891826e+003, -1.593569e-003
1.893754e+003, -1.605652e-003
1.895683e+003, -1.746884e-003
1.897611e+003, -2.072975e-003
1.899540e+003, -1.614577e-003
1.901468e+003, -2.079136e-003
1.903397e+003, -2.231834e-003
1.905325e+003, -2.442848e-003
1.907254e+003, -2.698954e-003
1.909182e+003, -2.322584e-003
1.911110e+003, -1.805332e-003
1.913039e+003, -2.198572e-003
1.914967e+003, -2.476530e-003
1.916896e+003, -2.173548e-003
1.918824e+003, -2.071985e-003
1.920753e+003, -3.267480e-003
1.922681e+003, -3.642029e-003
1.924610e+003, -3.337368e-003
1.926538e+003, -3.742884e-003
1.928467e+003, -4.681469e-003
1.930395e+003, -4.261097e-003
1.932324e+003, -3.859735e-003
1.934252e+003, -4.603225e-003
1.936181e+003, -5.483372e-003
1.938109e+003, -5.746929e-003
1.940037e+003, -6.510261e-003
1.941966e+003, -7.271612e-003
1.943894e+003, -6.627057e-003
1.945823e+003, -6.605164e-003
1.947751e+003, -6.494007e-003
1.949680e+003, -6.047209e-003
1.951608e+003, -5.272747e-003
1.953537e+003, -6.241288e-003
1.955465e+003, -7.572065e-003
1.957394e+003, -7.084234e-003
1.959322e+003, -6.328660e-003
1.961251e+003, -7.064166e-003
1.963179e+003, -7.451641e-003
1.965108e+003, -7.056232e-003
1.967036e+003, -8.368324e-003
1.968964e+003, -1.045444e-002
1.970893e+003, -1.090897e-002
1.972821e+003, -1.020192e-002
1.974750e+003, -9.229385e-003
1.976678e+003, -1.002089e-002
1.978607e+003, -8.464095e-003
1.980535e+003, -5.746671e-003
1.982464e+003, -4.620290e-003
1.984392e+003, -5.271469e-003
1.986321e+003, -6.067079e-003
1.988249e+003, -5.130450e-003
1.990178e+003, -6.141588e-003
1.992106e+003, -7.379519e-003
1.994035e+003, -6.605309e-003
1.995963e+003, -6.889274e-003
1.997891e+003, -5.170598e-003
1.999820e+003, -4.652040e-003
2.001748e+003, -5.210512e-003
2.003677e+003, -4.628457e-003
2.005605e+003, -5.605049e-003
2.007534e+003, -6.597742e-003
2.009462e+003, -6.694406e-003
2.011391e+003, -7.348130e-003
2.013319e+003, -5.569669e-003
2.015248e+003, -3.925201e-003
2.017176e+003, -4.957830e-003
2.019105e+003, -7.093455e-003
2.021033e+003, -7.867640e-003
2.022962e+003, -5.052693e-003
2.024890e+003, -2.905145e-003
2.026818e+003, -5.374695e-003
2.028747e+003, -6.893655e-003
2.030675e+003, -6.473976e-003
2.032604e+003, -6.602328e-003
2.034532e+003, -5.439840e-003
2.036461e+003, -3.982774e-003
2.038389e+003, -2.986846e-003
2.040318e+003, -2.463778e-003
2.042246e+003, -1.811107e-003
2.044175e+003, -5.705922e-004
2.046103e+003, 3.907245e-004
2.048032e+003, -6.921406e-005
2.049960e+003, 9.003052e-004
2.051889e+003, 1.160824e-003
2.053817e+003, -6.946008e-004
2.055746e+003, -1.688952e-003
2.057674e+003, -2.009022e-003
2.059603e+003, -1.481487e-003
2.061531e+003, -1.511720e-003
2.063459e+003, -4.332291e-004
2.065388e+003, -1.252951e-004
2.067316e+003, -6.466674e-004
2.069245e+003, -1.356375e-003
2.071173e+003, -1.080079e-003
2.073102e+003, -5.501780e-004
2.075030e+003, -1.608991e-003
2.076959e+003, -2.746608e-003
2.078887e+003, -2.385877e-003
2.080816e+003, -1.124634e-003
2.082744e+003, -8.461464e-004
2.084673e+003, -2.779603e-003
2.086601e+003, -3.265145e-003
2.088530e+003, -1.719340e-003
2.090458e+003, -1.257610e-003
2.092386e+003, -2.624615e-003
2.094315e+003, -3.317457e-003
2.096243e+003, -2.167186e-003
2.098172e+003, -7.425978e-004
2.100100e+003, -6.389822e-004
2.102029e+003, -8.369330e-004
2.103957e+003, -7.815622e-004
2.105886e+003, -4.232361e-004
2.107814e+003, -7.438472e-004
2.109743e+003, 2.510608e-004
2.111671e+003, 6.928068e-004
2.113600e+003, -6.279730e-004
2.115528e+003, -2.412268e-003
2.117457e+003, -1.415789e-003
2.119385e+003, 2.464483e-004
2.121313e+003, -2.225039e-004
2.123242e+003, -8.239413e-004
2.125170e+003, -1.826319e-003
2.127099e+003, -1.597513e-003
2.129027e+003, -1.715994e-003
2.130956e+003, -2.795701e-003
2.132884e+003, -4.183101e-003
2.134813e+003, -4.676359e-003
2.136741e+003, -3.747877e-003
2.138670e+003, -3.002063e-003
2.140598e+003, -4.090549e-003
2.142527e+003, -2.963887e-003
2.144455e+003, -2.112822e-003
2.146384e+003, -3.273158e-003
2.148312e+003, -3.512772e-003
2.150240e+003, -4.037826e-003
2.152169e+003, -6.840072e-003
2.154097e+003, -9.273680e-003
2.156026e+003, -1.144145e-002
2.157954e+003, -5.693444e-003
2.159883e+003, -2.620368e-004
2.161811e+003, -4.083428e-004
2.163740e+003, -1.553244e-003
2.165668e+003, -4.018926e-003
2.167597e+003, -3.570063e-003
2.169525e+003, -2.558868e-003
2.171454e+003, -4.711879e-003
2.173382e+003, -4.623554e-003
2.175311e+003, -3.731606e-003
2.177239e+003, -2.347860e-003
2.179167e+003, -4.478134e-003
2.181096e+003, -5.717794e-003
2.183024e+003, -3.346550e-003
2.184953e+003, -2.114005e-003
2.186881e+003, -2.711933e-003
2.188810e+003, -4.241813e-003
2.190738e+003, -3.831600e-003
2.192667e+003, -2.770904e-003
2.194595e+003, -2.969011e-003
2.196524e+003, -2.824688e-003
2.198452e+003, -3.072329e-003
2.200381e+003, -1.631880e-003
2.202309e+003, 1.177388e-003
2.204238e+003, -1.316213e-003
2.206166e+003, -3.644729e-003
2.208094e+003, -3.021553e-003
2.210023e+003, -1.942868e-003
2.211951e+003, -2.997460e-003
2.213880e+003, -5.019380e-003
2.215808e+003, -3.212060e-003
2.217737e+003, -1.616949e-003
2.219665e+003, -4.938117e-004
2.221594e+003, -1.548403e-003
2.223522e+003, -2.976123e-003
2.225451e+003, -1.763755e-003
2.227379e+003, 3.091325e-004
2.229308e+003, 9.933419e-004
2.231236e+003, 2.116104e-004
2.233165e+003, -1.106389e-003
2.235093e+003, -1.155426e-003
2.237021e+003, 7.319296e-004
2.238950e+003, 1.526673e-003
2.240878e+003, 6.348162e-004
2.242807e+003, 2.327026e-004
2.244735e+003, 5.804634e-004
2.246664e+003, 6.275164e-004
2.248592e+003, 2.056116e-003
2.250521e+003, 3.345284e-003
2.252449e+003, 3.042952e-003
2.254378e+003, 2.784464e-003
2.256306e+003, 4.883019e-003
2.258235e+003, 5.300796e-003
2.260163e+003, 3.439499e-003
2.262092e+003, 3.472746e-003
2.264020e+003, 3.044136e-003
2.265948e+003, 1.895117e-003
2.267877e+003, 1.339976e-003
2.269805e+003, 3.273058e-003
2.271734e+003, 5.258546e-003
2.273662e+003, 4.292145e-003
2.275591e+003, 2.875846e-003
2.277519e+003, 3.167512e-003
2.279448e+003, 4.156068e-003
2.281376e+003, 4.319386e-003
2.283305e+003, 4.695816e-003
2.285233e+003, 4.523068e-003
2.287162e+003, 4.996789e-003
2.289090e+003, 4.501216e-003
2.291019e+003, 4.292964e-003
2.292947e+003, 3.763286e-003
2.294875e+003, 2.883975e-003
2.296804e+003, 3.343372e-003
2.298732e+003, 4.063734e-003
2.300661e+003, 4.987055e-003
2.302589e+003, 5.087391e-003
2.304518e+003, 4.094433e-003
2.306446e+003, 2.678037e-003
2.308375e+003, 2.308549e-003
2.310303e+003, 2.618964e-003
2.312232e+003, 3.339924e-003
2.314160e+003, 3.997238e-003
2.316089e+003, 4.794391e-003
2.318017e+003, 4.692046e-003
2.319946e+003, 5.526804e-003
2.321874e+003, 6.281182e-003
2.323802e+003, 5.574161e-003
2.325731e+003, 4.320629e-003
2.327659e+003, 3.725504e-003
2.329588e+003, 3.254253e-003
2.331516e+003, 3.216725e-003
2.333445e+003, 4.331388e-003
2.335373e+003, 4.659466e-003
2.337302e+003, 4.621924e-003
2.339230e+003, 4.227708e-003
2.341159e+003, 3.590082e-003
2.343087e+003, 3.003505e-003
2.345016e+003, 2.621156e-003
2.346944e+003, 3.057196e-003
2.348873e+003, 3.840074e-003
2.350801e+003, 3.345777e-003
2.352729e+003, 2.721381e-003
2.354658e+003, 2.944315e-003
2.356586e+003, 3.670081e-003
2.358515e+003, 4.091897e-003
2.360443e+003, 3.882386e-003
2.362372e+003, 3.558358e-003
2.364300e+003, 3.128365e-003
2.366229e+003, 3.523100e-003
2.368157e+003, 3.187698e-003
2.370086e+003, 2.529904e-003
2.372014e+003, 1.666291e-003
2.373942e+003, 1.959982e-003
2.375871e+003, 3.000526e-003
2.377799e+003, 2.670201e-003
2.379728e+003, 1.898005e-003
2.381656e+003, 1.557907e-003
2.383585e+003, 2.335004e-003
2.385513e+003, 3.202656e-003
2.387442e+003, 2.482852e-003
2.389370e+003, 1.681417e-003
2.391299e+003, 1.711901e-003
2.393227e+003, 2.327044e-003
2.395156e+003, 2.129932e-003
2.397084e+003, 1.770858e-003
2.399012e+003, 1.951612e-003
2.400941e+003, 2.075610e-003
2.402869e+003, 1.703437e-003
2.404798e+003, 2.659539e-003
2.406726e+003, 3.447215e-003
2.408655e+003, 3.354455e-003
2.410583e+003, 2.325909e-003
2.412512e+003, 2.607806e-003
2.414440e+003, 3.784187e-003
2.416369e+003, 3.271307e-003
2.418297e+003, 2.410689e-003
2.420226e+003, 2.060704e-003
2.422154e+003, 2.543247e-003
2.424083e+003, 3.171132e-003
2.426011e+003, 2.646654e-003
2.427939e+003, 1.309210e-003
2.429868e+003, 9.998608e-004
2.431796e+003, 1.785363e-003
2.433725e+003, 2.072279e-003
2.435653e+003, 2.098503e-003
2.437582e+003, 1.744387e-003
2.439510e+003, 1.184672e-003
2.441439e+003, 1.735722e-003
2.443367e+003, 3.202369e-003
2.445296e+003, 3.137284e-003
2.447224e+003, 2.388894e-003
2.449153e+003, 2.352632e-003
2.451081e+003, 3.149106e-003
2.453010e+003, 2.970627e-003
2.454938e+003, 3.045561e-003
2.456866e+003, 3.319110e-003
2.458795e+003, 2.056648e-003
2.460723e+003, 1.425507e-003
2.462652e+003, 1.768784e-003
2.464580e+003, 2.510767e-003
2.466509e+003, 2.798088e-003
2.468437e+003, 2.132895e-003
2.470366e+003, 2.033768e-003
2.472294e+003, 2.740098e-003
2.474223e+003, 2.774947e-003
2.476151e+003, 2.068535e-003
2.478080e+003, 2.099433e-003
2.480008e+003, 2.484808e-003
2.481937e+003, 2.550128e-003
2.483865e+003, 2.318508e-003
2.485793e+003, 3.028004e-003
2.487722e+003, 3.360216e-003
2.489650e+003, 2.759665e-003
2.491579e+003, 2.027907e-003
2.493507e+003, 1.759913e-003
2.495436e+003, 1.315058e-003
2.497364e+003, 1.740091e-003
2.499293e+003, 2.034269e-003
2.501221e+003, 5.321915e-004
2.503150e+003, 1.030679e-003
2.505078e+003, 2.515667e-003
2.507007e+003, 3.344852e-003
2.508935e+003, 3.474597e-003
2.510864e+003, 2.788183e-003
2.512792e+003, 2.936578e-003
2.514720e+003, 2.898144e-003
2.516649e+003, 2.697468e-003
2.518577e+003, 2.085666e-003
2.520506e+003, 2.010955e-003
2.522434e+003, 1.832652e-003
2.524363e+003, 1.809338e-003
2.526291e+003, 2.201757e-003
2.528220e+003, 2.883717e-003
2.530148e+003, 2.593698e-003
2.532077e+003, 2.230758e-003
2.534005e+003, 2.930977e-003
2.535934e+003, 2.377131e-003
2.537862e+003, 1.397446e-003
2.539791e+003, 1.173135e-003
2.541719e+003, 2.182883e-003
2.543647e+003, 2.494845e-003
2.545576e+003, 2.290150e-003
2.547504e+003, 2.573502e-003
2.549433e+003, 3.273433e-003
2.551361e+003, 2.253762e-003
2.553290e+003, 3.815307e-004
2.555218e+003, 1.573593e-003
2.557147e+003, 2.564389e-003
2.559075e+003, 3.177813e-003
2.561004e+003, 3.977024e-003
2.562932e+003, 3.174002e-003
2.564861e+003, 3.185083e-003
2.566789e+003, 4.180287e-003
2.568718e+003, 2.587168e-003
2.570646e+003, 1.434346e-003
2.572574e+003, 1.356135e-003
2.574503e+003, 3.528005e-003
2.576431e+003, 5.254657e-003
2.578360e+003, 3.651565e-003
2.580288e+003, 3.051034e-003
2.582217e+003, 4.107342e-003
2.584145e+003, 4.394726e-003
2.586074e+003, 3.240299e-003
2.588002e+003, 3.213046e-003
2.589931e+003, 3.337481e-003
2.591859e+003, 2.639484e-003
2.593788e+003, 2.107307e-003
2.595716e+003, 3.164146e-003
2.597645e+003, 4.683593e-003
2.599573e+003, 4.170395e-003
2.601501e+003, 3.206898e-003
2.603430e+003, 3.713120e-003
2.605358e+003, 4.221266e-003
2.607287e+003, 3.673378e-003
2.609215e+003, 3.156673e-003
2.611144e+003, 2.439307e-003
2.613072e+003, 2.944215e-003
2.615001e+003, 2.816437e-003
2.616929e+003, 2.520140e-003
2.618858e+003, 3.349606e-003
2.620786e+003, 4.565494e-003
2.622715e+003, 4.834998e-003
2.624643e+003, 4.407462e-003
2.626572e+003, 3.807248e-003
2.628500e+003, 4.021882e-003
2.630428e+003, 4.277720e-003
2.632357e+003, 4.042225e-003
2.634285e+003, 4.067787e-003
2.636214e+003, 3.456786e-003
2.638142e+003, 3.197367e-003
2.640071e+003, 3.593462e-003
2.641999e+003, 3.734755e-003
2.643928e+003, 3.407942e-003
2.645856e+003, 3.434433e-003
2.647785e+003, 4.114517e-003
2.649713e+003, 4.639246e-003
2.651642e+003, 4.338057e-003
2.653570e+003, 3.620127e-003
2.655499e+003, 3.851915e-003
2.657427e+003, 4.146378e-003
2.659355e+003, 4.114192e-003
2.661284e+003, 3.457554e-003
2.663212e+003, 3.326599e-003
2.665141e+003, 3.531299e-003
2.667069e+003, 3.115102e-003
2.668998e+003, 2.928940e-003
2.670926e+003, 3.919757e-003
2.672855e+003, 4.693723e-003
2.674783e+003, 3.999229e-003
2.676712e+003, 2.658602e-003
2.678640e+003, 2.249607e-003
2.680569e+003, 3.191696e-003
2.682497e+003, 3.796105e-003
2.684426e+003, 3.474774e-003
2.686354e+003, 3.343096e-003
2.688282e+003, 3.408207e-003
2.690211e+003, 3.455531e-003
2.692139e+003, 3.455145e-003
2.694068e+003, 3.814629e-003
2.695996e+003, 3.456243e-003
2.697925e+003, 3.586125e-003
2.699853e+003, 3.842835e-003
2.701782e+003, 3.517711e-003
2.703710e+003, 2.847510e-003
2.705639e+003, 2.839972e-003
2.707567e+003, 3.331198e-003
2.709496e+003, 3.670767e-003
2.711424e+003, 3.497317e-003
2.713353e+003, 3.075923e-003
2.715281e+003, 3.096521e-003
2.717209e+003, 3.702203e-003
2.719138e+003, 4.029453e-003
2.721066e+003, 3.699395e-003
2.722995e+003, 3.631496e-003
2.724923e+003, 3.091774e-003
2.726852e+003, 2.818640e-003
2.728780e+003, 3.254364e-003
2.730709e+003, 3.957783e-003
2.732637e+003, 3.376439e-003
2.734566e+003, 3.592651e-003
2.736494e+003, 3.930833e-003
2.738423e+003, 3.924291e-003
2.740351e+003, 3.818208e-003
2.742280e+003, 3.788643e-003
2.744208e+003, 3.197222e-003
2.746136e+003, 2.769363e-003
2.748065e+003, 2.852973e-003
2.749993e+003, 2.917165e-003
2.751922e+003, 3.187544e-003
2.753850e+003, 4.024926e-003
2.755779e+003, 4.356704e-003
2.757707e+003, 4.250538e-003
2.759636e+003, 4.227753e-003
2.761564e+003, 3.938428e-003
2.763493e+003, 3.162384e-003
2.765421e+003, 2.984827e-003
2.767350e+003, 3.774227e-003
2.769278e+003, 3.904695e-003
2.771207e+003, 4.274774e-003
2.773135e+003, 4.437929e-003
2.775063e+003, 4.614142e-003
2.776992e+003, 4.614140e-003
2.778920e+003, 4.054246e-003
2.780849e+003, 4.858342e-003
2.782777e+003, 4.752403e-003
2.784706e+003, 4.251622e-003
2.786634e+003, 4.711665e-003
2.788563e+003, 4.059550e-003
2.790491e+003, 3.260140e-003
2.792420e+003, 3.497601e-003
2.794348e+003, 3.939072e-003
2.796277e+003, 3.747303e-003
2.798205e+003, 3.564212e-003
2.800134e+003, 3.809279e-003
2.802062e+003, 4.721421e-003
2.803990e+003, 5.314813e-003
2.805919e+003, 4.389680e-003
2.807847e+003, 3.498106e-003
2.809776e+003, 3.228632e-003
2.811704e+003, 3.589020e-003
2.813633e+003, 4.494976e-003
2.815561e+003, 3.469360e-003
2.817490e+003, 3.555677e-003
2.819418e+003, 3.843927e-003
2.821347e+003, 3.367057e-003
2.823275e+003, 3.930233e-003
2.825204e+003, 5.098903e-003
2.827132e+003, 5.423317e-003
2.829061e+003, 5.506074e-003
2.830989e+003, 4.975998e-003
2.832917e+003, 3.854087e-003
2.834846e+003, 3.570758e-003
2.836774e+003, 4.021952e-003
2.838703e+003, 3.703177e-003
2.840631e+003, 3.429493e-003
2.842560e+003, 4.229005e-003
2.844488e+003, 4.744086e-003
2.846417e+003, 4.266839e-003
2.848345e+003, 4.053206e-003
2.850274e+003, 4.677306e-003
2.852202e+003, 5.033303e-003
2.854131e+003, 4.901727e-003
2.856059e+003, 4.169201e-003
2.857988e+003, 4.424945e-003
2.859916e+003, 4.873217e-003
2.861844e+003, 5.001434e-003
2.863773e+003, 4.282221e-003
2.865701e+003, 4.020532e-003
2.867630e+003, 2.810367e-003
2.869558e+003, 2.453461e-003
2.871487e+003, 3.588995e-003
2.873415e+003, 4.380879e-003
2.875344e+003, 5.965603e-003
2.877272e+003, 6.682824e-003
2.879201e+003, 5.783206e-003
2.881129e+003, 5.599413e-003
2.883058e+003, 4.684096e-003
2.884986e+003, 3.883890e-003
2.886915e+003, 2.877804e-003
2.888843e+003, 3.436038e-003
2.890771e+003, 4.603025e-003
2.892700e+003, 3.988534e-003
2.894628e+003, 3.807046e-003
2.896557e+003, 5.263969e-003
2.898485e+003, 6.048712e-003
2.900414e+003, 6.028875e-003
2.902342e+003, 4.703142e-003
2.904271e+003, 4.266306e-003
2.906199e+003, 5.716880e-003
2.908128e+003, 7.993979e-003
2.910056e+003, 8.308601e-003
2.911985e+003, 6.232854e-003
2.913913e+003, 4.554125e-003
2.915842e+003, 4.283582e-003
2.917770e+003, 5.440793e-003
2.919698e+003, 6.150435e-003
2.921627e+003, 5.209842e-003
2.923555e+003, 4.793544e-003
2.925484e+003, 4.714988e-003
2.927412e+003, 4.869338e-003
2.929341e+003, 4.200598e-003
2.931269e+003, 3.597758e-003
2.933198e+003, 5.408896e-003
2.935126e+003, 6.148448e-003
2.937055e+003, 4.651692e-003
2.938983e+003, 4.510148e-003
2.940912e+003, 4.993234e-003
2.942840e+003, 4.740953e-003
2.944769e+003, 4.839825e-003
2.946697e+003, 5.415366e-003
2.948625e+003, 5.407794e-003
2.950554e+003, 4.936527e-003
2.952482e+003, 6.521938e-003
2.954411e+003, 6.398274e-003
2.956339e+003, 5.695622e-003
2.958268e+003, 6.731303e-003
2.960196e+003, 6.594840e-003
2.962125e+003, 6.785249e-003
2.964053e+003, 7.694989e-003
2.965982e+003, 8.538352e-003
2.967910e+003, 8.210086e-003
2.969839e+003, 8.057819e-003
2.971767e+003, 8.907992e-003
2.973696e+003, 9.026839e-003
2.975624e+003, 8.831593e-003
2.977552e+003, 8.365456e-003
2.979481e+003, 8.567230e-003
2.981409e+003, 8.457534e-003
2.983338e+003, 8.142119e-003
2.985266e+003, 8.996836e-003
2.987195e+003, 8.235564e-003
2.989123e+003, 7.777487e-003
2.991052e+003, 7.959713e-003
2.992980e+003, 7.861827e-003
2.994909e+003, 7.259090e-003
2.996837e+003, 7.748574e-003
2.998766e+003, 8.654255e-003
3.000694e+003, 9.684379e-003
3.002623e+003, 9.537964e-003
3.004551e+003, 1.015302e-002
3.006479e+003, 9.708673e-003
3.008408e+003, 8.693036e-003
3.010336e+003, 8.173803e-003
3.012265e+003, 8.108854e-003
3.014193e+003, 8.265329e-003
3.016122e+003, 8.837720e-003
3.018050e+003, 1.060679e-002
3.019979e+003, 1.077195e-002
3.021907e+003, 1.062974e-002
3.023836e+003, 1.141926e-002
3.025764e+003, 1.241241e-002
3.027693e+003, 1.143422e-002
3.029621e+003, 1.058567e-002
3.031550e+003, 9.648229e-003
3.033478e+003, 9.037090e-003
3.035406e+003, 1.008419e-002
3.037335e+003, 1.078880e-002
3.039263e+003, 9.852438e-003
3.041192e+003, 1.030526e-002
3.043120e+003, 9.587265e-003
3.045049e+003, 9.163057e-003
3.046977e+003, 9.183921e-003
3.048906e+003, 9.660683e-003
3.050834e+003, 1.099192e-002
3.052763e+003, 1.215006e-002
3.054691e+003, 1.154577e-002
3.056620e+003, 1.116214e-002
3.058548e+003, 1.160720e-002
3.060477e+003, 1.114092e-002
3.062405e+003, 1.084917e-002
3.064333e+003, 1.070534e-002
3.066262e+003, 1.096852e-002
3.068190e+003, 1.098484e-002
3.070119e+003, 1.141072e-002
3.072047e+003, 1.152855e-002
3.073976e+003, 1.093001e-002
3.075904e+003, 1.059147e-002
3.077833e+003, 1.160118e-002
3.079761e+003, 1.165118e-002
3.081690e+003, 1.255015e-002
3.083618e+003, 1.343490e-002
3.085547e+003, 1.353120e-002
3.087475e+003, 1.355375e-002
3.089404e+003, 1.346374e-002
3.091332e+003, 1.294278e-002
3.093260e+003, 1.251027e-002
3.095189e+003, 1.305791e-002
3.097117e+003, 1.455649e-002
3.099046e+003, 1.664714e-002
3.100974e+003, 1.716082e-002
3.102903e+003, 1.600980e-002
3.104831e+003, 1.363385e-002
3.106760e+003, 1.313134e-002
3.108688e+003, 1.330020e-002
3.110617e+003, 1.322224e-002
3.112545e+003, 1.193776e-002
3.114474e+003, 1.230177e-002
3.116402e+003, 1.295138e-002
3.118331e+003, 1.233843e-002
3.120259e+003, 1.225677e-002
3.122188e+003, 1.241193e-002
3.124116e+003, 1.360583e-002
3.126044e+003, 1.686987e-002
3.127973e+003, 1.586330e-002
3.129901e+003, 1.587648e-002
3.131830e+003, 1.858510e-002
3.133758e+003, 1.959284e-002
3.135687e+003, 1.808488e-002
3.137615e+003, 1.680997e-002
3.139544e+003, 1.949043e-002
3.141472e+003, 1.912814e-002
3.143401e+003, 1.675331e-002
3.145329e+003, 1.651180e-002
3.147258e+003, 1.945962e-002
3.149186e+003, 2.198878e-002
3.151115e+003, 2.282839e-002
3.153043e+003, 2.157126e-002
3.154971e+003, 1.968029e-002
3.156900e+003, 1.995657e-002
3.158828e+003, 2.113852e-002
3.160757e+003, 2.139935e-002
3.162685e+003, 2.122860e-002
3.164614e+003, 2.152889e-002
3.166542e+003, 2.359610e-002
3.168471e+003, 2.381330e-002
3.170399e+003, 2.297546e-002
3.172328e+003, 2.570507e-002
3.174256e+003, 2.696448e-002
3.176185e+003, 2.501201e-002
3.178113e+003, 2.371082e-002
3.180042e+003, 2.503444e-002
3.181970e+003, 2.559426e-002
3.183898e+003, 2.636032e-002
3.185827e+003, 2.501270e-002
3.187755e+003, 2.395910e-002
3.189684e+003, 2.538987e-002
3.191612e+003, 2.496649e-002
3.193541e+003, 2.448726e-002
3.195469e+003, 2.601955e-002
3.197398e+003, 2.731546e-002
3.199326e+003, 2.625101e-002
3.201255e+003, 2.486902e-002
3.203183e+003, 2.562002e-002
3.205112e+003, 2.642024e-002
3.207040e+003, 2.763443e-002
3.208969e+003, 2.825778e-002
3.210897e+003, 2.605954e-002
3.212825e+003, 2.347301e-002
3.214754e+003, 2.538396e-002
3.216682e+003, 2.736412e-002
3.218611e+003, 2.703462e-002
3.220539e+003, 2.753329e-002
3.222468e+003, 2.671665e-002
3.224396e+003, 2.510482e-002
3.226325e+003, 2.558659e-002
3.228253e+003, 2.633152e-002
3.230182e+003, 2.636262e-002
3.232110e+003, 2.541763e-002
3.234039e+003, 2.600413e-002
3.235967e+003, 2.708487e-002
3.237896e+003, 2.563902e-002
3.239824e+003, 2.458562e-002
3.241752e+003, 2.438549e-002
3.243681e+003, 2.327300e-002
3.245609e+003, 2.377323e-002
3.247538e+003, 2.495244e-002
3.249466e+003, 2.524279e-002
3.251395e+003, 2.383522e-002
3.253323e+003, 2.471944e-002
3.255252e+003, 2.655975e-002
3.257180e+003, 2.747588e-002
3.259109e+003, 2.656404e-002
3.261037e+003, 2.557261e-002
3.262966e+003, 2.604191e-002
3.264894e+003, 2.554414e-002
3.266823e+003, 2.518655e-002
3.268751e+003, 2.701239e-002
3.270679e+003, 2.945063e-002
3.272608e+003, 2.932164e-002
3.274536e+003, 3.084961e-002
3.276465e+003, 3.459435e-002
3.278393e+003, 3.435140e-002
3.280322e+003, 3.260244e-002
3.282250e+003, 3.288613e-002
3.284179e+003, 3.270658e-002
3.286107e+003, 3.340185e-002
3.288036e+003, 3.569069e-002
3.289964e+003, 3.807077e-002
3.291893e+003, 4.025770e-002
3.293821e+003, 4.158145e-002
3.295750e+003, 4.163750e-002
3.297678e+003, 4.352377e-002
3.299606e+003, 4.398331e-002
3.301535e+003, 4.679808e-002
3.303463e+003, 5.171894e-002
3.305392e+003, 5.421657e-002
3.307320e+003, 5.616193e-002
3.309249e+003, 5.859854e-002
3.311177e+003, 5.982145e-002
3.313106e+003, 5.977378e-002
3.315034e+003, 6.081836e-002
3.316963e+003, 6.348786e-002
3.318891e+003, 6.440455e-002
3.320820e+003, 6.402793e-002
3.322748e+003, 6.309059e-002
3.324677e+003, 6.325623e-002
3.326605e+003, 5.979536e-002
3.328533e+003, 5.701321e-002
3.330462e+003, 5.799840e-002
3.332390e+003, 5.626643e-002
3.334319e+003, 5.290852e-002
3.336247e+003, 5.017406e-002
3.338176e+003, 4.945382e-002
3.340104e+003, 4.931109e-002
3.342033e+003, 4.609027e-002
3.343961e+003, 4.519439e-002
3.345890e+003, 4.424558e-002
3.347818e+003, 4.120579e-002
3.349747e+003, 4.067642e-002
3.351675e+003, 3.960162e-002
3.353604e+003, 3.759541e-002
3.355532e+003, 3.552533e-002
3.357460e+003, 3.479964e-002
3.359389e+003, 3.427698e-002
3.361317e+003, 3.187991e-002
3.363246e+003, 3.184320e-002
3.365174e+003, 3.277330e-002
3.367103e+003, 3.156413e-002
3.369031e+003, 3.237243e-002
3.370960e+003, 3.231286e-002
3.372888e+003, 3.009133e-002
3.374817e+003, 3.122732e-002
3.376745e+003, 3.329373e-002
3.378674e+003, 3.421830e-002
3.380602e+003, 3.242704e-002
3.382531e+003, 2.995074e-002
3.384459e+003, 2.873501e-002
3.386387e+003, 2.793591e-002
3.388316e+003, 2.903694e-002
3.390244e+003, 2.925902e-002
3.392173e+003, 3.151606e-002
3.394101e+003, 3.161303e-002
3.396030e+003, 2.968755e-002
3.397958e+003, 2.705221e-002
3.399887e+003, 2.615603e-002
3.401815e+003, 2.716213e-002
3.403744e+003, 2.748255e-002
3.405672e+003, 2.872480e-002
3.407601e+003, 2.876201e-002
3.409529e+003, 2.704825e-002
3.411458e+003, 2.618810e-002
3.413386e+003, 2.529825e-002
3.415314e+003, 2.614606e-002
3.417243e+003, 2.747550e-002
3.419171e+003, 2.657253e-002
3.421100e+003, 2.445250e-002
3.423028e+003, 2.522366e-002
3.424957e+003, 2.750931e-002
3.426885e+003, 2.557202e-002
3.428814e+003, 2.335428e-002
3.430742e+003, 2.481336e-002
3.432671e+003, 2.645803e-002
3.434599e+003, 2.692555e-002
3.436528e+003, 2.666835e-002
3.438456e+003, 2.634479e-002
3.440385e+003, 2.550960e-002
3.442313e+003, 2.425666e-002
3.444241e+003, 2.276965e-002
3.446170e+003, 2.464679e-002
3.448098e+003, 2.632762e-002
3.450027e+003, 2.507733e-002
3.451955e+003, 2.632844e-002
3.453884e+003, 2.641117e-002
3.455812e+003, 2.469409e-002
3.457741e+003, 2.578968e-002
3.459669e+003, 2.709512e-002
3.461598e+003, 2.779509e-002
3.463526e+003, 2.777562e-002
3.465455e+003, 2.839801e-002
3.467383e+003, 3.000819e-002
3.469312e+003, 2.856059e-002
3.471240e+003, 2.444741e-002
3.473168e+003, 2.504240e-002
3.475097e+003, 2.570174e-002
3.477025e+003, 2.495893e-002
3.478954e+003, 2.555511e-002
3.480882e+003, 2.610896e-002
3.482811e+003, 2.508212e-002
3.484739e+003, 2.442420e-002
3.486668e+003, 2.456898e-002
3.488596e+003, 2.688614e-002
3.490525e+003, 2.789906e-002
3.492453e+003, 2.826070e-002
3.494382e+003, 2.982745e-002
3.496310e+003, 2.781964e-002
3.498239e+003, 2.781834e-002
3.500167e+003, 3.006159e-002
3.502095e+003, 2.969662e-002
3.504024e+003, 2.990336e-002
3.505952e+003, 3.402886e-002
3.507881e+003, 3.792642e-002
3.509809e+003, 3.860626e-002
3.511738e+003, 3.780757e-002
3.513666e+003, 4.150341e-002
3.515595e+003, 4.840656e-002
3.517523e+003, 4.958522e-002
3.519452e+003, 5.087356e-002
3.521380e+003, 5.626241e-002
3.523309e+003, 6.022619e-002
3.525237e+003, 6.489510e-002
3.527166e+003, 7.212950e-002
3.529094e+003, 7.775338e-002
3.531022e+003, 7.873137e-002
3.532951e+003, 7.970095e-002
3.534879e+003, 7.949341e-002
3.536808e+003, 8.125076e-002
3.538736e+003, 8.342481e-002
3.540665e+003, 8.165196e-002
3.542593e+003, 7.499046e-002
3.544522e+003, 6.879615e-002
3.546450e+003, 6.634165e-002
3.548379e+003, 6.516264e-002
3.550307e+003, 6.109104e-002
3.552236e+003, 5.633478e-002
3.554164e+003, 5.165805e-002
3.556093e+003, 4.675465e-002
3.558021e+003, 4.379290e-002
3.559949e+003, 3.931663e-002
3.561878e+003, 3.594087e-002
3.563806e+003, 3.355408e-002
3.565735e+003, 3.206907e-002
3.567663e+003, 3.185340e-002
3.569592e+003, 2.804320e-002
3.571520e+003, 2.512011e-002
3.573449e+003, 2.442590e-002
3.575377e+003, 2.208990e-002
3.577306e+003, 1.856378e-002
3.579234e+003, 1.734623e-002
3.581163e+003, 1.908872e-002
3.583091e+003, 2.117652e-002
3.585020e+003, 1.835295e-002
3.586948e+003, 1.622499e-002
3.588876e+003, 1.836740e-002
3.590805e+003, 1.774139e-002
3.592733e+003, 1.756635e-002
3.594662e+003, 1.671910e-002
3.596590e+003, 1.382809e-002
3.598519e+003, 1.354082e-002
3.600447e+003, 1.365313e-002
3.602376e+003, 1.226048e-002
3.604304e+003, 1.413526e-002
3.606233e+003, 1.724341e-002
3.608161e+003, 1.518592e-002
3.610090e+003, 1.082529e-002
3.612018e+003, 9.883549e-003
3.613947e+003, 1.028075e-002
3.615875e+003, 1.038633e-002
3.617803e+003, 1.028846e-002
3.619732e+003, 1.144475e-002
3.621660e+003, 1.120089e-002
3.623589e+003, 8.807050e-003
3.625517e+003, 5.852570e-003
3.627446e+003, 6.475048e-003
3.629374e+003, 7.885505e-003
3.631303e+003, 9.321229e-003
3.633231e+003, 9.768852e-003
3.635160e+003, 1.086154e-002
3.637088e+003, 8.478640e-003
3.639017e+003, 5.554284e-003
3.640945e+003, 5.158614e-003
3.642874e+003, 5.035652e-003
3.644802e+003, 5.063639e-003
3.646730e+003, 5.543141e-003
3.648659e+003, 5.705978e-003
3.650587e+003, 5.703046e-003
3.652516e+003, 4.723762e-003
3.654444e+003, 2.227253e-003
3.656373e+003, 2.715848e-003
3.658301e+003, 4.814890e-003
3.660230e+003, 4.253941e-003
3.662158e+003, 2.860785e-003
3.664087e+003, 2.957526e-003
3.666015e+003, 2.672514e-003
3.667944e+003, 2.049892e-003
3.669872e+003, 2.481551e-003
3.671801e+003, 1.179824e-003
3.673729e+003, 9.941984e-004
3.675657e+003, 4.180897e-003
3.677586e+003, 5.735930e-003
3.679514e+003, 5.730372e-003
3.681443e+003, 4.211938e-003
3.683371e+003, 3.292253e-003
3.685300e+003, 4.183540e-003
3.687228e+003, 6.063360e-004
3.689157e+003, -8.924457e-004
3.691085e+003, -9.383821e-004
3.693014e+003, -4.441215e-004
3.694942e+003, 1.093903e-003
3.696871e+003, 2.315271e-004
3.698799e+003, 2.130581e-003
3.700728e+003, 4.650220e-003
3.702656e+003, 2.823841e-003
3.704584e+003, 3.073102e-003
3.706513e+003, 2.129859e-003
3.708441e+003, -3.962252e-004
3.710370e+003, 2.556341e-003
3.712298e+003, 2.713647e-003
3.714227e+003, 2.484550e-003
3.716155e+003, 3.638810e-003
3.718084e+003, 4.638918e-003
3.720012e+003, 2.521998e-003
3.721941e+003, 2.163545e-003
3.723869e+003, 3.978315e-003
3.725798e+003, 2.241194e-003
3.727726e+003, 1.405589e-003
3.729655e+003, 2.191417e-003
3.731583e+003, 2.577644e-003
3.733511e+003, 3.503806e-003
3.735440e+003, 1.506983e-003
3.737368e+003, 5.959992e-004
3.739297e+003, 2.068307e-003
3.741225e+003, 6.196882e-003
3.743154e+003, 8.237545e-003
3.745082e+003, 5.986668e-003
3.747011e+003, 3.055058e-003
3.748939e+003, 5.221699e-004
3.750868e+003, -7.581887e-004
3.752796e+003, -7.445339e-004
3.754725e+003, -5.230568e-004
3.756653e+003, 3.227417e-003
3.758582e+003, 2.848403e-003
3.760510e+003, 2.301629e-003
3.762438e+003, 4.082257e-003
3.764367e+003, 3.629515e-003
3.766295e+003, 5.557334e-003
3.768224e+003, 5.677948e-003
3.770152e+003, 3.908172e-003
3.772081e+003, 2.685988e-003
3.774009e+003, 3.979107e-003
3.775938e+003, 4.222334e-003
3.777866e+003, 5.045457e-003
3.779795e+003, 9.675561e-003
3.781723e+003, 9.066145e-003
3.783652e+003, 4.959373e-003
3.785580e+003, 5.197058e-003
3.787509e+003, 5.687235e-003
3.789437e+003, 3.758387e-003
3.791365e+003, 1.914732e-003
3.793294e+003, 2.428179e-003
3.795222e+003, 1.873246e-003
3.797151e+003, 3.975382e-003
3.799079e+003, 6.961416e-003
3.801008e+003, 7.300396e-003
3.802936e+003, 4.196560e-003
3.804865e+003, 3.648093e-003
3.806793e+003, 6.192549e-003
3.808722e+003, 5.227689e-003
3.810650e+003, 1.397303e-003
3.812579e+003, -2.433148e-003
3.814507e+003, -1.606523e-003
3.816436e+003, 1.615984e-003
3.818364e+003, 2.055290e-003
3.820292e+003, 7.905646e-004
3.822221e+003, 2.644693e-003
3.824149e+003, 6.009161e-003
3.826078e+003, 5.873385e-003
3.828006e+003, 3.802870e-003
3.829935e+003, 2.750700e-003
3.831863e+003, 5.183544e-003
3.833792e+003, 5.820851e-003
3.835720e+003, 2.635576e-003
3.837649e+003, 3.253046e-003
3.839577e+003, 5.286759e-003
3.841506e+003, 5.878292e-003
3.843434e+003, 5.493420e-003
3.845363e+003, 3.883072e-003
3.847291e+003, 5.034989e-003
3.849219e+003, 5.528689e-003
3.851148e+003, 4.334837e-003
3.853076e+003, 2.260611e-003
3.855005e+003, 1.416635e-003
3.856933e+003, 1.352625e-003
3.858862e+003, -9.734965e-004
3.860790e+003, 4.264235e-004
3.862719e+003, 3.990657e-003
3.864647e+003, 5.009925e-003
3.866576e+003, 5.605420e-003
3.868504e+003, 4.553578e-003
3.870433e+003, 3.270171e-003
3.872361e+003, 3.373364e-003
3.874290e+003, 6.062698e-003
3.876218e+003, 6.220142e-003
3.878146e+003, 4.718263e-003
3.880075e+003, 3.807822e-003
3.882003e+003, 3.756311e-004
3.883932e+003, 1.931589e-003
3.885860e+003, 5.310446e-003
3.887789e+003, 4.654814e-003
3.889717e+003, 5.481473e-003
3.891646e+003, 6.174624e-003
3.893574e+003, 6.701649e-003
3.895503e+003, 6.301614e-003
3.897431e+003, 4.020564e-003
3.899360e+003, 2.713079e-003
3.901288e+003, 9.706737e-004
3.903217e+003, 1.743350e-003
3.905145e+003, 2.647251e-003
3.907073e+003, 2.152943e-003
3.909002e+003, 1.607988e-003
3.910930e+003, 1.180151e-003
3.912859e+003, 4.589407e-003
3.914787e+003, 7.288854e-003
3.916716e+003, 5.746080e-003
3.918644e+003, 3.680541e-003
3.920573e+003, 3.326332e-003
3.922501e+003, 3.077699e-003
3.924430e+003, 4.434922e-003
3.926358e+003, 4.699036e-003
3.928287e+003, 3.763038e-003
3.930215e+003, 5.629999e-003
3.932144e+003, 4.711838e-003
3.934072e+003, 2.387103e-003
3.936000e+003, 2.078392e-003
3.937929e+003, 1.992277e-003
3.939857e+003, 2.252442e-003
3.941786e+003, 5.057656e-003
3.943714e+003, 6.568352e-003
3.945643e+003, 6.045646e-003
3.947571e+003, 7.553646e-003
3.949500e+003, 6.819850e-003
3.951428e+003, 4.147138e-003
3.953357e+003, 4.625743e-003
3.955285e+003, 4.717228e-003
3.957214e+003, 4.836549e-003
3.959142e+003, 3.158623e-003
3.961071e+003, 3.466160e-003
3.962999e+003, 5.470268e-003
3.964927e+003, 6.224178e-003
3.966856e+003, 4.813931e-003
3.968784e+003, 6.551893e-003
3.970713e+003, 6.492082e-003
3.972641e+003, 3.069964e-003
3.974570e+003, 3.368582e-003
3.976498e+003, 6.256623e-003
3.978427e+003, 7.411711e-003
3.980355e+003, 8.262278e-003
3.982284e+003, 7.223579e-003
3.984212e+003, 6.464860e-003
3.986141e+003, 5.805789e-003
3.988069e+003, 2.252616e-003
3.989998e+003, 9.386562e-006
3.991926e+003, 1.384347e-003
3.993854e+003, 3.392882e-003
3.995783e+003, -2.568472e-005
3.997711e+003, -1.275919e-003
3.999640e+003, -1.276534e-003
4.001568e+003, 0.000000e+000
##END=



