##NAMES=Nitratine
##RRUFFID=R050658
##IDEAL CHEMISTRY=NaN^5+^O_3_
##LOCALITY=Peru
##OWNER=RRUFF
##SOURCE=University of Arizona Mineral Museum
##DESCRIPTION=Group of colorless crystals
##STATUS=The identification of this mineral has been confirmed by X-ray diffraction and chemical analysis
##URL=rruff.info/R050658
##MEASURED CHEMISTRY=Na_0.92_N_1.00_O_2.96_ ; N not measured but estimated by difference and stoichiometry
3.741225e+002, 8.301226e-003
3.760510e+002, 1.550677e-002
3.779795e+002, 1.243770e-002
3.799079e+002, 4.289466e-003
3.818364e+002, 1.386913e-003
3.837649e+002, 2.961946e-003
3.856933e+002, 2.918790e-003
3.876218e+002, -1.641659e-003
3.895503e+002, -2.008744e-003
3.914787e+002, -3.172284e-004
3.934072e+002, 2.780488e-003
3.953357e+002, 3.983221e-003
3.972641e+002, 4.617862e-003
3.991926e+002, 5.662736e-003
4.011211e+002, 6.636378e-003
4.030495e+002, 5.468073e-003
4.049780e+002, 2.798106e-003
4.069065e+002, 2.257723e-003
4.088349e+002, 1.491370e-003
4.107634e+002, 2.920270e-003
4.126919e+002, 4.177337e-003
4.146203e+002, 5.158937e-003
4.165488e+002, 5.327723e-003
4.184773e+002, 5.112719e-003
4.204057e+002, 6.117390e-003
4.223342e+002, 5.361857e-003
4.242627e+002, 4.714281e-003
4.261911e+002, 4.785447e-003
4.281196e+002, 4.710625e-003
4.300481e+002, 4.306530e-003
4.319765e+002, 4.781730e-003
4.339050e+002, 5.460471e-003
4.358335e+002, 5.457461e-003
4.377619e+002, 5.749207e-003
4.396904e+002, 6.025366e-003
4.416189e+002, 6.557778e-003
4.435473e+002, 6.421975e-003
4.454758e+002, 5.558352e-003
4.474043e+002, 4.996461e-003
4.493327e+002, 5.261832e-003
4.512612e+002, 6.573474e-003
4.531897e+002, 7.371272e-003
4.551181e+002, 6.992717e-003
4.570466e+002, 6.247001e-003
4.589751e+002, 6.163120e-003
4.609035e+002, 6.508366e-003
4.628320e+002, 6.726990e-003
4.647605e+002, 6.708093e-003
4.666889e+002, 6.698865e-003
4.686174e+002, 6.752619e-003
4.705459e+002, 7.322098e-003
4.724743e+002, 7.504099e-003
4.744028e+002, 7.563852e-003
4.763313e+002, 7.577746e-003
4.782597e+002, 7.530256e-003
4.801882e+002, 7.353405e-003
4.821167e+002, 6.878276e-003
4.840451e+002, 6.519852e-003
4.859736e+002, 6.501090e-003
4.879021e+002, 6.391859e-003
4.898305e+002, 6.774944e-003
4.917590e+002, 7.034888e-003
4.936875e+002, 6.995821e-003
4.956159e+002, 6.885108e-003
4.975444e+002, 7.305959e-003
4.994729e+002, 7.639268e-003
5.014013e+002, 7.649124e-003
5.033298e+002, 7.511638e-003
5.052583e+002, 7.171498e-003
5.071867e+002, 7.233844e-003
5.091152e+002, 7.030240e-003
5.110437e+002, 6.548686e-003
5.129721e+002, 6.838649e-003
5.149006e+002, 7.423925e-003
5.168290e+002, 7.371981e-003
5.187575e+002, 7.358643e-003
5.206860e+002, 7.677091e-003
5.226144e+002, 7.703682e-003
5.245429e+002, 7.574413e-003
5.264714e+002, 7.107426e-003
5.283998e+002, 7.193096e-003
5.303283e+002, 7.563522e-003
5.322568e+002, 7.511146e-003
5.341852e+002, 7.689327e-003
5.361137e+002, 8.251648e-003
5.380422e+002, 8.649587e-003
5.399706e+002, 8.422179e-003
5.418991e+002, 8.679563e-003
5.438276e+002, 8.818114e-003
5.457560e+002, 8.225547e-003
5.476845e+002, 7.937582e-003
5.496130e+002, 7.930792e-003
5.515414e+002, 7.835109e-003
5.534699e+002, 8.028467e-003
5.553984e+002, 7.942742e-003
5.573268e+002, 7.965588e-003
5.592553e+002, 8.354900e-003
5.611838e+002, 8.609377e-003
5.631122e+002, 8.609367e-003
5.650407e+002, 8.728640e-003
5.669692e+002, 8.604720e-003
5.688976e+002, 8.091512e-003
5.708261e+002, 8.149872e-003
5.727546e+002, 8.196196e-003
5.746830e+002, 8.164276e-003
5.766115e+002, 8.021317e-003
5.785400e+002, 8.213161e-003
5.804684e+002, 8.538190e-003
5.823969e+002, 8.569311e-003
5.843254e+002, 8.616427e-003
5.862538e+002, 8.910732e-003
5.881823e+002, 9.053110e-003
5.901108e+002, 9.136316e-003
5.920392e+002, 8.959426e-003
5.939677e+002, 8.635134e-003
5.958962e+002, 8.729176e-003
5.978246e+002, 8.828278e-003
5.997531e+002, 8.884814e-003
6.016816e+002, 9.053364e-003
6.036100e+002, 9.270239e-003
6.055385e+002, 9.407520e-003
6.074670e+002, 9.381469e-003
6.093954e+002, 9.510817e-003
6.113239e+002, 9.628302e-003
6.132524e+002, 9.496381e-003
6.151808e+002, 9.614807e-003
6.171093e+002, 9.710490e-003
6.190378e+002, 9.524553e-003
6.209662e+002, 9.578205e-003
6.228947e+002, 9.488337e-003
6.248232e+002, 9.480970e-003
6.267516e+002, 9.648866e-003
6.286801e+002, 9.592257e-003
6.306086e+002, 9.730303e-003
6.325370e+002, 9.950266e-003
6.344655e+002, 9.881534e-003
6.363940e+002, 9.951551e-003
6.383224e+002, 1.019157e-002
6.402509e+002, 1.029809e-002
6.421794e+002, 1.026127e-002
6.441078e+002, 1.022551e-002
6.460363e+002, 1.030914e-002
6.479648e+002, 1.045586e-002
6.498932e+002, 1.019482e-002
6.518217e+002, 1.015724e-002
6.537502e+002, 1.034921e-002
6.556786e+002, 1.047019e-002
6.576071e+002, 1.058046e-002
6.595356e+002, 1.068993e-002
6.614641e+002, 1.080805e-002
6.633925e+002, 1.089067e-002
6.653210e+002, 1.083731e-002
6.672495e+002, 1.088167e-002
6.691779e+002, 1.104671e-002
6.711064e+002, 1.112041e-002
6.730349e+002, 1.104574e-002
6.749633e+002, 1.104381e-002
6.768918e+002, 1.125246e-002
6.788203e+002, 1.143292e-002
6.807487e+002, 1.146226e-002
6.826772e+002, 1.148824e-002
6.846057e+002, 1.149894e-002
6.865341e+002, 1.139223e-002
6.884626e+002, 1.141916e-002
6.903911e+002, 1.155668e-002
6.923195e+002, 1.162483e-002
6.942480e+002, 1.158619e-002
6.961765e+002, 1.152593e-002
6.981049e+002, 1.150128e-002
7.000334e+002, 1.159520e-002
7.019619e+002, 1.169739e-002
7.038903e+002, 1.175993e-002
7.058188e+002, 1.177209e-002
7.077473e+002, 1.176548e-002
7.096757e+002, 1.181300e-002
7.116042e+002, 1.198975e-002
7.135327e+002, 1.207547e-002
7.154611e+002, 1.202775e-002
7.173896e+002, 1.224247e-002
7.193181e+002, 1.243274e-002
7.212465e+002, 1.270665e-002
7.231750e+002, 1.359294e-002
7.251035e+002, 1.488534e-002
7.270319e+002, 1.407513e-002
7.289604e+002, 1.263063e-002
7.308889e+002, 1.231557e-002
7.328173e+002, 1.235009e-002
7.347458e+002, 1.244013e-002
7.366743e+002, 1.257822e-002
7.386027e+002, 1.278862e-002
7.405312e+002, 1.289804e-002
7.424597e+002, 1.298040e-002
7.443881e+002, 1.318431e-002
7.463166e+002, 1.321770e-002
7.482451e+002, 1.321610e-002
7.501735e+002, 1.328267e-002
7.521020e+002, 1.322644e-002
7.540305e+002, 1.321453e-002
7.559589e+002, 1.345002e-002
7.578874e+002, 1.349110e-002
7.598159e+002, 1.354299e-002
7.617443e+002, 1.365060e-002
7.636728e+002, 1.370607e-002
7.656013e+002, 1.379551e-002
7.675297e+002, 1.395192e-002
7.694582e+002, 1.405347e-002
7.713867e+002, 1.410719e-002
7.733151e+002, 1.410345e-002
7.752436e+002, 1.417097e-002
7.771721e+002, 1.427828e-002
7.791005e+002, 1.462719e-002
7.810290e+002, 1.476952e-002
7.829575e+002, 1.473024e-002
7.848859e+002, 1.482043e-002
7.868144e+002, 1.496676e-002
7.887429e+002, 1.512143e-002
7.906713e+002, 1.532730e-002
7.925998e+002, 1.535441e-002
7.945283e+002, 1.536825e-002
7.964567e+002, 1.549814e-002
7.983852e+002, 1.568761e-002
8.003137e+002, 1.588055e-002
8.022421e+002, 1.607944e-002
8.041706e+002, 1.619503e-002
8.060991e+002, 1.627802e-002
8.080275e+002, 1.643932e-002
8.099560e+002, 1.683111e-002
8.118845e+002, 1.753574e-002
8.138129e+002, 1.826603e-002
8.157414e+002, 1.835727e-002
8.176699e+002, 1.870975e-002
8.195983e+002, 1.940607e-002
8.215268e+002, 2.050039e-002
8.234553e+002, 2.226800e-002
8.253837e+002, 2.547252e-002
8.273122e+002, 3.131751e-002
8.292407e+002, 4.320828e-002
8.311691e+002, 6.409449e-002
8.330976e+002, 8.657463e-002
8.350261e+002, 8.788615e-002
8.369545e+002, 6.352632e-002
8.388830e+002, 3.646390e-002
8.408115e+002, 2.178743e-002
8.427399e+002, 1.759202e-002
8.446684e+002, 1.658488e-002
8.465969e+002, 1.624716e-002
8.485253e+002, 1.608289e-002
8.504538e+002, 1.613762e-002
8.523823e+002, 1.617515e-002
8.543107e+002, 1.642596e-002
8.562392e+002, 1.649245e-002
8.581677e+002, 1.671601e-002
8.600961e+002, 1.687641e-002
8.620246e+002, 1.687044e-002
8.639531e+002, 1.700401e-002
8.658815e+002, 1.713774e-002
8.678100e+002, 1.720851e-002
8.697385e+002, 1.725123e-002
8.716669e+002, 1.737138e-002
8.735954e+002, 1.756406e-002
8.755239e+002, 1.772851e-002
8.774523e+002, 1.793239e-002
8.793808e+002, 1.810870e-002
8.813093e+002, 1.831535e-002
8.832377e+002, 1.846170e-002
8.851662e+002, 1.854030e-002
8.870947e+002, 1.852876e-002
8.890231e+002, 1.867432e-002
8.909516e+002, 1.889195e-002
8.928801e+002, 1.896523e-002
8.948085e+002, 1.911231e-002
8.967370e+002, 1.928600e-002
8.986655e+002, 1.938672e-002
9.005939e+002, 1.950419e-002
9.025224e+002, 1.954792e-002
9.044509e+002, 1.966524e-002
9.063793e+002, 1.972638e-002
9.083078e+002, 1.987134e-002
9.102363e+002, 2.008227e-002
9.121647e+002, 2.022046e-002
9.140932e+002, 2.029220e-002
9.160217e+002, 2.050338e-002
9.179501e+002, 2.065962e-002
9.198786e+002, 2.097983e-002
9.218071e+002, 2.119005e-002
9.237355e+002, 2.113998e-002
9.256640e+002, 2.119513e-002
9.275925e+002, 2.134325e-002
9.295209e+002, 2.156066e-002
9.314494e+002, 2.173040e-002
9.333779e+002, 2.179254e-002
9.353063e+002, 2.187536e-002
9.372348e+002, 2.197236e-002
9.391633e+002, 2.200682e-002
9.410917e+002, 2.212321e-002
9.430202e+002, 2.221917e-002
9.449487e+002, 2.235510e-002
9.468771e+002, 2.261435e-002
9.488056e+002, 2.284507e-002
9.507341e+002, 2.295166e-002
9.526625e+002, 2.301175e-002
9.545910e+002, 2.313627e-002
9.565195e+002, 2.333996e-002
9.584479e+002, 2.361962e-002
9.603764e+002, 2.379220e-002
9.623049e+002, 2.386936e-002
9.642333e+002, 2.395221e-002
9.661618e+002, 2.414323e-002
9.680903e+002, 2.431299e-002
9.700187e+002, 2.451597e-002
9.719472e+002, 2.477542e-002
9.738757e+002, 2.498457e-002
9.758041e+002, 2.524073e-002
9.777326e+002, 2.547993e-002
9.796611e+002, 2.560542e-002
9.815895e+002, 2.569578e-002
9.835180e+002, 2.577911e-002
9.854465e+002, 2.613798e-002
9.873749e+002, 2.653352e-002
9.893034e+002, 2.683721e-002
9.912319e+002, 2.702931e-002
9.931603e+002, 2.726844e-002
9.950888e+002, 2.747633e-002
9.970173e+002, 2.763125e-002
9.989457e+002, 2.804801e-002
1.000874e+003, 2.845369e-002
1.002803e+003, 2.862374e-002
1.004731e+003, 2.886376e-002
1.006660e+003, 2.908563e-002
1.008588e+003, 2.919664e-002
1.010517e+003, 2.919635e-002
1.012445e+003, 2.929348e-002
1.014373e+003, 2.955441e-002
1.016302e+003, 2.981835e-002
1.018230e+003, 3.005446e-002
1.020159e+003, 3.035655e-002
1.022087e+003, 3.062937e-002
1.024016e+003, 3.079107e-002
1.025944e+003, 3.102563e-002
1.027873e+003, 3.137866e-002
1.029801e+003, 3.164183e-002
1.031730e+003, 3.191170e-002
1.033658e+003, 3.220358e-002
1.035587e+003, 3.241955e-002
1.037515e+003, 3.258837e-002
1.039443e+003, 3.269019e-002
1.041372e+003, 3.285509e-002
1.043300e+003, 3.304052e-002
1.045229e+003, 3.319335e-002
1.047157e+003, 3.351925e-002
1.049086e+003, 3.376051e-002
1.051014e+003, 3.381478e-002
1.052943e+003, 3.393957e-002
1.054871e+003, 3.409028e-002
1.056800e+003, 3.430796e-002
1.058728e+003, 3.452982e-002
1.060657e+003, 3.483331e-002
1.062585e+003, 3.522814e-002
1.064514e+003, 3.550120e-002
1.066442e+003, 3.574694e-002
1.068370e+003, 3.604215e-002
1.070299e+003, 3.635480e-002
1.072227e+003, 3.664559e-002
1.074156e+003, 3.678417e-002
1.076084e+003, 3.692970e-002
1.078013e+003, 3.743583e-002
1.079941e+003, 3.794399e-002
1.081870e+003, 3.824477e-002
1.083798e+003, 3.859518e-002
1.085727e+003, 3.897162e-002
1.087655e+003, 3.933037e-002
1.089584e+003, 3.964936e-002
1.091512e+003, 4.000546e-002
1.093441e+003, 4.039610e-002
1.095369e+003, 4.075183e-002
1.097297e+003, 4.111725e-002
1.099226e+003, 4.153708e-002
1.101154e+003, 4.207141e-002
1.103083e+003, 4.252782e-002
1.105011e+003, 4.300458e-002
1.106940e+003, 4.351356e-002
1.108868e+003, 4.395976e-002
1.110797e+003, 4.440982e-002
1.112725e+003, 4.488506e-002
1.114654e+003, 4.543843e-002
1.116582e+003, 4.607450e-002
1.118511e+003, 4.663539e-002
1.120439e+003, 4.710859e-002
1.122368e+003, 4.753537e-002
1.124296e+003, 4.800325e-002
1.126224e+003, 4.857078e-002
1.128153e+003, 4.921994e-002
1.130081e+003, 4.974184e-002
1.132010e+003, 5.014487e-002
1.133938e+003, 5.075973e-002
1.135867e+003, 5.139567e-002
1.137795e+003, 5.203896e-002
1.139724e+003, 5.282855e-002
1.141652e+003, 5.349476e-002
1.143581e+003, 5.415408e-002
1.145509e+003, 5.492505e-002
1.147438e+003, 5.568233e-002
1.149366e+003, 5.622881e-002
1.151295e+003, 5.695553e-002
1.153223e+003, 5.776080e-002
1.155151e+003, 5.846161e-002
1.157080e+003, 5.919723e-002
1.159008e+003, 5.996739e-002
1.160937e+003, 6.065196e-002
1.162865e+003, 6.138948e-002
1.164794e+003, 6.210465e-002
1.166722e+003, 6.289792e-002
1.168651e+003, 6.374209e-002
1.170579e+003, 6.460150e-002
1.172508e+003, 6.545369e-002
1.174436e+003, 6.621125e-002
1.176365e+003, 6.702007e-002
1.178293e+003, 6.801613e-002
1.180222e+003, 6.900241e-002
1.182150e+003, 6.978530e-002
1.184078e+003, 7.050259e-002
1.186007e+003, 7.124150e-002
1.187935e+003, 7.221214e-002
1.189864e+003, 7.320238e-002
1.191792e+003, 7.422896e-002
1.193721e+003, 7.532201e-002
1.195649e+003, 7.632151e-002
1.197578e+003, 7.749763e-002
1.199506e+003, 7.881229e-002
1.201435e+003, 8.010621e-002
1.203363e+003, 8.124205e-002
1.205292e+003, 8.243755e-002
1.207220e+003, 8.377726e-002
1.209149e+003, 8.494412e-002
1.211077e+003, 8.618140e-002
1.213005e+003, 8.740083e-002
1.214934e+003, 8.856756e-002
1.216862e+003, 8.981535e-002
1.218791e+003, 9.115474e-002
1.220719e+003, 9.250873e-002
1.222648e+003, 9.387090e-002
1.224576e+003, 9.529484e-002
1.226505e+003, 9.681118e-002
1.228433e+003, 9.828186e-002
1.230362e+003, 9.970823e-002
1.232290e+003, 1.012524e-001
1.234219e+003, 1.027332e-001
1.236147e+003, 1.041147e-001
1.238076e+003, 1.056494e-001
1.240004e+003, 1.072738e-001
1.241932e+003, 1.088028e-001
1.243861e+003, 1.102718e-001
1.245789e+003, 1.118418e-001
1.247718e+003, 1.135155e-001
1.249646e+003, 1.151360e-001
1.251575e+003, 1.167685e-001
1.253503e+003, 1.185952e-001
1.255432e+003, 1.204233e-001
1.257360e+003, 1.221201e-001
1.259289e+003, 1.238279e-001
1.261217e+003, 1.256669e-001
1.263146e+003, 1.275102e-001
1.265074e+003, 1.292225e-001
1.267003e+003, 1.309441e-001
1.268931e+003, 1.328039e-001
1.270859e+003, 1.348098e-001
1.272788e+003, 1.367154e-001
1.274716e+003, 1.383212e-001
1.276645e+003, 1.399544e-001
1.278573e+003, 1.418478e-001
1.280502e+003, 1.436720e-001
1.282430e+003, 1.453563e-001
1.284359e+003, 1.471707e-001
1.286287e+003, 1.489384e-001
1.288216e+003, 1.507654e-001
1.290144e+003, 1.526558e-001
1.292073e+003, 1.545256e-001
1.294001e+003, 1.564218e-001
1.295930e+003, 1.581789e-001
1.297858e+003, 1.601484e-001
1.299786e+003, 1.619605e-001
1.301715e+003, 1.636872e-001
1.303643e+003, 1.653491e-001
1.305572e+003, 1.671367e-001
1.307500e+003, 1.693583e-001
1.309429e+003, 1.713408e-001
1.311357e+003, 1.730914e-001
1.313286e+003, 1.750061e-001
1.315214e+003, 1.765909e-001
1.317143e+003, 1.780517e-001
1.319071e+003, 1.795964e-001
1.321000e+003, 1.809942e-001
1.322928e+003, 1.822874e-001
1.324857e+003, 1.836139e-001
1.326785e+003, 1.849671e-001
1.328714e+003, 1.861692e-001
1.330642e+003, 1.871405e-001
1.332570e+003, 1.881608e-001
1.334499e+003, 1.891949e-001
1.336427e+003, 1.900827e-001
1.338356e+003, 1.909521e-001
1.340284e+003, 1.915134e-001
1.342213e+003, 1.917524e-001
1.344141e+003, 1.915600e-001
1.346070e+003, 1.907809e-001
1.347998e+003, 1.892253e-001
1.349927e+003, 1.869425e-001
1.351855e+003, 1.839132e-001
1.353784e+003, 1.795031e-001
1.355712e+003, 1.742156e-001
1.357641e+003, 1.687484e-001
1.359569e+003, 1.634091e-001
1.361497e+003, 1.580317e-001
1.363426e+003, 1.525871e-001
1.365354e+003, 1.472172e-001
1.367283e+003, 1.419226e-001
1.369211e+003, 1.367743e-001
1.371140e+003, 1.318219e-001
1.373068e+003, 1.273010e-001
1.374997e+003, 1.233098e-001
1.376925e+003, 1.194046e-001
1.378854e+003, 1.158080e-001
1.380782e+003, 1.125220e-001
1.382711e+003, 1.095053e-001
1.384639e+003, 1.065533e-001
1.386568e+003, 1.037543e-001
1.388496e+003, 1.010454e-001
1.390424e+003, 9.839587e-002
1.392353e+003, 9.597905e-002
1.394281e+003, 9.331651e-002
1.396210e+003, 9.056530e-002
1.398138e+003, 8.799244e-002
1.400067e+003, 8.535838e-002
1.401995e+003, 8.283433e-002
1.403924e+003, 8.053545e-002
1.405852e+003, 7.820176e-002
1.407781e+003, 7.572281e-002
1.409709e+003, 7.328285e-002
1.411638e+003, 7.089546e-002
1.413566e+003, 6.845257e-002
1.415495e+003, 6.590407e-002
1.417423e+003, 6.336307e-002
1.419351e+003, 6.090269e-002
1.421280e+003, 5.840519e-002
1.423208e+003, 5.598305e-002
1.425137e+003, 5.382749e-002
1.427065e+003, 5.192991e-002
1.428994e+003, 5.020393e-002
1.430922e+003, 4.855072e-002
1.432851e+003, 4.719314e-002
1.434779e+003, 4.612255e-002
1.436708e+003, 4.501767e-002
1.438636e+003, 4.368202e-002
1.440565e+003, 4.230927e-002
1.442493e+003, 4.103755e-002
1.444422e+003, 4.029782e-002
1.446350e+003, 4.066613e-002
1.448278e+003, 4.093290e-002
1.450207e+003, 3.959952e-002
1.452135e+003, 3.727161e-002
1.454064e+003, 3.473277e-002
1.455992e+003, 3.191538e-002
1.457921e+003, 2.846777e-002
1.459849e+003, 2.445109e-002
1.461778e+003, 1.969855e-002
1.463706e+003, 1.464656e-002
1.465635e+003, 1.027931e-002
1.467563e+003, 7.323610e-003
1.469492e+003, 5.775715e-003
1.471420e+003, 4.988131e-003
1.473349e+003, 4.595533e-003
1.475277e+003, 4.267884e-003
1.477205e+003, 4.017442e-003
1.479134e+003, 3.824858e-003
1.481062e+003, 3.672535e-003
1.482991e+003, 3.485801e-003
1.484919e+003, 3.298772e-003
1.486848e+003, 3.183829e-003
1.488776e+003, 3.079504e-003
1.490705e+003, 2.800078e-003
1.492633e+003, 2.369477e-003
1.494562e+003, 2.202930e-003
1.496490e+003, 2.157615e-003
1.498419e+003, 2.098678e-003
1.500347e+003, 1.994363e-003
1.502276e+003, 1.758164e-003
1.504204e+003, 1.458448e-003
1.506132e+003, 1.313292e-003
1.508061e+003, 1.198923e-003
1.509989e+003, 9.870687e-004
1.511918e+003, 7.952525e-004
1.513846e+003, 6.905139e-004
1.515775e+003, 6.462996e-004
1.517703e+003, 6.054468e-004
1.519632e+003, 5.763334e-004
1.521560e+003, 3.866586e-004
1.523489e+003, 2.112038e-004
1.525417e+003, 2.208271e-004
1.527346e+003, 2.144266e-004
1.529274e+003, 1.783080e-004
1.531203e+003, 1.803627e-004
1.533131e+003, 1.047857e-004
1.535059e+003, 2.663170e-005
1.536988e+003, -2.777141e-005
1.538916e+003, -7.761606e-005
1.540845e+003, -1.566762e-004
1.542773e+003, -1.803814e-004
1.544702e+003, -2.157500e-004
1.546630e+003, -2.796435e-004
1.548559e+003, -2.943532e-004
1.550487e+003, -2.824428e-004
1.552416e+003, -3.674146e-004
1.554344e+003, -3.130457e-004
1.556273e+003, -1.708522e-004
1.558201e+003, -4.851236e-005
1.560130e+003, -3.611508e-005
1.562058e+003, -1.010512e-004
1.563986e+003, -1.583699e-004
1.565915e+003, -2.570067e-004
1.567843e+003, -3.939807e-004
1.569772e+003, -2.942831e-004
1.571700e+003, -2.456550e-004
1.573629e+003, -2.688884e-004
1.575557e+003, -2.902418e-004
1.577486e+003, -4.033805e-004
1.579414e+003, -3.789720e-004
1.581343e+003, -3.150670e-004
1.583271e+003, -4.315274e-004
1.585200e+003, -5.761181e-004
1.587128e+003, -6.277253e-004
1.589057e+003, -6.917650e-004
1.590985e+003, -7.858566e-004
1.592913e+003, -6.822526e-004
1.594842e+003, -5.319678e-004
1.596770e+003, -4.622885e-004
1.598699e+003, -4.824256e-004
1.600627e+003, -5.743096e-004
1.602556e+003, -6.221096e-004
1.604484e+003, -6.460086e-004
1.606413e+003, -6.821925e-004
1.608341e+003, -8.559001e-004
1.610270e+003, -1.015968e-003
1.612198e+003, -9.764230e-004
1.614127e+003, -9.616674e-004
1.616055e+003, -9.610482e-004
1.617984e+003, -8.807532e-004
1.619912e+003, -9.424209e-004
1.621840e+003, -8.965216e-004
1.623769e+003, -8.261104e-004
1.625697e+003, -8.057768e-004
1.627626e+003, -7.936384e-004
1.629554e+003, -8.000169e-004
1.631483e+003, -7.952309e-004
1.633411e+003, -7.479384e-004
1.635340e+003, -8.273472e-004
1.637268e+003, -9.043859e-004
1.639197e+003, -9.244808e-004
1.641125e+003, -7.196595e-004
1.643054e+003, -6.197708e-004
1.644982e+003, -5.707128e-004
1.646911e+003, -5.219163e-004
1.648839e+003, -5.762887e-004
1.650767e+003, -7.206184e-004
1.652696e+003, -7.579918e-004
1.654624e+003, -7.252980e-004
1.656553e+003, -8.965316e-004
1.658481e+003, -9.988719e-004
1.660410e+003, -9.846942e-004
1.662338e+003, -9.581593e-004
1.664267e+003, -9.489065e-004
1.666195e+003, -1.030542e-003
1.668124e+003, -1.015226e-003
1.670052e+003, -1.122143e-003
1.671981e+003, -1.129623e-003
1.673909e+003, -1.073320e-003
1.675838e+003, -1.037118e-003
1.677766e+003, -1.039965e-003
1.679694e+003, -1.050152e-003
1.681623e+003, -9.490239e-004
1.683551e+003, -8.236275e-004
1.685480e+003, -7.718414e-004
1.687408e+003, -6.530130e-004
1.689337e+003, -5.970933e-004
1.691265e+003, -6.598551e-004
1.693194e+003, -7.388946e-004
1.695122e+003, -6.414175e-004
1.697051e+003, -5.703318e-004
1.698979e+003, -6.996555e-004
1.700908e+003, -7.619179e-004
1.702836e+003, -7.049375e-004
1.704765e+003, -6.883412e-004
1.706693e+003, -5.855972e-004
1.708621e+003, -5.364679e-004
1.710550e+003, -6.085874e-004
1.712478e+003, -8.283512e-004
1.714407e+003, -8.146873e-004
1.716335e+003, -6.477075e-004
1.718264e+003, -7.050175e-004
1.720192e+003, -7.954168e-004
1.722121e+003, -8.130564e-004
1.724049e+003, -7.434770e-004
1.725978e+003, -5.183622e-004
1.727906e+003, -4.948396e-004
1.729835e+003, -8.436622e-004
1.731763e+003, -8.430403e-004
1.733692e+003, -7.035433e-004
1.735620e+003, -8.343223e-004
1.737548e+003, -9.938860e-004
1.739477e+003, -9.769574e-004
1.741405e+003, -1.056045e-003
1.743334e+003, -1.131260e-003
1.745262e+003, -1.063434e-003
1.747191e+003, -1.107313e-003
1.749119e+003, -1.065352e-003
1.751048e+003, -8.631218e-004
1.752976e+003, -6.700808e-004
1.754905e+003, -5.297906e-004
1.756833e+003, -3.919568e-004
1.758762e+003, -3.448414e-004
1.760690e+003, -3.632793e-004
1.762619e+003, -1.560567e-004
1.764547e+003, 8.395747e-005
1.766475e+003, 3.548256e-005
1.768404e+003, 1.401408e-004
1.770332e+003, 2.524349e-004
1.772261e+003, 2.196568e-004
1.774189e+003, 2.657219e-004
1.776118e+003, 6.125512e-004
1.778046e+003, 1.044826e-003
1.779975e+003, 1.844490e-003
1.781903e+003, 3.058030e-003
1.783832e+003, 5.593699e-003
1.785760e+003, 1.087005e-002
1.787689e+003, 1.731288e-002
1.789617e+003, 1.619739e-002
1.791546e+003, 8.382458e-003
1.793474e+003, 2.970196e-003
1.795402e+003, 9.361175e-004
1.797331e+003, 3.314771e-004
1.799259e+003, -3.807816e-005
1.801188e+003, -2.202188e-004
1.803116e+003, -1.474451e-004
1.805045e+003, -2.804039e-005
1.806973e+003, -1.674755e-004
1.808902e+003, -5.431194e-005
1.810830e+003, 4.410886e-005
1.812759e+003, -8.603915e-005
1.814687e+003, -2.791606e-005
1.816616e+003, 2.450093e-005
1.818544e+003, -1.292749e-004
1.820473e+003, -5.273483e-005
1.822401e+003, 7.131857e-005
1.824329e+003, 1.113141e-004
1.826258e+003, 1.302741e-004
1.828186e+003, 3.443212e-004
1.830115e+003, 3.519850e-004
1.832043e+003, 1.877557e-004
1.833972e+003, 2.121001e-004
1.835900e+003, 5.411061e-004
1.837829e+003, 2.806285e-004
1.839757e+003, 5.248561e-005
1.841686e+003, 2.865663e-004
1.843614e+003, 4.806849e-004
1.845543e+003, 2.807865e-004
1.847471e+003, 2.899807e-004
1.849400e+003, 2.451897e-004
1.851328e+003, 1.117125e-004
1.853256e+003, 1.485160e-004
1.855185e+003, 3.059715e-004
1.857113e+003, 4.051165e-004
1.859042e+003, 4.601640e-004
1.860970e+003, 2.033074e-004
1.862899e+003, 3.496940e-004
1.864827e+003, 5.751192e-004
1.866756e+003, 4.765221e-004
1.868684e+003, 3.766127e-004
1.870613e+003, 3.864498e-004
1.872541e+003, 4.400085e-004
1.874470e+003, 3.835025e-004
1.876398e+003, 4.386629e-004
1.878327e+003, 4.937917e-004
1.880255e+003, 6.011588e-004
1.882183e+003, 6.154016e-004
1.884112e+003, 3.648582e-004
1.886040e+003, 2.465071e-004
1.887969e+003, 4.847345e-004
1.889897e+003, 5.224434e-004
1.891826e+003, 4.960604e-004
1.893754e+003, 8.651934e-004
1.895683e+003, 9.838141e-004
1.897611e+003, 1.106177e-003
1.899540e+003, 1.179224e-003
1.901468e+003, 8.467477e-004
1.903397e+003, 3.004828e-004
1.905325e+003, 2.093014e-004
1.907254e+003, 4.627903e-004
1.909182e+003, 9.772156e-004
1.911110e+003, 9.078310e-004
1.913039e+003, 3.149559e-004
1.914967e+003, 1.260847e-004
1.916896e+003, 2.439022e-004
1.918824e+003, 6.880565e-004
1.920753e+003, 7.676696e-004
1.922681e+003, 5.955339e-004
1.924610e+003, 2.414004e-004
1.926538e+003, 6.910973e-004
1.928467e+003, 6.079407e-004
1.930395e+003, 3.524561e-004
1.932324e+003, 1.654825e-004
1.934252e+003, 2.306918e-004
1.936181e+003, 6.561294e-004
1.938109e+003, 6.443148e-004
1.940037e+003, 4.875671e-004
1.941966e+003, 4.395537e-004
1.943894e+003, 7.527737e-004
1.945823e+003, 9.230744e-004
1.947751e+003, 1.050179e-003
1.949680e+003, 1.089964e-003
1.951608e+003, 1.273447e-003
1.953537e+003, 1.311473e-003
1.955465e+003, 9.443571e-004
1.957394e+003, 5.735613e-004
1.959322e+003, 4.018061e-004
1.961251e+003, 8.343830e-004
1.963179e+003, 8.354165e-004
1.965108e+003, 6.877325e-004
1.967036e+003, 4.801177e-005
1.968964e+003, 1.702767e-004
1.970893e+003, 1.339777e-004
1.972821e+003, -2.975912e-004
1.974750e+003, -3.707435e-004
1.976678e+003, -6.666989e-005
1.978607e+003, 1.576463e-004
1.980535e+003, 6.734096e-004
1.982464e+003, 9.821991e-004
1.984392e+003, 2.925098e-004
1.986321e+003, 7.259767e-004
1.988249e+003, 1.227660e-003
1.990178e+003, 7.858872e-004
1.992106e+003, 3.773205e-004
1.994035e+003, 3.663405e-004
1.995963e+003, 4.358502e-004
1.997891e+003, 6.137382e-004
1.999820e+003, 2.408045e-004
2.001748e+003, -1.645532e-004
2.003677e+003, 1.588656e-004
2.005605e+003, 2.233101e-004
2.007534e+003, 1.770344e-004
2.009462e+003, 3.802126e-004
2.011391e+003, 8.119025e-004
2.013319e+003, 1.452188e-003
2.015248e+003, 2.003103e-003
2.017176e+003, 8.554266e-004
2.019105e+003, 2.034219e-004
2.021033e+003, 2.423821e-004
2.022962e+003, -8.524372e-005
2.024890e+003, -2.622660e-004
2.026818e+003, 3.610566e-004
2.028747e+003, 9.168099e-004
2.030675e+003, 3.749804e-004
2.032604e+003, 2.994224e-004
2.034532e+003, 3.614344e-004
2.036461e+003, 4.241525e-004
2.038389e+003, 5.677503e-004
2.040318e+003, 9.788123e-004
2.042246e+003, 1.283897e-003
2.044175e+003, 8.252087e-004
2.046103e+003, -2.680114e-006
2.048031e+003, 9.593379e-005
2.049960e+003, 8.951163e-004
2.051888e+003, 9.032089e-004
2.053817e+003, 8.082127e-004
2.055745e+003, 6.555541e-004
2.057674e+003, 7.855450e-004
2.059602e+003, 1.208411e-003
2.061531e+003, 1.189758e-003
2.063459e+003, 9.339708e-004
2.065388e+003, 6.978568e-004
2.067316e+003, 8.495391e-004
2.069245e+003, 1.017343e-003
2.071173e+003, 8.281886e-004
2.073102e+003, 1.354775e-003
2.075030e+003, 1.803041e-003
2.076958e+003, 1.570728e-003
2.078887e+003, 1.802644e-003
2.080815e+003, 2.240625e-003
2.082744e+003, 2.112835e-003
2.084672e+003, 1.937211e-003
2.086601e+003, 1.548696e-003
2.088529e+003, 1.362053e-003
2.090458e+003, 1.684364e-003
2.092386e+003, 1.836284e-003
2.094315e+003, 1.782248e-003
2.096243e+003, 2.025619e-003
2.098172e+003, 2.377496e-003
2.100100e+003, 2.898570e-003
2.102029e+003, 2.826532e-003
2.103957e+003, 2.768076e-003
2.105885e+003, 2.321220e-003
2.107814e+003, 2.110880e-003
2.109742e+003, 1.612548e-003
2.111671e+003, 1.206394e-003
2.113599e+003, 1.176973e-003
2.115528e+003, 1.628572e-003
2.117456e+003, 1.436351e-003
2.119385e+003, 8.331060e-004
2.121313e+003, 1.349384e-003
2.123242e+003, 1.668880e-003
2.125170e+003, 1.324977e-003
2.127099e+003, 1.331706e-003
2.129027e+003, 9.602358e-004
2.130956e+003, 5.624369e-004
2.132884e+003, 5.040689e-004
2.134813e+003, 4.926157e-004
2.136741e+003, 5.145303e-004
2.138669e+003, 7.143679e-004
2.140598e+003, 4.212531e-004
2.142526e+003, 1.008216e-004
2.144455e+003, 3.101741e-004
2.146383e+003, 5.702572e-004
2.148312e+003, 6.366265e-004
2.150240e+003, 5.369415e-004
2.152169e+003, 4.117405e-004
2.154097e+003, -5.109035e-004
2.156026e+003, -1.537303e-003
2.157954e+003, -1.560682e-003
2.159883e+003, -6.425679e-004
2.161811e+003, 1.197224e-004
2.163740e+003, 2.035334e-004
2.165668e+003, 3.580400e-005
2.167596e+003, -7.771618e-004
2.169525e+003, -2.287212e-004
2.171453e+003, 7.970745e-004
2.173382e+003, 9.409009e-004
2.175310e+003, 8.255420e-004
2.177239e+003, 6.336113e-005
2.179167e+003, -5.518738e-004
2.181096e+003, -1.226242e-003
2.183024e+003, -1.476901e-003
2.184953e+003, -1.838781e-004
2.186881e+003, 2.548913e-006
2.188810e+003, -1.726366e-004
2.190738e+003, 1.866666e-004
2.192667e+003, 2.587695e-004
2.194595e+003, 5.059642e-004
2.196523e+003, 5.169301e-004
2.198452e+003, 1.225650e-003
2.200380e+003, 1.135043e-003
2.202309e+003, 3.777107e-005
2.204237e+003, 1.706083e-004
2.206166e+003, 4.193606e-005
2.208094e+003, -2.615403e-004
2.210023e+003, 1.020461e-004
2.211951e+003, 1.047102e-003
2.213880e+003, 1.204462e-003
2.215808e+003, 2.944830e-004
2.217737e+003, -1.515009e-004
2.219665e+003, 1.588457e-004
2.221594e+003, 1.092579e-004
2.223522e+003, 2.138383e-004
2.225450e+003, -2.108794e-004
2.227379e+003, -5.104378e-004
2.229307e+003, 4.369559e-004
2.231236e+003, 7.107041e-004
2.233164e+003, -3.192358e-005
2.235093e+003, -3.180457e-004
2.237021e+003, 1.923154e-004
2.238950e+003, 5.790147e-004
2.240878e+003, 5.506935e-004
2.242807e+003, -1.989829e-006
2.244735e+003, -2.734857e-004
2.246664e+003, 4.444282e-004
2.248592e+003, 5.978139e-004
2.250521e+003, 3.574348e-004
2.252449e+003, 8.343902e-004
2.254377e+003, 7.925832e-004
2.256306e+003, 1.475885e-004
2.258234e+003, 3.375592e-004
2.260163e+003, 5.867608e-004
2.262091e+003, 3.124684e-004
2.264020e+003, 4.465166e-004
2.265948e+003, 8.116666e-004
2.267877e+003, 7.990989e-004
2.269805e+003, 1.183555e-003
2.271734e+003, 1.410602e-003
2.273662e+003, 1.492753e-003
2.275591e+003, 1.034823e-003
2.277519e+003, 9.275955e-004
2.279448e+003, 1.222667e-003
2.281376e+003, 1.660745e-003
2.283304e+003, 1.971599e-003
2.285233e+003, 2.119271e-003
2.287161e+003, 1.798439e-003
2.289090e+003, 1.342094e-003
2.291018e+003, 1.395279e-003
2.292947e+003, 1.648395e-003
2.294875e+003, 1.731516e-003
2.296804e+003, 1.790147e-003
2.298732e+003, 1.866614e-003
2.300661e+003, 2.133627e-003
2.302589e+003, 2.006076e-003
2.304518e+003, 2.051863e-003
2.306446e+003, 2.139215e-003
2.308375e+003, 2.013037e-003
2.310303e+003, 1.978769e-003
2.312231e+003, 2.135661e-003
2.314160e+003, 2.130622e-003
2.316088e+003, 2.060444e-003
2.318017e+003, 2.143906e-003
2.319945e+003, 2.697029e-003
2.321874e+003, 3.057737e-003
2.323802e+003, 3.127000e-003
2.325731e+003, 2.874088e-003
2.327659e+003, 2.824923e-003
2.329588e+003, 2.823310e-003
2.331516e+003, 2.753846e-003
2.333445e+003, 2.719360e-003
2.335373e+003, 2.706251e-003
2.337302e+003, 2.606133e-003
2.339230e+003, 2.562224e-003
2.341158e+003, 2.534213e-003
2.343087e+003, 2.550411e-003
2.345015e+003, 2.399773e-003
2.346944e+003, 2.416956e-003
2.348872e+003, 2.556812e-003
2.350801e+003, 2.578164e-003
2.352729e+003, 2.586963e-003
2.354658e+003, 2.730431e-003
2.356586e+003, 2.751183e-003
2.358515e+003, 2.882405e-003
2.360443e+003, 2.910947e-003
2.362372e+003, 3.105586e-003
2.364300e+003, 3.138994e-003
2.366229e+003, 2.915534e-003
2.368157e+003, 2.775519e-003
2.370085e+003, 2.477206e-003
2.372014e+003, 2.440149e-003
2.373942e+003, 2.587806e-003
2.375871e+003, 2.385155e-003
2.377799e+003, 2.295165e-003
2.379728e+003, 2.383763e-003
2.381656e+003, 2.497823e-003
2.383585e+003, 2.560659e-003
2.385513e+003, 2.558823e-003
2.387442e+003, 2.569461e-003
2.389370e+003, 2.618007e-003
2.391299e+003, 2.544437e-003
2.393227e+003, 2.627525e-003
2.395156e+003, 2.622775e-003
2.397084e+003, 2.855710e-003
2.399012e+003, 2.713750e-003
2.400941e+003, 2.629195e-003
2.402869e+003, 2.910380e-003
2.404798e+003, 3.305360e-003
2.406726e+003, 3.707598e-003
2.408655e+003, 4.061473e-003
2.410583e+003, 4.435496e-003
2.412512e+003, 4.991214e-003
2.414440e+003, 5.945798e-003
2.416369e+003, 6.992089e-003
2.418297e+003, 7.975122e-003
2.420226e+003, 9.718679e-003
2.422154e+003, 1.199050e-002
2.424083e+003, 1.368673e-002
2.426011e+003, 1.416510e-002
2.427939e+003, 1.408685e-002
2.429868e+003, 1.383137e-002
2.431796e+003, 1.369588e-002
2.433725e+003, 1.294566e-002
2.435653e+003, 1.228260e-002
2.437582e+003, 1.215847e-002
2.439510e+003, 1.196311e-002
2.441439e+003, 1.182439e-002
2.443367e+003, 1.177771e-002
2.445296e+003, 1.107135e-002
2.447224e+003, 9.792579e-003
2.449153e+003, 9.092318e-003
2.451081e+003, 8.627343e-003
2.453010e+003, 8.075354e-003
2.454938e+003, 7.223084e-003
2.456866e+003, 6.382364e-003
2.458795e+003, 5.674147e-003
2.460723e+003, 5.355755e-003
2.462652e+003, 4.786291e-003
2.464580e+003, 4.208847e-003
2.466509e+003, 4.171588e-003
2.468437e+003, 4.378631e-003
2.470366e+003, 4.381206e-003
2.472294e+003, 4.369465e-003
2.474223e+003, 4.652012e-003
2.476151e+003, 4.843668e-003
2.478080e+003, 4.608829e-003
2.480008e+003, 4.478300e-003
2.481937e+003, 4.364170e-003
2.483865e+003, 4.208398e-003
2.485793e+003, 3.914757e-003
2.487722e+003, 3.886997e-003
2.489650e+003, 4.064358e-003
2.491579e+003, 3.818827e-003
2.493507e+003, 3.680986e-003
2.495436e+003, 3.354572e-003
2.497364e+003, 3.160193e-003
2.499293e+003, 3.203302e-003
2.501221e+003, 3.500780e-003
2.503150e+003, 3.202876e-003
2.505078e+003, 2.702122e-003
2.507007e+003, 2.350745e-003
2.508935e+003, 2.180505e-003
2.510864e+003, 2.110387e-003
2.512792e+003, 1.474013e-003
2.514720e+003, 1.152450e-003
2.516649e+003, 9.875409e-004
2.518577e+003, 8.284203e-004
2.520506e+003, 8.181668e-004
2.522434e+003, 5.867740e-004
2.524363e+003, 1.511163e-004
2.526291e+003, 9.997116e-005
2.528220e+003, -6.039534e-005
2.530148e+003, -7.936357e-004
2.532077e+003, -1.336716e-003
2.534005e+003, -1.013932e-003
2.535934e+003, -6.174216e-004
2.537862e+003, -3.297831e-004
2.539791e+003, -2.535822e-004
2.541719e+003, -4.093818e-004
2.543647e+003, -5.002832e-004
2.545576e+003, -7.284555e-004
2.547504e+003, -7.997992e-004
2.549433e+003, -9.473808e-004
2.551361e+003, -1.079706e-003
2.553290e+003, -1.082577e-003
2.555218e+003, -6.874244e-004
2.557147e+003, -6.034616e-004
2.559075e+003, -8.687360e-004
2.561004e+003, -1.014307e-003
2.562932e+003, -1.105536e-003
2.564861e+003, -7.446636e-004
2.566789e+003, -6.451233e-004
2.568718e+003, -8.091064e-004
2.570646e+003, -8.863396e-004
2.572574e+003, -7.688887e-004
2.574503e+003, -8.427137e-004
2.576431e+003, -5.407605e-004
2.578360e+003, -3.980665e-004
2.580288e+003, -5.626402e-004
2.582217e+003, -6.139631e-004
2.584145e+003, -5.864650e-004
2.586074e+003, -2.102984e-004
2.588002e+003, -1.651234e-004
2.589931e+003, -3.897872e-004
2.591859e+003, -2.890523e-004
2.593788e+003, -1.271527e-004
2.595716e+003, -2.648538e-004
2.597645e+003, -5.870262e-004
2.599573e+003, -6.396523e-004
2.601501e+003, -3.455747e-004
2.603430e+003, -3.355484e-005
2.605358e+003, 5.764450e-005
2.607287e+003, -1.344611e-004
2.609215e+003, -2.748696e-004
2.611144e+003, 1.980475e-004
2.613072e+003, 1.641403e-004
2.615001e+003, 1.843395e-004
2.616929e+003, 3.321510e-004
2.618858e+003, 4.468655e-004
2.620786e+003, 3.920070e-004
2.622715e+003, 5.497142e-004
2.624643e+003, 5.235556e-004
2.626572e+003, 1.589025e-004
2.628500e+003, 1.076945e-004
2.630428e+003, 4.172200e-004
2.632357e+003, 7.325243e-004
2.634285e+003, 7.884089e-004
2.636214e+003, 7.095138e-004
2.638142e+003, 4.954792e-004
2.640071e+003, 4.763045e-004
2.641999e+003, 5.014148e-004
2.643928e+003, 4.968467e-004
2.645856e+003, 5.913814e-004
2.647785e+003, 5.522924e-004
2.649713e+003, 6.718736e-004
2.651642e+003, 1.017609e-003
2.653570e+003, 1.162129e-003
2.655499e+003, 9.405793e-004
2.657427e+003, 8.238686e-004
2.659355e+003, 6.398174e-004
2.661284e+003, 5.723229e-004
2.663212e+003, 8.777869e-004
2.665141e+003, 1.206836e-003
2.667069e+003, 1.127102e-003
2.668998e+003, 1.056192e-003
2.670926e+003, 1.036561e-003
2.672855e+003, 8.888252e-004
2.674783e+003, 9.509950e-004
2.676712e+003, 9.639972e-004
2.678640e+003, 8.555920e-004
2.680569e+003, 8.151238e-004
2.682497e+003, 7.916700e-004
2.684426e+003, 8.015634e-004
2.686354e+003, 8.002476e-004
2.688282e+003, 8.775472e-004
2.690211e+003, 9.879699e-004
2.692139e+003, 9.275001e-004
2.694068e+003, 1.025969e-003
2.695996e+003, 9.814389e-004
2.697925e+003, 8.240427e-004
2.699853e+003, 9.764439e-004
2.701782e+003, 1.283658e-003
2.703710e+003, 1.447157e-003
2.705639e+003, 1.581821e-003
2.707567e+003, 1.415941e-003
2.709496e+003, 1.131668e-003
2.711424e+003, 1.331295e-003
2.713353e+003, 1.460575e-003
2.715281e+003, 1.467266e-003
2.717209e+003, 1.622983e-003
2.719138e+003, 1.754031e-003
2.721066e+003, 2.041968e-003
2.722995e+003, 2.229675e-003
2.724923e+003, 2.140418e-003
2.726852e+003, 2.074205e-003
2.728780e+003, 2.265325e-003
2.730709e+003, 2.576973e-003
2.732637e+003, 2.880695e-003
2.734566e+003, 3.029218e-003
2.736494e+003, 3.305701e-003
2.738423e+003, 3.855783e-003
2.740351e+003, 4.073840e-003
2.742280e+003, 4.197041e-003
2.744208e+003, 4.189478e-003
2.746136e+003, 4.202715e-003
2.748065e+003, 4.620102e-003
2.749993e+003, 4.495998e-003
2.751922e+003, 4.389306e-003
2.753850e+003, 4.705878e-003
2.755779e+003, 4.873159e-003
2.757707e+003, 4.842144e-003
2.759636e+003, 4.914546e-003
2.761564e+003, 4.976855e-003
2.763493e+003, 5.011842e-003
2.765421e+003, 5.153073e-003
2.767350e+003, 4.948728e-003
2.769278e+003, 4.501794e-003
2.771207e+003, 4.376346e-003
2.773135e+003, 4.371527e-003
2.775063e+003, 3.807975e-003
2.776992e+003, 3.381372e-003
2.778920e+003, 3.615573e-003
2.780849e+003, 3.937582e-003
2.782777e+003, 3.754927e-003
2.784706e+003, 3.685226e-003
2.786634e+003, 3.930053e-003
2.788563e+003, 4.170076e-003
2.790491e+003, 3.953354e-003
2.792420e+003, 3.689687e-003
2.794348e+003, 3.739109e-003
2.796277e+003, 3.732934e-003
2.798205e+003, 3.844856e-003
2.800134e+003, 4.016517e-003
2.802062e+003, 4.283743e-003
2.803990e+003, 4.219540e-003
2.805919e+003, 4.079131e-003
2.807847e+003, 4.246958e-003
2.809776e+003, 4.536415e-003
2.811704e+003, 4.546237e-003
2.813633e+003, 4.396258e-003
2.815561e+003, 4.250956e-003
2.817490e+003, 4.344626e-003
2.819418e+003, 4.565661e-003
2.821347e+003, 4.588182e-003
2.823275e+003, 4.577119e-003
2.825204e+003, 4.669961e-003
2.827132e+003, 4.780135e-003
2.829061e+003, 4.844543e-003
2.830989e+003, 4.720790e-003
2.832917e+003, 4.818592e-003
2.834846e+003, 4.580376e-003
2.836774e+003, 4.544037e-003
2.838703e+003, 4.621971e-003
2.840631e+003, 4.532978e-003
2.842560e+003, 4.783830e-003
2.844488e+003, 4.912422e-003
2.846417e+003, 4.271833e-003
2.848345e+003, 3.820971e-003
2.850274e+003, 3.955127e-003
2.852202e+003, 4.194632e-003
2.854131e+003, 4.246597e-003
2.856059e+003, 4.292178e-003
2.857988e+003, 4.181693e-003
2.859916e+003, 3.956896e-003
2.861844e+003, 3.732400e-003
2.863773e+003, 3.611177e-003
2.865701e+003, 3.600538e-003
2.867630e+003, 3.314631e-003
2.869558e+003, 3.223323e-003
2.871487e+003, 3.314848e-003
2.873415e+003, 3.141229e-003
2.875344e+003, 3.216476e-003
2.877272e+003, 3.536937e-003
2.879201e+003, 3.684230e-003
2.881129e+003, 3.655753e-003
2.883058e+003, 3.507966e-003
2.884986e+003, 3.493225e-003
2.886915e+003, 3.366341e-003
2.888843e+003, 3.087199e-003
2.890771e+003, 2.937829e-003
2.892700e+003, 2.649955e-003
2.894628e+003, 2.746284e-003
2.896557e+003, 2.937301e-003
2.898485e+003, 3.146501e-003
2.900414e+003, 2.883855e-003
2.902342e+003, 2.606551e-003
2.904271e+003, 2.837494e-003
2.906199e+003, 3.171005e-003
2.908128e+003, 3.179465e-003
2.910056e+003, 2.750507e-003
2.911985e+003, 2.439537e-003
2.913913e+003, 1.761849e-003
2.915842e+003, 1.404014e-003
2.917770e+003, 1.300212e-003
2.919698e+003, 1.520408e-003
2.921627e+003, 1.935019e-003
2.923555e+003, 2.232015e-003
2.925484e+003, 2.404278e-003
2.927412e+003, 2.645608e-003
2.929341e+003, 3.680960e-003
2.931269e+003, 4.155477e-003
2.933198e+003, 3.925950e-003
2.935126e+003, 3.679779e-003
2.937055e+003, 3.477920e-003
2.938983e+003, 3.972610e-003
2.940912e+003, 4.235035e-003
2.942840e+003, 3.975922e-003
2.944769e+003, 4.041639e-003
2.946697e+003, 3.708848e-003
2.948625e+003, 3.766912e-003
2.950554e+003, 4.522601e-003
2.952482e+003, 4.475079e-003
2.954411e+003, 4.114180e-003
2.956339e+003, 3.884260e-003
2.958268e+003, 3.736853e-003
2.960196e+003, 3.725396e-003
2.962125e+003, 3.907551e-003
2.964053e+003, 4.028484e-003
2.965982e+003, 3.763961e-003
2.967910e+003, 3.550812e-003
2.969839e+003, 3.899090e-003
2.971767e+003, 4.427033e-003
2.973696e+003, 4.471012e-003
2.975624e+003, 4.117379e-003
2.977552e+003, 3.915465e-003
2.979481e+003, 4.057212e-003
2.981409e+003, 4.016515e-003
2.983338e+003, 3.570983e-003
2.985266e+003, 3.473891e-003
2.987195e+003, 3.689302e-003
2.989123e+003, 4.146840e-003
2.991052e+003, 4.234505e-003
2.992980e+003, 4.010692e-003
2.994909e+003, 3.993848e-003
2.996837e+003, 4.101779e-003
2.998766e+003, 3.885036e-003
3.000694e+003, 3.421897e-003
3.002623e+003, 3.442332e-003
3.004551e+003, 3.889475e-003
3.006479e+003, 3.974179e-003
3.008408e+003, 3.526757e-003
3.010336e+003, 3.360687e-003
3.012265e+003, 3.102380e-003
3.014193e+003, 2.278009e-003
3.016122e+003, 1.364273e-003
3.018050e+003, 1.594379e-003
3.019979e+003, 3.198111e-003
3.021907e+003, 4.107800e-003
3.023836e+003, 4.233226e-003
3.025764e+003, 4.092892e-003
3.027693e+003, 3.879239e-003
3.029621e+003, 3.896188e-003
3.031550e+003, 4.009570e-003
3.033478e+003, 4.058780e-003
3.035406e+003, 4.063663e-003
3.037335e+003, 3.726975e-003
3.039263e+003, 4.083128e-003
3.041192e+003, 4.331641e-003
3.043120e+003, 4.014440e-003
3.045049e+003, 4.028701e-003
3.046977e+003, 4.296879e-003
3.048906e+003, 4.318331e-003
3.050834e+003, 4.202590e-003
3.052763e+003, 4.028581e-003
3.054691e+003, 3.753877e-003
3.056620e+003, 3.158861e-003
3.058548e+003, 3.317786e-003
3.060477e+003, 3.858554e-003
3.062405e+003, 3.786784e-003
3.064333e+003, 3.513032e-003
3.066262e+003, 3.148052e-003
3.068190e+003, 3.620879e-003
3.070119e+003, 4.456542e-003
3.072047e+003, 4.458399e-003
3.073976e+003, 4.134099e-003
3.075904e+003, 3.665570e-003
3.077833e+003, 3.849472e-003
3.079761e+003, 4.045298e-003
3.081690e+003, 3.873916e-003
3.083618e+003, 3.500830e-003
3.085547e+003, 2.938836e-003
3.087475e+003, 3.147563e-003
3.089404e+003, 3.466180e-003
3.091332e+003, 3.661199e-003
3.093260e+003, 4.124061e-003
3.095189e+003, 3.802401e-003
3.097117e+003, 3.930719e-003
3.099046e+003, 3.627730e-003
3.100974e+003, 3.530349e-003
3.102903e+003, 3.329880e-003
3.104831e+003, 3.293259e-003
3.106760e+003, 4.159058e-003
3.108688e+003, 4.564522e-003
3.110617e+003, 4.252473e-003
3.112545e+003, 3.692511e-003
3.114474e+003, 3.855385e-003
3.116402e+003, 3.974251e-003
3.118331e+003, 4.152872e-003
3.120259e+003, 4.131363e-003
3.122188e+003, 3.507399e-003
3.124116e+003, 3.549504e-003
3.126044e+003, 4.142700e-003
3.127973e+003, 4.228927e-003
3.129901e+003, 4.235672e-003
3.131830e+003, 4.491442e-003
3.133758e+003, 4.520338e-003
3.135687e+003, 4.081180e-003
3.137615e+003, 4.087009e-003
3.139544e+003, 4.190187e-003
3.141472e+003, 4.188985e-003
3.143401e+003, 4.493811e-003
3.145329e+003, 4.265388e-003
3.147258e+003, 3.984526e-003
3.149186e+003, 4.102488e-003
3.151115e+003, 4.048852e-003
3.153043e+003, 4.461484e-003
3.154971e+003, 4.703755e-003
3.156900e+003, 4.707237e-003
3.158828e+003, 4.648973e-003
3.160757e+003, 4.416317e-003
3.162685e+003, 4.268247e-003
3.164614e+003, 4.377911e-003
3.166542e+003, 4.181009e-003
3.168471e+003, 4.247463e-003
3.170399e+003, 4.741251e-003
3.172328e+003, 4.688112e-003
3.174256e+003, 4.245133e-003
3.176185e+003, 4.071204e-003
3.178113e+003, 3.962557e-003
3.180042e+003, 4.315172e-003
3.181970e+003, 4.359336e-003
3.183898e+003, 4.153702e-003
3.185827e+003, 4.081348e-003
3.187755e+003, 4.102865e-003
3.189684e+003, 4.379472e-003
3.191612e+003, 4.374357e-003
3.193541e+003, 3.948418e-003
3.195469e+003, 3.816903e-003
3.197398e+003, 4.222186e-003
3.199326e+003, 4.343808e-003
3.201255e+003, 4.653087e-003
3.203183e+003, 4.890488e-003
3.205112e+003, 4.655994e-003
3.207040e+003, 4.746309e-003
3.208969e+003, 4.812840e-003
3.210897e+003, 4.751337e-003
3.212825e+003, 4.287358e-003
3.214754e+003, 3.983411e-003
3.216682e+003, 4.306363e-003
3.218611e+003, 4.346904e-003
3.220539e+003, 4.092938e-003
3.222468e+003, 4.659503e-003
3.224396e+003, 5.062047e-003
3.226325e+003, 4.613450e-003
3.228253e+003, 4.221316e-003
3.230182e+003, 4.108208e-003
3.232110e+003, 4.076489e-003
3.234039e+003, 3.934901e-003
3.235967e+003, 3.934972e-003
3.237896e+003, 4.307756e-003
3.239824e+003, 4.458906e-003
3.241752e+003, 4.538799e-003
3.243681e+003, 4.857764e-003
3.245609e+003, 4.955600e-003
3.247538e+003, 4.568977e-003
3.249466e+003, 4.424239e-003
3.251395e+003, 4.503033e-003
3.253323e+003, 4.193524e-003
3.255252e+003, 4.133029e-003
3.257180e+003, 4.551806e-003
3.259109e+003, 4.698793e-003
3.261037e+003, 4.915460e-003
3.262966e+003, 5.667346e-003
3.264894e+003, 5.423930e-003
3.266823e+003, 4.932813e-003
3.268751e+003, 4.636209e-003
3.270679e+003, 4.534991e-003
3.272608e+003, 4.267676e-003
3.274536e+003, 4.315227e-003
3.276465e+003, 4.237283e-003
3.278393e+003, 4.241825e-003
3.280322e+003, 4.388754e-003
3.282250e+003, 4.289427e-003
3.284179e+003, 4.349341e-003
3.286107e+003, 4.624278e-003
3.288036e+003, 4.821648e-003
3.289964e+003, 4.905073e-003
3.291893e+003, 4.523707e-003
3.293821e+003, 4.449052e-003
3.295750e+003, 4.569068e-003
3.297678e+003, 4.576109e-003
3.299606e+003, 4.419629e-003
3.301535e+003, 4.494948e-003
3.303463e+003, 4.653810e-003
3.305392e+003, 4.510268e-003
3.307320e+003, 4.414060e-003
3.309249e+003, 4.252743e-003
3.311177e+003, 4.363375e-003
3.313106e+003, 4.450461e-003
3.315034e+003, 4.535121e-003
3.316963e+003, 4.635427e-003
3.318891e+003, 5.082545e-003
3.320820e+003, 4.563516e-003
3.322748e+003, 4.133379e-003
3.324677e+003, 4.314300e-003
3.326605e+003, 4.476759e-003
3.328533e+003, 4.649163e-003
3.330462e+003, 4.819126e-003
3.332390e+003, 4.513287e-003
3.334319e+003, 4.050609e-003
3.336247e+003, 3.996729e-003
3.338176e+003, 3.877801e-003
3.340104e+003, 4.058354e-003
3.342033e+003, 4.204046e-003
3.343961e+003, 4.442603e-003
3.345890e+003, 4.327168e-003
3.347818e+003, 4.235525e-003
3.349747e+003, 4.214123e-003
3.351675e+003, 4.635811e-003
3.353604e+003, 4.946040e-003
3.355532e+003, 4.828500e-003
3.357460e+003, 4.542429e-003
3.359389e+003, 4.536754e-003
3.361317e+003, 4.634306e-003
3.363246e+003, 4.668582e-003
3.365174e+003, 4.840045e-003
3.367103e+003, 5.006231e-003
3.369031e+003, 5.213293e-003
3.370960e+003, 5.166609e-003
3.372888e+003, 4.572795e-003
3.374817e+003, 4.151452e-003
3.376745e+003, 4.467553e-003
3.378674e+003, 4.441566e-003
3.380602e+003, 4.363077e-003
3.382531e+003, 4.272927e-003
3.384459e+003, 4.340124e-003
3.386387e+003, 4.810015e-003
3.388316e+003, 4.341659e-003
3.390244e+003, 3.850162e-003
3.392173e+003, 4.275208e-003
3.394101e+003, 4.750042e-003
3.396030e+003, 4.617041e-003
3.397958e+003, 4.732816e-003
3.399887e+003, 4.673105e-003
3.401815e+003, 4.258335e-003
3.403744e+003, 4.416934e-003
3.405672e+003, 4.799868e-003
3.407601e+003, 5.048729e-003
3.409529e+003, 4.520249e-003
3.411458e+003, 3.967445e-003
3.413386e+003, 3.475205e-003
3.415314e+003, 3.913573e-003
3.417243e+003, 5.097803e-003
3.419171e+003, 5.187745e-003
3.421100e+003, 4.736973e-003
3.423028e+003, 4.466921e-003
3.424957e+003, 4.641072e-003
3.426885e+003, 4.869436e-003
3.428814e+003, 4.791121e-003
3.430742e+003, 4.014994e-003
3.432671e+003, 3.713566e-003
3.434599e+003, 4.139746e-003
3.436528e+003, 4.246647e-003
3.438456e+003, 3.900120e-003
3.440385e+003, 4.010300e-003
3.442313e+003, 3.983255e-003
3.444241e+003, 4.436369e-003
3.446170e+003, 4.691502e-003
3.448098e+003, 4.878864e-003
3.450027e+003, 4.670685e-003
3.451955e+003, 5.001449e-003
3.453884e+003, 5.031784e-003
3.455812e+003, 5.095125e-003
3.457741e+003, 5.126457e-003
3.459669e+003, 5.060978e-003
3.461598e+003, 4.679681e-003
3.463526e+003, 4.955355e-003
3.465455e+003, 4.964545e-003
3.467383e+003, 4.185407e-003
3.469312e+003, 4.464626e-003
3.471240e+003, 5.105380e-003
3.473168e+003, 5.131756e-003
3.475097e+003, 4.501814e-003
3.477025e+003, 4.675206e-003
3.478954e+003, 4.915297e-003
3.480882e+003, 5.272469e-003
3.482811e+003, 5.515677e-003
3.484739e+003, 4.840249e-003
3.486668e+003, 4.640801e-003
3.488596e+003, 4.708974e-003
3.490525e+003, 4.690795e-003
3.492453e+003, 4.802366e-003
3.494382e+003, 4.655757e-003
3.496310e+003, 4.548272e-003
3.498239e+003, 4.612731e-003
3.500167e+003, 5.215969e-003
3.502095e+003, 5.368567e-003
3.504024e+003, 4.912403e-003
3.505952e+003, 4.306863e-003
3.507881e+003, 4.227161e-003
3.509809e+003, 4.846028e-003
3.511738e+003, 4.828943e-003
3.513666e+003, 3.927191e-003
3.515595e+003, 3.807173e-003
3.517523e+003, 4.706254e-003
3.519452e+003, 5.048307e-003
3.521380e+003, 4.874073e-003
3.523309e+003, 5.034012e-003
3.525237e+003, 5.051635e-003
3.527166e+003, 4.768425e-003
3.529094e+003, 4.366978e-003
3.531022e+003, 3.851424e-003
3.532951e+003, 4.047624e-003
3.534879e+003, 4.606552e-003
3.536808e+003, 4.366697e-003
3.538736e+003, 3.421145e-003
3.540665e+003, 3.432165e-003
3.542593e+003, 4.007271e-003
3.544522e+003, 4.192078e-003
3.546450e+003, 4.469844e-003
3.548379e+003, 4.988809e-003
3.550307e+003, 5.065734e-003
3.552236e+003, 4.769740e-003
3.554164e+003, 4.375338e-003
3.556093e+003, 3.995606e-003
3.558021e+003, 3.884884e-003
3.559949e+003, 3.979918e-003
3.561878e+003, 3.898761e-003
3.563806e+003, 3.669554e-003
3.565735e+003, 3.363171e-003
3.567663e+003, 3.190482e-003
3.569592e+003, 2.896157e-003
3.571520e+003, 2.907784e-003
3.573449e+003, 3.237843e-003
3.575377e+003, 2.932613e-003
3.577306e+003, 2.790727e-003
3.579234e+003, 3.145824e-003
3.581163e+003, 2.715727e-003
3.583091e+003, 2.841098e-003
3.585020e+003, 3.758842e-003
3.586948e+003, 3.850676e-003
3.588876e+003, 3.288266e-003
3.590805e+003, 3.042992e-003
3.592733e+003, 3.141464e-003
3.594662e+003, 3.419318e-003
3.596590e+003, 3.906576e-003
3.598519e+003, 3.723756e-003
3.600447e+003, 3.265173e-003
3.602376e+003, 3.238559e-003
3.604304e+003, 3.950567e-003
3.606233e+003, 4.608652e-003
3.608161e+003, 4.475131e-003
3.610090e+003, 4.145500e-003
3.612018e+003, 3.665865e-003
3.613947e+003, 3.522701e-003
3.615875e+003, 3.277586e-003
3.617803e+003, 2.625506e-003
3.619732e+003, 2.901305e-003
3.621660e+003, 3.596900e-003
3.623589e+003, 4.058803e-003
3.625517e+003, 3.787700e-003
3.627446e+003, 3.317963e-003
3.629374e+003, 2.740534e-003
3.631303e+003, 3.328208e-003
3.633231e+003, 4.497314e-003
3.635160e+003, 4.638234e-003
3.637088e+003, 4.104492e-003
3.639017e+003, 2.878182e-003
3.640945e+003, 2.487188e-003
3.642874e+003, 3.275453e-003
3.644802e+003, 3.494891e-003
3.646730e+003, 3.354926e-003
3.648659e+003, 2.780599e-003
3.650587e+003, 2.486910e-003
3.652516e+003, 2.704829e-003
3.654444e+003, 3.285756e-003
3.656373e+003, 3.734535e-003
3.658301e+003, 3.237932e-003
3.660230e+003, 2.778504e-003
3.662158e+003, 2.704708e-003
3.664087e+003, 3.352980e-003
3.666015e+003, 3.542198e-003
3.667944e+003, 3.517975e-003
3.669872e+003, 3.812680e-003
3.671801e+003, 3.906130e-003
3.673729e+003, 3.424911e-003
3.675657e+003, 2.553902e-003
3.677586e+003, 2.583176e-003
3.679514e+003, 3.321642e-003
3.681443e+003, 4.071610e-003
3.683371e+003, 4.434472e-003
3.685300e+003, 3.745710e-003
3.687228e+003, 2.756786e-003
3.689157e+003, 3.451649e-003
3.691085e+003, 3.649797e-003
3.693014e+003, 2.998873e-003
3.694942e+003, 2.465726e-003
3.696871e+003, 2.423938e-003
3.698799e+003, 2.928502e-003
3.700728e+003, 3.571996e-003
3.702656e+003, 3.971650e-003
3.704584e+003, 3.041374e-003
3.706513e+003, 2.200927e-003
3.708441e+003, 1.952053e-003
3.710370e+003, 2.276438e-003
3.712298e+003, 3.230406e-003
3.714227e+003, 3.518675e-003
3.716155e+003, 3.115413e-003
3.718084e+003, 3.402169e-003
3.720012e+003, 4.117517e-003
3.721941e+003, 4.771082e-003
3.723869e+003, 4.556252e-003
3.725798e+003, 3.907050e-003
3.727726e+003, 3.632732e-003
3.729655e+003, 3.252915e-003
3.731583e+003, 3.180621e-003
3.733511e+003, 3.858277e-003
3.735440e+003, 3.657175e-003
3.737368e+003, 3.097018e-003
3.739297e+003, 3.027200e-003
3.741225e+003, 3.053191e-003
3.743154e+003, 3.080197e-003
3.745082e+003, 3.323453e-003
3.747011e+003, 3.818099e-003
3.748939e+003, 3.791641e-003
3.750868e+003, 3.708726e-003
3.752796e+003, 3.590585e-003
3.754725e+003, 3.570451e-003
3.756653e+003, 3.636990e-003
3.758582e+003, 2.959600e-003
3.760510e+003, 2.884188e-003
3.762438e+003, 3.630239e-003
3.764367e+003, 3.183733e-003
3.766295e+003, 2.513774e-003
3.768224e+003, 3.020548e-003
3.770152e+003, 2.754756e-003
3.772081e+003, 3.019186e-003
3.774009e+003, 4.053936e-003
3.775938e+003, 3.931561e-003
3.777866e+003, 3.117769e-003
3.779795e+003, 2.490425e-003
3.781723e+003, 2.992709e-003
3.783652e+003, 3.641771e-003
3.785580e+003, 3.412436e-003
3.787509e+003, 3.405587e-003
3.789437e+003, 3.918319e-003
3.791365e+003, 4.360060e-003
3.793294e+003, 4.374213e-003
3.795222e+003, 4.368966e-003
3.797151e+003, 4.294201e-003
3.799079e+003, 4.028310e-003
3.801008e+003, 3.213430e-003
3.802936e+003, 2.949921e-003
3.804865e+003, 2.970204e-003
3.806793e+003, 3.390614e-003
3.808722e+003, 4.238894e-003
3.810650e+003, 4.363418e-003
3.812579e+003, 3.477319e-003
3.814507e+003, 2.621935e-003
3.816436e+003, 3.004502e-003
3.818364e+003, 3.493408e-003
3.820292e+003, 3.495646e-003
3.822221e+003, 3.568326e-003
3.824149e+003, 3.784960e-003
3.826078e+003, 3.653810e-003
3.828006e+003, 3.897411e-003
3.829935e+003, 3.890568e-003
3.831863e+003, 4.013274e-003
3.833792e+003, 4.025065e-003
3.835720e+003, 3.578418e-003
3.837649e+003, 3.166979e-003
3.839577e+003, 3.478814e-003
3.841506e+003, 3.582190e-003
3.843434e+003, 3.258045e-003
3.845363e+003, 3.040723e-003
3.847291e+003, 3.751535e-003
3.849219e+003, 4.724386e-003
3.851148e+003, 4.907422e-003
3.853076e+003, 4.307006e-003
3.855005e+003, 3.218533e-003
3.856933e+003, 2.401362e-003
3.858862e+003, 2.887500e-003
3.860790e+003, 3.002584e-003
3.862719e+003, 3.407860e-003
3.864647e+003, 3.461754e-003
3.866576e+003, 2.760595e-003
3.868504e+003, 2.731127e-003
3.870433e+003, 3.191354e-003
3.872361e+003, 3.339340e-003
3.874290e+003, 3.512187e-003
3.876218e+003, 3.520988e-003
3.878146e+003, 3.834356e-003
3.880075e+003, 3.699269e-003
3.882003e+003, 3.666789e-003
3.883932e+003, 3.260442e-003
3.885860e+003, 2.897769e-003
3.887789e+003, 3.368952e-003
3.889717e+003, 4.196131e-003
3.891646e+003, 4.054961e-003
3.893574e+003, 3.294647e-003
3.895503e+003, 3.129170e-003
3.897431e+003, 3.722568e-003
3.899360e+003, 3.458438e-003
3.901288e+003, 2.700343e-003
3.903217e+003, 2.832879e-003
3.905145e+003, 3.198493e-003
3.907073e+003, 3.469331e-003
3.909002e+003, 3.937013e-003
3.910930e+003, 4.269783e-003
3.912859e+003, 4.381564e-003
3.914787e+003, 3.981640e-003
3.916716e+003, 3.924912e-003
3.918644e+003, 3.422602e-003
3.920573e+003, 3.050728e-003
3.922501e+003, 3.611379e-003
3.924430e+003, 4.309122e-003
3.926358e+003, 3.855305e-003
3.928287e+003, 3.923710e-003
3.930215e+003, 4.073374e-003
3.932144e+003, 3.449890e-003
3.934072e+003, 3.561280e-003
3.936000e+003, 3.897725e-003
3.937929e+003, 3.868882e-003
3.939857e+003, 3.906862e-003
3.941786e+003, 3.820525e-003
3.943714e+003, 3.455976e-003
3.945643e+003, 3.918036e-003
3.947571e+003, 4.280883e-003
3.949500e+003, 4.063219e-003
3.951428e+003, 3.586893e-003
3.953357e+003, 3.113373e-003
3.955285e+003, 2.385825e-003
3.957214e+003, 2.736654e-003
3.959142e+003, 3.365611e-003
3.961071e+003, 3.832291e-003
3.962999e+003, 4.290332e-003
3.964927e+003, 4.099994e-003
3.966856e+003, 3.648929e-003
3.968784e+003, 2.991113e-003
3.970713e+003, 3.707942e-003
3.972641e+003, 3.926207e-003
3.974570e+003, 3.643011e-003
3.976498e+003, 3.765309e-003
3.978427e+003, 4.275814e-003
3.980355e+003, 4.045582e-003
3.982284e+003, 3.274510e-003
3.984212e+003, 2.975601e-003
3.986141e+003, 3.262031e-003
3.988069e+003, 3.421276e-003
3.989998e+003, 3.664677e-003
3.991926e+003, 4.301857e-003
3.993854e+003, 4.379134e-003
3.995783e+003, 4.282084e-003
3.997711e+003, 4.341229e-003
3.999640e+003, 4.187339e-003
##END=



