##NAMES=Nontronite
##RRUFFID=R070286
##IDEAL CHEMISTRY=Na_0.3_Fe^3+^_2_(Si,Al)_4_O_10_(OH)_2_&#183;nH_2_O
##LOCALITY=Andreasberg, Sachsen, Germany
##OWNER=RRUFF
##SOURCE=Michael Scott
##DESCRIPTION=Green granular massive mixed with quartz
##STATUS=The identification of this mineral has been confirmed only by chemical analysis
##URL=rruff.info/R070286
##MEASURED CHEMISTRY=(Ca_0.19_Na_0.02_)_Σ=0.21_(Fe^3+^_1.93_Mg_0.07_)_Σ=2_(Si_3.67_Fe^3+^_0.21_Al_0.12_)_Σ=4_O_10_(OH)_2_·2.67H_2_O; OH estimated by charge balance; H_2_O by difference
3.991926e+002, 2.958443e-001
4.011211e+002, 2.995196e-001
4.030495e+002, 3.045484e-001
4.049780e+002, 2.999073e-001
4.069065e+002, 2.982341e-001
4.088349e+002, 3.038138e-001
4.107634e+002, 3.060755e-001
4.126919e+002, 3.079189e-001
4.146203e+002, 3.020420e-001
4.165488e+002, 2.960854e-001
4.184773e+002, 2.977736e-001
4.204057e+002, 2.954353e-001
4.223342e+002, 2.884923e-001
4.242627e+002, 2.838881e-001
4.261911e+002, 2.816643e-001
4.281196e+002, 2.767993e-001
4.300481e+002, 2.671212e-001
4.319765e+002, 2.594742e-001
4.339050e+002, 2.548799e-001
4.358335e+002, 2.497554e-001
4.377619e+002, 2.469570e-001
4.396904e+002, 2.440113e-001
4.416189e+002, 2.392303e-001
4.435473e+002, 2.361360e-001
4.454758e+002, 2.329619e-001
4.474043e+002, 2.305338e-001
4.493327e+002, 2.272340e-001
4.512612e+002, 2.239965e-001
4.531897e+002, 2.210927e-001
4.551181e+002, 2.180108e-001
4.570466e+002, 2.143842e-001
4.589751e+002, 2.119835e-001
4.609035e+002, 2.108174e-001
4.628320e+002, 2.088871e-001
4.647605e+002, 2.083296e-001
4.666889e+002, 2.113032e-001
4.686174e+002, 2.156573e-001
4.705459e+002, 2.212079e-001
4.724743e+002, 2.302169e-001
4.744028e+002, 2.421768e-001
4.763313e+002, 2.548093e-001
4.782597e+002, 2.665252e-001
4.801882e+002, 2.747701e-001
4.821167e+002, 2.769201e-001
4.840451e+002, 2.729591e-001
4.859736e+002, 2.643891e-001
4.879021e+002, 2.533067e-001
4.898305e+002, 2.414548e-001
4.917590e+002, 2.291312e-001
4.936875e+002, 2.174696e-001
4.956159e+002, 2.075364e-001
4.975444e+002, 1.986564e-001
4.994729e+002, 1.902070e-001
5.014013e+002, 1.829770e-001
5.033298e+002, 1.769132e-001
5.052583e+002, 1.717228e-001
5.071867e+002, 1.664137e-001
5.091152e+002, 1.603436e-001
5.110437e+002, 1.558349e-001
5.129721e+002, 1.518224e-001
5.149006e+002, 1.474098e-001
5.168290e+002, 1.438173e-001
5.187575e+002, 1.407735e-001
5.206860e+002, 1.378260e-001
5.226144e+002, 1.343158e-001
5.245429e+002, 1.310526e-001
5.264714e+002, 1.290193e-001
5.283998e+002, 1.266122e-001
5.303283e+002, 1.242947e-001
5.322568e+002, 1.216677e-001
5.341852e+002, 1.190942e-001
5.361137e+002, 1.169109e-001
5.380422e+002, 1.148212e-001
5.399706e+002, 1.132616e-001
5.418991e+002, 1.122635e-001
5.438276e+002, 1.110320e-001
5.457560e+002, 1.095155e-001
5.476845e+002, 1.086645e-001
5.496130e+002, 1.086859e-001
5.515414e+002, 1.088421e-001
5.534699e+002, 1.088443e-001
5.553984e+002, 1.089767e-001
5.573268e+002, 1.095608e-001
5.592553e+002, 1.101630e-001
5.611838e+002, 1.108152e-001
5.631122e+002, 1.120167e-001
5.650407e+002, 1.134819e-001
5.669692e+002, 1.150310e-001
5.688976e+002, 1.166465e-001
5.708261e+002, 1.180896e-001
5.727546e+002, 1.194287e-001
5.746830e+002, 1.212277e-001
5.766115e+002, 1.228538e-001
5.785400e+002, 1.248266e-001
5.804684e+002, 1.266071e-001
5.823969e+002, 1.278829e-001
5.843254e+002, 1.287377e-001
5.862538e+002, 1.296475e-001
5.881823e+002, 1.304182e-001
5.901108e+002, 1.304037e-001
5.920392e+002, 1.302856e-001
5.939677e+002, 1.299911e-001
5.958962e+002, 1.289466e-001
5.978246e+002, 1.277689e-001
5.997531e+002, 1.265707e-001
6.016816e+002, 1.254099e-001
6.036100e+002, 1.245587e-001
6.055385e+002, 1.237221e-001
6.074670e+002, 1.231612e-001
6.093954e+002, 1.225050e-001
6.113239e+002, 1.222995e-001
6.132524e+002, 1.223610e-001
6.151808e+002, 1.225574e-001
6.171093e+002, 1.225670e-001
6.190378e+002, 1.227062e-001
6.209662e+002, 1.230824e-001
6.228947e+002, 1.234871e-001
6.248232e+002, 1.240354e-001
6.267516e+002, 1.250317e-001
6.286801e+002, 1.260716e-001
6.306086e+002, 1.270091e-001
6.325370e+002, 1.283456e-001
6.344655e+002, 1.299972e-001
6.363940e+002, 1.316701e-001
6.383224e+002, 1.333991e-001
6.402509e+002, 1.352717e-001
6.421794e+002, 1.370810e-001
6.441078e+002, 1.392480e-001
6.460363e+002, 1.414175e-001
6.479648e+002, 1.434129e-001
6.498932e+002, 1.453987e-001
6.518217e+002, 1.475584e-001
6.537502e+002, 1.497999e-001
6.556786e+002, 1.521224e-001
6.576071e+002, 1.545721e-001
6.595356e+002, 1.570098e-001
6.614641e+002, 1.590356e-001
6.633925e+002, 1.607245e-001
6.653210e+002, 1.620013e-001
6.672495e+002, 1.626992e-001
6.691779e+002, 1.622228e-001
6.711064e+002, 1.605356e-001
6.730349e+002, 1.578493e-001
6.749633e+002, 1.545240e-001
6.768918e+002, 1.502044e-001
6.788203e+002, 1.447513e-001
6.807487e+002, 1.388860e-001
6.826772e+002, 1.332702e-001
6.846057e+002, 1.284680e-001
6.865341e+002, 1.245388e-001
6.884626e+002, 1.214776e-001
6.903911e+002, 1.196103e-001
6.923195e+002, 1.185854e-001
6.942480e+002, 1.178372e-001
6.961765e+002, 1.171031e-001
6.981049e+002, 1.165001e-001
7.000334e+002, 1.162988e-001
7.019619e+002, 1.157374e-001
7.038903e+002, 1.152420e-001
7.058188e+002, 1.148116e-001
7.077473e+002, 1.144256e-001
7.096757e+002, 1.141857e-001
7.116042e+002, 1.143550e-001
7.135327e+002, 1.146706e-001
7.154611e+002, 1.151931e-001
7.173896e+002, 1.161870e-001
7.193181e+002, 1.171035e-001
7.212465e+002, 1.181201e-001
7.231750e+002, 1.196490e-001
7.251035e+002, 1.218164e-001
7.270319e+002, 1.243178e-001
7.289604e+002, 1.266050e-001
7.308889e+002, 1.280773e-001
7.328173e+002, 1.281929e-001
7.347458e+002, 1.272993e-001
7.366743e+002, 1.264409e-001
7.386027e+002, 1.263133e-001
7.405312e+002, 1.267772e-001
7.424597e+002, 1.274699e-001
7.443881e+002, 1.284786e-001
7.463166e+002, 1.298021e-001
7.482451e+002, 1.311447e-001
7.501735e+002, 1.328080e-001
7.521020e+002, 1.344363e-001
7.540305e+002, 1.360434e-001
7.559589e+002, 1.377914e-001
7.578874e+002, 1.397054e-001
7.598159e+002, 1.422490e-001
7.617443e+002, 1.450833e-001
7.636728e+002, 1.481715e-001
7.656013e+002, 1.518843e-001
7.675297e+002, 1.562683e-001
7.694582e+002, 1.613086e-001
7.713867e+002, 1.668196e-001
7.733151e+002, 1.722062e-001
7.752436e+002, 1.778715e-001
7.771721e+002, 1.832440e-001
7.791005e+002, 1.874209e-001
7.810290e+002, 1.903471e-001
7.829575e+002, 1.921909e-001
7.848859e+002, 1.928694e-001
7.868144e+002, 1.927238e-001
7.887429e+002, 1.924809e-001
7.906713e+002, 1.927821e-001
7.925998e+002, 1.940489e-001
7.945283e+002, 1.964256e-001
7.964567e+002, 2.000671e-001
7.983852e+002, 2.051866e-001
8.003137e+002, 2.117323e-001
8.022421e+002, 2.195827e-001
8.041706e+002, 2.294010e-001
8.060991e+002, 2.406726e-001
8.080275e+002, 2.521853e-001
8.099560e+002, 2.628568e-001
8.118845e+002, 2.718474e-001
8.138129e+002, 2.778800e-001
8.157414e+002, 2.798329e-001
8.176699e+002, 2.773470e-001
8.195983e+002, 2.705726e-001
8.215268e+002, 2.609054e-001
8.234553e+002, 2.495824e-001
8.253837e+002, 2.380502e-001
8.273122e+002, 2.276553e-001
8.292407e+002, 2.195195e-001
8.311691e+002, 2.143879e-001
8.330976e+002, 2.125467e-001
8.350261e+002, 2.142914e-001
8.369545e+002, 2.192483e-001
8.388830e+002, 2.274067e-001
8.408115e+002, 2.374981e-001
8.427399e+002, 2.476320e-001
8.446684e+002, 2.559358e-001
8.465969e+002, 2.602506e-001
8.485253e+002, 2.605900e-001
8.504538e+002, 2.579252e-001
8.523823e+002, 2.528836e-001
8.543107e+002, 2.465794e-001
8.562392e+002, 2.405547e-001
8.581677e+002, 2.362381e-001
8.600961e+002, 2.328918e-001
8.620246e+002, 2.302097e-001
8.639531e+002, 2.290967e-001
8.658815e+002, 2.299087e-001
8.678100e+002, 2.320417e-001
8.697385e+002, 2.352792e-001
8.716669e+002, 2.397449e-001
8.735954e+002, 2.450394e-001
8.755239e+002, 2.511954e-001
8.774523e+002, 2.585617e-001
8.793808e+002, 2.671281e-001
8.813093e+002, 2.766380e-001
8.832377e+002, 2.867599e-001
8.851662e+002, 2.976850e-001
8.870947e+002, 3.091399e-001
8.890231e+002, 3.208836e-001
8.909516e+002, 3.331343e-001
8.928801e+002, 3.458744e-001
8.948085e+002, 3.589450e-001
8.967370e+002, 3.721017e-001
8.986655e+002, 3.856491e-001
9.005939e+002, 3.993852e-001
9.025224e+002, 4.130934e-001
9.044509e+002, 4.268910e-001
9.063793e+002, 4.402921e-001
9.083078e+002, 4.528784e-001
9.102363e+002, 4.650725e-001
9.121647e+002, 4.767156e-001
9.140932e+002, 4.873659e-001
9.160217e+002, 4.977987e-001
9.179501e+002, 5.073253e-001
9.198786e+002, 5.157634e-001
9.218071e+002, 5.236628e-001
9.237355e+002, 5.305685e-001
9.256640e+002, 5.368515e-001
9.275925e+002, 5.422164e-001
9.295209e+002, 5.463886e-001
9.314494e+002, 5.498994e-001
9.333779e+002, 5.528117e-001
9.353063e+002, 5.546134e-001
9.372348e+002, 5.560985e-001
9.391633e+002, 5.574895e-001
9.410917e+002, 5.584559e-001
9.430202e+002, 5.588893e-001
9.449487e+002, 5.594184e-001
9.468771e+002, 5.594922e-001
9.488056e+002, 5.592062e-001
9.507341e+002, 5.586365e-001
9.526625e+002, 5.575084e-001
9.545910e+002, 5.562426e-001
9.565195e+002, 5.547011e-001
9.584479e+002, 5.517923e-001
9.603764e+002, 5.484941e-001
9.623049e+002, 5.451402e-001
9.642333e+002, 5.410445e-001
9.661618e+002, 5.368585e-001
9.680903e+002, 5.325915e-001
9.700187e+002, 5.279031e-001
9.719472e+002, 5.233096e-001
9.738757e+002, 5.189584e-001
9.758041e+002, 5.147975e-001
9.777326e+002, 5.109241e-001
9.796611e+002, 5.074084e-001
9.815895e+002, 5.041017e-001
9.835180e+002, 5.006684e-001
9.854465e+002, 4.970769e-001
9.873749e+002, 4.928971e-001
9.893034e+002, 4.884408e-001
9.912319e+002, 4.839005e-001
9.931603e+002, 4.785908e-001
9.950888e+002, 4.725612e-001
9.970173e+002, 4.662174e-001
9.989457e+002, 4.596246e-001
1.000874e+003, 4.526112e-001
1.002803e+003, 4.452155e-001
1.004731e+003, 4.375408e-001
1.006660e+003, 4.298069e-001
1.008588e+003, 4.217893e-001
1.010517e+003, 4.134704e-001
1.012445e+003, 4.050126e-001
1.014373e+003, 3.965042e-001
1.016302e+003, 3.879528e-001
1.018230e+003, 3.792029e-001
1.020159e+003, 3.698663e-001
1.022087e+003, 3.601365e-001
1.024016e+003, 3.501385e-001
1.025944e+003, 3.397150e-001
1.027873e+003, 3.283811e-001
1.029801e+003, 3.161995e-001
1.031730e+003, 3.032080e-001
1.033658e+003, 2.889225e-001
1.035587e+003, 2.736491e-001
1.037515e+003, 2.582101e-001
1.039443e+003, 2.434299e-001
1.041372e+003, 2.300280e-001
1.043300e+003, 2.182550e-001
1.045229e+003, 2.085922e-001
1.047157e+003, 2.010620e-001
1.049086e+003, 1.949916e-001
1.051014e+003, 1.898947e-001
1.052943e+003, 1.855425e-001
1.054871e+003, 1.815906e-001
1.056800e+003, 1.778992e-001
1.058728e+003, 1.743020e-001
1.060657e+003, 1.707924e-001
1.062585e+003, 1.671027e-001
1.064514e+003, 1.631486e-001
1.066442e+003, 1.592782e-001
1.068370e+003, 1.557723e-001
1.070299e+003, 1.522070e-001
1.072227e+003, 1.487088e-001
1.074156e+003, 1.455778e-001
1.076084e+003, 1.425262e-001
1.078013e+003, 1.395412e-001
1.079941e+003, 1.370419e-001
1.081870e+003, 1.349340e-001
1.083798e+003, 1.328494e-001
1.085727e+003, 1.309133e-001
1.087655e+003, 1.290534e-001
1.089584e+003, 1.274513e-001
1.091512e+003, 1.263275e-001
1.093441e+003, 1.251343e-001
1.095369e+003, 1.240570e-001
1.097297e+003, 1.233313e-001
1.099226e+003, 1.226747e-001
1.101154e+003, 1.219791e-001
1.103083e+003, 1.211915e-001
1.105011e+003, 1.202664e-001
1.106940e+003, 1.191744e-001
1.108868e+003, 1.178314e-001
1.110797e+003, 1.160407e-001
1.112725e+003, 1.140284e-001
1.114654e+003, 1.115566e-001
1.116582e+003, 1.085041e-001
1.118511e+003, 1.051711e-001
1.120439e+003, 1.016858e-001
1.122368e+003, 9.812170e-002
1.124296e+003, 9.461972e-002
1.126224e+003, 9.115995e-002
1.128153e+003, 8.745614e-002
1.130081e+003, 8.366007e-002
1.132010e+003, 7.978816e-002
1.133938e+003, 7.567582e-002
1.135867e+003, 7.163133e-002
1.137795e+003, 6.782554e-002
1.139724e+003, 6.405258e-002
1.141652e+003, 6.045006e-002
1.143581e+003, 5.706806e-002
1.145509e+003, 5.380743e-002
1.147438e+003, 5.069331e-002
1.149366e+003, 4.762919e-002
1.151295e+003, 4.462907e-002
1.153223e+003, 4.192795e-002
1.155151e+003, 3.932758e-002
1.157080e+003, 3.697228e-002
1.159008e+003, 3.499306e-002
1.160937e+003, 3.312123e-002
1.162865e+003, 3.126825e-002
1.164794e+003, 2.948933e-002
1.166722e+003, 2.799810e-002
1.168651e+003, 2.664452e-002
1.170579e+003, 2.526302e-002
1.172508e+003, 2.400880e-002
1.174436e+003, 2.296094e-002
1.176365e+003, 2.212691e-002
1.178293e+003, 2.137345e-002
1.180222e+003, 2.069508e-002
1.182150e+003, 2.010015e-002
1.184078e+003, 1.954274e-002
1.186007e+003, 1.908997e-002
1.187935e+003, 1.866473e-002
1.189864e+003, 1.833148e-002
1.191792e+003, 1.818530e-002
1.193721e+003, 1.810642e-002
1.195649e+003, 1.794228e-002
1.197578e+003, 1.776756e-002
1.199506e+003, 1.753384e-002
1.201435e+003, 1.707096e-002
1.203363e+003, 1.658119e-002
1.205292e+003, 1.612673e-002
1.207220e+003, 1.585394e-002
1.209149e+003, 1.567230e-002
1.211077e+003, 1.534127e-002
1.213005e+003, 1.505429e-002
1.214934e+003, 1.507089e-002
1.216862e+003, 1.493586e-002
1.218791e+003, 1.470172e-002
1.220719e+003, 1.459563e-002
1.222648e+003, 1.453978e-002
1.224576e+003, 1.442171e-002
1.226505e+003, 1.426336e-002
1.228433e+003, 1.415655e-002
1.230362e+003, 1.427291e-002
1.232290e+003, 1.441351e-002
1.234219e+003, 1.445652e-002
1.236147e+003, 1.446913e-002
1.238076e+003, 1.445324e-002
1.240004e+003, 1.443790e-002
1.241932e+003, 1.451111e-002
1.243861e+003, 1.443637e-002
1.245789e+003, 1.438194e-002
1.247718e+003, 1.444641e-002
1.249646e+003, 1.444356e-002
1.251575e+003, 1.440514e-002
1.253503e+003, 1.446129e-002
1.255432e+003, 1.444467e-002
1.257360e+003, 1.449775e-002
1.259289e+003, 1.462793e-002
1.261217e+003, 1.465304e-002
1.263146e+003, 1.481525e-002
1.265074e+003, 1.509756e-002
1.267003e+003, 1.515713e-002
1.268931e+003, 1.523090e-002
1.270859e+003, 1.536271e-002
1.272788e+003, 1.554537e-002
1.274716e+003, 1.595245e-002
1.276645e+003, 1.651855e-002
1.278573e+003, 1.720802e-002
1.280502e+003, 1.791172e-002
1.282430e+003, 1.860560e-002
1.284359e+003, 1.931938e-002
1.286287e+003, 1.992803e-002
1.288216e+003, 2.030484e-002
1.290144e+003, 2.051435e-002
1.292073e+003, 2.075870e-002
1.294001e+003, 2.092928e-002
1.295930e+003, 2.095322e-002
1.297858e+003, 2.074739e-002
1.299786e+003, 2.035167e-002
1.301715e+003, 1.982353e-002
1.303643e+003, 1.920582e-002
1.305572e+003, 1.868178e-002
1.307500e+003, 1.832584e-002
1.309429e+003, 1.809714e-002
1.311357e+003, 1.781935e-002
1.313286e+003, 1.753576e-002
1.315214e+003, 1.718176e-002
1.317143e+003, 1.674202e-002
1.319071e+003, 1.654285e-002
1.321000e+003, 1.635167e-002
1.322928e+003, 1.613060e-002
1.324857e+003, 1.589971e-002
1.326785e+003, 1.574006e-002
1.328714e+003, 1.561061e-002
1.330642e+003, 1.546632e-002
1.332570e+003, 1.536941e-002
1.334499e+003, 1.530341e-002
1.336427e+003, 1.529000e-002
1.338356e+003, 1.532661e-002
1.340284e+003, 1.533714e-002
1.342213e+003, 1.530076e-002
1.344141e+003, 1.546364e-002
1.346070e+003, 1.563567e-002
1.347998e+003, 1.566209e-002
1.349927e+003, 1.575018e-002
1.351855e+003, 1.579939e-002
1.353784e+003, 1.583855e-002
1.355712e+003, 1.587826e-002
1.357641e+003, 1.601933e-002
1.359569e+003, 1.619636e-002
1.361497e+003, 1.630084e-002
1.363426e+003, 1.638438e-002
1.365354e+003, 1.644758e-002
1.367283e+003, 1.646106e-002
1.369211e+003, 1.647149e-002
1.371140e+003, 1.654455e-002
1.373068e+003, 1.668472e-002
1.374997e+003, 1.679721e-002
1.376925e+003, 1.682920e-002
1.378854e+003, 1.681691e-002
1.380782e+003, 1.680141e-002
1.382711e+003, 1.669390e-002
1.384639e+003, 1.661294e-002
1.386568e+003, 1.676105e-002
1.388496e+003, 1.690390e-002
1.390424e+003, 1.694176e-002
1.392353e+003, 1.705655e-002
1.394281e+003, 1.736543e-002
1.396210e+003, 1.766462e-002
1.398138e+003, 1.793410e-002
1.400067e+003, 1.816288e-002
1.401995e+003, 1.822839e-002
1.403924e+003, 1.844026e-002
1.405852e+003, 1.876630e-002
1.407781e+003, 1.927812e-002
1.409709e+003, 1.971179e-002
1.411638e+003, 2.002814e-002
1.413566e+003, 2.001737e-002
1.415495e+003, 1.988902e-002
1.417423e+003, 2.009226e-002
1.419351e+003, 2.042762e-002
1.421280e+003, 2.031019e-002
1.423208e+003, 2.027231e-002
1.425137e+003, 2.042523e-002
1.427065e+003, 2.063991e-002
1.428994e+003, 2.081595e-002
1.430922e+003, 2.102688e-002
1.432851e+003, 2.138399e-002
1.434779e+003, 2.207555e-002
1.436708e+003, 2.305567e-002
1.438636e+003, 2.394092e-002
1.440565e+003, 2.430623e-002
1.442493e+003, 2.386097e-002
1.444422e+003, 2.314262e-002
1.446350e+003, 2.257715e-002
1.448278e+003, 2.214508e-002
1.450207e+003, 2.179842e-002
1.452135e+003, 2.151052e-002
1.454064e+003, 2.145191e-002
1.455992e+003, 2.176096e-002
1.457921e+003, 2.156150e-002
1.459849e+003, 2.083572e-002
1.461778e+003, 2.028093e-002
1.463706e+003, 1.999333e-002
1.465635e+003, 1.980443e-002
1.467563e+003, 1.950845e-002
1.469492e+003, 1.907487e-002
1.471420e+003, 1.842230e-002
1.473349e+003, 1.771984e-002
1.475277e+003, 1.701626e-002
1.477205e+003, 1.636556e-002
1.479134e+003, 1.587565e-002
1.481062e+003, 1.567076e-002
1.482991e+003, 1.556562e-002
1.484919e+003, 1.553325e-002
1.486848e+003, 1.547820e-002
1.488776e+003, 1.536735e-002
1.490705e+003, 1.520646e-002
1.492633e+003, 1.509746e-002
1.494562e+003, 1.523692e-002
1.496490e+003, 1.535000e-002
1.498419e+003, 1.536781e-002
1.500347e+003, 1.538862e-002
1.502276e+003, 1.533141e-002
1.504204e+003, 1.588769e-002
1.506132e+003, 1.671649e-002
1.508061e+003, 1.681043e-002
1.509989e+003, 1.648545e-002
1.511918e+003, 1.641859e-002
1.513846e+003, 1.638756e-002
1.515775e+003, 1.659739e-002
1.517703e+003, 1.693380e-002
1.519632e+003, 1.730418e-002
1.521560e+003, 1.762420e-002
1.523489e+003, 1.760696e-002
1.525417e+003, 1.773656e-002
1.527346e+003, 1.803242e-002
1.529274e+003, 1.832491e-002
1.531203e+003, 1.878464e-002
1.533131e+003, 1.939062e-002
1.535059e+003, 1.981111e-002
1.536988e+003, 2.040793e-002
1.538916e+003, 2.131903e-002
1.540845e+003, 2.170802e-002
1.542773e+003, 2.181499e-002
1.544702e+003, 2.201728e-002
1.546630e+003, 2.245101e-002
1.548559e+003, 2.295639e-002
1.550487e+003, 2.347959e-002
1.552416e+003, 2.403178e-002
1.554344e+003, 2.468113e-002
1.556273e+003, 2.533077e-002
1.558201e+003, 2.639980e-002
1.560130e+003, 2.686358e-002
1.562058e+003, 2.674681e-002
1.563986e+003, 2.709651e-002
1.565915e+003, 2.774809e-002
1.567843e+003, 2.865350e-002
1.569772e+003, 2.975131e-002
1.571700e+003, 3.057805e-002
1.573629e+003, 3.165016e-002
1.575557e+003, 3.308051e-002
1.577486e+003, 3.393371e-002
1.579414e+003, 3.460997e-002
1.581343e+003, 3.553861e-002
1.583271e+003, 3.645778e-002
1.585200e+003, 3.739246e-002
1.587128e+003, 3.861343e-002
1.589057e+003, 4.018646e-002
1.590985e+003, 4.149690e-002
1.592913e+003, 4.288806e-002
1.594842e+003, 4.468216e-002
1.596770e+003, 4.674317e-002
1.598699e+003, 4.903051e-002
1.600627e+003, 5.158021e-002
1.602556e+003, 5.447526e-002
1.604484e+003, 5.762930e-002
1.606413e+003, 6.102409e-002
1.608341e+003, 6.500559e-002
1.610270e+003, 6.931007e-002
1.612198e+003, 7.400911e-002
1.614127e+003, 7.893785e-002
1.616055e+003, 8.421513e-002
1.617984e+003, 8.886531e-002
1.619912e+003, 9.300496e-002
1.621840e+003, 9.702060e-002
1.623769e+003, 1.003112e-001
1.625697e+003, 1.026147e-001
1.627626e+003, 1.043343e-001
1.629554e+003, 1.052024e-001
1.631483e+003, 1.053429e-001
1.633411e+003, 1.050168e-001
1.635340e+003, 1.041688e-001
1.637268e+003, 1.024371e-001
1.639197e+003, 1.003414e-001
1.641125e+003, 9.823061e-002
1.643054e+003, 9.595122e-002
1.644982e+003, 9.374104e-002
1.646911e+003, 9.109706e-002
1.648839e+003, 8.808300e-002
1.650767e+003, 8.553164e-002
1.652696e+003, 8.325765e-002
1.654624e+003, 7.993955e-002
1.656553e+003, 7.640863e-002
1.658481e+003, 7.334380e-002
1.660410e+003, 7.064142e-002
1.662338e+003, 6.815720e-002
1.664267e+003, 6.567450e-002
1.666195e+003, 6.334693e-002
1.668124e+003, 6.116361e-002
1.670052e+003, 5.886373e-002
1.671981e+003, 5.657858e-002
1.673909e+003, 5.463455e-002
1.675838e+003, 5.283380e-002
1.677766e+003, 5.081363e-002
1.679694e+003, 4.895081e-002
1.681623e+003, 4.748590e-002
1.683551e+003, 4.671212e-002
1.685480e+003, 4.539790e-002
1.687408e+003, 4.344942e-002
1.689337e+003, 4.214451e-002
1.691265e+003, 4.084565e-002
1.693194e+003, 3.938957e-002
1.695122e+003, 3.828285e-002
1.697051e+003, 3.658017e-002
1.698979e+003, 3.480967e-002
1.700908e+003, 3.310545e-002
1.702836e+003, 3.083235e-002
1.704765e+003, 2.903032e-002
1.706693e+003, 2.753867e-002
1.708621e+003, 2.613683e-002
1.710550e+003, 2.454154e-002
1.712478e+003, 2.331448e-002
1.714407e+003, 2.244162e-002
1.716335e+003, 2.170740e-002
1.718264e+003, 2.064007e-002
1.720192e+003, 1.936059e-002
1.722121e+003, 1.817849e-002
1.724049e+003, 1.717073e-002
1.725978e+003, 1.657023e-002
1.727906e+003, 1.605337e-002
1.729835e+003, 1.526759e-002
1.731763e+003, 1.480898e-002
1.733692e+003, 1.475107e-002
1.735620e+003, 1.404859e-002
1.737548e+003, 1.332908e-002
1.739477e+003, 1.312041e-002
1.741405e+003, 1.264764e-002
1.743334e+003, 1.222078e-002
1.745262e+003, 1.196079e-002
1.747191e+003, 1.175614e-002
1.749119e+003, 1.165275e-002
1.751048e+003, 1.154595e-002
1.752976e+003, 1.137122e-002
1.754905e+003, 1.110573e-002
1.756833e+003, 1.106561e-002
1.758762e+003, 1.107947e-002
1.760690e+003, 1.115526e-002
1.762619e+003, 1.115016e-002
1.764547e+003, 1.092463e-002
1.766475e+003, 1.086266e-002
1.768404e+003, 1.094489e-002
1.770332e+003, 1.112136e-002
1.772261e+003, 1.131557e-002
1.774189e+003, 1.109151e-002
1.776118e+003, 1.083739e-002
1.778046e+003, 1.060961e-002
1.779975e+003, 1.050609e-002
1.781903e+003, 1.069639e-002
1.783832e+003, 1.075321e-002
1.785760e+003, 1.074115e-002
1.787689e+003, 1.067605e-002
1.789617e+003, 1.071763e-002
1.791546e+003, 1.096418e-002
1.793474e+003, 1.104036e-002
1.795402e+003, 1.088548e-002
1.797331e+003, 1.079326e-002
1.799259e+003, 1.077378e-002
1.801188e+003, 1.079131e-002
1.803116e+003, 1.063558e-002
1.805045e+003, 1.054179e-002
1.806973e+003, 1.040470e-002
1.808902e+003, 1.014802e-002
1.810830e+003, 9.927007e-003
1.812759e+003, 9.900362e-003
1.814687e+003, 9.894451e-003
1.816616e+003, 9.879802e-003
1.818544e+003, 9.852654e-003
1.820473e+003, 9.827934e-003
1.822401e+003, 9.825332e-003
1.824329e+003, 9.825763e-003
1.826258e+003, 9.696426e-003
1.828186e+003, 9.403802e-003
1.830115e+003, 9.217157e-003
1.832043e+003, 9.006202e-003
1.833972e+003, 8.883066e-003
1.835900e+003, 8.920407e-003
1.837829e+003, 8.804485e-003
1.839757e+003, 8.615668e-003
1.841686e+003, 8.554074e-003
1.843614e+003, 8.662333e-003
1.845543e+003, 8.526587e-003
1.847471e+003, 8.365266e-003
1.849400e+003, 8.239470e-003
1.851328e+003, 8.103814e-003
1.853256e+003, 7.903139e-003
1.855185e+003, 7.988155e-003
1.857113e+003, 8.006106e-003
1.859042e+003, 7.745663e-003
1.860970e+003, 7.738149e-003
1.862899e+003, 7.716830e-003
1.864827e+003, 7.377447e-003
1.866756e+003, 7.163910e-003
1.868684e+003, 7.211667e-003
1.870613e+003, 7.199428e-003
1.872541e+003, 6.839382e-003
1.874470e+003, 6.706407e-003
1.876398e+003, 7.147955e-003
1.878327e+003, 7.313701e-003
1.880255e+003, 7.391372e-003
1.882183e+003, 7.302189e-003
1.884112e+003, 6.865764e-003
1.886040e+003, 6.886971e-003
1.887969e+003, 6.800839e-003
1.889897e+003, 6.928716e-003
1.891826e+003, 7.093186e-003
1.893754e+003, 6.933552e-003
1.895683e+003, 6.540690e-003
1.897611e+003, 6.628801e-003
1.899540e+003, 6.591083e-003
1.901468e+003, 6.709741e-003
1.903397e+003, 6.932343e-003
1.905325e+003, 7.107289e-003
1.907254e+003, 6.839799e-003
1.909182e+003, 6.659002e-003
1.911110e+003, 6.725347e-003
1.913039e+003, 6.478409e-003
1.914967e+003, 6.191057e-003
1.916896e+003, 6.331258e-003
1.918824e+003, 6.411740e-003
1.920753e+003, 6.314007e-003
1.922681e+003, 6.154172e-003
1.924610e+003, 5.507244e-003
1.926538e+003, 5.299479e-003
1.928467e+003, 5.740585e-003
1.930395e+003, 5.892958e-003
1.932324e+003, 5.953363e-003
1.934252e+003, 6.309024e-003
1.936181e+003, 6.335685e-003
1.938109e+003, 5.643692e-003
1.940037e+003, 5.409522e-003
1.941966e+003, 5.352487e-003
1.943894e+003, 4.966993e-003
1.945823e+003, 4.472876e-003
1.947751e+003, 4.431401e-003
1.949680e+003, 4.699373e-003
1.951608e+003, 4.617762e-003
1.953537e+003, 4.017988e-003
1.955465e+003, 3.455863e-003
1.957394e+003, 3.916673e-003
1.959322e+003, 4.836580e-003
1.961251e+003, 5.380217e-003
1.963179e+003, 4.774474e-003
1.965108e+003, 3.435648e-003
1.967036e+003, 2.874237e-003
1.968964e+003, 2.857635e-003
1.970893e+003, 3.194916e-003
1.972821e+003, 3.126622e-003
1.974750e+003, 3.260428e-003
1.976678e+003, 4.356762e-003
1.978607e+003, 5.975073e-003
1.980535e+003, 5.667650e-003
1.982464e+003, 5.686115e-003
1.984392e+003, 5.871707e-003
1.986321e+003, 5.029938e-003
1.988249e+003, 4.551020e-003
1.990178e+003, 4.595634e-003
1.992106e+003, 4.655682e-003
1.994035e+003, 4.215353e-003
1.995963e+003, 4.149084e-003
1.997891e+003, 4.638589e-003
1.999820e+003, 5.908508e-003
2.001748e+003, 5.563841e-003
2.003677e+003, 4.539237e-003
2.005605e+003, 3.733231e-003
2.007534e+003, 4.498446e-003
2.009462e+003, 5.008055e-003
2.011391e+003, 4.271486e-003
2.013319e+003, 3.914976e-003
2.015248e+003, 4.168900e-003
2.017176e+003, 4.627673e-003
2.019105e+003, 4.675084e-003
2.021033e+003, 4.305069e-003
2.022962e+003, 3.368895e-003
2.024890e+003, 3.635890e-003
2.026818e+003, 4.517422e-003
2.028747e+003, 4.874212e-003
2.030675e+003, 4.573266e-003
2.032604e+003, 4.573815e-003
2.034532e+003, 5.160619e-003
2.036461e+003, 4.699128e-003
2.038389e+003, 4.728413e-003
2.040318e+003, 5.449630e-003
2.042246e+003, 4.876866e-003
2.044175e+003, 4.876022e-003
2.046103e+003, 5.053559e-003
2.048031e+003, 5.652009e-003
2.049960e+003, 7.049222e-003
2.051888e+003, 7.539673e-003
2.053817e+003, 6.723647e-003
2.055745e+003, 6.723358e-003
2.057674e+003, 6.825733e-003
2.059602e+003, 6.393870e-003
2.061531e+003, 5.940369e-003
2.063459e+003, 5.791792e-003
2.065388e+003, 5.813054e-003
2.067316e+003, 6.283318e-003
2.069245e+003, 6.834406e-003
2.071173e+003, 7.494396e-003
2.073102e+003, 7.011931e-003
2.075030e+003, 6.632991e-003
2.076958e+003, 7.062356e-003
2.078887e+003, 7.552954e-003
2.080815e+003, 7.284139e-003
2.082744e+003, 6.999691e-003
2.084672e+003, 7.354072e-003
2.086601e+003, 7.597466e-003
2.088529e+003, 7.362579e-003
2.090458e+003, 6.837768e-003
2.092386e+003, 6.593664e-003
2.094315e+003, 7.062338e-003
2.096243e+003, 7.682139e-003
2.098172e+003, 7.942959e-003
2.100100e+003, 7.757039e-003
2.102029e+003, 8.103466e-003
2.103957e+003, 8.183268e-003
2.105885e+003, 7.852796e-003
2.107814e+003, 7.282839e-003
2.109742e+003, 7.627878e-003
2.111671e+003, 7.924487e-003
2.113599e+003, 7.711493e-003
2.115528e+003, 7.989856e-003
2.117456e+003, 7.691154e-003
2.119385e+003, 7.487708e-003
2.121313e+003, 7.473076e-003
2.123242e+003, 7.856233e-003
2.125170e+003, 7.900357e-003
2.127099e+003, 7.261040e-003
2.129027e+003, 7.126480e-003
2.130956e+003, 6.975959e-003
2.132884e+003, 6.272047e-003
2.134813e+003, 6.796746e-003
2.136741e+003, 7.671908e-003
2.138669e+003, 7.437434e-003
2.140598e+003, 6.982008e-003
2.142526e+003, 7.013616e-003
2.144455e+003, 7.382133e-003
2.146383e+003, 6.835327e-003
2.148312e+003, 6.539298e-003
2.150240e+003, 5.664205e-003
2.152169e+003, 5.844789e-003
2.154097e+003, 6.418361e-003
2.156026e+003, 6.366243e-003
2.157954e+003, 7.687756e-003
2.159883e+003, 9.328618e-003
2.161811e+003, 9.410376e-003
2.163740e+003, 9.601119e-003
2.165668e+003, 1.015819e-002
2.167596e+003, 9.545325e-003
2.169525e+003, 9.020799e-003
2.171453e+003, 7.552622e-003
2.173382e+003, 8.133799e-003
2.175310e+003, 8.610498e-003
2.177239e+003, 8.312637e-003
2.179167e+003, 8.244706e-003
2.181096e+003, 8.975817e-003
2.183024e+003, 9.325699e-003
2.184953e+003, 8.732935e-003
2.186881e+003, 8.345700e-003
2.188810e+003, 8.651782e-003
2.190738e+003, 8.577427e-003
2.192667e+003, 8.118885e-003
2.194595e+003, 8.420346e-003
2.196523e+003, 8.660562e-003
2.198452e+003, 7.995689e-003
2.200380e+003, 7.500449e-003
2.202309e+003, 8.250739e-003
2.204237e+003, 8.372566e-003
2.206166e+003, 8.195158e-003
2.208094e+003, 8.077739e-003
2.210023e+003, 7.743666e-003
2.211951e+003, 7.730836e-003
2.213880e+003, 7.989080e-003
2.215808e+003, 7.705062e-003
2.217737e+003, 7.953594e-003
2.219665e+003, 8.804245e-003
2.221594e+003, 8.665763e-003
2.223522e+003, 7.580438e-003
2.225450e+003, 7.893668e-003
2.227379e+003, 9.102624e-003
2.229307e+003, 9.504504e-003
2.231236e+003, 8.474679e-003
2.233164e+003, 8.132439e-003
2.235093e+003, 8.692505e-003
2.237021e+003, 9.146453e-003
2.238950e+003, 9.444324e-003
2.240878e+003, 9.035069e-003
2.242807e+003, 8.303624e-003
2.244735e+003, 7.987456e-003
2.246664e+003, 8.866851e-003
2.248592e+003, 9.283487e-003
2.250521e+003, 8.693966e-003
2.252449e+003, 8.769809e-003
2.254377e+003, 8.683377e-003
2.256306e+003, 8.951360e-003
2.258234e+003, 9.015021e-003
2.260163e+003, 8.208197e-003
2.262091e+003, 8.239626e-003
2.264020e+003, 8.583460e-003
2.265948e+003, 8.588642e-003
2.267877e+003, 8.387437e-003
2.269805e+003, 8.668699e-003
2.271734e+003, 9.206129e-003
2.273662e+003, 9.429500e-003
2.275591e+003, 9.553090e-003
2.277519e+003, 9.514512e-003
2.279448e+003, 9.453082e-003
2.281376e+003, 9.262628e-003
2.283304e+003, 9.429526e-003
2.285233e+003, 9.571005e-003
2.287161e+003, 9.297172e-003
2.289090e+003, 8.937894e-003
2.291018e+003, 8.936957e-003
2.292947e+003, 8.339047e-003
2.294875e+003, 7.954871e-003
2.296804e+003, 8.307132e-003
2.298732e+003, 8.437197e-003
2.300661e+003, 8.447322e-003
2.302589e+003, 8.546782e-003
2.304518e+003, 8.492899e-003
2.306446e+003, 8.647469e-003
2.308375e+003, 8.885141e-003
2.310303e+003, 8.532999e-003
2.312231e+003, 8.372457e-003
2.314160e+003, 8.818473e-003
2.316088e+003, 9.262490e-003
2.318017e+003, 9.315556e-003
2.319945e+003, 9.315223e-003
2.321874e+003, 9.413088e-003
2.323802e+003, 9.654756e-003
2.325731e+003, 9.428568e-003
2.327659e+003, 8.962015e-003
2.329588e+003, 8.739654e-003
2.331516e+003, 8.604827e-003
2.333445e+003, 8.611330e-003
2.335373e+003, 8.964187e-003
2.337302e+003, 8.935260e-003
2.339230e+003, 8.835896e-003
2.341158e+003, 8.771740e-003
2.343087e+003, 8.719961e-003
2.345015e+003, 8.695351e-003
2.346944e+003, 8.586814e-003
2.348872e+003, 8.483998e-003
2.350801e+003, 8.537782e-003
2.352729e+003, 8.513810e-003
2.354658e+003, 8.590820e-003
2.356586e+003, 8.801611e-003
2.358515e+003, 8.952005e-003
2.360443e+003, 9.054646e-003
2.362372e+003, 9.106977e-003
2.364300e+003, 8.927026e-003
2.366229e+003, 8.840556e-003
2.368157e+003, 8.586737e-003
2.370085e+003, 8.225409e-003
2.372014e+003, 8.106447e-003
2.373942e+003, 8.095647e-003
2.375871e+003, 7.787133e-003
2.377799e+003, 7.452711e-003
2.379728e+003, 7.422460e-003
2.381656e+003, 7.580776e-003
2.383585e+003, 7.655073e-003
2.385513e+003, 7.733983e-003
2.387442e+003, 7.563452e-003
2.389370e+003, 7.614881e-003
2.391299e+003, 7.579731e-003
2.393227e+003, 7.812072e-003
2.395156e+003, 7.632915e-003
2.397084e+003, 6.914111e-003
2.399012e+003, 6.961703e-003
2.400941e+003, 7.237585e-003
2.402869e+003, 7.045576e-003
2.404798e+003, 6.817781e-003
2.406726e+003, 7.161340e-003
2.408655e+003, 7.274714e-003
2.410583e+003, 7.529574e-003
2.412512e+003, 7.546954e-003
2.414440e+003, 7.257425e-003
2.416369e+003, 7.072429e-003
2.418297e+003, 7.142168e-003
2.420226e+003, 6.853435e-003
2.422154e+003, 6.920252e-003
2.424083e+003, 7.497453e-003
2.426011e+003, 7.649247e-003
2.427939e+003, 7.358268e-003
2.429868e+003, 7.078732e-003
2.431796e+003, 7.318989e-003
2.433725e+003, 7.398498e-003
2.435653e+003, 7.338052e-003
2.437582e+003, 6.967340e-003
2.439510e+003, 6.741340e-003
2.441439e+003, 6.626033e-003
2.443367e+003, 7.032233e-003
2.445296e+003, 7.366514e-003
2.447224e+003, 7.160241e-003
2.449153e+003, 6.737088e-003
2.451081e+003, 6.789308e-003
2.453010e+003, 7.222699e-003
2.454938e+003, 7.190138e-003
2.456866e+003, 7.000199e-003
2.458795e+003, 6.851134e-003
2.460723e+003, 6.321744e-003
2.462652e+003, 6.105880e-003
2.464580e+003, 6.589643e-003
2.466509e+003, 6.693821e-003
2.468437e+003, 6.735682e-003
2.470366e+003, 6.869129e-003
2.472294e+003, 6.692651e-003
2.474223e+003, 6.435521e-003
2.476151e+003, 6.556686e-003
2.478080e+003, 6.678031e-003
2.480008e+003, 6.738147e-003
2.481937e+003, 6.562767e-003
2.483865e+003, 6.380111e-003
2.485793e+003, 6.719667e-003
2.487722e+003, 7.156350e-003
2.489650e+003, 7.139675e-003
2.491579e+003, 6.626547e-003
2.493507e+003, 6.161815e-003
2.495436e+003, 6.317601e-003
2.497364e+003, 6.747879e-003
2.499293e+003, 6.849590e-003
2.501221e+003, 6.847722e-003
2.503150e+003, 6.940908e-003
2.505078e+003, 6.792241e-003
2.507007e+003, 6.230439e-003
2.508935e+003, 6.100476e-003
2.510864e+003, 6.301716e-003
2.512792e+003, 6.380338e-003
2.514720e+003, 6.903740e-003
2.516649e+003, 6.873716e-003
2.518577e+003, 6.497075e-003
2.520506e+003, 6.481320e-003
2.522434e+003, 6.772080e-003
2.524363e+003, 6.658708e-003
2.526291e+003, 6.573278e-003
2.528220e+003, 6.556490e-003
2.530148e+003, 6.797402e-003
2.532077e+003, 7.240043e-003
2.534005e+003, 7.061779e-003
2.535934e+003, 6.970511e-003
2.537862e+003, 6.979979e-003
2.539791e+003, 6.802910e-003
2.541719e+003, 6.903511e-003
2.543647e+003, 7.424416e-003
2.545576e+003, 7.358064e-003
2.547504e+003, 7.030972e-003
2.549433e+003, 6.801197e-003
2.551361e+003, 6.730243e-003
2.553290e+003, 7.027059e-003
2.555218e+003, 7.269949e-003
2.557147e+003, 7.120499e-003
2.559075e+003, 6.885361e-003
2.561004e+003, 7.194993e-003
2.562932e+003, 7.552689e-003
2.564861e+003, 7.781042e-003
2.566789e+003, 7.914441e-003
2.568718e+003, 7.762535e-003
2.570646e+003, 7.457683e-003
2.572574e+003, 7.402638e-003
2.574503e+003, 7.332379e-003
2.576431e+003, 7.340301e-003
2.578360e+003, 7.641835e-003
2.580288e+003, 8.085521e-003
2.582217e+003, 7.850065e-003
2.584145e+003, 8.120755e-003
2.586074e+003, 8.220053e-003
2.588002e+003, 8.134564e-003
2.589931e+003, 7.683506e-003
2.591859e+003, 7.413466e-003
2.593788e+003, 7.581379e-003
2.595716e+003, 7.693370e-003
2.597645e+003, 7.696671e-003
2.599573e+003, 7.970929e-003
2.601501e+003, 8.372060e-003
2.603430e+003, 8.476666e-003
2.605358e+003, 8.341216e-003
2.607287e+003, 8.628878e-003
2.609215e+003, 8.418834e-003
2.611144e+003, 8.405820e-003
2.613072e+003, 8.582325e-003
2.615001e+003, 8.647076e-003
2.616929e+003, 9.009211e-003
2.618858e+003, 9.205768e-003
2.620786e+003, 8.971591e-003
2.622715e+003, 8.937581e-003
2.624643e+003, 8.903675e-003
2.626572e+003, 8.831307e-003
2.628500e+003, 9.186391e-003
2.630428e+003, 9.658092e-003
2.632357e+003, 9.433983e-003
2.634285e+003, 9.151939e-003
2.636214e+003, 9.241874e-003
2.638142e+003, 9.420679e-003
2.640071e+003, 9.599938e-003
2.641999e+003, 9.860701e-003
2.643928e+003, 9.758445e-003
2.645856e+003, 9.737198e-003
2.647785e+003, 9.976771e-003
2.649713e+003, 1.009840e-002
2.651642e+003, 9.756080e-003
2.653570e+003, 9.668333e-003
2.655499e+003, 9.887890e-003
2.657427e+003, 9.954246e-003
2.659355e+003, 1.007144e-002
2.661284e+003, 1.030142e-002
2.663212e+003, 1.043464e-002
2.665141e+003, 1.036006e-002
2.667069e+003, 1.031917e-002
2.668998e+003, 1.056713e-002
2.670926e+003, 1.033709e-002
2.672855e+003, 1.009344e-002
2.674783e+003, 1.033928e-002
2.676712e+003, 1.046577e-002
2.678640e+003, 1.027356e-002
2.680569e+003, 1.075534e-002
2.682497e+003, 1.110554e-002
2.684426e+003, 1.096810e-002
2.686354e+003, 1.081529e-002
2.688282e+003, 1.064464e-002
2.690211e+003, 1.106561e-002
2.692139e+003, 1.169028e-002
2.694068e+003, 1.161862e-002
2.695996e+003, 1.137411e-002
2.697925e+003, 1.157446e-002
2.699853e+003, 1.197617e-002
2.701782e+003, 1.206849e-002
2.703710e+003, 1.196501e-002
2.705639e+003, 1.200979e-002
2.707567e+003, 1.232756e-002
2.709496e+003, 1.248152e-002
2.711424e+003, 1.247908e-002
2.713353e+003, 1.254496e-002
2.715281e+003, 1.253572e-002
2.717209e+003, 1.258142e-002
2.719138e+003, 1.270192e-002
2.721066e+003, 1.279599e-002
2.722995e+003, 1.297217e-002
2.724923e+003, 1.333534e-002
2.726852e+003, 1.353733e-002
2.728780e+003, 1.369930e-002
2.730709e+003, 1.393750e-002
2.732637e+003, 1.393948e-002
2.734566e+003, 1.399363e-002
2.736494e+003, 1.422767e-002
2.738423e+003, 1.431486e-002
2.740351e+003, 1.430669e-002
2.742280e+003, 1.434097e-002
2.744208e+003, 1.433821e-002
2.746136e+003, 1.464201e-002
2.748065e+003, 1.491783e-002
2.749993e+003, 1.513389e-002
2.751922e+003, 1.519200e-002
2.753850e+003, 1.493369e-002
2.755779e+003, 1.504191e-002
2.757707e+003, 1.558795e-002
2.759636e+003, 1.592489e-002
2.761564e+003, 1.591454e-002
2.763493e+003, 1.616806e-002
2.765421e+003, 1.634053e-002
2.767350e+003, 1.612248e-002
2.769278e+003, 1.614333e-002
2.771207e+003, 1.624581e-002
2.773135e+003, 1.647107e-002
2.775063e+003, 1.669483e-002
2.776992e+003, 1.679023e-002
2.778920e+003, 1.694842e-002
2.780849e+003, 1.714150e-002
2.782777e+003, 1.747685e-002
2.784706e+003, 1.790807e-002
2.786634e+003, 1.817296e-002
2.788563e+003, 1.803421e-002
2.790491e+003, 1.790596e-002
2.792420e+003, 1.797969e-002
2.794348e+003, 1.836382e-002
2.796277e+003, 1.874418e-002
2.798205e+003, 1.894188e-002
2.800134e+003, 1.911848e-002
2.802062e+003, 1.948238e-002
2.803990e+003, 1.981126e-002
2.805919e+003, 1.977418e-002
2.807847e+003, 1.990523e-002
2.809776e+003, 2.021630e-002
2.811704e+003, 2.055900e-002
2.813633e+003, 2.093744e-002
2.815561e+003, 2.139025e-002
2.817490e+003, 2.163704e-002
2.819418e+003, 2.194506e-002
2.821347e+003, 2.247022e-002
2.823275e+003, 2.288555e-002
2.825204e+003, 2.319891e-002
2.827132e+003, 2.369502e-002
2.829061e+003, 2.412068e-002
2.830989e+003, 2.439172e-002
2.832917e+003, 2.511325e-002
2.834846e+003, 2.635390e-002
2.836774e+003, 2.745079e-002
2.838703e+003, 2.848444e-002
2.840631e+003, 2.966760e-002
2.842560e+003, 3.078269e-002
2.844488e+003, 3.175119e-002
2.846417e+003, 3.271483e-002
2.848345e+003, 3.443896e-002
2.850274e+003, 3.642790e-002
2.852202e+003, 3.765327e-002
2.854131e+003, 3.826732e-002
2.856059e+003, 3.828795e-002
2.857988e+003, 3.793788e-002
2.859916e+003, 3.706142e-002
2.861844e+003, 3.590784e-002
2.863773e+003, 3.524519e-002
2.865701e+003, 3.507566e-002
2.867630e+003, 3.486519e-002
2.869558e+003, 3.480371e-002
2.871487e+003, 3.476363e-002
2.873415e+003, 3.469696e-002
2.875344e+003, 3.456856e-002
2.877272e+003, 3.436825e-002
2.879201e+003, 3.456528e-002
2.881129e+003, 3.486583e-002
2.883058e+003, 3.498243e-002
2.884986e+003, 3.539321e-002
2.886915e+003, 3.617781e-002
2.888843e+003, 3.694091e-002
2.890771e+003, 3.770999e-002
2.892700e+003, 3.872292e-002
2.894628e+003, 3.974254e-002
2.896557e+003, 4.063390e-002
2.898485e+003, 4.131728e-002
2.900414e+003, 4.216604e-002
2.902342e+003, 4.298916e-002
2.904271e+003, 4.415263e-002
2.906199e+003, 4.552474e-002
2.908128e+003, 4.681328e-002
2.910056e+003, 4.779509e-002
2.911985e+003, 4.900972e-002
2.913913e+003, 5.057959e-002
2.915842e+003, 5.304763e-002
2.917770e+003, 5.546070e-002
2.919698e+003, 5.759138e-002
2.921627e+003, 5.968468e-002
2.923555e+003, 6.140944e-002
2.925484e+003, 6.204750e-002
2.927412e+003, 6.164366e-002
2.929341e+003, 6.102551e-002
2.931269e+003, 6.020777e-002
2.933198e+003, 5.885928e-002
2.935126e+003, 5.713077e-002
2.937055e+003, 5.549393e-002
2.938983e+003, 5.380329e-002
2.940912e+003, 5.217503e-002
2.942840e+003, 5.109533e-002
2.944769e+003, 5.113303e-002
2.946697e+003, 5.145862e-002
2.948625e+003, 5.205693e-002
2.950554e+003, 5.272488e-002
2.952482e+003, 5.333197e-002
2.954411e+003, 5.376898e-002
2.956339e+003, 5.404274e-002
2.958268e+003, 5.407845e-002
2.960196e+003, 5.392184e-002
2.962125e+003, 5.352120e-002
2.964053e+003, 5.260727e-002
2.965982e+003, 5.173251e-002
2.967910e+003, 5.126553e-002
2.969839e+003, 5.046874e-002
2.971767e+003, 4.962886e-002
2.973696e+003, 4.937208e-002
2.975624e+003, 4.937547e-002
2.977552e+003, 4.889901e-002
2.979481e+003, 4.857031e-002
2.981409e+003, 4.868344e-002
2.983338e+003, 4.874114e-002
2.985266e+003, 4.918572e-002
2.987195e+003, 4.965462e-002
2.989123e+003, 4.983049e-002
2.991052e+003, 5.005878e-002
2.992980e+003, 5.010409e-002
2.994909e+003, 5.029484e-002
2.996837e+003, 5.084495e-002
2.998766e+003, 5.122740e-002
3.000694e+003, 5.163850e-002
3.002623e+003, 5.218389e-002
3.004551e+003, 5.279068e-002
3.006479e+003, 5.301349e-002
3.008408e+003, 5.355151e-002
3.010336e+003, 5.437494e-002
3.012265e+003, 5.469848e-002
3.014193e+003, 5.497504e-002
3.016122e+003, 5.599771e-002
3.018050e+003, 5.716536e-002
3.019979e+003, 5.745951e-002
3.021907e+003, 5.750168e-002
3.023836e+003, 5.822099e-002
3.025764e+003, 5.878823e-002
3.027693e+003, 5.919958e-002
3.029621e+003, 5.983956e-002
3.031550e+003, 6.077034e-002
3.033478e+003, 6.198423e-002
3.035406e+003, 6.259180e-002
3.037335e+003, 6.280161e-002
3.039263e+003, 6.376607e-002
3.041192e+003, 6.453265e-002
3.043120e+003, 6.497359e-002
3.045049e+003, 6.586447e-002
3.046977e+003, 6.653265e-002
3.048906e+003, 6.731225e-002
3.050834e+003, 6.803092e-002
3.052763e+003, 6.860838e-002
3.054691e+003, 6.965512e-002
3.056620e+003, 7.041671e-002
3.058548e+003, 7.106005e-002
3.060477e+003, 7.187375e-002
3.062405e+003, 7.265639e-002
3.064333e+003, 7.374328e-002
3.066262e+003, 7.494707e-002
3.068190e+003, 7.577118e-002
3.070119e+003, 7.653218e-002
3.072047e+003, 7.729368e-002
3.073976e+003, 7.794462e-002
3.075904e+003, 7.875440e-002
3.077833e+003, 7.970497e-002
3.079761e+003, 8.065480e-002
3.081690e+003, 8.174071e-002
3.083618e+003, 8.287111e-002
3.085547e+003, 8.377723e-002
3.087475e+003, 8.486915e-002
3.089404e+003, 8.600387e-002
3.091332e+003, 8.713559e-002
3.093260e+003, 8.826087e-002
3.095189e+003, 8.932936e-002
3.097117e+003, 9.030966e-002
3.099046e+003, 9.141286e-002
3.100974e+003, 9.259622e-002
3.102903e+003, 9.367344e-002
3.104831e+003, 9.437446e-002
3.106760e+003, 9.522504e-002
3.108688e+003, 9.684471e-002
3.110617e+003, 9.825851e-002
3.112545e+003, 9.942503e-002
3.114474e+003, 1.005839e-001
3.116402e+003, 1.017092e-001
3.118331e+003, 1.032957e-001
3.120259e+003, 1.046424e-001
3.122188e+003, 1.056761e-001
3.124116e+003, 1.069995e-001
3.126044e+003, 1.084347e-001
3.127973e+003, 1.100923e-001
3.129901e+003, 1.116227e-001
3.131830e+003, 1.127000e-001
3.133758e+003, 1.142458e-001
3.135687e+003, 1.161613e-001
3.137615e+003, 1.174707e-001
3.139544e+003, 1.187885e-001
3.141472e+003, 1.203636e-001
3.143401e+003, 1.216436e-001
3.145329e+003, 1.232188e-001
3.147258e+003, 1.245343e-001
3.149186e+003, 1.258823e-001
3.151115e+003, 1.275126e-001
3.153043e+003, 1.289816e-001
3.154971e+003, 1.304075e-001
3.156900e+003, 1.321430e-001
3.158828e+003, 1.339676e-001
3.160757e+003, 1.358194e-001
3.162685e+003, 1.373988e-001
3.164614e+003, 1.389374e-001
3.166542e+003, 1.408000e-001
3.168471e+003, 1.428375e-001
3.170399e+003, 1.447389e-001
3.172328e+003, 1.462956e-001
3.174256e+003, 1.478871e-001
3.176185e+003, 1.491130e-001
3.178113e+003, 1.501918e-001
3.180042e+003, 1.516605e-001
3.181970e+003, 1.536782e-001
3.183898e+003, 1.556891e-001
3.185827e+003, 1.572759e-001
3.187755e+003, 1.593046e-001
3.189684e+003, 1.612675e-001
3.191612e+003, 1.629957e-001
3.193541e+003, 1.640905e-001
3.195469e+003, 1.653001e-001
3.197398e+003, 1.675837e-001
3.199326e+003, 1.694537e-001
3.201255e+003, 1.702970e-001
3.203183e+003, 1.718040e-001
3.205112e+003, 1.736147e-001
3.207040e+003, 1.749795e-001
3.208969e+003, 1.760562e-001
3.210897e+003, 1.770447e-001
3.212825e+003, 1.782099e-001
3.214754e+003, 1.793181e-001
3.216682e+003, 1.808880e-001
3.218611e+003, 1.826108e-001
3.220539e+003, 1.844744e-001
3.222468e+003, 1.854296e-001
3.224396e+003, 1.858458e-001
3.226325e+003, 1.867330e-001
3.228253e+003, 1.881102e-001
3.230182e+003, 1.888795e-001
3.232110e+003, 1.894318e-001
3.234039e+003, 1.904005e-001
3.235967e+003, 1.914709e-001
3.237896e+003, 1.921569e-001
3.239824e+003, 1.924521e-001
3.241752e+003, 1.936270e-001
3.243681e+003, 1.947557e-001
3.245609e+003, 1.951039e-001
3.247538e+003, 1.955539e-001
3.249466e+003, 1.957484e-001
3.251395e+003, 1.959956e-001
3.253323e+003, 1.971618e-001
3.255252e+003, 1.982611e-001
3.257180e+003, 1.987423e-001
3.259109e+003, 1.992794e-001
3.261037e+003, 1.998007e-001
3.262966e+003, 2.002241e-001
3.264894e+003, 2.001678e-001
3.266823e+003, 2.009667e-001
3.268751e+003, 2.022046e-001
3.270679e+003, 2.029213e-001
3.272608e+003, 2.032925e-001
3.274536e+003, 2.040530e-001
3.276465e+003, 2.052308e-001
3.278393e+003, 2.058245e-001
3.280322e+003, 2.062048e-001
3.282250e+003, 2.068615e-001
3.284179e+003, 2.075637e-001
3.286107e+003, 2.085594e-001
3.288036e+003, 2.094518e-001
3.289964e+003, 2.103028e-001
3.291893e+003, 2.114730e-001
3.293821e+003, 2.125530e-001
3.295750e+003, 2.131080e-001
3.297678e+003, 2.144802e-001
3.299606e+003, 2.153751e-001
3.301535e+003, 2.157943e-001
3.303463e+003, 2.168629e-001
3.305392e+003, 2.181955e-001
3.307320e+003, 2.192248e-001
3.309249e+003, 2.204478e-001
3.311177e+003, 2.218510e-001
3.313106e+003, 2.232669e-001
3.315034e+003, 2.241967e-001
3.316963e+003, 2.246991e-001
3.318891e+003, 2.256006e-001
3.320820e+003, 2.268251e-001
3.322748e+003, 2.280026e-001
3.324677e+003, 2.292635e-001
3.326605e+003, 2.300260e-001
3.328533e+003, 2.309718e-001
3.330462e+003, 2.325479e-001
3.332390e+003, 2.338990e-001
3.334319e+003, 2.343211e-001
3.336247e+003, 2.347863e-001
3.338176e+003, 2.363989e-001
3.340104e+003, 2.384625e-001
3.342033e+003, 2.391316e-001
3.343961e+003, 2.395198e-001
3.345890e+003, 2.407591e-001
3.347818e+003, 2.414737e-001
3.349747e+003, 2.420878e-001
3.351675e+003, 2.435974e-001
3.353604e+003, 2.439646e-001
3.355532e+003, 2.437514e-001
3.357460e+003, 2.440621e-001
3.359389e+003, 2.458408e-001
3.361317e+003, 2.470644e-001
3.363246e+003, 2.473878e-001
3.365174e+003, 2.479707e-001
3.367103e+003, 2.487758e-001
3.369031e+003, 2.495192e-001
3.370960e+003, 2.495284e-001
3.372888e+003, 2.500462e-001
3.374817e+003, 2.506751e-001
3.376745e+003, 2.516061e-001
3.378674e+003, 2.519640e-001
3.380602e+003, 2.518661e-001
3.382531e+003, 2.517202e-001
3.384459e+003, 2.517735e-001
3.386387e+003, 2.521890e-001
3.388316e+003, 2.523786e-001
3.390244e+003, 2.520920e-001
3.392173e+003, 2.525103e-001
3.394101e+003, 2.525437e-001
3.396030e+003, 2.524820e-001
3.397958e+003, 2.524433e-001
3.399887e+003, 2.520930e-001
3.401815e+003, 2.523523e-001
3.403744e+003, 2.524989e-001
3.405672e+003, 2.518504e-001
3.407601e+003, 2.511217e-001
3.409529e+003, 2.502398e-001
3.411458e+003, 2.499906e-001
3.413386e+003, 2.498574e-001
3.415314e+003, 2.495392e-001
3.417243e+003, 2.490737e-001
3.419171e+003, 2.486273e-001
3.421100e+003, 2.483347e-001
3.423028e+003, 2.471967e-001
3.424957e+003, 2.460938e-001
3.426885e+003, 2.457194e-001
3.428814e+003, 2.454572e-001
3.430742e+003, 2.447437e-001
3.432671e+003, 2.442213e-001
3.434599e+003, 2.437578e-001
3.436528e+003, 2.426070e-001
3.438456e+003, 2.413817e-001
3.440385e+003, 2.405474e-001
3.442313e+003, 2.405884e-001
3.444241e+003, 2.399597e-001
3.446170e+003, 2.386288e-001
3.448098e+003, 2.377012e-001
3.450027e+003, 2.365371e-001
3.451955e+003, 2.350207e-001
3.453884e+003, 2.341609e-001
3.455812e+003, 2.336951e-001
3.457741e+003, 2.330169e-001
3.459669e+003, 2.315855e-001
3.461598e+003, 2.302504e-001
3.463526e+003, 2.295249e-001
3.465455e+003, 2.285636e-001
3.467383e+003, 2.274099e-001
3.469312e+003, 2.266503e-001
3.471240e+003, 2.263577e-001
3.473168e+003, 2.254444e-001
3.475097e+003, 2.243065e-001
3.477025e+003, 2.234187e-001
3.478954e+003, 2.224021e-001
3.480882e+003, 2.221284e-001
3.482811e+003, 2.220936e-001
3.484739e+003, 2.210625e-001
3.486668e+003, 2.200336e-001
3.488596e+003, 2.197249e-001
3.490525e+003, 2.194902e-001
3.492453e+003, 2.187063e-001
3.494382e+003, 2.179902e-001
3.496310e+003, 2.174994e-001
3.498239e+003, 2.179140e-001
3.500167e+003, 2.182191e-001
3.502095e+003, 2.176785e-001
3.504024e+003, 2.173928e-001
3.505952e+003, 2.170130e-001
3.507881e+003, 2.167052e-001
3.509809e+003, 2.168198e-001
3.511738e+003, 2.175109e-001
3.513666e+003, 2.186067e-001
3.515595e+003, 2.196849e-001
3.517523e+003, 2.203719e-001
3.519452e+003, 2.211622e-001
3.521380e+003, 2.220091e-001
3.523309e+003, 2.235179e-001
3.525237e+003, 2.246279e-001
3.527166e+003, 2.265336e-001
3.529094e+003, 2.296823e-001
3.531022e+003, 2.322785e-001
3.532951e+003, 2.352756e-001
3.534879e+003, 2.402722e-001
3.536808e+003, 2.458856e-001
3.538736e+003, 2.522318e-001
3.540665e+003, 2.596231e-001
3.542593e+003, 2.675806e-001
3.544522e+003, 2.764667e-001
3.546450e+003, 2.866929e-001
3.548379e+003, 2.969879e-001
3.550307e+003, 3.074176e-001
3.552236e+003, 3.188924e-001
3.554164e+003, 3.297690e-001
3.556093e+003, 3.391066e-001
3.558021e+003, 3.476386e-001
3.559949e+003, 3.553145e-001
3.561878e+003, 3.614911e-001
3.563806e+003, 3.662069e-001
3.565735e+003, 3.695262e-001
3.567663e+003, 3.715315e-001
3.569592e+003, 3.724105e-001
3.571520e+003, 3.716959e-001
3.573449e+003, 3.696587e-001
3.575377e+003, 3.668713e-001
3.577306e+003, 3.617337e-001
3.579234e+003, 3.544194e-001
3.581163e+003, 3.455775e-001
3.583091e+003, 3.351109e-001
3.585020e+003, 3.243186e-001
3.586948e+003, 3.135996e-001
3.588876e+003, 3.028462e-001
3.590805e+003, 2.933823e-001
3.592733e+003, 2.832889e-001
3.594662e+003, 2.731538e-001
3.596590e+003, 2.638061e-001
3.598519e+003, 2.546275e-001
3.600447e+003, 2.457077e-001
3.602376e+003, 2.367983e-001
3.604304e+003, 2.294208e-001
3.606233e+003, 2.238396e-001
3.608161e+003, 2.187186e-001
3.610090e+003, 2.133009e-001
3.612018e+003, 2.087401e-001
3.613947e+003, 2.047688e-001
3.615875e+003, 2.005121e-001
3.617803e+003, 1.961946e-001
3.619732e+003, 1.912832e-001
3.621660e+003, 1.865823e-001
3.623589e+003, 1.830786e-001
3.625517e+003, 1.795882e-001
3.627446e+003, 1.768771e-001
3.629374e+003, 1.734839e-001
3.631303e+003, 1.681519e-001
3.633231e+003, 1.633999e-001
3.635160e+003, 1.588686e-001
3.637088e+003, 1.535222e-001
3.639017e+003, 1.477968e-001
3.640945e+003, 1.421579e-001
3.642874e+003, 1.361901e-001
3.644802e+003, 1.296748e-001
3.646730e+003, 1.226115e-001
3.648659e+003, 1.155437e-001
3.650587e+003, 1.079349e-001
3.652516e+003, 9.948152e-002
3.654444e+003, 9.203565e-002
3.656373e+003, 8.570286e-002
3.658301e+003, 7.928530e-002
3.660230e+003, 7.283611e-002
3.662158e+003, 6.681287e-002
3.664087e+003, 6.127937e-002
3.666015e+003, 5.608527e-002
3.667944e+003, 5.201075e-002
3.669872e+003, 4.810601e-002
3.671801e+003, 4.308350e-002
3.673729e+003, 4.024774e-002
3.675657e+003, 3.789588e-002
3.677586e+003, 3.361306e-002
3.679514e+003, 3.002760e-002
3.681443e+003, 2.734270e-002
3.683371e+003, 2.593699e-002
3.685300e+003, 2.450488e-002
3.687228e+003, 2.278505e-002
3.689157e+003, 2.098997e-002
3.691085e+003, 1.957260e-002
3.693014e+003, 1.816404e-002
3.694942e+003, 1.688106e-002
3.696871e+003, 1.595168e-002
3.698799e+003, 1.478834e-002
3.700728e+003, 1.374125e-002
3.702656e+003, 1.327464e-002
3.704584e+003, 1.210954e-002
3.706513e+003, 1.133915e-002
3.708441e+003, 1.080719e-002
3.710370e+003, 1.077601e-002
3.712298e+003, 1.052699e-002
3.714227e+003, 9.720648e-003
3.716155e+003, 9.867853e-003
3.718084e+003, 9.465318e-003
3.720012e+003, 8.511970e-003
3.721941e+003, 8.661630e-003
3.723869e+003, 8.734812e-003
3.725798e+003, 8.553737e-003
3.727726e+003, 7.908736e-003
3.729655e+003, 7.305268e-003
3.731583e+003, 7.656053e-003
3.733511e+003, 7.963127e-003
3.735440e+003, 8.676177e-003
3.737368e+003, 7.730085e-003
3.739297e+003, 6.283611e-003
3.741225e+003, 6.228041e-003
3.743154e+003, 7.357033e-003
3.745082e+003, 7.306900e-003
3.747011e+003, 6.221222e-003
3.748939e+003, 6.966181e-003
3.750868e+003, 7.894062e-003
3.752796e+003, 6.481388e-003
3.754725e+003, 4.530588e-003
3.756653e+003, 4.885352e-003
3.758582e+003, 5.310533e-003
3.760510e+003, 4.754997e-003
3.762438e+003, 4.092609e-003
3.764367e+003, 4.244940e-003
3.766295e+003, 4.362267e-003
3.768224e+003, 4.136104e-003
3.770152e+003, 3.946414e-003
3.772081e+003, 3.933204e-003
3.774009e+003, 4.140340e-003
3.775938e+003, 4.221031e-003
3.777866e+003, 4.186224e-003
3.779795e+003, 3.970953e-003
3.781723e+003, 3.737042e-003
3.783652e+003, 3.840398e-003
3.785580e+003, 3.014118e-003
3.787509e+003, 2.255495e-003
3.789437e+003, 2.481022e-003
3.791365e+003, 2.193381e-003
3.793294e+003, 2.072094e-003
3.795222e+003, 2.814974e-003
3.797151e+003, 3.446843e-003
3.799079e+003, 3.502141e-003
3.801008e+003, 4.026810e-003
3.802936e+003, 3.502149e-003
3.804865e+003, 3.126411e-003
3.806793e+003, 3.930452e-003
3.808722e+003, 4.095952e-003
3.810650e+003, 3.824195e-003
3.812579e+003, 3.709079e-003
3.814507e+003, 4.151254e-003
3.816436e+003, 4.527688e-003
3.818364e+003, 3.585577e-003
3.820292e+003, 3.616747e-003
3.822221e+003, 4.061655e-003
3.824149e+003, 2.584139e-003
3.826078e+003, 2.157932e-003
3.828006e+003, 2.681896e-003
3.829935e+003, 3.024376e-003
3.831863e+003, 2.857189e-003
3.833792e+003, 2.482841e-003
3.835720e+003, 2.263852e-003
3.837649e+003, 2.517816e-003
3.839577e+003, 3.122561e-003
3.841506e+003, 3.677985e-003
3.843434e+003, 3.083474e-003
3.845363e+003, 2.070720e-003
3.847291e+003, 2.010442e-003
3.849219e+003, 2.169616e-003
3.851148e+003, 2.875320e-003
3.853076e+003, 4.172452e-003
3.855005e+003, 3.871280e-003
3.856933e+003, 3.304793e-003
3.858862e+003, 3.276148e-003
3.860790e+003, 3.252228e-003
3.862719e+003, 3.138523e-003
3.864647e+003, 3.326701e-003
3.866576e+003, 3.134999e-003
3.868504e+003, 3.367799e-003
3.870433e+003, 2.844973e-003
3.872361e+003, 2.093860e-003
3.874290e+003, 2.053598e-003
3.876218e+003, 1.964560e-003
3.878146e+003, 2.898827e-003
3.880075e+003, 3.722065e-003
3.882003e+003, 3.593275e-003
3.883932e+003, 3.438716e-003
3.885860e+003, 3.065367e-003
3.887789e+003, 2.826307e-003
3.889717e+003, 3.447192e-003
3.891646e+003, 3.106473e-003
3.893574e+003, 1.811338e-003
3.895503e+003, 2.171299e-003
3.897431e+003, 2.880418e-003
3.899360e+003, 2.331575e-003
3.901288e+003, 2.340583e-003
3.903217e+003, 3.617320e-003
3.905145e+003, 4.134831e-003
3.907073e+003, 3.699681e-003
3.909002e+003, 3.053725e-003
3.910930e+003, 2.198473e-003
3.912859e+003, 2.197428e-003
3.914787e+003, 3.002107e-003
3.916716e+003, 2.886286e-003
3.918644e+003, 3.135194e-003
3.920573e+003, 2.965177e-003
3.922501e+003, 2.096710e-003
3.924430e+003, 2.045627e-003
3.926358e+003, 2.265162e-003
3.928287e+003, 2.516498e-003
3.930215e+003, 2.472183e-003
3.932144e+003, 2.200801e-003
3.934072e+003, 2.553244e-003
3.936000e+003, 2.517486e-003
3.937929e+003, 2.831022e-003
3.939857e+003, 3.781033e-003
3.941786e+003, 4.102401e-003
3.943714e+003, 3.435692e-003
3.945643e+003, 2.879363e-003
3.947571e+003, 2.283258e-003
3.949500e+003, 1.753181e-003
3.951428e+003, 2.408143e-003
3.953357e+003, 3.216721e-003
3.955285e+003, 2.858137e-003
3.957214e+003, 2.934221e-003
3.959142e+003, 3.053367e-003
3.961071e+003, 2.323025e-003
3.962999e+003, 3.134936e-003
3.964927e+003, 3.788052e-003
3.966856e+003, 3.429085e-003
3.968784e+003, 2.825369e-003
3.970713e+003, 2.385547e-003
3.972641e+003, 2.597594e-003
3.974570e+003, 2.276246e-003
3.976498e+003, 2.678831e-003
3.978427e+003, 2.796689e-003
3.980355e+003, 2.171170e-003
3.982284e+003, 2.180652e-003
3.984212e+003, 2.152075e-003
3.986141e+003, 2.367737e-003
3.988069e+003, 2.675612e-003
3.989998e+003, 2.350507e-003
3.991926e+003, 2.028737e-003
3.993854e+003, 2.126136e-003
3.995783e+003, 2.291790e-003
3.997711e+003, 2.224289e-003
3.999640e+003, 2.669930e-003
4.001568e+003, 0.000000e+000
##END=



