##NAMES=Olmiite
##RRUFFID=R050177
##IDEAL CHEMISTRY=CaMn^2+^SiO_3_(OH)_2_
##LOCALITY=N'Chwaning II mine, Kuruman, South Africa
##OWNER=RRUFF
##SOURCE=Marcus Origlieri
##DESCRIPTION=Gray etched crystals
##STATUS=The identification of this mineral has been confirmed by X-ray diffraction and chemical analysis
##URL=rruff.info/R050177
##MEASURED CHEMISTRY=Ca_1.00_(Mn_0.98_Ca_0.02_)(Si_1.00_O_3_OH)(OH)
5.014013e+001, 1.117770e-002
5.206860e+001, 1.145255e-002
5.399707e+001, 7.682511e-003
5.592553e+001, 1.078703e-002
5.785400e+001, 1.570634e-002
5.978246e+001, 1.471937e-002
6.171093e+001, 1.299482e-002
6.363940e+001, 1.680893e-002
6.556786e+001, 1.904070e-002
6.749633e+001, 1.895161e-002
6.942480e+001, 2.039241e-002
7.135326e+001, 2.074804e-002
7.328172e+001, 2.041992e-002
7.521019e+001, 2.112479e-002
7.713866e+001, 2.220513e-002
7.906712e+001, 2.372734e-002
8.099559e+001, 2.526091e-002
8.292406e+001, 2.600185e-002
8.485252e+001, 2.537613e-002
8.678099e+001, 2.442712e-002
8.870946e+001, 2.483499e-002
9.063792e+001, 2.642196e-002
9.256638e+001, 2.794245e-002
9.449485e+001, 2.888264e-002
9.642332e+001, 3.008229e-002
9.835178e+001, 3.194073e-002
1.002803e+002, 3.272999e-002
1.022087e+002, 3.376184e-002
1.041372e+002, 3.474526e-002
1.060657e+002, 3.657760e-002
1.079941e+002, 3.834846e-002
1.099226e+002, 3.914251e-002
1.118510e+002, 3.663682e-002
1.137795e+002, 3.390018e-002
1.157080e+002, 3.333708e-002
1.176364e+002, 3.468888e-002
1.195649e+002, 3.612271e-002
1.214934e+002, 3.767253e-002
1.234218e+002, 3.916544e-002
1.253503e+002, 4.123169e-002
1.272788e+002, 4.287688e-002
1.292072e+002, 4.361741e-002
1.311357e+002, 4.335708e-002
1.330642e+002, 4.237382e-002
1.349926e+002, 4.234264e-002
1.369211e+002, 4.224153e-002
1.388496e+002, 3.886267e-002
1.407780e+002, 3.469076e-002
1.427065e+002, 3.393619e-002
1.446350e+002, 3.568485e-002
1.465634e+002, 3.816607e-002
1.484919e+002, 4.121065e-002
1.504204e+002, 4.363446e-002
1.523488e+002, 4.526165e-002
1.542773e+002, 4.604156e-002
1.562058e+002, 4.759025e-002
1.581342e+002, 4.953328e-002
1.600627e+002, 5.021826e-002
1.619912e+002, 5.125410e-002
1.639196e+002, 5.266789e-002
1.658481e+002, 5.212931e-002
1.677766e+002, 4.845423e-002
1.697050e+002, 4.513277e-002
1.716335e+002, 4.497631e-002
1.735620e+002, 4.644262e-002
1.754904e+002, 4.726713e-002
1.774189e+002, 4.721057e-002
1.793474e+002, 4.857554e-002
1.812758e+002, 5.051922e-002
1.832043e+002, 5.171036e-002
1.851328e+002, 5.301934e-002
1.870612e+002, 5.488277e-002
1.889897e+002, 5.620947e-002
1.909182e+002, 5.726508e-002
1.928466e+002, 5.816701e-002
1.947751e+002, 5.802489e-002
1.967036e+002, 5.599689e-002
1.986320e+002, 5.390387e-002
2.005605e+002, 5.370736e-002
2.024890e+002, 5.572671e-002
2.044174e+002, 5.742013e-002
2.063459e+002, 5.787433e-002
2.082744e+002, 5.668588e-002
2.102028e+002, 5.468203e-002
2.121313e+002, 5.478660e-002
2.140598e+002, 5.645300e-002
2.159882e+002, 5.806894e-002
2.179167e+002, 5.976131e-002
2.198452e+002, 6.116642e-002
2.217736e+002, 6.228870e-002
2.237021e+002, 6.199347e-002
2.256305e+002, 6.138390e-002
2.275590e+002, 6.157213e-002
2.294875e+002, 6.222262e-002
2.314159e+002, 6.377030e-002
2.333444e+002, 6.505299e-002
2.352729e+002, 6.424873e-002
2.372013e+002, 6.140642e-002
2.391298e+002, 5.832307e-002
2.410583e+002, 5.603954e-002
2.429867e+002, 5.529370e-002
2.449152e+002, 5.688179e-002
2.468437e+002, 5.968437e-002
2.487721e+002, 6.270994e-002
2.507006e+002, 6.516020e-002
2.526291e+002, 6.748294e-002
2.545575e+002, 6.849403e-002
2.564860e+002, 6.751012e-002
2.584145e+002, 6.609681e-002
2.603429e+002, 6.604214e-002
2.622714e+002, 6.700147e-002
2.641999e+002, 6.791883e-002
2.661283e+002, 6.869783e-002
2.680568e+002, 6.956157e-002
2.699853e+002, 7.066688e-002
2.719137e+002, 7.211293e-002
2.738422e+002, 7.334803e-002
2.757707e+002, 7.391365e-002
2.776991e+002, 7.390012e-002
2.796276e+002, 7.289150e-002
2.815561e+002, 7.119002e-002
2.834845e+002, 6.889372e-002
2.854130e+002, 6.624375e-002
2.873415e+002, 6.426911e-002
2.892699e+002, 6.346740e-002
2.911984e+002, 6.379318e-002
2.931269e+002, 6.546868e-002
2.950553e+002, 6.795631e-002
2.969838e+002, 7.000998e-002
2.989123e+002, 7.106458e-002
3.008407e+002, 7.123496e-002
3.027692e+002, 7.072131e-002
3.046977e+002, 6.928407e-002
3.066261e+002, 6.812813e-002
3.085546e+002, 6.806808e-002
3.104831e+002, 6.865564e-002
3.124115e+002, 6.980722e-002
3.143400e+002, 7.126514e-002
3.162685e+002, 7.268315e-002
3.181969e+002, 7.350973e-002
3.201254e+002, 7.434207e-002
3.220539e+002, 7.553243e-002
3.239823e+002, 7.613475e-002
3.259108e+002, 7.602266e-002
3.278392e+002, 7.570005e-002
3.297677e+002, 7.517883e-002
3.316962e+002, 7.427330e-002
3.336246e+002, 7.373937e-002
3.355531e+002, 7.409439e-002
3.374816e+002, 7.468642e-002
3.394100e+002, 7.499076e-002
3.413385e+002, 7.542559e-002
3.432670e+002, 7.687947e-002
3.451954e+002, 7.897700e-002
3.471239e+002, 8.130816e-002
3.490524e+002, 8.312927e-002
3.509808e+002, 8.367784e-002
3.529093e+002, 8.306340e-002
3.548378e+002, 8.157615e-002
3.567662e+002, 7.964556e-002
3.586947e+002, 7.657549e-002
3.606232e+002, 7.286755e-002
3.625516e+002, 6.966606e-002
3.644801e+002, 6.611136e-002
3.664086e+002, 6.216380e-002
3.683370e+002, 5.885838e-002
3.702655e+002, 5.617581e-002
3.721940e+002, 5.365252e-002
3.741224e+002, 5.193524e-002
3.760509e+002, 5.065751e-002
3.779794e+002, 4.955710e-002
3.799078e+002, 4.896390e-002
3.818363e+002, 4.834494e-002
3.837648e+002, 4.768790e-002
3.856932e+002, 4.727941e-002
3.876217e+002, 4.671907e-002
3.895502e+002, 4.658882e-002
3.914786e+002, 4.697769e-002
3.934071e+002, 4.763196e-002
3.953356e+002, 4.845521e-002
3.972640e+002, 4.984922e-002
3.991925e+002, 5.160466e-002
4.011210e+002, 5.290259e-002
4.030494e+002, 5.357420e-002
4.049779e+002, 5.388006e-002
4.069064e+002, 5.397768e-002
4.088348e+002, 5.402973e-002
4.107633e+002, 5.455765e-002
4.126917e+002, 5.555454e-002
4.146202e+002, 5.692061e-002
4.165487e+002, 5.861118e-002
4.184771e+002, 6.023892e-002
4.204056e+002, 6.137312e-002
4.223341e+002, 6.256208e-002
4.242625e+002, 6.391944e-002
4.261910e+002, 6.520429e-002
4.281195e+002, 6.612779e-002
4.300479e+002, 6.660702e-002
4.319764e+002, 6.679992e-002
4.339049e+002, 6.662581e-002
4.358333e+002, 6.603618e-002
4.377618e+002, 6.476232e-002
4.396903e+002, 6.282511e-002
4.416187e+002, 6.055238e-002
4.435472e+002, 5.829029e-002
4.454757e+002, 5.603041e-002
4.474041e+002, 5.433123e-002
4.493326e+002, 5.346462e-002
4.512611e+002, 5.376646e-002
4.531895e+002, 5.550857e-002
4.551180e+002, 5.818268e-002
4.570465e+002, 6.198733e-002
4.589749e+002, 6.704464e-002
4.609034e+002, 7.241274e-002
4.628319e+002, 7.767600e-002
4.647603e+002, 8.300035e-002
4.666888e+002, 8.741082e-002
4.686173e+002, 9.078625e-002
4.705457e+002, 9.196966e-002
4.724742e+002, 9.080888e-002
4.744027e+002, 8.888268e-002
4.763311e+002, 8.602583e-002
4.782596e+002, 8.255505e-002
4.801881e+002, 7.936195e-002
4.821165e+002, 7.715786e-002
4.840450e+002, 7.658701e-002
4.859735e+002, 7.710256e-002
4.879019e+002, 7.722505e-002
4.898304e+002, 7.712226e-002
4.917589e+002, 7.709570e-002
4.936873e+002, 7.688745e-002
4.956158e+002, 7.642055e-002
4.975443e+002, 7.637852e-002
4.994727e+002, 7.665650e-002
5.014012e+002, 7.743824e-002
5.033297e+002, 7.874040e-002
5.052581e+002, 8.030280e-002
5.071866e+002, 8.206767e-002
5.091151e+002, 8.375615e-002
5.110435e+002, 8.507468e-002
5.129720e+002, 8.599719e-002
5.149005e+002, 8.603367e-002
5.168289e+002, 8.486017e-002
5.187574e+002, 8.247530e-002
5.206859e+002, 7.875788e-002
5.226143e+002, 7.379322e-002
5.245428e+002, 6.880412e-002
5.264713e+002, 6.419246e-002
5.283997e+002, 5.982831e-002
5.303282e+002, 5.575734e-002
5.322567e+002, 5.215023e-002
5.341851e+002, 4.872189e-002
5.361136e+002, 4.569544e-002
5.380421e+002, 4.333625e-002
5.399705e+002, 4.167261e-002
5.418990e+002, 4.046418e-002
5.438275e+002, 3.944147e-002
5.457559e+002, 3.845407e-002
5.476844e+002, 3.785451e-002
5.496129e+002, 3.746856e-002
5.515413e+002, 3.683290e-002
5.534698e+002, 3.638512e-002
5.553983e+002, 3.645373e-002
5.573267e+002, 3.645527e-002
5.592552e+002, 3.659455e-002
5.611837e+002, 3.702180e-002
5.631121e+002, 3.737374e-002
5.650406e+002, 3.723360e-002
5.669691e+002, 3.723847e-002
5.688975e+002, 3.722158e-002
5.708260e+002, 3.738071e-002
5.727545e+002, 3.770620e-002
5.746829e+002, 3.793967e-002
5.766114e+002, 3.840703e-002
5.785399e+002, 3.841613e-002
5.804683e+002, 3.820341e-002
5.823968e+002, 3.829819e-002
5.843253e+002, 3.844374e-002
5.862537e+002, 3.866633e-002
5.881822e+002, 3.850209e-002
5.901107e+002, 3.849695e-002
5.920391e+002, 3.845936e-002
5.939676e+002, 3.843581e-002
5.958961e+002, 3.847038e-002
5.978245e+002, 3.854452e-002
5.997530e+002, 3.838029e-002
6.016815e+002, 3.775707e-002
6.036099e+002, 3.732922e-002
6.055384e+002, 3.739717e-002
6.074669e+002, 3.747291e-002
6.093953e+002, 3.729279e-002
6.113238e+002, 3.750508e-002
6.132523e+002, 3.807292e-002
6.151807e+002, 3.858447e-002
6.171091e+002, 3.923624e-002
6.190376e+002, 4.020846e-002
6.209661e+002, 4.134736e-002
6.228945e+002, 4.195619e-002
6.248230e+002, 4.293112e-002
6.267515e+002, 4.493261e-002
6.286799e+002, 4.788667e-002
6.306084e+002, 5.008095e-002
6.325369e+002, 5.116604e-002
6.344653e+002, 5.180018e-002
6.363938e+002, 5.252418e-002
6.383223e+002, 5.327016e-002
6.402507e+002, 5.398122e-002
6.421792e+002, 5.503553e-002
6.441077e+002, 5.566387e-002
6.460361e+002, 5.624054e-002
6.479646e+002, 5.714460e-002
6.498931e+002, 5.809129e-002
6.518215e+002, 5.910067e-002
6.537500e+002, 6.013383e-002
6.556785e+002, 6.123227e-002
6.576069e+002, 6.266801e-002
6.595354e+002, 6.389592e-002
6.614639e+002, 6.504665e-002
6.633923e+002, 6.635473e-002
6.653208e+002, 6.745066e-002
6.672493e+002, 6.872114e-002
6.691777e+002, 6.981412e-002
6.711062e+002, 7.040418e-002
6.730347e+002, 7.116311e-002
6.749631e+002, 7.241222e-002
6.768916e+002, 7.341498e-002
6.788201e+002, 7.432072e-002
6.807485e+002, 7.459461e-002
6.826770e+002, 7.406479e-002
6.846055e+002, 7.415020e-002
6.865339e+002, 7.542140e-002
6.884624e+002, 7.631038e-002
6.903909e+002, 7.782787e-002
6.923193e+002, 8.011878e-002
6.942478e+002, 8.205743e-002
6.961763e+002, 8.440522e-002
6.981047e+002, 8.663395e-002
7.000332e+002, 8.761761e-002
##END=



