##NAMES=Opal
##RRUFFID=R060653
##IDEAL CHEMISTRY=SiO_2_&#183;<i>n</i>H_2_O
##LOCALITY=Brazil
##OWNER=RRUFF
##SOURCE=Gemological Institute of America
##DESCRIPTION=Colorless to blue tinted glassy amorphous fragment, variety opal-A
##STATUS=The identification of this mineral has been confirmed by X-ray diffraction and chemical analysis
##URL=rruff.info/R060653
##MEASURED CHEMISTRY=(Si_0.99_Al_0.01_)_Σ=2_(O_1.99_(OH)_0.01_)_Σ=2_· 0.17H_2_O
3.991926e+002, 0.000000e+000
4.011211e+002, 1.471538e-001
4.030496e+002, 1.478295e-001
4.049780e+002, 1.490853e-001
4.069065e+002, 1.554838e-001
4.088350e+002, 1.627807e-001
4.107634e+002, 1.595293e-001
4.126919e+002, 1.587282e-001
4.146204e+002, 1.626072e-001
4.165488e+002, 1.680885e-001
4.184773e+002, 1.715265e-001
4.204058e+002, 1.738971e-001
4.223342e+002, 1.761274e-001
4.242627e+002, 1.763616e-001
4.261912e+002, 1.780084e-001
4.281196e+002, 1.830612e-001
4.300481e+002, 1.860681e-001
4.319766e+002, 1.885324e-001
4.339050e+002, 1.920134e-001
4.358335e+002, 1.941852e-001
4.377620e+002, 1.956148e-001
4.396904e+002, 1.956785e-001
4.416189e+002, 1.968944e-001
4.435474e+002, 1.992097e-001
4.454758e+002, 1.990526e-001
4.474043e+002, 1.991276e-001
4.493328e+002, 1.983615e-001
4.512612e+002, 2.001865e-001
4.531897e+002, 2.009202e-001
4.551182e+002, 2.002653e-001
4.570466e+002, 2.005507e-001
4.589751e+002, 1.980997e-001
4.609036e+002, 1.950100e-001
4.628320e+002, 1.927542e-001
4.647605e+002, 1.891751e-001
4.666890e+002, 1.840654e-001
4.686174e+002, 1.786747e-001
4.705459e+002, 1.720493e-001
4.724744e+002, 1.630671e-001
4.744028e+002, 1.539391e-001
4.763313e+002, 1.447707e-001
4.782598e+002, 1.355251e-001
4.801882e+002, 1.259825e-001
4.821167e+002, 1.167291e-001
4.840452e+002, 1.086792e-001
4.859736e+002, 1.009517e-001
4.879021e+002, 9.395601e-002
4.898306e+002, 8.820216e-002
4.917590e+002, 8.224941e-002
4.936875e+002, 7.690057e-002
4.956160e+002, 7.291862e-002
4.975444e+002, 6.924452e-002
4.994729e+002, 6.573064e-002
5.014014e+002, 6.276388e-002
5.033298e+002, 5.981508e-002
5.052583e+002, 5.686099e-002
5.071868e+002, 5.437546e-002
5.091152e+002, 5.251085e-002
5.110437e+002, 5.082557e-002
5.129722e+002, 4.911765e-002
5.149006e+002, 4.823562e-002
5.168291e+002, 4.786711e-002
5.187576e+002, 4.718290e-002
5.206860e+002, 4.651230e-002
5.226145e+002, 4.625225e-002
5.245430e+002, 4.644760e-002
5.264714e+002, 4.664492e-002
5.283999e+002, 4.654607e-002
5.303284e+002, 4.680321e-002
5.322568e+002, 4.704088e-002
5.341853e+002, 4.655435e-002
5.361138e+002, 4.687015e-002
5.380422e+002, 4.738240e-002
5.399707e+002, 4.705675e-002
5.418992e+002, 4.688717e-002
5.438276e+002, 4.677543e-002
5.457561e+002, 4.640736e-002
5.476846e+002, 4.631906e-002
5.496130e+002, 4.622825e-002
5.515415e+002, 4.545044e-002
5.534700e+002, 4.488127e-002
5.553984e+002, 4.485438e-002
5.573269e+002, 4.453781e-002
5.592554e+002, 4.409436e-002
5.611838e+002, 4.390364e-002
5.631123e+002, 4.376977e-002
5.650408e+002, 4.300543e-002
5.669692e+002, 4.215569e-002
5.688977e+002, 4.149588e-002
5.708262e+002, 4.060807e-002
5.727546e+002, 4.005620e-002
5.746831e+002, 3.974216e-002
5.766116e+002, 3.887316e-002
5.785400e+002, 3.792399e-002
5.804685e+002, 3.706704e-002
5.823970e+002, 3.620263e-002
5.843254e+002, 3.547356e-002
5.862539e+002, 3.493005e-002
5.881824e+002, 3.484433e-002
5.901108e+002, 3.448421e-002
5.920393e+002, 3.356880e-002
5.939678e+002, 3.281998e-002
5.958962e+002, 3.242369e-002
5.978247e+002, 3.219667e-002
5.997532e+002, 3.166214e-002
6.016816e+002, 3.111513e-002
6.036101e+002, 3.065772e-002
6.055386e+002, 3.041305e-002
6.074670e+002, 3.025863e-002
6.093955e+002, 2.991722e-002
6.113240e+002, 2.905739e-002
6.132524e+002, 2.851644e-002
6.151809e+002, 2.857539e-002
6.171094e+002, 2.830609e-002
6.190378e+002, 2.803305e-002
6.209663e+002, 2.798880e-002
6.228948e+002, 2.778632e-002
6.248232e+002, 2.750422e-002
6.267517e+002, 2.709537e-002
6.286802e+002, 2.674043e-002
6.306086e+002, 2.642093e-002
6.325371e+002, 2.623122e-002
6.344656e+002, 2.643887e-002
6.363940e+002, 2.650130e-002
6.383225e+002, 2.639639e-002
6.402510e+002, 2.620561e-002
6.421794e+002, 2.604216e-002
6.441079e+002, 2.615442e-002
6.460364e+002, 2.630752e-002
6.479648e+002, 2.633986e-002
6.498933e+002, 2.628020e-002
6.518218e+002, 2.635255e-002
6.537502e+002, 2.652703e-002
6.556787e+002, 2.674403e-002
6.576072e+002, 2.681021e-002
6.595356e+002, 2.682026e-002
6.614641e+002, 2.685581e-002
6.633926e+002, 2.677564e-002
6.653210e+002, 2.665710e-002
6.672495e+002, 2.688457e-002
6.691780e+002, 2.708311e-002
6.711064e+002, 2.708993e-002
6.730349e+002, 2.713309e-002
6.749634e+002, 2.715382e-002
6.768918e+002, 2.731075e-002
6.788203e+002, 2.730396e-002
6.807488e+002, 2.722218e-002
6.826772e+002, 2.737585e-002
6.846057e+002, 2.753397e-002
6.865342e+002, 2.752206e-002
6.884626e+002, 2.753125e-002
6.903911e+002, 2.759326e-002
6.923196e+002, 2.774015e-002
6.942480e+002, 2.800985e-002
6.961765e+002, 2.812093e-002
6.981050e+002, 2.832187e-002
7.000334e+002, 2.846324e-002
7.019619e+002, 2.837389e-002
7.038904e+002, 2.864608e-002
7.058188e+002, 2.887368e-002
7.077473e+002, 2.905459e-002
7.096758e+002, 2.907708e-002
7.116042e+002, 2.917712e-002
7.135327e+002, 2.948983e-002
7.154612e+002, 2.970752e-002
7.173896e+002, 2.984291e-002
7.193181e+002, 2.996455e-002
7.212466e+002, 2.997741e-002
7.231750e+002, 3.012787e-002
7.251035e+002, 3.036454e-002
7.270320e+002, 3.066363e-002
7.289604e+002, 3.102448e-002
7.308889e+002, 3.106663e-002
7.328174e+002, 3.124008e-002
7.347458e+002, 3.155147e-002
7.366743e+002, 3.166561e-002
7.386028e+002, 3.204681e-002
7.405313e+002, 3.222387e-002
7.424597e+002, 3.231552e-002
7.443882e+002, 3.264470e-002
7.463167e+002, 3.300248e-002
7.482451e+002, 3.317768e-002
7.501736e+002, 3.347563e-002
7.521021e+002, 3.391428e-002
7.540305e+002, 3.424287e-002
7.559590e+002, 3.461130e-002
7.578875e+002, 3.499571e-002
7.598159e+002, 3.554212e-002
7.617444e+002, 3.634669e-002
7.636729e+002, 3.697404e-002
7.656013e+002, 3.795384e-002
7.675298e+002, 3.947951e-002
7.694583e+002, 4.132693e-002
7.713867e+002, 4.402097e-002
7.733152e+002, 4.737502e-002
7.752437e+002, 5.074612e-002
7.771721e+002, 5.424895e-002
7.791006e+002, 5.777287e-002
7.810291e+002, 6.062170e-002
7.829575e+002, 6.276780e-002
7.848860e+002, 6.474414e-002
7.868145e+002, 6.611583e-002
7.887429e+002, 6.708720e-002
7.906714e+002, 6.781245e-002
7.925999e+002, 6.804111e-002
7.945283e+002, 6.802915e-002
7.964568e+002, 6.798101e-002
7.983853e+002, 6.755983e-002
8.003137e+002, 6.676780e-002
8.022422e+002, 6.559361e-002
8.041707e+002, 6.428531e-002
8.060991e+002, 6.291928e-002
8.080276e+002, 6.145705e-002
8.099561e+002, 5.990934e-002
8.118845e+002, 5.820389e-002
8.138130e+002, 5.627630e-002
8.157415e+002, 5.425165e-002
8.176699e+002, 5.219100e-002
8.195984e+002, 5.029494e-002
8.215269e+002, 4.831004e-002
8.234553e+002, 4.592574e-002
8.253838e+002, 4.378734e-002
8.273123e+002, 4.194883e-002
8.292407e+002, 3.991337e-002
8.311692e+002, 3.787827e-002
8.330977e+002, 3.594594e-002
8.350261e+002, 3.408608e-002
8.369546e+002, 3.234531e-002
8.388831e+002, 3.074917e-002
8.408115e+002, 2.883283e-002
8.427400e+002, 2.702970e-002
8.446685e+002, 2.556568e-002
8.465969e+002, 2.435322e-002
8.485254e+002, 2.350910e-002
8.504539e+002, 2.290232e-002
8.523823e+002, 2.236249e-002
8.543108e+002, 2.200485e-002
8.562393e+002, 2.191147e-002
8.581677e+002, 2.196620e-002
8.600962e+002, 2.197543e-002
8.620247e+002, 2.184064e-002
8.639531e+002, 2.190226e-002
8.658816e+002, 2.224797e-002
8.678101e+002, 2.241174e-002
8.697385e+002, 2.270759e-002
8.716670e+002, 2.347515e-002
8.735955e+002, 2.401217e-002
8.755239e+002, 2.439917e-002
8.774524e+002, 2.491701e-002
8.793809e+002, 2.555006e-002
8.813093e+002, 2.632501e-002
8.832378e+002, 2.702877e-002
8.851663e+002, 2.779639e-002
8.870947e+002, 2.848024e-002
8.890232e+002, 2.921506e-002
8.909517e+002, 3.000446e-002
8.928801e+002, 3.087696e-002
8.948085e+002, 3.167026e-002
8.967370e+002, 3.251408e-002
8.986655e+002, 3.337810e-002
9.005939e+002, 3.428356e-002
9.025224e+002, 3.550788e-002
9.044509e+002, 3.669079e-002
9.063793e+002, 3.752141e-002
9.083078e+002, 3.845379e-002
9.102363e+002, 3.943686e-002
9.121647e+002, 4.051219e-002
9.140932e+002, 4.159993e-002
9.160217e+002, 4.258091e-002
9.179501e+002, 4.339165e-002
9.198786e+002, 4.417745e-002
9.218071e+002, 4.521997e-002
9.237355e+002, 4.642047e-002
9.256640e+002, 4.745678e-002
9.275925e+002, 4.841016e-002
9.295209e+002, 4.942014e-002
9.314494e+002, 5.052847e-002
9.333779e+002, 5.154752e-002
9.353063e+002, 5.245438e-002
9.372348e+002, 5.336577e-002
9.391633e+002, 5.419515e-002
9.410917e+002, 5.487131e-002
9.430202e+002, 5.560650e-002
9.449487e+002, 5.640023e-002
9.468771e+002, 5.712676e-002
9.488056e+002, 5.778720e-002
9.507341e+002, 5.854176e-002
9.526625e+002, 5.917196e-002
9.545910e+002, 5.995382e-002
9.565195e+002, 6.091099e-002
9.584479e+002, 6.174490e-002
9.603764e+002, 6.277046e-002
9.623049e+002, 6.407306e-002
9.642333e+002, 6.555034e-002
9.661618e+002, 6.713519e-002
9.680903e+002, 6.895528e-002
9.700187e+002, 7.104830e-002
9.719472e+002, 7.352395e-002
9.738757e+002, 7.644635e-002
9.758041e+002, 7.973308e-002
9.777326e+002, 8.312108e-002
9.796611e+002, 8.689509e-002
9.815895e+002, 9.136691e-002
9.835180e+002, 9.621503e-002
9.854465e+002, 1.012982e-001
9.873749e+002, 1.067407e-001
9.893034e+002, 1.127398e-001
9.912319e+002, 1.190881e-001
9.931603e+002, 1.257303e-001
9.950888e+002, 1.325919e-001
9.970173e+002, 1.398377e-001
9.989457e+002, 1.472045e-001
1.000874e+003, 1.545809e-001
1.002803e+003, 1.623894e-001
1.004731e+003, 1.703856e-001
1.006660e+003, 1.782799e-001
1.008588e+003, 1.862563e-001
1.010517e+003, 1.941146e-001
1.012445e+003, 2.017704e-001
1.014373e+003, 2.091412e-001
1.016302e+003, 2.165966e-001
1.018230e+003, 2.239823e-001
1.020159e+003, 2.309221e-001
1.022087e+003, 2.374707e-001
1.024016e+003, 2.437381e-001
1.025944e+003, 2.501033e-001
1.027873e+003, 2.560457e-001
1.029801e+003, 2.615600e-001
1.031730e+003, 2.669224e-001
1.033658e+003, 2.721912e-001
1.035587e+003, 2.766933e-001
1.037515e+003, 2.808403e-001
1.039444e+003, 2.847153e-001
1.041372e+003, 2.879243e-001
1.043301e+003, 2.908342e-001
1.045229e+003, 2.933292e-001
1.047157e+003, 2.955348e-001
1.049086e+003, 2.973830e-001
1.051014e+003, 2.988612e-001
1.052943e+003, 2.999179e-001
1.054871e+003, 3.008051e-001
1.056800e+003, 3.015118e-001
1.058728e+003, 3.017896e-001
1.060657e+003, 3.019271e-001
1.062585e+003, 3.018321e-001
1.064514e+003, 3.013405e-001
1.066442e+003, 3.007601e-001
1.068371e+003, 3.004381e-001
1.070299e+003, 2.996545e-001
1.072228e+003, 2.984804e-001
1.074156e+003, 2.972074e-001
1.076084e+003, 2.958016e-001
1.078013e+003, 2.943366e-001
1.079941e+003, 2.928886e-001
1.081870e+003, 2.911071e-001
1.083798e+003, 2.888527e-001
1.085727e+003, 2.866970e-001
1.087655e+003, 2.844018e-001
1.089584e+003, 2.817343e-001
1.091512e+003, 2.787982e-001
1.093441e+003, 2.755192e-001
1.095369e+003, 2.717469e-001
1.097298e+003, 2.676625e-001
1.099226e+003, 2.630365e-001
1.101155e+003, 2.578995e-001
1.103083e+003, 2.526076e-001
1.105011e+003, 2.468925e-001
1.106940e+003, 2.401860e-001
1.108868e+003, 2.327934e-001
1.110797e+003, 2.251847e-001
1.112725e+003, 2.172727e-001
1.114654e+003, 2.095615e-001
1.116582e+003, 2.018599e-001
1.118511e+003, 1.942617e-001
1.120439e+003, 1.874171e-001
1.122368e+003, 1.809762e-001
1.124296e+003, 1.748658e-001
1.126225e+003, 1.693793e-001
1.128153e+003, 1.643960e-001
1.130082e+003, 1.597383e-001
1.132010e+003, 1.554678e-001
1.133938e+003, 1.515558e-001
1.135867e+003, 1.478941e-001
1.137795e+003, 1.443535e-001
1.139724e+003, 1.411047e-001
1.141652e+003, 1.379362e-001
1.143581e+003, 1.351146e-001
1.145509e+003, 1.328603e-001
1.147438e+003, 1.305271e-001
1.149366e+003, 1.280208e-001
1.151295e+003, 1.255901e-001
1.153223e+003, 1.236739e-001
1.155152e+003, 1.218356e-001
1.157080e+003, 1.199170e-001
1.159009e+003, 1.182449e-001
1.160937e+003, 1.165021e-001
1.162865e+003, 1.147633e-001
1.164794e+003, 1.129000e-001
1.166722e+003, 1.111223e-001
1.168651e+003, 1.096055e-001
1.170579e+003, 1.082668e-001
1.172508e+003, 1.068685e-001
1.174436e+003, 1.054109e-001
1.176365e+003, 1.039627e-001
1.178293e+003, 1.024351e-001
1.180222e+003, 1.008666e-001
1.182150e+003, 9.947104e-002
1.184079e+003, 9.815346e-002
1.186007e+003, 9.674491e-002
1.187936e+003, 9.542219e-002
1.189864e+003, 9.410175e-002
1.191792e+003, 9.275601e-002
1.193721e+003, 9.140105e-002
1.195649e+003, 9.016603e-002
1.197578e+003, 8.896761e-002
1.199506e+003, 8.755516e-002
1.201435e+003, 8.602814e-002
1.203363e+003, 8.443915e-002
1.205292e+003, 8.301529e-002
1.207220e+003, 8.166999e-002
1.209149e+003, 8.021004e-002
1.211077e+003, 7.846498e-002
1.213006e+003, 7.676846e-002
1.214934e+003, 7.519826e-002
1.216863e+003, 7.341359e-002
1.218791e+003, 7.133944e-002
1.220719e+003, 6.942366e-002
1.222648e+003, 6.758795e-002
1.224576e+003, 6.563697e-002
1.226505e+003, 6.349330e-002
1.228433e+003, 6.133054e-002
1.230362e+003, 5.901880e-002
1.232290e+003, 5.667475e-002
1.234219e+003, 5.432861e-002
1.236147e+003, 5.175419e-002
1.238076e+003, 4.926417e-002
1.240004e+003, 4.680833e-002
1.241933e+003, 4.430345e-002
1.243861e+003, 4.157236e-002
1.245790e+003, 3.889697e-002
1.247718e+003, 3.631485e-002
1.249646e+003, 3.367427e-002
1.251575e+003, 3.107817e-002
1.253503e+003, 2.858675e-002
1.255432e+003, 2.627894e-002
1.257360e+003, 2.390811e-002
1.259289e+003, 2.161948e-002
1.261217e+003, 1.973680e-002
1.263146e+003, 1.804152e-002
1.265074e+003, 1.638557e-002
1.267003e+003, 1.484372e-002
1.268931e+003, 1.363823e-002
1.270860e+003, 1.280718e-002
1.272788e+003, 1.199999e-002
1.274717e+003, 1.123358e-002
1.276645e+003, 1.053535e-002
1.278573e+003, 9.973423e-003
1.280502e+003, 9.489999e-003
1.282430e+003, 9.014838e-003
1.284359e+003, 8.635271e-003
1.286287e+003, 8.188642e-003
1.288216e+003, 7.838434e-003
1.290144e+003, 7.502661e-003
1.292073e+003, 7.085361e-003
1.294001e+003, 6.777165e-003
1.295930e+003, 6.579928e-003
1.297858e+003, 6.350191e-003
1.299787e+003, 6.042952e-003
1.301715e+003, 5.823423e-003
1.303644e+003, 5.587531e-003
1.305572e+003, 5.364695e-003
1.307500e+003, 5.292365e-003
1.309429e+003, 5.130162e-003
1.311357e+003, 4.999127e-003
1.313286e+003, 4.872820e-003
1.315214e+003, 4.692075e-003
1.317143e+003, 4.570974e-003
1.319071e+003, 4.504378e-003
1.321000e+003, 4.318305e-003
1.322928e+003, 4.157973e-003
1.324857e+003, 3.979222e-003
1.326785e+003, 3.739265e-003
1.328714e+003, 3.706330e-003
1.330642e+003, 3.716967e-003
1.332571e+003, 3.565159e-003
1.334499e+003, 3.465006e-003
1.336427e+003, 3.412686e-003
1.338356e+003, 3.341469e-003
1.340284e+003, 3.370604e-003
1.342213e+003, 3.329215e-003
1.344141e+003, 3.216925e-003
1.346070e+003, 3.086382e-003
1.347998e+003, 3.137665e-003
1.349927e+003, 3.095710e-003
1.351855e+003, 3.113990e-003
1.353784e+003, 3.236424e-003
1.355712e+003, 3.044334e-003
1.357641e+003, 2.839221e-003
1.359569e+003, 2.925433e-003
1.361498e+003, 3.148126e-003
1.363426e+003, 3.152046e-003
1.365354e+003, 3.066006e-003
1.367283e+003, 2.835685e-003
1.369211e+003, 2.525491e-003
1.371140e+003, 2.444011e-003
1.373068e+003, 2.425522e-003
1.374997e+003, 2.468171e-003
1.376925e+003, 2.639103e-003
1.378854e+003, 2.732618e-003
1.380782e+003, 2.614714e-003
1.382711e+003, 2.432682e-003
1.384639e+003, 2.508159e-003
1.386568e+003, 2.388551e-003
1.388496e+003, 2.364121e-003
1.390424e+003, 2.370615e-003
1.392353e+003, 2.482369e-003
1.394281e+003, 2.467674e-003
1.396210e+003, 2.453838e-003
1.398138e+003, 2.508336e-003
1.400067e+003, 2.603506e-003
1.401995e+003, 2.470792e-003
1.403924e+003, 2.370920e-003
1.405852e+003, 2.520143e-003
1.407781e+003, 2.633313e-003
1.409709e+003, 2.501677e-003
1.411638e+003, 2.365736e-003
1.413566e+003, 2.449844e-003
1.415495e+003, 2.596267e-003
1.417423e+003, 2.463100e-003
1.419351e+003, 2.428388e-003
1.421280e+003, 2.367557e-003
1.423208e+003, 2.421577e-003
1.425137e+003, 2.396845e-003
1.427065e+003, 2.278229e-003
1.428994e+003, 2.179776e-003
1.430922e+003, 2.204514e-003
1.432851e+003, 2.429144e-003
1.434779e+003, 2.372945e-003
1.436708e+003, 2.225708e-003
1.438636e+003, 2.402305e-003
1.440565e+003, 2.512209e-003
1.442493e+003, 2.490246e-003
1.444422e+003, 2.447030e-003
1.446350e+003, 2.269880e-003
1.448278e+003, 2.438844e-003
1.450207e+003, 2.492302e-003
1.452135e+003, 2.410149e-003
1.454064e+003, 2.370385e-003
1.455992e+003, 2.235893e-003
1.457921e+003, 2.316356e-003
1.459849e+003, 2.173268e-003
1.461778e+003, 2.340941e-003
1.463706e+003, 2.331088e-003
1.465635e+003, 2.211739e-003
1.467563e+003, 2.286809e-003
1.469492e+003, 2.393495e-003
1.471420e+003, 2.260167e-003
1.473349e+003, 2.308035e-003
1.475277e+003, 2.347156e-003
1.477205e+003, 2.560175e-003
1.479134e+003, 2.699722e-003
1.481062e+003, 2.580255e-003
1.482991e+003, 2.328960e-003
1.484919e+003, 2.270889e-003
1.486848e+003, 2.220659e-003
1.488776e+003, 2.098721e-003
1.490705e+003, 2.332455e-003
1.492633e+003, 2.462854e-003
1.494562e+003, 2.296414e-003
1.496490e+003, 2.117995e-003
1.498419e+003, 1.977700e-003
1.500347e+003, 2.145620e-003
1.502276e+003, 2.169222e-003
1.504204e+003, 2.029576e-003
1.506132e+003, 2.224254e-003
1.508061e+003, 2.444920e-003
1.509989e+003, 2.235296e-003
1.511918e+003, 2.113158e-003
1.513846e+003, 2.102843e-003
1.515775e+003, 2.161757e-003
1.517703e+003, 2.240480e-003
1.519632e+003, 1.946082e-003
1.521560e+003, 1.894805e-003
1.523489e+003, 1.976918e-003
1.525417e+003, 1.969351e-003
1.527346e+003, 2.022739e-003
1.529274e+003, 2.109711e-003
1.531203e+003, 1.847677e-003
1.533131e+003, 1.780203e-003
1.535059e+003, 1.973397e-003
1.536988e+003, 1.917604e-003
1.538916e+003, 1.775481e-003
1.540845e+003, 1.858335e-003
1.542773e+003, 1.964731e-003
1.544702e+003, 1.870856e-003
1.546630e+003, 1.768510e-003
1.548559e+003, 1.600529e-003
1.550487e+003, 1.694864e-003
1.552416e+003, 1.850045e-003
1.554344e+003, 1.900480e-003
1.556273e+003, 1.689400e-003
1.558201e+003, 1.595573e-003
1.560130e+003, 1.695805e-003
1.562058e+003, 1.639584e-003
1.563986e+003, 1.683388e-003
1.565915e+003, 1.839611e-003
1.567843e+003, 2.007624e-003
1.569772e+003, 2.017634e-003
1.571700e+003, 2.005893e-003
1.573629e+003, 1.993244e-003
1.575557e+003, 1.867722e-003
1.577486e+003, 2.033062e-003
1.579414e+003, 2.103306e-003
1.581343e+003, 2.218055e-003
1.583271e+003, 2.428078e-003
1.585200e+003, 2.607781e-003
1.587128e+003, 2.595588e-003
1.589057e+003, 2.514231e-003
1.590985e+003, 2.631383e-003
1.592913e+003, 2.965629e-003
1.594842e+003, 3.224684e-003
1.596770e+003, 3.386187e-003
1.598699e+003, 3.648820e-003
1.600627e+003, 3.875619e-003
1.602556e+003, 3.922442e-003
1.604484e+003, 3.809462e-003
1.606413e+003, 3.949358e-003
1.608341e+003, 4.556084e-003
1.610270e+003, 4.973770e-003
1.612198e+003, 5.124544e-003
1.614127e+003, 5.402982e-003
1.616055e+003, 5.841832e-003
1.617984e+003, 6.336178e-003
1.619912e+003, 6.280509e-003
1.621840e+003, 6.150250e-003
1.623769e+003, 6.217297e-003
1.625697e+003, 6.247225e-003
1.627626e+003, 6.289972e-003
1.629554e+003, 6.279672e-003
1.631483e+003, 6.265878e-003
1.633411e+003, 6.075947e-003
1.635340e+003, 6.040853e-003
1.637268e+003, 6.321925e-003
1.639197e+003, 6.234854e-003
1.641125e+003, 6.016624e-003
1.643054e+003, 5.910016e-003
1.644982e+003, 5.534347e-003
1.646911e+003, 5.481975e-003
1.648839e+003, 5.467084e-003
1.650767e+003, 5.176504e-003
1.652696e+003, 4.877911e-003
1.654624e+003, 5.087751e-003
1.656553e+003, 4.960618e-003
1.658481e+003, 4.667973e-003
1.660410e+003, 4.624118e-003
1.662338e+003, 4.412229e-003
1.664267e+003, 4.338613e-003
1.666195e+003, 4.270546e-003
1.668124e+003, 4.264205e-003
1.670052e+003, 4.167962e-003
1.671981e+003, 4.079602e-003
1.673909e+003, 4.076771e-003
1.675838e+003, 3.981306e-003
1.677766e+003, 3.464838e-003
1.679694e+003, 3.199440e-003
1.681623e+003, 3.291684e-003
1.683551e+003, 3.052566e-003
1.685480e+003, 3.313072e-003
1.687408e+003, 3.172441e-003
1.689337e+003, 3.094928e-003
1.691265e+003, 3.217988e-003
1.693194e+003, 2.879961e-003
1.695122e+003, 2.589421e-003
1.697051e+003, 2.980533e-003
1.698979e+003, 2.773528e-003
1.700908e+003, 2.871494e-003
1.702836e+003, 2.591420e-003
1.704765e+003, 2.782173e-003
1.706693e+003, 2.893660e-003
1.708621e+003, 2.838022e-003
1.710550e+003, 2.771210e-003
1.712478e+003, 2.688027e-003
1.714407e+003, 2.469237e-003
1.716335e+003, 2.220013e-003
1.718264e+003, 2.448685e-003
1.720192e+003, 2.632830e-003
1.722121e+003, 2.698201e-003
1.724049e+003, 2.581117e-003
1.725978e+003, 2.228223e-003
1.727906e+003, 2.106915e-003
1.729835e+003, 2.155226e-003
1.731763e+003, 1.780292e-003
1.733692e+003, 1.270029e-003
1.735620e+003, 1.486731e-003
1.737548e+003, 1.519778e-003
1.739477e+003, 1.372380e-003
1.741405e+003, 1.381228e-003
1.743334e+003, 1.295127e-003
1.745262e+003, 1.439017e-003
1.747191e+003, 1.463899e-003
1.749119e+003, 1.270593e-003
1.751048e+003, 1.226126e-003
1.752976e+003, 1.169371e-003
1.754905e+003, 1.246909e-003
1.756833e+003, 1.651190e-003
1.758762e+003, 1.814883e-003
1.760690e+003, 1.752871e-003
1.762619e+003, 1.770156e-003
1.764547e+003, 1.666551e-003
1.766475e+003, 1.596707e-003
1.768404e+003, 1.555701e-003
1.770332e+003, 1.522855e-003
1.772261e+003, 1.961882e-003
1.774189e+003, 2.156148e-003
1.776118e+003, 2.007671e-003
1.778046e+003, 2.131560e-003
1.779975e+003, 2.102254e-003
1.781903e+003, 1.859553e-003
1.783832e+003, 1.794722e-003
1.785760e+003, 1.895798e-003
1.787689e+003, 1.795688e-003
1.789617e+003, 1.742206e-003
1.791546e+003, 1.693685e-003
1.793474e+003, 1.814029e-003
1.795402e+003, 1.775849e-003
1.797331e+003, 1.781668e-003
1.799259e+003, 1.768263e-003
1.801188e+003, 1.863834e-003
1.803116e+003, 1.700311e-003
1.805045e+003, 1.649376e-003
1.806973e+003, 1.754417e-003
1.808902e+003, 1.539487e-003
1.810830e+003, 1.761854e-003
1.812759e+003, 1.708522e-003
1.814687e+003, 1.550511e-003
1.816616e+003, 1.454094e-003
1.818544e+003, 1.625395e-003
1.820473e+003, 2.055092e-003
1.822401e+003, 2.185064e-003
1.824329e+003, 2.051169e-003
1.826258e+003, 1.658068e-003
1.828186e+003, 1.474885e-003
1.830115e+003, 1.797150e-003
1.832043e+003, 2.128588e-003
1.833972e+003, 2.077441e-003
1.835900e+003, 1.840796e-003
1.837829e+003, 1.988577e-003
1.839757e+003, 2.092654e-003
1.841686e+003, 2.207551e-003
1.843614e+003, 2.273219e-003
1.845543e+003, 2.355709e-003
1.847471e+003, 2.246743e-003
1.849400e+003, 2.020213e-003
1.851328e+003, 1.554081e-003
1.853256e+003, 1.837583e-003
1.855185e+003, 2.308764e-003
1.857113e+003, 1.971078e-003
1.859042e+003, 1.917891e-003
1.860970e+003, 2.142522e-003
1.862899e+003, 2.196587e-003
1.864827e+003, 2.416275e-003
1.866756e+003, 2.570471e-003
1.868684e+003, 1.867184e-003
1.870613e+003, 1.896967e-003
1.872541e+003, 2.405928e-003
1.874470e+003, 2.173963e-003
1.876398e+003, 2.049998e-003
1.878327e+003, 1.971568e-003
1.880255e+003, 1.508127e-003
1.882183e+003, 1.924847e-003
1.884112e+003, 2.036817e-003
1.886040e+003, 1.487586e-003
1.887969e+003, 1.641735e-003
1.889897e+003, 1.786202e-003
1.891826e+003, 1.826063e-003
1.893754e+003, 1.252541e-003
1.895683e+003, 9.035412e-004
1.897611e+003, 1.431406e-003
1.899540e+003, 1.423369e-003
1.901468e+003, 1.400386e-003
1.903397e+003, 1.162440e-003
1.905325e+003, 5.032918e-004
1.907254e+003, -2.981708e-004
1.909182e+003, -5.395405e-004
1.911110e+003, 3.788848e-004
1.913039e+003, 5.757360e-004
1.914967e+003, -4.436449e-006
1.916896e+003, 1.698460e-005
1.918824e+003, -4.363032e-004
1.920753e+003, -1.009610e-003
1.922681e+003, -8.248928e-004
1.924610e+003, -1.621518e-004
1.926538e+003, 3.325437e-004
1.928467e+003, -8.534925e-005
1.930395e+003, -8.806952e-004
1.932324e+003, -7.893525e-004
1.934252e+003, -9.688849e-004
1.936181e+003, -4.783884e-004
1.938109e+003, 5.674972e-005
1.940037e+003, -7.545016e-004
1.941966e+003, -1.286940e-003
1.943894e+003, -1.131379e-003
1.945823e+003, -1.896423e-003
1.947751e+003, -1.962991e-003
1.949680e+003, -1.647229e-003
1.951608e+003, -2.255629e-003
1.953537e+003, -2.105479e-003
1.955465e+003, -2.906355e-003
1.957394e+003, -3.870833e-003
1.959322e+003, -3.531545e-003
1.961251e+003, -3.379160e-003
1.963179e+003, -4.227029e-003
1.965108e+003, -5.114179e-003
1.967036e+003, -5.128645e-003
1.968964e+003, -4.793445e-003
1.970893e+003, -5.138386e-003
1.972821e+003, -4.971023e-003
1.974750e+003, -4.454531e-003
1.976678e+003, -4.360068e-003
1.978607e+003, -3.997794e-003
1.980535e+003, -3.184797e-003
1.982464e+003, -3.098557e-003
1.984392e+003, -2.813107e-003
1.986321e+003, -2.624623e-003
1.988249e+003, -3.106561e-003
1.990178e+003, -3.245441e-003
1.992106e+003, -3.649803e-003
1.994035e+003, -3.465518e-003
1.995963e+003, -3.395780e-003
1.997891e+003, -4.650859e-003
1.999820e+003, -5.840464e-003
2.001748e+003, -5.973167e-003
2.003677e+003, -7.371816e-003
2.005605e+003, -7.697736e-003
2.007534e+003, -6.691286e-003
2.009462e+003, -7.691127e-003
2.011391e+003, -6.722427e-003
2.013319e+003, -6.149149e-003
2.015248e+003, -7.637732e-003
2.017176e+003, -7.532131e-003
2.019105e+003, -5.751718e-003
2.021033e+003, -6.520501e-003
2.022962e+003, -7.672224e-003
2.024890e+003, -8.516085e-003
2.026818e+003, -7.737238e-003
2.028747e+003, -6.909270e-003
2.030675e+003, -8.689783e-003
2.032604e+003, -8.818481e-003
2.034532e+003, -8.951581e-003
2.036461e+003, -8.292557e-003
2.038389e+003, -6.779190e-003
2.040318e+003, -6.142756e-003
2.042246e+003, -7.140625e-003
2.044175e+003, -7.921262e-003
2.046103e+003, -5.768229e-003
2.048032e+003, -4.290401e-003
2.049960e+003, -3.546000e-003
2.051889e+003, -5.102762e-003
2.053817e+003, -5.565996e-003
2.055746e+003, -4.705458e-003
2.057674e+003, -4.504398e-003
2.059603e+003, -5.008394e-003
2.061531e+003, -5.253854e-003
2.063459e+003, -5.243919e-003
2.065388e+003, -5.663466e-003
2.067316e+003, -5.340437e-003
2.069245e+003, -4.544676e-003
2.071173e+003, -4.347118e-003
2.073102e+003, -4.488077e-003
2.075030e+003, -4.453870e-003
2.076959e+003, -4.434039e-003
2.078887e+003, -3.899507e-003
2.080816e+003, -2.597642e-003
2.082744e+003, -1.792108e-003
2.084673e+003, -2.654590e-003
2.086601e+003, -3.677404e-003
2.088530e+003, -3.426582e-003
2.090458e+003, -3.365844e-003
2.092386e+003, -4.386859e-003
2.094315e+003, -4.607997e-003
2.096243e+003, -3.835842e-003
2.098172e+003, -3.552231e-003
2.100100e+003, -3.269250e-003
2.102029e+003, -3.904611e-003
2.103957e+003, -4.433029e-003
2.105886e+003, -3.593015e-003
2.107814e+003, -3.099043e-003
2.109743e+003, -4.292363e-003
2.111671e+003, -5.136683e-003
2.113600e+003, -5.082174e-003
2.115528e+003, -4.749006e-003
2.117457e+003, -4.190304e-003
2.119385e+003, -5.088119e-003
2.121313e+003, -5.641303e-003
2.123242e+003, -4.859605e-003
2.125170e+003, -4.946738e-003
2.127099e+003, -5.372868e-003
2.129027e+003, -6.219250e-003
2.130956e+003, -8.445401e-003
2.132884e+003, -9.791459e-003
2.134813e+003, -9.095437e-003
2.136741e+003, -8.796666e-003
2.138670e+003, -8.574897e-003
2.140598e+003, -8.998496e-003
2.142527e+003, -9.880880e-003
2.144455e+003, -9.740011e-003
2.146384e+003, -1.038583e-002
2.148312e+003, -1.164213e-002
2.150240e+003, -1.163612e-002
2.152169e+003, -1.204367e-002
2.154097e+003, -1.494276e-002
2.156026e+003, -1.718493e-002
2.157954e+003, -1.789055e-002
2.159883e+003, -1.569694e-002
2.161811e+003, -1.308468e-002
2.163740e+003, -1.179999e-002
2.165668e+003, -1.017827e-002
2.167597e+003, -1.003698e-002
2.169525e+003, -1.126602e-002
2.171454e+003, -1.131620e-002
2.173382e+003, -1.082924e-002
2.175311e+003, -1.012517e-002
2.177239e+003, -8.421809e-003
2.179167e+003, -8.475855e-003
2.181096e+003, -8.678082e-003
2.183024e+003, -8.010063e-003
2.184953e+003, -8.137087e-003
2.186881e+003, -7.907662e-003
2.188810e+003, -8.805345e-003
2.190738e+003, -9.465256e-003
2.192667e+003, -7.588152e-003
2.194595e+003, -6.955602e-003
2.196524e+003, -6.424086e-003
2.198452e+003, -6.714326e-003
2.200381e+003, -8.677488e-003
2.202309e+003, -9.170127e-003
2.204238e+003, -7.625689e-003
2.206166e+003, -7.395669e-003
2.208094e+003, -8.178283e-003
2.210023e+003, -7.703454e-003
2.211951e+003, -6.849781e-003
2.213880e+003, -6.436714e-003
2.215808e+003, -6.193483e-003
2.217737e+003, -7.144970e-003
2.219665e+003, -5.648266e-003
2.221594e+003, -5.015431e-003
2.223522e+003, -4.663470e-003
2.225451e+003, -4.845197e-003
2.227379e+003, -4.940474e-003
2.229308e+003, -4.462447e-003
2.231236e+003, -3.444503e-003
2.233165e+003, -3.463095e-003
2.235093e+003, -2.400822e-003
2.237021e+003, -2.102907e-003
2.238950e+003, -4.038157e-003
2.240878e+003, -4.437512e-003
2.242807e+003, -4.425640e-003
2.244735e+003, -3.860638e-003
2.246664e+003, -2.398874e-003
2.248592e+003, -2.110361e-003
2.250521e+003, -1.986051e-003
2.252449e+003, -1.960492e-003
2.254378e+003, -2.163798e-003
2.256306e+003, -1.661112e-003
2.258235e+003, -7.594575e-004
2.260163e+003, -4.276574e-004
2.262092e+003, -4.113456e-004
2.264020e+003, -1.155093e-003
2.265948e+003, -1.558873e-003
2.267877e+003, -1.258106e-003
2.269805e+003, -1.269647e-003
2.271734e+003, -7.875813e-004
2.273662e+003, -9.591318e-004
2.275591e+003, -1.412226e-003
2.277519e+003, -6.534031e-004
2.279448e+003, 2.536605e-004
2.281376e+003, 5.483170e-006
2.283305e+003, 2.264032e-005
2.285233e+003, 5.909717e-004
2.287162e+003, 3.422516e-004
2.289090e+003, -1.671697e-004
2.291019e+003, 3.921794e-004
2.292947e+003, 1.249479e-003
2.294875e+003, 1.883525e-003
2.296804e+003, 1.326945e-003
2.298732e+003, 7.644964e-004
2.300661e+003, 8.991089e-004
2.302589e+003, 1.567002e-003
2.304518e+003, 1.774257e-003
2.306446e+003, 1.781081e-003
2.308375e+003, 1.865707e-003
2.310303e+003, 1.494857e-003
2.312232e+003, 1.482528e-003
2.314160e+003, 1.881184e-003
2.316089e+003, 1.581241e-003
2.318017e+003, 1.343040e-003
2.319946e+003, 2.090566e-003
2.321874e+003, 3.109583e-003
2.323802e+003, 3.571606e-003
2.325731e+003, 2.676329e-003
2.327659e+003, 1.971539e-003
2.329588e+003, 2.151977e-003
2.331516e+003, 2.812797e-003
2.333445e+003, 2.366523e-003
2.335373e+003, 1.818998e-003
2.337302e+003, 1.627559e-003
2.339230e+003, 1.571219e-003
2.341159e+003, 1.636273e-003
2.343087e+003, 1.681317e-003
2.345016e+003, 1.611101e-003
2.346944e+003, 1.294277e-003
2.348873e+003, 1.270488e-003
2.350801e+003, 1.617752e-003
2.352729e+003, 1.545589e-003
2.354658e+003, 1.397727e-003
2.356586e+003, 1.288063e-003
2.358515e+003, 1.507830e-003
2.360443e+003, 1.741842e-003
2.362372e+003, 1.248792e-003
2.364300e+003, 1.018872e-003
2.366229e+003, 6.564933e-004
2.368157e+003, 3.288041e-004
2.370086e+003, 3.770956e-004
2.372014e+003, 4.519072e-004
2.373942e+003, 5.312582e-004
2.375871e+003, 4.230436e-004
2.377799e+003, 7.347422e-004
2.379728e+003, 3.471895e-004
2.381656e+003, 8.889599e-005
2.383585e+003, 6.316734e-004
2.385513e+003, 8.877380e-004
2.387442e+003, 9.848434e-004
2.389370e+003, 9.402746e-004
2.391299e+003, 5.094635e-004
2.393227e+003, 3.242320e-004
2.395156e+003, 5.886876e-004
2.397084e+003, 4.349634e-005
2.399012e+003, -4.476670e-004
2.400941e+003, -1.312954e-004
2.402869e+003, 6.641994e-004
2.404798e+003, 1.333414e-003
2.406726e+003, 1.238193e-003
2.408655e+003, 8.554801e-004
2.410583e+003, 5.070544e-004
2.412512e+003, 7.880038e-005
2.414440e+003, 1.000664e-004
2.416369e+003, 1.276125e-004
2.418297e+003, 5.765049e-004
2.420226e+003, 3.398605e-005
2.422154e+003, -1.813784e-004
2.424083e+003, 5.450188e-004
2.426011e+003, 7.257832e-004
2.427939e+003, 6.066594e-004
2.429868e+003, 3.120185e-004
2.431796e+003, 8.363109e-005
2.433725e+003, 1.897533e-004
2.435653e+003, 4.189263e-004
2.437582e+003, 6.692011e-004
2.439510e+003, 8.560203e-004
2.441439e+003, 1.579437e-003
2.443367e+003, 8.591583e-004
2.445296e+003, 5.185345e-005
2.447224e+003, 4.771398e-004
2.449153e+003, 9.304757e-004
2.451081e+003, 1.139647e-003
2.453010e+003, 1.228423e-003
2.454938e+003, 9.772109e-004
2.456866e+003, 1.320744e-003
2.458795e+003, 1.695443e-003
2.460723e+003, 8.986456e-004
2.462652e+003, 3.878312e-004
2.464580e+003, 5.663201e-004
2.466509e+003, 6.862357e-004
2.468437e+003, 6.585380e-004
2.470366e+003, 8.386839e-004
2.472294e+003, 1.481038e-003
2.474223e+003, 1.471029e-003
2.476151e+003, 7.804666e-004
2.478080e+003, 6.718786e-004
2.480008e+003, 8.606308e-004
2.481937e+003, 7.775200e-004
2.483865e+003, 6.876150e-004
2.485793e+003, 9.271043e-004
2.487722e+003, 1.147791e-003
2.489650e+003, 1.275863e-003
2.491579e+003, 1.074451e-003
2.493507e+003, 1.413259e-003
2.495436e+003, 1.584174e-003
2.497364e+003, 7.524680e-004
2.499293e+003, 8.670018e-004
2.501221e+003, 2.006153e-003
2.503150e+003, 2.255098e-003
2.505078e+003, 2.088584e-003
2.507007e+003, 2.082536e-003
2.508935e+003, 2.259147e-003
2.510864e+003, 2.463238e-003
2.512792e+003, 2.164176e-003
2.514720e+003, 2.094207e-003
2.516649e+003, 2.040674e-003
2.518577e+003, 1.731934e-003
2.520506e+003, 1.710258e-003
2.522434e+003, 1.959878e-003
2.524363e+003, 2.488979e-003
2.526291e+003, 2.316138e-003
2.528220e+003, 2.161104e-003
2.530148e+003, 3.301034e-003
2.532077e+003, 3.395869e-003
2.534005e+003, 2.846519e-003
2.535934e+003, 2.694616e-003
2.537862e+003, 2.684443e-003
2.539791e+003, 2.529840e-003
2.541719e+003, 1.898521e-003
2.543647e+003, 2.119410e-003
2.545576e+003, 3.040759e-003
2.547504e+003, 2.872523e-003
2.549433e+003, 2.192452e-003
2.551361e+003, 2.400472e-003
2.553290e+003, 2.151353e-003
2.555218e+003, 1.991729e-003
2.557147e+003, 2.354122e-003
2.559075e+003, 2.333466e-003
2.561004e+003, 2.491531e-003
2.562932e+003, 2.790146e-003
2.564861e+003, 3.048977e-003
2.566789e+003, 3.288635e-003
2.568718e+003, 3.294607e-003
2.570646e+003, 3.275980e-003
2.572574e+003, 2.920717e-003
2.574503e+003, 3.053259e-003
2.576431e+003, 2.972859e-003
2.578360e+003, 3.103325e-003
2.580288e+003, 3.198071e-003
2.582217e+003, 3.341190e-003
2.584145e+003, 3.197444e-003
2.586074e+003, 3.039751e-003
2.588002e+003, 2.965668e-003
2.589931e+003, 3.194364e-003
2.591859e+003, 3.777624e-003
2.593788e+003, 4.652407e-003
2.595716e+003, 4.794748e-003
2.597645e+003, 3.845650e-003
2.599573e+003, 3.234249e-003
2.601501e+003, 3.519795e-003
2.603430e+003, 3.201764e-003
2.605358e+003, 3.299629e-003
2.607287e+003, 3.914283e-003
2.609215e+003, 4.453877e-003
2.611144e+003, 4.755744e-003
2.613072e+003, 4.351814e-003
2.615001e+003, 3.968645e-003
2.616929e+003, 3.525107e-003
2.618858e+003, 3.411422e-003
2.620786e+003, 4.142573e-003
2.622715e+003, 4.877097e-003
2.624643e+003, 4.562554e-003
2.626572e+003, 4.362946e-003
2.628500e+003, 4.333627e-003
2.630428e+003, 4.191149e-003
2.632357e+003, 4.223549e-003
2.634285e+003, 4.214905e-003
2.636214e+003, 4.723352e-003
2.638142e+003, 5.181218e-003
2.640071e+003, 5.433890e-003
2.641999e+003, 5.302679e-003
2.643928e+003, 5.013074e-003
2.645856e+003, 4.482028e-003
2.647785e+003, 4.389210e-003
2.649713e+003, 4.685395e-003
2.651642e+003, 4.531347e-003
2.653570e+003, 4.373297e-003
2.655499e+003, 4.353423e-003
2.657427e+003, 4.659167e-003
2.659355e+003, 4.455808e-003
2.661284e+003, 4.062979e-003
2.663212e+003, 4.372275e-003
2.665141e+003, 4.263137e-003
2.667069e+003, 4.077136e-003
2.668998e+003, 3.512597e-003
2.670926e+003, 3.387318e-003
2.672855e+003, 4.059142e-003
2.674783e+003, 4.720306e-003
2.676712e+003, 4.760934e-003
2.678640e+003, 4.146134e-003
2.680569e+003, 3.776859e-003
2.682497e+003, 3.659469e-003
2.684426e+003, 3.384284e-003
2.686354e+003, 3.198463e-003
2.688282e+003, 3.165301e-003
2.690211e+003, 3.273404e-003
2.692139e+003, 3.509782e-003
2.694068e+003, 3.616698e-003
2.695996e+003, 3.897370e-003
2.697925e+003, 3.853251e-003
2.699853e+003, 3.619443e-003
2.701782e+003, 3.873401e-003
2.703710e+003, 4.536532e-003
2.705639e+003, 4.563889e-003
2.707567e+003, 4.165263e-003
2.709496e+003, 3.845012e-003
2.711424e+003, 3.656499e-003
2.713353e+003, 3.724937e-003
2.715281e+003, 3.566945e-003
2.717209e+003, 3.580225e-003
2.719138e+003, 4.000171e-003
2.721066e+003, 4.025173e-003
2.722995e+003, 4.022776e-003
2.724923e+003, 3.965020e-003
2.726852e+003, 3.962025e-003
2.728780e+003, 4.153356e-003
2.730709e+003, 3.973804e-003
2.732637e+003, 4.320519e-003
2.734566e+003, 3.871602e-003
2.736494e+003, 3.526978e-003
2.738423e+003, 3.578790e-003
2.740351e+003, 3.513828e-003
2.742280e+003, 3.991012e-003
2.744208e+003, 4.111606e-003
2.746136e+003, 4.215942e-003
2.748065e+003, 3.967093e-003
2.749993e+003, 4.015498e-003
2.751922e+003, 4.269573e-003
2.753850e+003, 4.461405e-003
2.755779e+003, 4.470763e-003
2.757707e+003, 4.425008e-003
2.759636e+003, 4.197398e-003
2.761564e+003, 3.926731e-003
2.763493e+003, 3.875825e-003
2.765421e+003, 3.857755e-003
2.767350e+003, 3.965226e-003
2.769278e+003, 4.128648e-003
2.771207e+003, 3.978862e-003
2.773135e+003, 4.183729e-003
2.775063e+003, 4.218841e-003
2.776992e+003, 4.157511e-003
2.778920e+003, 4.175736e-003
2.780849e+003, 4.595981e-003
2.782777e+003, 4.513187e-003
2.784706e+003, 4.442134e-003
2.786634e+003, 4.661159e-003
2.788563e+003, 4.605395e-003
2.790491e+003, 4.794500e-003
2.792420e+003, 4.510813e-003
2.794348e+003, 4.203107e-003
2.796277e+003, 4.229624e-003
2.798205e+003, 4.422824e-003
2.800134e+003, 4.525699e-003
2.802062e+003, 4.683989e-003
2.803990e+003, 4.835609e-003
2.805919e+003, 4.696318e-003
2.807847e+003, 4.088336e-003
2.809776e+003, 4.033510e-003
2.811704e+003, 4.457070e-003
2.813633e+003, 4.521417e-003
2.815561e+003, 4.889007e-003
2.817490e+003, 5.086579e-003
2.819418e+003, 5.013610e-003
2.821347e+003, 4.780989e-003
2.823275e+003, 5.013520e-003
2.825204e+003, 5.108593e-003
2.827132e+003, 4.104769e-003
2.829061e+003, 3.921172e-003
2.830989e+003, 4.185007e-003
2.832917e+003, 4.356465e-003
2.834846e+003, 4.481886e-003
2.836774e+003, 4.373057e-003
2.838703e+003, 3.838959e-003
2.840631e+003, 3.362501e-003
2.842560e+003, 3.961620e-003
2.844488e+003, 5.063029e-003
2.846417e+003, 4.603744e-003
2.848345e+003, 4.043445e-003
2.850274e+003, 3.869012e-003
2.852202e+003, 3.604983e-003
2.854131e+003, 3.258062e-003
2.856059e+003, 3.376500e-003
2.857988e+003, 4.199562e-003
2.859916e+003, 4.173301e-003
2.861844e+003, 3.911834e-003
2.863773e+003, 3.796253e-003
2.865701e+003, 4.149164e-003
2.867630e+003, 4.121737e-003
2.869558e+003, 4.356438e-003
2.871487e+003, 4.910776e-003
2.873415e+003, 4.904995e-003
2.875344e+003, 4.495924e-003
2.877272e+003, 4.763619e-003
2.879201e+003, 5.604553e-003
2.881129e+003, 5.887867e-003
2.883058e+003, 5.258991e-003
2.884986e+003, 4.897977e-003
2.886915e+003, 5.295902e-003
2.888843e+003, 5.582176e-003
2.890771e+003, 5.206025e-003
2.892700e+003, 4.869124e-003
2.894628e+003, 5.064568e-003
2.896557e+003, 4.991337e-003
2.898485e+003, 4.969399e-003
2.900414e+003, 4.863975e-003
2.902342e+003, 4.306636e-003
2.904271e+003, 4.356621e-003
2.906199e+003, 4.546310e-003
2.908128e+003, 4.633852e-003
2.910056e+003, 3.562288e-003
2.911985e+003, 2.666468e-003
2.913913e+003, 2.751833e-003
2.915842e+003, 3.125128e-003
2.917770e+003, 3.890356e-003
2.919698e+003, 3.787935e-003
2.921627e+003, 3.595000e-003
2.923555e+003, 4.305172e-003
2.925484e+003, 4.229135e-003
2.927412e+003, 3.683054e-003
2.929341e+003, 4.170440e-003
2.931269e+003, 4.340704e-003
2.933198e+003, 4.128935e-003
2.935126e+003, 4.355297e-003
2.937055e+003, 4.395854e-003
2.938983e+003, 4.360045e-003
2.940912e+003, 4.424313e-003
2.942840e+003, 4.744573e-003
2.944769e+003, 5.068168e-003
2.946697e+003, 5.653786e-003
2.948625e+003, 5.561811e-003
2.950554e+003, 4.910003e-003
2.952482e+003, 4.849579e-003
2.954411e+003, 5.117299e-003
2.956339e+003, 5.013446e-003
2.958268e+003, 4.232190e-003
2.960196e+003, 4.169018e-003
2.962125e+003, 5.055085e-003
2.964053e+003, 5.933735e-003
2.965982e+003, 6.583746e-003
2.967910e+003, 6.152104e-003
2.969839e+003, 6.113685e-003
2.971767e+003, 5.623669e-003
2.973696e+003, 5.483635e-003
2.975624e+003, 6.343456e-003
2.977552e+003, 6.480825e-003
2.979481e+003, 6.468454e-003
2.981409e+003, 6.056619e-003
2.983338e+003, 5.225774e-003
2.985266e+003, 5.843458e-003
2.987195e+003, 6.612040e-003
2.989123e+003, 6.244650e-003
2.991052e+003, 6.267003e-003
2.992980e+003, 6.563250e-003
2.994909e+003, 6.437830e-003
2.996837e+003, 5.942719e-003
2.998766e+003, 6.654436e-003
3.000694e+003, 6.820021e-003
3.002623e+003, 6.334340e-003
3.004551e+003, 6.825487e-003
3.006479e+003, 6.818852e-003
3.008408e+003, 6.354460e-003
3.010336e+003, 6.732351e-003
3.012265e+003, 7.045901e-003
3.014193e+003, 6.966973e-003
3.016122e+003, 6.826662e-003
3.018050e+003, 6.742067e-003
3.019979e+003, 6.643486e-003
3.021907e+003, 6.953400e-003
3.023836e+003, 7.678216e-003
3.025764e+003, 8.188138e-003
3.027693e+003, 8.764944e-003
3.029621e+003, 7.967483e-003
3.031550e+003, 7.663152e-003
3.033478e+003, 8.273343e-003
3.035406e+003, 7.992313e-003
3.037335e+003, 7.794904e-003
3.039263e+003, 8.087174e-003
3.041192e+003, 7.997108e-003
3.043120e+003, 7.060305e-003
3.045049e+003, 6.413114e-003
3.046977e+003, 7.104171e-003
3.048906e+003, 8.235525e-003
3.050834e+003, 8.293020e-003
3.052763e+003, 7.415155e-003
3.054691e+003, 7.714431e-003
3.056620e+003, 9.068943e-003
3.058548e+003, 9.373670e-003
3.060477e+003, 9.297577e-003
3.062405e+003, 9.181638e-003
3.064333e+003, 8.502604e-003
3.066262e+003, 8.442110e-003
3.068190e+003, 8.521903e-003
3.070119e+003, 8.993061e-003
3.072047e+003, 9.476759e-003
3.073976e+003, 9.757240e-003
3.075904e+003, 9.321872e-003
3.077833e+003, 9.185595e-003
3.079761e+003, 1.003735e-002
3.081690e+003, 9.884694e-003
3.083618e+003, 9.979713e-003
3.085547e+003, 9.505126e-003
3.087475e+003, 8.404369e-003
3.089404e+003, 9.119538e-003
3.091332e+003, 1.028251e-002
3.093260e+003, 1.061905e-002
3.095189e+003, 9.629860e-003
3.097117e+003, 8.741281e-003
3.099046e+003, 9.180262e-003
3.100974e+003, 9.623853e-003
3.102903e+003, 8.509174e-003
3.104831e+003, 8.044116e-003
3.106760e+003, 9.746737e-003
3.108688e+003, 1.056249e-002
3.110617e+003, 1.035040e-002
3.112545e+003, 1.025716e-002
3.114474e+003, 1.078675e-002
3.116402e+003, 1.076481e-002
3.118331e+003, 1.078522e-002
3.120259e+003, 1.114459e-002
3.122188e+003, 1.072890e-002
3.124116e+003, 1.073532e-002
3.126044e+003, 1.066542e-002
3.127973e+003, 1.000164e-002
3.129901e+003, 1.020747e-002
3.131830e+003, 1.061091e-002
3.133758e+003, 1.071529e-002
3.135687e+003, 1.094590e-002
3.137615e+003, 1.133175e-002
3.139544e+003, 1.139578e-002
3.141472e+003, 1.164296e-002
3.143401e+003, 1.151828e-002
3.145329e+003, 1.092399e-002
3.147258e+003, 1.064711e-002
3.149186e+003, 1.057140e-002
3.151115e+003, 1.108544e-002
3.153043e+003, 1.193539e-002
3.154971e+003, 1.233998e-002
3.156900e+003, 1.164677e-002
3.158828e+003, 1.047562e-002
3.160757e+003, 1.070407e-002
3.162685e+003, 1.159635e-002
3.164614e+003, 1.255610e-002
3.166542e+003, 1.340219e-002
3.168471e+003, 1.293179e-002
3.170399e+003, 1.286734e-002
3.172328e+003, 1.230256e-002
3.174256e+003, 1.200477e-002
3.176185e+003, 1.264004e-002
3.178113e+003, 1.323426e-002
3.180042e+003, 1.225477e-002
3.181970e+003, 1.139724e-002
3.183898e+003, 1.153467e-002
3.185827e+003, 1.264539e-002
3.187755e+003, 1.297244e-002
3.189684e+003, 1.337262e-002
3.191612e+003, 1.375810e-002
3.193541e+003, 1.326261e-002
3.195469e+003, 1.256454e-002
3.197398e+003, 1.273110e-002
3.199326e+003, 1.302413e-002
3.201255e+003, 1.346376e-002
3.203183e+003, 1.370916e-002
3.205112e+003, 1.311747e-002
3.207040e+003, 1.271427e-002
3.208969e+003, 1.295435e-002
3.210897e+003, 1.387036e-002
3.212825e+003, 1.347061e-002
3.214754e+003, 1.336502e-002
3.216682e+003, 1.308371e-002
3.218611e+003, 1.293235e-002
3.220539e+003, 1.326885e-002
3.222468e+003, 1.230086e-002
3.224396e+003, 1.258503e-002
3.226325e+003, 1.318531e-002
3.228253e+003, 1.456711e-002
3.230182e+003, 1.489489e-002
3.232110e+003, 1.423764e-002
3.234039e+003, 1.410206e-002
3.235967e+003, 1.370937e-002
3.237896e+003, 1.340340e-002
3.239824e+003, 1.458972e-002
3.241752e+003, 1.584936e-002
3.243681e+003, 1.521949e-002
3.245609e+003, 1.486681e-002
3.247538e+003, 1.471731e-002
3.249466e+003, 1.380016e-002
3.251395e+003, 1.308595e-002
3.253323e+003, 1.306760e-002
3.255252e+003, 1.358938e-002
3.257180e+003, 1.353554e-002
3.259109e+003, 1.368104e-002
3.261037e+003, 1.421489e-002
3.262966e+003, 1.468116e-002
3.264894e+003, 1.460906e-002
3.266823e+003, 1.419287e-002
3.268751e+003, 1.450245e-002
3.270679e+003, 1.476569e-002
3.272608e+003, 1.532410e-002
3.274536e+003, 1.527906e-002
3.276465e+003, 1.355836e-002
3.278393e+003, 1.376123e-002
3.280322e+003, 1.506888e-002
3.282250e+003, 1.477244e-002
3.284179e+003, 1.438326e-002
3.286107e+003, 1.390532e-002
3.288036e+003, 1.415894e-002
3.289964e+003, 1.491621e-002
3.291893e+003, 1.496684e-002
3.293821e+003, 1.448767e-002
3.295750e+003, 1.423363e-002
3.297678e+003, 1.440066e-002
3.299606e+003, 1.456901e-002
3.301535e+003, 1.437585e-002
3.303463e+003, 1.545609e-002
3.305392e+003, 1.718777e-002
3.307320e+003, 1.681434e-002
3.309249e+003, 1.549380e-002
3.311177e+003, 1.595495e-002
3.313106e+003, 1.588465e-002
3.315034e+003, 1.544351e-002
3.316963e+003, 1.489981e-002
3.318891e+003, 1.528842e-002
3.320820e+003, 1.597771e-002
3.322748e+003, 1.567031e-002
3.324677e+003, 1.569199e-002
3.326605e+003, 1.513793e-002
3.328533e+003, 1.514704e-002
3.330462e+003, 1.484562e-002
3.332390e+003, 1.466525e-002
3.334319e+003, 1.530735e-002
3.336247e+003, 1.518650e-002
3.338176e+003, 1.417906e-002
3.340104e+003, 1.452559e-002
3.342033e+003, 1.507946e-002
3.343961e+003, 1.498886e-002
3.345890e+003, 1.500411e-002
3.347818e+003, 1.481933e-002
3.349747e+003, 1.494493e-002
3.351675e+003, 1.512003e-002
3.353604e+003, 1.550979e-002
3.355532e+003, 1.512698e-002
3.357460e+003, 1.566683e-002
3.359389e+003, 1.649437e-002
3.361317e+003, 1.598780e-002
3.363246e+003, 1.582865e-002
3.365174e+003, 1.635444e-002
3.367103e+003, 1.650989e-002
3.369031e+003, 1.611666e-002
3.370960e+003, 1.559938e-002
3.372888e+003, 1.651341e-002
3.374817e+003, 1.712864e-002
3.376745e+003, 1.694915e-002
3.378674e+003, 1.629989e-002
3.380602e+003, 1.572824e-002
3.382531e+003, 1.542455e-002
3.384459e+003, 1.622561e-002
3.386387e+003, 1.744768e-002
3.388316e+003, 1.837455e-002
3.390244e+003, 1.823313e-002
3.392173e+003, 1.712488e-002
3.394101e+003, 1.685403e-002
3.396030e+003, 1.675327e-002
3.397958e+003, 1.633964e-002
3.399887e+003, 1.554044e-002
3.401815e+003, 1.526585e-002
3.403744e+003, 1.583735e-002
3.405672e+003, 1.628805e-002
3.407601e+003, 1.650604e-002
3.409529e+003, 1.655238e-002
3.411458e+003, 1.666589e-002
3.413386e+003, 1.594616e-002
3.415314e+003, 1.517348e-002
3.417243e+003, 1.571001e-002
3.419171e+003, 1.591175e-002
3.421100e+003, 1.641230e-002
3.423028e+003, 1.595603e-002
3.424957e+003, 1.548084e-002
3.426885e+003, 1.523600e-002
3.428814e+003, 1.574406e-002
3.430742e+003, 1.740254e-002
3.432671e+003, 1.749536e-002
3.434599e+003, 1.635167e-002
3.436528e+003, 1.685194e-002
3.438456e+003, 1.725704e-002
3.440385e+003, 1.611783e-002
3.442313e+003, 1.507790e-002
3.444241e+003, 1.441664e-002
3.446170e+003, 1.479019e-002
3.448098e+003, 1.552551e-002
3.450027e+003, 1.672230e-002
3.451955e+003, 1.652026e-002
3.453884e+003, 1.547872e-002
3.455812e+003, 1.501940e-002
3.457741e+003, 1.482742e-002
3.459669e+003, 1.625749e-002
3.461598e+003, 1.521996e-002
3.463526e+003, 1.348995e-002
3.465455e+003, 1.449720e-002
3.467383e+003, 1.526355e-002
3.469312e+003, 1.603382e-002
3.471240e+003, 1.580008e-002
3.473168e+003, 1.458021e-002
3.475097e+003, 1.450095e-002
3.477025e+003, 1.525224e-002
3.478954e+003, 1.481786e-002
3.480882e+003, 1.425168e-002
3.482811e+003, 1.345152e-002
3.484739e+003, 1.455876e-002
3.486668e+003, 1.515240e-002
3.488596e+003, 1.538533e-002
3.490525e+003, 1.453433e-002
3.492453e+003, 1.422999e-002
3.494382e+003, 1.525192e-002
3.496310e+003, 1.507417e-002
3.498239e+003, 1.549932e-002
3.500167e+003, 1.517815e-002
3.502095e+003, 1.291520e-002
3.504024e+003, 1.236077e-002
3.505952e+003, 1.185303e-002
3.507881e+003, 1.263482e-002
3.509809e+003, 1.427818e-002
3.511738e+003, 1.338174e-002
3.513666e+003, 1.281623e-002
3.515595e+003, 1.431634e-002
3.517523e+003, 1.456150e-002
3.519452e+003, 1.420059e-002
3.521380e+003, 1.414182e-002
3.523309e+003, 1.322891e-002
3.525237e+003, 1.342628e-002
3.527166e+003, 1.387923e-002
3.529094e+003, 1.465259e-002
3.531022e+003, 1.475748e-002
3.532951e+003, 1.501479e-002
3.534879e+003, 1.418859e-002
3.536808e+003, 1.286468e-002
3.538736e+003, 1.237951e-002
3.540665e+003, 1.377888e-002
3.542593e+003, 1.552838e-002
3.544522e+003, 1.477527e-002
3.546450e+003, 1.330076e-002
3.548379e+003, 1.241509e-002
3.550307e+003, 1.247229e-002
3.552236e+003, 1.292476e-002
3.554164e+003, 1.260868e-002
3.556093e+003, 1.234444e-002
3.558021e+003, 1.196764e-002
3.559949e+003, 1.317433e-002
3.561878e+003, 1.384050e-002
3.563806e+003, 1.234308e-002
3.565735e+003, 1.163688e-002
3.567663e+003, 1.213428e-002
3.569592e+003, 1.071315e-002
3.571520e+003, 1.026049e-002
3.573449e+003, 1.058014e-002
3.575377e+003, 1.077824e-002
3.577306e+003, 1.122253e-002
3.579234e+003, 1.288460e-002
3.581163e+003, 1.369803e-002
3.583091e+003, 1.343589e-002
3.585020e+003, 1.485675e-002
3.586948e+003, 1.479073e-002
3.588876e+003, 1.205026e-002
3.590805e+003, 1.133491e-002
3.592733e+003, 1.247646e-002
3.594662e+003, 1.391425e-002
3.596590e+003, 1.418424e-002
3.598519e+003, 1.328288e-002
3.600447e+003, 1.308847e-002
3.602376e+003, 1.278498e-002
3.604304e+003, 1.278139e-002
3.606233e+003, 1.311283e-002
3.608161e+003, 1.367039e-002
3.610090e+003, 1.347326e-002
3.612018e+003, 1.114248e-002
3.613947e+003, 1.083308e-002
3.615875e+003, 1.068209e-002
3.617803e+003, 1.067019e-002
3.619732e+003, 1.103422e-002
3.621660e+003, 1.174872e-002
3.623589e+003, 1.185426e-002
3.625517e+003, 1.070717e-002
3.627446e+003, 1.008070e-002
3.629374e+003, 1.140338e-002
3.631303e+003, 1.167765e-002
3.633231e+003, 1.111935e-002
3.635160e+003, 1.043115e-002
3.637088e+003, 1.145736e-002
3.639017e+003, 1.168936e-002
3.640945e+003, 1.211199e-002
3.642874e+003, 1.376467e-002
3.644802e+003, 1.268258e-002
3.646730e+003, 1.008594e-002
3.648659e+003, 1.013006e-002
3.650587e+003, 1.149075e-002
3.652516e+003, 1.086314e-002
3.654444e+003, 9.882472e-003
3.656373e+003, 9.200454e-003
3.658301e+003, 1.021611e-002
3.660230e+003, 1.101636e-002
3.662158e+003, 1.036584e-002
3.664087e+003, 1.109142e-002
3.666015e+003, 1.071670e-002
3.667944e+003, 1.003787e-002
3.669872e+003, 9.356908e-003
3.671801e+003, 1.066432e-002
3.673729e+003, 9.911457e-003
3.675657e+003, 8.271944e-003
3.677586e+003, 8.152386e-003
3.679514e+003, 9.766865e-003
3.681443e+003, 9.919683e-003
3.683371e+003, 7.934660e-003
3.685300e+003, 7.265256e-003
3.687228e+003, 6.159617e-003
3.689157e+003, 5.737895e-003
3.691085e+003, 5.549754e-003
3.693014e+003, 5.870658e-003
3.694942e+003, 7.240724e-003
3.696871e+003, 7.360247e-003
3.698799e+003, 7.163107e-003
3.700728e+003, 8.595658e-003
3.702656e+003, 9.238480e-003
3.704584e+003, 7.251013e-003
3.706513e+003, 5.827590e-003
3.708441e+003, 5.217895e-003
3.710370e+003, 5.677676e-003
3.712298e+003, 5.846209e-003
3.714227e+003, 6.067352e-003
3.716155e+003, 7.661474e-003
3.718084e+003, 8.672195e-003
3.720012e+003, 7.416995e-003
3.721941e+003, 6.304314e-003
3.723869e+003, 6.479708e-003
3.725798e+003, 6.226421e-003
3.727726e+003, 6.244041e-003
3.729655e+003, 6.039459e-003
3.731583e+003, 6.307980e-003
3.733511e+003, 5.737742e-003
3.735440e+003, 4.554641e-003
3.737368e+003, 4.963971e-003
3.739297e+003, 7.331286e-003
3.741225e+003, 7.212861e-003
3.743154e+003, 4.459349e-003
3.745082e+003, 4.672849e-003
3.747011e+003, 5.239546e-003
3.748939e+003, 4.816991e-003
3.750868e+003, 4.473439e-003
3.752796e+003, 5.905591e-003
3.754725e+003, 6.390948e-003
3.756653e+003, 6.231542e-003
3.758582e+003, 6.278399e-003
3.760510e+003, 5.890518e-003
3.762438e+003, 5.439591e-003
3.764367e+003, 5.531231e-003
3.766295e+003, 6.411303e-003
3.768224e+003, 6.554790e-003
3.770152e+003, 7.835852e-003
3.772081e+003, 7.917345e-003
3.774009e+003, 6.712996e-003
3.775938e+003, 7.651726e-003
3.777866e+003, 8.746343e-003
3.779795e+003, 8.456538e-003
3.781723e+003, 6.065887e-003
3.783652e+003, 5.959175e-003
3.785580e+003, 7.865679e-003
3.787509e+003, 7.932202e-003
3.789437e+003, 7.630769e-003
3.791365e+003, 6.755820e-003
3.793294e+003, 8.118603e-003
3.795222e+003, 8.903462e-003
3.797151e+003, 7.909591e-003
3.799079e+003, 7.374061e-003
3.801008e+003, 6.932514e-003
3.802936e+003, 7.628128e-003
3.804865e+003, 8.452733e-003
3.806793e+003, 8.214856e-003
3.808722e+003, 7.646640e-003
3.810650e+003, 7.145890e-003
3.812579e+003, 7.552488e-003
3.814507e+003, 7.491656e-003
3.816436e+003, 7.586174e-003
3.818364e+003, 7.199989e-003
3.820292e+003, 7.456861e-003
3.822221e+003, 7.851779e-003
3.824149e+003, 8.900116e-003
3.826078e+003, 8.926742e-003
3.828006e+003, 8.811534e-003
3.829935e+003, 8.132398e-003
3.831863e+003, 7.313794e-003
3.833792e+003, 7.289852e-003
3.835720e+003, 6.258014e-003
3.837649e+003, 5.202854e-003
3.839577e+003, 6.378917e-003
3.841506e+003, 7.769304e-003
3.843434e+003, 8.939933e-003
3.845363e+003, 8.209129e-003
3.847291e+003, 7.683020e-003
3.849219e+003, 8.254741e-003
3.851148e+003, 7.931996e-003
3.853076e+003, 6.562490e-003
3.855005e+003, 6.483729e-003
3.856933e+003, 7.415279e-003
3.858862e+003, 9.111658e-003
3.860790e+003, 9.108982e-003
3.862719e+003, 7.291287e-003
3.864647e+003, 5.062076e-003
3.866576e+003, 5.691709e-003
3.868504e+003, 6.302657e-003
3.870433e+003, 7.250585e-003
3.872361e+003, 7.799764e-003
3.874290e+003, 9.358999e-003
3.876218e+003, 9.814995e-003
3.878146e+003, 8.721353e-003
3.880075e+003, 7.332931e-003
3.882003e+003, 9.241944e-003
3.883932e+003, 1.056843e-002
3.885860e+003, 9.324728e-003
3.887789e+003, 1.060004e-002
3.889717e+003, 1.078088e-002
3.891646e+003, 8.804956e-003
3.893574e+003, 7.959794e-003
3.895503e+003, 8.012759e-003
3.897431e+003, 8.015778e-003
3.899360e+003, 8.126376e-003
3.901288e+003, 7.370415e-003
3.903217e+003, 8.010523e-003
3.905145e+003, 8.013314e-003
3.907073e+003, 6.911153e-003
3.909002e+003, 7.046833e-003
3.910930e+003, 8.109541e-003
3.912859e+003, 8.158283e-003
3.914787e+003, 9.812298e-003
3.916716e+003, 9.923376e-003
3.918644e+003, 9.224993e-003
3.920573e+003, 6.901726e-003
3.922501e+003, 6.127458e-003
3.924430e+003, 8.823249e-003
3.926358e+003, 9.403518e-003
3.928287e+003, 7.218681e-003
3.930215e+003, 6.701905e-003
3.932144e+003, 6.284028e-003
3.934072e+003, 6.705155e-003
3.936000e+003, 9.162412e-003
3.937929e+003, 1.070649e-002
3.939857e+003, 1.053584e-002
3.941786e+003, 9.047423e-003
3.943714e+003, 7.036733e-003
3.945643e+003, 7.609942e-003
3.947571e+003, 8.428269e-003
3.949500e+003, 7.599034e-003
3.951428e+003, 8.075448e-003
3.953357e+003, 9.500669e-003
3.955285e+003, 9.199501e-003
3.957214e+003, 8.519487e-003
3.959142e+003, 7.315321e-003
3.961071e+003, 6.730907e-003
3.962999e+003, 8.996200e-003
3.964927e+003, 8.748410e-003
3.966856e+003, 6.704788e-003
3.968784e+003, 7.049021e-003
3.970713e+003, 8.234494e-003
3.972641e+003, 7.558352e-003
3.974570e+003, 6.306849e-003
3.976498e+003, 6.664487e-003
3.978427e+003, 7.670783e-003
3.980355e+003, 5.874432e-003
3.982284e+003, 5.699969e-003
3.984212e+003, 8.303122e-003
3.986141e+003, 9.689887e-003
3.988069e+003, 1.008008e-002
3.989998e+003, 8.983882e-003
3.991926e+003, 8.032411e-003
3.993854e+003, 7.957272e-003
3.995783e+003, 8.817046e-003
3.997711e+003, 8.034375e-003
3.999640e+003, 8.036805e-003
##END=



