##NAMES=Orthoclase
##RRUFFID=R070001
##IDEAL CHEMISTRY=KAlSi_3_O_8_
##LOCALITY=Lengenbach Quarry, Binnental, Valais, Switzerland
##OWNER=RRUFF
##SOURCE=Michael Scott
##DESCRIPTION=Colorless single crystal with a habit similar to adularia
##STATUS=The identification of this mineral has been confirmed by X-ray diffraction and chemical analysis
##URL=rruff.info/R070001
##MEASURED CHEMISTRY= (K_0.92_Na_0.07_Ba_0.01_)_Σ=1_Al_1.01_Si_2.99_O_8_; darker core :  (K_0.91_Na_0.07_Ba_0.02_)_Σ=1_Al_1.02_Si_2.98_O_8_ ; lighter rim
3.741225e+002, 1.721807e-001
3.760510e+002, 1.749176e-001
3.779795e+002, 1.776296e-001
3.799079e+002, 1.658002e-001
3.818364e+002, 1.672308e-001
3.837649e+002, 1.640669e-001
3.856933e+002, 1.563976e-001
3.876218e+002, 1.564163e-001
3.895503e+002, 1.593371e-001
3.914787e+002, 1.610918e-001
3.934072e+002, 1.607249e-001
3.953357e+002, 1.632675e-001
3.972641e+002, 1.659591e-001
3.991926e+002, 1.653143e-001
4.011211e+002, 1.641142e-001
4.030495e+002, 1.630255e-001
4.049780e+002, 1.616891e-001
4.069065e+002, 1.626063e-001
4.088349e+002, 1.674176e-001
4.107634e+002, 1.720966e-001
4.126919e+002, 1.750165e-001
4.146203e+002, 1.736161e-001
4.165488e+002, 1.710853e-001
4.184773e+002, 1.716532e-001
4.204057e+002, 1.717458e-001
4.223342e+002, 1.705144e-001
4.242627e+002, 1.694262e-001
4.261911e+002, 1.650586e-001
4.281196e+002, 1.574148e-001
4.300481e+002, 1.507800e-001
4.319765e+002, 1.445426e-001
4.339050e+002, 1.386014e-001
4.358335e+002, 1.311904e-001
4.377619e+002, 1.230515e-001
4.396904e+002, 1.150194e-001
4.416189e+002, 1.068200e-001
4.435473e+002, 9.960662e-002
4.454758e+002, 9.259772e-002
4.474043e+002, 8.545808e-002
4.493327e+002, 7.834506e-002
4.512612e+002, 7.189059e-002
4.531897e+002, 6.675300e-002
4.551181e+002, 6.256927e-002
4.570466e+002, 5.901617e-002
4.589751e+002, 5.710271e-002
4.609035e+002, 5.541170e-002
4.628320e+002, 5.397467e-002
4.647605e+002, 5.256050e-002
4.666889e+002, 5.047522e-002
4.686174e+002, 4.767969e-002
4.705459e+002, 4.424489e-002
4.724743e+002, 4.110958e-002
4.744028e+002, 3.896457e-002
4.763313e+002, 3.780189e-002
4.782597e+002, 3.648826e-002
4.801882e+002, 3.419386e-002
4.821167e+002, 3.272349e-002
4.840451e+002, 3.170024e-002
4.859736e+002, 3.045416e-002
4.879021e+002, 2.956121e-002
4.898305e+002, 2.901128e-002
4.917590e+002, 2.828210e-002
4.936875e+002, 2.818015e-002
4.956159e+002, 2.803173e-002
4.975444e+002, 2.851116e-002
4.994729e+002, 2.924347e-002
5.014013e+002, 3.001867e-002
5.033298e+002, 3.099957e-002
5.052583e+002, 3.242437e-002
5.071867e+002, 3.428224e-002
5.091152e+002, 3.521733e-002
5.110437e+002, 3.621085e-002
5.129721e+002, 3.774540e-002
5.149006e+002, 3.859763e-002
5.168290e+002, 3.955755e-002
5.187575e+002, 4.075075e-002
5.206860e+002, 4.232785e-002
5.226144e+002, 4.470128e-002
5.245429e+002, 4.806089e-002
5.264714e+002, 5.145312e-002
5.283998e+002, 5.565609e-002
5.303283e+002, 6.120121e-002
5.322568e+002, 6.779544e-002
5.341852e+002, 7.560173e-002
5.361137e+002, 8.434601e-002
5.380422e+002, 9.282895e-002
5.399706e+002, 1.003249e-001
5.418991e+002, 1.045527e-001
5.438276e+002, 1.043033e-001
5.457560e+002, 1.001571e-001
5.476845e+002, 9.481312e-002
5.496130e+002, 8.985777e-002
5.515414e+002, 8.632810e-002
5.534699e+002, 8.495118e-002
5.553984e+002, 8.561336e-002
5.573268e+002, 8.802103e-002
5.592553e+002, 9.110899e-002
5.611838e+002, 9.507017e-002
5.631122e+002, 9.975937e-002
5.650407e+002, 1.044903e-001
5.669692e+002, 1.094924e-001
5.688976e+002, 1.143556e-001
5.708261e+002, 1.187971e-001
5.727546e+002, 1.221451e-001
5.746830e+002, 1.244584e-001
5.766115e+002, 1.258650e-001
5.785400e+002, 1.271527e-001
5.804684e+002, 1.275004e-001
5.823969e+002, 1.266978e-001
5.843254e+002, 1.252447e-001
5.862538e+002, 1.230003e-001
5.881823e+002, 1.194811e-001
5.901108e+002, 1.153933e-001
5.920392e+002, 1.112125e-001
5.939677e+002, 1.063941e-001
5.958962e+002, 1.014525e-001
5.978246e+002, 9.663928e-002
5.997531e+002, 9.179553e-002
6.016816e+002, 8.718527e-002
6.036100e+002, 8.287174e-002
6.055385e+002, 7.860602e-002
6.074670e+002, 7.468165e-002
6.093954e+002, 7.107774e-002
6.113239e+002, 6.699261e-002
6.132524e+002, 6.256498e-002
6.151808e+002, 5.874249e-002
6.171093e+002, 5.546889e-002
6.190378e+002, 5.284736e-002
6.209662e+002, 5.070691e-002
6.228947e+002, 4.905110e-002
6.248232e+002, 4.818959e-002
6.267516e+002, 4.856563e-002
6.286801e+002, 4.952608e-002
6.306086e+002, 5.107907e-002
6.325370e+002, 5.350758e-002
6.344655e+002, 5.651838e-002
6.363940e+002, 5.944093e-002
6.383224e+002, 6.199817e-002
6.402509e+002, 6.320643e-002
6.421794e+002, 6.247373e-002
6.441078e+002, 5.971015e-002
6.460363e+002, 5.512435e-002
6.479648e+002, 4.985973e-002
6.498932e+002, 4.478940e-002
6.518217e+002, 4.071750e-002
6.537502e+002, 3.789703e-002
6.556786e+002, 3.592196e-002
6.576071e+002, 3.437054e-002
6.595356e+002, 3.307531e-002
6.614641e+002, 3.228287e-002
6.633925e+002, 3.180177e-002
6.653210e+002, 3.145427e-002
6.672495e+002, 3.145182e-002
6.691779e+002, 3.130026e-002
6.711064e+002, 3.091537e-002
6.730349e+002, 3.090296e-002
6.749633e+002, 3.102920e-002
6.768918e+002, 3.121329e-002
6.788203e+002, 3.155506e-002
6.807487e+002, 3.217831e-002
6.826772e+002, 3.288706e-002
6.846057e+002, 3.357175e-002
6.865341e+002, 3.433669e-002
6.884626e+002, 3.541098e-002
6.903911e+002, 3.687477e-002
6.923195e+002, 3.879606e-002
6.942480e+002, 4.097317e-002
6.961765e+002, 4.373173e-002
6.981049e+002, 4.681489e-002
7.000334e+002, 4.988563e-002
7.019619e+002, 5.268967e-002
7.038903e+002, 5.551510e-002
7.058188e+002, 5.808368e-002
7.077473e+002, 6.027194e-002
7.096757e+002, 6.215047e-002
7.116042e+002, 6.397897e-002
7.135327e+002, 6.554106e-002
7.154611e+002, 6.691205e-002
7.173896e+002, 6.817862e-002
7.193181e+002, 6.919885e-002
7.212465e+002, 6.987192e-002
7.231750e+002, 7.023098e-002
7.251035e+002, 7.031992e-002
7.270319e+002, 6.963135e-002
7.289604e+002, 6.857911e-002
7.308889e+002, 6.718499e-002
7.328173e+002, 6.527273e-002
7.347458e+002, 6.362934e-002
7.366743e+002, 6.222815e-002
7.386027e+002, 6.079348e-002
7.405312e+002, 5.947122e-002
7.424597e+002, 5.850498e-002
7.443881e+002, 5.759735e-002
7.463166e+002, 5.701340e-002
7.482451e+002, 5.675302e-002
7.501735e+002, 5.649606e-002
7.521020e+002, 5.599063e-002
7.540305e+002, 5.551040e-002
7.559589e+002, 5.529349e-002
7.578874e+002, 5.495884e-002
7.598159e+002, 5.471755e-002
7.617443e+002, 5.465958e-002
7.636728e+002, 5.497205e-002
7.656013e+002, 5.546741e-002
7.675297e+002, 5.587062e-002
7.694582e+002, 5.603716e-002
7.713867e+002, 5.582662e-002
7.733151e+002, 5.528807e-002
7.752436e+002, 5.436396e-002
7.771721e+002, 5.314536e-002
7.791005e+002, 5.175712e-002
7.810290e+002, 5.003408e-002
7.829575e+002, 4.859578e-002
7.848859e+002, 4.725047e-002
7.868144e+002, 4.577262e-002
7.887429e+002, 4.426624e-002
7.906713e+002, 4.273237e-002
7.925998e+002, 4.073037e-002
7.945283e+002, 3.832469e-002
7.964567e+002, 3.613267e-002
7.983852e+002, 3.401610e-002
8.003137e+002, 3.165656e-002
8.022421e+002, 2.929251e-002
8.041706e+002, 2.728911e-002
8.060991e+002, 2.554052e-002
8.080275e+002, 2.416652e-002
8.099560e+002, 2.328467e-002
8.118845e+002, 2.242869e-002
8.138129e+002, 2.154875e-002
8.157414e+002, 2.115543e-002
8.176699e+002, 2.103266e-002
8.195983e+002, 2.091242e-002
8.215268e+002, 2.097062e-002
8.234553e+002, 2.115870e-002
8.253837e+002, 2.132205e-002
8.273122e+002, 2.164260e-002
8.292407e+002, 2.194983e-002
8.311691e+002, 2.233721e-002
8.330976e+002, 2.257457e-002
8.350261e+002, 2.290769e-002
8.369545e+002, 2.333857e-002
8.388830e+002, 2.376666e-002
8.408115e+002, 2.428156e-002
8.427399e+002, 2.487951e-002
8.446684e+002, 2.539379e-002
8.465969e+002, 2.587845e-002
8.485253e+002, 2.638207e-002
8.504538e+002, 2.715432e-002
8.523823e+002, 2.794597e-002
8.543107e+002, 2.883115e-002
8.562392e+002, 2.953387e-002
8.581677e+002, 3.037431e-002
8.600961e+002, 3.123084e-002
8.620246e+002, 3.200627e-002
8.639531e+002, 3.285861e-002
8.658815e+002, 3.387826e-002
8.678100e+002, 3.498013e-002
8.697385e+002, 3.610078e-002
8.716669e+002, 3.739495e-002
8.735954e+002, 3.879268e-002
8.755239e+002, 4.017721e-002
8.774523e+002, 4.169150e-002
8.793808e+002, 4.313172e-002
8.813093e+002, 4.460354e-002
8.832377e+002, 4.601540e-002
8.851662e+002, 4.719428e-002
8.870947e+002, 4.822026e-002
8.890231e+002, 4.933573e-002
8.909516e+002, 5.057090e-002
8.928801e+002, 5.199727e-002
8.948085e+002, 5.364217e-002
8.967370e+002, 5.526842e-002
8.986655e+002, 5.705345e-002
9.005939e+002, 5.917189e-002
9.025224e+002, 6.137193e-002
9.044509e+002, 6.363303e-002
9.063793e+002, 6.596466e-002
9.083078e+002, 6.820040e-002
9.102363e+002, 7.068563e-002
9.121647e+002, 7.342944e-002
9.140932e+002, 7.617938e-002
9.160217e+002, 7.915456e-002
9.179501e+002, 8.226643e-002
9.198786e+002, 8.565184e-002
9.218071e+002, 8.914984e-002
9.237355e+002, 9.280930e-002
9.256640e+002, 9.660951e-002
9.275925e+002, 1.006391e-001
9.295209e+002, 1.048405e-001
9.314494e+002, 1.092709e-001
9.333779e+002, 1.138314e-001
9.353063e+002, 1.185126e-001
9.372348e+002, 1.235073e-001
9.391633e+002, 1.287991e-001
9.410917e+002, 1.344476e-001
9.430202e+002, 1.402923e-001
9.449487e+002, 1.461529e-001
9.468771e+002, 1.524375e-001
9.488056e+002, 1.590489e-001
9.507341e+002, 1.657864e-001
9.526625e+002, 1.727140e-001
9.545910e+002, 1.797526e-001
9.565195e+002, 1.870528e-001
9.584479e+002, 1.943147e-001
9.603764e+002, 2.015352e-001
9.623049e+002, 2.088822e-001
9.642333e+002, 2.160641e-001
9.661618e+002, 2.229853e-001
9.680903e+002, 2.292406e-001
9.700187e+002, 2.350655e-001
9.719472e+002, 2.407206e-001
9.738757e+002, 2.460256e-001
9.758041e+002, 2.506633e-001
9.777326e+002, 2.549130e-001
9.796611e+002, 2.587358e-001
9.815895e+002, 2.622000e-001
9.835180e+002, 2.654111e-001
9.854465e+002, 2.681043e-001
9.873749e+002, 2.701660e-001
9.893034e+002, 2.719328e-001
9.912319e+002, 2.735476e-001
9.931603e+002, 2.746276e-001
9.950888e+002, 2.751855e-001
9.970173e+002, 2.756097e-001
9.989457e+002, 2.756555e-001
1.000874e+003, 2.755554e-001
1.002803e+003, 2.750558e-001
1.004731e+003, 2.739752e-001
1.006660e+003, 2.726837e-001
1.008588e+003, 2.711887e-001
1.010517e+003, 2.692523e-001
1.012445e+003, 2.669564e-001
1.014373e+003, 2.642317e-001
1.016302e+003, 2.615045e-001
1.018230e+003, 2.588190e-001
1.020159e+003, 2.560524e-001
1.022087e+003, 2.533953e-001
1.024016e+003, 2.510403e-001
1.025944e+003, 2.488457e-001
1.027873e+003, 2.466080e-001
1.029801e+003, 2.442429e-001
1.031730e+003, 2.415769e-001
1.033658e+003, 2.387806e-001
1.035587e+003, 2.358361e-001
1.037515e+003, 2.323738e-001
1.039443e+003, 2.285752e-001
1.041372e+003, 2.246409e-001
1.043300e+003, 2.205724e-001
1.045229e+003, 2.163514e-001
1.047157e+003, 2.118931e-001
1.049086e+003, 2.072877e-001
1.051014e+003, 2.021922e-001
1.052943e+003, 1.964586e-001
1.054871e+003, 1.900931e-001
1.056800e+003, 1.828217e-001
1.058728e+003, 1.748343e-001
1.060657e+003, 1.666898e-001
1.062585e+003, 1.590124e-001
1.064514e+003, 1.520952e-001
1.066442e+003, 1.464561e-001
1.068370e+003, 1.419295e-001
1.070299e+003, 1.385940e-001
1.072227e+003, 1.363574e-001
1.074156e+003, 1.345031e-001
1.076084e+003, 1.329244e-001
1.078013e+003, 1.317885e-001
1.079941e+003, 1.309231e-001
1.081870e+003, 1.302798e-001
1.083798e+003, 1.297259e-001
1.085727e+003, 1.294809e-001
1.087655e+003, 1.294121e-001
1.089584e+003, 1.291855e-001
1.091512e+003, 1.289361e-001
1.093441e+003, 1.290467e-001
1.095369e+003, 1.294486e-001
1.097297e+003, 1.297461e-001
1.099226e+003, 1.297198e-001
1.101154e+003, 1.298436e-001
1.103083e+003, 1.300537e-001
1.105011e+003, 1.303126e-001
1.106940e+003, 1.305935e-001
1.108868e+003, 1.307200e-001
1.110797e+003, 1.307578e-001
1.112725e+003, 1.307107e-001
1.114654e+003, 1.305049e-001
1.116582e+003, 1.303317e-001
1.118511e+003, 1.303200e-001
1.120439e+003, 1.303955e-001
1.122368e+003, 1.303557e-001
1.124296e+003, 1.300309e-001
1.126224e+003, 1.293550e-001
1.128153e+003, 1.283846e-001
1.130081e+003, 1.268921e-001
1.132010e+003, 1.248854e-001
1.133938e+003, 1.225342e-001
1.135867e+003, 1.195543e-001
1.137795e+003, 1.161099e-001
1.139724e+003, 1.125729e-001
1.141652e+003, 1.090202e-001
1.143581e+003, 1.051814e-001
1.145509e+003, 1.011689e-001
1.147438e+003, 9.715677e-002
1.149366e+003, 9.316740e-002
1.151295e+003, 8.916558e-002
1.153223e+003, 8.524941e-002
1.155151e+003, 8.143616e-002
1.157080e+003, 7.771165e-002
1.159008e+003, 7.405331e-002
1.160937e+003, 7.035948e-002
1.162865e+003, 6.689163e-002
1.164794e+003, 6.360745e-002
1.166722e+003, 6.033292e-002
1.168651e+003, 5.705093e-002
1.170579e+003, 5.400213e-002
1.172508e+003, 5.096012e-002
1.174436e+003, 4.803728e-002
1.176365e+003, 4.528754e-002
1.178293e+003, 4.282403e-002
1.180222e+003, 4.059327e-002
1.182150e+003, 3.831201e-002
1.184078e+003, 3.613618e-002
1.186007e+003, 3.405948e-002
1.187935e+003, 3.218937e-002
1.189864e+003, 3.053604e-002
1.191792e+003, 2.890545e-002
1.193721e+003, 2.724518e-002
1.195649e+003, 2.570470e-002
1.197578e+003, 2.436855e-002
1.199506e+003, 2.323632e-002
1.201435e+003, 2.229758e-002
1.203363e+003, 2.136434e-002
1.205292e+003, 2.058778e-002
1.207220e+003, 1.991704e-002
1.209149e+003, 1.926525e-002
1.211077e+003, 1.869826e-002
1.213005e+003, 1.827644e-002
1.214934e+003, 1.789601e-002
1.216862e+003, 1.770004e-002
1.218791e+003, 1.761440e-002
1.220719e+003, 1.760991e-002
1.222648e+003, 1.751647e-002
1.224576e+003, 1.731348e-002
1.226505e+003, 1.714117e-002
1.228433e+003, 1.700794e-002
1.230362e+003, 1.695456e-002
1.232290e+003, 1.680635e-002
1.234219e+003, 1.671110e-002
1.236147e+003, 1.662640e-002
1.238076e+003, 1.649807e-002
1.240004e+003, 1.624900e-002
1.241932e+003, 1.610509e-002
1.243861e+003, 1.593632e-002
1.245789e+003, 1.567551e-002
1.247718e+003, 1.526179e-002
1.249646e+003, 1.498762e-002
1.251575e+003, 1.479907e-002
1.253503e+003, 1.453637e-002
1.255432e+003, 1.429808e-002
1.257360e+003, 1.398617e-002
1.259289e+003, 1.374200e-002
1.261217e+003, 1.356954e-002
1.263146e+003, 1.341062e-002
1.265074e+003, 1.317574e-002
1.267003e+003, 1.295291e-002
1.268931e+003, 1.285390e-002
1.270859e+003, 1.271133e-002
1.272788e+003, 1.255974e-002
1.274716e+003, 1.258665e-002
1.276645e+003, 1.249084e-002
1.278573e+003, 1.232128e-002
1.280502e+003, 1.216418e-002
1.282430e+003, 1.206189e-002
1.284359e+003, 1.202226e-002
1.286287e+003, 1.198063e-002
1.288216e+003, 1.185194e-002
1.290144e+003, 1.188616e-002
1.292073e+003, 1.197566e-002
1.294001e+003, 1.191976e-002
1.295930e+003, 1.181892e-002
1.297858e+003, 1.180619e-002
1.299786e+003, 1.180506e-002
1.301715e+003, 1.181842e-002
1.303643e+003, 1.175379e-002
1.305572e+003, 1.175040e-002
1.307500e+003, 1.193405e-002
1.309429e+003, 1.193652e-002
1.311357e+003, 1.190785e-002
1.313286e+003, 1.204688e-002
1.315214e+003, 1.204933e-002
1.317143e+003, 1.195455e-002
1.319071e+003, 1.174162e-002
1.321000e+003, 1.159855e-002
1.322928e+003, 1.155088e-002
1.324857e+003, 1.140197e-002
1.326785e+003, 1.134138e-002
1.328714e+003, 1.144456e-002
1.330642e+003, 1.144425e-002
1.332570e+003, 1.140710e-002
1.334499e+003, 1.143829e-002
1.336427e+003, 1.144952e-002
1.338356e+003, 1.151179e-002
1.340284e+003, 1.149856e-002
1.342213e+003, 1.141214e-002
1.344141e+003, 1.139315e-002
1.346070e+003, 1.133058e-002
1.347998e+003, 1.129476e-002
1.349927e+003, 1.132746e-002
1.351855e+003, 1.138048e-002
1.353784e+003, 1.142744e-002
1.355712e+003, 1.153998e-002
1.357641e+003, 1.172940e-002
1.359569e+003, 1.179494e-002
1.361497e+003, 1.197446e-002
1.363426e+003, 1.216149e-002
1.365354e+003, 1.221484e-002
1.367283e+003, 1.247626e-002
1.369211e+003, 1.274361e-002
1.371140e+003, 1.300373e-002
1.373068e+003, 1.320552e-002
1.374997e+003, 1.343836e-002
1.376925e+003, 1.365983e-002
1.378854e+003, 1.378160e-002
1.380782e+003, 1.387638e-002
1.382711e+003, 1.386613e-002
1.384639e+003, 1.389490e-002
1.386568e+003, 1.412439e-002
1.388496e+003, 1.439115e-002
1.390424e+003, 1.455264e-002
1.392353e+003, 1.457297e-002
1.394281e+003, 1.462509e-002
1.396210e+003, 1.482036e-002
1.398138e+003, 1.492775e-002
1.400067e+003, 1.507819e-002
1.401995e+003, 1.528489e-002
1.403924e+003, 1.536844e-002
1.405852e+003, 1.526279e-002
1.407781e+003, 1.523108e-002
1.409709e+003, 1.533336e-002
1.411638e+003, 1.541203e-002
1.413566e+003, 1.540869e-002
1.415495e+003, 1.544323e-002
1.417423e+003, 1.536618e-002
1.419351e+003, 1.524863e-002
1.421280e+003, 1.501449e-002
1.423208e+003, 1.492018e-002
1.425137e+003, 1.481886e-002
1.427065e+003, 1.475063e-002
1.428994e+003, 1.485936e-002
1.430922e+003, 1.513352e-002
1.432851e+003, 1.538036e-002
1.434779e+003, 1.562788e-002
1.436708e+003, 1.595184e-002
1.438636e+003, 1.598411e-002
1.440565e+003, 1.598723e-002
1.442493e+003, 1.604101e-002
1.444422e+003, 1.634184e-002
1.446350e+003, 1.664468e-002
1.448278e+003, 1.676298e-002
1.450207e+003, 1.693144e-002
1.452135e+003, 1.718492e-002
1.454064e+003, 1.720958e-002
1.455992e+003, 1.723410e-002
1.457921e+003, 1.705131e-002
1.459849e+003, 1.679112e-002
1.461778e+003, 1.665966e-002
1.463706e+003, 1.672203e-002
1.465635e+003, 1.681666e-002
1.467563e+003, 1.651547e-002
1.469492e+003, 1.600082e-002
1.471420e+003, 1.561829e-002
1.473349e+003, 1.524095e-002
1.475277e+003, 1.464976e-002
1.477205e+003, 1.409300e-002
1.479134e+003, 1.385758e-002
1.481062e+003, 1.381685e-002
1.482991e+003, 1.381693e-002
1.484919e+003, 1.389629e-002
1.486848e+003, 1.429521e-002
1.488776e+003, 1.477675e-002
1.490705e+003, 1.529268e-002
1.492633e+003, 1.585199e-002
1.494562e+003, 1.641030e-002
1.496490e+003, 1.718083e-002
1.498419e+003, 1.796502e-002
1.500347e+003, 1.867206e-002
1.502276e+003, 1.940958e-002
1.504204e+003, 2.036671e-002
1.506132e+003, 2.145238e-002
1.508061e+003, 2.222172e-002
1.509989e+003, 2.293516e-002
1.511918e+003, 2.366903e-002
1.513846e+003, 2.434429e-002
1.515775e+003, 2.511455e-002
1.517703e+003, 2.548472e-002
1.519632e+003, 2.561935e-002
1.521560e+003, 2.587098e-002
1.523489e+003, 2.600905e-002
1.525417e+003, 2.628617e-002
1.527346e+003, 2.677378e-002
1.529274e+003, 2.728586e-002
1.531203e+003, 2.766430e-002
1.533131e+003, 2.821907e-002
1.535059e+003, 2.861116e-002
1.536988e+003, 2.885283e-002
1.538916e+003, 2.932355e-002
1.540845e+003, 2.942402e-002
1.542773e+003, 2.902525e-002
1.544702e+003, 2.869568e-002
1.546630e+003, 2.826092e-002
1.548559e+003, 2.751508e-002
1.550487e+003, 2.675324e-002
1.552416e+003, 2.584973e-002
1.554344e+003, 2.481909e-002
1.556273e+003, 2.374305e-002
1.558201e+003, 2.288975e-002
1.560130e+003, 2.192466e-002
1.562058e+003, 2.071997e-002
1.563986e+003, 1.982199e-002
1.565915e+003, 1.920525e-002
1.567843e+003, 1.882599e-002
1.569772e+003, 1.852732e-002
1.571700e+003, 1.807388e-002
1.573629e+003, 1.783096e-002
1.575557e+003, 1.794330e-002
1.577486e+003, 1.784909e-002
1.579414e+003, 1.744509e-002
1.581343e+003, 1.717643e-002
1.583271e+003, 1.697198e-002
1.585200e+003, 1.682770e-002
1.587128e+003, 1.668296e-002
1.589057e+003, 1.673567e-002
1.590985e+003, 1.695907e-002
1.592913e+003, 1.708704e-002
1.594842e+003, 1.727851e-002
1.596770e+003, 1.731381e-002
1.598699e+003, 1.738310e-002
1.600627e+003, 1.769324e-002
1.602556e+003, 1.815928e-002
1.604484e+003, 1.857815e-002
1.606413e+003, 1.902156e-002
1.608341e+003, 1.956745e-002
1.610270e+003, 2.014892e-002
1.612198e+003, 2.075699e-002
1.614127e+003, 2.152740e-002
1.616055e+003, 2.256442e-002
1.617984e+003, 2.341641e-002
1.619912e+003, 2.421201e-002
1.621840e+003, 2.536616e-002
1.623769e+003, 2.664490e-002
1.625697e+003, 2.783704e-002
1.627626e+003, 2.912081e-002
1.629554e+003, 3.040376e-002
1.631483e+003, 3.146726e-002
1.633411e+003, 3.269998e-002
1.635340e+003, 3.413491e-002
1.637268e+003, 3.515837e-002
1.639197e+003, 3.603786e-002
1.641125e+003, 3.695358e-002
1.643054e+003, 3.770297e-002
1.644982e+003, 3.858434e-002
1.646911e+003, 3.935288e-002
1.648839e+003, 3.930562e-002
1.650767e+003, 3.903704e-002
1.652696e+003, 3.845692e-002
1.654624e+003, 3.710143e-002
1.656553e+003, 3.544761e-002
1.658481e+003, 3.375600e-002
1.660410e+003, 3.210496e-002
1.662338e+003, 3.042378e-002
1.664267e+003, 2.873818e-002
1.666195e+003, 2.739123e-002
1.668124e+003, 2.646005e-002
1.670052e+003, 2.530936e-002
1.671981e+003, 2.397916e-002
1.673909e+003, 2.289271e-002
1.675838e+003, 2.197203e-002
1.677766e+003, 2.076007e-002
1.679694e+003, 1.965096e-002
1.681623e+003, 1.865611e-002
1.683551e+003, 1.782289e-002
1.685480e+003, 1.676229e-002
1.687408e+003, 1.528926e-002
1.689337e+003, 1.415794e-002
1.691265e+003, 1.321803e-002
1.693194e+003, 1.230755e-002
1.695122e+003, 1.157900e-002
1.697051e+003, 1.056894e-002
1.698979e+003, 9.654417e-003
1.700908e+003, 8.745054e-003
1.702836e+003, 7.842849e-003
1.704765e+003, 7.190675e-003
1.706693e+003, 6.598241e-003
1.708621e+003, 6.031407e-003
1.710550e+003, 5.499018e-003
1.712478e+003, 5.187637e-003
1.714407e+003, 5.119978e-003
1.716335e+003, 5.068192e-003
1.718264e+003, 4.946589e-003
1.720192e+003, 4.834646e-003
1.722121e+003, 4.906390e-003
1.724049e+003, 4.916198e-003
1.725978e+003, 4.775096e-003
1.727906e+003, 4.855396e-003
1.729835e+003, 4.854817e-003
1.731763e+003, 4.778055e-003
1.733692e+003, 5.015228e-003
1.735620e+003, 4.859991e-003
1.737548e+003, 4.568018e-003
1.739477e+003, 4.249604e-003
1.741405e+003, 3.695867e-003
1.743334e+003, 3.228605e-003
1.745262e+003, 2.803195e-003
1.747191e+003, 2.422667e-003
1.749119e+003, 2.103249e-003
1.751048e+003, 1.820721e-003
1.752976e+003, 1.702862e-003
1.754905e+003, 1.572930e-003
1.756833e+003, 1.439407e-003
1.758762e+003, 1.111894e-003
1.760690e+003, 8.737392e-004
1.762619e+003, 9.903484e-004
1.764547e+003, 1.149983e-003
1.766475e+003, 1.173931e-003
1.768404e+003, 1.116655e-003
1.770332e+003, 9.557664e-004
1.772261e+003, 1.206024e-003
1.774189e+003, 1.442653e-003
1.776118e+003, 1.333557e-003
1.778046e+003, 1.132913e-003
1.779975e+003, 1.019338e-003
1.781903e+003, 9.509297e-004
1.783832e+003, 9.783602e-004
1.785760e+003, 8.533071e-004
1.787689e+003, 8.109980e-004
1.789617e+003, 8.337850e-004
1.791546e+003, 8.174595e-004
1.793474e+003, 6.914738e-004
1.795402e+003, 5.930974e-004
1.797331e+003, 6.115042e-004
1.799259e+003, 7.389635e-004
1.801188e+003, 6.043430e-004
1.803116e+003, 3.912208e-004
1.805045e+003, 4.830868e-004
1.806973e+003, 3.397267e-004
1.808902e+003, 2.623342e-004
1.810830e+003, 3.348318e-004
1.812759e+003, 3.404877e-004
1.814687e+003, 9.732682e-005
1.816616e+003, -1.340473e-004
1.818544e+003, -1.027893e-004
1.820473e+003, -9.721662e-005
1.822401e+003, -7.877150e-005
1.824329e+003, -2.545840e-004
1.826258e+003, -4.241366e-004
1.828186e+003, -3.759061e-004
1.830115e+003, -3.253752e-004
1.832043e+003, -3.277066e-004
1.833972e+003, -2.883240e-004
1.835900e+003, -3.452232e-004
1.837829e+003, -3.461191e-004
1.839757e+003, -2.671307e-004
1.841686e+003, -3.240762e-004
1.843614e+003, -4.546328e-004
1.845543e+003, -2.646972e-004
1.847471e+003, -2.300770e-004
1.849400e+003, -3.663478e-004
1.851328e+003, -6.450895e-004
1.853256e+003, -7.286941e-004
1.855185e+003, -7.748927e-004
1.857113e+003, -8.283012e-004
1.859042e+003, -8.451428e-004
1.860970e+003, -8.348531e-004
1.862899e+003, -4.795912e-004
1.864827e+003, -3.064660e-004
1.866756e+003, -5.997823e-004
1.868684e+003, -8.529746e-004
1.870613e+003, -1.263179e-003
1.872541e+003, -1.572595e-003
1.874470e+003, -1.777802e-003
1.876398e+003, -1.678020e-003
1.878327e+003, -1.613713e-003
1.880255e+003, -1.637299e-003
1.882183e+003, -1.691978e-003
1.884112e+003, -1.746526e-003
1.886040e+003, -1.422763e-003
1.887969e+003, -1.449318e-003
1.889897e+003, -1.632588e-003
1.891826e+003, -1.291845e-003
1.893754e+003, -1.059773e-003
1.895683e+003, -1.391492e-003
1.897611e+003, -1.584645e-003
1.899540e+003, -1.977819e-003
1.901468e+003, -2.136342e-003
1.903397e+003, -2.201624e-003
1.905325e+003, -2.241100e-003
1.907254e+003, -2.222758e-003
1.909182e+003, -2.336422e-003
1.911110e+003, -2.189925e-003
1.913039e+003, -1.762821e-003
1.914967e+003, -1.462376e-003
1.916896e+003, -1.433163e-003
1.918824e+003, -1.702129e-003
1.920753e+003, -2.210999e-003
1.922681e+003, -2.578171e-003
1.924610e+003, -2.499494e-003
1.926538e+003, -2.321786e-003
1.928467e+003, -2.393352e-003
1.930395e+003, -1.959686e-003
1.932324e+003, -1.809521e-003
1.934252e+003, -2.205097e-003
1.936181e+003, -2.837408e-003
1.938109e+003, -3.465015e-003
1.940037e+003, -3.566391e-003
1.941966e+003, -3.057094e-003
1.943894e+003, -3.111055e-003
1.945823e+003, -3.427211e-003
1.947751e+003, -3.830717e-003
1.949680e+003, -4.193305e-003
1.951608e+003, -4.385265e-003
1.953537e+003, -4.484151e-003
1.955465e+003, -4.450492e-003
1.957394e+003, -4.489756e-003
1.959322e+003, -4.311203e-003
1.961251e+003, -4.255516e-003
1.963179e+003, -4.381798e-003
1.965108e+003, -4.636671e-003
1.967036e+003, -4.842000e-003
1.968964e+003, -4.546780e-003
1.970893e+003, -4.166849e-003
1.972821e+003, -4.590859e-003
1.974750e+003, -4.631991e-003
1.976678e+003, -4.000235e-003
1.978607e+003, -2.946955e-003
1.980535e+003, -2.758743e-003
1.982464e+003, -2.974355e-003
1.984392e+003, -2.625184e-003
1.986321e+003, -2.917266e-003
1.988249e+003, -3.661918e-003
1.990178e+003, -3.316375e-003
1.992106e+003, -2.704070e-003
1.994035e+003, -3.148901e-003
1.995963e+003, -3.546376e-003
1.997891e+003, -3.644046e-003
1.999820e+003, -4.110405e-003
2.001748e+003, -4.156312e-003
2.003677e+003, -4.281574e-003
2.005605e+003, -4.556933e-003
2.007534e+003, -3.668083e-003
2.009462e+003, -3.069634e-003
2.011391e+003, -3.264934e-003
2.013319e+003, -4.577678e-003
2.015248e+003, -5.360928e-003
2.017176e+003, -5.105751e-003
2.019105e+003, -5.590219e-003
2.021033e+003, -5.068537e-003
2.022962e+003, -4.180734e-003
2.024890e+003, -4.080618e-003
2.026818e+003, -4.692356e-003
2.028747e+003, -4.157739e-003
2.030675e+003, -2.882549e-003
2.032604e+003, -3.124880e-003
2.034532e+003, -3.405767e-003
2.036461e+003, -3.896861e-003
2.038389e+003, -3.901721e-003
2.040318e+003, -3.658834e-003
2.042246e+003, -3.111396e-003
2.044175e+003, -2.642022e-003
2.046103e+003, -2.446848e-003
2.048031e+003, -2.181416e-003
2.049960e+003, -8.881127e-004
2.051888e+003, -1.473280e-003
2.053817e+003, -2.923970e-003
2.055745e+003, -2.729932e-003
2.057674e+003, -2.641529e-003
2.059602e+003, -2.787964e-003
2.061531e+003, -2.614676e-003
2.063459e+003, -3.146927e-003
2.065388e+003, -3.362969e-003
2.067316e+003, -3.108453e-003
2.069245e+003, -2.722248e-003
2.071173e+003, -2.308870e-003
2.073102e+003, -2.789450e-003
2.075030e+003, -3.048677e-003
2.076958e+003, -2.787568e-003
2.078887e+003, -2.693829e-003
2.080815e+003, -2.368651e-003
2.082744e+003, -2.129508e-003
2.084672e+003, -2.540030e-003
2.086601e+003, -2.786948e-003
2.088529e+003, -2.965305e-003
2.090458e+003, -2.923313e-003
2.092386e+003, -2.801445e-003
2.094315e+003, -3.049258e-003
2.096243e+003, -2.844209e-003
2.098172e+003, -2.995900e-003
2.100100e+003, -2.488725e-003
2.102029e+003, -1.893233e-003
2.103957e+003, -1.908237e-003
2.105885e+003, -1.216067e-003
2.107814e+003, -9.443498e-004
2.109742e+003, -1.271073e-003
2.111671e+003, -9.682300e-004
2.113599e+003, -1.098854e-003
2.115528e+003, -1.611582e-003
2.117456e+003, -1.827257e-003
2.119385e+003, -2.007714e-003
2.121313e+003, -2.150744e-003
2.123242e+003, -2.098303e-003
2.125170e+003, -2.105674e-003
2.127099e+003, -2.308619e-003
2.129027e+003, -2.346746e-003
2.130956e+003, -2.341395e-003
2.132884e+003, -2.899315e-003
2.134813e+003, -3.278107e-003
2.136741e+003, -3.326889e-003
2.138669e+003, -3.404777e-003
2.140598e+003, -2.857936e-003
2.142526e+003, -2.997590e-003
2.144455e+003, -3.456297e-003
2.146383e+003, -3.993127e-003
2.148312e+003, -3.585392e-003
2.150240e+003, -3.379975e-003
2.152169e+003, -4.164561e-003
2.154097e+003, -4.398683e-003
2.156026e+003, -4.206810e-003
2.157954e+003, -2.469030e-003
2.159883e+003, 1.782667e-003
2.161811e+003, 3.095565e-003
2.163740e+003, 2.134954e-003
2.165668e+003, 1.199309e-003
2.167596e+003, 1.177718e-004
2.169525e+003, 5.429438e-004
2.171453e+003, 1.238053e-003
2.173382e+003, 3.776690e-004
2.175310e+003, -1.094487e-003
2.177239e+003, -1.312648e-003
2.179167e+003, -8.759843e-004
2.181096e+003, -1.639510e-004
2.183024e+003, 1.688525e-004
2.184953e+003, -1.060315e-004
2.186881e+003, -8.585835e-004
2.188810e+003, -4.390129e-004
2.190738e+003, 4.318354e-004
2.192667e+003, 4.403293e-004
2.194595e+003, 4.790723e-005
2.196523e+003, 1.115811e-004
2.198452e+003, -3.134788e-004
2.200380e+003, -1.620827e-004
2.202309e+003, -1.264068e-004
2.204237e+003, -7.805042e-005
2.206166e+003, 3.275690e-004
2.208094e+003, 6.435602e-005
2.210023e+003, 4.173082e-004
2.211951e+003, -2.685410e-004
2.213880e+003, -1.780421e-003
2.215808e+003, -1.487578e-003
2.217737e+003, -7.640317e-004
2.219665e+003, -1.943065e-005
2.221594e+003, -8.838950e-006
2.223522e+003, -3.039856e-004
2.225450e+003, -8.141343e-005
2.227379e+003, 3.111642e-005
2.229307e+003, -1.442363e-005
2.231236e+003, -4.762672e-004
2.233164e+003, -3.339895e-004
2.235093e+003, 7.062875e-004
2.237021e+003, 1.229640e-003
2.238950e+003, 9.294720e-004
2.240878e+003, 3.340784e-004
2.242807e+003, 6.488755e-004
2.244735e+003, 8.494512e-004
2.246664e+003, 7.519457e-004
2.248592e+003, 9.858675e-004
2.250521e+003, 1.311826e-003
2.252449e+003, 4.409776e-004
2.254377e+003, -2.365714e-004
2.256306e+003, -3.891952e-004
2.258234e+003, -2.240960e-004
2.260163e+003, 2.871959e-004
2.262091e+003, 4.082500e-004
2.264020e+003, 6.023188e-004
2.265948e+003, 1.177091e-003
2.267877e+003, 1.353597e-003
2.269805e+003, 1.313885e-003
2.271734e+003, 7.077167e-004
2.273662e+003, 9.004267e-004
2.275591e+003, 1.339911e-003
2.277519e+003, 1.199074e-003
2.279448e+003, 1.167362e-003
2.281376e+003, 1.478535e-003
2.283304e+003, 1.801466e-003
2.285233e+003, 2.001941e-003
2.287161e+003, 1.470480e-003
2.289090e+003, 1.076594e-003
2.291018e+003, 1.588845e-003
2.292947e+003, 1.781150e-003
2.294875e+003, 1.497349e-003
2.296804e+003, 1.199893e-003
2.298732e+003, 7.839371e-004
2.300661e+003, 1.084828e-003
2.302589e+003, 1.467294e-003
2.304518e+003, 1.219028e-003
2.306446e+003, 6.663678e-004
2.308375e+003, 8.604919e-004
2.310303e+003, 1.121555e-003
2.312231e+003, 1.027716e-003
2.314160e+003, 1.218686e-003
2.316088e+003, 1.455169e-003
2.318017e+003, 1.816090e-003
2.319945e+003, 2.493992e-003
2.321874e+003, 2.786933e-003
2.323802e+003, 2.857106e-003
2.325731e+003, 2.084514e-003
2.327659e+003, 1.365512e-003
2.329588e+003, 1.177464e-003
2.331516e+003, 1.065974e-003
2.333445e+003, 9.586171e-004
2.335373e+003, 9.162780e-004
2.337302e+003, 1.349178e-003
2.339230e+003, 1.407271e-003
2.341158e+003, 1.101324e-003
2.343087e+003, 1.195642e-003
2.345015e+003, 1.333076e-003
2.346944e+003, 1.235536e-003
2.348872e+003, 8.356663e-004
2.350801e+003, 7.175542e-004
2.352729e+003, 8.576786e-004
2.354658e+003, 8.136337e-004
2.356586e+003, 9.470793e-004
2.358515e+003, 1.165366e-003
2.360443e+003, 1.224016e-003
2.362372e+003, 1.216526e-003
2.364300e+003, 1.183464e-003
2.366229e+003, 9.330043e-004
2.368157e+003, 7.929680e-004
2.370085e+003, 9.083852e-004
2.372014e+003, 1.074684e-003
2.373942e+003, 1.332725e-003
2.375871e+003, 1.259842e-003
2.377799e+003, 1.028682e-003
2.379728e+003, 8.764098e-004
2.381656e+003, 8.735465e-004
2.383585e+003, 8.857517e-004
2.385513e+003, 1.000100e-003
2.387442e+003, 1.388005e-003
2.389370e+003, 1.368987e-003
2.391299e+003, 1.087511e-003
2.393227e+003, 1.142278e-003
2.395156e+003, 1.421384e-003
2.397084e+003, 1.546431e-003
2.399012e+003, 1.578214e-003
2.400941e+003, 1.507324e-003
2.402869e+003, 1.075960e-003
2.404798e+003, 9.947738e-004
2.406726e+003, 1.484014e-003
2.408655e+003, 1.877832e-003
2.410583e+003, 2.063507e-003
2.412512e+003, 1.723794e-003
2.414440e+003, 1.578724e-003
2.416369e+003, 1.842460e-003
2.418297e+003, 2.029729e-003
2.420226e+003, 1.566195e-003
2.422154e+003, 1.108469e-003
2.424083e+003, 1.240389e-003
2.426011e+003, 1.261660e-003
2.427939e+003, 1.517109e-003
2.429868e+003, 1.427396e-003
2.431796e+003, 1.473797e-003
2.433725e+003, 1.740631e-003
2.435653e+003, 2.164691e-003
2.437582e+003, 1.818174e-003
2.439510e+003, 1.631239e-003
2.441439e+003, 1.996194e-003
2.443367e+003, 2.490874e-003
2.445296e+003, 2.600697e-003
2.447224e+003, 2.459070e-003
2.449153e+003, 2.378637e-003
2.451081e+003, 2.413887e-003
2.453010e+003, 2.440976e-003
2.454938e+003, 1.992163e-003
2.456866e+003, 1.928587e-003
2.458795e+003, 2.133017e-003
2.460723e+003, 1.827342e-003
2.462652e+003, 1.726398e-003
2.464580e+003, 1.850285e-003
2.466509e+003, 1.982577e-003
2.468437e+003, 2.415865e-003
2.470366e+003, 2.589811e-003
2.472294e+003, 2.431735e-003
2.474223e+003, 2.574899e-003
2.476151e+003, 2.499954e-003
2.478080e+003, 2.421261e-003
2.480008e+003, 2.211701e-003
2.481937e+003, 2.097413e-003
2.483865e+003, 2.330462e-003
2.485793e+003, 2.422333e-003
2.487722e+003, 2.641269e-003
2.489650e+003, 2.751018e-003
2.491579e+003, 2.615697e-003
2.493507e+003, 2.407493e-003
2.495436e+003, 2.332302e-003
2.497364e+003, 2.704520e-003
2.499293e+003, 2.755514e-003
2.501221e+003, 2.359769e-003
2.503150e+003, 2.193395e-003
2.505078e+003, 2.269032e-003
2.507007e+003, 2.427713e-003
2.508935e+003, 2.474163e-003
2.510864e+003, 2.498016e-003
2.512792e+003, 2.410244e-003
2.514720e+003, 2.436928e-003
2.516649e+003, 2.602615e-003
2.518577e+003, 2.507440e-003
2.520506e+003, 2.348015e-003
2.522434e+003, 2.460383e-003
2.524363e+003, 2.957227e-003
2.526291e+003, 3.229193e-003
2.528220e+003, 2.851922e-003
2.530148e+003, 2.641402e-003
2.532077e+003, 2.546059e-003
2.534005e+003, 2.759518e-003
2.535934e+003, 2.630149e-003
2.537862e+003, 2.662769e-003
2.539791e+003, 2.652416e-003
2.541719e+003, 2.984656e-003
2.543647e+003, 3.351804e-003
2.545576e+003, 3.786917e-003
2.547504e+003, 3.892296e-003
2.549433e+003, 3.732938e-003
2.551361e+003, 3.389524e-003
2.553290e+003, 3.351199e-003
2.555218e+003, 3.588490e-003
2.557147e+003, 3.705371e-003
2.559075e+003, 3.514157e-003
2.561004e+003, 3.363111e-003
2.562932e+003, 3.435416e-003
2.564861e+003, 3.682445e-003
2.566789e+003, 3.316435e-003
2.568718e+003, 2.731390e-003
2.570646e+003, 2.970240e-003
2.572574e+003, 3.574403e-003
2.574503e+003, 3.721895e-003
2.576431e+003, 3.723424e-003
2.578360e+003, 3.950226e-003
2.580288e+003, 4.020030e-003
2.582217e+003, 4.121721e-003
2.584145e+003, 4.118970e-003
2.586074e+003, 3.827133e-003
2.588002e+003, 3.652011e-003
2.589931e+003, 3.779683e-003
2.591859e+003, 4.181622e-003
2.593788e+003, 4.266179e-003
2.595716e+003, 4.073082e-003
2.597645e+003, 3.969623e-003
2.599573e+003, 4.244293e-003
2.601501e+003, 4.618599e-003
2.603430e+003, 5.079019e-003
2.605358e+003, 5.084283e-003
2.607287e+003, 4.854921e-003
2.609215e+003, 4.594197e-003
2.611144e+003, 4.535166e-003
2.613072e+003, 4.645380e-003
2.615001e+003, 4.597844e-003
2.616929e+003, 4.399742e-003
2.618858e+003, 4.499967e-003
2.620786e+003, 4.729022e-003
2.622715e+003, 4.682968e-003
2.624643e+003, 4.626615e-003
2.626572e+003, 4.638082e-003
2.628500e+003, 4.706314e-003
2.630428e+003, 4.754504e-003
2.632357e+003, 5.013346e-003
2.634285e+003, 5.298824e-003
2.636214e+003, 5.230779e-003
2.638142e+003, 5.121805e-003
2.640071e+003, 5.365738e-003
2.641999e+003, 5.357286e-003
2.643928e+003, 5.489276e-003
2.645856e+003, 5.508536e-003
2.647785e+003, 5.094563e-003
2.649713e+003, 5.316486e-003
2.651642e+003, 5.515539e-003
2.653570e+003, 5.384956e-003
2.655499e+003, 5.263460e-003
2.657427e+003, 5.230960e-003
2.659355e+003, 5.071671e-003
2.661284e+003, 4.952093e-003
2.663212e+003, 4.869590e-003
2.665141e+003, 4.703953e-003
2.667069e+003, 4.606599e-003
2.668998e+003, 4.697581e-003
2.670926e+003, 4.850114e-003
2.672855e+003, 4.899447e-003
2.674783e+003, 4.862508e-003
2.676712e+003, 4.809138e-003
2.678640e+003, 4.734022e-003
2.680569e+003, 4.566523e-003
2.682497e+003, 4.544219e-003
2.684426e+003, 4.631632e-003
2.686354e+003, 4.575300e-003
2.688282e+003, 4.768382e-003
2.690211e+003, 4.981549e-003
2.692139e+003, 4.971614e-003
2.694068e+003, 5.081349e-003
2.695996e+003, 5.054504e-003
2.697925e+003, 4.862636e-003
2.699853e+003, 4.912226e-003
2.701782e+003, 4.886720e-003
2.703710e+003, 4.880076e-003
2.705639e+003, 5.219395e-003
2.707567e+003, 5.202604e-003
2.709496e+003, 5.044125e-003
2.711424e+003, 5.039718e-003
2.713353e+003, 5.272234e-003
2.715281e+003, 5.563330e-003
2.717209e+003, 5.533847e-003
2.719138e+003, 5.261302e-003
2.721066e+003, 5.289339e-003
2.722995e+003, 5.733085e-003
2.724923e+003, 5.684742e-003
2.726852e+003, 5.270351e-003
2.728780e+003, 5.217173e-003
2.730709e+003, 5.345764e-003
2.732637e+003, 5.362203e-003
2.734566e+003, 5.391143e-003
2.736494e+003, 5.697665e-003
2.738423e+003, 5.420770e-003
2.740351e+003, 4.891982e-003
2.742280e+003, 5.125665e-003
2.744208e+003, 5.738626e-003
2.746136e+003, 5.943562e-003
2.748065e+003, 5.749128e-003
2.749993e+003, 5.796585e-003
2.751922e+003, 5.594369e-003
2.753850e+003, 5.585387e-003
2.755779e+003, 5.718136e-003
2.757707e+003, 5.823167e-003
2.759636e+003, 6.036033e-003
2.761564e+003, 6.321351e-003
2.763493e+003, 6.668527e-003
2.765421e+003, 6.830976e-003
2.767350e+003, 6.485038e-003
2.769278e+003, 6.350304e-003
2.771207e+003, 6.682578e-003
2.773135e+003, 6.701944e-003
2.775063e+003, 6.480325e-003
2.776992e+003, 6.371168e-003
2.778920e+003, 6.368781e-003
2.780849e+003, 6.208920e-003
2.782777e+003, 6.395664e-003
2.784706e+003, 6.558106e-003
2.786634e+003, 6.577155e-003
2.788563e+003, 6.760490e-003
2.790491e+003, 6.867945e-003
2.792420e+003, 6.817832e-003
2.794348e+003, 7.271890e-003
2.796277e+003, 7.303511e-003
2.798205e+003, 6.808646e-003
2.800134e+003, 6.953892e-003
2.802062e+003, 7.448838e-003
2.803990e+003, 7.748752e-003
2.805919e+003, 7.877909e-003
2.807847e+003, 8.078313e-003
2.809776e+003, 8.165717e-003
2.811704e+003, 8.098010e-003
2.813633e+003, 8.120121e-003
2.815561e+003, 7.947311e-003
2.817490e+003, 8.286960e-003
2.819418e+003, 8.673447e-003
2.821347e+003, 8.659638e-003
2.823275e+003, 8.653537e-003
2.825204e+003, 8.799959e-003
2.827132e+003, 9.051694e-003
2.829061e+003, 9.261323e-003
2.830989e+003, 9.658708e-003
2.832917e+003, 9.976328e-003
2.834846e+003, 9.972068e-003
2.836774e+003, 1.023334e-002
2.838703e+003, 1.094803e-002
2.840631e+003, 1.159967e-002
2.842560e+003, 1.244318e-002
2.844488e+003, 1.355781e-002
2.846417e+003, 1.537183e-002
2.848345e+003, 1.719283e-002
2.850274e+003, 1.790672e-002
2.852202e+003, 1.733301e-002
2.854131e+003, 1.631486e-002
2.856059e+003, 1.542552e-002
2.857988e+003, 1.475427e-002
2.859916e+003, 1.437022e-002
2.861844e+003, 1.415195e-002
2.863773e+003, 1.390848e-002
2.865701e+003, 1.344700e-002
2.867630e+003, 1.348280e-002
2.869558e+003, 1.377778e-002
2.871487e+003, 1.370175e-002
2.873415e+003, 1.364958e-002
2.875344e+003, 1.349206e-002
2.877272e+003, 1.334013e-002
2.879201e+003, 1.376513e-002
2.881129e+003, 1.402922e-002
2.883058e+003, 1.376077e-002
2.884986e+003, 1.388202e-002
2.886915e+003, 1.436012e-002
2.888843e+003, 1.428484e-002
2.890771e+003, 1.384984e-002
2.892700e+003, 1.436302e-002
2.894628e+003, 1.500212e-002
2.896557e+003, 1.567530e-002
2.898485e+003, 1.611214e-002
2.900414e+003, 1.645175e-002
2.902342e+003, 1.669345e-002
2.904271e+003, 1.736500e-002
2.906199e+003, 1.843458e-002
2.908128e+003, 1.940559e-002
2.910056e+003, 2.022693e-002
2.911985e+003, 2.188339e-002
2.913913e+003, 2.425651e-002
2.915842e+003, 2.608809e-002
2.917770e+003, 2.689821e-002
2.919698e+003, 2.671841e-002
2.921627e+003, 2.608782e-002
2.923555e+003, 2.517834e-002
2.925484e+003, 2.416497e-002
2.927412e+003, 2.334391e-002
2.929341e+003, 2.235791e-002
2.931269e+003, 2.138383e-002
2.933198e+003, 2.069573e-002
2.935126e+003, 2.009137e-002
2.937055e+003, 1.936743e-002
2.938983e+003, 1.787999e-002
2.940912e+003, 1.718385e-002
2.942840e+003, 1.695177e-002
2.944769e+003, 1.700949e-002
2.946697e+003, 1.716276e-002
2.948625e+003, 1.720740e-002
2.950554e+003, 1.712565e-002
2.952482e+003, 1.716178e-002
2.954411e+003, 1.749907e-002
2.956339e+003, 1.740240e-002
2.958268e+003, 1.681732e-002
2.960196e+003, 1.660326e-002
2.962125e+003, 1.641599e-002
2.964053e+003, 1.608300e-002
2.965982e+003, 1.541357e-002
2.967910e+003, 1.483870e-002
2.969839e+003, 1.433784e-002
2.971767e+003, 1.376190e-002
2.973696e+003, 1.327792e-002
2.975624e+003, 1.320699e-002
2.977552e+003, 1.294711e-002
2.979481e+003, 1.231086e-002
2.981409e+003, 1.175235e-002
2.983338e+003, 1.105805e-002
2.985266e+003, 1.089178e-002
2.987195e+003, 1.089446e-002
2.989123e+003, 1.065118e-002
2.991052e+003, 1.025639e-002
2.992980e+003, 9.970525e-003
2.994909e+003, 9.816619e-003
2.996837e+003, 9.339841e-003
2.998766e+003, 9.509431e-003
3.000694e+003, 9.771092e-003
3.002623e+003, 9.879866e-003
3.004551e+003, 9.814343e-003
3.006479e+003, 9.428709e-003
3.008408e+003, 9.338414e-003
3.010336e+003, 9.962808e-003
3.012265e+003, 1.030649e-002
3.014193e+003, 9.997498e-003
3.016122e+003, 9.676121e-003
3.018050e+003, 9.690908e-003
3.019979e+003, 9.973482e-003
3.021907e+003, 1.000905e-002
3.023836e+003, 1.052804e-002
3.025764e+003, 1.135263e-002
3.027693e+003, 1.129707e-002
3.029621e+003, 1.083917e-002
3.031550e+003, 1.092520e-002
3.033478e+003, 1.113481e-002
3.035406e+003, 1.136114e-002
3.037335e+003, 1.172869e-002
3.039263e+003, 1.168377e-002
3.041192e+003, 1.185552e-002
3.043120e+003, 1.190023e-002
3.045049e+003, 1.170707e-002
3.046977e+003, 1.191347e-002
3.048906e+003, 1.197305e-002
3.050834e+003, 1.200902e-002
3.052763e+003, 1.247462e-002
3.054691e+003, 1.242267e-002
3.056620e+003, 1.189316e-002
3.058548e+003, 1.229565e-002
3.060477e+003, 1.261923e-002
3.062405e+003, 1.266780e-002
3.064333e+003, 1.252115e-002
3.066262e+003, 1.234430e-002
3.068190e+003, 1.299991e-002
3.070119e+003, 1.325777e-002
3.072047e+003, 1.293310e-002
3.073976e+003, 1.313864e-002
3.075904e+003, 1.337081e-002
3.077833e+003, 1.298458e-002
3.079761e+003, 1.265711e-002
3.081690e+003, 1.272363e-002
3.083618e+003, 1.294394e-002
3.085547e+003, 1.307740e-002
3.087475e+003, 1.297427e-002
3.089404e+003, 1.238649e-002
3.091332e+003, 1.230963e-002
3.093260e+003, 1.257845e-002
3.095189e+003, 1.301031e-002
3.097117e+003, 1.334261e-002
3.099046e+003, 1.357467e-002
3.100974e+003, 1.343612e-002
3.102903e+003, 1.339696e-002
3.104831e+003, 1.328399e-002
3.106760e+003, 1.326714e-002
3.108688e+003, 1.323610e-002
3.110617e+003, 1.278712e-002
3.112545e+003, 1.316347e-002
3.114474e+003, 1.372303e-002
3.116402e+003, 1.336706e-002
3.118331e+003, 1.304550e-002
3.120259e+003, 1.313922e-002
3.122188e+003, 1.351417e-002
3.124116e+003, 1.404584e-002
3.126044e+003, 1.399323e-002
3.127973e+003, 1.409784e-002
3.129901e+003, 1.398555e-002
3.131830e+003, 1.388194e-002
3.133758e+003, 1.408892e-002
3.135687e+003, 1.428472e-002
3.137615e+003, 1.451030e-002
3.139544e+003, 1.492841e-002
3.141472e+003, 1.478454e-002
3.143401e+003, 1.485358e-002
3.145329e+003, 1.534167e-002
3.147258e+003, 1.556289e-002
3.149186e+003, 1.557523e-002
3.151115e+003, 1.541386e-002
3.153043e+003, 1.573252e-002
3.154971e+003, 1.637034e-002
3.156900e+003, 1.678249e-002
3.158828e+003, 1.732870e-002
3.160757e+003, 1.694050e-002
3.162685e+003, 1.681776e-002
3.164614e+003, 1.690991e-002
3.166542e+003, 1.699823e-002
3.168471e+003, 1.705893e-002
3.170399e+003, 1.710254e-002
3.172328e+003, 1.762456e-002
3.174256e+003, 1.804051e-002
3.176185e+003, 1.759429e-002
3.178113e+003, 1.769665e-002
3.180042e+003, 1.789059e-002
3.181970e+003, 1.854417e-002
3.183898e+003, 1.898459e-002
3.185827e+003, 1.861907e-002
3.187755e+003, 1.857879e-002
3.189684e+003, 1.885297e-002
3.191612e+003, 1.929736e-002
3.193541e+003, 1.950897e-002
3.195469e+003, 2.000088e-002
3.197398e+003, 2.013993e-002
3.199326e+003, 2.012192e-002
3.201255e+003, 2.086294e-002
3.203183e+003, 2.126315e-002
3.205112e+003, 2.052130e-002
3.207040e+003, 2.046392e-002
3.208969e+003, 2.040238e-002
3.210897e+003, 2.052136e-002
3.212825e+003, 2.139403e-002
3.214754e+003, 2.172788e-002
3.216682e+003, 2.183622e-002
3.218611e+003, 2.186075e-002
3.220539e+003, 2.159776e-002
3.222468e+003, 2.167072e-002
3.224396e+003, 2.237485e-002
3.226325e+003, 2.257546e-002
3.228253e+003, 2.256683e-002
3.230182e+003, 2.324561e-002
3.232110e+003, 2.381701e-002
3.234039e+003, 2.356951e-002
3.235967e+003, 2.342401e-002
3.237896e+003, 2.354984e-002
3.239824e+003, 2.375639e-002
3.241752e+003, 2.433425e-002
3.243681e+003, 2.466420e-002
3.245609e+003, 2.518680e-002
3.247538e+003, 2.568311e-002
3.249466e+003, 2.548409e-002
3.251395e+003, 2.538365e-002
3.253323e+003, 2.560720e-002
3.255252e+003, 2.552370e-002
3.257180e+003, 2.618417e-002
3.259109e+003, 2.696050e-002
3.261037e+003, 2.696725e-002
3.262966e+003, 2.703561e-002
3.264894e+003, 2.775086e-002
3.266823e+003, 2.820812e-002
3.268751e+003, 2.845819e-002
3.270679e+003, 2.853917e-002
3.272608e+003, 2.853226e-002
3.274536e+003, 2.883776e-002
3.276465e+003, 2.935276e-002
3.278393e+003, 2.952267e-002
3.280322e+003, 2.930155e-002
3.282250e+003, 2.985478e-002
3.284179e+003, 3.019211e-002
3.286107e+003, 2.998949e-002
3.288036e+003, 2.950081e-002
3.289964e+003, 2.959262e-002
3.291893e+003, 2.970501e-002
3.293821e+003, 2.909508e-002
3.295750e+003, 2.923509e-002
3.297678e+003, 2.910640e-002
3.299606e+003, 2.888307e-002
3.301535e+003, 2.894421e-002
3.303463e+003, 2.883990e-002
3.305392e+003, 2.872304e-002
3.307320e+003, 2.833209e-002
3.309249e+003, 2.811529e-002
3.311177e+003, 2.816116e-002
3.313106e+003, 2.806870e-002
3.315034e+003, 2.779863e-002
3.316963e+003, 2.725028e-002
3.318891e+003, 2.732132e-002
3.320820e+003, 2.753071e-002
3.322748e+003, 2.674061e-002
3.324677e+003, 2.600543e-002
3.326605e+003, 2.596030e-002
3.328533e+003, 2.616036e-002
3.330462e+003, 2.611143e-002
3.332390e+003, 2.567012e-002
3.334319e+003, 2.571507e-002
3.336247e+003, 2.567835e-002
3.338176e+003, 2.546980e-002
3.340104e+003, 2.543265e-002
3.342033e+003, 2.546160e-002
3.343961e+003, 2.459701e-002
3.345890e+003, 2.408931e-002
3.347818e+003, 2.390162e-002
3.349747e+003, 2.353121e-002
3.351675e+003, 2.323956e-002
3.353604e+003, 2.343218e-002
3.355532e+003, 2.311077e-002
3.357460e+003, 2.239067e-002
3.359389e+003, 2.199245e-002
3.361317e+003, 2.198140e-002
3.363246e+003, 2.172971e-002
3.365174e+003, 2.225510e-002
3.367103e+003, 2.235344e-002
3.369031e+003, 2.171800e-002
3.370960e+003, 2.169662e-002
3.372888e+003, 2.153760e-002
3.374817e+003, 2.115174e-002
3.376745e+003, 2.140761e-002
3.378674e+003, 2.107689e-002
3.380602e+003, 2.026141e-002
3.382531e+003, 1.987447e-002
3.384459e+003, 2.009741e-002
3.386387e+003, 1.984256e-002
3.388316e+003, 1.882584e-002
3.390244e+003, 1.892969e-002
3.392173e+003, 1.875462e-002
3.394101e+003, 1.830925e-002
3.396030e+003, 1.854042e-002
3.397958e+003, 1.823433e-002
3.399887e+003, 1.804894e-002
3.401815e+003, 1.832855e-002
3.403744e+003, 1.807479e-002
3.405672e+003, 1.751395e-002
3.407601e+003, 1.755146e-002
3.409529e+003, 1.789725e-002
3.411458e+003, 1.763015e-002
3.413386e+003, 1.715041e-002
3.415314e+003, 1.698148e-002
3.417243e+003, 1.663762e-002
3.419171e+003, 1.662817e-002
3.421100e+003, 1.651486e-002
3.423028e+003, 1.682268e-002
3.424957e+003, 1.701770e-002
3.426885e+003, 1.716632e-002
3.428814e+003, 1.640981e-002
3.430742e+003, 1.594945e-002
3.432671e+003, 1.546597e-002
3.434599e+003, 1.462877e-002
3.436528e+003, 1.459451e-002
3.438456e+003, 1.510284e-002
3.440385e+003, 1.486682e-002
3.442313e+003, 1.440035e-002
3.444241e+003, 1.434971e-002
3.446170e+003, 1.409824e-002
3.448098e+003, 1.362211e-002
3.450027e+003, 1.323350e-002
3.451955e+003, 1.268269e-002
3.453884e+003, 1.295104e-002
3.455812e+003, 1.370729e-002
3.457741e+003, 1.349176e-002
3.459669e+003, 1.289594e-002
3.461598e+003, 1.221387e-002
3.463526e+003, 1.243422e-002
3.465455e+003, 1.316103e-002
3.467383e+003, 1.304246e-002
3.469312e+003, 1.218736e-002
3.471240e+003, 1.154562e-002
3.473168e+003, 1.208900e-002
3.475097e+003, 1.227777e-002
3.477025e+003, 1.187437e-002
3.478954e+003, 1.180086e-002
3.480882e+003, 1.169321e-002
3.482811e+003, 1.106900e-002
3.484739e+003, 1.065584e-002
3.486668e+003, 9.749161e-003
3.488596e+003, 9.756358e-003
3.490525e+003, 1.012899e-002
3.492453e+003, 9.694724e-003
3.494382e+003, 9.447201e-003
3.496310e+003, 9.150142e-003
3.498239e+003, 8.641920e-003
3.500167e+003, 9.257342e-003
3.502095e+003, 9.737028e-003
3.504024e+003, 9.486478e-003
3.505952e+003, 8.897138e-003
3.507881e+003, 9.055264e-003
3.509809e+003, 9.617384e-003
3.511738e+003, 9.059855e-003
3.513666e+003, 8.828707e-003
3.515595e+003, 8.846151e-003
3.517523e+003, 8.461238e-003
3.519452e+003, 8.220419e-003
3.521380e+003, 7.844523e-003
3.523309e+003, 8.037809e-003
3.525237e+003, 8.054847e-003
3.527166e+003, 7.626347e-003
3.529094e+003, 7.146379e-003
3.531022e+003, 6.152758e-003
3.532951e+003, 5.516134e-003
3.534879e+003, 5.795356e-003
3.536808e+003, 6.232106e-003
3.538736e+003, 6.816318e-003
3.540665e+003, 6.981316e-003
3.542593e+003, 7.056755e-003
3.544522e+003, 6.755012e-003
3.546450e+003, 6.032611e-003
3.548379e+003, 5.384586e-003
3.550307e+003, 5.510585e-003
3.552236e+003, 5.985492e-003
3.554164e+003, 5.923207e-003
3.556093e+003, 5.585408e-003
3.558021e+003, 5.297719e-003
3.559949e+003, 5.314739e-003
3.561878e+003, 5.031492e-003
3.563806e+003, 4.583939e-003
3.565735e+003, 4.837490e-003
3.567663e+003, 5.254432e-003
3.569592e+003, 4.849982e-003
3.571520e+003, 4.491138e-003
3.573449e+003, 4.145879e-003
3.575377e+003, 3.567343e-003
3.577306e+003, 3.756811e-003
3.579234e+003, 4.097636e-003
3.581163e+003, 3.445015e-003
3.583091e+003, 2.833460e-003
3.585020e+003, 3.128544e-003
3.586948e+003, 3.720956e-003
3.588876e+003, 3.632327e-003
3.590805e+003, 3.225122e-003
3.592733e+003, 2.892371e-003
3.594662e+003, 3.037901e-003
3.596590e+003, 2.954956e-003
3.598519e+003, 2.693251e-003
3.600447e+003, 2.073360e-003
3.602376e+003, 2.031164e-003
3.604304e+003, 2.302108e-003
3.606233e+003, 2.622231e-003
3.608161e+003, 2.913643e-003
3.610090e+003, 2.846254e-003
3.612018e+003, 2.532558e-003
3.613947e+003, 2.016540e-003
3.615875e+003, 1.162971e-003
3.617803e+003, 1.533054e-003
3.619732e+003, 2.348707e-003
3.621660e+003, 2.436194e-003
3.623589e+003, 1.383843e-003
3.625517e+003, 4.751306e-004
3.627446e+003, 1.158000e-003
3.629374e+003, 1.782911e-003
3.631303e+003, 5.617954e-004
3.633231e+003, 5.766239e-004
3.635160e+003, 1.116157e-003
3.637088e+003, 7.166274e-004
3.639017e+003, 8.970734e-004
3.640945e+003, 1.260377e-003
3.642874e+003, 1.498146e-003
3.644802e+003, 1.539018e-003
3.646730e+003, 1.062368e-003
3.648659e+003, 7.674990e-004
3.650587e+003, 9.598049e-004
3.652516e+003, 1.274661e-003
3.654444e+003, 8.462350e-004
3.656373e+003, -9.623497e-005
3.658301e+003, 1.112528e-006
3.660230e+003, 1.326620e-004
3.662158e+003, -1.531958e-004
3.664087e+003, 9.167039e-005
3.666015e+003, 7.871498e-004
3.667944e+003, 5.866543e-004
3.669872e+003, 5.433753e-004
3.671801e+003, 1.144071e-003
3.673729e+003, 2.406997e-004
3.675657e+003, -5.579552e-005
3.677586e+003, 6.883036e-004
3.679514e+003, 2.339941e-004
3.681443e+003, -1.585950e-004
3.683371e+003, 3.405860e-004
3.685300e+003, 6.213966e-004
3.687228e+003, 1.231909e-003
3.689157e+003, 1.770346e-003
3.691085e+003, 9.209118e-004
3.693014e+003, 6.039378e-005
3.694942e+003, -2.610981e-004
3.696871e+003, -4.847670e-004
3.698799e+003, -2.884088e-004
3.700728e+003, -5.760608e-004
3.702656e+003, -4.703286e-004
3.704584e+003, -4.917199e-004
3.706513e+003, -6.776489e-004
3.708441e+003, 6.544615e-005
3.710370e+003, 3.529044e-004
3.712298e+003, 2.950901e-004
3.714227e+003, -2.106074e-004
3.716155e+003, -6.875149e-004
3.718084e+003, -6.423493e-004
3.720012e+003, -6.164792e-004
3.721941e+003, -6.694882e-004
3.723869e+003, -5.914211e-004
3.725798e+003, -4.328253e-005
3.727726e+003, 2.580450e-004
3.729655e+003, -1.456114e-004
3.731583e+003, -6.088985e-004
3.733511e+003, -6.949579e-004
3.735440e+003, -4.126437e-004
3.737368e+003, 7.084281e-005
3.739297e+003, -1.901079e-004
3.741225e+003, -5.400013e-004
3.743154e+003, 2.426624e-004
3.745082e+003, 1.497925e-003
3.747011e+003, 1.799875e-003
3.748939e+003, 1.276308e-003
3.750868e+003, 6.286596e-004
3.752796e+003, 1.791890e-004
3.754725e+003, 2.756236e-005
3.756653e+003, 6.880967e-004
3.758582e+003, 1.437088e-003
3.760510e+003, 9.240391e-004
3.762438e+003, 5.036615e-004
3.764367e+003, 7.431824e-004
3.766295e+003, 8.745920e-004
3.768224e+003, 8.293905e-004
3.770152e+003, 5.054533e-004
3.772081e+003, 7.514266e-005
3.774009e+003, -6.455265e-004
3.775938e+003, -4.486753e-004
3.777866e+003, 1.177761e-004
3.779795e+003, 4.287646e-005
3.781723e+003, -5.522459e-004
3.783652e+003, -1.526328e-004
3.785580e+003, 3.300580e-004
3.787509e+003, 4.658562e-004
3.789437e+003, -1.474914e-004
3.791365e+003, -5.300553e-004
3.793294e+003, 9.098073e-006
3.795222e+003, 7.241011e-004
3.797151e+003, -3.440604e-005
3.799079e+003, -1.026822e-003
3.801008e+003, -7.166174e-004
3.802936e+003, -2.804245e-004
3.804865e+003, 1.137124e-004
3.806793e+003, 6.613854e-004
3.808722e+003, 6.768252e-004
3.810650e+003, 6.186292e-004
3.812579e+003, -3.649975e-004
3.814507e+003, 2.134350e-006
3.816436e+003, 3.771943e-004
3.818364e+003, 9.046274e-004
3.820292e+003, 1.614927e-003
3.822221e+003, 1.346340e-003
3.824149e+003, 3.776478e-004
3.826078e+003, -7.432571e-004
3.828006e+003, -6.710388e-004
3.829935e+003, 8.008037e-005
3.831863e+003, 1.518643e-003
3.833792e+003, 2.144642e-003
3.835720e+003, 1.907094e-003
3.837649e+003, 2.118572e-003
3.839577e+003, 1.929428e-003
3.841506e+003, 6.678519e-004
3.843434e+003, -4.823764e-004
3.845363e+003, -5.843105e-004
3.847291e+003, 2.503702e-004
3.849219e+003, 8.141093e-004
3.851148e+003, 4.448016e-004
3.853076e+003, 3.051612e-004
3.855005e+003, 6.042394e-004
3.856933e+003, 8.030566e-004
3.858862e+003, -3.313731e-004
3.860790e+003, -8.084371e-004
3.862719e+003, -1.163986e-004
3.864647e+003, 5.021695e-005
3.866576e+003, -5.756638e-004
3.868504e+003, 9.043911e-005
3.870433e+003, 3.940470e-004
3.872361e+003, 4.470751e-004
3.874290e+003, 4.047649e-004
3.876218e+003, 2.098073e-004
3.878146e+003, 1.851942e-004
3.880075e+003, -8.949010e-005
3.882003e+003, -2.320814e-004
3.883932e+003, -2.158846e-004
3.885860e+003, 5.072554e-004
3.887789e+003, 7.750072e-004
3.889717e+003, 9.365858e-005
3.891646e+003, -4.882253e-005
3.893574e+003, -4.313350e-004
3.895503e+003, -1.033587e-003
3.897431e+003, -8.527878e-004
3.899360e+003, 1.848138e-004
3.901288e+003, 7.853622e-004
3.903217e+003, 3.284376e-005
3.905145e+003, -5.134004e-004
3.907073e+003, 1.520783e-005
3.909002e+003, -4.096027e-004
3.910930e+003, -8.080319e-004
3.912859e+003, -9.508773e-004
3.914787e+003, -5.804262e-004
3.916716e+003, -5.495987e-004
3.918644e+003, -4.574720e-004
3.920573e+003, -1.595108e-004
3.922501e+003, 1.400837e-005
3.924430e+003, 3.502957e-004
3.926358e+003, 8.478404e-004
3.928287e+003, 7.777862e-004
3.930215e+003, 3.779620e-004
3.932144e+003, 1.182823e-004
3.934072e+003, -4.796737e-004
3.936000e+003, -4.699006e-004
3.937929e+003, 2.097333e-004
3.939857e+003, 3.753646e-004
3.941786e+003, -4.427148e-004
3.943714e+003, -1.210278e-003
3.945643e+003, -1.425522e-004
3.947571e+003, 5.518631e-004
3.949500e+003, -1.091064e-004
3.951428e+003, -7.446607e-004
3.953357e+003, 1.228751e-004
3.955285e+003, 3.954268e-004
3.957214e+003, -3.789358e-004
3.959142e+003, -1.187121e-003
3.961071e+003, -1.003952e-003
3.962999e+003, -9.603710e-004
3.964927e+003, -8.676241e-004
3.966856e+003, -2.760011e-004
3.968784e+003, -2.197404e-004
3.970713e+003, -1.244943e-004
3.972641e+003, -5.171492e-004
3.974570e+003, -7.043522e-004
3.976498e+003, -5.840704e-004
3.978427e+003, -3.165691e-004
3.980355e+003, 3.164451e-004
3.982284e+003, 1.229834e-003
3.984212e+003, 1.174144e-003
3.986141e+003, 6.219314e-004
3.988069e+003, 5.552052e-004
3.989998e+003, -1.867650e-005
3.991926e+003, -7.117771e-004
3.993854e+003, -7.772209e-004
3.995783e+003, -4.128378e-004
3.997711e+003, -3.255165e-004
3.999640e+003, -3.956388e-004
4.001568e+003, 0.000000e+000
##END=



