##NAMES=Otavite
##RRUFFID=R050677
##IDEAL CHEMISTRY=Cd^2+^CO_3_
##LOCALITY=Tsumeb mine, Tsumeb, Otavi District, Oshikoto, Namibia
##OWNER=RRUFF
##SOURCE=University of Arizona Mineral Museum
##DESCRIPTION=White rhombohedra
##STATUS=The identification of this mineral has been confirmed by X-ray diffraction and chemical analysis
##URL=rruff.info/R050677
##MEASURED CHEMISTRY=(Cd_0.91_Zn_0.05_Pb_0.04_)_Σ=1_CO_3_ ; = lighter phase. The crystal is zoned. The darker phase is (Cd_0.93_Zn_0.05_Pb_0.02_)_Σ=1_CO_3_ ; the inclusion is cerussite: Pb_1.00_CO_3_
3.991926e+002, 2.733137e-002
4.011211e+002, 3.400366e-002
4.030495e+002, 3.352887e-002
4.049780e+002, 2.442786e-002
4.069065e+002, 4.809108e-002
4.088349e+002, 7.609770e-002
4.107634e+002, 7.961098e-002
4.126919e+002, 7.659017e-002
4.146203e+002, 6.848992e-002
4.165488e+002, 5.158870e-002
4.184773e+002, 4.777436e-002
4.204057e+002, 5.932189e-002
4.223342e+002, 6.282751e-002
4.242627e+002, 5.400641e-002
4.261911e+002, 4.721044e-002
4.281196e+002, 3.751914e-002
4.300481e+002, 3.215457e-002
4.319765e+002, 3.539106e-002
4.339050e+002, 3.785678e-002
4.358335e+002, 4.455886e-002
4.377619e+002, 4.758751e-002
4.396904e+002, 4.208037e-002
4.416189e+002, 3.493207e-002
4.435473e+002, 3.012960e-002
4.454758e+002, 2.902209e-002
4.474043e+002, 3.028208e-002
4.493327e+002, 2.931475e-002
4.512612e+002, 2.858887e-002
4.531897e+002, 2.947020e-002
4.551181e+002, 2.529859e-002
4.570466e+002, 2.392007e-002
4.589751e+002, 2.553185e-002
4.609035e+002, 2.365832e-002
4.628320e+002, 2.102814e-002
4.647605e+002, 2.130154e-002
4.666889e+002, 2.191072e-002
4.686174e+002, 1.978163e-002
4.705459e+002, 2.115736e-002
4.724743e+002, 2.404846e-002
4.744028e+002, 2.306110e-002
4.763313e+002, 2.283379e-002
4.782597e+002, 2.219933e-002
4.801882e+002, 1.825530e-002
4.821167e+002, 1.598194e-002
4.840451e+002, 1.827351e-002
4.859736e+002, 1.899606e-002
4.879021e+002, 1.791694e-002
4.898305e+002, 1.707097e-002
4.917590e+002, 1.555225e-002
4.936875e+002, 1.370258e-002
4.956159e+002, 1.410332e-002
4.975444e+002, 1.605750e-002
4.994729e+002, 1.707425e-002
5.014013e+002, 1.754736e-002
5.033298e+002, 1.727247e-002
5.052583e+002, 1.542587e-002
5.071867e+002, 1.478504e-002
5.091152e+002, 1.630693e-002
5.110437e+002, 1.650794e-002
5.129721e+002, 1.560153e-002
5.149006e+002, 1.433021e-002
5.168290e+002, 1.413799e-002
5.187575e+002, 1.466838e-002
5.206860e+002, 1.479954e-002
5.226144e+002, 1.606200e-002
5.245429e+002, 1.634724e-002
5.264714e+002, 1.517618e-002
5.283998e+002, 1.523493e-002
5.303283e+002, 1.559087e-002
5.322568e+002, 1.554773e-002
5.341852e+002, 1.609403e-002
5.361137e+002, 1.734221e-002
5.380422e+002, 1.766508e-002
5.399706e+002, 1.736382e-002
5.418991e+002, 1.727034e-002
5.438276e+002, 1.729650e-002
5.457560e+002, 1.876645e-002
5.476845e+002, 1.838181e-002
5.496130e+002, 1.733501e-002
5.515414e+002, 1.738693e-002
5.534699e+002, 1.799676e-002
5.553984e+002, 1.773355e-002
5.573268e+002, 1.706727e-002
5.592553e+002, 1.747094e-002
5.611838e+002, 1.799220e-002
5.631122e+002, 1.770384e-002
5.650407e+002, 1.746767e-002
5.669692e+002, 1.821929e-002
5.688976e+002, 1.846617e-002
5.708261e+002, 1.764323e-002
5.727546e+002, 1.736519e-002
5.746830e+002, 1.854126e-002
5.766115e+002, 1.745199e-002
5.785400e+002, 1.618388e-002
5.804684e+002, 1.736025e-002
5.823969e+002, 1.817243e-002
5.843254e+002, 1.805783e-002
5.862538e+002, 1.828958e-002
5.881823e+002, 1.827436e-002
5.901108e+002, 1.648118e-002
5.920392e+002, 1.629017e-002
5.939677e+002, 1.769563e-002
5.958962e+002, 1.792779e-002
5.978246e+002, 1.782400e-002
5.997531e+002, 1.820409e-002
6.016816e+002, 1.678336e-002
6.036100e+002, 1.601061e-002
6.055385e+002, 1.815860e-002
6.074670e+002, 1.970387e-002
6.093954e+002, 1.888666e-002
6.113239e+002, 1.936268e-002
6.132524e+002, 2.070023e-002
6.151808e+002, 2.010526e-002
6.171093e+002, 1.959571e-002
6.190378e+002, 2.092334e-002
6.209662e+002, 2.184107e-002
6.228947e+002, 2.093857e-002
6.248232e+002, 2.054106e-002
6.267516e+002, 2.045849e-002
6.286801e+002, 1.956711e-002
6.306086e+002, 1.950678e-002
6.325370e+002, 2.082348e-002
6.344655e+002, 2.121860e-002
6.363940e+002, 2.064299e-002
6.383224e+002, 2.077769e-002
6.402509e+002, 2.119811e-002
6.421794e+002, 2.140654e-002
6.441078e+002, 2.174242e-002
6.460363e+002, 2.219158e-002
6.479648e+002, 2.226233e-002
6.498932e+002, 2.261629e-002
6.518217e+002, 2.270910e-002
6.537502e+002, 2.217846e-002
6.556786e+002, 2.272840e-002
6.576071e+002, 2.404949e-002
6.595356e+002, 2.470986e-002
6.614641e+002, 2.426313e-002
6.633925e+002, 2.387608e-002
6.653210e+002, 2.393584e-002
6.672495e+002, 2.464673e-002
6.691779e+002, 2.503815e-002
6.711064e+002, 2.589505e-002
6.730349e+002, 2.728499e-002
6.749633e+002, 2.797600e-002
6.768918e+002, 2.846610e-002
6.788203e+002, 2.939723e-002
6.807487e+002, 3.028024e-002
6.826772e+002, 3.042515e-002
6.846057e+002, 3.064992e-002
6.865341e+002, 3.134402e-002
6.884626e+002, 3.167353e-002
6.903911e+002, 3.231264e-002
6.923195e+002, 3.369140e-002
6.942480e+002, 3.548103e-002
6.961765e+002, 3.708633e-002
6.981049e+002, 3.863648e-002
7.000334e+002, 3.987937e-002
7.019619e+002, 4.062508e-002
7.038903e+002, 4.197852e-002
7.058188e+002, 4.447860e-002
7.077473e+002, 4.786130e-002
7.096757e+002, 5.236283e-002
7.116042e+002, 5.729087e-002
7.135327e+002, 6.384113e-002
7.154611e+002, 7.426479e-002
7.173896e+002, 9.227522e-002
7.193181e+002, 1.240361e-001
7.212465e+002, 1.650079e-001
7.231750e+002, 1.741324e-001
7.251035e+002, 1.297984e-001
7.270319e+002, 8.169409e-002
7.289604e+002, 5.651388e-002
7.308889e+002, 4.615096e-002
7.328173e+002, 4.157779e-002
7.347458e+002, 4.074061e-002
7.366743e+002, 4.191157e-002
7.386027e+002, 4.321507e-002
7.405312e+002, 4.400979e-002
7.424597e+002, 4.462058e-002
7.443881e+002, 4.531454e-002
7.463166e+002, 4.670672e-002
7.482451e+002, 4.864532e-002
7.501735e+002, 5.058514e-002
7.521020e+002, 5.222024e-002
7.540305e+002, 5.409761e-002
7.559589e+002, 5.674171e-002
7.578874e+002, 6.005716e-002
7.598159e+002, 6.314431e-002
7.617443e+002, 6.634995e-002
7.636728e+002, 6.970837e-002
7.656013e+002, 7.314157e-002
7.675297e+002, 7.729632e-002
7.694582e+002, 8.194239e-002
7.713867e+002, 8.668204e-002
7.733151e+002, 9.184795e-002
7.752436e+002, 9.732826e-002
7.771721e+002, 1.033262e-001
7.791005e+002, 1.090260e-001
7.810290e+002, 1.145519e-001
7.829575e+002, 1.194872e-001
7.848859e+002, 1.223967e-001
7.868144e+002, 1.231334e-001
7.887429e+002, 1.221446e-001
7.906713e+002, 1.201694e-001
7.925998e+002, 1.174607e-001
7.945283e+002, 1.159944e-001
7.964567e+002, 1.169526e-001
7.983852e+002, 1.188546e-001
8.003137e+002, 1.208538e-001
8.022421e+002, 1.227353e-001
8.041706e+002, 1.238425e-001
8.060991e+002, 1.243679e-001
8.080275e+002, 1.241055e-001
8.099560e+002, 1.228144e-001
8.118845e+002, 1.221063e-001
8.138129e+002, 1.227092e-001
8.157414e+002, 1.235861e-001
8.176699e+002, 1.241433e-001
8.195983e+002, 1.239745e-001
8.215268e+002, 1.230080e-001
8.234553e+002, 1.215079e-001
8.253837e+002, 1.196125e-001
8.273122e+002, 1.175287e-001
8.292407e+002, 1.160788e-001
8.311691e+002, 1.171042e-001
8.330976e+002, 1.192595e-001
8.350261e+002, 1.162650e-001
8.369545e+002, 1.089950e-001
8.388830e+002, 1.055106e-001
8.408115e+002, 1.055226e-001
8.427399e+002, 1.078650e-001
8.446684e+002, 1.142826e-001
8.465969e+002, 1.263108e-001
8.485253e+002, 1.470424e-001
8.504538e+002, 1.818830e-001
8.523823e+002, 2.362391e-001
8.543107e+002, 3.038955e-001
8.562392e+002, 3.594427e-001
8.581677e+002, 3.719912e-001
8.600961e+002, 3.347301e-001
8.620246e+002, 2.696802e-001
8.639531e+002, 1.996736e-001
8.658815e+002, 1.376334e-001
8.678100e+002, 8.882797e-002
8.697385e+002, 5.745605e-002
8.716669e+002, 4.121709e-002
8.735954e+002, 3.342591e-002
8.755239e+002, 2.999649e-002
8.774523e+002, 2.829744e-002
8.793808e+002, 2.746104e-002
8.813093e+002, 2.700469e-002
8.832377e+002, 2.650869e-002
8.851662e+002, 2.608287e-002
8.870947e+002, 2.633115e-002
8.890231e+002, 2.642242e-002
8.909516e+002, 2.620892e-002
8.928801e+002, 2.579442e-002
8.948085e+002, 2.558129e-002
8.967370e+002, 2.603943e-002
8.986655e+002, 2.643179e-002
9.005939e+002, 2.602116e-002
9.025224e+002, 2.569155e-002
9.044509e+002, 2.580152e-002
9.063793e+002, 2.615520e-002
9.083078e+002, 2.666271e-002
9.102363e+002, 2.679016e-002
9.121647e+002, 2.692936e-002
9.140932e+002, 2.723473e-002
9.160217e+002, 2.747040e-002
9.179501e+002, 2.833996e-002
9.198786e+002, 2.882374e-002
9.218071e+002, 2.874361e-002
9.237355e+002, 2.859764e-002
9.256640e+002, 2.879937e-002
9.275925e+002, 2.915700e-002
9.295209e+002, 2.947009e-002
9.314494e+002, 2.984566e-002
9.333779e+002, 3.013928e-002
9.353063e+002, 3.069040e-002
9.372348e+002, 3.132508e-002
9.391633e+002, 3.212058e-002
9.410917e+002, 3.294846e-002
9.430202e+002, 3.389311e-002
9.449487e+002, 3.498049e-002
9.468771e+002, 3.667661e-002
9.488056e+002, 3.814077e-002
9.507341e+002, 3.937597e-002
9.526625e+002, 4.026967e-002
9.545910e+002, 4.092277e-002
9.565195e+002, 4.169484e-002
9.584479e+002, 4.218996e-002
9.603764e+002, 4.239164e-002
9.623049e+002, 4.254436e-002
9.642333e+002, 4.248861e-002
9.661618e+002, 4.226591e-002
9.680903e+002, 4.201999e-002
9.700187e+002, 4.229575e-002
9.719472e+002, 4.276996e-002
9.738757e+002, 4.330189e-002
9.758041e+002, 4.420163e-002
9.777326e+002, 4.545432e-002
9.796611e+002, 4.640171e-002
9.815895e+002, 4.650408e-002
9.835180e+002, 4.666196e-002
9.854465e+002, 4.781963e-002
9.873749e+002, 4.858551e-002
9.893034e+002, 4.822644e-002
9.912319e+002, 4.836502e-002
9.931603e+002, 4.936437e-002
9.950888e+002, 4.981671e-002
9.970173e+002, 4.972824e-002
9.989457e+002, 5.006055e-002
1.000874e+003, 5.073618e-002
1.002803e+003, 5.138072e-002
1.004731e+003, 5.200398e-002
1.006660e+003, 5.246690e-002
1.008588e+003, 5.241846e-002
1.010517e+003, 5.238495e-002
1.012445e+003, 5.223925e-002
1.014373e+003, 5.193988e-002
1.016302e+003, 5.197495e-002
1.018230e+003, 5.202404e-002
1.020159e+003, 5.223627e-002
1.022087e+003, 5.206670e-002
1.024016e+003, 5.147899e-002
1.025944e+003, 5.110533e-002
1.027873e+003, 5.181797e-002
1.029801e+003, 5.232082e-002
1.031730e+003, 5.184567e-002
1.033658e+003, 5.125076e-002
1.035587e+003, 5.128853e-002
1.037515e+003, 5.141121e-002
1.039443e+003, 5.137014e-002
1.041372e+003, 5.162314e-002
1.043300e+003, 5.196653e-002
1.045229e+003, 5.194921e-002
1.047157e+003, 5.199550e-002
1.049086e+003, 5.229201e-002
1.051014e+003, 5.263072e-002
1.052943e+003, 5.256648e-002
1.054871e+003, 5.256066e-002
1.056800e+003, 5.297057e-002
1.058728e+003, 5.344531e-002
1.060657e+003, 5.360441e-002
1.062585e+003, 5.384832e-002
1.064514e+003, 5.446793e-002
1.066442e+003, 5.484333e-002
1.068370e+003, 5.549698e-002
1.070299e+003, 5.619232e-002
1.072227e+003, 5.701913e-002
1.074156e+003, 5.776088e-002
1.076084e+003, 5.899790e-002
1.078013e+003, 6.023106e-002
1.079941e+003, 6.085736e-002
1.081870e+003, 6.098906e-002
1.083798e+003, 6.089341e-002
1.085727e+003, 5.968964e-002
1.087655e+003, 5.847283e-002
1.089584e+003, 5.721702e-002
1.091512e+003, 5.605248e-002
1.093441e+003, 5.630951e-002
1.095369e+003, 5.675665e-002
1.097297e+003, 5.699674e-002
1.099226e+003, 5.786629e-002
1.101154e+003, 5.920637e-002
1.103083e+003, 5.987044e-002
1.105011e+003, 6.011474e-002
1.106940e+003, 6.063854e-002
1.108868e+003, 6.135782e-002
1.110797e+003, 6.221488e-002
1.112725e+003, 6.292071e-002
1.114654e+003, 6.390343e-002
1.116582e+003, 6.481629e-002
1.118511e+003, 6.512897e-002
1.120439e+003, 6.581862e-002
1.122368e+003, 6.651714e-002
1.124296e+003, 6.710909e-002
1.126224e+003, 6.811755e-002
1.128153e+003, 6.941564e-002
1.130081e+003, 7.024470e-002
1.132010e+003, 7.091393e-002
1.133938e+003, 7.208383e-002
1.135867e+003, 7.298821e-002
1.137795e+003, 7.406618e-002
1.139724e+003, 7.532606e-002
1.141652e+003, 7.648323e-002
1.143581e+003, 7.683652e-002
1.145509e+003, 7.703163e-002
1.147438e+003, 7.810595e-002
1.149366e+003, 7.978328e-002
1.151295e+003, 8.099696e-002
1.153223e+003, 8.191269e-002
1.155151e+003, 8.279271e-002
1.157080e+003, 8.310512e-002
1.159008e+003, 8.357241e-002
1.160937e+003, 8.437850e-002
1.162865e+003, 8.530328e-002
1.164794e+003, 8.656279e-002
1.166722e+003, 8.761415e-002
1.168651e+003, 8.829684e-002
1.170579e+003, 8.941378e-002
1.172508e+003, 9.040417e-002
1.174436e+003, 9.150977e-002
1.176365e+003, 9.308235e-002
1.178293e+003, 9.455153e-002
1.180222e+003, 9.613132e-002
1.182150e+003, 9.750000e-002
1.184078e+003, 9.854198e-002
1.186007e+003, 1.001378e-001
1.187935e+003, 1.015884e-001
1.189864e+003, 1.027514e-001
1.191792e+003, 1.037008e-001
1.193721e+003, 1.052093e-001
1.195649e+003, 1.067080e-001
1.197578e+003, 1.081496e-001
1.199506e+003, 1.094640e-001
1.201435e+003, 1.109723e-001
1.203363e+003, 1.126282e-001
1.205292e+003, 1.144958e-001
1.207220e+003, 1.165148e-001
1.209149e+003, 1.185419e-001
1.211077e+003, 1.205040e-001
1.213005e+003, 1.224781e-001
1.214934e+003, 1.246497e-001
1.216862e+003, 1.273751e-001
1.218791e+003, 1.302487e-001
1.220719e+003, 1.328157e-001
1.222648e+003, 1.352509e-001
1.224576e+003, 1.380409e-001
1.226505e+003, 1.413507e-001
1.228433e+003, 1.444044e-001
1.230362e+003, 1.473184e-001
1.232290e+003, 1.504702e-001
1.234219e+003, 1.539264e-001
1.236147e+003, 1.577865e-001
1.238076e+003, 1.615879e-001
1.240004e+003, 1.656376e-001
1.241932e+003, 1.698233e-001
1.243861e+003, 1.741353e-001
1.245789e+003, 1.784733e-001
1.247718e+003, 1.830156e-001
1.249646e+003, 1.875443e-001
1.251575e+003, 1.922584e-001
1.253503e+003, 1.973819e-001
1.255432e+003, 2.024529e-001
1.257360e+003, 2.071381e-001
1.259289e+003, 2.119406e-001
1.261217e+003, 2.169060e-001
1.263146e+003, 2.220534e-001
1.265074e+003, 2.277102e-001
1.267003e+003, 2.331366e-001
1.268931e+003, 2.385834e-001
1.270859e+003, 2.444564e-001
1.272788e+003, 2.509606e-001
1.274716e+003, 2.579417e-001
1.276645e+003, 2.640116e-001
1.278573e+003, 2.698469e-001
1.280502e+003, 2.749990e-001
1.282430e+003, 2.801651e-001
1.284359e+003, 2.855518e-001
1.286287e+003, 2.915528e-001
1.288216e+003, 2.978084e-001
1.290144e+003, 3.042057e-001
1.292073e+003, 3.109233e-001
1.294001e+003, 3.183190e-001
1.295930e+003, 3.265156e-001
1.297858e+003, 3.349440e-001
1.299786e+003, 3.444224e-001
1.301715e+003, 3.540013e-001
1.303643e+003, 3.638663e-001
1.305572e+003, 3.738103e-001
1.307500e+003, 3.841604e-001
1.309429e+003, 3.955963e-001
1.311357e+003, 4.073532e-001
1.313286e+003, 4.186521e-001
1.315214e+003, 4.300379e-001
1.317143e+003, 4.418294e-001
1.319071e+003, 4.542212e-001
1.321000e+003, 4.670273e-001
1.322928e+003, 4.800564e-001
1.324857e+003, 4.927254e-001
1.326785e+003, 5.057518e-001
1.328714e+003, 5.199479e-001
1.330642e+003, 5.338789e-001
1.332570e+003, 5.478083e-001
1.334499e+003, 5.621052e-001
1.336427e+003, 5.768480e-001
1.338356e+003, 5.916350e-001
1.340284e+003, 6.068894e-001
1.342213e+003, 6.234117e-001
1.344141e+003, 6.399779e-001
1.346070e+003, 6.561617e-001
1.347998e+003, 6.722166e-001
1.349927e+003, 6.880365e-001
1.351855e+003, 7.040964e-001
1.353784e+003, 7.195519e-001
1.355712e+003, 7.336914e-001
1.357641e+003, 7.467216e-001
1.359569e+003, 7.587330e-001
1.361497e+003, 7.716820e-001
1.363426e+003, 7.830992e-001
1.365354e+003, 7.916063e-001
1.367283e+003, 7.988321e-001
1.369211e+003, 8.053818e-001
1.371140e+003, 8.108194e-001
1.373068e+003, 8.163268e-001
1.374997e+003, 8.231786e-001
1.376925e+003, 8.260176e-001
1.378854e+003, 8.254340e-001
1.380782e+003, 8.216038e-001
1.382711e+003, 8.148873e-001
1.384639e+003, 8.050572e-001
1.386568e+003, 7.931416e-001
1.388496e+003, 7.799986e-001
1.390424e+003, 7.666245e-001
1.392353e+003, 7.540848e-001
1.394281e+003, 7.407196e-001
1.396210e+003, 7.268571e-001
1.398138e+003, 7.132500e-001
1.400067e+003, 6.988287e-001
1.401995e+003, 6.851023e-001
1.403924e+003, 6.709660e-001
1.405852e+003, 6.570387e-001
1.407781e+003, 6.428975e-001
1.409709e+003, 6.294581e-001
1.411638e+003, 6.170406e-001
1.413566e+003, 6.044173e-001
1.415495e+003, 5.923273e-001
1.417423e+003, 5.805492e-001
1.419351e+003, 5.679209e-001
1.421280e+003, 5.550350e-001
1.423208e+003, 5.423278e-001
1.425137e+003, 5.298703e-001
1.427065e+003, 5.172182e-001
1.428994e+003, 5.054806e-001
1.430922e+003, 4.941979e-001
1.432851e+003, 4.821506e-001
1.434779e+003, 4.701282e-001
1.436708e+003, 4.590615e-001
1.438636e+003, 4.480064e-001
1.440565e+003, 4.363305e-001
1.442493e+003, 4.240536e-001
1.444422e+003, 4.126123e-001
1.446350e+003, 4.015449e-001
1.448278e+003, 3.911790e-001
1.450207e+003, 3.811127e-001
1.452135e+003, 3.707747e-001
1.454064e+003, 3.606363e-001
1.455992e+003, 3.504625e-001
1.457921e+003, 3.402537e-001
1.459849e+003, 3.303021e-001
1.461778e+003, 3.209586e-001
1.463706e+003, 3.118632e-001
1.465635e+003, 3.024255e-001
1.467563e+003, 2.934861e-001
1.469492e+003, 2.845658e-001
1.471420e+003, 2.753272e-001
1.473349e+003, 2.662876e-001
1.475277e+003, 2.578157e-001
1.477205e+003, 2.496342e-001
1.479134e+003, 2.412673e-001
1.481062e+003, 2.327551e-001
1.482991e+003, 2.247084e-001
1.484919e+003, 2.164756e-001
1.486848e+003, 2.085813e-001
1.488776e+003, 2.007269e-001
1.490705e+003, 1.924910e-001
1.492633e+003, 1.844336e-001
1.494562e+003, 1.768692e-001
1.496490e+003, 1.697671e-001
1.498419e+003, 1.626304e-001
1.500347e+003, 1.554056e-001
1.502276e+003, 1.485044e-001
1.504204e+003, 1.414165e-001
1.506132e+003, 1.347811e-001
1.508061e+003, 1.284315e-001
1.509989e+003, 1.218817e-001
1.511918e+003, 1.155103e-001
1.513846e+003, 1.099112e-001
1.515775e+003, 1.044451e-001
1.517703e+003, 9.874063e-002
1.519632e+003, 9.286653e-002
1.521560e+003, 8.705273e-002
1.523489e+003, 8.139619e-002
1.525417e+003, 7.626997e-002
1.527346e+003, 7.142673e-002
1.529274e+003, 6.671089e-002
1.531203e+003, 6.236896e-002
1.533131e+003, 5.858053e-002
1.535059e+003, 5.492833e-002
1.536988e+003, 5.212063e-002
1.538916e+003, 4.996610e-002
1.540845e+003, 4.714656e-002
1.542773e+003, 4.439854e-002
1.544702e+003, 4.220191e-002
1.546630e+003, 3.978006e-002
1.548559e+003, 3.775807e-002
1.550487e+003, 3.630099e-002
1.552416e+003, 3.449679e-002
1.554344e+003, 3.277134e-002
1.556273e+003, 3.125326e-002
1.558201e+003, 2.947396e-002
1.560130e+003, 2.783317e-002
1.562058e+003, 2.684523e-002
1.563986e+003, 2.656564e-002
1.565915e+003, 2.654105e-002
1.567843e+003, 2.626305e-002
1.569772e+003, 2.569763e-002
1.571700e+003, 2.505594e-002
1.573629e+003, 2.438933e-002
1.575557e+003, 2.376783e-002
1.577486e+003, 2.319498e-002
1.579414e+003, 2.274998e-002
1.581343e+003, 2.195130e-002
1.583271e+003, 2.084140e-002
1.585200e+003, 1.992322e-002
1.587128e+003, 1.904718e-002
1.589057e+003, 1.851688e-002
1.590985e+003, 1.796485e-002
1.592913e+003, 1.731573e-002
1.594842e+003, 1.651696e-002
1.596770e+003, 1.563427e-002
1.598699e+003, 1.515104e-002
1.600627e+003, 1.484746e-002
1.602556e+003, 1.455714e-002
1.604484e+003, 1.423935e-002
1.606413e+003, 1.372320e-002
1.608341e+003, 1.300628e-002
1.610270e+003, 1.239520e-002
1.612198e+003, 1.256954e-002
1.614127e+003, 1.262721e-002
1.616055e+003, 1.197055e-002
1.617984e+003, 1.153656e-002
1.619912e+003, 1.156090e-002
1.621840e+003, 1.096625e-002
1.623769e+003, 1.029616e-002
1.625697e+003, 9.914852e-003
1.627626e+003, 9.572569e-003
1.629554e+003, 9.795089e-003
1.631483e+003, 1.000770e-002
1.633411e+003, 9.340247e-003
1.635340e+003, 9.174615e-003
1.637268e+003, 9.247867e-003
1.639197e+003, 9.347023e-003
1.641125e+003, 9.253456e-003
1.643054e+003, 9.152489e-003
1.644982e+003, 8.648211e-003
1.646911e+003, 7.892508e-003
1.648839e+003, 7.889763e-003
1.650767e+003, 8.127980e-003
1.652696e+003, 7.952014e-003
1.654624e+003, 7.807089e-003
1.656553e+003, 8.018915e-003
1.658481e+003, 8.271846e-003
1.660410e+003, 7.992580e-003
1.662338e+003, 7.763922e-003
1.664267e+003, 7.998767e-003
1.666195e+003, 7.917051e-003
1.668124e+003, 7.645027e-003
1.670052e+003, 7.567861e-003
1.671981e+003, 7.470636e-003
1.673909e+003, 7.815776e-003
1.675838e+003, 7.694576e-003
1.677766e+003, 7.334409e-003
1.679694e+003, 7.220294e-003
1.681623e+003, 7.223632e-003
1.683551e+003, 7.237494e-003
1.685480e+003, 6.730278e-003
1.687408e+003, 6.464358e-003
1.689337e+003, 6.815337e-003
1.691265e+003, 7.053019e-003
1.693194e+003, 7.233505e-003
1.695122e+003, 7.009732e-003
1.697051e+003, 6.399704e-003
1.698979e+003, 6.471375e-003
1.700908e+003, 6.631845e-003
1.702836e+003, 6.228268e-003
1.704765e+003, 5.978517e-003
1.706693e+003, 6.097880e-003
1.708621e+003, 6.100718e-003
1.710550e+003, 6.033947e-003
1.712478e+003, 5.815056e-003
1.714407e+003, 6.243149e-003
1.716335e+003, 6.022134e-003
1.718264e+003, 5.749268e-003
1.720192e+003, 6.200881e-003
1.722121e+003, 6.487051e-003
1.724049e+003, 6.002958e-003
1.725978e+003, 6.356800e-003
1.727906e+003, 7.397121e-003
1.729835e+003, 7.641350e-003
1.731763e+003, 7.261707e-003
1.733692e+003, 6.984886e-003
1.735620e+003, 6.936645e-003
1.737548e+003, 6.681186e-003
1.739477e+003, 6.290041e-003
1.741405e+003, 6.736476e-003
1.743334e+003, 6.940600e-003
1.745262e+003, 6.359011e-003
1.747191e+003, 6.081434e-003
1.749119e+003, 6.155977e-003
1.751048e+003, 6.665196e-003
1.752976e+003, 6.969316e-003
1.754905e+003, 6.241116e-003
1.756833e+003, 5.957692e-003
1.758762e+003, 6.383339e-003
1.760690e+003, 6.177997e-003
1.762619e+003, 6.413828e-003
1.764547e+003, 6.969237e-003
1.766475e+003, 7.663617e-003
1.768404e+003, 7.572740e-003
1.770332e+003, 7.112912e-003
1.772261e+003, 7.176671e-003
1.774189e+003, 7.767863e-003
1.776118e+003, 8.391999e-003
1.778046e+003, 8.682753e-003
1.779975e+003, 9.222414e-003
1.781903e+003, 9.984909e-003
1.783832e+003, 1.115153e-002
1.785760e+003, 1.268990e-002
1.787689e+003, 1.481734e-002
1.789617e+003, 1.751288e-002
1.791546e+003, 1.948062e-002
1.793474e+003, 2.052872e-002
1.795402e+003, 2.170816e-002
1.797331e+003, 2.190613e-002
1.799259e+003, 2.108152e-002
1.801188e+003, 1.941255e-002
1.803116e+003, 1.759341e-002
1.805045e+003, 1.581926e-002
1.806973e+003, 1.409652e-002
1.808902e+003, 1.187175e-002
1.810830e+003, 9.892255e-003
1.812759e+003, 8.378427e-003
1.814687e+003, 7.059940e-003
1.816616e+003, 6.323141e-003
1.818544e+003, 5.822407e-003
1.820473e+003, 5.754025e-003
1.822401e+003, 6.273829e-003
1.824329e+003, 5.533594e-003
1.826258e+003, 4.844658e-003
1.828186e+003, 5.082927e-003
1.830115e+003, 5.855666e-003
1.832043e+003, 6.397401e-003
1.833972e+003, 5.753234e-003
1.835900e+003, 5.439939e-003
1.837829e+003, 5.251257e-003
1.839757e+003, 4.605441e-003
1.841686e+003, 4.743157e-003
1.843614e+003, 4.841840e-003
1.845543e+003, 4.930947e-003
1.847471e+003, 5.463438e-003
1.849400e+003, 5.757625e-003
1.851328e+003, 5.524131e-003
1.853256e+003, 5.346706e-003
1.855185e+003, 5.258590e-003
1.857113e+003, 5.186019e-003
1.859042e+003, 4.800002e-003
1.860970e+003, 5.010200e-003
1.862899e+003, 4.495828e-003
1.864827e+003, 4.026542e-003
1.866756e+003, 5.090256e-003
1.868684e+003, 6.034651e-003
1.870613e+003, 7.096611e-003
1.872541e+003, 6.355204e-003
1.874470e+003, 5.449797e-003
1.876398e+003, 6.185471e-003
1.878327e+003, 6.366998e-003
1.880255e+003, 6.611099e-003
1.882183e+003, 7.808271e-003
1.884112e+003, 7.420681e-003
1.886040e+003, 6.221854e-003
1.887969e+003, 5.708610e-003
1.889897e+003, 5.373055e-003
1.891826e+003, 6.228118e-003
1.893754e+003, 6.362128e-003
1.895683e+003, 5.291007e-003
1.897611e+003, 3.367252e-003
1.899540e+003, 3.351462e-003
1.901468e+003, 5.058817e-003
1.903397e+003, 5.416768e-003
1.905325e+003, 5.364367e-003
1.907254e+003, 4.948577e-003
1.909182e+003, 3.751504e-003
1.911110e+003, 3.480608e-003
1.913039e+003, 3.758956e-003
1.914967e+003, 4.562344e-003
1.916896e+003, 4.986183e-003
1.918824e+003, 5.749730e-003
1.920753e+003, 5.966112e-003
1.922681e+003, 5.528080e-003
1.924610e+003, 4.735052e-003
1.926538e+003, 3.608134e-003
1.928467e+003, 3.896213e-003
1.930395e+003, 3.925556e-003
1.932324e+003, 3.643018e-003
1.934252e+003, 4.305272e-003
1.936181e+003, 5.227144e-003
1.938109e+003, 5.372970e-003
1.940037e+003, 5.383492e-003
1.941966e+003, 5.579771e-003
1.943894e+003, 5.322765e-003
1.945823e+003, 5.099696e-003
1.947751e+003, 6.074023e-003
1.949680e+003, 4.901920e-003
1.951608e+003, 3.528000e-003
1.953537e+003, 2.780566e-003
1.955465e+003, 3.625089e-003
1.957394e+003, 3.506807e-003
1.959322e+003, 3.338247e-003
1.961251e+003, 3.320526e-003
1.963179e+003, 2.810671e-003
1.965108e+003, 2.180909e-003
1.967036e+003, 2.815473e-003
1.968964e+003, 2.280231e-003
1.970893e+003, -1.170094e-003
1.972821e+003, -7.101854e-004
1.974750e+003, 2.713280e-003
1.976678e+003, 4.879160e-003
1.978607e+003, 6.747490e-003
1.980535e+003, 7.615117e-003
1.982464e+003, 1.006284e-002
1.984392e+003, 9.403130e-003
1.986321e+003, 5.523782e-003
1.988249e+003, 3.956504e-003
1.990178e+003, 8.411953e-003
1.992106e+003, 1.247859e-002
1.994035e+003, 1.038025e-002
1.995963e+003, 5.191651e-003
1.997891e+003, -2.393397e-004
1.999820e+003, -4.891417e-004
2.001748e+003, 7.269462e-003
2.003677e+003, 7.517107e-003
2.005605e+003, 4.601166e-003
2.007534e+003, 5.319586e-003
2.009462e+003, 4.772545e-003
2.011391e+003, 3.382267e-003
2.013319e+003, 6.075202e-003
2.015248e+003, 6.843909e-003
2.017176e+003, 4.897995e-003
2.019105e+003, 4.910885e-003
2.021033e+003, 5.619235e-003
2.022962e+003, 5.314474e-003
2.024890e+003, 3.852508e-003
2.026818e+003, 2.114750e-003
2.028747e+003, 3.846815e-003
2.030675e+003, 6.170598e-003
2.032604e+003, 8.508586e-003
2.034532e+003, 9.242533e-003
2.036461e+003, 9.067278e-003
2.038389e+003, 7.447272e-003
2.040318e+003, 4.690044e-003
2.042246e+003, 2.261431e-003
2.044175e+003, 4.127400e-003
2.046103e+003, 5.615799e-003
2.048031e+003, 4.584510e-003
2.049960e+003, 6.282073e-003
2.051888e+003, 8.518266e-003
2.053817e+003, 9.291766e-003
2.055745e+003, 7.486710e-003
2.057674e+003, 7.724498e-003
2.059602e+003, 8.726000e-003
2.061531e+003, 9.908228e-003
2.063459e+003, 1.042873e-002
2.065388e+003, 1.027267e-002
2.067316e+003, 9.244731e-003
2.069245e+003, 6.488463e-003
2.071173e+003, 7.005340e-003
2.073102e+003, 8.408567e-003
2.075030e+003, 8.411115e-003
2.076958e+003, 8.166120e-003
2.078887e+003, 8.652325e-003
2.080815e+003, 1.106041e-002
2.082744e+003, 1.252519e-002
2.084672e+003, 1.009314e-002
2.086601e+003, 7.243928e-003
2.088529e+003, 7.690058e-003
2.090458e+003, 8.334811e-003
2.092386e+003, 6.522271e-003
2.094315e+003, 6.421282e-003
2.096243e+003, 9.431914e-003
2.098172e+003, 1.243894e-002
2.100100e+003, 1.366477e-002
2.102029e+003, 1.142709e-002
2.103957e+003, 8.907935e-003
2.105885e+003, 8.003463e-003
2.107814e+003, 9.018418e-003
2.109742e+003, 1.100947e-002
2.111671e+003, 1.036473e-002
2.113599e+003, 8.017378e-003
2.115528e+003, 7.707256e-003
2.117456e+003, 7.859403e-003
2.119385e+003, 7.508462e-003
2.121313e+003, 8.198174e-003
2.123242e+003, 8.444435e-003
2.125170e+003, 6.767597e-003
2.127099e+003, 6.345860e-003
2.129027e+003, 8.041173e-003
2.130956e+003, 8.724263e-003
2.132884e+003, 7.838764e-003
2.134813e+003, 7.912196e-003
2.136741e+003, 9.340261e-003
2.138669e+003, 7.215065e-003
2.140598e+003, 7.416016e-003
2.142526e+003, 8.653111e-003
2.144455e+003, 1.016993e-002
2.146383e+003, 4.217671e-003
2.148312e+003, -2.135465e-006
2.150240e+003, 1.480600e-003
2.152169e+003, 3.422079e-003
2.154097e+003, 2.626533e-003
2.156026e+003, -3.347587e-003
2.157954e+003, -6.385112e-003
2.159883e+003, 1.564799e-003
2.161811e+003, 5.381376e-003
2.163740e+003, 7.364093e-003
2.165668e+003, 7.869231e-003
2.167596e+003, 9.638965e-003
2.169525e+003, 9.459824e-003
2.171453e+003, 7.227637e-003
2.173382e+003, 6.960663e-003
2.175310e+003, 7.532280e-003
2.177239e+003, 6.893512e-003
2.179167e+003, 4.833279e-003
2.181096e+003, 4.877435e-003
2.183024e+003, 1.241660e-002
2.184953e+003, 1.634310e-002
2.186881e+003, 1.202419e-002
2.188810e+003, 9.914439e-003
2.190738e+003, 9.273817e-003
2.192667e+003, 1.171790e-002
2.194595e+003, 1.188900e-002
2.196523e+003, 1.135773e-002
2.198452e+003, 1.189322e-002
2.200380e+003, 9.613805e-003
2.202309e+003, 8.484323e-003
2.204237e+003, 9.353972e-003
2.206166e+003, 1.128635e-002
2.208094e+003, 1.108629e-002
2.210023e+003, 9.585151e-003
2.211951e+003, 1.012954e-002
2.213880e+003, 9.410669e-003
2.215808e+003, 9.149699e-003
2.217737e+003, 1.098188e-002
2.219665e+003, 1.095372e-002
2.221594e+003, 9.521142e-003
2.223522e+003, 9.836598e-003
2.225450e+003, 8.594752e-003
2.227379e+003, 1.133790e-002
2.229307e+003, 1.294324e-002
2.231236e+003, 1.065361e-002
2.233164e+003, 1.080587e-002
2.235093e+003, 1.198804e-002
2.237021e+003, 1.090248e-002
2.238950e+003, 9.441125e-003
2.240878e+003, 9.771472e-003
2.242807e+003, 1.151230e-002
2.244735e+003, 1.386708e-002
2.246664e+003, 1.386004e-002
2.248592e+003, 1.327791e-002
2.250521e+003, 1.201983e-002
2.252449e+003, 1.259364e-002
2.254377e+003, 1.438931e-002
2.256306e+003, 1.384885e-002
2.258234e+003, 1.384028e-002
2.260163e+003, 1.424356e-002
2.262091e+003, 1.283571e-002
2.264020e+003, 1.270872e-002
2.265948e+003, 1.384385e-002
2.267877e+003, 1.432640e-002
2.269805e+003, 1.407932e-002
2.271734e+003, 1.295952e-002
2.273662e+003, 1.403630e-002
2.275591e+003, 1.585032e-002
2.277519e+003, 1.575379e-002
2.279448e+003, 1.532874e-002
2.281376e+003, 1.528997e-002
2.283304e+003, 1.541830e-002
2.285233e+003, 1.651466e-002
2.287161e+003, 1.576266e-002
2.289090e+003, 1.610313e-002
2.291018e+003, 1.706386e-002
2.292947e+003, 1.628447e-002
2.294875e+003, 1.479072e-002
2.296804e+003, 1.422826e-002
2.298732e+003, 1.555218e-002
2.300661e+003, 1.492472e-002
2.302589e+003, 1.427091e-002
2.304518e+003, 1.490340e-002
2.306446e+003, 1.500399e-002
2.308375e+003, 1.455453e-002
2.310303e+003, 1.480873e-002
2.312231e+003, 1.546401e-002
2.314160e+003, 1.477603e-002
2.316088e+003, 1.544265e-002
2.318017e+003, 1.664811e-002
2.319945e+003, 1.633714e-002
2.321874e+003, 1.665978e-002
2.323802e+003, 1.674704e-002
2.325731e+003, 1.635603e-002
2.327659e+003, 1.600267e-002
2.329588e+003, 1.649770e-002
2.331516e+003, 1.622298e-002
2.333445e+003, 1.472797e-002
2.335373e+003, 1.384047e-002
2.337302e+003, 1.419574e-002
2.339230e+003, 1.438975e-002
2.341158e+003, 1.485498e-002
2.343087e+003, 1.503117e-002
2.345015e+003, 1.505371e-002
2.346944e+003, 1.610926e-002
2.348872e+003, 1.632477e-002
2.350801e+003, 1.504642e-002
2.352729e+003, 1.496415e-002
2.354658e+003, 1.522552e-002
2.356586e+003, 1.513116e-002
2.358515e+003, 1.506550e-002
2.360443e+003, 1.452008e-002
2.362372e+003, 1.368883e-002
2.364300e+003, 1.387548e-002
2.366229e+003, 1.412428e-002
2.368157e+003, 1.343000e-002
2.370085e+003, 1.320108e-002
2.372014e+003, 1.401635e-002
2.373942e+003, 1.371889e-002
2.375871e+003, 1.346801e-002
2.377799e+003, 1.436933e-002
2.379728e+003, 1.500858e-002
2.381656e+003, 1.462384e-002
2.383585e+003, 1.434038e-002
2.385513e+003, 1.369637e-002
2.387442e+003, 1.342645e-002
2.389370e+003, 1.383918e-002
2.391299e+003, 1.398630e-002
2.393227e+003, 1.427900e-002
2.395156e+003, 1.454656e-002
2.397084e+003, 1.464261e-002
2.399012e+003, 1.405221e-002
2.400941e+003, 1.433019e-002
2.402869e+003, 1.540603e-002
2.404798e+003, 1.373435e-002
2.406726e+003, 1.281900e-002
2.408655e+003, 1.463259e-002
2.410583e+003, 1.614181e-002
2.412512e+003, 1.523765e-002
2.414440e+003, 1.395228e-002
2.416369e+003, 1.436034e-002
2.418297e+003, 1.601307e-002
2.420226e+003, 1.703476e-002
2.422154e+003, 1.641801e-002
2.424083e+003, 1.682120e-002
2.426011e+003, 1.743795e-002
2.427939e+003, 1.768633e-002
2.429868e+003, 1.809959e-002
2.431796e+003, 1.792773e-002
2.433725e+003, 1.842270e-002
2.435653e+003, 1.761024e-002
2.437582e+003, 1.585960e-002
2.439510e+003, 1.596594e-002
2.441439e+003, 1.736373e-002
2.443367e+003, 1.765465e-002
2.445296e+003, 1.756191e-002
2.447224e+003, 1.863636e-002
2.449153e+003, 2.030438e-002
2.451081e+003, 2.045928e-002
2.453010e+003, 1.966644e-002
2.454938e+003, 2.012959e-002
2.456866e+003, 2.165613e-002
2.458795e+003, 2.323456e-002
2.460723e+003, 2.371535e-002
2.462652e+003, 2.449758e-002
2.464580e+003, 2.626797e-002
2.466509e+003, 2.917706e-002
2.468437e+003, 3.069932e-002
2.470366e+003, 2.998174e-002
2.472294e+003, 3.009713e-002
2.474223e+003, 2.975004e-002
2.476151e+003, 2.837851e-002
2.478080e+003, 2.825882e-002
2.480008e+003, 2.849637e-002
2.481937e+003, 2.760408e-002
2.483865e+003, 2.532442e-002
2.485793e+003, 2.500735e-002
2.487722e+003, 2.699362e-002
2.489650e+003, 2.593915e-002
2.491579e+003, 2.482487e-002
2.493507e+003, 2.396373e-002
2.495436e+003, 2.393602e-002
2.497364e+003, 2.448972e-002
2.499293e+003, 2.311862e-002
2.501221e+003, 2.177192e-002
2.503150e+003, 2.080504e-002
2.505078e+003, 1.957002e-002
2.507007e+003, 1.985653e-002
2.508935e+003, 2.132547e-002
2.510864e+003, 2.080937e-002
2.512792e+003, 1.981561e-002
2.514720e+003, 1.852839e-002
2.516649e+003, 1.834322e-002
2.518577e+003, 1.899411e-002
2.520506e+003, 2.016385e-002
2.522434e+003, 1.913869e-002
2.524363e+003, 1.649852e-002
2.526291e+003, 1.746853e-002
2.528220e+003, 1.838982e-002
2.530148e+003, 1.802054e-002
2.532077e+003, 1.808972e-002
2.534005e+003, 1.751803e-002
2.535934e+003, 1.647742e-002
2.537862e+003, 1.671087e-002
2.539791e+003, 1.719401e-002
2.541719e+003, 1.548580e-002
2.543647e+003, 1.642146e-002
2.545576e+003, 1.719617e-002
2.547504e+003, 1.673006e-002
2.549433e+003, 1.738379e-002
2.551361e+003, 1.747973e-002
2.553290e+003, 1.631336e-002
2.555218e+003, 1.706346e-002
2.557147e+003, 1.808253e-002
2.559075e+003, 1.763277e-002
2.561004e+003, 1.795983e-002
2.562932e+003, 1.798897e-002
2.564861e+003, 1.705769e-002
2.566789e+003, 1.566511e-002
2.568718e+003, 1.582319e-002
2.570646e+003, 1.609307e-002
2.572574e+003, 1.656841e-002
2.574503e+003, 1.873194e-002
2.576431e+003, 1.893836e-002
2.578360e+003, 1.648220e-002
2.580288e+003, 1.599576e-002
2.582217e+003, 1.739729e-002
2.584145e+003, 1.823307e-002
2.586074e+003, 1.742005e-002
2.588002e+003, 1.701883e-002
2.589931e+003, 1.576892e-002
2.591859e+003, 1.459336e-002
2.593788e+003, 1.528649e-002
2.595716e+003, 1.550030e-002
2.597645e+003, 1.502692e-002
2.599573e+003, 1.595534e-002
2.601501e+003, 1.666119e-002
2.603430e+003, 1.595084e-002
2.605358e+003, 1.558379e-002
2.607287e+003, 1.512201e-002
2.609215e+003, 1.547653e-002
2.611144e+003, 1.631474e-002
2.613072e+003, 1.590982e-002
2.615001e+003, 1.591918e-002
2.616929e+003, 1.490600e-002
2.618858e+003, 1.510532e-002
2.620786e+003, 1.710280e-002
2.622715e+003, 1.764851e-002
2.624643e+003, 1.632136e-002
2.626572e+003, 1.589899e-002
2.628500e+003, 1.591190e-002
2.630428e+003, 1.629677e-002
2.632357e+003, 1.684792e-002
2.634285e+003, 1.639132e-002
2.636214e+003, 1.707544e-002
2.638142e+003, 1.796772e-002
2.640071e+003, 1.806483e-002
2.641999e+003, 1.776957e-002
2.643928e+003, 1.719895e-002
2.645856e+003, 1.704233e-002
2.647785e+003, 1.758112e-002
2.649713e+003, 1.893246e-002
2.651642e+003, 1.913578e-002
2.653570e+003, 1.779989e-002
2.655499e+003, 1.678666e-002
2.657427e+003, 1.675784e-002
2.659355e+003, 1.687068e-002
2.661284e+003, 1.711557e-002
2.663212e+003, 1.728561e-002
2.665141e+003, 1.659917e-002
2.667069e+003, 1.606653e-002
2.668998e+003, 1.546971e-002
2.670926e+003, 1.578703e-002
2.672855e+003, 1.635697e-002
2.674783e+003, 1.585080e-002
2.676712e+003, 1.620249e-002
2.678640e+003, 1.687810e-002
2.680569e+003, 1.674130e-002
2.682497e+003, 1.627996e-002
2.684426e+003, 1.587404e-002
2.686354e+003, 1.574280e-002
2.688282e+003, 1.630487e-002
2.690211e+003, 1.684140e-002
2.692139e+003, 1.655569e-002
2.694068e+003, 1.644868e-002
2.695996e+003, 1.695665e-002
2.697925e+003, 1.780812e-002
2.699853e+003, 1.824218e-002
2.701782e+003, 1.860941e-002
2.703710e+003, 1.796719e-002
2.705639e+003, 1.664880e-002
2.707567e+003, 1.604862e-002
2.709496e+003, 1.671642e-002
2.711424e+003, 1.801189e-002
2.713353e+003, 1.782004e-002
2.715281e+003, 1.709875e-002
2.717209e+003, 1.675351e-002
2.719138e+003, 1.657433e-002
2.721066e+003, 1.711342e-002
2.722995e+003, 1.859100e-002
2.724923e+003, 1.910735e-002
2.726852e+003, 1.795108e-002
2.728780e+003, 1.653316e-002
2.730709e+003, 1.639439e-002
2.732637e+003, 1.823344e-002
2.734566e+003, 1.842077e-002
2.736494e+003, 1.776023e-002
2.738423e+003, 1.771261e-002
2.740351e+003, 1.760150e-002
2.742280e+003, 1.776596e-002
2.744208e+003, 1.749229e-002
2.746136e+003, 1.732731e-002
2.748065e+003, 1.752186e-002
2.749993e+003, 1.857504e-002
2.751922e+003, 2.008208e-002
2.753850e+003, 1.934450e-002
2.755779e+003, 1.893338e-002
2.757707e+003, 1.939620e-002
2.759636e+003, 1.989282e-002
2.761564e+003, 1.923614e-002
2.763493e+003, 1.901475e-002
2.765421e+003, 2.031898e-002
2.767350e+003, 2.098324e-002
2.769278e+003, 2.065177e-002
2.771207e+003, 2.110134e-002
2.773135e+003, 2.189700e-002
2.775063e+003, 2.166908e-002
2.776992e+003, 2.179956e-002
2.778920e+003, 2.236255e-002
2.780849e+003, 2.211199e-002
2.782777e+003, 2.222941e-002
2.784706e+003, 2.292223e-002
2.786634e+003, 2.271304e-002
2.788563e+003, 2.159501e-002
2.790491e+003, 2.197247e-002
2.792420e+003, 2.261436e-002
2.794348e+003, 2.186086e-002
2.796277e+003, 2.188123e-002
2.798205e+003, 2.334124e-002
2.800134e+003, 2.415015e-002
2.802062e+003, 2.378717e-002
2.803990e+003, 2.414769e-002
2.805919e+003, 2.401362e-002
2.807847e+003, 2.325306e-002
2.809776e+003, 2.388607e-002
2.811704e+003, 2.481247e-002
2.813633e+003, 2.482988e-002
2.815561e+003, 2.541245e-002
2.817490e+003, 2.552232e-002
2.819418e+003, 2.463022e-002
2.821347e+003, 2.262035e-002
2.823275e+003, 2.158246e-002
2.825204e+003, 2.143001e-002
2.827132e+003, 2.187997e-002
2.829061e+003, 2.282648e-002
2.830989e+003, 2.399151e-002
2.832917e+003, 2.460134e-002
2.834846e+003, 2.436312e-002
2.836774e+003, 2.461661e-002
2.838703e+003, 2.470205e-002
2.840631e+003, 2.452977e-002
2.842560e+003, 2.493349e-002
2.844488e+003, 2.476182e-002
2.846417e+003, 2.385281e-002
2.848345e+003, 2.380028e-002
2.850274e+003, 2.406827e-002
2.852202e+003, 2.344181e-002
2.854131e+003, 2.265559e-002
2.856059e+003, 2.303237e-002
2.857988e+003, 2.407973e-002
2.859916e+003, 2.481037e-002
2.861844e+003, 2.436285e-002
2.863773e+003, 2.294340e-002
2.865701e+003, 2.227609e-002
2.867630e+003, 2.321212e-002
2.869558e+003, 2.417809e-002
2.871487e+003, 2.487396e-002
2.873415e+003, 2.436193e-002
2.875344e+003, 2.508593e-002
2.877272e+003, 2.641270e-002
2.879201e+003, 2.631445e-002
2.881129e+003, 2.577239e-002
2.883058e+003, 2.489097e-002
2.884986e+003, 2.466085e-002
2.886915e+003, 2.529970e-002
2.888843e+003, 2.523700e-002
2.890771e+003, 2.558549e-002
2.892700e+003, 2.630060e-002
2.894628e+003, 2.654009e-002
2.896557e+003, 2.538596e-002
2.898485e+003, 2.514948e-002
2.900414e+003, 2.573145e-002
2.902342e+003, 2.614387e-002
2.904271e+003, 2.680424e-002
2.906199e+003, 2.605386e-002
2.908128e+003, 2.644451e-002
2.910056e+003, 2.785280e-002
2.911985e+003, 2.749315e-002
2.913913e+003, 2.620483e-002
2.915842e+003, 2.701722e-002
2.917770e+003, 2.884947e-002
2.919698e+003, 2.955259e-002
2.921627e+003, 2.908598e-002
2.923555e+003, 2.938125e-002
2.925484e+003, 2.991420e-002
2.927412e+003, 2.935152e-002
2.929341e+003, 2.840198e-002
2.931269e+003, 2.982938e-002
2.933198e+003, 2.897228e-002
2.935126e+003, 2.802297e-002
2.937055e+003, 2.886016e-002
2.938983e+003, 3.004018e-002
2.940912e+003, 3.015327e-002
2.942840e+003, 2.880690e-002
2.944769e+003, 2.735692e-002
2.946697e+003, 2.708879e-002
2.948625e+003, 2.652857e-002
2.950554e+003, 2.689380e-002
2.952482e+003, 2.676723e-002
2.954411e+003, 2.575557e-002
2.956339e+003, 2.671958e-002
2.958268e+003, 2.861219e-002
2.960196e+003, 2.979114e-002
2.962125e+003, 2.865551e-002
2.964053e+003, 2.735809e-002
2.965982e+003, 2.813624e-002
2.967910e+003, 2.937279e-002
2.969839e+003, 2.970400e-002
2.971767e+003, 2.792405e-002
2.973696e+003, 2.682444e-002
2.975624e+003, 2.809107e-002
2.977552e+003, 2.780068e-002
2.979481e+003, 2.716281e-002
2.981409e+003, 2.810813e-002
2.983338e+003, 2.867729e-002
2.985266e+003, 2.885845e-002
2.987195e+003, 2.811867e-002
2.989123e+003, 2.694146e-002
2.991052e+003, 2.821504e-002
2.992980e+003, 2.862499e-002
2.994909e+003, 2.683445e-002
2.996837e+003, 2.689927e-002
2.998766e+003, 2.828456e-002
3.000694e+003, 2.934881e-002
3.002623e+003, 2.848647e-002
3.004551e+003, 2.937697e-002
3.006479e+003, 2.905200e-002
3.008408e+003, 2.799671e-002
3.010336e+003, 2.745582e-002
3.012265e+003, 2.821514e-002
3.014193e+003, 2.906191e-002
3.016122e+003, 3.040532e-002
3.018050e+003, 3.029591e-002
3.019979e+003, 2.977816e-002
3.021907e+003, 2.827190e-002
3.023836e+003, 2.784551e-002
3.025764e+003, 2.863347e-002
3.027693e+003, 2.805954e-002
3.029621e+003, 2.769291e-002
3.031550e+003, 2.881994e-002
3.033478e+003, 2.973536e-002
3.035406e+003, 2.951696e-002
3.037335e+003, 2.990719e-002
3.039263e+003, 3.191943e-002
3.041192e+003, 3.133653e-002
3.043120e+003, 3.058151e-002
3.045049e+003, 3.052614e-002
3.046977e+003, 3.024103e-002
3.048906e+003, 3.076259e-002
3.050834e+003, 3.195832e-002
3.052763e+003, 3.238518e-002
3.054691e+003, 3.115219e-002
3.056620e+003, 3.017779e-002
3.058548e+003, 3.074423e-002
3.060477e+003, 3.132311e-002
3.062405e+003, 3.193744e-002
3.064333e+003, 3.376924e-002
3.066262e+003, 3.453579e-002
3.068190e+003, 3.326524e-002
3.070119e+003, 3.256597e-002
3.072047e+003, 3.302490e-002
3.073976e+003, 3.334364e-002
3.075904e+003, 3.389675e-002
3.077833e+003, 3.477978e-002
3.079761e+003, 3.449264e-002
3.081690e+003, 3.416108e-002
3.083618e+003, 3.335814e-002
3.085547e+003, 3.206160e-002
3.087475e+003, 3.155188e-002
3.089404e+003, 3.186171e-002
3.091332e+003, 3.302759e-002
3.093260e+003, 3.341264e-002
3.095189e+003, 3.464806e-002
3.097117e+003, 3.504552e-002
3.099046e+003, 3.395683e-002
3.100974e+003, 3.377376e-002
3.102903e+003, 3.302456e-002
3.104831e+003, 3.353003e-002
3.106760e+003, 3.331523e-002
3.108688e+003, 3.315127e-002
3.110617e+003, 3.459435e-002
3.112545e+003, 3.564547e-002
3.114474e+003, 3.527983e-002
3.116402e+003, 3.576906e-002
3.118331e+003, 3.676290e-002
3.120259e+003, 3.699163e-002
3.122188e+003, 3.619613e-002
3.124116e+003, 3.428259e-002
3.126044e+003, 3.427698e-002
3.127973e+003, 3.565127e-002
3.129901e+003, 3.662036e-002
3.131830e+003, 3.696704e-002
3.133758e+003, 3.587594e-002
3.135687e+003, 3.574367e-002
3.137615e+003, 3.603335e-002
3.139544e+003, 3.571309e-002
3.141472e+003, 3.428059e-002
3.143401e+003, 3.370558e-002
3.145329e+003, 3.445574e-002
3.147258e+003, 3.579592e-002
3.149186e+003, 3.835291e-002
3.151115e+003, 4.064353e-002
3.153043e+003, 3.881328e-002
3.154971e+003, 3.740659e-002
3.156900e+003, 3.557372e-002
3.158828e+003, 3.381254e-002
3.160757e+003, 3.469777e-002
3.162685e+003, 3.667736e-002
3.164614e+003, 3.705182e-002
3.166542e+003, 3.749321e-002
3.168471e+003, 4.047606e-002
3.170399e+003, 4.085677e-002
3.172328e+003, 3.699820e-002
3.174256e+003, 3.635404e-002
3.176185e+003, 3.612773e-002
3.178113e+003, 3.475137e-002
3.180042e+003, 3.488452e-002
3.181970e+003, 3.762724e-002
3.183898e+003, 4.156420e-002
3.185827e+003, 4.153271e-002
3.187755e+003, 3.933632e-002
3.189684e+003, 3.858159e-002
3.191612e+003, 3.931384e-002
3.193541e+003, 4.095597e-002
3.195469e+003, 4.200934e-002
3.197398e+003, 4.222373e-002
3.199326e+003, 4.175818e-002
3.201255e+003, 3.951108e-002
3.203183e+003, 3.790361e-002
3.205112e+003, 3.875476e-002
3.207040e+003, 3.896035e-002
3.208969e+003, 3.854461e-002
3.210897e+003, 3.908882e-002
3.212825e+003, 3.826912e-002
3.214754e+003, 3.857841e-002
3.216682e+003, 3.837947e-002
3.218611e+003, 3.773070e-002
3.220539e+003, 3.878145e-002
3.222468e+003, 3.983585e-002
3.224396e+003, 3.926535e-002
3.226325e+003, 3.750892e-002
3.228253e+003, 3.708854e-002
3.230182e+003, 3.867839e-002
3.232110e+003, 3.888809e-002
3.234039e+003, 3.838854e-002
3.235967e+003, 3.888930e-002
3.237896e+003, 4.025397e-002
3.239824e+003, 4.019167e-002
3.241752e+003, 3.942258e-002
3.243681e+003, 4.054832e-002
3.245609e+003, 4.148063e-002
3.247538e+003, 4.173879e-002
3.249466e+003, 4.028526e-002
3.251395e+003, 3.975369e-002
3.253323e+003, 4.039863e-002
3.255252e+003, 4.103902e-002
3.257180e+003, 3.924143e-002
3.259109e+003, 3.783616e-002
3.261037e+003, 3.926657e-002
3.262966e+003, 3.943452e-002
3.264894e+003, 3.975318e-002
3.266823e+003, 4.018505e-002
3.268751e+003, 3.984871e-002
3.270679e+003, 4.004521e-002
3.272608e+003, 4.087433e-002
3.274536e+003, 4.126897e-002
3.276465e+003, 4.084831e-002
3.278393e+003, 4.013798e-002
3.280322e+003, 4.213787e-002
3.282250e+003, 4.308878e-002
3.284179e+003, 4.327202e-002
3.286107e+003, 4.486937e-002
3.288036e+003, 4.417546e-002
3.289964e+003, 4.280056e-002
3.291893e+003, 4.138430e-002
3.293821e+003, 4.062898e-002
3.295750e+003, 4.115921e-002
3.297678e+003, 4.326248e-002
3.299606e+003, 4.190122e-002
3.301535e+003, 3.936321e-002
3.303463e+003, 3.949905e-002
3.305392e+003, 4.251372e-002
3.307320e+003, 4.373847e-002
3.309249e+003, 4.191630e-002
3.311177e+003, 4.218903e-002
3.313106e+003, 4.088639e-002
3.315034e+003, 3.888022e-002
3.316963e+003, 4.010710e-002
3.318891e+003, 4.261870e-002
3.320820e+003, 4.197393e-002
3.322748e+003, 4.133629e-002
3.324677e+003, 4.150981e-002
3.326605e+003, 4.205228e-002
3.328533e+003, 4.249047e-002
3.330462e+003, 4.258612e-002
3.332390e+003, 4.035292e-002
3.334319e+003, 3.915872e-002
3.336247e+003, 4.153289e-002
3.338176e+003, 4.151683e-002
3.340104e+003, 4.200931e-002
3.342033e+003, 4.177540e-002
3.343961e+003, 4.250041e-002
3.345890e+003, 4.314024e-002
3.347818e+003, 4.323572e-002
3.349747e+003, 4.370216e-002
3.351675e+003, 4.213620e-002
3.353604e+003, 4.044344e-002
3.355532e+003, 4.153134e-002
3.357460e+003, 4.226596e-002
3.359389e+003, 4.333711e-002
3.361317e+003, 4.465272e-002
3.363246e+003, 4.222878e-002
3.365174e+003, 4.185433e-002
3.367103e+003, 4.432771e-002
3.369031e+003, 4.402002e-002
3.370960e+003, 4.219757e-002
3.372888e+003, 4.064671e-002
3.374817e+003, 4.011131e-002
3.376745e+003, 3.954779e-002
3.378674e+003, 3.968446e-002
3.380602e+003, 4.264976e-002
3.382531e+003, 4.417273e-002
3.384459e+003, 4.128477e-002
3.386387e+003, 3.963247e-002
3.388316e+003, 4.041737e-002
3.390244e+003, 4.128002e-002
3.392173e+003, 4.098323e-002
3.394101e+003, 4.025187e-002
3.396030e+003, 4.355479e-002
3.397958e+003, 4.368366e-002
3.399887e+003, 4.273001e-002
3.401815e+003, 4.424407e-002
3.403744e+003, 4.613186e-002
3.405672e+003, 4.481547e-002
3.407601e+003, 4.138139e-002
3.409529e+003, 4.029459e-002
3.411458e+003, 4.127456e-002
3.413386e+003, 4.454245e-002
3.415314e+003, 4.374303e-002
3.417243e+003, 4.024649e-002
3.419171e+003, 4.127366e-002
3.421100e+003, 4.299825e-002
3.423028e+003, 4.375621e-002
3.424957e+003, 4.422130e-002
3.426885e+003, 4.203530e-002
3.428814e+003, 4.059547e-002
3.430742e+003, 4.094916e-002
3.432671e+003, 4.216090e-002
3.434599e+003, 4.305452e-002
3.436528e+003, 4.082382e-002
3.438456e+003, 4.054455e-002
3.440385e+003, 4.205349e-002
3.442313e+003, 4.086113e-002
3.444241e+003, 4.148358e-002
3.446170e+003, 4.212257e-002
3.448098e+003, 4.121152e-002
3.450027e+003, 4.079294e-002
3.451955e+003, 4.404270e-002
3.453884e+003, 4.510972e-002
3.455812e+003, 4.409167e-002
3.457741e+003, 4.290966e-002
3.459669e+003, 4.172669e-002
3.461598e+003, 4.288459e-002
3.463526e+003, 4.391747e-002
3.465455e+003, 4.215445e-002
3.467383e+003, 4.290070e-002
3.469312e+003, 4.366242e-002
3.471240e+003, 4.170814e-002
3.473168e+003, 4.131894e-002
3.475097e+003, 4.145798e-002
3.477025e+003, 4.030202e-002
3.478954e+003, 4.004595e-002
3.480882e+003, 3.935440e-002
3.482811e+003, 3.888545e-002
3.484739e+003, 3.701394e-002
3.486668e+003, 3.756537e-002
3.488596e+003, 4.055557e-002
3.490525e+003, 4.243348e-002
3.492453e+003, 4.133513e-002
3.494382e+003, 4.057859e-002
3.496310e+003, 3.905281e-002
3.498239e+003, 4.018866e-002
3.500167e+003, 4.328998e-002
3.502095e+003, 4.158484e-002
3.504024e+003, 4.017657e-002
3.505952e+003, 4.203923e-002
3.507881e+003, 4.387841e-002
3.509809e+003, 4.278704e-002
3.511738e+003, 4.022678e-002
3.513666e+003, 3.787571e-002
3.515595e+003, 4.097795e-002
3.517523e+003, 4.260937e-002
3.519452e+003, 3.932565e-002
3.521380e+003, 3.823733e-002
3.523309e+003, 3.953430e-002
3.525237e+003, 4.000860e-002
3.527166e+003, 4.078417e-002
3.529094e+003, 3.993404e-002
3.531022e+003, 3.925028e-002
3.532951e+003, 4.078964e-002
3.534879e+003, 4.055873e-002
3.536808e+003, 4.041157e-002
3.538736e+003, 4.008996e-002
3.540665e+003, 3.612648e-002
3.542593e+003, 3.563996e-002
3.544522e+003, 3.963205e-002
3.546450e+003, 4.105265e-002
3.548379e+003, 4.022695e-002
3.550307e+003, 3.874010e-002
3.552236e+003, 3.822462e-002
3.554164e+003, 3.968295e-002
3.556093e+003, 4.009515e-002
3.558021e+003, 3.790758e-002
3.559949e+003, 3.666588e-002
3.561878e+003, 3.665565e-002
3.563806e+003, 3.635716e-002
3.565735e+003, 3.514829e-002
3.567663e+003, 3.485764e-002
3.569592e+003, 3.834737e-002
3.571520e+003, 3.884476e-002
3.573449e+003, 3.648389e-002
3.575377e+003, 3.641711e-002
3.577306e+003, 3.673201e-002
3.579234e+003, 3.437380e-002
3.581163e+003, 3.145088e-002
3.583091e+003, 3.444325e-002
3.585020e+003, 3.694221e-002
3.586948e+003, 3.277138e-002
3.588876e+003, 3.295089e-002
3.590805e+003, 3.544276e-002
3.592733e+003, 3.765632e-002
3.594662e+003, 3.632641e-002
3.596590e+003, 3.410390e-002
3.598519e+003, 3.440274e-002
3.600447e+003, 3.514660e-002
3.602376e+003, 3.615063e-002
3.604304e+003, 3.375306e-002
3.606233e+003, 3.092014e-002
3.608161e+003, 3.035381e-002
3.610090e+003, 3.536344e-002
3.612018e+003, 3.564247e-002
3.613947e+003, 3.398028e-002
3.615875e+003, 3.817763e-002
3.617803e+003, 4.043888e-002
3.619732e+003, 4.123679e-002
3.621660e+003, 3.803216e-002
3.623589e+003, 3.565802e-002
3.625517e+003, 3.911503e-002
3.627446e+003, 3.912351e-002
3.629374e+003, 3.466011e-002
3.631303e+003, 3.334399e-002
3.633231e+003, 3.429557e-002
3.635160e+003, 3.224776e-002
3.637088e+003, 3.129607e-002
3.639017e+003, 3.369710e-002
3.640945e+003, 3.464853e-002
3.642874e+003, 3.514504e-002
3.644802e+003, 3.481670e-002
3.646730e+003, 3.203560e-002
3.648659e+003, 3.022901e-002
3.650587e+003, 3.354948e-002
3.652516e+003, 3.504887e-002
3.654444e+003, 3.380199e-002
3.656373e+003, 3.239378e-002
3.658301e+003, 3.209073e-002
3.660230e+003, 3.446243e-002
3.662158e+003, 3.367528e-002
3.664087e+003, 3.241492e-002
3.666015e+003, 2.923726e-002
3.667944e+003, 2.836287e-002
3.669872e+003, 3.040563e-002
3.671801e+003, 3.260385e-002
3.673729e+003, 3.503666e-002
3.675657e+003, 3.472194e-002
3.677586e+003, 3.290846e-002
3.679514e+003, 3.582355e-002
3.681443e+003, 4.163655e-002
3.683371e+003, 3.928985e-002
3.685300e+003, 3.299519e-002
3.687228e+003, 3.240843e-002
3.689157e+003, 3.355664e-002
3.691085e+003, 3.446239e-002
3.693014e+003, 3.259802e-002
3.694942e+003, 3.146186e-002
3.696871e+003, 3.527214e-002
3.698799e+003, 3.787648e-002
3.700728e+003, 3.739664e-002
3.702656e+003, 3.758905e-002
3.704584e+003, 3.762056e-002
3.706513e+003, 3.518776e-002
3.708441e+003, 3.495692e-002
3.710370e+003, 3.485223e-002
3.712298e+003, 3.416825e-002
3.714227e+003, 3.405552e-002
3.716155e+003, 3.365700e-002
3.718084e+003, 3.221293e-002
3.720012e+003, 3.156120e-002
3.721941e+003, 3.078889e-002
3.723869e+003, 3.211012e-002
3.725798e+003, 3.618919e-002
3.727726e+003, 3.770170e-002
3.729655e+003, 3.617838e-002
3.731583e+003, 3.290882e-002
3.733511e+003, 3.459500e-002
3.735440e+003, 3.574476e-002
3.737368e+003, 3.507571e-002
3.739297e+003, 3.541327e-002
3.741225e+003, 3.777314e-002
3.743154e+003, 3.711348e-002
3.745082e+003, 3.921143e-002
3.747011e+003, 3.898592e-002
3.748939e+003, 3.599229e-002
3.750868e+003, 3.361293e-002
3.752796e+003, 3.217007e-002
3.754725e+003, 3.402410e-002
3.756653e+003, 3.460827e-002
3.758582e+003, 3.707369e-002
3.760510e+003, 3.604568e-002
3.762438e+003, 3.287245e-002
3.764367e+003, 3.363688e-002
3.766295e+003, 3.535842e-002
3.768224e+003, 3.305740e-002
3.770152e+003, 3.381444e-002
3.772081e+003, 3.452050e-002
3.774009e+003, 3.298859e-002
3.775938e+003, 3.467387e-002
3.777866e+003, 3.691001e-002
3.779795e+003, 3.857075e-002
3.781723e+003, 3.653868e-002
3.783652e+003, 3.431913e-002
3.785580e+003, 3.409047e-002
3.787509e+003, 3.846473e-002
3.789437e+003, 4.255578e-002
3.791365e+003, 4.196572e-002
3.793294e+003, 3.885584e-002
3.795222e+003, 3.805977e-002
3.797151e+003, 3.533108e-002
3.799079e+003, 3.591589e-002
3.801008e+003, 3.845898e-002
3.802936e+003, 3.780562e-002
3.804865e+003, 3.783654e-002
3.806793e+003, 3.818768e-002
3.808722e+003, 3.694870e-002
3.810650e+003, 3.500991e-002
3.812579e+003, 3.459260e-002
3.814507e+003, 3.681058e-002
3.816436e+003, 3.950078e-002
3.818364e+003, 3.628389e-002
3.820292e+003, 3.309625e-002
3.822221e+003, 3.547107e-002
3.824149e+003, 3.761998e-002
3.826078e+003, 3.570956e-002
3.828006e+003, 3.452512e-002
3.829935e+003, 3.452398e-002
3.831863e+003, 3.313821e-002
3.833792e+003, 3.252821e-002
3.835720e+003, 3.568386e-002
3.837649e+003, 3.752751e-002
3.839577e+003, 3.577979e-002
3.841506e+003, 3.422105e-002
3.843434e+003, 3.525231e-002
3.845363e+003, 3.659996e-002
3.847291e+003, 3.967523e-002
3.849219e+003, 4.051081e-002
3.851148e+003, 3.619297e-002
3.853076e+003, 3.384608e-002
3.855005e+003, 3.480865e-002
3.856933e+003, 3.603828e-002
3.858862e+003, 3.562302e-002
3.860790e+003, 3.198260e-002
3.862719e+003, 3.191939e-002
3.864647e+003, 3.701795e-002
3.866576e+003, 3.380151e-002
3.868504e+003, 3.261662e-002
3.870433e+003, 3.745072e-002
3.872361e+003, 3.653603e-002
3.874290e+003, 3.492498e-002
3.876218e+003, 3.627687e-002
3.878146e+003, 3.861786e-002
3.880075e+003, 4.028296e-002
3.882003e+003, 3.761884e-002
3.883932e+003, 3.390715e-002
3.885860e+003, 3.392740e-002
3.887789e+003, 3.570295e-002
3.889717e+003, 4.004294e-002
3.891646e+003, 3.641400e-002
3.893574e+003, 3.424381e-002
3.895503e+003, 3.864410e-002
3.897431e+003, 3.614819e-002
3.899360e+003, 3.226629e-002
3.901288e+003, 3.283925e-002
3.903217e+003, 3.290876e-002
3.905145e+003, 3.681507e-002
3.907073e+003, 3.858234e-002
3.909002e+003, 3.613351e-002
3.910930e+003, 3.481688e-002
3.912859e+003, 3.601409e-002
3.914787e+003, 3.527376e-002
3.916716e+003, 3.954418e-002
3.918644e+003, 3.911519e-002
3.920573e+003, 3.392406e-002
3.922501e+003, 3.371683e-002
3.924430e+003, 3.739225e-002
3.926358e+003, 3.914107e-002
3.928287e+003, 3.389428e-002
3.930215e+003, 3.253462e-002
3.932144e+003, 3.628514e-002
3.934072e+003, 3.602681e-002
3.936000e+003, 3.573921e-002
3.937929e+003, 3.787636e-002
3.939857e+003, 3.935806e-002
3.941786e+003, 3.616441e-002
3.943714e+003, 3.327792e-002
3.945643e+003, 3.340403e-002
3.947571e+003, 3.529435e-002
3.949500e+003, 3.391033e-002
3.951428e+003, 3.133174e-002
3.953357e+003, 3.549504e-002
3.955285e+003, 3.625065e-002
3.957214e+003, 3.212811e-002
3.959142e+003, 3.440033e-002
3.961071e+003, 3.575806e-002
3.962999e+003, 3.546580e-002
3.964927e+003, 3.843895e-002
3.966856e+003, 3.690851e-002
3.968784e+003, 3.610860e-002
3.970713e+003, 3.739528e-002
3.972641e+003, 3.421871e-002
3.974570e+003, 3.233545e-002
3.976498e+003, 3.653106e-002
3.978427e+003, 3.992574e-002
3.980355e+003, 4.042065e-002
3.982284e+003, 3.506965e-002
3.984212e+003, 3.132148e-002
3.986141e+003, 3.488636e-002
3.988069e+003, 3.733892e-002
3.989998e+003, 3.657959e-002
3.991926e+003, 3.838423e-002
3.993854e+003, 4.094330e-002
3.995783e+003, 4.092539e-002
3.997711e+003, 3.513131e-002
3.999640e+003, 3.509294e-002
4.001568e+003, 0.000000e+000
##END=



