##NAMES=Paravauxite
##RRUFFID=R050577
##IDEAL CHEMISTRY=Fe^2+^Al_2_(PO_4_)_2_(OH)_2_&#183;8H_2_O
##LOCALITY=Llallagua, Bolivia
##OWNER=RRUFF
##SOURCE=University of Arizona Mineral Museum
##DESCRIPTION=Colorless bladed crystal
##STATUS=The identification of this mineral has been confirmed by X-ray diffraction and chemical analysis
##URL=rruff.info/R050577
##MEASURED CHEMISTRY=(Fe^2+^_0.93_Mg_0.04_Mn_0.03_)Al_2_(PO_4_)_2_((OH)_0.93_F_0.07_)_2_Î‡8H_2_O
3.991926e+002, 2.245015e-001
4.011211e+002, 2.201522e-001
4.030495e+002, 2.183339e-001
4.049780e+002, 2.131671e-001
4.069065e+002, 2.093249e-001
4.088349e+002, 2.063756e-001
4.107634e+002, 2.050126e-001
4.126919e+002, 2.076362e-001
4.146203e+002, 2.097683e-001
4.165488e+002, 2.128805e-001
4.184773e+002, 2.157854e-001
4.204057e+002, 2.187455e-001
4.223342e+002, 2.218527e-001
4.242627e+002, 2.256978e-001
4.261911e+002, 2.285812e-001
4.281196e+002, 2.320274e-001
4.300481e+002, 2.359641e-001
4.319765e+002, 2.406857e-001
4.339050e+002, 2.464983e-001
4.358335e+002, 2.469159e-001
4.377619e+002, 2.459505e-001
4.396904e+002, 2.481019e-001
4.416189e+002, 2.486695e-001
4.435473e+002, 2.464543e-001
4.454758e+002, 2.416578e-001
4.474043e+002, 2.376896e-001
4.493327e+002, 2.336333e-001
4.512612e+002, 2.285429e-001
4.531897e+002, 2.220853e-001
4.551181e+002, 2.165566e-001
4.570466e+002, 2.126293e-001
4.589751e+002, 2.065622e-001
4.609035e+002, 1.982899e-001
4.628320e+002, 1.911999e-001
4.647605e+002, 1.844918e-001
4.666889e+002, 1.776314e-001
4.686174e+002, 1.724030e-001
4.705459e+002, 1.676035e-001
4.724743e+002, 1.629381e-001
4.744028e+002, 1.595843e-001
4.763313e+002, 1.573585e-001
4.782597e+002, 1.571150e-001
4.801882e+002, 1.573875e-001
4.821167e+002, 1.575005e-001
4.840451e+002, 1.590651e-001
4.859736e+002, 1.626653e-001
4.879021e+002, 1.674587e-001
4.898305e+002, 1.715440e-001
4.917590e+002, 1.754640e-001
4.936875e+002, 1.806058e-001
4.956159e+002, 1.863670e-001
4.975444e+002, 1.929161e-001
4.994729e+002, 2.001002e-001
5.014013e+002, 2.074953e-001
5.033298e+002, 2.139849e-001
5.052583e+002, 2.202253e-001
5.071867e+002, 2.269420e-001
5.091152e+002, 2.323882e-001
5.110437e+002, 2.370298e-001
5.129721e+002, 2.407273e-001
5.149006e+002, 2.420407e-001
5.168290e+002, 2.414194e-001
5.187575e+002, 2.399667e-001
5.206860e+002, 2.380150e-001
5.226144e+002, 2.355701e-001
5.245429e+002, 2.328528e-001
5.264714e+002, 2.304909e-001
5.283998e+002, 2.277830e-001
5.303283e+002, 2.256303e-001
5.322568e+002, 2.230082e-001
5.341852e+002, 2.206348e-001
5.361137e+002, 2.182148e-001
5.380422e+002, 2.157009e-001
5.399706e+002, 2.133475e-001
5.418991e+002, 2.107055e-001
5.438276e+002, 2.079564e-001
5.457560e+002, 2.057508e-001
5.476845e+002, 2.041975e-001
5.496130e+002, 2.024980e-001
5.515414e+002, 2.014724e-001
5.534699e+002, 2.015882e-001
5.553984e+002, 2.018723e-001
5.573268e+002, 2.039485e-001
5.592553e+002, 2.076056e-001
5.611838e+002, 2.112301e-001
5.631122e+002, 2.144314e-001
5.650407e+002, 2.182258e-001
5.669692e+002, 2.217022e-001
5.688976e+002, 2.238786e-001
5.708261e+002, 2.257856e-001
5.727546e+002, 2.273811e-001
5.746830e+002, 2.278725e-001
5.766115e+002, 2.276749e-001
5.785400e+002, 2.276760e-001
5.804684e+002, 2.273490e-001
5.823969e+002, 2.257686e-001
5.843254e+002, 2.229853e-001
5.862538e+002, 2.199017e-001
5.881823e+002, 2.161620e-001
5.901108e+002, 2.122309e-001
5.920392e+002, 2.082911e-001
5.939677e+002, 2.042390e-001
5.958962e+002, 2.006523e-001
5.978246e+002, 1.973232e-001
5.997531e+002, 1.947039e-001
6.016816e+002, 1.923691e-001
6.036100e+002, 1.904478e-001
6.055385e+002, 1.887767e-001
6.074670e+002, 1.867788e-001
6.093954e+002, 1.848774e-001
6.113239e+002, 1.839433e-001
6.132524e+002, 1.836822e-001
6.151808e+002, 1.839309e-001
6.171093e+002, 1.840460e-001
6.190378e+002, 1.843296e-001
6.209662e+002, 1.852904e-001
6.228947e+002, 1.865988e-001
6.248232e+002, 1.884820e-001
6.267516e+002, 1.910611e-001
6.286801e+002, 1.937146e-001
6.306086e+002, 1.967383e-001
6.325370e+002, 2.000223e-001
6.344655e+002, 2.032298e-001
6.363940e+002, 2.066168e-001
6.383224e+002, 2.096774e-001
6.402509e+002, 2.119445e-001
6.421794e+002, 2.132648e-001
6.441078e+002, 2.138346e-001
6.460363e+002, 2.129642e-001
6.479648e+002, 2.107863e-001
6.498932e+002, 2.071060e-001
6.518217e+002, 2.024905e-001
6.537502e+002, 1.973571e-001
6.556786e+002, 1.922994e-001
6.576071e+002, 1.876582e-001
6.595356e+002, 1.833055e-001
6.614641e+002, 1.798594e-001
6.633925e+002, 1.768077e-001
6.653210e+002, 1.740381e-001
6.672495e+002, 1.717656e-001
6.691779e+002, 1.697383e-001
6.711064e+002, 1.678044e-001
6.730349e+002, 1.661260e-001
6.749633e+002, 1.645958e-001
6.768918e+002, 1.628610e-001
6.788203e+002, 1.610257e-001
6.807487e+002, 1.591278e-001
6.826772e+002, 1.573141e-001
6.846057e+002, 1.553503e-001
6.865341e+002, 1.530986e-001
6.884626e+002, 1.506611e-001
6.903911e+002, 1.482308e-001
6.923195e+002, 1.457693e-001
6.942480e+002, 1.435947e-001
6.961765e+002, 1.416265e-001
6.981049e+002, 1.392519e-001
7.000334e+002, 1.368070e-001
7.019619e+002, 1.344579e-001
7.038903e+002, 1.324637e-001
7.058188e+002, 1.303963e-001
7.077473e+002, 1.283728e-001
7.096757e+002, 1.265828e-001
7.116042e+002, 1.250484e-001
7.135327e+002, 1.235273e-001
7.154611e+002, 1.219540e-001
7.173896e+002, 1.205435e-001
7.193181e+002, 1.192292e-001
7.212465e+002, 1.182162e-001
7.231750e+002, 1.170806e-001
7.251035e+002, 1.158523e-001
7.270319e+002, 1.143861e-001
7.289604e+002, 1.129001e-001
7.308889e+002, 1.114351e-001
7.328173e+002, 1.100032e-001
7.347458e+002, 1.084375e-001
7.366743e+002, 1.069909e-001
7.386027e+002, 1.052750e-001
7.405312e+002, 1.034131e-001
7.424597e+002, 1.014245e-001
7.443881e+002, 9.935036e-002
7.463166e+002, 9.738803e-002
7.482451e+002, 9.522102e-002
7.501735e+002, 9.323426e-002
7.521020e+002, 9.146652e-002
7.540305e+002, 8.976807e-002
7.559589e+002, 8.798429e-002
7.578874e+002, 8.611551e-002
7.598159e+002, 8.437514e-002
7.617443e+002, 8.276184e-002
7.636728e+002, 8.128718e-002
7.656013e+002, 8.000877e-002
7.675297e+002, 7.886115e-002
7.694582e+002, 7.758597e-002
7.713867e+002, 7.612596e-002
7.733151e+002, 7.476399e-002
7.752436e+002, 7.390445e-002
7.771721e+002, 7.320938e-002
7.791005e+002, 7.245020e-002
7.810290e+002, 7.172959e-002
7.829575e+002, 7.098658e-002
7.848859e+002, 7.018110e-002
7.868144e+002, 6.955135e-002
7.887429e+002, 6.916405e-002
7.906713e+002, 6.896643e-002
7.925998e+002, 6.865574e-002
7.945283e+002, 6.811144e-002
7.964567e+002, 6.783596e-002
7.983852e+002, 6.756188e-002
8.003137e+002, 6.729294e-002
8.022421e+002, 6.704672e-002
8.041706e+002, 6.679121e-002
8.060991e+002, 6.670318e-002
8.080275e+002, 6.658246e-002
8.099560e+002, 6.652027e-002
8.118845e+002, 6.643918e-002
8.138129e+002, 6.636993e-002
8.157414e+002, 6.616287e-002
8.176699e+002, 6.594101e-002
8.195983e+002, 6.583872e-002
8.215268e+002, 6.574272e-002
8.234553e+002, 6.569766e-002
8.253837e+002, 6.558236e-002
8.273122e+002, 6.564390e-002
8.292407e+002, 6.559347e-002
8.311691e+002, 6.545951e-002
8.330976e+002, 6.519280e-002
8.350261e+002, 6.507079e-002
8.369545e+002, 6.506982e-002
8.388830e+002, 6.518204e-002
8.408115e+002, 6.537982e-002
8.427399e+002, 6.540802e-002
8.446684e+002, 6.548561e-002
8.465969e+002, 6.549765e-002
8.485253e+002, 6.559105e-002
8.504538e+002, 6.588422e-002
8.523823e+002, 6.610836e-002
8.543107e+002, 6.640037e-002
8.562392e+002, 6.680319e-002
8.581677e+002, 6.742553e-002
8.600961e+002, 6.797053e-002
8.620246e+002, 6.836978e-002
8.639531e+002, 6.885537e-002
8.658815e+002, 6.954527e-002
8.678100e+002, 7.023428e-002
8.697385e+002, 7.078145e-002
8.716669e+002, 7.167995e-002
8.735954e+002, 7.287223e-002
8.755239e+002, 7.400535e-002
8.774523e+002, 7.508891e-002
8.793808e+002, 7.631850e-002
8.813093e+002, 7.747971e-002
8.832377e+002, 7.883111e-002
8.851662e+002, 8.047869e-002
8.870947e+002, 8.203984e-002
8.890231e+002, 8.358737e-002
8.909516e+002, 8.527285e-002
8.928801e+002, 8.694731e-002
8.948085e+002, 8.883450e-002
8.967370e+002, 9.086864e-002
8.986655e+002, 9.305133e-002
9.005939e+002, 9.530403e-002
9.025224e+002, 9.766134e-002
9.044509e+002, 1.001350e-001
9.063793e+002, 1.029329e-001
9.083078e+002, 1.058545e-001
9.102363e+002, 1.088417e-001
9.121647e+002, 1.120799e-001
9.140932e+002, 1.154101e-001
9.160217e+002, 1.190297e-001
9.179501e+002, 1.230304e-001
9.198786e+002, 1.271773e-001
9.218071e+002, 1.314266e-001
9.237355e+002, 1.358542e-001
9.256640e+002, 1.403692e-001
9.275925e+002, 1.452109e-001
9.295209e+002, 1.503192e-001
9.314494e+002, 1.555475e-001
9.333779e+002, 1.610830e-001
9.353063e+002, 1.667976e-001
9.372348e+002, 1.725830e-001
9.391633e+002, 1.785405e-001
9.410917e+002, 1.846711e-001
9.430202e+002, 1.908756e-001
9.449487e+002, 1.971999e-001
9.468771e+002, 2.034155e-001
9.488056e+002, 2.095753e-001
9.507341e+002, 2.154188e-001
9.526625e+002, 2.209119e-001
9.545910e+002, 2.259649e-001
9.565195e+002, 2.304646e-001
9.584479e+002, 2.345419e-001
9.603764e+002, 2.384079e-001
9.623049e+002, 2.420372e-001
9.642333e+002, 2.456587e-001
9.661618e+002, 2.495450e-001
9.680903e+002, 2.538091e-001
9.700187e+002, 2.587851e-001
9.719472e+002, 2.644635e-001
9.738757e+002, 2.711250e-001
9.758041e+002, 2.791520e-001
9.777326e+002, 2.881767e-001
9.796611e+002, 2.981996e-001
9.815895e+002, 3.093848e-001
9.835180e+002, 3.213685e-001
9.854465e+002, 3.336969e-001
9.873749e+002, 3.459162e-001
9.893034e+002, 3.574536e-001
9.912319e+002, 3.670033e-001
9.931603e+002, 3.738132e-001
9.950888e+002, 3.777443e-001
9.970173e+002, 3.784600e-001
9.989457e+002, 3.769963e-001
1.000874e+003, 3.743984e-001
1.002803e+003, 3.730271e-001
1.004731e+003, 3.749202e-001
1.006660e+003, 3.802229e-001
1.008588e+003, 3.888527e-001
1.010517e+003, 3.994318e-001
1.012445e+003, 4.106655e-001
1.014373e+003, 4.219182e-001
1.016302e+003, 4.319881e-001
1.018230e+003, 4.402329e-001
1.020159e+003, 4.454962e-001
1.022087e+003, 4.468185e-001
1.024016e+003, 4.446788e-001
1.025944e+003, 4.394696e-001
1.027873e+003, 4.318925e-001
1.029801e+003, 4.229547e-001
1.031730e+003, 4.132030e-001
1.033658e+003, 4.032640e-001
1.035587e+003, 3.932741e-001
1.037515e+003, 3.834525e-001
1.039443e+003, 3.739509e-001
1.041372e+003, 3.643969e-001
1.043300e+003, 3.548833e-001
1.045229e+003, 3.454607e-001
1.047157e+003, 3.358324e-001
1.049086e+003, 3.260069e-001
1.051014e+003, 3.157744e-001
1.052943e+003, 3.050464e-001
1.054871e+003, 2.940990e-001
1.056800e+003, 2.829489e-001
1.058728e+003, 2.720377e-001
1.060657e+003, 2.613080e-001
1.062585e+003, 2.508365e-001
1.064514e+003, 2.408381e-001
1.066442e+003, 2.313549e-001
1.068370e+003, 2.222498e-001
1.070299e+003, 2.134296e-001
1.072227e+003, 2.046821e-001
1.074156e+003, 1.959618e-001
1.076084e+003, 1.875444e-001
1.078013e+003, 1.796153e-001
1.079941e+003, 1.719729e-001
1.081870e+003, 1.643332e-001
1.083798e+003, 1.567278e-001
1.085727e+003, 1.495079e-001
1.087655e+003, 1.426206e-001
1.089584e+003, 1.359837e-001
1.091512e+003, 1.294507e-001
1.093441e+003, 1.232002e-001
1.095369e+003, 1.172851e-001
1.097297e+003, 1.116582e-001
1.099226e+003, 1.062836e-001
1.101154e+003, 1.012061e-001
1.103083e+003, 9.643093e-002
1.105011e+003, 9.177729e-002
1.106940e+003, 8.715716e-002
1.108868e+003, 8.289002e-002
1.110797e+003, 7.883129e-002
1.112725e+003, 7.478450e-002
1.114654e+003, 7.101832e-002
1.116582e+003, 6.766339e-002
1.118511e+003, 6.465804e-002
1.120439e+003, 6.177419e-002
1.122368e+003, 5.922681e-002
1.124296e+003, 5.676289e-002
1.126224e+003, 5.444221e-002
1.128153e+003, 5.262421e-002
1.130081e+003, 5.107383e-002
1.132010e+003, 4.959187e-002
1.133938e+003, 4.836078e-002
1.135867e+003, 4.741403e-002
1.137795e+003, 4.672741e-002
1.139724e+003, 4.649879e-002
1.141652e+003, 4.676544e-002
1.143581e+003, 4.752828e-002
1.145509e+003, 4.875893e-002
1.147438e+003, 5.069956e-002
1.149366e+003, 5.354402e-002
1.151295e+003, 5.661156e-002
1.153223e+003, 5.868561e-002
1.155151e+003, 5.860932e-002
1.157080e+003, 5.608825e-002
1.159008e+003, 5.199451e-002
1.160937e+003, 4.759988e-002
1.162865e+003, 4.355206e-002
1.164794e+003, 4.008130e-002
1.166722e+003, 3.729387e-002
1.168651e+003, 3.509587e-002
1.170579e+003, 3.313592e-002
1.172508e+003, 3.138481e-002
1.174436e+003, 3.009267e-002
1.176365e+003, 2.902788e-002
1.178293e+003, 2.804699e-002
1.180222e+003, 2.718612e-002
1.182150e+003, 2.640867e-002
1.184078e+003, 2.570881e-002
1.186007e+003, 2.509378e-002
1.187935e+003, 2.457594e-002
1.189864e+003, 2.412342e-002
1.191792e+003, 2.365102e-002
1.193721e+003, 2.315538e-002
1.195649e+003, 2.263929e-002
1.197578e+003, 2.221122e-002
1.199506e+003, 2.183798e-002
1.201435e+003, 2.150253e-002
1.203363e+003, 2.106557e-002
1.205292e+003, 2.057784e-002
1.207220e+003, 2.034703e-002
1.209149e+003, 2.007838e-002
1.211077e+003, 1.968201e-002
1.213005e+003, 1.933815e-002
1.214934e+003, 1.898214e-002
1.216862e+003, 1.871694e-002
1.218791e+003, 1.861666e-002
1.220719e+003, 1.840834e-002
1.222648e+003, 1.817019e-002
1.224576e+003, 1.789341e-002
1.226505e+003, 1.773304e-002
1.228433e+003, 1.760517e-002
1.230362e+003, 1.737252e-002
1.232290e+003, 1.714476e-002
1.234219e+003, 1.703805e-002
1.236147e+003, 1.692630e-002
1.238076e+003, 1.680219e-002
1.240004e+003, 1.668358e-002
1.241932e+003, 1.654465e-002
1.243861e+003, 1.641236e-002
1.245789e+003, 1.639989e-002
1.247718e+003, 1.655397e-002
1.249646e+003, 1.652977e-002
1.251575e+003, 1.632953e-002
1.253503e+003, 1.625493e-002
1.255432e+003, 1.629147e-002
1.257360e+003, 1.629125e-002
1.259289e+003, 1.623413e-002
1.261217e+003, 1.626734e-002
1.263146e+003, 1.623078e-002
1.265074e+003, 1.616085e-002
1.267003e+003, 1.616305e-002
1.268931e+003, 1.623943e-002
1.270859e+003, 1.632187e-002
1.272788e+003, 1.639234e-002
1.274716e+003, 1.642274e-002
1.276645e+003, 1.652267e-002
1.278573e+003, 1.655068e-002
1.280502e+003, 1.655034e-002
1.282430e+003, 1.659934e-002
1.284359e+003, 1.658021e-002
1.286287e+003, 1.662838e-002
1.288216e+003, 1.665040e-002
1.290144e+003, 1.669458e-002
1.292073e+003, 1.677634e-002
1.294001e+003, 1.679821e-002
1.295930e+003, 1.694474e-002
1.297858e+003, 1.700103e-002
1.299786e+003, 1.696554e-002
1.301715e+003, 1.692544e-002
1.303643e+003, 1.702663e-002
1.305572e+003, 1.716751e-002
1.307500e+003, 1.720976e-002
1.309429e+003, 1.717384e-002
1.311357e+003, 1.732544e-002
1.313286e+003, 1.746402e-002
1.315214e+003, 1.752154e-002
1.317143e+003, 1.746549e-002
1.319071e+003, 1.747021e-002
1.321000e+003, 1.763967e-002
1.322928e+003, 1.773917e-002
1.324857e+003, 1.782407e-002
1.326785e+003, 1.791895e-002
1.328714e+003, 1.793321e-002
1.330642e+003, 1.796271e-002
1.332570e+003, 1.795365e-002
1.334499e+003, 1.796687e-002
1.336427e+003, 1.798833e-002
1.338356e+003, 1.809229e-002
1.340284e+003, 1.809786e-002
1.342213e+003, 1.819517e-002
1.344141e+003, 1.831253e-002
1.346070e+003, 1.834720e-002
1.347998e+003, 1.835734e-002
1.349927e+003, 1.841602e-002
1.351855e+003, 1.847784e-002
1.353784e+003, 1.852589e-002
1.355712e+003, 1.860904e-002
1.357641e+003, 1.872728e-002
1.359569e+003, 1.882579e-002
1.361497e+003, 1.899486e-002
1.363426e+003, 1.911598e-002
1.365354e+003, 1.917299e-002
1.367283e+003, 1.919991e-002
1.369211e+003, 1.931806e-002
1.371140e+003, 1.946037e-002
1.373068e+003, 1.953304e-002
1.374997e+003, 1.958960e-002
1.376925e+003, 1.979429e-002
1.378854e+003, 1.996943e-002
1.380782e+003, 1.998504e-002
1.382711e+003, 1.992437e-002
1.384639e+003, 2.011975e-002
1.386568e+003, 2.022315e-002
1.388496e+003, 2.026192e-002
1.390424e+003, 2.043494e-002
1.392353e+003, 2.056158e-002
1.394281e+003, 2.059181e-002
1.396210e+003, 2.074774e-002
1.398138e+003, 2.087231e-002
1.400067e+003, 2.100004e-002
1.401995e+003, 2.117683e-002
1.403924e+003, 2.133845e-002
1.405852e+003, 2.141102e-002
1.407781e+003, 2.155261e-002
1.409709e+003, 2.172119e-002
1.411638e+003, 2.189047e-002
1.413566e+003, 2.196211e-002
1.415495e+003, 2.206075e-002
1.417423e+003, 2.229196e-002
1.419351e+003, 2.248935e-002
1.421280e+003, 2.260382e-002
1.423208e+003, 2.279680e-002
1.425137e+003, 2.299721e-002
1.427065e+003, 2.313216e-002
1.428994e+003, 2.321945e-002
1.430922e+003, 2.330338e-002
1.432851e+003, 2.346768e-002
1.434779e+003, 2.362451e-002
1.436708e+003, 2.377236e-002
1.438636e+003, 2.381362e-002
1.440565e+003, 2.391724e-002
1.442493e+003, 2.414726e-002
1.444422e+003, 2.428539e-002
1.446350e+003, 2.442651e-002
1.448278e+003, 2.458037e-002
1.450207e+003, 2.475355e-002
1.452135e+003, 2.488291e-002
1.454064e+003, 2.510541e-002
1.455992e+003, 2.531488e-002
1.457921e+003, 2.541331e-002
1.459849e+003, 2.540791e-002
1.461778e+003, 2.547672e-002
1.463706e+003, 2.560241e-002
1.465635e+003, 2.577266e-002
1.467563e+003, 2.583306e-002
1.469492e+003, 2.587385e-002
1.471420e+003, 2.602077e-002
1.473349e+003, 2.610943e-002
1.475277e+003, 2.614652e-002
1.477205e+003, 2.622877e-002
1.479134e+003, 2.630937e-002
1.481062e+003, 2.641464e-002
1.482991e+003, 2.657259e-002
1.484919e+003, 2.681883e-002
1.486848e+003, 2.709775e-002
1.488776e+003, 2.736005e-002
1.490705e+003, 2.749196e-002
1.492633e+003, 2.761216e-002
1.494562e+003, 2.782625e-002
1.496490e+003, 2.809044e-002
1.498419e+003, 2.845585e-002
1.500347e+003, 2.875339e-002
1.502276e+003, 2.891626e-002
1.504204e+003, 2.921268e-002
1.506132e+003, 2.962091e-002
1.508061e+003, 2.986465e-002
1.509989e+003, 3.003545e-002
1.511918e+003, 3.024622e-002
1.513846e+003, 3.046183e-002
1.515775e+003, 3.079456e-002
1.517703e+003, 3.114304e-002
1.519632e+003, 3.153205e-002
1.521560e+003, 3.195170e-002
1.523489e+003, 3.213834e-002
1.525417e+003, 3.235256e-002
1.527346e+003, 3.283589e-002
1.529274e+003, 3.332622e-002
1.531203e+003, 3.371472e-002
1.533131e+003, 3.409950e-002
1.535059e+003, 3.458222e-002
1.536988e+003, 3.525083e-002
1.538916e+003, 3.590121e-002
1.540845e+003, 3.632363e-002
1.542773e+003, 3.666539e-002
1.544702e+003, 3.707685e-002
1.546630e+003, 3.759322e-002
1.548559e+003, 3.809747e-002
1.550487e+003, 3.863087e-002
1.552416e+003, 3.923801e-002
1.554344e+003, 3.995518e-002
1.556273e+003, 4.067517e-002
1.558201e+003, 4.157166e-002
1.560130e+003, 4.223958e-002
1.562058e+003, 4.283037e-002
1.563986e+003, 4.365586e-002
1.565915e+003, 4.441633e-002
1.567843e+003, 4.519561e-002
1.569772e+003, 4.613375e-002
1.571700e+003, 4.711611e-002
1.573629e+003, 4.812066e-002
1.575557e+003, 4.914631e-002
1.577486e+003, 5.007076e-002
1.579414e+003, 5.085581e-002
1.581343e+003, 5.190567e-002
1.583271e+003, 5.297368e-002
1.585200e+003, 5.412108e-002
1.587128e+003, 5.524221e-002
1.589057e+003, 5.644637e-002
1.590985e+003, 5.795601e-002
1.592913e+003, 5.944376e-002
1.594842e+003, 6.080383e-002
1.596770e+003, 6.214002e-002
1.598699e+003, 6.353206e-002
1.600627e+003, 6.506168e-002
1.602556e+003, 6.654239e-002
1.604484e+003, 6.810534e-002
1.606413e+003, 6.944323e-002
1.608341e+003, 7.058026e-002
1.610270e+003, 7.184774e-002
1.612198e+003, 7.297724e-002
1.614127e+003, 7.394372e-002
1.616055e+003, 7.491624e-002
1.617984e+003, 7.546262e-002
1.619912e+003, 7.568402e-002
1.621840e+003, 7.588188e-002
1.623769e+003, 7.601716e-002
1.625697e+003, 7.596729e-002
1.627626e+003, 7.576846e-002
1.629554e+003, 7.539126e-002
1.631483e+003, 7.503605e-002
1.633411e+003, 7.478476e-002
1.635340e+003, 7.463665e-002
1.637268e+003, 7.418920e-002
1.639197e+003, 7.360810e-002
1.641125e+003, 7.315206e-002
1.643054e+003, 7.275406e-002
1.644982e+003, 7.240304e-002
1.646911e+003, 7.191833e-002
1.648839e+003, 7.100549e-002
1.650767e+003, 7.008827e-002
1.652696e+003, 6.920484e-002
1.654624e+003, 6.785419e-002
1.656553e+003, 6.635396e-002
1.658481e+003, 6.499314e-002
1.660410e+003, 6.360018e-002
1.662338e+003, 6.207395e-002
1.664267e+003, 6.036608e-002
1.666195e+003, 5.853765e-002
1.668124e+003, 5.684805e-002
1.670052e+003, 5.507889e-002
1.671981e+003, 5.313267e-002
1.673909e+003, 5.141264e-002
1.675838e+003, 4.955947e-002
1.677766e+003, 4.752574e-002
1.679694e+003, 4.575624e-002
1.681623e+003, 4.402130e-002
1.683551e+003, 4.249744e-002
1.685480e+003, 4.080529e-002
1.687408e+003, 3.903450e-002
1.689337e+003, 3.755668e-002
1.691265e+003, 3.619468e-002
1.693194e+003, 3.477445e-002
1.695122e+003, 3.368132e-002
1.697051e+003, 3.258977e-002
1.698979e+003, 3.154903e-002
1.700908e+003, 3.062917e-002
1.702836e+003, 2.946862e-002
1.704765e+003, 2.857324e-002
1.706693e+003, 2.781260e-002
1.708621e+003, 2.717037e-002
1.710550e+003, 2.649318e-002
1.712478e+003, 2.589579e-002
1.714407e+003, 2.539202e-002
1.716335e+003, 2.489720e-002
1.718264e+003, 2.432180e-002
1.720192e+003, 2.387822e-002
1.722121e+003, 2.351831e-002
1.724049e+003, 2.297736e-002
1.725978e+003, 2.262191e-002
1.727906e+003, 2.224145e-002
1.729835e+003, 2.183434e-002
1.731763e+003, 2.167232e-002
1.733692e+003, 2.147519e-002
1.735620e+003, 2.092614e-002
1.737548e+003, 2.040921e-002
1.739477e+003, 2.022428e-002
1.741405e+003, 2.000422e-002
1.743334e+003, 1.977120e-002
1.745262e+003, 1.960635e-002
1.747191e+003, 1.948895e-002
1.749119e+003, 1.926669e-002
1.751048e+003, 1.909829e-002
1.752976e+003, 1.894953e-002
1.754905e+003, 1.887387e-002
1.756833e+003, 1.884216e-002
1.758762e+003, 1.880562e-002
1.760690e+003, 1.882654e-002
1.762619e+003, 1.893178e-002
1.764547e+003, 1.889191e-002
1.766475e+003, 1.864930e-002
1.768404e+003, 1.838412e-002
1.770332e+003, 1.835400e-002
1.772261e+003, 1.850998e-002
1.774189e+003, 1.850555e-002
1.776118e+003, 1.837822e-002
1.778046e+003, 1.821955e-002
1.779975e+003, 1.806608e-002
1.781903e+003, 1.804933e-002
1.783832e+003, 1.810577e-002
1.785760e+003, 1.820154e-002
1.787689e+003, 1.815958e-002
1.789617e+003, 1.822943e-002
1.791546e+003, 1.830298e-002
1.793474e+003, 1.826282e-002
1.795402e+003, 1.814599e-002
1.797331e+003, 1.825131e-002
1.799259e+003, 1.831917e-002
1.801188e+003, 1.828332e-002
1.803116e+003, 1.811431e-002
1.805045e+003, 1.787868e-002
1.806973e+003, 1.780266e-002
1.808902e+003, 1.792222e-002
1.810830e+003, 1.790996e-002
1.812759e+003, 1.780984e-002
1.814687e+003, 1.762400e-002
1.816616e+003, 1.758223e-002
1.818544e+003, 1.799489e-002
1.820473e+003, 1.823134e-002
1.822401e+003, 1.805542e-002
1.824329e+003, 1.798963e-002
1.826258e+003, 1.785125e-002
1.828186e+003, 1.790392e-002
1.830115e+003, 1.821164e-002
1.832043e+003, 1.839998e-002
1.833972e+003, 1.849005e-002
1.835900e+003, 1.834889e-002
1.837829e+003, 1.828025e-002
1.839757e+003, 1.838514e-002
1.841686e+003, 1.802266e-002
1.843614e+003, 1.779267e-002
1.845543e+003, 1.797224e-002
1.847471e+003, 1.832019e-002
1.849400e+003, 1.843989e-002
1.851328e+003, 1.844538e-002
1.853256e+003, 1.824818e-002
1.855185e+003, 1.826106e-002
1.857113e+003, 1.838203e-002
1.859042e+003, 1.829886e-002
1.860970e+003, 1.804655e-002
1.862899e+003, 1.802019e-002
1.864827e+003, 1.837062e-002
1.866756e+003, 1.848391e-002
1.868684e+003, 1.838570e-002
1.870613e+003, 1.818763e-002
1.872541e+003, 1.801023e-002
1.874470e+003, 1.831979e-002
1.876398e+003, 1.862296e-002
1.878327e+003, 1.861428e-002
1.880255e+003, 1.863076e-002
1.882183e+003, 1.863228e-002
1.884112e+003, 1.823032e-002
1.886040e+003, 1.810763e-002
1.887969e+003, 1.826306e-002
1.889897e+003, 1.826905e-002
1.891826e+003, 1.838080e-002
1.893754e+003, 1.877534e-002
1.895683e+003, 1.862060e-002
1.897611e+003, 1.841610e-002
1.899540e+003, 1.850403e-002
1.901468e+003, 1.837448e-002
1.903397e+003, 1.807168e-002
1.905325e+003, 1.856356e-002
1.907254e+003, 1.849200e-002
1.909182e+003, 1.817273e-002
1.911110e+003, 1.807057e-002
1.913039e+003, 1.818699e-002
1.914967e+003, 1.850678e-002
1.916896e+003, 1.870535e-002
1.918824e+003, 1.820146e-002
1.920753e+003, 1.804428e-002
1.922681e+003, 1.807530e-002
1.924610e+003, 1.793719e-002
1.926538e+003, 1.807891e-002
1.928467e+003, 1.834681e-002
1.930395e+003, 1.813178e-002
1.932324e+003, 1.814778e-002
1.934252e+003, 1.830568e-002
1.936181e+003, 1.802479e-002
1.938109e+003, 1.738570e-002
1.940037e+003, 1.663478e-002
1.941966e+003, 1.647629e-002
1.943894e+003, 1.705672e-002
1.945823e+003, 1.723189e-002
1.947751e+003, 1.732140e-002
1.949680e+003, 1.773287e-002
1.951608e+003, 1.771526e-002
1.953537e+003, 1.731470e-002
1.955465e+003, 1.685926e-002
1.957394e+003, 1.668165e-002
1.959322e+003, 1.743979e-002
1.961251e+003, 1.800508e-002
1.963179e+003, 1.784999e-002
1.965108e+003, 1.778661e-002
1.967036e+003, 1.695507e-002
1.968964e+003, 1.609612e-002
1.970893e+003, 1.687026e-002
1.972821e+003, 1.744661e-002
1.974750e+003, 1.842141e-002
1.976678e+003, 1.983134e-002
1.978607e+003, 2.051321e-002
1.980535e+003, 1.949480e-002
1.982464e+003, 1.919629e-002
1.984392e+003, 2.001029e-002
1.986321e+003, 1.945158e-002
1.988249e+003, 1.810978e-002
1.990178e+003, 1.758815e-002
1.992106e+003, 1.797240e-002
1.994035e+003, 1.788802e-002
1.995963e+003, 1.805875e-002
1.997891e+003, 1.905757e-002
1.999820e+003, 1.886582e-002
2.001748e+003, 1.737913e-002
2.003677e+003, 1.657974e-002
2.005605e+003, 1.693252e-002
2.007534e+003, 1.859787e-002
2.009462e+003, 1.904685e-002
2.011391e+003, 1.843109e-002
2.013319e+003, 1.820941e-002
2.015248e+003, 1.808687e-002
2.017176e+003, 1.838711e-002
2.019105e+003, 1.832164e-002
2.021033e+003, 1.721370e-002
2.022962e+003, 1.688256e-002
2.024890e+003, 1.748295e-002
2.026818e+003, 1.750098e-002
2.028747e+003, 1.806586e-002
2.030675e+003, 1.856218e-002
2.032604e+003, 1.900649e-002
2.034532e+003, 1.808876e-002
2.036461e+003, 1.712531e-002
2.038389e+003, 1.748736e-002
2.040318e+003, 1.820999e-002
2.042246e+003, 1.845977e-002
2.044175e+003, 1.907982e-002
2.046103e+003, 1.860061e-002
2.048031e+003, 1.865940e-002
2.049960e+003, 1.999135e-002
2.051888e+003, 1.924223e-002
2.053817e+003, 1.870124e-002
2.055745e+003, 1.918285e-002
2.057674e+003, 1.922584e-002
2.059602e+003, 1.908280e-002
2.061531e+003, 1.898206e-002
2.063459e+003, 1.865070e-002
2.065388e+003, 1.833911e-002
2.067316e+003, 1.905153e-002
2.069245e+003, 1.931531e-002
2.071173e+003, 1.928240e-002
2.073102e+003, 1.907036e-002
2.075030e+003, 1.929038e-002
2.076958e+003, 1.918480e-002
2.078887e+003, 1.946273e-002
2.080815e+003, 1.947830e-002
2.082744e+003, 1.919962e-002
2.084672e+003, 1.967762e-002
2.086601e+003, 1.920565e-002
2.088529e+003, 1.858940e-002
2.090458e+003, 1.889217e-002
2.092386e+003, 1.877413e-002
2.094315e+003, 1.855623e-002
2.096243e+003, 1.916121e-002
2.098172e+003, 2.033636e-002
2.100100e+003, 2.033870e-002
2.102029e+003, 1.987792e-002
2.103957e+003, 1.972020e-002
2.105885e+003, 1.958303e-002
2.107814e+003, 1.939820e-002
2.109742e+003, 1.932845e-002
2.111671e+003, 2.009547e-002
2.113599e+003, 2.014703e-002
2.115528e+003, 1.940672e-002
2.117456e+003, 1.920436e-002
2.119385e+003, 1.920396e-002
2.121313e+003, 1.863309e-002
2.123242e+003, 1.880857e-002
2.125170e+003, 1.894634e-002
2.127099e+003, 1.817994e-002
2.129027e+003, 1.761706e-002
2.130956e+003, 1.762531e-002
2.132884e+003, 1.718110e-002
2.134813e+003, 1.801791e-002
2.136741e+003, 1.895666e-002
2.138669e+003, 1.877136e-002
2.140598e+003, 1.856166e-002
2.142526e+003, 1.889533e-002
2.144455e+003, 1.921785e-002
2.146383e+003, 1.901471e-002
2.148312e+003, 1.931236e-002
2.150240e+003, 1.944963e-002
2.152169e+003, 1.923268e-002
2.154097e+003, 1.916430e-002
2.156026e+003, 1.884526e-002
2.157954e+003, 2.024121e-002
2.159883e+003, 2.456312e-002
2.161811e+003, 2.490084e-002
2.163740e+003, 2.397423e-002
2.165668e+003, 2.491999e-002
2.167596e+003, 2.521504e-002
2.169525e+003, 2.447002e-002
2.171453e+003, 2.319130e-002
2.173382e+003, 2.312458e-002
2.175310e+003, 2.376349e-002
2.177239e+003, 2.367534e-002
2.179167e+003, 2.362024e-002
2.181096e+003, 2.464540e-002
2.183024e+003, 2.553501e-002
2.184953e+003, 2.600662e-002
2.186881e+003, 2.631178e-002
2.188810e+003, 2.634887e-002
2.190738e+003, 2.606776e-002
2.192667e+003, 2.535161e-002
2.194595e+003, 2.589940e-002
2.196523e+003, 2.620282e-002
2.198452e+003, 2.585369e-002
2.200380e+003, 2.615859e-002
2.202309e+003, 2.668771e-002
2.204237e+003, 2.655866e-002
2.206166e+003, 2.612683e-002
2.208094e+003, 2.602987e-002
2.210023e+003, 2.737714e-002
2.211951e+003, 2.768520e-002
2.213880e+003, 2.703363e-002
2.215808e+003, 2.735271e-002
2.217737e+003, 2.801608e-002
2.219665e+003, 2.815263e-002
2.221594e+003, 2.800095e-002
2.223522e+003, 2.726199e-002
2.225450e+003, 2.771825e-002
2.227379e+003, 2.831356e-002
2.229307e+003, 2.824828e-002
2.231236e+003, 2.799590e-002
2.233164e+003, 2.809772e-002
2.235093e+003, 2.808922e-002
2.237021e+003, 2.819127e-002
2.238950e+003, 2.871134e-002
2.240878e+003, 2.896957e-002
2.242807e+003, 2.873094e-002
2.244735e+003, 2.880951e-002
2.246664e+003, 2.901801e-002
2.248592e+003, 2.922105e-002
2.250521e+003, 2.946106e-002
2.252449e+003, 2.934002e-002
2.254377e+003, 2.978605e-002
2.256306e+003, 2.999552e-002
2.258234e+003, 2.959104e-002
2.260163e+003, 2.951229e-002
2.262091e+003, 2.941440e-002
2.264020e+003, 2.949841e-002
2.265948e+003, 2.959007e-002
2.267877e+003, 2.957903e-002
2.269805e+003, 3.008923e-002
2.271734e+003, 3.099094e-002
2.273662e+003, 3.148289e-002
2.275591e+003, 3.146596e-002
2.277519e+003, 3.141353e-002
2.279448e+003, 3.163538e-002
2.281376e+003, 3.179851e-002
2.283304e+003, 3.172548e-002
2.285233e+003, 3.157117e-002
2.287161e+003, 3.144292e-002
2.289090e+003, 3.147032e-002
2.291018e+003, 3.159834e-002
2.292947e+003, 3.182610e-002
2.294875e+003, 3.210638e-002
2.296804e+003, 3.211202e-002
2.298732e+003, 3.199312e-002
2.300661e+003, 3.212320e-002
2.302589e+003, 3.242133e-002
2.304518e+003, 3.237749e-002
2.306446e+003, 3.208174e-002
2.308375e+003, 3.225349e-002
2.310303e+003, 3.258750e-002
2.312231e+003, 3.269546e-002
2.314160e+003, 3.257629e-002
2.316088e+003, 3.260408e-002
2.318017e+003, 3.294274e-002
2.319945e+003, 3.354403e-002
2.321874e+003, 3.408886e-002
2.323802e+003, 3.398598e-002
2.325731e+003, 3.280002e-002
2.327659e+003, 3.192432e-002
2.329588e+003, 3.185197e-002
2.331516e+003, 3.191213e-002
2.333445e+003, 3.166737e-002
2.335373e+003, 3.150073e-002
2.337302e+003, 3.175556e-002
2.339230e+003, 3.173053e-002
2.341158e+003, 3.178623e-002
2.343087e+003, 3.187297e-002
2.345015e+003, 3.164251e-002
2.346944e+003, 3.139470e-002
2.348872e+003, 3.125016e-002
2.350801e+003, 3.119439e-002
2.352729e+003, 3.133250e-002
2.354658e+003, 3.149635e-002
2.356586e+003, 3.162804e-002
2.358515e+003, 3.171731e-002
2.360443e+003, 3.180950e-002
2.362372e+003, 3.186551e-002
2.364300e+003, 3.164039e-002
2.366229e+003, 3.146925e-002
2.368157e+003, 3.149518e-002
2.370085e+003, 3.139337e-002
2.372014e+003, 3.135972e-002
2.373942e+003, 3.153960e-002
2.375871e+003, 3.174623e-002
2.377799e+003, 3.160661e-002
2.379728e+003, 3.163019e-002
2.381656e+003, 3.179040e-002
2.383585e+003, 3.176975e-002
2.385513e+003, 3.202293e-002
2.387442e+003, 3.211777e-002
2.389370e+003, 3.218317e-002
2.391299e+003, 3.243268e-002
2.393227e+003, 3.236585e-002
2.395156e+003, 3.225128e-002
2.397084e+003, 3.221933e-002
2.399012e+003, 3.234417e-002
2.400941e+003, 3.253659e-002
2.402869e+003, 3.268380e-002
2.404798e+003, 3.241688e-002
2.406726e+003, 3.256019e-002
2.408655e+003, 3.302062e-002
2.410583e+003, 3.309340e-002
2.412512e+003, 3.322362e-002
2.414440e+003, 3.361891e-002
2.416369e+003, 3.356721e-002
2.418297e+003, 3.359319e-002
2.420226e+003, 3.355239e-002
2.422154e+003, 3.376460e-002
2.424083e+003, 3.377916e-002
2.426011e+003, 3.382730e-002
2.427939e+003, 3.385754e-002
2.429868e+003, 3.424289e-002
2.431796e+003, 3.477677e-002
2.433725e+003, 3.482615e-002
2.435653e+003, 3.479704e-002
2.437582e+003, 3.467648e-002
2.439510e+003, 3.453197e-002
2.441439e+003, 3.481369e-002
2.443367e+003, 3.509731e-002
2.445296e+003, 3.528237e-002
2.447224e+003, 3.570727e-002
2.449153e+003, 3.570605e-002
2.451081e+003, 3.554816e-002
2.453010e+003, 3.566455e-002
2.454938e+003, 3.562732e-002
2.456866e+003, 3.568276e-002
2.458795e+003, 3.578541e-002
2.460723e+003, 3.580927e-002
2.462652e+003, 3.583568e-002
2.464580e+003, 3.573532e-002
2.466509e+003, 3.573085e-002
2.468437e+003, 3.590864e-002
2.470366e+003, 3.621571e-002
2.472294e+003, 3.657988e-002
2.474223e+003, 3.647273e-002
2.476151e+003, 3.640892e-002
2.478080e+003, 3.645231e-002
2.480008e+003, 3.669050e-002
2.481937e+003, 3.692137e-002
2.483865e+003, 3.708218e-002
2.485793e+003, 3.699829e-002
2.487722e+003, 3.722048e-002
2.489650e+003, 3.724595e-002
2.491579e+003, 3.705463e-002
2.493507e+003, 3.713334e-002
2.495436e+003, 3.771837e-002
2.497364e+003, 3.806004e-002
2.499293e+003, 3.787856e-002
2.501221e+003, 3.793844e-002
2.503150e+003, 3.784671e-002
2.505078e+003, 3.775805e-002
2.507007e+003, 3.810924e-002
2.508935e+003, 3.853119e-002
2.510864e+003, 3.882493e-002
2.512792e+003, 3.886605e-002
2.514720e+003, 3.883505e-002
2.516649e+003, 3.923928e-002
2.518577e+003, 3.966620e-002
2.520506e+003, 3.974499e-002
2.522434e+003, 3.941945e-002
2.524363e+003, 3.939628e-002
2.526291e+003, 3.970190e-002
2.528220e+003, 4.014972e-002
2.530148e+003, 4.070488e-002
2.532077e+003, 4.062293e-002
2.534005e+003, 4.050710e-002
2.535934e+003, 4.068789e-002
2.537862e+003, 4.123252e-002
2.539791e+003, 4.140304e-002
2.541719e+003, 4.075141e-002
2.543647e+003, 4.079257e-002
2.545576e+003, 4.147078e-002
2.547504e+003, 4.148496e-002
2.549433e+003, 4.169853e-002
2.551361e+003, 4.199328e-002
2.553290e+003, 4.212449e-002
2.555218e+003, 4.218315e-002
2.557147e+003, 4.212365e-002
2.559075e+003, 4.217790e-002
2.561004e+003, 4.247290e-002
2.562932e+003, 4.237715e-002
2.564861e+003, 4.229713e-002
2.566789e+003, 4.266831e-002
2.568718e+003, 4.293041e-002
2.570646e+003, 4.297460e-002
2.572574e+003, 4.300748e-002
2.574503e+003, 4.331483e-002
2.576431e+003, 4.349461e-002
2.578360e+003, 4.374756e-002
2.580288e+003, 4.433862e-002
2.582217e+003, 4.451046e-002
2.584145e+003, 4.436823e-002
2.586074e+003, 4.455424e-002
2.588002e+003, 4.481707e-002
2.589931e+003, 4.475003e-002
2.591859e+003, 4.484789e-002
2.593788e+003, 4.492259e-002
2.595716e+003, 4.507515e-002
2.597645e+003, 4.537822e-002
2.599573e+003, 4.540485e-002
2.601501e+003, 4.556148e-002
2.603430e+003, 4.602626e-002
2.605358e+003, 4.636197e-002
2.607287e+003, 4.669711e-002
2.609215e+003, 4.661529e-002
2.611144e+003, 4.663282e-002
2.613072e+003, 4.713252e-002
2.615001e+003, 4.774385e-002
2.616929e+003, 4.788435e-002
2.618858e+003, 4.785857e-002
2.620786e+003, 4.808865e-002
2.622715e+003, 4.833502e-002
2.624643e+003, 4.879717e-002
2.626572e+003, 4.884577e-002
2.628500e+003, 4.870170e-002
2.630428e+003, 4.910330e-002
2.632357e+003, 4.968775e-002
2.634285e+003, 4.983082e-002
2.636214e+003, 4.984881e-002
2.638142e+003, 5.003732e-002
2.640071e+003, 5.019757e-002
2.641999e+003, 5.049685e-002
2.643928e+003, 5.051103e-002
2.645856e+003, 5.065241e-002
2.647785e+003, 5.101414e-002
2.649713e+003, 5.141085e-002
2.651642e+003, 5.151600e-002
2.653570e+003, 5.156121e-002
2.655499e+003, 5.184071e-002
2.657427e+003, 5.202897e-002
2.659355e+003, 5.217461e-002
2.661284e+003, 5.225332e-002
2.663212e+003, 5.213808e-002
2.665141e+003, 5.222425e-002
2.667069e+003, 5.261222e-002
2.668998e+003, 5.290127e-002
2.670926e+003, 5.310385e-002
2.672855e+003, 5.342530e-002
2.674783e+003, 5.365448e-002
2.676712e+003, 5.370954e-002
2.678640e+003, 5.374053e-002
2.680569e+003, 5.425707e-002
2.682497e+003, 5.466102e-002
2.684426e+003, 5.509908e-002
2.686354e+003, 5.565493e-002
2.688282e+003, 5.585159e-002
2.690211e+003, 5.605206e-002
2.692139e+003, 5.639680e-002
2.694068e+003, 5.669514e-002
2.695996e+003, 5.687818e-002
2.697925e+003, 5.721264e-002
2.699853e+003, 5.742256e-002
2.701782e+003, 5.746350e-002
2.703710e+003, 5.783622e-002
2.705639e+003, 5.812970e-002
2.707567e+003, 5.860154e-002
2.709496e+003, 5.908187e-002
2.711424e+003, 5.954505e-002
2.713353e+003, 6.004766e-002
2.715281e+003, 6.038624e-002
2.717209e+003, 6.060685e-002
2.719138e+003, 6.084356e-002
2.721066e+003, 6.154114e-002
2.722995e+003, 6.205742e-002
2.724923e+003, 6.212967e-002
2.726852e+003, 6.232659e-002
2.728780e+003, 6.283431e-002
2.730709e+003, 6.343231e-002
2.732637e+003, 6.397285e-002
2.734566e+003, 6.445118e-002
2.736494e+003, 6.506175e-002
2.738423e+003, 6.539134e-002
2.740351e+003, 6.569876e-002
2.742280e+003, 6.633019e-002
2.744208e+003, 6.682493e-002
2.746136e+003, 6.716460e-002
2.748065e+003, 6.737701e-002
2.749993e+003, 6.786430e-002
2.751922e+003, 6.846871e-002
2.753850e+003, 6.891768e-002
2.755779e+003, 6.937082e-002
2.757707e+003, 6.975678e-002
2.759636e+003, 7.025663e-002
2.761564e+003, 7.070875e-002
2.763493e+003, 7.106851e-002
2.765421e+003, 7.170177e-002
2.767350e+003, 7.229152e-002
2.769278e+003, 7.276812e-002
2.771207e+003, 7.332676e-002
2.773135e+003, 7.389049e-002
2.775063e+003, 7.420914e-002
2.776992e+003, 7.480961e-002
2.778920e+003, 7.534613e-002
2.780849e+003, 7.603413e-002
2.782777e+003, 7.673828e-002
2.784706e+003, 7.718510e-002
2.786634e+003, 7.756831e-002
2.788563e+003, 7.800815e-002
2.790491e+003, 7.859769e-002
2.792420e+003, 7.915819e-002
2.794348e+003, 7.960144e-002
2.796277e+003, 8.016700e-002
2.798205e+003, 8.094214e-002
2.800134e+003, 8.172447e-002
2.802062e+003, 8.229812e-002
2.803990e+003, 8.281760e-002
2.805919e+003, 8.336080e-002
2.807847e+003, 8.403272e-002
2.809776e+003, 8.461560e-002
2.811704e+003, 8.512151e-002
2.813633e+003, 8.584540e-002
2.815561e+003, 8.655736e-002
2.817490e+003, 8.699820e-002
2.819418e+003, 8.743526e-002
2.821347e+003, 8.804290e-002
2.823275e+003, 8.895393e-002
2.825204e+003, 8.976904e-002
2.827132e+003, 9.067236e-002
2.829061e+003, 9.136627e-002
2.830989e+003, 9.201838e-002
2.832917e+003, 9.238946e-002
2.834846e+003, 9.295774e-002
2.836774e+003, 9.401425e-002
2.838703e+003, 9.493842e-002
2.840631e+003, 9.543005e-002
2.842560e+003, 9.615475e-002
2.844488e+003, 9.713413e-002
2.846417e+003, 9.798534e-002
2.848345e+003, 9.831945e-002
2.850274e+003, 9.883572e-002
2.852202e+003, 9.970169e-002
2.854131e+003, 1.005427e-001
2.856059e+003, 1.010067e-001
2.857988e+003, 1.015420e-001
2.859916e+003, 1.023482e-001
2.861844e+003, 1.029916e-001
2.863773e+003, 1.033283e-001
2.865701e+003, 1.035552e-001
2.867630e+003, 1.039648e-001
2.869558e+003, 1.044784e-001
2.871487e+003, 1.051626e-001
2.873415e+003, 1.059912e-001
2.875344e+003, 1.064805e-001
2.877272e+003, 1.070815e-001
2.879201e+003, 1.078285e-001
2.881129e+003, 1.083509e-001
2.883058e+003, 1.085371e-001
2.884986e+003, 1.090211e-001
2.886915e+003, 1.100141e-001
2.888843e+003, 1.109572e-001
2.890771e+003, 1.112808e-001
2.892700e+003, 1.115765e-001
2.894628e+003, 1.123569e-001
2.896557e+003, 1.132441e-001
2.898485e+003, 1.137717e-001
2.900414e+003, 1.142676e-001
2.902342e+003, 1.150546e-001
2.904271e+003, 1.158989e-001
2.906199e+003, 1.161387e-001
2.908128e+003, 1.165914e-001
2.910056e+003, 1.172381e-001
2.911985e+003, 1.178400e-001
2.913913e+003, 1.186575e-001
2.915842e+003, 1.191252e-001
2.917770e+003, 1.195556e-001
2.919698e+003, 1.202522e-001
2.921627e+003, 1.209255e-001
2.923555e+003, 1.214717e-001
2.925484e+003, 1.215972e-001
2.927412e+003, 1.215504e-001
2.929341e+003, 1.215792e-001
2.931269e+003, 1.214301e-001
2.933198e+003, 1.212785e-001
2.935126e+003, 1.214438e-001
2.937055e+003, 1.215559e-001
2.938983e+003, 1.218199e-001
2.940912e+003, 1.221309e-001
2.942840e+003, 1.225563e-001
2.944769e+003, 1.229797e-001
2.946697e+003, 1.235008e-001
2.948625e+003, 1.237348e-001
2.950554e+003, 1.239527e-001
2.952482e+003, 1.246232e-001
2.954411e+003, 1.249948e-001
2.956339e+003, 1.252075e-001
2.958268e+003, 1.255915e-001
2.960196e+003, 1.260068e-001
2.962125e+003, 1.264055e-001
2.964053e+003, 1.263445e-001
2.965982e+003, 1.260844e-001
2.967910e+003, 1.262861e-001
2.969839e+003, 1.268747e-001
2.971767e+003, 1.267802e-001
2.973696e+003, 1.266590e-001
2.975624e+003, 1.269846e-001
2.977552e+003, 1.274236e-001
2.979481e+003, 1.278918e-001
2.981409e+003, 1.282038e-001
2.983338e+003, 1.283468e-001
2.985266e+003, 1.289024e-001
2.987195e+003, 1.294464e-001
2.989123e+003, 1.295734e-001
2.991052e+003, 1.298557e-001
2.992980e+003, 1.306388e-001
2.994909e+003, 1.309503e-001
2.996837e+003, 1.312079e-001
2.998766e+003, 1.313097e-001
3.000694e+003, 1.316070e-001
3.002623e+003, 1.323774e-001
3.004551e+003, 1.327850e-001
3.006479e+003, 1.333698e-001
3.008408e+003, 1.338243e-001
3.010336e+003, 1.338747e-001
3.012265e+003, 1.342868e-001
3.014193e+003, 1.346819e-001
3.016122e+003, 1.349406e-001
3.018050e+003, 1.352521e-001
3.019979e+003, 1.358235e-001
3.021907e+003, 1.362041e-001
3.023836e+003, 1.367829e-001
3.025764e+003, 1.373366e-001
3.027693e+003, 1.373361e-001
3.029621e+003, 1.374529e-001
3.031550e+003, 1.381152e-001
3.033478e+003, 1.385884e-001
3.035406e+003, 1.385244e-001
3.037335e+003, 1.389340e-001
3.039263e+003, 1.397757e-001
3.041192e+003, 1.404825e-001
3.043120e+003, 1.409441e-001
3.045049e+003, 1.410749e-001
3.046977e+003, 1.411989e-001
3.048906e+003, 1.416172e-001
3.050834e+003, 1.424831e-001
3.052763e+003, 1.428091e-001
3.054691e+003, 1.432057e-001
3.056620e+003, 1.435859e-001
3.058548e+003, 1.441482e-001
3.060477e+003, 1.448033e-001
3.062405e+003, 1.448562e-001
3.064333e+003, 1.452111e-001
3.066262e+003, 1.457380e-001
3.068190e+003, 1.457763e-001
3.070119e+003, 1.461067e-001
3.072047e+003, 1.468371e-001
3.073976e+003, 1.472852e-001
3.075904e+003, 1.475059e-001
3.077833e+003, 1.476160e-001
3.079761e+003, 1.480480e-001
3.081690e+003, 1.487730e-001
3.083618e+003, 1.490995e-001
3.085547e+003, 1.490812e-001
3.087475e+003, 1.496122e-001
3.089404e+003, 1.500367e-001
3.091332e+003, 1.499849e-001
3.093260e+003, 1.501662e-001
3.095189e+003, 1.511704e-001
3.097117e+003, 1.516799e-001
3.099046e+003, 1.518248e-001
3.100974e+003, 1.522118e-001
3.102903e+003, 1.525996e-001
3.104831e+003, 1.526221e-001
3.106760e+003, 1.525550e-001
3.108688e+003, 1.531402e-001
3.110617e+003, 1.540182e-001
3.112545e+003, 1.543429e-001
3.114474e+003, 1.542104e-001
3.116402e+003, 1.541736e-001
3.118331e+003, 1.543496e-001
3.120259e+003, 1.546287e-001
3.122188e+003, 1.549728e-001
3.124116e+003, 1.552192e-001
3.126044e+003, 1.550584e-001
3.127973e+003, 1.554100e-001
3.129901e+003, 1.556894e-001
3.131830e+003, 1.554326e-001
3.133758e+003, 1.553074e-001
3.135687e+003, 1.554065e-001
3.137615e+003, 1.553122e-001
3.139544e+003, 1.555372e-001
3.141472e+003, 1.556273e-001
3.143401e+003, 1.553888e-001
3.145329e+003, 1.552143e-001
3.147258e+003, 1.554753e-001
3.149186e+003, 1.553594e-001
3.151115e+003, 1.550778e-001
3.153043e+003, 1.549152e-001
3.154971e+003, 1.551363e-001
3.156900e+003, 1.552333e-001
3.158828e+003, 1.552406e-001
3.160757e+003, 1.548727e-001
3.162685e+003, 1.544104e-001
3.164614e+003, 1.542427e-001
3.166542e+003, 1.546663e-001
3.168471e+003, 1.547219e-001
3.170399e+003, 1.546951e-001
3.172328e+003, 1.546260e-001
3.174256e+003, 1.542654e-001
3.176185e+003, 1.538700e-001
3.178113e+003, 1.537712e-001
3.180042e+003, 1.539642e-001
3.181970e+003, 1.542169e-001
3.183898e+003, 1.544381e-001
3.185827e+003, 1.544774e-001
3.187755e+003, 1.541741e-001
3.189684e+003, 1.540117e-001
3.191612e+003, 1.540221e-001
3.193541e+003, 1.541099e-001
3.195469e+003, 1.541801e-001
3.197398e+003, 1.547674e-001
3.199326e+003, 1.548749e-001
3.201255e+003, 1.545364e-001
3.203183e+003, 1.551468e-001
3.205112e+003, 1.556668e-001
3.207040e+003, 1.558102e-001
3.208969e+003, 1.560972e-001
3.210897e+003, 1.560161e-001
3.212825e+003, 1.558461e-001
3.214754e+003, 1.563280e-001
3.216682e+003, 1.571275e-001
3.218611e+003, 1.578720e-001
3.220539e+003, 1.577467e-001
3.222468e+003, 1.578987e-001
3.224396e+003, 1.591013e-001
3.226325e+003, 1.597685e-001
3.228253e+003, 1.594824e-001
3.230182e+003, 1.599826e-001
3.232110e+003, 1.609459e-001
3.234039e+003, 1.616264e-001
3.235967e+003, 1.625586e-001
3.237896e+003, 1.628614e-001
3.239824e+003, 1.629446e-001
3.241752e+003, 1.633943e-001
3.243681e+003, 1.638674e-001
3.245609e+003, 1.643164e-001
3.247538e+003, 1.650101e-001
3.249466e+003, 1.655850e-001
3.251395e+003, 1.667297e-001
3.253323e+003, 1.669760e-001
3.255252e+003, 1.665520e-001
3.257180e+003, 1.666483e-001
3.259109e+003, 1.668461e-001
3.261037e+003, 1.668398e-001
3.262966e+003, 1.670254e-001
3.264894e+003, 1.670697e-001
3.266823e+003, 1.667553e-001
3.268751e+003, 1.659887e-001
3.270679e+003, 1.653852e-001
3.272608e+003, 1.649109e-001
3.274536e+003, 1.642075e-001
3.276465e+003, 1.633292e-001
3.278393e+003, 1.622379e-001
3.280322e+003, 1.609025e-001
3.282250e+003, 1.603406e-001
3.284179e+003, 1.596616e-001
3.286107e+003, 1.582535e-001
3.288036e+003, 1.574060e-001
3.289964e+003, 1.564738e-001
3.291893e+003, 1.556214e-001
3.293821e+003, 1.548049e-001
3.295750e+003, 1.533057e-001
3.297678e+003, 1.519118e-001
3.299606e+003, 1.508061e-001
3.301535e+003, 1.498739e-001
3.303463e+003, 1.486644e-001
3.305392e+003, 1.470785e-001
3.307320e+003, 1.460341e-001
3.309249e+003, 1.452992e-001
3.311177e+003, 1.440911e-001
3.313106e+003, 1.431779e-001
3.315034e+003, 1.424499e-001
3.316963e+003, 1.414182e-001
3.318891e+003, 1.404326e-001
3.320820e+003, 1.393692e-001
3.322748e+003, 1.382565e-001
3.324677e+003, 1.376254e-001
3.326605e+003, 1.369711e-001
3.328533e+003, 1.363797e-001
3.330462e+003, 1.360765e-001
3.332390e+003, 1.356183e-001
3.334319e+003, 1.347288e-001
3.336247e+003, 1.343512e-001
3.338176e+003, 1.341109e-001
3.340104e+003, 1.330513e-001
3.342033e+003, 1.322152e-001
3.343961e+003, 1.318342e-001
3.345890e+003, 1.311138e-001
3.347818e+003, 1.308905e-001
3.349747e+003, 1.302897e-001
3.351675e+003, 1.297408e-001
3.353604e+003, 1.300160e-001
3.355532e+003, 1.301413e-001
3.357460e+003, 1.297145e-001
3.359389e+003, 1.293485e-001
3.361317e+003, 1.287351e-001
3.363246e+003, 1.287686e-001
3.365174e+003, 1.291213e-001
3.367103e+003, 1.290908e-001
3.369031e+003, 1.286014e-001
3.370960e+003, 1.288174e-001
3.372888e+003, 1.295141e-001
3.374817e+003, 1.295879e-001
3.376745e+003, 1.292817e-001
3.378674e+003, 1.296138e-001
3.380602e+003, 1.300956e-001
3.382531e+003, 1.309504e-001
3.384459e+003, 1.321886e-001
3.386387e+003, 1.329706e-001
3.388316e+003, 1.347565e-001
3.390244e+003, 1.368232e-001
3.392173e+003, 1.383100e-001
3.394101e+003, 1.401740e-001
3.396030e+003, 1.422988e-001
3.397958e+003, 1.445039e-001
3.399887e+003, 1.468402e-001
3.401815e+003, 1.493112e-001
3.403744e+003, 1.524443e-001
3.405672e+003, 1.554483e-001
3.407601e+003, 1.576049e-001
3.409529e+003, 1.594693e-001
3.411458e+003, 1.616663e-001
3.413386e+003, 1.628265e-001
3.415314e+003, 1.627583e-001
3.417243e+003, 1.624362e-001
3.419171e+003, 1.611835e-001
3.421100e+003, 1.589312e-001
3.423028e+003, 1.562589e-001
3.424957e+003, 1.532980e-001
3.426885e+003, 1.495206e-001
3.428814e+003, 1.453752e-001
3.430742e+003, 1.411302e-001
3.432671e+003, 1.374692e-001
3.434599e+003, 1.345210e-001
3.436528e+003, 1.308298e-001
3.438456e+003, 1.264971e-001
3.440385e+003, 1.234465e-001
3.442313e+003, 1.207376e-001
3.444241e+003, 1.179937e-001
3.446170e+003, 1.155242e-001
3.448098e+003, 1.135277e-001
3.450027e+003, 1.117038e-001
3.451955e+003, 1.094398e-001
3.453884e+003, 1.072768e-001
3.455812e+003, 1.058164e-001
3.457741e+003, 1.045145e-001
3.459669e+003, 1.028935e-001
3.461598e+003, 1.013597e-001
3.463526e+003, 9.994950e-002
3.465455e+003, 9.817719e-002
3.467383e+003, 9.646402e-002
3.469312e+003, 9.511992e-002
3.471240e+003, 9.378304e-002
3.473168e+003, 9.266064e-002
3.475097e+003, 9.175573e-002
3.477025e+003, 9.091389e-002
3.478954e+003, 8.966947e-002
3.480882e+003, 8.855398e-002
3.482811e+003, 8.776383e-002
3.484739e+003, 8.702117e-002
3.486668e+003, 8.661074e-002
3.488596e+003, 8.596282e-002
3.490525e+003, 8.480399e-002
3.492453e+003, 8.349805e-002
3.494382e+003, 8.245500e-002
3.496310e+003, 8.145542e-002
3.498239e+003, 8.045039e-002
3.500167e+003, 7.878925e-002
3.502095e+003, 7.709053e-002
3.504024e+003, 7.626016e-002
3.505952e+003, 7.563818e-002
3.507881e+003, 7.503896e-002
3.509809e+003, 7.468209e-002
3.511738e+003, 7.408618e-002
3.513666e+003, 7.357378e-002
3.515595e+003, 7.342965e-002
3.517523e+003, 7.375815e-002
3.519452e+003, 7.442157e-002
3.521380e+003, 7.510971e-002
3.523309e+003, 7.559129e-002
3.525237e+003, 7.604058e-002
3.527166e+003, 7.681626e-002
3.529094e+003, 7.797334e-002
3.531022e+003, 7.988989e-002
3.532951e+003, 8.191412e-002
3.534879e+003, 8.372056e-002
3.536808e+003, 8.641221e-002
3.538736e+003, 8.852001e-002
3.540665e+003, 8.988143e-002
3.542593e+003, 9.046389e-002
3.544522e+003, 9.093340e-002
3.546450e+003, 9.110647e-002
3.548379e+003, 9.048992e-002
3.550307e+003, 8.794673e-002
3.552236e+003, 8.411761e-002
3.554164e+003, 8.012494e-002
3.556093e+003, 7.675521e-002
3.558021e+003, 7.326236e-002
3.559949e+003, 7.034568e-002
3.561878e+003, 6.661583e-002
3.563806e+003, 6.331071e-002
3.565735e+003, 6.127589e-002
3.567663e+003, 5.944721e-002
3.569592e+003, 5.808035e-002
3.571520e+003, 5.675376e-002
3.573449e+003, 5.538186e-002
3.575377e+003, 5.489444e-002
3.577306e+003, 5.491564e-002
3.579234e+003, 5.416463e-002
3.581163e+003, 5.302909e-002
3.583091e+003, 5.273678e-002
3.585020e+003, 5.269040e-002
3.586948e+003, 5.205717e-002
3.588876e+003, 5.137080e-002
3.590805e+003, 5.098218e-002
3.592733e+003, 5.118909e-002
3.594662e+003, 5.064038e-002
3.596590e+003, 4.882155e-002
3.598519e+003, 4.748403e-002
3.600447e+003, 4.690806e-002
3.602376e+003, 4.611090e-002
3.604304e+003, 4.512717e-002
3.606233e+003, 4.499792e-002
3.608161e+003, 4.499904e-002
3.610090e+003, 4.352467e-002
3.612018e+003, 4.139737e-002
3.613947e+003, 3.914132e-002
3.615875e+003, 3.672512e-002
3.617803e+003, 3.400088e-002
3.619732e+003, 3.096853e-002
3.621660e+003, 2.889883e-002
3.623589e+003, 2.700496e-002
3.625517e+003, 2.497613e-002
3.627446e+003, 2.365513e-002
3.629374e+003, 2.263002e-002
3.631303e+003, 2.138530e-002
3.633231e+003, 2.022561e-002
3.635160e+003, 1.879797e-002
3.637088e+003, 1.771619e-002
3.639017e+003, 1.696364e-002
3.640945e+003, 1.658815e-002
3.642874e+003, 1.628076e-002
3.644802e+003, 1.553546e-002
3.646730e+003, 1.543846e-002
3.648659e+003, 1.499020e-002
3.650587e+003, 1.438779e-002
3.652516e+003, 1.350507e-002
3.654444e+003, 1.254745e-002
3.656373e+003, 1.258297e-002
3.658301e+003, 1.214391e-002
3.660230e+003, 1.094858e-002
3.662158e+003, 1.081855e-002
3.664087e+003, 1.072288e-002
3.666015e+003, 1.030309e-002
3.667944e+003, 1.056596e-002
3.669872e+003, 1.057098e-002
3.671801e+003, 9.934136e-003
3.673729e+003, 9.902454e-003
3.675657e+003, 1.010588e-002
3.677586e+003, 9.694150e-003
3.679514e+003, 9.341561e-003
3.681443e+003, 9.057849e-003
3.683371e+003, 9.111398e-003
3.685300e+003, 8.669290e-003
3.687228e+003, 8.746500e-003
3.689157e+003, 8.993278e-003
3.691085e+003, 8.339232e-003
3.693014e+003, 7.935481e-003
3.694942e+003, 8.517064e-003
3.696871e+003, 8.876029e-003
3.698799e+003, 8.495434e-003
3.700728e+003, 8.266121e-003
3.702656e+003, 7.992198e-003
3.704584e+003, 7.216397e-003
3.706513e+003, 6.969198e-003
3.708441e+003, 7.700671e-003
3.710370e+003, 8.213268e-003
3.712298e+003, 8.007817e-003
3.714227e+003, 7.589877e-003
3.716155e+003, 7.299357e-003
3.718084e+003, 7.782336e-003
3.720012e+003, 8.065390e-003
3.721941e+003, 8.005812e-003
3.723869e+003, 8.017865e-003
3.725798e+003, 7.850018e-003
3.727726e+003, 7.662791e-003
3.729655e+003, 7.872075e-003
3.731583e+003, 7.663785e-003
3.733511e+003, 7.968622e-003
3.735440e+003, 8.448135e-003
3.737368e+003, 8.105509e-003
3.739297e+003, 7.432724e-003
3.741225e+003, 6.911778e-003
3.743154e+003, 7.799163e-003
3.745082e+003, 8.164578e-003
3.747011e+003, 8.460421e-003
3.748939e+003, 9.078741e-003
3.750868e+003, 8.720302e-003
3.752796e+003, 8.127495e-003
3.754725e+003, 7.652657e-003
3.756653e+003, 8.043570e-003
3.758582e+003, 7.873026e-003
3.760510e+003, 8.401882e-003
3.762438e+003, 8.747211e-003
3.764367e+003, 8.704825e-003
3.766295e+003, 8.771528e-003
3.768224e+003, 8.458500e-003
3.770152e+003, 8.043006e-003
3.772081e+003, 8.184059e-003
3.774009e+003, 8.507625e-003
3.775938e+003, 8.400835e-003
3.777866e+003, 8.427426e-003
3.779795e+003, 8.345394e-003
3.781723e+003, 8.417694e-003
3.783652e+003, 8.645815e-003
3.785580e+003, 8.515106e-003
3.787509e+003, 7.917356e-003
3.789437e+003, 7.247215e-003
3.791365e+003, 7.516182e-003
3.793294e+003, 7.863872e-003
3.795222e+003, 7.913013e-003
3.797151e+003, 8.253619e-003
3.799079e+003, 8.111989e-003
3.801008e+003, 8.106640e-003
3.802936e+003, 8.249705e-003
3.804865e+003, 8.003713e-003
3.806793e+003, 7.600231e-003
3.808722e+003, 7.978541e-003
3.810650e+003, 8.293726e-003
3.812579e+003, 8.538570e-003
3.814507e+003, 9.573424e-003
3.816436e+003, 9.348879e-003
3.818364e+003, 8.877243e-003
3.820292e+003, 8.768115e-003
3.822221e+003, 8.309475e-003
3.824149e+003, 8.724816e-003
3.826078e+003, 8.903736e-003
3.828006e+003, 8.615755e-003
3.829935e+003, 8.884976e-003
3.831863e+003, 8.790446e-003
3.833792e+003, 9.188397e-003
3.835720e+003, 9.296200e-003
3.837649e+003, 8.300643e-003
3.839577e+003, 7.952913e-003
3.841506e+003, 9.200266e-003
3.843434e+003, 9.797662e-003
3.845363e+003, 9.350521e-003
3.847291e+003, 9.158370e-003
3.849219e+003, 8.875136e-003
3.851148e+003, 8.830246e-003
3.853076e+003, 9.414289e-003
3.855005e+003, 9.348650e-003
3.856933e+003, 8.553587e-003
3.858862e+003, 8.572170e-003
3.860790e+003, 9.069422e-003
3.862719e+003, 8.566692e-003
3.864647e+003, 8.977644e-003
3.866576e+003, 9.247661e-003
3.868504e+003, 8.701285e-003
3.870433e+003, 8.114348e-003
3.872361e+003, 8.332854e-003
3.874290e+003, 9.197769e-003
3.876218e+003, 9.333098e-003
3.878146e+003, 9.415057e-003
3.880075e+003, 9.560850e-003
3.882003e+003, 9.819986e-003
3.883932e+003, 1.019141e-002
3.885860e+003, 9.903423e-003
3.887789e+003, 9.612731e-003
3.889717e+003, 9.268533e-003
3.891646e+003, 8.806610e-003
3.893574e+003, 8.608611e-003
3.895503e+003, 9.087293e-003
3.897431e+003, 1.022815e-002
3.899360e+003, 1.076017e-002
3.901288e+003, 1.015412e-002
3.903217e+003, 9.434006e-003
3.905145e+003, 9.767164e-003
3.907073e+003, 9.739500e-003
3.909002e+003, 9.504816e-003
3.910930e+003, 9.679247e-003
3.912859e+003, 9.754616e-003
3.914787e+003, 9.622645e-003
3.916716e+003, 1.017557e-002
3.918644e+003, 1.033335e-002
3.920573e+003, 9.581938e-003
3.922501e+003, 9.397591e-003
3.924430e+003, 9.175439e-003
3.926358e+003, 8.686701e-003
3.928287e+003, 9.262581e-003
3.930215e+003, 9.882700e-003
3.932144e+003, 1.002010e-002
3.934072e+003, 1.011464e-002
3.936000e+003, 9.697539e-003
3.937929e+003, 9.723096e-003
3.939857e+003, 9.627222e-003
3.941786e+003, 9.557799e-003
3.943714e+003, 9.915800e-003
3.945643e+003, 1.013769e-002
3.947571e+003, 1.018522e-002
3.949500e+003, 1.004743e-002
3.951428e+003, 1.011973e-002
3.953357e+003, 1.049240e-002
3.955285e+003, 1.043364e-002
3.957214e+003, 9.794756e-003
3.959142e+003, 9.758577e-003
3.961071e+003, 1.070598e-002
3.962999e+003, 1.130238e-002
3.964927e+003, 1.080261e-002
3.966856e+003, 1.064194e-002
3.968784e+003, 1.076907e-002
3.970713e+003, 1.122933e-002
3.972641e+003, 1.121685e-002
3.974570e+003, 1.041411e-002
3.976498e+003, 1.031637e-002
3.978427e+003, 1.000892e-002
3.980355e+003, 9.808638e-003
3.982284e+003, 1.000896e-002
3.984212e+003, 1.060779e-002
3.986141e+003, 1.143460e-002
3.988069e+003, 1.160118e-002
3.989998e+003, 1.123171e-002
3.991926e+003, 1.050622e-002
3.993854e+003, 1.028066e-002
3.995783e+003, 1.027359e-002
3.997711e+003, 1.030194e-002
3.999640e+003, 1.057738e-002
4.001568e+003, 0.000000e+000
##END=



