##NAMES=Paramontroseite
##RRUFFID=R050391
##IDEAL CHEMISTRY=V^4+^O_2_
##LOCALITY=J.J. mine, Buell Canyon District, Montrose County, Colorado, USA
##OWNER=RRUFF
##SOURCE=University of Arizona Mineral Museum
##DESCRIPTION=Black massive, radioactive
##STATUS=The identification of this mineral has been confirmed by X-ray diffraction and chemical analysis
##URL=rruff.info/R050391
##MEASURED CHEMISTRY=gray phase: (V^4+^_0.82_Fe^3+^_0.09_U^6+^_0.04_V^5+^_0.03_Al_0.02_)_Î£=1_O_2_; lightest phase is uranophane
399.1926, 0.2857136
401.1211, 0.2794903
403.0496, 0.2808339
404.9780, 0.2906316
406.9065, 0.2962639
408.8350, 0.3078257
410.7634, 0.3116201
412.6919, 0.3098780
414.6204, 0.3091431
416.5488, 0.3107573
418.4773, 0.3063512
420.4058, 0.3038450
422.3342, 0.3110163
424.2627, 0.3112900
426.1912, 0.3124114
428.1196, 0.3186756
430.0481, 0.3181665
431.9766, 0.3155254
433.9050, 0.3183589
435.8335, 0.3184065
437.7620, 0.3170158
439.6904, 0.3193631
441.6189, 0.3221829
443.5474, 0.3209994
445.4758, 0.3202180
447.4043, 0.3189811
449.3328, 0.3196574
451.2612, 0.3251054
453.1897, 0.3277077
455.1182, 0.3277695
457.0466, 0.3305273
458.9751, 0.3298922
460.9036, 0.3320796
462.8320, 0.3347641
464.7605, 0.3346197
466.6890, 0.3333612
468.6174, 0.3323449
470.5459, 0.3332764
472.4744, 0.3339594
474.4028, 0.3349122
476.3313, 0.3368317
478.2598, 0.3383177
480.1882, 0.3386112
482.1167, 0.3379202
484.0452, 0.3364443
485.9736, 0.3371327
487.9021, 0.3382393
489.8306, 0.3401039
491.7590, 0.3409621
493.6875, 0.3419783
495.6160, 0.3419325
497.5444, 0.3394557
499.4729, 0.3381045
501.4014, 0.3390962
503.3298, 0.3395361
505.2583, 0.3382590
507.1868, 0.3366527
509.1152, 0.3352387
511.0437, 0.3338098
512.9722, 0.3344178
514.9006, 0.3324690
516.8291, 0.3282444
518.7576, 0.3259753
520.6860, 0.3243320
522.6145, 0.3243400
524.5430, 0.3241228
526.4714, 0.3211822
528.3999, 0.3188771
530.3284, 0.3183942
532.2568, 0.3178045
534.1853, 0.3152058
536.1138, 0.3128395
538.0422, 0.3100137
539.9707, 0.3082051
541.8992, 0.3048261
543.8276, 0.3024730
545.7561, 0.3018351
547.6846, 0.3007611
549.6130, 0.2996154
551.5415, 0.2986627
553.4700, 0.2970437
555.3984, 0.2954187
557.3269, 0.2942988
559.2554, 0.2932498
561.1838, 0.2921932
563.1123, 0.2899962
565.0408, 0.2876669
566.9692, 0.2868729
568.8977, 0.2874851
570.8262, 0.2868912
572.7546, 0.2859910
574.6831, 0.2852427
576.6116, 0.2835903
578.5400, 0.2824900
580.4685, 0.2825446
582.3970, 0.2813166
584.3254, 0.2804763
586.2539, 0.2799273
588.1824, 0.2789274
590.1108, 0.2778320
592.0393, 0.2782938
593.9678, 0.2779729
595.8962, 0.2758866
597.8247, 0.2741230
599.7532, 0.2733930
601.6816, 0.2729890
603.6101, 0.2720143
605.5386, 0.2712058
607.4670, 0.2693577
609.3955, 0.2678609
611.3240, 0.2667022
613.2524, 0.2646947
615.1809, 0.2634627
617.1094, 0.2619603
619.0378, 0.2596400
620.9663, 0.2576167
622.8948, 0.2568938
624.8232, 0.2566211
626.7517, 0.2555198
628.6802, 0.2541678
630.6086, 0.2530396
632.5371, 0.2520445
634.4656, 0.2506763
636.3940, 0.2493124
638.3225, 0.2484423
640.2510, 0.2473411
642.1794, 0.2460264
644.1079, 0.2449504
646.0364, 0.2444750
647.9648, 0.2436475
649.8933, 0.2421109
651.8218, 0.2410117
653.7502, 0.2405235
655.6787, 0.2402236
657.6072, 0.2404934
659.5356, 0.2398031
661.4641, 0.2393036
663.3926, 0.2391718
665.3210, 0.2388016
667.2495, 0.2383947
669.1780, 0.2381051
671.1064, 0.2379644
673.0349, 0.2380834
674.9634, 0.2381587
676.8918, 0.2376629
678.8203, 0.2376086
680.7488, 0.2376461
682.6772, 0.2375529
684.6057, 0.2372855
686.5342, 0.2365937
688.4626, 0.2365208
690.3911, 0.2370486
692.3196, 0.2375965
694.2480, 0.2369407
696.1765, 0.2361223
698.1050, 0.2360913
700.0334, 0.2359621
701.9619, 0.2357090
703.8904, 0.2355079
705.8188, 0.2348641
707.7473, 0.2342351
709.6758, 0.2340582
711.6042, 0.2340943
713.5327, 0.2343931
715.4612, 0.2346141
717.3896, 0.2343440
719.3181, 0.2334052
721.2466, 0.2333846
723.1750, 0.2336238
725.1035, 0.2337831
727.0320, 0.2338179
728.9604, 0.2341448
730.8889, 0.2345587
732.8174, 0.2346851
734.7458, 0.2341435
736.6743, 0.2330055
738.6028, 0.2323016
740.5313, 0.2318309
742.4597, 0.2307380
744.3882, 0.2301022
746.3167, 0.2292263
748.2451, 0.2285005
750.1736, 0.2279301
752.1021, 0.2272374
754.0305, 0.2267026
755.9590, 0.2256269
757.8875, 0.2239688
759.8159, 0.2224323
761.7444, 0.2213680
763.6729, 0.2200076
765.6013, 0.2179960
767.5298, 0.2162488
769.4583, 0.2145409
771.3867, 0.2135555
773.3152, 0.2127618
775.2437, 0.2106923
777.1721, 0.2088272
779.1006, 0.2073407
781.0291, 0.2054839
782.9575, 0.2039268
784.8860, 0.2026171
786.8145, 0.2011174
788.7429, 0.1992212
790.6714, 0.1975845
792.5999, 0.1965135
794.5283, 0.1952308
796.4568, 0.1938823
798.3853, 0.1925594
800.3137, 0.1910251
802.2422, 0.1896450
804.1707, 0.1887954
806.0991, 0.1877839
808.0276, 0.1864670
809.9561, 0.1853277
811.8845, 0.1848135
813.8130, 0.1840084
815.7415, 0.1830842
817.6699, 0.1823483
819.5984, 0.1817692
821.5269, 0.1809647
823.4553, 0.1800095
825.3838, 0.1792845
827.3123, 0.1789824
829.2407, 0.1787450
831.1692, 0.1781277
833.0977, 0.1777077
835.0261, 0.1771602
836.9546, 0.1763860
838.8831, 0.1758583
840.8115, 0.1756007
842.7400, 0.1754294
844.6685, 0.1749900
846.5969, 0.1746194
848.5254, 0.1744957
850.4539, 0.1745899
852.3823, 0.1742562
854.3108, 0.1732213
856.2393, 0.1725508
858.1677, 0.1719644
860.0962, 0.1716440
862.0247, 0.1717867
863.9531, 0.1713196
865.8816, 0.1705679
867.8101, 0.1701290
869.7385, 0.1696156
871.6670, 0.1688982
873.5955, 0.1682522
875.5239, 0.1672999
877.4524, 0.1666321
879.3809, 0.1656319
881.3093, 0.1644885
883.2378, 0.1637619
885.1663, 0.1628602
887.0947, 0.1617284
889.0232, 0.1606352
890.9517, 0.1601839
892.8801, 0.1592583
894.8085, 0.1580054
896.7370, 0.1575869
898.6655, 0.1572264
900.5939, 0.1564477
902.5224, 0.1552014
904.4509, 0.1539258
906.3793, 0.1527117
908.3078, 0.1512589
910.2363, 0.1501291
912.1647, 0.1493740
914.0932, 0.1479655
916.0217, 0.1466707
917.9501, 0.1458359
919.8786, 0.1441801
921.8071, 0.1422564
923.7355, 0.1406718
925.6640, 0.1390509
927.5925, 0.1372734
929.5209, 0.1352447
931.4494, 0.1333172
933.3779, 0.1312420
935.3063, 0.1290526
937.2348, 0.1272801
939.1633, 0.1255488
941.0917, 0.1238697
943.0202, 0.1224686
944.9487, 0.1209596
946.8771, 0.1194665
948.8056, 0.1184712
950.7341, 0.1178718
952.6625, 0.1175647
954.5910, 0.1176350
956.5195, 0.1179433
958.4479, 0.1189849
960.3764, 0.1207167
962.3049, 0.1227269
964.2333, 0.1249155
966.1618, 0.1272749
968.0903, 0.1300156
970.0187, 0.1328182
971.9472, 0.1358151
973.8757, 0.1388804
975.8041, 0.1415747
977.7326, 0.1440275
979.6611, 0.1465860
981.5895, 0.1495385
983.5180, 0.1527939
985.4465, 0.1561221
987.3749, 0.1593468
989.3034, 0.1629103
991.2319, 0.1660559
993.1603, 0.1685138
995.0888, 0.1703507
997.0173, 0.1719520
998.9457, 0.1729807
1000.874, 0.1739358
1002.803, 0.1743808
1004.731, 0.1735900
1006.660, 0.1720361
1008.588, 0.1694301
1010.517, 0.1653379
1012.445, 0.1595734
1014.373, 0.1516475
1016.302, 0.1414450
1018.230, 0.1297341
1020.159, 0.1170737
1022.087, 0.1038176
1024.016, 9.1917738E-02
1025.944, 8.3109111E-02
1027.873, 7.6946393E-02
1029.801, 7.2853804E-02
1031.730, 7.0634477E-02
1033.658, 7.0147611E-02
1035.587, 7.0565127E-02
1037.515, 7.1526289E-02
1039.444, 7.2719403E-02
1041.372, 7.4053049E-02
1043.301, 7.5419493E-02
1045.229, 7.6783307E-02
1047.157, 7.7958271E-02
1049.086, 7.9182357E-02
1051.014, 8.0634497E-02
1052.943, 8.2052760E-02
1054.871, 8.2862340E-02
1056.800, 8.3739907E-02
1058.728, 8.5277162E-02
1060.657, 8.6493917E-02
1062.585, 8.7320551E-02
1064.514, 8.8690288E-02
1066.442, 8.9782327E-02
1068.371, 9.0510182E-02
1070.299, 9.1463692E-02
1072.228, 9.2496209E-02
1074.156, 9.3502149E-02
1076.084, 9.4409317E-02
1078.013, 9.5706277E-02
1079.941, 9.6900091E-02
1081.870, 9.7678162E-02
1083.798, 9.8440848E-02
1085.727, 9.9290021E-02
1087.655, 0.1001292
1089.584, 0.1013000
1091.512, 0.1022059
1093.441, 0.1027376
1095.369, 0.1035806
1097.298, 0.1046600
1099.226, 0.1055055
1101.155, 0.1059781
1103.083, 0.1065228
1105.011, 0.1072944
1106.940, 0.1080146
1108.868, 0.1085008
1110.797, 0.1089675
1112.725, 0.1093540
1114.654, 0.1094647
1116.582, 0.1097664
1118.511, 0.1100815
1120.439, 0.1102216
1122.368, 0.1101677
1124.296, 0.1101012
1126.225, 0.1103381
1128.153, 0.1104122
1130.082, 0.1102475
1132.010, 0.1103942
1133.938, 0.1105037
1135.867, 0.1107047
1137.795, 0.1106812
1139.724, 0.1105064
1141.652, 0.1105551
1143.581, 0.1112508
1145.509, 0.1119985
1147.438, 0.1122267
1149.366, 0.1121757
1151.295, 0.1125745
1153.223, 0.1130266
1155.152, 0.1130543
1157.080, 0.1131057
1159.009, 0.1134753
1160.937, 0.1138981
1162.865, 0.1143206
1164.794, 0.1146745
1166.722, 0.1150085
1168.651, 0.1154289
1170.579, 0.1160773
1172.508, 0.1161673
1174.436, 0.1163724
1176.365, 0.1169471
1178.293, 0.1173845
1180.222, 0.1178836
1182.150, 0.1184571
1184.079, 0.1187255
1186.007, 0.1191639
1187.936, 0.1196922
1189.864, 0.1201353
1191.792, 0.1205411
1193.721, 0.1205652
1195.649, 0.1208944
1197.578, 0.1214775
1199.506, 0.1216847
1201.435, 0.1217473
1203.363, 0.1219051
1205.292, 0.1221686
1207.220, 0.1224840
1209.149, 0.1225973
1211.077, 0.1224121
1213.006, 0.1225429
1214.934, 0.1230173
1216.863, 0.1234044
1218.791, 0.1236334
1220.719, 0.1236402
1222.648, 0.1239255
1224.576, 0.1244603
1226.505, 0.1246941
1228.433, 0.1247559
1230.362, 0.1248445
1232.290, 0.1249045
1234.219, 0.1252960
1236.147, 0.1256861
1238.076, 0.1258733
1240.004, 0.1259833
1241.933, 0.1265183
1243.861, 0.1269105
1245.790, 0.1270489
1247.718, 0.1269920
1249.646, 0.1270498
1251.575, 0.1273822
1253.503, 0.1278178
1255.432, 0.1284699
1257.360, 0.1288306
1259.289, 0.1287358
1261.217, 0.1285634
1263.146, 0.1287198
1265.074, 0.1296801
1267.003, 0.1306156
1268.931, 0.1310248
1270.860, 0.1314431
1272.788, 0.1319732
1274.717, 0.1324398
1276.645, 0.1329224
1278.573, 0.1333609
1280.502, 0.1336076
1282.430, 0.1335496
1284.359, 0.1336311
1286.287, 0.1336592
1288.216, 0.1334995
1290.144, 0.1334210
1292.073, 0.1331895
1294.001, 0.1332775
1295.930, 0.1335644
1297.858, 0.1334342
1299.787, 0.1329356
1301.715, 0.1328076
1303.644, 0.1332118
1305.572, 0.1333346
1307.500, 0.1334766
1309.429, 0.1335819
1311.357, 0.1336948
1313.286, 0.1339602
1315.214, 0.1344034
1317.143, 0.1346049
1319.071, 0.1344815
1321.000, 0.1346992
1322.928, 0.1352180
1324.857, 0.1354638
1326.785, 0.1360272
1328.714, 0.1364405
1330.642, 0.1367288
1332.571, 0.1372605
1334.499, 0.1378217
1336.427, 0.1380690
1338.356, 0.1382806
1340.284, 0.1388515
1342.213, 0.1394718
1344.141, 0.1400713
1346.070, 0.1404715
1347.998, 0.1407574
1349.927, 0.1411181
1351.855, 0.1415617
1353.784, 0.1421470
1355.712, 0.1427595
1357.641, 0.1429215
1359.569, 0.1432069
1361.498, 0.1439640
1363.426, 0.1446267
1365.354, 0.1451223
1367.283, 0.1455923
1369.211, 0.1460881
1371.140, 0.1465690
1373.068, 0.1468275
1374.997, 0.1473204
1376.925, 0.1479804
1378.854, 0.1486036
1380.782, 0.1490046
1382.711, 0.1490948
1384.639, 0.1495033
1386.568, 0.1500135
1388.496, 0.1502912
1390.424, 0.1506666
1392.353, 0.1510434
1394.281, 0.1513573
1396.210, 0.1517685
1398.138, 0.1524465
1400.067, 0.1535769
1401.995, 0.1542842
1403.924, 0.1545675
1405.852, 0.1550164
1407.781, 0.1554940
1409.709, 0.1558238
1411.638, 0.1561413
1413.566, 0.1564198
1415.495, 0.1568065
1417.423, 0.1569317
1419.351, 0.1569520
1421.280, 0.1571171
1423.208, 0.1574355
1425.137, 0.1576896
1427.065, 0.1581321
1428.994, 0.1585172
1430.922, 0.1591571
1432.851, 0.1595595
1434.779, 0.1594848
1436.708, 0.1594887
1438.636, 0.1595912
1440.565, 0.1593291
1442.493, 0.1588266
1444.422, 0.1584620
1446.350, 0.1582181
1448.278, 0.1581705
1450.207, 0.1580322
1452.135, 0.1578174
1454.064, 0.1574376
1455.992, 0.1569592
1457.921, 0.1565925
1459.849, 0.1566098
1461.778, 0.1564599
1463.706, 0.1562974
1465.635, 0.1557741
1467.563, 0.1550733
1469.492, 0.1548509
1471.420, 0.1549708
1473.349, 0.1552302
1475.277, 0.1551000
1477.205, 0.1550215
1479.134, 0.1554873
1481.062, 0.1559328
1482.991, 0.1561418
1484.919, 0.1566747
1486.848, 0.1575189
1488.776, 0.1581588
1490.705, 0.1584402
1492.633, 0.1588747
1494.562, 0.1594958
1496.490, 0.1601923
1498.419, 0.1610853
1500.347, 0.1619748
1502.276, 0.1623309
1504.204, 0.1628632
1506.132, 0.1636817
1508.061, 0.1644712
1509.989, 0.1651079
1511.918, 0.1659878
1513.846, 0.1672227
1515.775, 0.1680826
1517.703, 0.1691433
1519.632, 0.1701545
1521.560, 0.1706406
1523.489, 0.1715259
1525.417, 0.1727492
1527.346, 0.1736849
1529.274, 0.1745155
1531.203, 0.1756954
1533.131, 0.1767111
1535.059, 0.1778868
1536.988, 0.1790893
1538.916, 0.1800125
1540.845, 0.1807959
1542.773, 0.1820474
1544.702, 0.1832800
1546.630, 0.1840846
1548.559, 0.1849385
1550.487, 0.1862909
1552.416, 0.1873899
1554.344, 0.1885672
1556.273, 0.1899256
1558.201, 0.1911030
1560.130, 0.1918448
1562.058, 0.1931909
1563.986, 0.1948373
1565.915, 0.1959258
1567.843, 0.1968254
1569.772, 0.1981554
1571.700, 0.1994407
1573.629, 0.2008284
1575.557, 0.2022630
1577.486, 0.2031227
1579.414, 0.2039914
1581.343, 0.2050257
1583.271, 0.2061901
1585.200, 0.2076278
1587.128, 0.2094136
1589.057, 0.2109116
1590.985, 0.2123743
1592.913, 0.2138527
1594.842, 0.2152527
1596.770, 0.2167113
1598.699, 0.2179466
1600.627, 0.2188931
1602.556, 0.2199777
1604.484, 0.2211486
1606.413, 0.2222244
1608.341, 0.2227710
1610.270, 0.2228166
1612.198, 0.2226383
1614.127, 0.2224580
1616.055, 0.2221987
1617.984, 0.2217030
1619.912, 0.2203169
1621.840, 0.2188580
1623.769, 0.2176144
1625.697, 0.2160541
1627.626, 0.2143262
1629.554, 0.2123390
1631.483, 0.2103341
1633.411, 0.2084381
1635.340, 0.2064450
1637.268, 0.2047850
1639.197, 0.2034840
1641.125, 0.2021945
1643.054, 0.2005047
1644.982, 0.1986294
1646.911, 0.1974943
1648.839, 0.1964336
1650.767, 0.1951095
1652.696, 0.1944278
1654.624, 0.1935439
1656.553, 0.1925569
1658.481, 0.1919978
1660.410, 0.1917767
1662.338, 0.1910959
1664.267, 0.1901519
1666.195, 0.1896733
1668.124, 0.1895702
1670.052, 0.1893363
1671.981, 0.1892834
1673.909, 0.1890409
1675.838, 0.1886885
1677.766, 0.1889136
1679.694, 0.1888249
1681.623, 0.1887198
1683.551, 0.1890084
1685.480, 0.1895110
1687.408, 0.1899630
1689.337, 0.1904252
1691.265, 0.1907601
1693.194, 0.1907513
1695.122, 0.1912916
1697.051, 0.1917234
1698.979, 0.1921473
1700.908, 0.1926248
1702.836, 0.1929737
1704.765, 0.1931146
1706.693, 0.1931769
1708.621, 0.1933145
1710.550, 0.1934356
1712.478, 0.1932344
1714.407, 0.1926969
1716.335, 0.1925524
1718.264, 0.1920381
1720.192, 0.1912303
1722.121, 0.1901240
1724.049, 0.1896696
1725.978, 0.1888518
1727.906, 0.1870610
1729.835, 0.1858006
1731.763, 0.1848691
1733.692, 0.1835869
1735.620, 0.1822395
1737.548, 0.1806722
1739.477, 0.1789626
1741.405, 0.1775269
1743.334, 0.1766626
1745.262, 0.1760880
1747.191, 0.1750882
1749.119, 0.1743097
1751.048, 0.1740336
1752.976, 0.1734467
1754.905, 0.1733735
1756.833, 0.1732815
1758.762, 0.1723414
1760.690, 0.1717799
1762.619, 0.1716805
1764.547, 0.1721535
1766.475, 0.1723445
1768.404, 0.1713892
1770.332, 0.1710518
1772.261, 0.1711187
1774.189, 0.1705044
1776.118, 0.1697885
1778.046, 0.1695807
1779.975, 0.1693766
1781.903, 0.1689327
1783.832, 0.1681844
1785.760, 0.1673541
1787.689, 0.1670274
1789.617, 0.1670292
1791.546, 0.1665626
1793.474, 0.1659843
1795.402, 0.1652680
1797.331, 0.1654257
1799.259, 0.1666277
1801.188, 0.1665489
1803.116, 0.1660435
1805.045, 0.1669586
1806.973, 0.1674996
1808.902, 0.1673681
1810.830, 0.1669993
1812.759, 0.1668477
1814.687, 0.1669304
1816.616, 0.1671428
1818.544, 0.1670527
1820.473, 0.1675599
1822.401, 0.1686634
1824.329, 0.1692969
1826.258, 0.1691870
1828.186, 0.1692692
1830.115, 0.1697438
1832.043, 0.1699700
1833.972, 0.1699363
1835.900, 0.1699778
1837.829, 0.1704295
1839.757, 0.1706986
1841.686, 0.1707815
1843.614, 0.1718196
1845.543, 0.1727698
1847.471, 0.1730347
1849.400, 0.1732129
1851.328, 0.1737884
1853.256, 0.1745227
1855.185, 0.1741667
1857.113, 0.1744776
1859.042, 0.1754457
1860.970, 0.1754192
1862.899, 0.1751476
1864.827, 0.1752801
1866.756, 0.1761463
1868.684, 0.1774971
1870.613, 0.1787215
1872.541, 0.1784143
1874.470, 0.1773713
1876.398, 0.1778264
1878.327, 0.1783576
1880.255, 0.1790536
1882.183, 0.1798227
1884.112, 0.1798842
1886.040, 0.1796954
1887.969, 0.1794369
1889.897, 0.1791962
1891.826, 0.1801809
1893.754, 0.1812509
1895.683, 0.1811202
1897.611, 0.1814284
1899.540, 0.1820817
1901.468, 0.1829115
1903.397, 0.1840507
1905.325, 0.1841233
1907.254, 0.1836621
1909.182, 0.1837666
1911.110, 0.1836528
1913.039, 0.1846857
1914.967, 0.1852324
1916.896, 0.1850393
1918.824, 0.1856151
1920.753, 0.1868284
1922.681, 0.1875353
1924.610, 0.1872707
1926.538, 0.1884387
1928.467, 0.1897239
1930.395, 0.1877958
1932.324, 0.1859522
1934.252, 0.1866809
1936.181, 0.1877899
1938.109, 0.1897165
1940.037, 0.1893152
1941.966, 0.1885540
1943.894, 0.1888224
1945.823, 0.1893456
1947.751, 0.1910357
1949.680, 0.1894162
1951.608, 0.1876682
1953.537, 0.1885516
1955.465, 0.1891731
1957.394, 0.1894173
1959.322, 0.1894878
1961.251, 0.1897751
1963.179, 0.1885095
1965.108, 0.1852317
1967.036, 0.1859967
1968.964, 0.1879043
1970.893, 0.1886454
1972.821, 0.1890438
1974.750, 0.1881742
1976.678, 0.1907725
1978.607, 0.1943113
1980.535, 0.1926863
1982.464, 0.1906502
1984.392, 0.1914905
1986.321, 0.1906600
1988.249, 0.1902204
1990.178, 0.1925227
1992.106, 0.1921235
1994.035, 0.1904989
1995.963, 0.1910369
1997.891, 0.1933513
1999.820, 0.1938689
2001.748, 0.1926188
2003.677, 0.1917776
2005.605, 0.1902413
2007.534, 0.1876127
2009.462, 0.1905408
2011.391, 0.1919516
2013.319, 0.1927552
2015.248, 0.1953875
2017.176, 0.1950521
2019.105, 0.1921453
2021.033, 0.1942091
2022.962, 0.1958267
2024.890, 0.1972299
2026.818, 0.1965172
2028.747, 0.1957557
2030.675, 0.1976050
2032.604, 0.1966888
2034.532, 0.1963259
2036.461, 0.1988208
2038.389, 0.1999010
2040.318, 0.2009867
2042.246, 0.2035616
2044.175, 0.2035614
2046.103, 0.2009587
2048.032, 0.2035415
2049.960, 0.2083940
2051.889, 0.2085450
2053.817, 0.2082098
2055.746, 0.2085855
2057.674, 0.2097822
2059.603, 0.2097620
2061.531, 0.2073888
2063.459, 0.2050026
2065.388, 0.2050049
2067.316, 0.2076082
2069.245, 0.2075111
2071.173, 0.2077851
2073.102, 0.2096140
2075.030, 0.2113392
2076.959, 0.2107671
2078.887, 0.2086301
2080.816, 0.2101234
2082.744, 0.2124509
2084.673, 0.2122538
2086.601, 0.2122751
2088.530, 0.2146280
2090.458, 0.2143179
2092.386, 0.2127787
2094.315, 0.2117283
2096.243, 0.2113926
2098.172, 0.2133693
2100.100, 0.2150875
2102.029, 0.2148065
2103.957, 0.2138743
2105.886, 0.2148544
2107.814, 0.2152365
2109.743, 0.2141593
2111.671, 0.2157764
2113.600, 0.2172311
2115.528, 0.2169617
2117.457, 0.2164605
2119.385, 0.2161465
2121.313, 0.2165038
2123.242, 0.2178135
2125.170, 0.2166466
2127.099, 0.2169737
2129.027, 0.2178200
2130.956, 0.2158782
2132.884, 0.2148365
2134.813, 0.2172004
2136.741, 0.2165691
2138.670, 0.2173331
2140.598, 0.2192641
2142.527, 0.2197108
2144.455, 0.2174270
2146.384, 0.2137028
2148.312, 0.2128401
2150.240, 0.2144533
2152.169, 0.2141409
2154.097, 0.2146687
2156.026, 0.2159525
2157.954, 0.2163024
2159.883, 0.2185785
2161.811, 0.2200581
2163.740, 0.2218559
2165.668, 0.2224362
2167.597, 0.2213496
2169.525, 0.2219587
2171.454, 0.2245547
2173.382, 0.2201926
2175.311, 0.2160599
2177.239, 0.2194932
2179.167, 0.2216373
2181.096, 0.2206684
2183.024, 0.2211365
2184.953, 0.2224222
2186.881, 0.2230037
2188.810, 0.2245391
2190.738, 0.2273652
2192.667, 0.2289602
2194.595, 0.2283083
2196.524, 0.2269958
2198.452, 0.2258407
2200.381, 0.2269068
2202.309, 0.2274935
2204.238, 0.2265673
2206.166, 0.2270329
2208.094, 0.2286899
2210.023, 0.2291318
2211.951, 0.2298963
2213.880, 0.2312362
2215.808, 0.2317740
2217.737, 0.2330000
2219.665, 0.2318065
2221.594, 0.2295181
2223.522, 0.2309780
2225.451, 0.2325239
2227.379, 0.2324637
2229.308, 0.2317435
2231.236, 0.2317434
2233.165, 0.2328871
2235.093, 0.2325226
2237.021, 0.2333441
2238.950, 0.2343007
2240.878, 0.2349116
2242.807, 0.2351767
2244.735, 0.2362605
2246.664, 0.2366956
2248.592, 0.2357285
2250.521, 0.2342898
2252.449, 0.2345994
2254.378, 0.2376792
2256.306, 0.2397199
2258.235, 0.2399612
2260.163, 0.2409711
2262.092, 0.2413123
2264.020, 0.2408928
2265.948, 0.2407112
2267.877, 0.2398424
2269.805, 0.2409357
2271.734, 0.2423659
2273.662, 0.2418679
2275.591, 0.2418872
2277.519, 0.2419842
2279.448, 0.2422550
2281.376, 0.2442668
2283.305, 0.2452593
2285.233, 0.2452126
2287.162, 0.2445782
2289.090, 0.2441562
2291.019, 0.2455541
2292.947, 0.2462817
2294.875, 0.2470923
2296.804, 0.2470962
2298.732, 0.2470191
2300.661, 0.2472703
2302.589, 0.2471367
2304.518, 0.2472268
2306.446, 0.2477804
2308.375, 0.2485936
2310.303, 0.2500499
2312.232, 0.2506577
2314.160, 0.2509030
2316.089, 0.2512816
2318.017, 0.2514946
2319.946, 0.2529500
2321.874, 0.2543221
2323.802, 0.2541994
2325.731, 0.2539721
2327.659, 0.2536066
2329.588, 0.2526802
2331.516, 0.2534059
2333.445, 0.2543082
2335.373, 0.2539874
2337.302, 0.2534543
2339.230, 0.2538645
2341.159, 0.2535461
2343.087, 0.2528329
2345.016, 0.2529500
2346.944, 0.2537984
2348.873, 0.2550120
2350.801, 0.2559883
2352.729, 0.2564757
2354.658, 0.2573001
2356.586, 0.2573704
2358.515, 0.2579831
2360.443, 0.2581527
2362.372, 0.2580795
2364.300, 0.2583840
2366.229, 0.2584659
2368.157, 0.2581161
2370.086, 0.2576728
2372.014, 0.2586282
2373.942, 0.2588276
2375.871, 0.2585067
2377.799, 0.2585607
2379.728, 0.2591077
2381.656, 0.2587037
2383.585, 0.2584584
2385.513, 0.2594576
2387.442, 0.2611465
2389.370, 0.2615408
2391.299, 0.2606847
2393.227, 0.2609845
2395.156, 0.2613567
2397.084, 0.2613471
2399.012, 0.2617930
2400.941, 0.2627829
2402.869, 0.2632198
2404.798, 0.2642614
2406.726, 0.2646896
2408.655, 0.2633789
2410.583, 0.2634893
2412.512, 0.2644860
2414.440, 0.2643228
2416.369, 0.2636429
2418.297, 0.2642688
2420.226, 0.2662026
2422.154, 0.2672870
2424.083, 0.2668498
2426.011, 0.2664836
2427.939, 0.2677897
2429.868, 0.2697052
2431.796, 0.2696802
2433.725, 0.2695006
2435.653, 0.2689389
2437.582, 0.2685511
2439.510, 0.2684960
2441.439, 0.2694730
2443.367, 0.2700965
2445.296, 0.2708203
2447.224, 0.2716160
2449.153, 0.2724099
2451.081, 0.2729287
2453.010, 0.2721614
2454.938, 0.2715748
2456.866, 0.2724857
2458.795, 0.2718425
2460.723, 0.2714194
2462.652, 0.2713441
2464.580, 0.2729646
2466.509, 0.2748064
2468.437, 0.2744062
2470.366, 0.2752932
2472.294, 0.2761429
2474.223, 0.2756170
2476.151, 0.2754953
2478.080, 0.2764764
2480.008, 0.2768069
2481.937, 0.2755879
2483.865, 0.2758231
2485.793, 0.2773716
2487.722, 0.2781208
2489.650, 0.2782281
2491.579, 0.2776852
2493.507, 0.2788608
2495.436, 0.2798054
2497.364, 0.2784665
2499.293, 0.2794995
2501.221, 0.2807401
2503.150, 0.2806156
2505.078, 0.2793124
2507.007, 0.2789768
2508.935, 0.2814179
2510.864, 0.2829017
2512.792, 0.2821966
2514.720, 0.2818784
2516.649, 0.2826960
2518.577, 0.2830218
2520.506, 0.2834067
2522.434, 0.2837830
2524.363, 0.2830961
2526.291, 0.2829167
2528.220, 0.2850320
2530.148, 0.2866782
2532.077, 0.2863348
2534.005, 0.2859788
2535.934, 0.2860439
2537.862, 0.2855043
2539.791, 0.2858964
2541.719, 0.2871369
2543.647, 0.2887092
2545.576, 0.2889734
2547.504, 0.2874644
2549.433, 0.2865241
2551.361, 0.2876537
2553.290, 0.2895984
2555.218, 0.2901045
2557.147, 0.2901364
2559.075, 0.2899767
2561.004, 0.2903691
2562.932, 0.2907613
2564.861, 0.2915426
2566.789, 0.2912680
2568.718, 0.2897493
2570.646, 0.2907692
2572.574, 0.2932082
2574.503, 0.2939046
2576.431, 0.2931534
2578.360, 0.2930446
2580.288, 0.2945664
2582.217, 0.2954762
2584.145, 0.2955818
2586.074, 0.2952449
2588.002, 0.2956676
2589.931, 0.2952003
2591.859, 0.2946340
2593.788, 0.2948734
2595.716, 0.2953813
2597.645, 0.2961576
2599.573, 0.2973142
2601.501, 0.2981695
2603.430, 0.2991260
2605.358, 0.2992532
2607.287, 0.2980648
2609.215, 0.2979187
2611.144, 0.2985724
2613.072, 0.2999925
2615.001, 0.3010308
2616.929, 0.3018815
2618.858, 0.3018943
2620.786, 0.3018768
2622.715, 0.3030820
2624.643, 0.3039462
2626.572, 0.3035101
2628.500, 0.3026136
2630.428, 0.3034458
2632.357, 0.3042451
2634.285, 0.3050063
2636.214, 0.3054444
2638.142, 0.3057339
2640.071, 0.3059002
2641.999, 0.3064246
2643.928, 0.3067849
2645.856, 0.3068258
2647.785, 0.3073056
2649.713, 0.3071614
2651.642, 0.3068650
2653.570, 0.3077310
2655.499, 0.3084099
2657.427, 0.3091455
2659.355, 0.3095912
2661.284, 0.3095562
2663.212, 0.3090616
2665.141, 0.3094993
2667.069, 0.3103651
2668.998, 0.3107310
2670.926, 0.3108189
2672.855, 0.3112348
2674.783, 0.3120308
2676.712, 0.3131773
2678.640, 0.3137745
2680.569, 0.3127887
2682.497, 0.3132858
2684.426, 0.3141956
2686.354, 0.3143142
2688.282, 0.3135008
2690.211, 0.3136041
2692.139, 0.3139837
2694.068, 0.3150747
2695.996, 0.3166848
2697.925, 0.3169174
2699.853, 0.3167904
2701.782, 0.3183990
2703.710, 0.3194466
2705.639, 0.3193888
2707.567, 0.3194458
2709.496, 0.3196121
2711.424, 0.3200640
2713.353, 0.3201493
2715.281, 0.3202901
2717.209, 0.3209833
2719.138, 0.3210207
2721.066, 0.3214373
2722.995, 0.3229372
2724.923, 0.3235881
2726.852, 0.3232119
2728.780, 0.3230385
2730.709, 0.3240423
2732.637, 0.3251066
2734.566, 0.3259913
2736.494, 0.3265308
2738.423, 0.3266919
2740.351, 0.3269622
2742.280, 0.3273748
2744.208, 0.3270638
2746.136, 0.3274525
2748.065, 0.3281904
2749.993, 0.3289750
2751.922, 0.3292698
2753.850, 0.3294554
2755.779, 0.3305738
2757.707, 0.3317754
2759.636, 0.3317234
2761.564, 0.3318160
2763.493, 0.3320517
2765.421, 0.3324299
2767.350, 0.3324330
2769.278, 0.3335842
2771.207, 0.3352640
2773.135, 0.3352402
2775.063, 0.3354252
2776.992, 0.3358326
2778.920, 0.3365837
2780.849, 0.3378940
2782.777, 0.3381217
2784.706, 0.3373170
2786.634, 0.3384079
2788.563, 0.3389704
2790.491, 0.3392044
2792.420, 0.3406574
2794.348, 0.3405907
2796.277, 0.3404720
2798.205, 0.3417826
2800.134, 0.3418426
2802.062, 0.3417400
2803.990, 0.3427475
2805.919, 0.3429858
2807.847, 0.3438220
2809.776, 0.3442460
2811.704, 0.3442248
2813.633, 0.3441322
2815.561, 0.3447639
2817.490, 0.3461083
2819.418, 0.3465717
2821.347, 0.3469893
2823.275, 0.3478810
2825.204, 0.3474741
2827.132, 0.3486291
2829.061, 0.3505499
2830.989, 0.3507144
2832.917, 0.3506467
2834.846, 0.3517733
2836.774, 0.3521120
2838.703, 0.3523353
2840.631, 0.3529417
2842.560, 0.3540140
2844.488, 0.3548875
2846.417, 0.3543692
2848.345, 0.3527871
2850.274, 0.3511033
2852.202, 0.3520265
2854.131, 0.3535325
2856.059, 0.3548835
2857.988, 0.3540115
2859.916, 0.3539568
2861.844, 0.3555653
2863.773, 0.3563567
2865.701, 0.3575464
2867.630, 0.3568015
2869.558, 0.3566448
2871.487, 0.3575873
2873.415, 0.3582530
2875.344, 0.3591304
2877.272, 0.3600628
2879.201, 0.3598028
2881.129, 0.3595721
2883.058, 0.3603544
2884.986, 0.3624198
2886.915, 0.3645158
2888.843, 0.3650368
2890.771, 0.3640788
2892.700, 0.3637972
2894.628, 0.3642153
2896.557, 0.3648828
2898.485, 0.3658585
2900.414, 0.3658150
2902.342, 0.3654136
2904.271, 0.3660898
2906.199, 0.3677387
2908.128, 0.3682745
2910.056, 0.3676745
2911.985, 0.3676350
2913.913, 0.3678483
2915.842, 0.3673004
2917.770, 0.3679176
2919.698, 0.3690905
2921.627, 0.3688010
2923.555, 0.3684841
2925.484, 0.3682148
2927.412, 0.3678785
2929.341, 0.3666624
2931.269, 0.3660711
2933.198, 0.3665855
2935.126, 0.3670308
2937.055, 0.3673637
2938.983, 0.3678887
2940.912, 0.3693579
2942.840, 0.3712003
2944.769, 0.3721427
2946.697, 0.3727156
2948.625, 0.3726160
2950.554, 0.3726196
2952.482, 0.3741573
2954.411, 0.3762997
2956.339, 0.3756575
2958.268, 0.3739205
2960.196, 0.3733081
2962.125, 0.3742804
2964.053, 0.3753458
2965.982, 0.3756669
2967.910, 0.3764530
2969.839, 0.3745425
2971.767, 0.3743657
2973.696, 0.3765396
2975.624, 0.3759415
2977.552, 0.3755545
2979.481, 0.3762155
2981.409, 0.3768432
2983.338, 0.3774164
2985.266, 0.3775414
2987.195, 0.3783936
2989.123, 0.3791878
2991.052, 0.3779295
2992.980, 0.3782236
2994.909, 0.3787834
2996.837, 0.3791345
2998.766, 0.3795688
3000.694, 0.3788725
3002.623, 0.3789341
3004.551, 0.3801900
3006.479, 0.3814109
3008.408, 0.3824500
3010.336, 0.3830491
3012.265, 0.3825534
3014.193, 0.3808860
3016.122, 0.3802322
3018.050, 0.3818221
3019.979, 0.3833617
3021.907, 0.3828376
3023.836, 0.3839425
3025.764, 0.3857614
3027.693, 0.3856555
3029.621, 0.3852829
3031.550, 0.3851759
3033.478, 0.3849982
3035.406, 0.3843963
3037.335, 0.3832758
3039.263, 0.3842407
3041.192, 0.3875180
3043.120, 0.3884387
3045.049, 0.3886194
3046.977, 0.3889645
3048.906, 0.3888468
3050.834, 0.3888691
3052.763, 0.3891716
3054.691, 0.3892564
3056.620, 0.3897548
3058.548, 0.3909228
3060.477, 0.3909297
3062.405, 0.3911815
3064.333, 0.3942888
3066.262, 0.3941253
3068.190, 0.3922548
3070.119, 0.3926481
3072.047, 0.3926159
3073.976, 0.3926784
3075.904, 0.3942878
3077.833, 0.3942169
3079.761, 0.3928673
3081.690, 0.3939994
3083.618, 0.3962011
3085.547, 0.3972031
3087.475, 0.3964568
3089.404, 0.3960746
3091.332, 0.3961474
3093.260, 0.3957413
3095.189, 0.3949971
3097.117, 0.3941793
3099.046, 0.3951581
3100.974, 0.3963534
3102.903, 0.3951979
3104.831, 0.3951658
3106.760, 0.3966951
3108.688, 0.3970489
3110.617, 0.3964807
3112.545, 0.3959592
3114.474, 0.3979406
3116.402, 0.4004006
3118.331, 0.4020614
3120.259, 0.4012099
3122.188, 0.4012120
3124.116, 0.4019880
3126.044, 0.4009822
3127.973, 0.4008790
3129.901, 0.4010852
3131.830, 0.4011609
3133.758, 0.4001517
3135.687, 0.4007407
3137.615, 0.4032093
3139.544, 0.4041719
3141.472, 0.4037836
3143.401, 0.4028005
3145.329, 0.4038357
3147.258, 0.4041152
3149.186, 0.4047518
3151.115, 0.4043489
3153.043, 0.4034861
3154.971, 0.4043508
3156.900, 0.4059599
3158.828, 0.4080201
3160.757, 0.4078268
3162.685, 0.4063854
3164.614, 0.4071658
3166.542, 0.4080867
3168.471, 0.4080092
3170.399, 0.4078288
3172.328, 0.4083230
3174.256, 0.4088955
3176.185, 0.4079113
3178.113, 0.4062804
3180.042, 0.4066243
3181.970, 0.4098343
3183.898, 0.4109885
3185.827, 0.4113632
3187.755, 0.4124884
3189.684, 0.4106014
3191.612, 0.4074695
3193.541, 0.4061589
3195.469, 0.4072593
3197.398, 0.4092817
3199.326, 0.4101894
3201.255, 0.4107380
3203.183, 0.4115942
3205.112, 0.4113772
3207.040, 0.4097552
3208.969, 0.4096016
3210.897, 0.4119856
3212.825, 0.4123416
3214.754, 0.4105285
3216.682, 0.4107853
3218.611, 0.4123212
3220.539, 0.4122075
3222.468, 0.4124767
3224.396, 0.4121684
3226.325, 0.4124611
3228.253, 0.4136738
3230.182, 0.4138250
3232.110, 0.4132444
3234.039, 0.4129879
3235.967, 0.4124434
3237.896, 0.4116186
3239.824, 0.4146929
3241.752, 0.4191047
3243.681, 0.4171977
3245.609, 0.4138968
3247.538, 0.4125369
3249.466, 0.4140251
3251.395, 0.4161742
3253.323, 0.4142235
3255.252, 0.4124355
3257.180, 0.4140276
3259.109, 0.4160391
3261.037, 0.4179900
3262.966, 0.4183508
3264.894, 0.4175193
3266.823, 0.4168208
3268.751, 0.4169886
3270.679, 0.4158660
3272.608, 0.4158518
3274.536, 0.4178931
3276.465, 0.4187493
3278.393, 0.4201410
3280.322, 0.4216328
3282.250, 0.4201241
3284.179, 0.4187919
3286.107, 0.4176853
3288.036, 0.4178612
3289.964, 0.4207728
3291.893, 0.4208471
3293.821, 0.4188821
3295.750, 0.4173211
3297.678, 0.4195554
3299.606, 0.4203178
3301.535, 0.4185223
3303.463, 0.4188154
3305.392, 0.4191545
3307.320, 0.4179880
3309.249, 0.4196606
3311.177, 0.4205653
3313.106, 0.4233526
3315.034, 0.4249175
3316.963, 0.4240951
3318.891, 0.4237738
3320.820, 0.4241441
3322.748, 0.4226759
3324.677, 0.4219339
3326.605, 0.4232639
3328.533, 0.4244045
3330.462, 0.4239286
3332.390, 0.4213153
3334.319, 0.4204663
3336.247, 0.4217215
3338.176, 0.4244516
3340.104, 0.4255591
3342.033, 0.4246006
3343.961, 0.4254286
3345.890, 0.4263325
3347.818, 0.4233759
3349.747, 0.4203019
3351.675, 0.4227602
3353.604, 0.4234470
3355.532, 0.4232590
3357.460, 0.4232655
3359.389, 0.4227360
3361.317, 0.4230076
3363.246, 0.4250341
3365.174, 0.4247119
3367.103, 0.4230548
3369.031, 0.4232416
3370.960, 0.4234456
3372.888, 0.4203614
3374.817, 0.4210732
3376.745, 0.4257810
3378.674, 0.4258244
3380.602, 0.4222972
3382.531, 0.4249221
3384.459, 0.4266536
3386.387, 0.4250776
3388.316, 0.4246449
3390.244, 0.4250876
3392.173, 0.4272421
3394.101, 0.4255024
3396.030, 0.4232506
3397.958, 0.4240191
3399.887, 0.4232167
3401.815, 0.4239540
3403.744, 0.4268948
3405.672, 0.4246539
3407.601, 0.4217600
3409.529, 0.4233644
3411.458, 0.4243617
3413.386, 0.4249408
3415.314, 0.4245709
3417.243, 0.4236686
3419.171, 0.4236181
3421.100, 0.4246435
3423.028, 0.4244223
3424.957, 0.4252765
3426.885, 0.4270013
3428.814, 0.4249056
3430.742, 0.4242493
3432.671, 0.4266855
3434.599, 0.4249848
3436.528, 0.4228314
3438.456, 0.4225773
3440.385, 0.4230726
3442.313, 0.4226066
3444.241, 0.4220975
3446.170, 0.4223702
3448.098, 0.4220609
3450.027, 0.4215565
3451.955, 0.4209614
3453.884, 0.4217600
3455.812, 0.4219227
3457.741, 0.4206541
3459.669, 0.4212018
3461.598, 0.4212861
3463.526, 0.4223613
3465.455, 0.4221440
3467.383, 0.4215951
3469.312, 0.4213625
3471.240, 0.4209401
3473.168, 0.4230625
3475.097, 0.4228009
3477.025, 0.4206746
3478.954, 0.4192025
3480.882, 0.4186551
3482.811, 0.4194960
3484.739, 0.4202594
3486.668, 0.4181468
3488.596, 0.4164387
3490.525, 0.4174398
3492.453, 0.4184482
3494.382, 0.4182347
3496.310, 0.4167715
3498.239, 0.4166215
3500.167, 0.4178383
3502.095, 0.4179814
3504.024, 0.4179413
3505.952, 0.4199368
3507.881, 0.4202216
3509.809, 0.4184339
3511.738, 0.4157036
3513.666, 0.4142632
3515.595, 0.4161797
3517.523, 0.4154679
3519.452, 0.4147592
3521.380, 0.4128832
3523.309, 0.4127457
3525.237, 0.4155257
3527.166, 0.4153317
3529.094, 0.4149336
3531.022, 0.4143914
3532.951, 0.4144480
3534.879, 0.4161234
3536.808, 0.4147449
3538.736, 0.4119300
3540.665, 0.4141232
3542.593, 0.4169667
3544.522, 0.4150690
3546.450, 0.4103725
3548.379, 0.4109941
3550.307, 0.4125383
3552.236, 0.4136816
3554.164, 0.4151943
3556.093, 0.4139458
3558.021, 0.4104053
3559.949, 0.4061727
3561.878, 0.4077021
3563.806, 0.4117006
3565.735, 0.4091670
3567.663, 0.4057881
3569.592, 0.4082693
3571.520, 0.4097634
3573.449, 0.4079596
3575.377, 0.4063444
3577.306, 0.4044281
3579.234, 0.4030171
3581.163, 0.3987653
3583.091, 0.4014007
3585.020, 0.4048473
3586.948, 0.4038118
3588.876, 0.4004310
3590.805, 0.3988096
3592.733, 0.3973934
3594.662, 0.3947675
3596.590, 0.3911653
3598.519, 0.3921023
3600.447, 0.3957413
3602.376, 0.3958681
3604.304, 0.3921213
3606.233, 0.3910767
3608.161, 0.3885913
3610.090, 0.3861246
3612.018, 0.3859010
3613.947, 0.3821046
3615.875, 0.3797019
3617.803, 0.3786224
3619.732, 0.3788552
3621.660, 0.3781114
3623.589, 0.3782116
3625.517, 0.3767575
3627.446, 0.3728310
3629.374, 0.3707199
3631.303, 0.3675787
3633.231, 0.3641333
3635.160, 0.3635366
3637.088, 0.3631362
3639.017, 0.3603691
3640.945, 0.3619686
3642.874, 0.3641336
3644.802, 0.3611876
3646.730, 0.3565958
3648.659, 0.3534356
3650.587, 0.3571649
3652.516, 0.3623258
3654.444, 0.3632971
3656.373, 0.3614393
3658.301, 0.3596663
3660.230, 0.3595852
3662.158, 0.3584279
3664.087, 0.3589901
3666.015, 0.3612311
3667.944, 0.3624053
3669.872, 0.3653733
3671.801, 0.3642544
3673.729, 0.3605350
3675.657, 0.3595224
3677.586, 0.3596635
3679.514, 0.3608989
3681.443, 0.3625523
3683.371, 0.3647486
3685.300, 0.3627657
3687.228, 0.3630453
3689.157, 0.3658473
3691.085, 0.3643103
3693.014, 0.3646289
3694.942, 0.3680953
3696.871, 0.3704450
3698.799, 0.3723525
3700.728, 0.3716038
3702.656, 0.3706229
3704.584, 0.3735349
3706.513, 0.3706385
3708.441, 0.3680439
3710.370, 0.3691909
3712.298, 0.3685120
3714.227, 0.3689364
3716.155, 0.3719605
3718.084, 0.3752968
3720.012, 0.3762535
3721.941, 0.3756621
3723.869, 0.3763123
3725.798, 0.3759980
3727.726, 0.3766730
3729.655, 0.3763745
3731.583, 0.3747145
3733.511, 0.3758636
3735.440, 0.3764520
3737.368, 0.3771495
3739.297, 0.3752248
3741.225, 0.3789474
3743.154, 0.3811397
3745.082, 0.3775968
3747.011, 0.3792832
3748.939, 0.3846317
3750.868, 0.3838177
3752.796, 0.3852679
3754.725, 0.3925573
3756.653, 0.3937666
3758.582, 0.3924304
3760.510, 0.3896859
3762.438, 0.3851014
3764.367, 0.3886851
3766.295, 0.3923441
3768.224, 0.3905523
3770.152, 0.3896257
3772.081, 0.3876421
3774.009, 0.3890690
3775.938, 0.3864464
3777.866, 0.3858991
3779.795, 0.3888771
3781.723, 0.3905058
3783.652, 0.3916172
3785.580, 0.3947429
3787.509, 0.3965957
3789.437, 0.3936832
3791.365, 0.3943885
3793.294, 0.3915489
3795.222, 0.3870518
3797.151, 0.3920311
3799.079, 0.3976902
3801.008, 0.3967787
3802.936, 0.3935752
3804.865, 0.3951492
3806.793, 0.4000316
3808.722, 0.3992399
3810.650, 0.3969389
3812.579, 0.3941644
3814.507, 0.3953587
3816.436, 0.3978833
3818.364, 0.4002711
3820.292, 0.4005947
3822.221, 0.4031226
3824.149, 0.4001941
3826.078, 0.3972266
3828.006, 0.3963986
3829.935, 0.3955497
3831.863, 0.3989739
3833.792, 0.4047912
3835.720, 0.4016393
3837.649, 0.3989175
3839.577, 0.4014785
3841.506, 0.4021144
3843.434, 0.4009989
3845.363, 0.3991519
3847.291, 0.4036225
3849.219, 0.4069448
3851.148, 0.4057323
3853.076, 0.4060321
3855.005, 0.4072503
3856.933, 0.4062897
3858.862, 0.4047623
3860.790, 0.4066370
3862.719, 0.4088746
3864.647, 0.4065157
3866.576, 0.4095841
3868.504, 0.4127882
3870.433, 0.4091313
3872.361, 0.4077736
3874.290, 0.4091422
3876.218, 0.4052139
3878.146, 0.4019550
3880.075, 0.4058917
3882.003, 0.4101564
3883.932, 0.4112403
3885.860, 0.4088793
3887.789, 0.4075163
3889.717, 0.4110042
3891.646, 0.4108516
3893.574, 0.4078649
3895.503, 0.4103508
3897.431, 0.4150060
3899.360, 0.4163019
3901.288, 0.4166779
3903.217, 0.4173505
3905.145, 0.4161286
3907.073, 0.4163099
3909.002, 0.4193504
3910.930, 0.4160959
3912.859, 0.4140331
3914.787, 0.4198034
3916.716, 0.4241244
3918.644, 0.4234652
3920.573, 0.4195631
3922.501, 0.4172530
3924.430, 0.4162810
3926.358, 0.4162076
3928.287, 0.4163015
3930.215, 0.4169882
3932.144, 0.4213205
3934.072, 0.4218684
3936.000, 0.4186236
3937.929, 0.4178486
3939.857, 0.4174318
3941.786, 0.4193175
3943.714, 0.4178022
3945.643, 0.4159575
3947.571, 0.4198962
3949.500, 0.4239758
3951.428, 0.4240080
3953.357, 0.4225457
3955.285, 0.4229225
3957.214, 0.4216971
3959.142, 0.4220647
3961.071, 0.4236537
3962.999, 0.4264313
3964.927, 0.4289031
3966.856, 0.4268352
3968.784, 0.4231908
3970.713, 0.4225604
3972.641, 0.4257402
3974.570, 0.4270224
3976.498, 0.4261326
3978.427, 0.4232335
3980.355, 0.4237654
3982.284, 0.4282706
3984.212, 0.4293985
3986.141, 0.4292730
3988.069, 0.4296408
3989.998, 0.4304575
3991.926, 0.4290905
3993.854, 0.4262460
3995.783, 0.4234693
3997.711, 0.4294046
3999.640, 0.4296118
##END=



