##NAMES=Paravauxite
##RRUFFID=R050468
##IDEAL CHEMISTRY=Fe^2+^Al_2_(PO_4_)_2_(OH)_2_&#183;8H_2_O
##LOCALITY=Llallagua, Bustillos Province, Potosi, Bolivia
##OWNER=RRUFF
##SOURCE=University of Arizona Mineral Museum
##DESCRIPTION=Colorless aggregate of tabular crystals
##STATUS=The identification of this mineral has been confirmed by X-ray diffraction and chemical analysis
##URL=rruff.info/R050468
##MEASURED CHEMISTRY=(Fe^2+^_0.94_Mg_0.05_Mn_0.01_)_Σ=1_Al_2.00_(P_1.00_O_4_)_2_((OH)_0.86_F_0.14_)_Σ=2_·8H_2_O
3.741225e+002, 2.317568e-001
3.760510e+002, 2.281869e-001
3.779795e+002, 2.560378e-001
3.799079e+002, 2.495994e-001
3.818364e+002, 2.357353e-001
3.837649e+002, 2.159047e-001
3.856933e+002, 2.122567e-001
3.876218e+002, 2.055853e-001
3.895503e+002, 2.087628e-001
3.914787e+002, 2.064139e-001
3.934072e+002, 1.968812e-001
3.953357e+002, 1.922687e-001
3.972641e+002, 1.879881e-001
3.991926e+002, 1.776954e-001
4.011211e+002, 1.768946e-001
4.030495e+002, 1.773213e-001
4.049780e+002, 1.703826e-001
4.069065e+002, 1.639937e-001
4.088349e+002, 1.602549e-001
4.107634e+002, 1.570243e-001
4.126919e+002, 1.557104e-001
4.146203e+002, 1.562003e-001
4.165488e+002, 1.578304e-001
4.184773e+002, 1.572442e-001
4.204057e+002, 1.594122e-001
4.223342e+002, 1.624702e-001
4.242627e+002, 1.637778e-001
4.261911e+002, 1.657571e-001
4.281196e+002, 1.689194e-001
4.300481e+002, 1.698017e-001
4.319765e+002, 1.727301e-001
4.339050e+002, 1.754941e-001
4.358335e+002, 1.763274e-001
4.377619e+002, 1.792743e-001
4.396904e+002, 1.802244e-001
4.416189e+002, 1.790977e-001
4.435473e+002, 1.800733e-001
4.454758e+002, 1.785496e-001
4.474043e+002, 1.749347e-001
4.493327e+002, 1.716736e-001
4.512612e+002, 1.685349e-001
4.531897e+002, 1.648305e-001
4.551181e+002, 1.624602e-001
4.570466e+002, 1.586118e-001
4.589751e+002, 1.545451e-001
4.609035e+002, 1.500006e-001
4.628320e+002, 1.447964e-001
4.647605e+002, 1.397248e-001
4.666889e+002, 1.344181e-001
4.686174e+002, 1.299698e-001
4.705459e+002, 1.264286e-001
4.724743e+002, 1.233585e-001
4.744028e+002, 1.208159e-001
4.763313e+002, 1.185163e-001
4.782597e+002, 1.166912e-001
4.801882e+002, 1.155091e-001
4.821167e+002, 1.159861e-001
4.840451e+002, 1.175315e-001
4.859736e+002, 1.185714e-001
4.879021e+002, 1.206039e-001
4.898305e+002, 1.233586e-001
4.917590e+002, 1.257062e-001
4.936875e+002, 1.291992e-001
4.956159e+002, 1.326376e-001
4.975444e+002, 1.363979e-001
4.994729e+002, 1.408838e-001
5.014013e+002, 1.450119e-001
5.033298e+002, 1.490866e-001
5.052583e+002, 1.537322e-001
5.071867e+002, 1.579323e-001
5.091152e+002, 1.618946e-001
5.110437e+002, 1.660675e-001
5.129721e+002, 1.690623e-001
5.149006e+002, 1.705611e-001
5.168290e+002, 1.710195e-001
5.187575e+002, 1.704009e-001
5.206860e+002, 1.694686e-001
5.226144e+002, 1.683046e-001
5.245429e+002, 1.663628e-001
5.264714e+002, 1.643069e-001
5.283998e+002, 1.629184e-001
5.303283e+002, 1.616498e-001
5.322568e+002, 1.600727e-001
5.341852e+002, 1.585614e-001
5.361137e+002, 1.570552e-001
5.380422e+002, 1.555321e-001
5.399706e+002, 1.534959e-001
5.418991e+002, 1.511607e-001
5.438276e+002, 1.493763e-001
5.457560e+002, 1.476944e-001
5.476845e+002, 1.460243e-001
5.496130e+002, 1.442426e-001
5.515414e+002, 1.429379e-001
5.534699e+002, 1.425587e-001
5.553984e+002, 1.428377e-001
5.573268e+002, 1.432755e-001
5.592553e+002, 1.440833e-001
5.611838e+002, 1.456926e-001
5.631122e+002, 1.480862e-001
5.650407e+002, 1.510847e-001
5.669692e+002, 1.539123e-001
5.688976e+002, 1.569486e-001
5.708261e+002, 1.598645e-001
5.727546e+002, 1.616810e-001
5.746830e+002, 1.634398e-001
5.766115e+002, 1.650797e-001
5.785400e+002, 1.661945e-001
5.804684e+002, 1.664638e-001
5.823969e+002, 1.661540e-001
5.843254e+002, 1.651920e-001
5.862538e+002, 1.634530e-001
5.881823e+002, 1.613153e-001
5.901108e+002, 1.586335e-001
5.920392e+002, 1.554940e-001
5.939677e+002, 1.525022e-001
5.958962e+002, 1.498971e-001
5.978246e+002, 1.477232e-001
5.997531e+002, 1.457459e-001
6.016816e+002, 1.436962e-001
6.036100e+002, 1.420839e-001
6.055385e+002, 1.404875e-001
6.074670e+002, 1.392138e-001
6.093954e+002, 1.381493e-001
6.113239e+002, 1.372168e-001
6.132524e+002, 1.365490e-001
6.151808e+002, 1.362345e-001
6.171093e+002, 1.362275e-001
6.190378e+002, 1.364785e-001
6.209662e+002, 1.371253e-001
6.228947e+002, 1.381043e-001
6.248232e+002, 1.393130e-001
6.267516e+002, 1.407551e-001
6.286801e+002, 1.428629e-001
6.306086e+002, 1.452769e-001
6.325370e+002, 1.472308e-001
6.344655e+002, 1.492824e-001
6.363940e+002, 1.515559e-001
6.383224e+002, 1.538186e-001
6.402509e+002, 1.555120e-001
6.421794e+002, 1.569062e-001
6.441078e+002, 1.576266e-001
6.460363e+002, 1.572881e-001
6.479648e+002, 1.557128e-001
6.498932e+002, 1.533248e-001
6.518217e+002, 1.502741e-001
6.537502e+002, 1.466521e-001
6.556786e+002, 1.429897e-001
6.576071e+002, 1.394068e-001
6.595356e+002, 1.362435e-001
6.614641e+002, 1.335981e-001
6.633925e+002, 1.315277e-001
6.653210e+002, 1.299519e-001
6.672495e+002, 1.283881e-001
6.691779e+002, 1.269691e-001
6.711064e+002, 1.257744e-001
6.730349e+002, 1.246999e-001
6.749633e+002, 1.235511e-001
6.768918e+002, 1.226791e-001
6.788203e+002, 1.217553e-001
6.807487e+002, 1.206679e-001
6.826772e+002, 1.193273e-001
6.846057e+002, 1.180931e-001
6.865341e+002, 1.167179e-001
6.884626e+002, 1.152905e-001
6.903911e+002, 1.139481e-001
6.923195e+002, 1.126081e-001
6.942480e+002, 1.110773e-001
6.961765e+002, 1.094318e-001
6.981049e+002, 1.077308e-001
7.000334e+002, 1.062990e-001
7.019619e+002, 1.049738e-001
7.038903e+002, 1.036023e-001
7.058188e+002, 1.021565e-001
7.077473e+002, 1.008750e-001
7.096757e+002, 9.952240e-002
7.116042e+002, 9.826995e-002
7.135327e+002, 9.712241e-002
7.154611e+002, 9.610794e-002
7.173896e+002, 9.499303e-002
7.193181e+002, 9.404975e-002
7.212465e+002, 9.359866e-002
7.231750e+002, 9.286702e-002
7.251035e+002, 9.198207e-002
7.270319e+002, 9.123433e-002
7.289604e+002, 9.035264e-002
7.308889e+002, 8.936239e-002
7.328173e+002, 8.816019e-002
7.347458e+002, 8.693808e-002
7.366743e+002, 8.583225e-002
7.386027e+002, 8.442164e-002
7.405312e+002, 8.280215e-002
7.424597e+002, 8.124808e-002
7.443881e+002, 7.963773e-002
7.463166e+002, 7.792676e-002
7.482451e+002, 7.621516e-002
7.501735e+002, 7.453094e-002
7.521020e+002, 7.273838e-002
7.540305e+002, 7.129104e-002
7.559589e+002, 7.002757e-002
7.578874e+002, 6.856240e-002
7.598159e+002, 6.706633e-002
7.617443e+002, 6.560241e-002
7.636728e+002, 6.437650e-002
7.656013e+002, 6.336605e-002
7.675297e+002, 6.231354e-002
7.694582e+002, 6.124730e-002
7.713867e+002, 6.010034e-002
7.733151e+002, 5.914661e-002
7.752436e+002, 5.850038e-002
7.771721e+002, 5.792307e-002
7.791005e+002, 5.731348e-002
7.810290e+002, 5.674079e-002
7.829575e+002, 5.621697e-002
7.848859e+002, 5.558169e-002
7.868144e+002, 5.499669e-002
7.887429e+002, 5.471174e-002
7.906713e+002, 5.454729e-002
7.925998e+002, 5.423230e-002
7.945283e+002, 5.381725e-002
7.964567e+002, 5.365137e-002
7.983852e+002, 5.358199e-002
8.003137e+002, 5.347724e-002
8.022421e+002, 5.332809e-002
8.041706e+002, 5.316023e-002
8.060991e+002, 5.300668e-002
8.080275e+002, 5.295886e-002
8.099560e+002, 5.291222e-002
8.118845e+002, 5.281043e-002
8.138129e+002, 5.277262e-002
8.157414e+002, 5.277987e-002
8.176699e+002, 5.279049e-002
8.195983e+002, 5.277600e-002
8.215268e+002, 5.257602e-002
8.234553e+002, 5.248205e-002
8.253837e+002, 5.247168e-002
8.273122e+002, 5.241018e-002
8.292407e+002, 5.254239e-002
8.311691e+002, 5.269524e-002
8.330976e+002, 5.268314e-002
8.350261e+002, 5.265719e-002
8.369545e+002, 5.261650e-002
8.388830e+002, 5.278229e-002
8.408115e+002, 5.288570e-002
8.427399e+002, 5.294674e-002
8.446684e+002, 5.293069e-002
8.465969e+002, 5.312319e-002
8.485253e+002, 5.316920e-002
8.504538e+002, 5.322292e-002
8.523823e+002, 5.321127e-002
8.543107e+002, 5.326728e-002
8.562392e+002, 5.346236e-002
8.581677e+002, 5.357443e-002
8.600961e+002, 5.371914e-002
8.620246e+002, 5.402732e-002
8.639531e+002, 5.447491e-002
8.658815e+002, 5.489285e-002
8.678100e+002, 5.523957e-002
8.697385e+002, 5.567610e-002
8.716669e+002, 5.615321e-002
8.735954e+002, 5.678495e-002
8.755239e+002, 5.740106e-002
8.774523e+002, 5.783567e-002
8.793808e+002, 5.853464e-002
8.813093e+002, 5.931533e-002
8.832377e+002, 6.008646e-002
8.851662e+002, 6.091408e-002
8.870947e+002, 6.167217e-002
8.890231e+002, 6.256995e-002
8.909516e+002, 6.370734e-002
8.928801e+002, 6.488349e-002
8.948085e+002, 6.612006e-002
8.967370e+002, 6.737329e-002
8.986655e+002, 6.875400e-002
9.005939e+002, 7.025793e-002
9.025224e+002, 7.185393e-002
9.044509e+002, 7.366692e-002
9.063793e+002, 7.556905e-002
9.083078e+002, 7.731070e-002
9.102363e+002, 7.931139e-002
9.121647e+002, 8.155666e-002
9.140932e+002, 8.381968e-002
9.160217e+002, 8.632755e-002
9.179501e+002, 8.905456e-002
9.198786e+002, 9.192271e-002
9.218071e+002, 9.473622e-002
9.237355e+002, 9.767217e-002
9.256640e+002, 1.008750e-001
9.275925e+002, 1.042482e-001
9.295209e+002, 1.076906e-001
9.314494e+002, 1.112689e-001
9.333779e+002, 1.150625e-001
9.353063e+002, 1.190549e-001
9.372348e+002, 1.231968e-001
9.391633e+002, 1.274323e-001
9.410917e+002, 1.317647e-001
9.430202e+002, 1.362433e-001
9.449487e+002, 1.404623e-001
9.468771e+002, 1.446810e-001
9.488056e+002, 1.488463e-001
9.507341e+002, 1.527528e-001
9.526625e+002, 1.563260e-001
9.545910e+002, 1.594896e-001
9.565195e+002, 1.620728e-001
9.584479e+002, 1.645132e-001
9.603764e+002, 1.667076e-001
9.623049e+002, 1.687129e-001
9.642333e+002, 1.706062e-001
9.661618e+002, 1.726567e-001
9.680903e+002, 1.749531e-001
9.700187e+002, 1.776780e-001
9.719472e+002, 1.808001e-001
9.738757e+002, 1.846279e-001
9.758041e+002, 1.891137e-001
9.777326e+002, 1.941103e-001
9.796611e+002, 1.997195e-001
9.815895e+002, 2.062992e-001
9.835180e+002, 2.138210e-001
9.854465e+002, 2.218941e-001
9.873749e+002, 2.303107e-001
9.893034e+002, 2.384379e-001
9.912319e+002, 2.459467e-001
9.931603e+002, 2.526256e-001
9.950888e+002, 2.575169e-001
9.970173e+002, 2.603569e-001
9.989457e+002, 2.613014e-001
1.000874e+003, 2.615748e-001
1.002803e+003, 2.621441e-001
1.004731e+003, 2.639522e-001
1.006660e+003, 2.678288e-001
1.008588e+003, 2.740512e-001
1.010517e+003, 2.821361e-001
1.012445e+003, 2.910336e-001
1.014373e+003, 2.997220e-001
1.016302e+003, 3.079382e-001
1.018230e+003, 3.146215e-001
1.020159e+003, 3.195395e-001
1.022087e+003, 3.220821e-001
1.024016e+003, 3.222796e-001
1.025944e+003, 3.206306e-001
1.027873e+003, 3.174447e-001
1.029801e+003, 3.128963e-001
1.031730e+003, 3.077640e-001
1.033658e+003, 3.021903e-001
1.035587e+003, 2.963482e-001
1.037515e+003, 2.901790e-001
1.039443e+003, 2.840225e-001
1.041372e+003, 2.778617e-001
1.043300e+003, 2.717372e-001
1.045229e+003, 2.655511e-001
1.047157e+003, 2.593509e-001
1.049086e+003, 2.526970e-001
1.051014e+003, 2.455785e-001
1.052943e+003, 2.380971e-001
1.054871e+003, 2.302477e-001
1.056800e+003, 2.218934e-001
1.058728e+003, 2.133696e-001
1.060657e+003, 2.047479e-001
1.062585e+003, 1.965386e-001
1.064514e+003, 1.886211e-001
1.066442e+003, 1.806638e-001
1.068370e+003, 1.727168e-001
1.070299e+003, 1.652212e-001
1.072227e+003, 1.581707e-001
1.074156e+003, 1.513313e-001
1.076084e+003, 1.447086e-001
1.078013e+003, 1.382041e-001
1.079941e+003, 1.320527e-001
1.081870e+003, 1.260466e-001
1.083798e+003, 1.200835e-001
1.085727e+003, 1.146061e-001
1.087655e+003, 1.092656e-001
1.089584e+003, 1.040469e-001
1.091512e+003, 9.916561e-002
1.093441e+003, 9.439773e-002
1.095369e+003, 8.974897e-002
1.097297e+003, 8.554408e-002
1.099226e+003, 8.136995e-002
1.101154e+003, 7.732361e-002
1.103083e+003, 7.353024e-002
1.105011e+003, 6.990544e-002
1.106940e+003, 6.634198e-002
1.108868e+003, 6.305256e-002
1.110797e+003, 5.998168e-002
1.112725e+003, 5.709030e-002
1.114654e+003, 5.458981e-002
1.116582e+003, 5.233302e-002
1.118511e+003, 5.017162e-002
1.120439e+003, 4.824923e-002
1.122368e+003, 4.654492e-002
1.124296e+003, 4.484991e-002
1.126224e+003, 4.339819e-002
1.128153e+003, 4.223953e-002
1.130081e+003, 4.115561e-002
1.132010e+003, 4.015255e-002
1.133938e+003, 3.947808e-002
1.135867e+003, 3.902579e-002
1.137795e+003, 3.870774e-002
1.139724e+003, 3.875232e-002
1.141652e+003, 3.914305e-002
1.143581e+003, 3.996603e-002
1.145509e+003, 4.126392e-002
1.147438e+003, 4.336886e-002
1.149366e+003, 4.590184e-002
1.151295e+003, 4.831736e-002
1.153223e+003, 4.996763e-002
1.155151e+003, 4.980368e-002
1.157080e+003, 4.745166e-002
1.159008e+003, 4.386053e-002
1.160937e+003, 3.997432e-002
1.162865e+003, 3.655928e-002
1.164794e+003, 3.366777e-002
1.166722e+003, 3.119851e-002
1.168651e+003, 2.918464e-002
1.170579e+003, 2.759672e-002
1.172508e+003, 2.630093e-002
1.174436e+003, 2.528596e-002
1.176365e+003, 2.431296e-002
1.178293e+003, 2.339529e-002
1.180222e+003, 2.279061e-002
1.182150e+003, 2.233958e-002
1.184078e+003, 2.172165e-002
1.186007e+003, 2.114909e-002
1.187935e+003, 2.076243e-002
1.189864e+003, 2.040706e-002
1.191792e+003, 2.003993e-002
1.193721e+003, 1.959943e-002
1.195649e+003, 1.927726e-002
1.197578e+003, 1.906412e-002
1.199506e+003, 1.867397e-002
1.201435e+003, 1.832869e-002
1.203363e+003, 1.807670e-002
1.205292e+003, 1.774501e-002
1.207220e+003, 1.739545e-002
1.209149e+003, 1.716350e-002
1.211077e+003, 1.702813e-002
1.213005e+003, 1.685622e-002
1.214934e+003, 1.650674e-002
1.216862e+003, 1.625966e-002
1.218791e+003, 1.606217e-002
1.220719e+003, 1.581227e-002
1.222648e+003, 1.561208e-002
1.224576e+003, 1.558690e-002
1.226505e+003, 1.551817e-002
1.228433e+003, 1.532441e-002
1.230362e+003, 1.515572e-002
1.232290e+003, 1.496995e-002
1.234219e+003, 1.485407e-002
1.236147e+003, 1.468151e-002
1.238076e+003, 1.448818e-002
1.240004e+003, 1.448829e-002
1.241932e+003, 1.455284e-002
1.243861e+003, 1.447895e-002
1.245789e+003, 1.427075e-002
1.247718e+003, 1.421326e-002
1.249646e+003, 1.424127e-002
1.251575e+003, 1.416108e-002
1.253503e+003, 1.412079e-002
1.255432e+003, 1.411460e-002
1.257360e+003, 1.413127e-002
1.259289e+003, 1.414267e-002
1.261217e+003, 1.413135e-002
1.263146e+003, 1.417495e-002
1.265074e+003, 1.428736e-002
1.267003e+003, 1.435395e-002
1.268931e+003, 1.427931e-002
1.270859e+003, 1.429250e-002
1.272788e+003, 1.442581e-002
1.274716e+003, 1.452805e-002
1.276645e+003, 1.461135e-002
1.278573e+003, 1.461316e-002
1.280502e+003, 1.470145e-002
1.282430e+003, 1.472866e-002
1.284359e+003, 1.464656e-002
1.286287e+003, 1.462366e-002
1.288216e+003, 1.457320e-002
1.290144e+003, 1.463495e-002
1.292073e+003, 1.472806e-002
1.294001e+003, 1.479318e-002
1.295930e+003, 1.479279e-002
1.297858e+003, 1.477039e-002
1.299786e+003, 1.482576e-002
1.301715e+003, 1.491759e-002
1.303643e+003, 1.487139e-002
1.305572e+003, 1.481026e-002
1.307500e+003, 1.496441e-002
1.309429e+003, 1.513015e-002
1.311357e+003, 1.518341e-002
1.313286e+003, 1.515957e-002
1.315214e+003, 1.506495e-002
1.317143e+003, 1.502624e-002
1.319071e+003, 1.514768e-002
1.321000e+003, 1.518263e-002
1.322928e+003, 1.522685e-002
1.324857e+003, 1.535062e-002
1.326785e+003, 1.539071e-002
1.328714e+003, 1.551207e-002
1.330642e+003, 1.547136e-002
1.332570e+003, 1.548149e-002
1.334499e+003, 1.546861e-002
1.336427e+003, 1.548978e-002
1.338356e+003, 1.550621e-002
1.340284e+003, 1.552312e-002
1.342213e+003, 1.558785e-002
1.344141e+003, 1.575165e-002
1.346070e+003, 1.583689e-002
1.347998e+003, 1.577575e-002
1.349927e+003, 1.579372e-002
1.351855e+003, 1.589498e-002
1.353784e+003, 1.588991e-002
1.355712e+003, 1.587516e-002
1.357641e+003, 1.609460e-002
1.359569e+003, 1.623321e-002
1.361497e+003, 1.612433e-002
1.363426e+003, 1.611722e-002
1.365354e+003, 1.635362e-002
1.367283e+003, 1.646484e-002
1.369211e+003, 1.652878e-002
1.371140e+003, 1.655912e-002
1.373068e+003, 1.656430e-002
1.374997e+003, 1.666046e-002
1.376925e+003, 1.686133e-002
1.378854e+003, 1.696949e-002
1.380782e+003, 1.706180e-002
1.382711e+003, 1.714220e-002
1.384639e+003, 1.722045e-002
1.386568e+003, 1.710021e-002
1.388496e+003, 1.724384e-002
1.390424e+003, 1.755235e-002
1.392353e+003, 1.771231e-002
1.394281e+003, 1.766625e-002
1.396210e+003, 1.785398e-002
1.398138e+003, 1.800027e-002
1.400067e+003, 1.811399e-002
1.401995e+003, 1.832700e-002
1.403924e+003, 1.834104e-002
1.405852e+003, 1.840694e-002
1.407781e+003, 1.863659e-002
1.409709e+003, 1.882538e-002
1.411638e+003, 1.900266e-002
1.413566e+003, 1.902519e-002
1.415495e+003, 1.906188e-002
1.417423e+003, 1.897523e-002
1.419351e+003, 1.894367e-002
1.421280e+003, 1.934311e-002
1.423208e+003, 1.965549e-002
1.425137e+003, 1.999442e-002
1.427065e+003, 2.019810e-002
1.428994e+003, 2.022999e-002
1.430922e+003, 2.042870e-002
1.432851e+003, 2.063186e-002
1.434779e+003, 2.038355e-002
1.436708e+003, 2.009388e-002
1.438636e+003, 2.056617e-002
1.440565e+003, 2.094368e-002
1.442493e+003, 2.105208e-002
1.444422e+003, 2.105563e-002
1.446350e+003, 2.109702e-002
1.448278e+003, 2.113642e-002
1.450207e+003, 2.130447e-002
1.452135e+003, 2.143060e-002
1.454064e+003, 2.127870e-002
1.455992e+003, 2.055852e-002
1.457921e+003, 2.076283e-002
1.459849e+003, 2.160555e-002
1.461778e+003, 2.178560e-002
1.463706e+003, 2.154041e-002
1.465635e+003, 2.152674e-002
1.467563e+003, 2.190901e-002
1.469492e+003, 2.198296e-002
1.471420e+003, 2.161802e-002
1.473349e+003, 2.168139e-002
1.475277e+003, 2.220157e-002
1.477205e+003, 2.258575e-002
1.479134e+003, 2.300112e-002
1.481062e+003, 2.324670e-002
1.482991e+003, 2.349113e-002
1.484919e+003, 2.352162e-002
1.486848e+003, 2.338649e-002
1.488776e+003, 2.336348e-002
1.490705e+003, 2.360845e-002
1.492633e+003, 2.405014e-002
1.494562e+003, 2.407252e-002
1.496490e+003, 2.387701e-002
1.498419e+003, 2.414099e-002
1.500347e+003, 2.464445e-002
1.502276e+003, 2.497535e-002
1.504204e+003, 2.435105e-002
1.506132e+003, 2.355385e-002
1.508061e+003, 2.424007e-002
1.509989e+003, 2.526955e-002
1.511918e+003, 2.562110e-002
1.513846e+003, 2.583703e-002
1.515775e+003, 2.590844e-002
1.517703e+003, 2.610190e-002
1.519632e+003, 2.591058e-002
1.521560e+003, 2.571447e-002
1.523489e+003, 2.639254e-002
1.525417e+003, 2.685289e-002
1.527346e+003, 2.736511e-002
1.529274e+003, 2.796222e-002
1.531203e+003, 2.816445e-002
1.533131e+003, 2.800206e-002
1.535059e+003, 2.852959e-002
1.536988e+003, 2.868435e-002
1.538916e+003, 2.789324e-002
1.540845e+003, 2.821911e-002
1.542773e+003, 2.940595e-002
1.544702e+003, 3.019654e-002
1.546630e+003, 3.104562e-002
1.548559e+003, 3.166252e-002
1.550487e+003, 3.199889e-002
1.552416e+003, 3.206178e-002
1.554344e+003, 3.225091e-002
1.556273e+003, 3.250737e-002
1.558201e+003, 3.191493e-002
1.560130e+003, 3.272181e-002
1.562058e+003, 3.463997e-002
1.563986e+003, 3.559448e-002
1.565915e+003, 3.633673e-002
1.567843e+003, 3.678487e-002
1.569772e+003, 3.726545e-002
1.571700e+003, 3.831230e-002
1.573629e+003, 3.891595e-002
1.575557e+003, 3.890600e-002
1.577486e+003, 4.009946e-002
1.579414e+003, 4.174547e-002
1.581343e+003, 4.273012e-002
1.583271e+003, 4.362687e-002
1.585200e+003, 4.432972e-002
1.587128e+003, 4.527627e-002
1.589057e+003, 4.629962e-002
1.590985e+003, 4.737885e-002
1.592913e+003, 4.837173e-002
1.594842e+003, 4.947161e-002
1.596770e+003, 5.061467e-002
1.598699e+003, 5.174002e-002
1.600627e+003, 5.290201e-002
1.602556e+003, 5.416431e-002
1.604484e+003, 5.522251e-002
1.606413e+003, 5.622763e-002
1.608341e+003, 5.737089e-002
1.610270e+003, 5.855214e-002
1.612198e+003, 5.953390e-002
1.614127e+003, 6.008357e-002
1.616055e+003, 5.995021e-002
1.617984e+003, 6.091955e-002
1.619912e+003, 6.212491e-002
1.621840e+003, 6.216917e-002
1.623769e+003, 6.207980e-002
1.625697e+003, 6.234272e-002
1.627626e+003, 6.235265e-002
1.629554e+003, 6.234691e-002
1.631483e+003, 6.240570e-002
1.633411e+003, 6.175735e-002
1.635340e+003, 6.072822e-002
1.637268e+003, 6.086265e-002
1.639197e+003, 6.133667e-002
1.641125e+003, 6.139229e-002
1.643054e+003, 6.099238e-002
1.644982e+003, 5.990342e-002
1.646911e+003, 5.913150e-002
1.648839e+003, 5.903674e-002
1.650767e+003, 5.761065e-002
1.652696e+003, 5.510627e-002
1.654624e+003, 5.518401e-002
1.656553e+003, 5.560972e-002
1.658481e+003, 5.474849e-002
1.660410e+003, 5.341040e-002
1.662338e+003, 5.176235e-002
1.664267e+003, 5.051095e-002
1.666195e+003, 4.916628e-002
1.668124e+003, 4.738159e-002
1.670052e+003, 4.587526e-002
1.671981e+003, 4.451339e-002
1.673909e+003, 4.253047e-002
1.675838e+003, 4.089442e-002
1.677766e+003, 3.988454e-002
1.679694e+003, 3.832909e-002
1.681623e+003, 3.652162e-002
1.683551e+003, 3.397109e-002
1.685480e+003, 3.256243e-002
1.687408e+003, 3.233307e-002
1.689337e+003, 3.142645e-002
1.691265e+003, 3.035978e-002
1.693194e+003, 2.889705e-002
1.695122e+003, 2.693747e-002
1.697051e+003, 2.621173e-002
1.698979e+003, 2.523789e-002
1.700908e+003, 2.428888e-002
1.702836e+003, 2.459507e-002
1.704765e+003, 2.401142e-002
1.706693e+003, 2.361620e-002
1.708621e+003, 2.315741e-002
1.710550e+003, 2.266208e-002
1.712478e+003, 2.189826e-002
1.714407e+003, 2.106734e-002
1.716335e+003, 1.989775e-002
1.718264e+003, 1.963943e-002
1.720192e+003, 2.010229e-002
1.722121e+003, 1.998223e-002
1.724049e+003, 1.945353e-002
1.725978e+003, 1.887603e-002
1.727906e+003, 1.835921e-002
1.729835e+003, 1.792152e-002
1.731763e+003, 1.706482e-002
1.733692e+003, 1.611522e-002
1.735620e+003, 1.644795e-002
1.737548e+003, 1.675025e-002
1.739477e+003, 1.639985e-002
1.741405e+003, 1.642027e-002
1.743334e+003, 1.646797e-002
1.745262e+003, 1.681621e-002
1.747191e+003, 1.692785e-002
1.749119e+003, 1.663428e-002
1.751048e+003, 1.631004e-002
1.752976e+003, 1.684648e-002
1.754905e+003, 1.707037e-002
1.756833e+003, 1.693895e-002
1.758762e+003, 1.707255e-002
1.760690e+003, 1.707677e-002
1.762619e+003, 1.731809e-002
1.764547e+003, 1.760417e-002
1.766475e+003, 1.721495e-002
1.768404e+003, 1.697018e-002
1.770332e+003, 1.678092e-002
1.772261e+003, 1.645610e-002
1.774189e+003, 1.691284e-002
1.776118e+003, 1.737067e-002
1.778046e+003, 1.748148e-002
1.779975e+003, 1.747372e-002
1.781903e+003, 1.735992e-002
1.783832e+003, 1.720839e-002
1.785760e+003, 1.733626e-002
1.787689e+003, 1.757943e-002
1.789617e+003, 1.747097e-002
1.791546e+003, 1.690374e-002
1.793474e+003, 1.680534e-002
1.795402e+003, 1.726333e-002
1.797331e+003, 1.731548e-002
1.799259e+003, 1.702788e-002
1.801188e+003, 1.691787e-002
1.803116e+003, 1.722206e-002
1.805045e+003, 1.747247e-002
1.806973e+003, 1.751520e-002
1.808902e+003, 1.743424e-002
1.810830e+003, 1.763039e-002
1.812759e+003, 1.766169e-002
1.814687e+003, 1.748011e-002
1.816616e+003, 1.734072e-002
1.818544e+003, 1.758269e-002
1.820473e+003, 1.777479e-002
1.822401e+003, 1.788830e-002
1.824329e+003, 1.766749e-002
1.826258e+003, 1.754102e-002
1.828186e+003, 1.754164e-002
1.830115e+003, 1.752692e-002
1.832043e+003, 1.779520e-002
1.833972e+003, 1.789162e-002
1.835900e+003, 1.809118e-002
1.837829e+003, 1.837896e-002
1.839757e+003, 1.830911e-002
1.841686e+003, 1.804245e-002
1.843614e+003, 1.770641e-002
1.845543e+003, 1.795228e-002
1.847471e+003, 1.823682e-002
1.849400e+003, 1.812209e-002
1.851328e+003, 1.809664e-002
1.853256e+003, 1.836850e-002
1.855185e+003, 1.852705e-002
1.857113e+003, 1.839860e-002
1.859042e+003, 1.829565e-002
1.860970e+003, 1.829419e-002
1.862899e+003, 1.827192e-002
1.864827e+003, 1.825349e-002
1.866756e+003, 1.806230e-002
1.868684e+003, 1.794712e-002
1.870613e+003, 1.804004e-002
1.872541e+003, 1.831688e-002
1.874470e+003, 1.857462e-002
1.876398e+003, 1.846735e-002
1.878327e+003, 1.858648e-002
1.880255e+003, 1.874828e-002
1.882183e+003, 1.859779e-002
1.884112e+003, 1.853452e-002
1.886040e+003, 1.858718e-002
1.887969e+003, 1.828188e-002
1.889897e+003, 1.786141e-002
1.891826e+003, 1.804724e-002
1.893754e+003, 1.789979e-002
1.895683e+003, 1.792482e-002
1.897611e+003, 1.862030e-002
1.899540e+003, 1.882176e-002
1.901468e+003, 1.845692e-002
1.903397e+003, 1.881771e-002
1.905325e+003, 1.872654e-002
1.907254e+003, 1.801085e-002
1.909182e+003, 1.816613e-002
1.911110e+003, 1.836612e-002
1.913039e+003, 1.787453e-002
1.914967e+003, 1.758116e-002
1.916896e+003, 1.753108e-002
1.918824e+003, 1.795392e-002
1.920753e+003, 1.803641e-002
1.922681e+003, 1.784037e-002
1.924610e+003, 1.768324e-002
1.926538e+003, 1.761829e-002
1.928467e+003, 1.778557e-002
1.930395e+003, 1.769079e-002
1.932324e+003, 1.731334e-002
1.934252e+003, 1.701427e-002
1.936181e+003, 1.724861e-002
1.938109e+003, 1.805720e-002
1.940037e+003, 1.793464e-002
1.941966e+003, 1.723993e-002
1.943894e+003, 1.691547e-002
1.945823e+003, 1.655510e-002
1.947751e+003, 1.643950e-002
1.949680e+003, 1.690887e-002
1.951608e+003, 1.694189e-002
1.953537e+003, 1.638194e-002
1.955465e+003, 1.598887e-002
1.957394e+003, 1.602116e-002
1.959322e+003, 1.625780e-002
1.961251e+003, 1.644968e-002
1.963179e+003, 1.581540e-002
1.965108e+003, 1.534560e-002
1.967036e+003, 1.465563e-002
1.968964e+003, 1.502806e-002
1.970893e+003, 1.565631e-002
1.972821e+003, 1.488043e-002
1.974750e+003, 1.506283e-002
1.976678e+003, 1.673634e-002
1.978607e+003, 1.742109e-002
1.980535e+003, 1.725701e-002
1.982464e+003, 1.623532e-002
1.984392e+003, 1.645014e-002
1.986321e+003, 1.724222e-002
1.988249e+003, 1.680596e-002
1.990178e+003, 1.650119e-002
1.992106e+003, 1.626485e-002
1.994035e+003, 1.541147e-002
1.995963e+003, 1.607729e-002
1.997891e+003, 1.607846e-002
1.999820e+003, 1.600940e-002
2.001748e+003, 1.590513e-002
2.003677e+003, 1.459572e-002
2.005605e+003, 1.377937e-002
2.007534e+003, 1.457627e-002
2.009462e+003, 1.606455e-002
2.011391e+003, 1.632323e-002
2.013319e+003, 1.541813e-002
2.015248e+003, 1.544907e-002
2.017176e+003, 1.562040e-002
2.019105e+003, 1.499103e-002
2.021033e+003, 1.412364e-002
2.022962e+003, 1.429366e-002
2.024890e+003, 1.529829e-002
2.026818e+003, 1.549458e-002
2.028747e+003, 1.568866e-002
2.030675e+003, 1.615156e-002
2.032604e+003, 1.587371e-002
2.034532e+003, 1.608996e-002
2.036461e+003, 1.625407e-002
2.038389e+003, 1.621278e-002
2.040318e+003, 1.616078e-002
2.042246e+003, 1.698664e-002
2.044175e+003, 1.749909e-002
2.046103e+003, 1.717947e-002
2.048031e+003, 1.747764e-002
2.049960e+003, 1.772584e-002
2.051888e+003, 1.709782e-002
2.053817e+003, 1.708808e-002
2.055745e+003, 1.735370e-002
2.057674e+003, 1.770540e-002
2.059602e+003, 1.802818e-002
2.061531e+003, 1.811483e-002
2.063459e+003, 1.819541e-002
2.065388e+003, 1.853547e-002
2.067316e+003, 1.902128e-002
2.069245e+003, 1.897502e-002
2.071173e+003, 1.828429e-002
2.073102e+003, 1.805817e-002
2.075030e+003, 1.849974e-002
2.076958e+003, 1.854721e-002
2.078887e+003, 1.844470e-002
2.080815e+003, 1.881302e-002
2.082744e+003, 1.908880e-002
2.084672e+003, 1.900863e-002
2.086601e+003, 1.848576e-002
2.088529e+003, 1.816757e-002
2.090458e+003, 1.790469e-002
2.092386e+003, 1.773009e-002
2.094315e+003, 1.788061e-002
2.096243e+003, 1.877969e-002
2.098172e+003, 1.888973e-002
2.100100e+003, 1.874094e-002
2.102029e+003, 1.975402e-002
2.103957e+003, 2.056179e-002
2.105885e+003, 2.013486e-002
2.107814e+003, 1.924903e-002
2.109742e+003, 1.923216e-002
2.111671e+003, 1.958062e-002
2.113599e+003, 1.974740e-002
2.115528e+003, 1.947404e-002
2.117456e+003, 1.898349e-002
2.119385e+003, 1.936309e-002
2.121313e+003, 1.989445e-002
2.123242e+003, 1.958005e-002
2.125170e+003, 1.904164e-002
2.127099e+003, 1.878448e-002
2.129027e+003, 1.839391e-002
2.130956e+003, 1.768073e-002
2.132884e+003, 1.689087e-002
2.134813e+003, 1.701673e-002
2.136741e+003, 1.804407e-002
2.138669e+003, 1.924789e-002
2.140598e+003, 1.851225e-002
2.142526e+003, 1.731845e-002
2.144455e+003, 1.717928e-002
2.146383e+003, 1.773857e-002
2.148312e+003, 1.794003e-002
2.150240e+003, 1.778584e-002
2.152169e+003, 1.717868e-002
2.154097e+003, 1.629988e-002
2.156026e+003, 1.567267e-002
2.157954e+003, 1.726791e-002
2.159883e+003, 2.030684e-002
2.161811e+003, 2.121658e-002
2.163740e+003, 2.139237e-002
2.165668e+003, 2.255835e-002
2.167596e+003, 2.241161e-002
2.169525e+003, 2.143678e-002
2.171453e+003, 2.076038e-002
2.173382e+003, 1.985811e-002
2.175310e+003, 1.971395e-002
2.177239e+003, 2.050106e-002
2.179167e+003, 2.067360e-002
2.181096e+003, 2.017697e-002
2.183024e+003, 2.017457e-002
2.184953e+003, 2.118958e-002
2.186881e+003, 2.201146e-002
2.188810e+003, 2.151040e-002
2.190738e+003, 2.156663e-002
2.192667e+003, 2.271256e-002
2.194595e+003, 2.281535e-002
2.196523e+003, 2.263595e-002
2.198452e+003, 2.304371e-002
2.200380e+003, 2.259298e-002
2.202309e+003, 2.222746e-002
2.204237e+003, 2.218100e-002
2.206166e+003, 2.190254e-002
2.208094e+003, 2.204925e-002
2.210023e+003, 2.269580e-002
2.211951e+003, 2.302574e-002
2.213880e+003, 2.273166e-002
2.215808e+003, 2.240925e-002
2.217737e+003, 2.206403e-002
2.219665e+003, 2.162896e-002
2.221594e+003, 2.251267e-002
2.223522e+003, 2.334090e-002
2.225450e+003, 2.327035e-002
2.227379e+003, 2.338683e-002
2.229307e+003, 2.301600e-002
2.231236e+003, 2.328896e-002
2.233164e+003, 2.380620e-002
2.235093e+003, 2.339439e-002
2.237021e+003, 2.309557e-002
2.238950e+003, 2.348499e-002
2.240878e+003, 2.432326e-002
2.242807e+003, 2.485932e-002
2.244735e+003, 2.476221e-002
2.246664e+003, 2.482571e-002
2.248592e+003, 2.479582e-002
2.250521e+003, 2.464477e-002
2.252449e+003, 2.438634e-002
2.254377e+003, 2.493401e-002
2.256306e+003, 2.549169e-002
2.258234e+003, 2.549943e-002
2.260163e+003, 2.578449e-002
2.262091e+003, 2.556029e-002
2.264020e+003, 2.484545e-002
2.265948e+003, 2.483004e-002
2.267877e+003, 2.569345e-002
2.269805e+003, 2.641935e-002
2.271734e+003, 2.647225e-002
2.273662e+003, 2.674626e-002
2.275591e+003, 2.695877e-002
2.277519e+003, 2.717853e-002
2.279448e+003, 2.739603e-002
2.281376e+003, 2.758483e-002
2.283304e+003, 2.771200e-002
2.285233e+003, 2.844517e-002
2.287161e+003, 2.855371e-002
2.289090e+003, 2.826544e-002
2.291018e+003, 2.811097e-002
2.292947e+003, 2.836474e-002
2.294875e+003, 2.842896e-002
2.296804e+003, 2.835764e-002
2.298732e+003, 2.830301e-002
2.300661e+003, 2.832723e-002
2.302589e+003, 2.849430e-002
2.304518e+003, 2.892679e-002
2.306446e+003, 2.913201e-002
2.308375e+003, 2.944335e-002
2.310303e+003, 2.982630e-002
2.312231e+003, 2.965706e-002
2.314160e+003, 2.933704e-002
2.316088e+003, 2.957019e-002
2.318017e+003, 2.975895e-002
2.319945e+003, 3.016271e-002
2.321874e+003, 3.056495e-002
2.323802e+003, 3.073646e-002
2.325731e+003, 3.040398e-002
2.327659e+003, 3.002137e-002
2.329588e+003, 2.966409e-002
2.331516e+003, 2.954729e-002
2.333445e+003, 2.982833e-002
2.335373e+003, 3.006252e-002
2.337302e+003, 2.995341e-002
2.339230e+003, 2.973276e-002
2.341158e+003, 2.953899e-002
2.343087e+003, 2.959178e-002
2.345015e+003, 2.979933e-002
2.346944e+003, 2.987236e-002
2.348872e+003, 2.971628e-002
2.350801e+003, 2.969353e-002
2.352729e+003, 2.978867e-002
2.354658e+003, 2.997786e-002
2.356586e+003, 3.020352e-002
2.358515e+003, 3.043495e-002
2.360443e+003, 3.021574e-002
2.362372e+003, 2.988618e-002
2.364300e+003, 2.982968e-002
2.366229e+003, 2.967670e-002
2.368157e+003, 2.960292e-002
2.370085e+003, 2.972257e-002
2.372014e+003, 3.000193e-002
2.373942e+003, 3.004220e-002
2.375871e+003, 2.992032e-002
2.377799e+003, 2.989708e-002
2.379728e+003, 3.006403e-002
2.381656e+003, 3.024520e-002
2.383585e+003, 3.019463e-002
2.385513e+003, 2.993459e-002
2.387442e+003, 2.981411e-002
2.389370e+003, 2.964274e-002
2.391299e+003, 2.969871e-002
2.393227e+003, 2.990913e-002
2.395156e+003, 3.002847e-002
2.397084e+003, 2.961194e-002
2.399012e+003, 2.922505e-002
2.400941e+003, 2.940294e-002
2.402869e+003, 2.969373e-002
2.404798e+003, 3.009023e-002
2.406726e+003, 3.025250e-002
2.408655e+003, 3.046456e-002
2.410583e+003, 3.055531e-002
2.412512e+003, 3.051062e-002
2.414440e+003, 3.042185e-002
2.416369e+003, 3.036760e-002
2.418297e+003, 3.057092e-002
2.420226e+003, 3.083649e-002
2.422154e+003, 3.085105e-002
2.424083e+003, 3.082856e-002
2.426011e+003, 3.079274e-002
2.427939e+003, 3.053082e-002
2.429868e+003, 3.045612e-002
2.431796e+003, 3.053354e-002
2.433725e+003, 3.079816e-002
2.435653e+003, 3.100712e-002
2.437582e+003, 3.101787e-002
2.439510e+003, 3.125875e-002
2.441439e+003, 3.152320e-002
2.443367e+003, 3.154468e-002
2.445296e+003, 3.141901e-002
2.447224e+003, 3.187852e-002
2.449153e+003, 3.189202e-002
2.451081e+003, 3.158461e-002
2.453010e+003, 3.146337e-002
2.454938e+003, 3.147319e-002
2.456866e+003, 3.153271e-002
2.458795e+003, 3.186043e-002
2.460723e+003, 3.213469e-002
2.462652e+003, 3.239039e-002
2.464580e+003, 3.232476e-002
2.466509e+003, 3.198338e-002
2.468437e+003, 3.200847e-002
2.470366e+003, 3.239626e-002
2.472294e+003, 3.231163e-002
2.474223e+003, 3.215148e-002
2.476151e+003, 3.215786e-002
2.478080e+003, 3.247609e-002
2.480008e+003, 3.275165e-002
2.481937e+003, 3.262589e-002
2.483865e+003, 3.261935e-002
2.485793e+003, 3.327731e-002
2.487722e+003, 3.346074e-002
2.489650e+003, 3.320040e-002
2.491579e+003, 3.310898e-002
2.493507e+003, 3.293521e-002
2.495436e+003, 3.315103e-002
2.497364e+003, 3.378599e-002
2.499293e+003, 3.392016e-002
2.501221e+003, 3.390298e-002
2.503150e+003, 3.401520e-002
2.505078e+003, 3.416765e-002
2.507007e+003, 3.411424e-002
2.508935e+003, 3.390513e-002
2.510864e+003, 3.374935e-002
2.512792e+003, 3.383255e-002
2.514720e+003, 3.366301e-002
2.516649e+003, 3.375814e-002
2.518577e+003, 3.448449e-002
2.520506e+003, 3.498745e-002
2.522434e+003, 3.486002e-002
2.524363e+003, 3.506741e-002
2.526291e+003, 3.537806e-002
2.528220e+003, 3.546624e-002
2.530148e+003, 3.547147e-002
2.532077e+003, 3.545674e-002
2.534005e+003, 3.566100e-002
2.535934e+003, 3.565629e-002
2.537862e+003, 3.520666e-002
2.539791e+003, 3.522195e-002
2.541719e+003, 3.547105e-002
2.543647e+003, 3.566099e-002
2.545576e+003, 3.583778e-002
2.547504e+003, 3.605040e-002
2.549433e+003, 3.610274e-002
2.551361e+003, 3.607013e-002
2.553290e+003, 3.627780e-002
2.555218e+003, 3.622280e-002
2.557147e+003, 3.632324e-002
2.559075e+003, 3.656048e-002
2.561004e+003, 3.692053e-002
2.562932e+003, 3.717924e-002
2.564861e+003, 3.709386e-002
2.566789e+003, 3.677036e-002
2.568718e+003, 3.704502e-002
2.570646e+003, 3.717005e-002
2.572574e+003, 3.705897e-002
2.574503e+003, 3.731807e-002
2.576431e+003, 3.722184e-002
2.578360e+003, 3.706318e-002
2.580288e+003, 3.735004e-002
2.582217e+003, 3.778273e-002
2.584145e+003, 3.813644e-002
2.586074e+003, 3.859998e-002
2.588002e+003, 3.860915e-002
2.589931e+003, 3.850960e-002
2.591859e+003, 3.860733e-002
2.593788e+003, 3.878824e-002
2.595716e+003, 3.915069e-002
2.597645e+003, 3.970896e-002
2.599573e+003, 3.972068e-002
2.601501e+003, 3.961265e-002
2.603430e+003, 3.981536e-002
2.605358e+003, 3.987784e-002
2.607287e+003, 3.978629e-002
2.609215e+003, 4.007632e-002
2.611144e+003, 4.051250e-002
2.613072e+003, 4.036046e-002
2.615001e+003, 4.026016e-002
2.616929e+003, 4.092482e-002
2.618858e+003, 4.128174e-002
2.620786e+003, 4.128018e-002
2.622715e+003, 4.140409e-002
2.624643e+003, 4.166201e-002
2.626572e+003, 4.186387e-002
2.628500e+003, 4.196897e-002
2.630428e+003, 4.188322e-002
2.632357e+003, 4.208059e-002
2.634285e+003, 4.242434e-002
2.636214e+003, 4.282938e-002
2.638142e+003, 4.298413e-002
2.640071e+003, 4.320801e-002
2.641999e+003, 4.342467e-002
2.643928e+003, 4.353616e-002
2.645856e+003, 4.358795e-002
2.647785e+003, 4.389585e-002
2.649713e+003, 4.428753e-002
2.651642e+003, 4.437035e-002
2.653570e+003, 4.461500e-002
2.655499e+003, 4.501982e-002
2.657427e+003, 4.513116e-002
2.659355e+003, 4.512039e-002
2.661284e+003, 4.520665e-002
2.663212e+003, 4.538496e-002
2.665141e+003, 4.566757e-002
2.667069e+003, 4.559058e-002
2.668998e+003, 4.550968e-002
2.670926e+003, 4.587165e-002
2.672855e+003, 4.618813e-002
2.674783e+003, 4.648884e-002
2.676712e+003, 4.670395e-002
2.678640e+003, 4.696998e-002
2.680569e+003, 4.750986e-002
2.682497e+003, 4.748228e-002
2.684426e+003, 4.738653e-002
2.686354e+003, 4.757828e-002
2.688282e+003, 4.801554e-002
2.690211e+003, 4.849190e-002
2.692139e+003, 4.847329e-002
2.694068e+003, 4.875945e-002
2.695996e+003, 4.923130e-002
2.697925e+003, 4.944237e-002
2.699853e+003, 4.961862e-002
2.701782e+003, 5.010578e-002
2.703710e+003, 5.039719e-002
2.705639e+003, 5.065391e-002
2.707567e+003, 5.089628e-002
2.709496e+003, 5.111283e-002
2.711424e+003, 5.162088e-002
2.713353e+003, 5.213121e-002
2.715281e+003, 5.261549e-002
2.717209e+003, 5.268129e-002
2.719138e+003, 5.266414e-002
2.721066e+003, 5.308637e-002
2.722995e+003, 5.349181e-002
2.724923e+003, 5.387331e-002
2.726852e+003, 5.428889e-002
2.728780e+003, 5.435482e-002
2.730709e+003, 5.426432e-002
2.732637e+003, 5.478537e-002
2.734566e+003, 5.553724e-002
2.736494e+003, 5.609043e-002
2.738423e+003, 5.626266e-002
2.740351e+003, 5.650222e-002
2.742280e+003, 5.715213e-002
2.744208e+003, 5.749362e-002
2.746136e+003, 5.735996e-002
2.748065e+003, 5.772914e-002
2.749993e+003, 5.854856e-002
2.751922e+003, 5.895903e-002
2.753850e+003, 5.920120e-002
2.755779e+003, 5.980770e-002
2.757707e+003, 5.994695e-002
2.759636e+003, 6.014059e-002
2.761564e+003, 6.064249e-002
2.763493e+003, 6.104675e-002
2.765421e+003, 6.139819e-002
2.767350e+003, 6.190421e-002
2.769278e+003, 6.225470e-002
2.771207e+003, 6.258983e-002
2.773135e+003, 6.312847e-002
2.775063e+003, 6.370853e-002
2.776992e+003, 6.430839e-002
2.778920e+003, 6.461841e-002
2.780849e+003, 6.493022e-002
2.782777e+003, 6.567414e-002
2.784706e+003, 6.618523e-002
2.786634e+003, 6.649617e-002
2.788563e+003, 6.705770e-002
2.790491e+003, 6.778414e-002
2.792420e+003, 6.820256e-002
2.794348e+003, 6.850699e-002
2.796277e+003, 6.893244e-002
2.798205e+003, 6.913042e-002
2.800134e+003, 6.945613e-002
2.802062e+003, 7.037964e-002
2.803990e+003, 7.119478e-002
2.805919e+003, 7.155260e-002
2.807847e+003, 7.201672e-002
2.809776e+003, 7.251365e-002
2.811704e+003, 7.307862e-002
2.813633e+003, 7.357046e-002
2.815561e+003, 7.413215e-002
2.817490e+003, 7.469863e-002
2.819418e+003, 7.508344e-002
2.821347e+003, 7.562024e-002
2.823275e+003, 7.578765e-002
2.825204e+003, 7.607664e-002
2.827132e+003, 7.688098e-002
2.829061e+003, 7.775372e-002
2.830989e+003, 7.845584e-002
2.832917e+003, 7.905878e-002
2.834846e+003, 7.954318e-002
2.836774e+003, 8.002059e-002
2.838703e+003, 8.033759e-002
2.840631e+003, 8.031994e-002
2.842560e+003, 8.032270e-002
2.844488e+003, 8.027540e-002
2.846417e+003, 7.985719e-002
2.848345e+003, 7.952949e-002
2.850274e+003, 7.991965e-002
2.852202e+003, 8.068493e-002
2.854131e+003, 8.134130e-002
2.856059e+003, 8.215427e-002
2.857988e+003, 8.325012e-002
2.859916e+003, 8.459604e-002
2.861844e+003, 8.546480e-002
2.863773e+003, 8.597336e-002
2.865701e+003, 8.660810e-002
2.867630e+003, 8.712475e-002
2.869558e+003, 8.737128e-002
2.871487e+003, 8.804962e-002
2.873415e+003, 8.873779e-002
2.875344e+003, 8.920668e-002
2.877272e+003, 8.990010e-002
2.879201e+003, 9.053938e-002
2.881129e+003, 9.092429e-002
2.883058e+003, 9.110329e-002
2.884986e+003, 9.178019e-002
2.886915e+003, 9.254038e-002
2.888843e+003, 9.293284e-002
2.890771e+003, 9.312341e-002
2.892700e+003, 9.320896e-002
2.894628e+003, 9.364241e-002
2.896557e+003, 9.408980e-002
2.898485e+003, 9.441929e-002
2.900414e+003, 9.432756e-002
2.902342e+003, 9.426478e-002
2.904271e+003, 9.478752e-002
2.906199e+003, 9.530906e-002
2.908128e+003, 9.521093e-002
2.910056e+003, 9.515535e-002
2.911985e+003, 9.458761e-002
2.913913e+003, 9.378529e-002
2.915842e+003, 9.345527e-002
2.917770e+003, 9.357735e-002
2.919698e+003, 9.364545e-002
2.921627e+003, 9.394661e-002
2.923555e+003, 9.450213e-002
2.925484e+003, 9.515657e-002
2.927412e+003, 9.592756e-002
2.929341e+003, 9.660907e-002
2.931269e+003, 9.711442e-002
2.933198e+003, 9.758757e-002
2.935126e+003, 9.840445e-002
2.937055e+003, 9.919354e-002
2.938983e+003, 9.974387e-002
2.940912e+003, 1.001980e-001
2.942840e+003, 1.007341e-001
2.944769e+003, 1.012402e-001
2.946697e+003, 1.013869e-001
2.948625e+003, 1.017395e-001
2.950554e+003, 1.018419e-001
2.952482e+003, 1.021184e-001
2.954411e+003, 1.025031e-001
2.956339e+003, 1.029013e-001
2.958268e+003, 1.030016e-001
2.960196e+003, 1.031093e-001
2.962125e+003, 1.035482e-001
2.964053e+003, 1.043536e-001
2.965982e+003, 1.045237e-001
2.967910e+003, 1.047433e-001
2.969839e+003, 1.053911e-001
2.971767e+003, 1.058514e-001
2.973696e+003, 1.060941e-001
2.975624e+003, 1.062657e-001
2.977552e+003, 1.059945e-001
2.979481e+003, 1.060858e-001
2.981409e+003, 1.066443e-001
2.983338e+003, 1.072285e-001
2.985266e+003, 1.074008e-001
2.987195e+003, 1.077850e-001
2.989123e+003, 1.081937e-001
2.991052e+003, 1.084156e-001
2.992980e+003, 1.086675e-001
2.994909e+003, 1.090568e-001
2.996837e+003, 1.088591e-001
2.998766e+003, 1.089098e-001
3.000694e+003, 1.092295e-001
3.002623e+003, 1.092494e-001
3.004551e+003, 1.093746e-001
3.006479e+003, 1.098533e-001
3.008408e+003, 1.101833e-001
3.010336e+003, 1.106525e-001
3.012265e+003, 1.107304e-001
3.014193e+003, 1.107803e-001
3.016122e+003, 1.111379e-001
3.018050e+003, 1.116404e-001
3.019979e+003, 1.117880e-001
3.021907e+003, 1.118015e-001
3.023836e+003, 1.119207e-001
3.025764e+003, 1.124956e-001
3.027693e+003, 1.128453e-001
3.029621e+003, 1.127929e-001
3.031550e+003, 1.127835e-001
3.033478e+003, 1.132210e-001
3.035406e+003, 1.138996e-001
3.037335e+003, 1.139898e-001
3.039263e+003, 1.140236e-001
3.041192e+003, 1.145263e-001
3.043120e+003, 1.144764e-001
3.045049e+003, 1.148501e-001
3.046977e+003, 1.152635e-001
3.048906e+003, 1.153612e-001
3.050834e+003, 1.156344e-001
3.052763e+003, 1.161774e-001
3.054691e+003, 1.165360e-001
3.056620e+003, 1.165915e-001
3.058548e+003, 1.165661e-001
3.060477e+003, 1.169691e-001
3.062405e+003, 1.177799e-001
3.064333e+003, 1.179960e-001
3.066262e+003, 1.178823e-001
3.068190e+003, 1.183990e-001
3.070119e+003, 1.185307e-001
3.072047e+003, 1.185902e-001
3.073976e+003, 1.188881e-001
3.075904e+003, 1.190665e-001
3.077833e+003, 1.191605e-001
3.079761e+003, 1.196139e-001
3.081690e+003, 1.198224e-001
3.083618e+003, 1.201907e-001
3.085547e+003, 1.201675e-001
3.087475e+003, 1.202195e-001
3.089404e+003, 1.200435e-001
3.091332e+003, 1.204754e-001
3.093260e+003, 1.210437e-001
3.095189e+003, 1.209598e-001
3.097117e+003, 1.210233e-001
3.099046e+003, 1.215988e-001
3.100974e+003, 1.221850e-001
3.102903e+003, 1.224438e-001
3.104831e+003, 1.225204e-001
3.106760e+003, 1.229373e-001
3.108688e+003, 1.228349e-001
3.110617e+003, 1.228819e-001
3.112545e+003, 1.233080e-001
3.114474e+003, 1.235256e-001
3.116402e+003, 1.237292e-001
3.118331e+003, 1.237026e-001
3.120259e+003, 1.237340e-001
3.122188e+003, 1.239759e-001
3.124116e+003, 1.238588e-001
3.126044e+003, 1.245705e-001
3.127973e+003, 1.250328e-001
3.129901e+003, 1.248753e-001
3.131830e+003, 1.249848e-001
3.133758e+003, 1.254962e-001
3.135687e+003, 1.255994e-001
3.137615e+003, 1.254705e-001
3.139544e+003, 1.255462e-001
3.141472e+003, 1.258415e-001
3.143401e+003, 1.259003e-001
3.145329e+003, 1.260106e-001
3.147258e+003, 1.264816e-001
3.149186e+003, 1.264391e-001
3.151115e+003, 1.262733e-001
3.153043e+003, 1.263263e-001
3.154971e+003, 1.264900e-001
3.156900e+003, 1.272887e-001
3.158828e+003, 1.275638e-001
3.160757e+003, 1.275178e-001
3.162685e+003, 1.275982e-001
3.164614e+003, 1.274878e-001
3.166542e+003, 1.277949e-001
3.168471e+003, 1.273734e-001
3.170399e+003, 1.270479e-001
3.172328e+003, 1.278346e-001
3.174256e+003, 1.283848e-001
3.176185e+003, 1.285044e-001
3.178113e+003, 1.287396e-001
3.180042e+003, 1.289800e-001
3.181970e+003, 1.289320e-001
3.183898e+003, 1.288299e-001
3.185827e+003, 1.289716e-001
3.187755e+003, 1.292182e-001
3.189684e+003, 1.296554e-001
3.191612e+003, 1.298708e-001
3.193541e+003, 1.298732e-001
3.195469e+003, 1.302870e-001
3.197398e+003, 1.305070e-001
3.199326e+003, 1.310303e-001
3.201255e+003, 1.321092e-001
3.203183e+003, 1.325241e-001
3.205112e+003, 1.322029e-001
3.207040e+003, 1.323403e-001
3.208969e+003, 1.325178e-001
3.210897e+003, 1.334350e-001
3.212825e+003, 1.341059e-001
3.214754e+003, 1.340764e-001
3.216682e+003, 1.346831e-001
3.218611e+003, 1.355034e-001
3.220539e+003, 1.358623e-001
3.222468e+003, 1.363594e-001
3.224396e+003, 1.371631e-001
3.226325e+003, 1.379517e-001
3.228253e+003, 1.384845e-001
3.230182e+003, 1.389206e-001
3.232110e+003, 1.396525e-001
3.234039e+003, 1.402634e-001
3.235967e+003, 1.407348e-001
3.237896e+003, 1.414498e-001
3.239824e+003, 1.423374e-001
3.241752e+003, 1.429355e-001
3.243681e+003, 1.436820e-001
3.245609e+003, 1.447055e-001
3.247538e+003, 1.452571e-001
3.249466e+003, 1.458051e-001
3.251395e+003, 1.462251e-001
3.253323e+003, 1.469917e-001
3.255252e+003, 1.476983e-001
3.257180e+003, 1.476768e-001
3.259109e+003, 1.472293e-001
3.261037e+003, 1.467279e-001
3.262966e+003, 1.467569e-001
3.264894e+003, 1.470038e-001
3.266823e+003, 1.465946e-001
3.268751e+003, 1.465084e-001
3.270679e+003, 1.461411e-001
3.272608e+003, 1.452996e-001
3.274536e+003, 1.448220e-001
3.276465e+003, 1.441995e-001
3.278393e+003, 1.436936e-001
3.280322e+003, 1.431433e-001
3.282250e+003, 1.419569e-001
3.284179e+003, 1.408171e-001
3.286107e+003, 1.402176e-001
3.288036e+003, 1.396068e-001
3.289964e+003, 1.391425e-001
3.291893e+003, 1.386991e-001
3.293821e+003, 1.372502e-001
3.295750e+003, 1.360132e-001
3.297678e+003, 1.350885e-001
3.299606e+003, 1.340455e-001
3.301535e+003, 1.332674e-001
3.303463e+003, 1.323694e-001
3.305392e+003, 1.311921e-001
3.307320e+003, 1.297155e-001
3.309249e+003, 1.287797e-001
3.311177e+003, 1.285018e-001
3.313106e+003, 1.274470e-001
3.315034e+003, 1.262759e-001
3.316963e+003, 1.254819e-001
3.318891e+003, 1.249066e-001
3.320820e+003, 1.242539e-001
3.322748e+003, 1.235330e-001
3.324677e+003, 1.231576e-001
3.326605e+003, 1.225141e-001
3.328533e+003, 1.215099e-001
3.330462e+003, 1.207777e-001
3.332390e+003, 1.200996e-001
3.334319e+003, 1.195592e-001
3.336247e+003, 1.192139e-001
3.338176e+003, 1.184604e-001
3.340104e+003, 1.180637e-001
3.342033e+003, 1.185259e-001
3.343961e+003, 1.181068e-001
3.345890e+003, 1.175182e-001
3.347818e+003, 1.171918e-001
3.349747e+003, 1.165282e-001
3.351675e+003, 1.157183e-001
3.353604e+003, 1.154520e-001
3.355532e+003, 1.155803e-001
3.357460e+003, 1.158730e-001
3.359389e+003, 1.155773e-001
3.361317e+003, 1.149021e-001
3.363246e+003, 1.149765e-001
3.365174e+003, 1.153371e-001
3.367103e+003, 1.147477e-001
3.369031e+003, 1.145834e-001
3.370960e+003, 1.149357e-001
3.372888e+003, 1.154611e-001
3.374817e+003, 1.157905e-001
3.376745e+003, 1.160128e-001
3.378674e+003, 1.160711e-001
3.380602e+003, 1.161613e-001
3.382531e+003, 1.169449e-001
3.384459e+003, 1.179486e-001
3.386387e+003, 1.187328e-001
3.388316e+003, 1.197151e-001
3.390244e+003, 1.211431e-001
3.392173e+003, 1.230598e-001
3.394101e+003, 1.245132e-001
3.396030e+003, 1.260742e-001
3.397958e+003, 1.282286e-001
3.399887e+003, 1.298521e-001
3.401815e+003, 1.320892e-001
3.403744e+003, 1.348905e-001
3.405672e+003, 1.376058e-001
3.407601e+003, 1.405022e-001
3.409529e+003, 1.420229e-001
3.411458e+003, 1.426107e-001
3.413386e+003, 1.432143e-001
3.415314e+003, 1.435839e-001
3.417243e+003, 1.429384e-001
3.419171e+003, 1.420521e-001
3.421100e+003, 1.406891e-001
3.423028e+003, 1.383020e-001
3.424957e+003, 1.349812e-001
3.426885e+003, 1.310538e-001
3.428814e+003, 1.267862e-001
3.430742e+003, 1.224931e-001
3.432671e+003, 1.186749e-001
3.434599e+003, 1.151649e-001
3.436528e+003, 1.116829e-001
3.438456e+003, 1.084953e-001
3.440385e+003, 1.051175e-001
3.442313e+003, 1.025885e-001
3.444241e+003, 1.004018e-001
3.446170e+003, 9.809013e-002
3.448098e+003, 9.603866e-002
3.450027e+003, 9.393705e-002
3.451955e+003, 9.243162e-002
3.453884e+003, 9.097068e-002
3.455812e+003, 8.928780e-002
3.457741e+003, 8.803168e-002
3.459669e+003, 8.697955e-002
3.461598e+003, 8.665253e-002
3.463526e+003, 8.585857e-002
3.465455e+003, 8.447132e-002
3.467383e+003, 8.310595e-002
3.469312e+003, 8.198282e-002
3.471240e+003, 8.135584e-002
3.473168e+003, 8.098801e-002
3.475097e+003, 8.004724e-002
3.477025e+003, 7.985941e-002
3.478954e+003, 7.998221e-002
3.480882e+003, 7.945499e-002
3.482811e+003, 7.891118e-002
3.484739e+003, 7.856151e-002
3.486668e+003, 7.834838e-002
3.488596e+003, 7.779779e-002
3.490525e+003, 7.727490e-002
3.492453e+003, 7.663169e-002
3.494382e+003, 7.621677e-002
3.496310e+003, 7.605274e-002
3.498239e+003, 7.571598e-002
3.500167e+003, 7.488943e-002
3.502095e+003, 7.437566e-002
3.504024e+003, 7.402945e-002
3.505952e+003, 7.323050e-002
3.507881e+003, 7.257152e-002
3.509809e+003, 7.220788e-002
3.511738e+003, 7.221766e-002
3.513666e+003, 7.289684e-002
3.515595e+003, 7.320018e-002
3.517523e+003, 7.315511e-002
3.519452e+003, 7.354954e-002
3.521380e+003, 7.355275e-002
3.523309e+003, 7.329112e-002
3.525237e+003, 7.344801e-002
3.527166e+003, 7.445002e-002
3.529094e+003, 7.624777e-002
3.531022e+003, 7.833459e-002
3.532951e+003, 8.031006e-002
3.534879e+003, 8.246198e-002
3.536808e+003, 8.398994e-002
3.538736e+003, 8.522223e-002
3.540665e+003, 8.655813e-002
3.542593e+003, 8.719101e-002
3.544522e+003, 8.689719e-002
3.546450e+003, 8.591162e-002
3.548379e+003, 8.484872e-002
3.550307e+003, 8.369834e-002
3.552236e+003, 8.072573e-002
3.554164e+003, 7.754645e-002
3.556093e+003, 7.385837e-002
3.558021e+003, 6.958490e-002
3.559949e+003, 6.702697e-002
3.561878e+003, 6.486301e-002
3.563806e+003, 6.204576e-002
3.565735e+003, 5.919139e-002
3.567663e+003, 5.820988e-002
3.569592e+003, 5.815097e-002
3.571520e+003, 5.767750e-002
3.573449e+003, 5.643482e-002
3.575377e+003, 5.496619e-002
3.577306e+003, 5.492425e-002
3.579234e+003, 5.516495e-002
3.581163e+003, 5.513910e-002
3.583091e+003, 5.478691e-002
3.585020e+003, 5.368075e-002
3.586948e+003, 5.317495e-002
3.588876e+003, 5.326346e-002
3.590805e+003, 5.283675e-002
3.592733e+003, 5.173544e-002
3.594662e+003, 5.155048e-002
3.596590e+003, 5.090097e-002
3.598519e+003, 4.963734e-002
3.600447e+003, 4.902383e-002
3.602376e+003, 4.816763e-002
3.604304e+003, 4.696526e-002
3.606233e+003, 4.504739e-002
3.608161e+003, 4.278507e-002
3.610090e+003, 4.184264e-002
3.612018e+003, 4.145438e-002
3.613947e+003, 3.956603e-002
3.615875e+003, 3.694208e-002
3.617803e+003, 3.462607e-002
3.619732e+003, 3.294646e-002
3.621660e+003, 3.194528e-002
3.623589e+003, 3.092214e-002
3.625517e+003, 2.967049e-002
3.627446e+003, 2.726380e-002
3.629374e+003, 2.496430e-002
3.631303e+003, 2.541550e-002
3.633231e+003, 2.569180e-002
3.635160e+003, 2.514446e-002
3.637088e+003, 2.391510e-002
3.639017e+003, 2.293530e-002
3.640945e+003, 2.219780e-002
3.642874e+003, 2.199927e-002
3.644802e+003, 2.197026e-002
3.646730e+003, 2.020549e-002
3.648659e+003, 1.797367e-002
3.650587e+003, 1.784726e-002
3.652516e+003, 1.977403e-002
3.654444e+003, 1.974143e-002
3.656373e+003, 1.843557e-002
3.658301e+003, 1.815554e-002
3.660230e+003, 1.807606e-002
3.662158e+003, 1.791070e-002
3.664087e+003, 1.781614e-002
3.666015e+003, 1.772897e-002
3.667944e+003, 1.693845e-002
3.669872e+003, 1.589472e-002
3.671801e+003, 1.592863e-002
3.673729e+003, 1.507402e-002
3.675657e+003, 1.423555e-002
3.677586e+003, 1.559451e-002
3.679514e+003, 1.638822e-002
3.681443e+003, 1.714788e-002
3.683371e+003, 1.737843e-002
3.685300e+003, 1.682510e-002
3.687228e+003, 1.501409e-002
3.689157e+003, 1.384008e-002
3.691085e+003, 1.453718e-002
3.693014e+003, 1.615439e-002
3.694942e+003, 1.635798e-002
3.696871e+003, 1.609158e-002
3.698799e+003, 1.566231e-002
3.700728e+003, 1.515992e-002
3.702656e+003, 1.584255e-002
3.704584e+003, 1.637996e-002
3.706513e+003, 1.597502e-002
3.708441e+003, 1.456896e-002
3.710370e+003, 1.337227e-002
3.712298e+003, 1.326958e-002
3.714227e+003, 1.418565e-002
3.716155e+003, 1.501630e-002
3.718084e+003, 1.495607e-002
3.720012e+003, 1.445210e-002
3.721941e+003, 1.385659e-002
3.723869e+003, 1.366280e-002
3.725798e+003, 1.441803e-002
3.727726e+003, 1.477646e-002
3.729655e+003, 1.429805e-002
3.731583e+003, 1.374198e-002
3.733511e+003, 1.389917e-002
3.735440e+003, 1.365720e-002
3.737368e+003, 1.440284e-002
3.739297e+003, 1.516608e-002
3.741225e+003, 1.476630e-002
3.743154e+003, 1.266199e-002
3.745082e+003, 1.241091e-002
3.747011e+003, 1.316810e-002
3.748939e+003, 1.153223e-002
3.750868e+003, 1.229784e-002
3.752796e+003, 1.338437e-002
3.754725e+003, 1.473798e-002
3.756653e+003, 1.457549e-002
3.758582e+003, 1.428771e-002
3.760510e+003, 1.437360e-002
3.762438e+003, 1.457001e-002
3.764367e+003, 1.438256e-002
3.766295e+003, 1.475091e-002
3.768224e+003, 1.485157e-002
3.770152e+003, 1.489371e-002
3.772081e+003, 1.572022e-002
3.774009e+003, 1.571677e-002
3.775938e+003, 1.538984e-002
3.777866e+003, 1.503737e-002
3.779795e+003, 1.483436e-002
3.781723e+003, 1.541911e-002
3.783652e+003, 1.577426e-002
3.785580e+003, 1.575254e-002
3.787509e+003, 1.569975e-002
3.789437e+003, 1.622147e-002
3.791365e+003, 1.649502e-002
3.793294e+003, 1.614177e-002
3.795222e+003, 1.558966e-002
3.797151e+003, 1.530193e-002
3.799079e+003, 1.489074e-002
3.801008e+003, 1.352864e-002
3.802936e+003, 1.406968e-002
3.804865e+003, 1.488212e-002
3.806793e+003, 1.396577e-002
3.808722e+003, 1.496674e-002
3.810650e+003, 1.596140e-002
3.812579e+003, 1.519606e-002
3.814507e+003, 1.340900e-002
3.816436e+003, 1.333903e-002
3.818364e+003, 1.493032e-002
3.820292e+003, 1.463084e-002
3.822221e+003, 1.491538e-002
3.824149e+003, 1.562253e-002
3.826078e+003, 1.499771e-002
3.828006e+003, 1.525179e-002
3.829935e+003, 1.567935e-002
3.831863e+003, 1.591206e-002
3.833792e+003, 1.605666e-002
3.835720e+003, 1.519672e-002
3.837649e+003, 1.377636e-002
3.839577e+003, 1.434382e-002
3.841506e+003, 1.552577e-002
3.843434e+003, 1.545181e-002
3.845363e+003, 1.559627e-002
3.847291e+003, 1.605451e-002
3.849219e+003, 1.587804e-002
3.851148e+003, 1.412193e-002
3.853076e+003, 1.141393e-002
3.855005e+003, 1.270221e-002
3.856933e+003, 1.585902e-002
3.858862e+003, 1.690686e-002
3.860790e+003, 1.653014e-002
3.862719e+003, 1.587299e-002
3.864647e+003, 1.542841e-002
3.866576e+003, 1.539318e-002
3.868504e+003, 1.461738e-002
3.870433e+003, 1.471134e-002
3.872361e+003, 1.652513e-002
3.874290e+003, 1.739671e-002
3.876218e+003, 1.737423e-002
3.878146e+003, 1.701185e-002
3.880075e+003, 1.666023e-002
3.882003e+003, 1.686702e-002
3.883932e+003, 1.636970e-002
3.885860e+003, 1.632622e-002
3.887789e+003, 1.675112e-002
3.889717e+003, 1.618588e-002
3.891646e+003, 1.621304e-002
3.893574e+003, 1.726199e-002
3.895503e+003, 1.725072e-002
3.897431e+003, 1.670097e-002
3.899360e+003, 1.665679e-002
3.901288e+003, 1.625478e-002
3.903217e+003, 1.654618e-002
3.905145e+003, 1.691437e-002
3.907073e+003, 1.742045e-002
3.909002e+003, 1.761920e-002
3.910930e+003, 1.733894e-002
3.912859e+003, 1.777126e-002
3.914787e+003, 1.798831e-002
3.916716e+003, 1.703934e-002
3.918644e+003, 1.651220e-002
3.920573e+003, 1.689145e-002
3.922501e+003, 1.710074e-002
3.924430e+003, 1.640634e-002
3.926358e+003, 1.664954e-002
3.928287e+003, 1.715515e-002
3.930215e+003, 1.710846e-002
3.932144e+003, 1.752986e-002
3.934072e+003, 1.849590e-002
3.936000e+003, 1.778780e-002
3.937929e+003, 1.711620e-002
3.939857e+003, 1.743408e-002
3.941786e+003, 1.718283e-002
3.943714e+003, 1.751689e-002
3.945643e+003, 1.797987e-002
3.947571e+003, 1.792574e-002
3.949500e+003, 1.822320e-002
3.951428e+003, 1.821026e-002
3.953357e+003, 1.754979e-002
3.955285e+003, 1.741232e-002
3.957214e+003, 1.713036e-002
3.959142e+003, 1.776991e-002
3.961071e+003, 1.882610e-002
3.962999e+003, 1.838581e-002
3.964927e+003, 1.746432e-002
3.966856e+003, 1.769656e-002
3.968784e+003, 1.810087e-002
3.970713e+003, 1.829980e-002
3.972641e+003, 1.839303e-002
3.974570e+003, 1.803383e-002
3.976498e+003, 1.799958e-002
3.978427e+003, 1.806918e-002
3.980355e+003, 1.751256e-002
3.982284e+003, 1.725528e-002
3.984212e+003, 1.739684e-002
3.986141e+003, 1.738672e-002
3.988069e+003, 1.750699e-002
3.989998e+003, 1.718255e-002
3.991926e+003, 1.684784e-002
3.993854e+003, 1.733001e-002
3.995783e+003, 1.815791e-002
3.997711e+003, 1.838674e-002
3.999640e+003, 1.855473e-002
##END=



