##NAMES=Paradamite
##RRUFFID=R050582
##IDEAL CHEMISTRY=Zn^2+^_2_As^5+^O_4_(OH)
##LOCALITY=Ojuela mine, Mapimi, Durango, Mexico
##OWNER=RRUFF
##SOURCE=University of Arizona Mineral Museum
##DESCRIPTION=Groups of tabular pale yellow crystals
##STATUS=The identification of this mineral has been confirmed by X-ray diffraction and chemical analysis
##URL=rruff.info/R050582
##MEASURED CHEMISTRY=Zn_2.00_(As_1.00_O_4_)(OH)
3.991926e+002, 1.073925e-001
4.011211e+002, 1.095705e-001
4.030495e+002, 1.121822e-001
4.049780e+002, 1.197983e-001
4.069065e+002, 1.292413e-001
4.088349e+002, 1.393506e-001
4.107634e+002, 1.522554e-001
4.126919e+002, 1.641764e-001
4.146203e+002, 1.751224e-001
4.165488e+002, 1.874664e-001
4.184773e+002, 2.014918e-001
4.204057e+002, 2.129602e-001
4.223342e+002, 2.202836e-001
4.242627e+002, 2.290889e-001
4.261911e+002, 2.359276e-001
4.281196e+002, 2.406948e-001
4.300481e+002, 2.425493e-001
4.319765e+002, 2.408895e-001
4.339050e+002, 2.380949e-001
4.358335e+002, 2.361882e-001
4.377619e+002, 2.359788e-001
4.396904e+002, 2.375428e-001
4.416189e+002, 2.424347e-001
4.435473e+002, 2.506700e-001
4.454758e+002, 2.573382e-001
4.474043e+002, 2.616125e-001
4.493327e+002, 2.643388e-001
4.512612e+002, 2.647113e-001
4.531897e+002, 2.619072e-001
4.551181e+002, 2.578765e-001
4.570466e+002, 2.513979e-001
4.589751e+002, 2.436041e-001
4.609035e+002, 2.360278e-001
4.628320e+002, 2.292185e-001
4.647605e+002, 2.224349e-001
4.666889e+002, 2.164484e-001
4.686174e+002, 2.135653e-001
4.705459e+002, 2.115872e-001
4.724743e+002, 2.095497e-001
4.744028e+002, 2.074449e-001
4.763313e+002, 2.029270e-001
4.782597e+002, 1.963613e-001
4.801882e+002, 1.873449e-001
4.821167e+002, 1.770543e-001
4.840451e+002, 1.694837e-001
4.859736e+002, 1.659115e-001
4.879021e+002, 1.656985e-001
4.898305e+002, 1.676443e-001
4.917590e+002, 1.713932e-001
4.936875e+002, 1.752992e-001
4.956159e+002, 1.784853e-001
4.975444e+002, 1.805666e-001
4.994729e+002, 1.811382e-001
5.014013e+002, 1.807102e-001
5.033298e+002, 1.786210e-001
5.052583e+002, 1.755983e-001
5.071867e+002, 1.719959e-001
5.091152e+002, 1.680049e-001
5.110437e+002, 1.639200e-001
5.129721e+002, 1.592399e-001
5.149006e+002, 1.548699e-001
5.168290e+002, 1.513704e-001
5.187575e+002, 1.474458e-001
5.206860e+002, 1.431582e-001
5.226144e+002, 1.391204e-001
5.245429e+002, 1.349963e-001
5.264714e+002, 1.300139e-001
5.283998e+002, 1.244479e-001
5.303283e+002, 1.187058e-001
5.322568e+002, 1.122746e-001
5.341852e+002, 1.049319e-001
5.361137e+002, 9.717849e-002
5.380422e+002, 8.947609e-002
5.399706e+002, 8.169778e-002
5.418991e+002, 7.360337e-002
5.438276e+002, 6.633960e-002
5.457560e+002, 5.973940e-002
5.476845e+002, 5.377388e-002
5.496130e+002, 4.811680e-002
5.515414e+002, 4.357947e-002
5.534699e+002, 3.998524e-002
5.553984e+002, 3.674645e-002
5.573268e+002, 3.432095e-002
5.592553e+002, 3.286447e-002
5.611838e+002, 3.127530e-002
5.631122e+002, 2.994487e-002
5.650407e+002, 2.859477e-002
5.669692e+002, 2.725353e-002
5.688976e+002, 2.658939e-002
5.708261e+002, 2.604418e-002
5.727546e+002, 2.552974e-002
5.746830e+002, 2.479988e-002
5.766115e+002, 2.404515e-002
5.785400e+002, 2.357383e-002
5.804684e+002, 2.330761e-002
5.823969e+002, 2.286423e-002
5.843254e+002, 2.242912e-002
5.862538e+002, 2.196057e-002
5.881823e+002, 2.156325e-002
5.901108e+002, 2.134505e-002
5.920392e+002, 2.154829e-002
5.939677e+002, 2.151196e-002
5.958962e+002, 2.128302e-002
5.978246e+002, 2.127567e-002
5.997531e+002, 2.122175e-002
6.016816e+002, 2.125723e-002
6.036100e+002, 2.136588e-002
6.055385e+002, 2.142592e-002
6.074670e+002, 2.148175e-002
6.093954e+002, 2.162434e-002
6.113239e+002, 2.180160e-002
6.132524e+002, 2.208913e-002
6.151808e+002, 2.221977e-002
6.171093e+002, 2.230831e-002
6.190378e+002, 2.249360e-002
6.209662e+002, 2.292738e-002
6.228947e+002, 2.329091e-002
6.248232e+002, 2.351830e-002
6.267516e+002, 2.375685e-002
6.286801e+002, 2.400268e-002
6.306086e+002, 2.430004e-002
6.325370e+002, 2.470963e-002
6.344655e+002, 2.498185e-002
6.363940e+002, 2.535454e-002
6.383224e+002, 2.586900e-002
6.402509e+002, 2.640910e-002
6.421794e+002, 2.691302e-002
6.441078e+002, 2.730608e-002
6.460363e+002, 2.787138e-002
6.479648e+002, 2.852721e-002
6.498932e+002, 2.904886e-002
6.518217e+002, 2.955472e-002
6.537502e+002, 3.012305e-002
6.556786e+002, 3.074304e-002
6.576071e+002, 3.143016e-002
6.595356e+002, 3.221560e-002
6.614641e+002, 3.297776e-002
6.633925e+002, 3.378235e-002
6.653210e+002, 3.461168e-002
6.672495e+002, 3.534080e-002
6.691779e+002, 3.616435e-002
6.711064e+002, 3.725268e-002
6.730349e+002, 3.857997e-002
6.749633e+002, 3.980781e-002
6.768918e+002, 4.099580e-002
6.788203e+002, 4.228190e-002
6.807487e+002, 4.373914e-002
6.826772e+002, 4.534207e-002
6.846057e+002, 4.702238e-002
6.865341e+002, 4.870000e-002
6.884626e+002, 5.045988e-002
6.903911e+002, 5.229612e-002
6.923195e+002, 5.428088e-002
6.942480e+002, 5.625638e-002
6.961765e+002, 5.837335e-002
6.981049e+002, 6.071087e-002
7.000334e+002, 6.339211e-002
7.019619e+002, 6.619674e-002
7.038903e+002, 6.922139e-002
7.058188e+002, 7.244449e-002
7.077473e+002, 7.560638e-002
7.096757e+002, 7.909055e-002
7.116042e+002, 8.293090e-002
7.135327e+002, 8.684822e-002
7.154611e+002, 9.093157e-002
7.173896e+002, 9.528984e-002
7.193181e+002, 1.004122e-001
7.212465e+002, 1.060255e-001
7.231750e+002, 1.119495e-001
7.251035e+002, 1.183682e-001
7.270319e+002, 1.250626e-001
7.289604e+002, 1.320900e-001
7.308889e+002, 1.394504e-001
7.328173e+002, 1.474819e-001
7.347458e+002, 1.562667e-001
7.366743e+002, 1.650742e-001
7.386027e+002, 1.743123e-001
7.405312e+002, 1.842037e-001
7.424597e+002, 1.948392e-001
7.443881e+002, 2.059540e-001
7.463166e+002, 2.176623e-001
7.482451e+002, 2.301160e-001
7.501735e+002, 2.432574e-001
7.521020e+002, 2.571510e-001
7.540305e+002, 2.720872e-001
7.559589e+002, 2.872772e-001
7.578874e+002, 3.029512e-001
7.598159e+002, 3.187356e-001
7.617443e+002, 3.347661e-001
7.636728e+002, 3.508474e-001
7.656013e+002, 3.664912e-001
7.675297e+002, 3.812429e-001
7.694582e+002, 3.949350e-001
7.713867e+002, 4.074681e-001
7.733151e+002, 4.183647e-001
7.752436e+002, 4.270604e-001
7.771721e+002, 4.339739e-001
7.791005e+002, 4.388359e-001
7.810290e+002, 4.423609e-001
7.829575e+002, 4.449050e-001
7.848859e+002, 4.478655e-001
7.868144e+002, 4.518724e-001
7.887429e+002, 4.566995e-001
7.906713e+002, 4.615298e-001
7.925998e+002, 4.650530e-001
7.945283e+002, 4.658554e-001
7.964567e+002, 4.631959e-001
7.983852e+002, 4.570691e-001
8.003137e+002, 4.475498e-001
8.022421e+002, 4.355206e-001
8.041706e+002, 4.215801e-001
8.060991e+002, 4.062083e-001
8.080275e+002, 3.907162e-001
8.099560e+002, 3.756584e-001
8.118845e+002, 3.613006e-001
8.138129e+002, 3.480076e-001
8.157414e+002, 3.362348e-001
8.176699e+002, 3.261534e-001
8.195983e+002, 3.185731e-001
8.215268e+002, 3.139907e-001
8.234553e+002, 3.123343e-001
8.253837e+002, 3.115063e-001
8.273122e+002, 3.085796e-001
8.292407e+002, 3.012510e-001
8.311691e+002, 2.900295e-001
8.330976e+002, 2.768519e-001
8.350261e+002, 2.636045e-001
8.369545e+002, 2.510208e-001
8.388830e+002, 2.395028e-001
8.408115e+002, 2.289982e-001
8.427399e+002, 2.188454e-001
8.446684e+002, 2.087173e-001
8.465969e+002, 1.988948e-001
8.485253e+002, 1.893397e-001
8.504538e+002, 1.798556e-001
8.523823e+002, 1.708905e-001
8.543107e+002, 1.627626e-001
8.562392e+002, 1.552541e-001
8.581677e+002, 1.486957e-001
8.600961e+002, 1.433131e-001
8.620246e+002, 1.389215e-001
8.639531e+002, 1.358828e-001
8.658815e+002, 1.345253e-001
8.678100e+002, 1.343523e-001
8.697385e+002, 1.352306e-001
8.716669e+002, 1.363184e-001
8.735954e+002, 1.366304e-001
8.755239e+002, 1.355359e-001
8.774523e+002, 1.329122e-001
8.793808e+002, 1.286622e-001
8.813093e+002, 1.232192e-001
8.832377e+002, 1.169887e-001
8.851662e+002, 1.102716e-001
8.870947e+002, 1.033058e-001
8.890231e+002, 9.605458e-002
8.909516e+002, 8.904520e-002
8.928801e+002, 8.250049e-002
8.948085e+002, 7.634142e-002
8.967370e+002, 7.054154e-002
8.986655e+002, 6.515327e-002
9.005939e+002, 6.049074e-002
9.025224e+002, 5.621070e-002
9.044509e+002, 5.242238e-002
9.063793e+002, 4.916230e-002
9.083078e+002, 4.648571e-002
9.102363e+002, 4.451875e-002
9.121647e+002, 4.300350e-002
9.140932e+002, 4.190207e-002
9.160217e+002, 4.132267e-002
9.179501e+002, 4.118802e-002
9.198786e+002, 4.144766e-002
9.218071e+002, 4.207818e-002
9.237355e+002, 4.310426e-002
9.256640e+002, 4.451673e-002
9.275925e+002, 4.642864e-002
9.295209e+002, 4.894285e-002
9.314494e+002, 5.202573e-002
9.333779e+002, 5.568786e-002
9.353063e+002, 5.985525e-002
9.372348e+002, 6.463298e-002
9.391633e+002, 6.981455e-002
9.410917e+002, 7.519097e-002
9.430202e+002, 8.036439e-002
9.449487e+002, 8.523796e-002
9.468771e+002, 8.948216e-002
9.488056e+002, 9.249937e-002
9.507341e+002, 9.453677e-002
9.526625e+002, 9.540099e-002
9.545910e+002, 9.488987e-002
9.565195e+002, 9.303439e-002
9.584479e+002, 8.988656e-002
9.603764e+002, 8.566411e-002
9.623049e+002, 8.028118e-002
9.642333e+002, 7.416882e-002
9.661618e+002, 6.797526e-002
9.680903e+002, 6.174379e-002
9.700187e+002, 5.567653e-002
9.719472e+002, 5.012571e-002
9.738757e+002, 4.502279e-002
9.758041e+002, 4.047725e-002
9.777326e+002, 3.663235e-002
9.796611e+002, 3.333322e-002
9.815895e+002, 3.040050e-002
9.835180e+002, 2.790350e-002
9.854465e+002, 2.585783e-002
9.873749e+002, 2.416660e-002
9.893034e+002, 2.268947e-002
9.912319e+002, 2.131964e-002
9.931603e+002, 2.019713e-002
9.950888e+002, 1.921078e-002
9.970173e+002, 1.835740e-002
9.989457e+002, 1.764599e-002
1.000874e+003, 1.708875e-002
1.002803e+003, 1.660850e-002
1.004731e+003, 1.618077e-002
1.006660e+003, 1.574226e-002
1.008588e+003, 1.528559e-002
1.010517e+003, 1.485964e-002
1.012445e+003, 1.454937e-002
1.014373e+003, 1.424495e-002
1.016302e+003, 1.396753e-002
1.018230e+003, 1.371035e-002
1.020159e+003, 1.338730e-002
1.022087e+003, 1.304894e-002
1.024016e+003, 1.277065e-002
1.025944e+003, 1.246300e-002
1.027873e+003, 1.221483e-002
1.029801e+003, 1.205859e-002
1.031730e+003, 1.183691e-002
1.033658e+003, 1.155558e-002
1.035587e+003, 1.138389e-002
1.037515e+003, 1.119207e-002
1.039443e+003, 1.103878e-002
1.041372e+003, 1.092159e-002
1.043300e+003, 1.073108e-002
1.045229e+003, 1.055340e-002
1.047157e+003, 1.049382e-002
1.049086e+003, 1.042402e-002
1.051014e+003, 1.025082e-002
1.052943e+003, 1.017258e-002
1.054871e+003, 9.990801e-003
1.056800e+003, 9.762481e-003
1.058728e+003, 9.549832e-003
1.060657e+003, 9.390295e-003
1.062585e+003, 9.228708e-003
1.064514e+003, 9.002629e-003
1.066442e+003, 8.808063e-003
1.068370e+003, 8.915568e-003
1.070299e+003, 9.011311e-003
1.072227e+003, 8.829851e-003
1.074156e+003, 8.619808e-003
1.076084e+003, 8.388626e-003
1.078013e+003, 8.168723e-003
1.079941e+003, 7.976268e-003
1.081870e+003, 7.855732e-003
1.083798e+003, 7.646929e-003
1.085727e+003, 7.445115e-003
1.087655e+003, 7.374358e-003
1.089584e+003, 7.334156e-003
1.091512e+003, 7.291308e-003
1.093441e+003, 7.266185e-003
1.095369e+003, 7.170148e-003
1.097297e+003, 6.930779e-003
1.099226e+003, 6.770520e-003
1.101154e+003, 6.705541e-003
1.103083e+003, 6.705127e-003
1.105011e+003, 6.676603e-003
1.106940e+003, 6.621092e-003
1.108868e+003, 6.556083e-003
1.110797e+003, 6.531333e-003
1.112725e+003, 6.583260e-003
1.114654e+003, 6.427867e-003
1.116582e+003, 6.199365e-003
1.118511e+003, 6.171897e-003
1.120439e+003, 6.150129e-003
1.122368e+003, 6.042397e-003
1.124296e+003, 5.898200e-003
1.126224e+003, 5.810767e-003
1.128153e+003, 5.845910e-003
1.130081e+003, 5.930902e-003
1.132010e+003, 5.971964e-003
1.133938e+003, 5.899769e-003
1.135867e+003, 5.885197e-003
1.137795e+003, 5.852079e-003
1.139724e+003, 5.735603e-003
1.141652e+003, 5.803174e-003
1.143581e+003, 5.945603e-003
1.145509e+003, 5.953094e-003
1.147438e+003, 5.897479e-003
1.149366e+003, 5.871052e-003
1.151295e+003, 5.898851e-003
1.153223e+003, 5.821823e-003
1.155151e+003, 5.709017e-003
1.157080e+003, 5.724209e-003
1.159008e+003, 5.694675e-003
1.160937e+003, 5.691002e-003
1.162865e+003, 5.708443e-003
1.164794e+003, 5.497187e-003
1.166722e+003, 5.348740e-003
1.168651e+003, 5.331245e-003
1.170579e+003, 5.284192e-003
1.172508e+003, 5.328740e-003
1.174436e+003, 5.353194e-003
1.176365e+003, 5.339966e-003
1.178293e+003, 5.380677e-003
1.180222e+003, 5.483902e-003
1.182150e+003, 5.512065e-003
1.184078e+003, 5.470537e-003
1.186007e+003, 5.446958e-003
1.187935e+003, 5.432186e-003
1.189864e+003, 5.392041e-003
1.191792e+003, 5.353498e-003
1.193721e+003, 5.282638e-003
1.195649e+003, 5.258115e-003
1.197578e+003, 5.326324e-003
1.199506e+003, 5.367949e-003
1.201435e+003, 5.183676e-003
1.203363e+003, 5.098377e-003
1.205292e+003, 5.200842e-003
1.207220e+003, 5.147274e-003
1.209149e+003, 5.062247e-003
1.211077e+003, 5.138474e-003
1.213005e+003, 5.269282e-003
1.214934e+003, 5.306732e-003
1.216862e+003, 5.287258e-003
1.218791e+003, 5.375019e-003
1.220719e+003, 5.451928e-003
1.222648e+003, 5.484527e-003
1.224576e+003, 5.390902e-003
1.226505e+003, 5.301899e-003
1.228433e+003, 5.306946e-003
1.230362e+003, 5.400762e-003
1.232290e+003, 5.446804e-003
1.234219e+003, 5.497179e-003
1.236147e+003, 5.594248e-003
1.238076e+003, 5.584363e-003
1.240004e+003, 5.492645e-003
1.241932e+003, 5.539644e-003
1.243861e+003, 5.574271e-003
1.245789e+003, 5.488457e-003
1.247718e+003, 5.522638e-003
1.249646e+003, 5.645298e-003
1.251575e+003, 5.682589e-003
1.253503e+003, 5.704062e-003
1.255432e+003, 5.749452e-003
1.257360e+003, 5.845402e-003
1.259289e+003, 5.923875e-003
1.261217e+003, 5.958294e-003
1.263146e+003, 5.956489e-003
1.265074e+003, 5.898761e-003
1.267003e+003, 5.915816e-003
1.268931e+003, 6.083025e-003
1.270859e+003, 6.304126e-003
1.272788e+003, 6.677465e-003
1.274716e+003, 6.921772e-003
1.276645e+003, 6.894509e-003
1.278573e+003, 6.884763e-003
1.280502e+003, 6.927925e-003
1.282430e+003, 6.942060e-003
1.284359e+003, 6.737824e-003
1.286287e+003, 6.592062e-003
1.288216e+003, 6.645482e-003
1.290144e+003, 6.669663e-003
1.292073e+003, 6.646838e-003
1.294001e+003, 6.685959e-003
1.295930e+003, 6.633135e-003
1.297858e+003, 6.567037e-003
1.299786e+003, 6.490704e-003
1.301715e+003, 6.492655e-003
1.303643e+003, 6.617682e-003
1.305572e+003, 6.647911e-003
1.307500e+003, 6.528524e-003
1.309429e+003, 6.427521e-003
1.311357e+003, 6.446303e-003
1.313286e+003, 6.554418e-003
1.315214e+003, 6.608434e-003
1.317143e+003, 6.584483e-003
1.319071e+003, 6.507209e-003
1.321000e+003, 6.491179e-003
1.322928e+003, 6.479598e-003
1.324857e+003, 6.555641e-003
1.326785e+003, 6.705934e-003
1.328714e+003, 6.707396e-003
1.330642e+003, 6.640414e-003
1.332570e+003, 6.620740e-003
1.334499e+003, 6.540116e-003
1.336427e+003, 6.627452e-003
1.338356e+003, 6.669983e-003
1.340284e+003, 6.687006e-003
1.342213e+003, 6.680793e-003
1.344141e+003, 6.629668e-003
1.346070e+003, 6.600566e-003
1.347998e+003, 6.598142e-003
1.349927e+003, 6.721043e-003
1.351855e+003, 6.763449e-003
1.353784e+003, 6.811442e-003
1.355712e+003, 6.903131e-003
1.357641e+003, 6.962791e-003
1.359569e+003, 7.034176e-003
1.361497e+003, 7.177063e-003
1.363426e+003, 7.184669e-003
1.365354e+003, 7.137823e-003
1.367283e+003, 7.231407e-003
1.369211e+003, 7.355094e-003
1.371140e+003, 7.414442e-003
1.373068e+003, 7.442927e-003
1.374997e+003, 7.475294e-003
1.376925e+003, 7.547595e-003
1.378854e+003, 7.708321e-003
1.380782e+003, 7.762574e-003
1.382711e+003, 7.728212e-003
1.384639e+003, 7.783933e-003
1.386568e+003, 7.877623e-003
1.388496e+003, 7.957242e-003
1.390424e+003, 8.089166e-003
1.392353e+003, 8.198956e-003
1.394281e+003, 8.247684e-003
1.396210e+003, 8.259982e-003
1.398138e+003, 8.336341e-003
1.400067e+003, 8.421024e-003
1.401995e+003, 8.450664e-003
1.403924e+003, 8.529460e-003
1.405852e+003, 8.648792e-003
1.407781e+003, 8.739150e-003
1.409709e+003, 8.813621e-003
1.411638e+003, 8.860935e-003
1.413566e+003, 8.767700e-003
1.415495e+003, 8.725951e-003
1.417423e+003, 8.677677e-003
1.419351e+003, 8.566678e-003
1.421280e+003, 8.671535e-003
1.423208e+003, 8.827554e-003
1.425137e+003, 8.834871e-003
1.427065e+003, 8.860447e-003
1.428994e+003, 8.966279e-003
1.430922e+003, 8.960677e-003
1.432851e+003, 9.025352e-003
1.434779e+003, 9.078887e-003
1.436708e+003, 9.062689e-003
1.438636e+003, 9.156838e-003
1.440565e+003, 9.116899e-003
1.442493e+003, 9.126582e-003
1.444422e+003, 9.243736e-003
1.446350e+003, 9.264928e-003
1.448278e+003, 9.194983e-003
1.450207e+003, 9.171926e-003
1.452135e+003, 9.112067e-003
1.454064e+003, 9.157407e-003
1.455992e+003, 9.188056e-003
1.457921e+003, 9.080986e-003
1.459849e+003, 9.117876e-003
1.461778e+003, 8.978697e-003
1.463706e+003, 8.870779e-003
1.465635e+003, 8.936441e-003
1.467563e+003, 8.928917e-003
1.469492e+003, 8.962574e-003
1.471420e+003, 8.877632e-003
1.473349e+003, 8.700252e-003
1.475277e+003, 8.721797e-003
1.477205e+003, 8.818396e-003
1.479134e+003, 8.851125e-003
1.481062e+003, 8.905306e-003
1.482991e+003, 8.923228e-003
1.484919e+003, 8.936978e-003
1.486848e+003, 9.002286e-003
1.488776e+003, 9.104407e-003
1.490705e+003, 9.226264e-003
1.492633e+003, 9.199874e-003
1.494562e+003, 9.224117e-003
1.496490e+003, 9.313176e-003
1.498419e+003, 9.421734e-003
1.500347e+003, 9.480314e-003
1.502276e+003, 9.519774e-003
1.504204e+003, 9.535534e-003
1.506132e+003, 9.565433e-003
1.508061e+003, 9.650596e-003
1.509989e+003, 9.679033e-003
1.511918e+003, 9.568626e-003
1.513846e+003, 9.632237e-003
1.515775e+003, 9.735283e-003
1.517703e+003, 9.743637e-003
1.519632e+003, 9.763632e-003
1.521560e+003, 9.737853e-003
1.523489e+003, 9.789898e-003
1.525417e+003, 9.992732e-003
1.527346e+003, 1.021424e-002
1.529274e+003, 1.038904e-002
1.531203e+003, 1.056857e-002
1.533131e+003, 1.064315e-002
1.535059e+003, 1.080374e-002
1.536988e+003, 1.094481e-002
1.538916e+003, 1.095009e-002
1.540845e+003, 1.114315e-002
1.542773e+003, 1.142612e-002
1.544702e+003, 1.168140e-002
1.546630e+003, 1.195692e-002
1.548559e+003, 1.213246e-002
1.550487e+003, 1.227595e-002
1.552416e+003, 1.243570e-002
1.554344e+003, 1.257550e-002
1.556273e+003, 1.264674e-002
1.558201e+003, 1.259771e-002
1.560130e+003, 1.254794e-002
1.562058e+003, 1.259251e-002
1.563986e+003, 1.263413e-002
1.565915e+003, 1.245997e-002
1.567843e+003, 1.227054e-002
1.569772e+003, 1.218374e-002
1.571700e+003, 1.216118e-002
1.573629e+003, 1.206963e-002
1.575557e+003, 1.197513e-002
1.577486e+003, 1.198155e-002
1.579414e+003, 1.195285e-002
1.581343e+003, 1.203580e-002
1.583271e+003, 1.222758e-002
1.585200e+003, 1.240937e-002
1.587128e+003, 1.249547e-002
1.589057e+003, 1.248325e-002
1.590985e+003, 1.273538e-002
1.592913e+003, 1.305216e-002
1.594842e+003, 1.312908e-002
1.596770e+003, 1.308862e-002
1.598699e+003, 1.308596e-002
1.600627e+003, 1.327158e-002
1.602556e+003, 1.349397e-002
1.604484e+003, 1.350782e-002
1.606413e+003, 1.350674e-002
1.608341e+003, 1.351475e-002
1.610270e+003, 1.363356e-002
1.612198e+003, 1.378825e-002
1.614127e+003, 1.384969e-002
1.616055e+003, 1.369608e-002
1.617984e+003, 1.368794e-002
1.619912e+003, 1.387240e-002
1.621840e+003, 1.384227e-002
1.623769e+003, 1.370928e-002
1.625697e+003, 1.372661e-002
1.627626e+003, 1.379854e-002
1.629554e+003, 1.390596e-002
1.631483e+003, 1.399404e-002
1.633411e+003, 1.403686e-002
1.635340e+003, 1.411798e-002
1.637268e+003, 1.418422e-002
1.639197e+003, 1.413367e-002
1.641125e+003, 1.420260e-002
1.643054e+003, 1.429982e-002
1.644982e+003, 1.419166e-002
1.646911e+003, 1.403159e-002
1.648839e+003, 1.412380e-002
1.650767e+003, 1.405346e-002
1.652696e+003, 1.374974e-002
1.654624e+003, 1.380479e-002
1.656553e+003, 1.372342e-002
1.658481e+003, 1.370999e-002
1.660410e+003, 1.380304e-002
1.662338e+003, 1.367580e-002
1.664267e+003, 1.361535e-002
1.666195e+003, 1.369589e-002
1.668124e+003, 1.361959e-002
1.670052e+003, 1.347979e-002
1.671981e+003, 1.339518e-002
1.673909e+003, 1.339690e-002
1.675838e+003, 1.336958e-002
1.677766e+003, 1.342347e-002
1.679694e+003, 1.331294e-002
1.681623e+003, 1.324657e-002
1.683551e+003, 1.308592e-002
1.685480e+003, 1.298795e-002
1.687408e+003, 1.319354e-002
1.689337e+003, 1.341325e-002
1.691265e+003, 1.342263e-002
1.693194e+003, 1.326431e-002
1.695122e+003, 1.303670e-002
1.697051e+003, 1.309714e-002
1.698979e+003, 1.310790e-002
1.700908e+003, 1.303203e-002
1.702836e+003, 1.307437e-002
1.704765e+003, 1.307354e-002
1.706693e+003, 1.296781e-002
1.708621e+003, 1.281143e-002
1.710550e+003, 1.281505e-002
1.712478e+003, 1.267186e-002
1.714407e+003, 1.245897e-002
1.716335e+003, 1.230946e-002
1.718264e+003, 1.228359e-002
1.720192e+003, 1.229807e-002
1.722121e+003, 1.234127e-002
1.724049e+003, 1.244151e-002
1.725978e+003, 1.235809e-002
1.727906e+003, 1.232889e-002
1.729835e+003, 1.236805e-002
1.731763e+003, 1.215677e-002
1.733692e+003, 1.195042e-002
1.735620e+003, 1.184190e-002
1.737548e+003, 1.160666e-002
1.739477e+003, 1.141091e-002
1.741405e+003, 1.128533e-002
1.743334e+003, 1.119142e-002
1.745262e+003, 1.106953e-002
1.747191e+003, 1.096482e-002
1.749119e+003, 1.094582e-002
1.751048e+003, 1.093993e-002
1.752976e+003, 1.099989e-002
1.754905e+003, 1.108349e-002
1.756833e+003, 1.116241e-002
1.758762e+003, 1.122771e-002
1.760690e+003, 1.137218e-002
1.762619e+003, 1.136839e-002
1.764547e+003, 1.128013e-002
1.766475e+003, 1.128658e-002
1.768404e+003, 1.138316e-002
1.770332e+003, 1.142225e-002
1.772261e+003, 1.130245e-002
1.774189e+003, 1.117117e-002
1.776118e+003, 1.115931e-002
1.778046e+003, 1.140332e-002
1.779975e+003, 1.150080e-002
1.781903e+003, 1.129121e-002
1.783832e+003, 1.120526e-002
1.785760e+003, 1.123058e-002
1.787689e+003, 1.119667e-002
1.789617e+003, 1.116345e-002
1.791546e+003, 1.123372e-002
1.793474e+003, 1.133462e-002
1.795402e+003, 1.128856e-002
1.797331e+003, 1.129295e-002
1.799259e+003, 1.135032e-002
1.801188e+003, 1.147645e-002
1.803116e+003, 1.153033e-002
1.805045e+003, 1.146613e-002
1.806973e+003, 1.137680e-002
1.808902e+003, 1.134255e-002
1.810830e+003, 1.141314e-002
1.812759e+003, 1.146284e-002
1.814687e+003, 1.122560e-002
1.816616e+003, 1.114455e-002
1.818544e+003, 1.154130e-002
1.820473e+003, 1.181629e-002
1.822401e+003, 1.187459e-002
1.824329e+003, 1.195460e-002
1.826258e+003, 1.195458e-002
1.828186e+003, 1.197064e-002
1.830115e+003, 1.209803e-002
1.832043e+003, 1.212224e-002
1.833972e+003, 1.199175e-002
1.835900e+003, 1.216784e-002
1.837829e+003, 1.226718e-002
1.839757e+003, 1.224700e-002
1.841686e+003, 1.213350e-002
1.843614e+003, 1.202683e-002
1.845543e+003, 1.229688e-002
1.847471e+003, 1.248684e-002
1.849400e+003, 1.253180e-002
1.851328e+003, 1.245877e-002
1.853256e+003, 1.240708e-002
1.855185e+003, 1.246175e-002
1.857113e+003, 1.260970e-002
1.859042e+003, 1.282905e-002
1.860970e+003, 1.282607e-002
1.862899e+003, 1.257889e-002
1.864827e+003, 1.238308e-002
1.866756e+003, 1.222319e-002
1.868684e+003, 1.221269e-002
1.870613e+003, 1.239494e-002
1.872541e+003, 1.238284e-002
1.874470e+003, 1.214193e-002
1.876398e+003, 1.245436e-002
1.878327e+003, 1.273850e-002
1.880255e+003, 1.237085e-002
1.882183e+003, 1.216639e-002
1.884112e+003, 1.205847e-002
1.886040e+003, 1.209961e-002
1.887969e+003, 1.225756e-002
1.889897e+003, 1.229913e-002
1.891826e+003, 1.219302e-002
1.893754e+003, 1.206969e-002
1.895683e+003, 1.186599e-002
1.897611e+003, 1.180311e-002
1.899540e+003, 1.193553e-002
1.901468e+003, 1.180806e-002
1.903397e+003, 1.166484e-002
1.905325e+003, 1.156788e-002
1.907254e+003, 1.175604e-002
1.909182e+003, 1.194182e-002
1.911110e+003, 1.142978e-002
1.913039e+003, 1.145224e-002
1.914967e+003, 1.205082e-002
1.916896e+003, 1.173784e-002
1.918824e+003, 1.141049e-002
1.920753e+003, 1.159831e-002
1.922681e+003, 1.149342e-002
1.924610e+003, 1.165852e-002
1.926538e+003, 1.169939e-002
1.928467e+003, 1.192283e-002
1.930395e+003, 1.180941e-002
1.932324e+003, 1.148855e-002
1.934252e+003, 1.133377e-002
1.936181e+003, 1.179601e-002
1.938109e+003, 1.241546e-002
1.940037e+003, 1.241835e-002
1.941966e+003, 1.175968e-002
1.943894e+003, 1.164080e-002
1.945823e+003, 1.215603e-002
1.947751e+003, 1.243053e-002
1.949680e+003, 1.208831e-002
1.951608e+003, 1.196601e-002
1.953537e+003, 1.236256e-002
1.955465e+003, 1.201364e-002
1.957394e+003, 1.161893e-002
1.959322e+003, 1.219472e-002
1.961251e+003, 1.250752e-002
1.963179e+003, 1.215882e-002
1.965108e+003, 1.215689e-002
1.967036e+003, 1.266301e-002
1.968964e+003, 1.317979e-002
1.970893e+003, 1.310046e-002
1.972821e+003, 1.279699e-002
1.974750e+003, 1.351100e-002
1.976678e+003, 1.467317e-002
1.978607e+003, 1.613520e-002
1.980535e+003, 1.655249e-002
1.982464e+003, 1.565564e-002
1.984392e+003, 1.489284e-002
1.986321e+003, 1.449004e-002
1.988249e+003, 1.421581e-002
1.990178e+003, 1.448545e-002
1.992106e+003, 1.480736e-002
1.994035e+003, 1.452293e-002
1.995963e+003, 1.450483e-002
1.997891e+003, 1.473280e-002
1.999820e+003, 1.409910e-002
2.001748e+003, 1.335095e-002
2.003677e+003, 1.304930e-002
2.005605e+003, 1.348371e-002
2.007534e+003, 1.510882e-002
2.009462e+003, 1.605804e-002
2.011391e+003, 1.546244e-002
2.013319e+003, 1.491150e-002
2.015248e+003, 1.483837e-002
2.017176e+003, 1.498392e-002
2.019105e+003, 1.472552e-002
2.021033e+003, 1.454580e-002
2.022962e+003, 1.515059e-002
2.024890e+003, 1.520770e-002
2.026818e+003, 1.443771e-002
2.028747e+003, 1.486844e-002
2.030675e+003, 1.415855e-002
2.032604e+003, 1.438247e-002
2.034532e+003, 1.608516e-002
2.036461e+003, 1.634864e-002
2.038389e+003, 1.654467e-002
2.040318e+003, 1.690913e-002
2.042246e+003, 1.671526e-002
2.044175e+003, 1.592815e-002
2.046103e+003, 1.594096e-002
2.048031e+003, 1.673073e-002
2.049960e+003, 1.761643e-002
2.051888e+003, 1.642111e-002
2.053817e+003, 1.600127e-002
2.055745e+003, 1.654932e-002
2.057674e+003, 1.603555e-002
2.059602e+003, 1.501477e-002
2.061531e+003, 1.484616e-002
2.063459e+003, 1.523418e-002
2.065388e+003, 1.558670e-002
2.067316e+003, 1.609040e-002
2.069245e+003, 1.637719e-002
2.071173e+003, 1.650876e-002
2.073102e+003, 1.600054e-002
2.075030e+003, 1.605819e-002
2.076958e+003, 1.619501e-002
2.078887e+003, 1.618053e-002
2.080815e+003, 1.632878e-002
2.082744e+003, 1.635381e-002
2.084672e+003, 1.644668e-002
2.086601e+003, 1.651829e-002
2.088529e+003, 1.613095e-002
2.090458e+003, 1.524408e-002
2.092386e+003, 1.495933e-002
2.094315e+003, 1.505551e-002
2.096243e+003, 1.525787e-002
2.098172e+003, 1.546973e-002
2.100100e+003, 1.528531e-002
2.102029e+003, 1.515614e-002
2.103957e+003, 1.564542e-002
2.105885e+003, 1.624903e-002
2.107814e+003, 1.628218e-002
2.109742e+003, 1.613499e-002
2.111671e+003, 1.634773e-002
2.113599e+003, 1.622351e-002
2.115528e+003, 1.567399e-002
2.117456e+003, 1.554427e-002
2.119385e+003, 1.526422e-002
2.121313e+003, 1.515149e-002
2.123242e+003, 1.515768e-002
2.125170e+003, 1.452042e-002
2.127099e+003, 1.413646e-002
2.129027e+003, 1.354999e-002
2.130956e+003, 1.263559e-002
2.132884e+003, 1.205773e-002
2.134813e+003, 1.280776e-002
2.136741e+003, 1.376865e-002
2.138669e+003, 1.417227e-002
2.140598e+003, 1.388011e-002
2.142526e+003, 1.324806e-002
2.144455e+003, 1.343132e-002
2.146383e+003, 1.384825e-002
2.148312e+003, 1.380904e-002
2.150240e+003, 1.334888e-002
2.152169e+003, 1.261919e-002
2.154097e+003, 1.165544e-002
2.156026e+003, 1.072775e-002
2.157954e+003, 1.279415e-002
2.159883e+003, 1.787522e-002
2.161811e+003, 1.898825e-002
2.163740e+003, 1.871853e-002
2.165668e+003, 1.906936e-002
2.167596e+003, 1.844620e-002
2.169525e+003, 1.695083e-002
2.171453e+003, 1.649887e-002
2.173382e+003, 1.621882e-002
2.175310e+003, 1.633074e-002
2.177239e+003, 1.648909e-002
2.179167e+003, 1.589596e-002
2.181096e+003, 1.626050e-002
2.183024e+003, 1.710432e-002
2.184953e+003, 1.731177e-002
2.186881e+003, 1.774039e-002
2.188810e+003, 1.731131e-002
2.190738e+003, 1.704858e-002
2.192667e+003, 1.668400e-002
2.194595e+003, 1.690679e-002
2.196523e+003, 1.728524e-002
2.198452e+003, 1.716334e-002
2.200380e+003, 1.730995e-002
2.202309e+003, 1.688555e-002
2.204237e+003, 1.645599e-002
2.206166e+003, 1.689615e-002
2.208094e+003, 1.709062e-002
2.210023e+003, 1.696333e-002
2.211951e+003, 1.703998e-002
2.213880e+003, 1.695911e-002
2.215808e+003, 1.680517e-002
2.217737e+003, 1.726602e-002
2.219665e+003, 1.723124e-002
2.221594e+003, 1.655269e-002
2.223522e+003, 1.678068e-002
2.225450e+003, 1.751588e-002
2.227379e+003, 1.775203e-002
2.229307e+003, 1.744432e-002
2.231236e+003, 1.767600e-002
2.233164e+003, 1.783763e-002
2.235093e+003, 1.775452e-002
2.237021e+003, 1.754249e-002
2.238950e+003, 1.753133e-002
2.240878e+003, 1.774883e-002
2.242807e+003, 1.758536e-002
2.244735e+003, 1.703970e-002
2.246664e+003, 1.680143e-002
2.248592e+003, 1.704615e-002
2.250521e+003, 1.776901e-002
2.252449e+003, 1.788129e-002
2.254377e+003, 1.801734e-002
2.256306e+003, 1.835644e-002
2.258234e+003, 1.869299e-002
2.260163e+003, 1.843330e-002
2.262091e+003, 1.785708e-002
2.264020e+003, 1.791914e-002
2.265948e+003, 1.814461e-002
2.267877e+003, 1.822213e-002
2.269805e+003, 1.836313e-002
2.271734e+003, 1.835312e-002
2.273662e+003, 1.831113e-002
2.275591e+003, 1.837836e-002
2.277519e+003, 1.864083e-002
2.279448e+003, 1.924872e-002
2.281376e+003, 1.980661e-002
2.283304e+003, 1.979263e-002
2.285233e+003, 1.973458e-002
2.287161e+003, 1.983503e-002
2.289090e+003, 1.978344e-002
2.291018e+003, 1.923560e-002
2.292947e+003, 1.881882e-002
2.294875e+003, 1.913992e-002
2.296804e+003, 1.933585e-002
2.298732e+003, 1.891986e-002
2.300661e+003, 1.861508e-002
2.302589e+003, 1.881647e-002
2.304518e+003, 1.929125e-002
2.306446e+003, 1.950780e-002
2.308375e+003, 1.929640e-002
2.310303e+003, 1.905254e-002
2.312231e+003, 1.928764e-002
2.314160e+003, 1.954310e-002
2.316088e+003, 1.939844e-002
2.318017e+003, 1.939423e-002
2.319945e+003, 1.994206e-002
2.321874e+003, 2.044378e-002
2.323802e+003, 2.034966e-002
2.325731e+003, 1.921040e-002
2.327659e+003, 1.815157e-002
2.329588e+003, 1.774162e-002
2.331516e+003, 1.773210e-002
2.333445e+003, 1.789863e-002
2.335373e+003, 1.789775e-002
2.337302e+003, 1.771234e-002
2.339230e+003, 1.772979e-002
2.341158e+003, 1.802697e-002
2.343087e+003, 1.824667e-002
2.345015e+003, 1.818440e-002
2.346944e+003, 1.809012e-002
2.348872e+003, 1.803044e-002
2.350801e+003, 1.787924e-002
2.352729e+003, 1.771249e-002
2.354658e+003, 1.751198e-002
2.356586e+003, 1.757208e-002
2.358515e+003, 1.757405e-002
2.360443e+003, 1.730299e-002
2.362372e+003, 1.711160e-002
2.364300e+003, 1.704360e-002
2.366229e+003, 1.676890e-002
2.368157e+003, 1.696092e-002
2.370085e+003, 1.743030e-002
2.372014e+003, 1.772917e-002
2.373942e+003, 1.791669e-002
2.375871e+003, 1.801335e-002
2.377799e+003, 1.813100e-002
2.379728e+003, 1.798780e-002
2.381656e+003, 1.821455e-002
2.383585e+003, 1.857426e-002
2.385513e+003, 1.839497e-002
2.387442e+003, 1.817200e-002
2.389370e+003, 1.816452e-002
2.391299e+003, 1.823491e-002
2.393227e+003, 1.854542e-002
2.395156e+003, 1.873667e-002
2.397084e+003, 1.862933e-002
2.399012e+003, 1.867903e-002
2.400941e+003, 1.864019e-002
2.402869e+003, 1.840004e-002
2.404798e+003, 1.835552e-002
2.406726e+003, 1.864135e-002
2.408655e+003, 1.917988e-002
2.410583e+003, 1.958082e-002
2.412512e+003, 1.960259e-002
2.414440e+003, 1.912418e-002
2.416369e+003, 1.936428e-002
2.418297e+003, 1.982751e-002
2.420226e+003, 1.962589e-002
2.422154e+003, 1.917522e-002
2.424083e+003, 1.896484e-002
2.426011e+003, 1.925881e-002
2.427939e+003, 1.984590e-002
2.429868e+003, 2.010528e-002
2.431796e+003, 1.958542e-002
2.433725e+003, 1.917157e-002
2.435653e+003, 1.900672e-002
2.437582e+003, 1.946188e-002
2.439510e+003, 2.002112e-002
2.441439e+003, 1.995122e-002
2.443367e+003, 1.995370e-002
2.445296e+003, 1.990489e-002
2.447224e+003, 2.043998e-002
2.449153e+003, 2.080906e-002
2.451081e+003, 2.056286e-002
2.453010e+003, 2.039377e-002
2.454938e+003, 2.052854e-002
2.456866e+003, 2.056234e-002
2.458795e+003, 2.025694e-002
2.460723e+003, 1.996251e-002
2.462652e+003, 1.995073e-002
2.464580e+003, 2.010671e-002
2.466509e+003, 2.025845e-002
2.468437e+003, 2.004884e-002
2.470366e+003, 2.025676e-002
2.472294e+003, 2.023985e-002
2.474223e+003, 2.012757e-002
2.476151e+003, 2.031766e-002
2.478080e+003, 2.032344e-002
2.480008e+003, 2.009493e-002
2.481937e+003, 2.011299e-002
2.483865e+003, 2.028702e-002
2.485793e+003, 2.021020e-002
2.487722e+003, 2.026561e-002
2.489650e+003, 2.057538e-002
2.491579e+003, 2.057314e-002
2.493507e+003, 2.046378e-002
2.495436e+003, 2.011279e-002
2.497364e+003, 2.040866e-002
2.499293e+003, 2.097517e-002
2.501221e+003, 2.082652e-002
2.503150e+003, 2.051992e-002
2.505078e+003, 2.078190e-002
2.507007e+003, 2.063500e-002
2.508935e+003, 2.061343e-002
2.510864e+003, 2.111460e-002
2.512792e+003, 2.109364e-002
2.514720e+003, 2.095345e-002
2.516649e+003, 2.109142e-002
2.518577e+003, 2.106334e-002
2.520506e+003, 2.079472e-002
2.522434e+003, 2.087545e-002
2.524363e+003, 2.120169e-002
2.526291e+003, 2.122881e-002
2.528220e+003, 2.116106e-002
2.530148e+003, 2.107892e-002
2.532077e+003, 2.098774e-002
2.534005e+003, 2.090926e-002
2.535934e+003, 2.124850e-002
2.537862e+003, 2.129355e-002
2.539791e+003, 2.106472e-002
2.541719e+003, 2.127164e-002
2.543647e+003, 2.162611e-002
2.545576e+003, 2.150205e-002
2.547504e+003, 2.136928e-002
2.549433e+003, 2.160492e-002
2.551361e+003, 2.162204e-002
2.553290e+003, 2.124490e-002
2.555218e+003, 2.107575e-002
2.557147e+003, 2.119598e-002
2.559075e+003, 2.177414e-002
2.561004e+003, 2.191663e-002
2.562932e+003, 2.192803e-002
2.564861e+003, 2.190249e-002
2.566789e+003, 2.206980e-002
2.568718e+003, 2.230023e-002
2.570646e+003, 2.240952e-002
2.572574e+003, 2.242398e-002
2.574503e+003, 2.221357e-002
2.576431e+003, 2.200992e-002
2.578360e+003, 2.219630e-002
2.580288e+003, 2.261291e-002
2.582217e+003, 2.285621e-002
2.584145e+003, 2.281045e-002
2.586074e+003, 2.261483e-002
2.588002e+003, 2.248051e-002
2.589931e+003, 2.226817e-002
2.591859e+003, 2.224489e-002
2.593788e+003, 2.261432e-002
2.595716e+003, 2.307515e-002
2.597645e+003, 2.316671e-002
2.599573e+003, 2.294479e-002
2.601501e+003, 2.293040e-002
2.603430e+003, 2.286061e-002
2.605358e+003, 2.292167e-002
2.607287e+003, 2.317466e-002
2.609215e+003, 2.351155e-002
2.611144e+003, 2.364721e-002
2.613072e+003, 2.358025e-002
2.615001e+003, 2.342640e-002
2.616929e+003, 2.372466e-002
2.618858e+003, 2.404795e-002
2.620786e+003, 2.383801e-002
2.622715e+003, 2.353382e-002
2.624643e+003, 2.340412e-002
2.626572e+003, 2.376871e-002
2.628500e+003, 2.410714e-002
2.630428e+003, 2.402772e-002
2.632357e+003, 2.378660e-002
2.634285e+003, 2.372284e-002
2.636214e+003, 2.400064e-002
2.638142e+003, 2.399740e-002
2.640071e+003, 2.392454e-002
2.641999e+003, 2.389339e-002
2.643928e+003, 2.398552e-002
2.645856e+003, 2.421761e-002
2.647785e+003, 2.432317e-002
2.649713e+003, 2.424530e-002
2.651642e+003, 2.414289e-002
2.653570e+003, 2.391652e-002
2.655499e+003, 2.383752e-002
2.657427e+003, 2.408821e-002
2.659355e+003, 2.389391e-002
2.661284e+003, 2.352789e-002
2.663212e+003, 2.345012e-002
2.665141e+003, 2.336365e-002
2.667069e+003, 2.340391e-002
2.668998e+003, 2.314374e-002
2.670926e+003, 2.302279e-002
2.672855e+003, 2.315460e-002
2.674783e+003, 2.323396e-002
2.676712e+003, 2.341622e-002
2.678640e+003, 2.366494e-002
2.680569e+003, 2.374643e-002
2.682497e+003, 2.348433e-002
2.684426e+003, 2.331899e-002
2.686354e+003, 2.346678e-002
2.688282e+003, 2.345291e-002
2.690211e+003, 2.338953e-002
2.692139e+003, 2.350768e-002
2.694068e+003, 2.387622e-002
2.695996e+003, 2.380953e-002
2.697925e+003, 2.361958e-002
2.699853e+003, 2.369853e-002
2.701782e+003, 2.388502e-002
2.703710e+003, 2.398051e-002
2.705639e+003, 2.389276e-002
2.707567e+003, 2.390494e-002
2.709496e+003, 2.398894e-002
2.711424e+003, 2.390241e-002
2.713353e+003, 2.398832e-002
2.715281e+003, 2.404577e-002
2.717209e+003, 2.408462e-002
2.719138e+003, 2.411247e-002
2.721066e+003, 2.409995e-002
2.722995e+003, 2.427358e-002
2.724923e+003, 2.435058e-002
2.726852e+003, 2.426507e-002
2.728780e+003, 2.461617e-002
2.730709e+003, 2.481197e-002
2.732637e+003, 2.469349e-002
2.734566e+003, 2.444766e-002
2.736494e+003, 2.448295e-002
2.738423e+003, 2.454429e-002
2.740351e+003, 2.458892e-002
2.742280e+003, 2.479965e-002
2.744208e+003, 2.496443e-002
2.746136e+003, 2.508549e-002
2.748065e+003, 2.520577e-002
2.749993e+003, 2.519879e-002
2.751922e+003, 2.520269e-002
2.753850e+003, 2.504758e-002
2.755779e+003, 2.483810e-002
2.757707e+003, 2.502481e-002
2.759636e+003, 2.517491e-002
2.761564e+003, 2.525763e-002
2.763493e+003, 2.542322e-002
2.765421e+003, 2.546389e-002
2.767350e+003, 2.550263e-002
2.769278e+003, 2.557007e-002
2.771207e+003, 2.553207e-002
2.773135e+003, 2.554918e-002
2.775063e+003, 2.583230e-002
2.776992e+003, 2.586333e-002
2.778920e+003, 2.594243e-002
2.780849e+003, 2.587345e-002
2.782777e+003, 2.580313e-002
2.784706e+003, 2.590255e-002
2.786634e+003, 2.604473e-002
2.788563e+003, 2.587414e-002
2.790491e+003, 2.603496e-002
2.792420e+003, 2.643199e-002
2.794348e+003, 2.634787e-002
2.796277e+003, 2.639427e-002
2.798205e+003, 2.655432e-002
2.800134e+003, 2.626759e-002
2.802062e+003, 2.602994e-002
2.803990e+003, 2.609380e-002
2.805919e+003, 2.628035e-002
2.807847e+003, 2.633368e-002
2.809776e+003, 2.662702e-002
2.811704e+003, 2.661920e-002
2.813633e+003, 2.648797e-002
2.815561e+003, 2.663674e-002
2.817490e+003, 2.711524e-002
2.819418e+003, 2.727975e-002
2.821347e+003, 2.725597e-002
2.823275e+003, 2.718900e-002
2.825204e+003, 2.679475e-002
2.827132e+003, 2.672697e-002
2.829061e+003, 2.700561e-002
2.830989e+003, 2.731910e-002
2.832917e+003, 2.747333e-002
2.834846e+003, 2.727037e-002
2.836774e+003, 2.720522e-002
2.838703e+003, 2.736132e-002
2.840631e+003, 2.771889e-002
2.842560e+003, 2.802894e-002
2.844488e+003, 2.813453e-002
2.846417e+003, 2.802712e-002
2.848345e+003, 2.814545e-002
2.850274e+003, 2.832925e-002
2.852202e+003, 2.807133e-002
2.854131e+003, 2.811846e-002
2.856059e+003, 2.843758e-002
2.857988e+003, 2.836116e-002
2.859916e+003, 2.831815e-002
2.861844e+003, 2.834035e-002
2.863773e+003, 2.845401e-002
2.865701e+003, 2.846326e-002
2.867630e+003, 2.836780e-002
2.869558e+003, 2.858260e-002
2.871487e+003, 2.885407e-002
2.873415e+003, 2.855770e-002
2.875344e+003, 2.827550e-002
2.877272e+003, 2.840877e-002
2.879201e+003, 2.874873e-002
2.881129e+003, 2.900411e-002
2.883058e+003, 2.916256e-002
2.884986e+003, 2.910223e-002
2.886915e+003, 2.908438e-002
2.888843e+003, 2.913712e-002
2.890771e+003, 2.912569e-002
2.892700e+003, 2.912776e-002
2.894628e+003, 2.941008e-002
2.896557e+003, 2.958854e-002
2.898485e+003, 2.972909e-002
2.900414e+003, 2.983300e-002
2.902342e+003, 3.006614e-002
2.904271e+003, 3.027250e-002
2.906199e+003, 3.048830e-002
2.908128e+003, 3.093594e-002
2.910056e+003, 3.069403e-002
2.911985e+003, 3.047180e-002
2.913913e+003, 3.062640e-002
2.915842e+003, 3.072447e-002
2.917770e+003, 3.102365e-002
2.919698e+003, 3.116184e-002
2.921627e+003, 3.121527e-002
2.923555e+003, 3.138987e-002
2.925484e+003, 3.133556e-002
2.927412e+003, 3.116345e-002
2.929341e+003, 3.103051e-002
2.931269e+003, 3.102616e-002
2.933198e+003, 3.067397e-002
2.935126e+003, 3.031374e-002
2.937055e+003, 3.019713e-002
2.938983e+003, 3.031887e-002
2.940912e+003, 3.079507e-002
2.942840e+003, 3.087839e-002
2.944769e+003, 3.025216e-002
2.946697e+003, 3.012542e-002
2.948625e+003, 3.040233e-002
2.950554e+003, 3.079088e-002
2.952482e+003, 3.080088e-002
2.954411e+003, 3.063922e-002
2.956339e+003, 3.086470e-002
2.958268e+003, 3.086315e-002
2.960196e+003, 3.082751e-002
2.962125e+003, 3.088760e-002
2.964053e+003, 3.100942e-002
2.965982e+003, 3.116702e-002
2.967910e+003, 3.124934e-002
2.969839e+003, 3.126159e-002
2.971767e+003, 3.107257e-002
2.973696e+003, 3.097294e-002
2.975624e+003, 3.103018e-002
2.977552e+003, 3.076747e-002
2.979481e+003, 3.082086e-002
2.981409e+003, 3.083808e-002
2.983338e+003, 3.088040e-002
2.985266e+003, 3.108555e-002
2.987195e+003, 3.118055e-002
2.989123e+003, 3.108138e-002
2.991052e+003, 3.101921e-002
2.992980e+003, 3.111244e-002
2.994909e+003, 3.137513e-002
2.996837e+003, 3.159014e-002
2.998766e+003, 3.165994e-002
3.000694e+003, 3.152730e-002
3.002623e+003, 3.150832e-002
3.004551e+003, 3.183690e-002
3.006479e+003, 3.206988e-002
3.008408e+003, 3.200035e-002
3.010336e+003, 3.191875e-002
3.012265e+003, 3.208229e-002
3.014193e+003, 3.208379e-002
3.016122e+003, 3.208742e-002
3.018050e+003, 3.226177e-002
3.019979e+003, 3.195978e-002
3.021907e+003, 3.174751e-002
3.023836e+003, 3.183767e-002
3.025764e+003, 3.223315e-002
3.027693e+003, 3.223293e-002
3.029621e+003, 3.218536e-002
3.031550e+003, 3.226987e-002
3.033478e+003, 3.242895e-002
3.035406e+003, 3.281061e-002
3.037335e+003, 3.287355e-002
3.039263e+003, 3.255923e-002
3.041192e+003, 3.268525e-002
3.043120e+003, 3.278452e-002
3.045049e+003, 3.286777e-002
3.046977e+003, 3.309457e-002
3.048906e+003, 3.333585e-002
3.050834e+003, 3.336491e-002
3.052763e+003, 3.339389e-002
3.054691e+003, 3.357048e-002
3.056620e+003, 3.338103e-002
3.058548e+003, 3.328986e-002
3.060477e+003, 3.338988e-002
3.062405e+003, 3.373643e-002
3.064333e+003, 3.409076e-002
3.066262e+003, 3.409481e-002
3.068190e+003, 3.392332e-002
3.070119e+003, 3.386857e-002
3.072047e+003, 3.399760e-002
3.073976e+003, 3.439920e-002
3.075904e+003, 3.481322e-002
3.077833e+003, 3.467710e-002
3.079761e+003, 3.451997e-002
3.081690e+003, 3.479926e-002
3.083618e+003, 3.488783e-002
3.085547e+003, 3.473831e-002
3.087475e+003, 3.453620e-002
3.089404e+003, 3.474853e-002
3.091332e+003, 3.497605e-002
3.093260e+003, 3.480864e-002
3.095189e+003, 3.502275e-002
3.097117e+003, 3.521458e-002
3.099046e+003, 3.545535e-002
3.100974e+003, 3.556507e-002
3.102903e+003, 3.538252e-002
3.104831e+003, 3.544454e-002
3.106760e+003, 3.549012e-002
3.108688e+003, 3.555974e-002
3.110617e+003, 3.575800e-002
3.112545e+003, 3.561953e-002
3.114474e+003, 3.553566e-002
3.116402e+003, 3.605980e-002
3.118331e+003, 3.629277e-002
3.120259e+003, 3.612790e-002
3.122188e+003, 3.631035e-002
3.124116e+003, 3.620137e-002
3.126044e+003, 3.634340e-002
3.127973e+003, 3.665200e-002
3.129901e+003, 3.665946e-002
3.131830e+003, 3.679975e-002
3.133758e+003, 3.691331e-002
3.135687e+003, 3.688852e-002
3.137615e+003, 3.714600e-002
3.139544e+003, 3.738469e-002
3.141472e+003, 3.758814e-002
3.143401e+003, 3.754548e-002
3.145329e+003, 3.761704e-002
3.147258e+003, 3.771086e-002
3.149186e+003, 3.775156e-002
3.151115e+003, 3.800169e-002
3.153043e+003, 3.847047e-002
3.154971e+003, 3.870099e-002
3.156900e+003, 3.871356e-002
3.158828e+003, 3.867509e-002
3.160757e+003, 3.864484e-002
3.162685e+003, 3.882019e-002
3.164614e+003, 3.931735e-002
3.166542e+003, 3.936128e-002
3.168471e+003, 3.942706e-002
3.170399e+003, 3.939247e-002
3.172328e+003, 3.897466e-002
3.174256e+003, 3.865790e-002
3.176185e+003, 3.931037e-002
3.178113e+003, 3.964501e-002
3.180042e+003, 3.961518e-002
3.181970e+003, 3.997559e-002
3.183898e+003, 3.996767e-002
3.185827e+003, 4.041766e-002
3.187755e+003, 4.053935e-002
3.189684e+003, 4.032785e-002
3.191612e+003, 4.038544e-002
3.193541e+003, 4.053110e-002
3.195469e+003, 4.084189e-002
3.197398e+003, 4.082147e-002
3.199326e+003, 4.082383e-002
3.201255e+003, 4.100639e-002
3.203183e+003, 4.095207e-002
3.205112e+003, 4.111870e-002
3.207040e+003, 4.115077e-002
3.208969e+003, 4.151844e-002
3.210897e+003, 4.173226e-002
3.212825e+003, 4.172650e-002
3.214754e+003, 4.190609e-002
3.216682e+003, 4.234040e-002
3.218611e+003, 4.258533e-002
3.220539e+003, 4.258708e-002
3.222468e+003, 4.291510e-002
3.224396e+003, 4.320189e-002
3.226325e+003, 4.336015e-002
3.228253e+003, 4.350059e-002
3.230182e+003, 4.399531e-002
3.232110e+003, 4.380766e-002
3.234039e+003, 4.356296e-002
3.235967e+003, 4.363905e-002
3.237896e+003, 4.386050e-002
3.239824e+003, 4.405564e-002
3.241752e+003, 4.457115e-002
3.243681e+003, 4.459788e-002
3.245609e+003, 4.474784e-002
3.247538e+003, 4.487462e-002
3.249466e+003, 4.513214e-002
3.251395e+003, 4.557433e-002
3.253323e+003, 4.581224e-002
3.255252e+003, 4.577477e-002
3.257180e+003, 4.571985e-002
3.259109e+003, 4.618800e-002
3.261037e+003, 4.637642e-002
3.262966e+003, 4.669154e-002
3.264894e+003, 4.699900e-002
3.266823e+003, 4.735263e-002
3.268751e+003, 4.745763e-002
3.270679e+003, 4.756317e-002
3.272608e+003, 4.778263e-002
3.274536e+003, 4.798876e-002
3.276465e+003, 4.828070e-002
3.278393e+003, 4.864370e-002
3.280322e+003, 4.866230e-002
3.282250e+003, 4.895382e-002
3.284179e+003, 4.895116e-002
3.286107e+003, 4.951468e-002
3.288036e+003, 5.030371e-002
3.289964e+003, 5.087183e-002
3.291893e+003, 5.123105e-002
3.293821e+003, 5.117464e-002
3.295750e+003, 5.148429e-002
3.297678e+003, 5.208676e-002
3.299606e+003, 5.244378e-002
3.301535e+003, 5.281080e-002
3.303463e+003, 5.310764e-002
3.305392e+003, 5.319047e-002
3.307320e+003, 5.351334e-002
3.309249e+003, 5.385778e-002
3.311177e+003, 5.411722e-002
3.313106e+003, 5.471890e-002
3.315034e+003, 5.528631e-002
3.316963e+003, 5.554028e-002
3.318891e+003, 5.593172e-002
3.320820e+003, 5.681401e-002
3.322748e+003, 5.734857e-002
3.324677e+003, 5.770938e-002
3.326605e+003, 5.829969e-002
3.328533e+003, 5.944672e-002
3.330462e+003, 6.041066e-002
3.332390e+003, 6.115314e-002
3.334319e+003, 6.219488e-002
3.336247e+003, 6.334691e-002
3.338176e+003, 6.448791e-002
3.340104e+003, 6.543964e-002
3.342033e+003, 6.599871e-002
3.343961e+003, 6.682479e-002
3.345890e+003, 6.815220e-002
3.347818e+003, 6.943569e-002
3.349747e+003, 7.034991e-002
3.351675e+003, 7.155574e-002
3.353604e+003, 7.259881e-002
3.355532e+003, 7.310950e-002
3.357460e+003, 7.373179e-002
3.359389e+003, 7.457533e-002
3.361317e+003, 7.640114e-002
3.363246e+003, 7.782925e-002
3.365174e+003, 7.917669e-002
3.367103e+003, 8.088519e-002
3.369031e+003, 8.261296e-002
3.370960e+003, 8.487925e-002
3.372888e+003, 8.827154e-002
3.374817e+003, 9.193210e-002
3.376745e+003, 9.642684e-002
3.378674e+003, 1.011605e-001
3.380602e+003, 1.066716e-001
3.382531e+003, 1.133796e-001
3.384459e+003, 1.206469e-001
3.386387e+003, 1.286276e-001
3.388316e+003, 1.384305e-001
3.390244e+003, 1.493756e-001
3.392173e+003, 1.609339e-001
3.394101e+003, 1.735326e-001
3.396030e+003, 1.867227e-001
3.397958e+003, 1.994672e-001
3.399887e+003, 2.108757e-001
3.401815e+003, 2.193600e-001
3.403744e+003, 2.224048e-001
3.405672e+003, 2.189377e-001
3.407601e+003, 2.092690e-001
3.409529e+003, 1.941921e-001
3.411458e+003, 1.751885e-001
3.413386e+003, 1.552683e-001
3.415314e+003, 1.358014e-001
3.417243e+003, 1.185192e-001
3.419171e+003, 1.040604e-001
3.421100e+003, 9.167004e-002
3.423028e+003, 8.098085e-002
3.424957e+003, 7.264508e-002
3.426885e+003, 6.577066e-002
3.428814e+003, 6.042466e-002
3.430742e+003, 5.633697e-002
3.432671e+003, 5.307092e-002
3.434599e+003, 5.070698e-002
3.436528e+003, 4.891296e-002
3.438456e+003, 4.762988e-002
3.440385e+003, 4.624077e-002
3.442313e+003, 4.482331e-002
3.444241e+003, 4.417887e-002
3.446170e+003, 4.401333e-002
3.448098e+003, 4.407832e-002
3.450027e+003, 4.350680e-002
3.451955e+003, 4.316508e-002
3.453884e+003, 4.354754e-002
3.455812e+003, 4.324725e-002
3.457741e+003, 4.234590e-002
3.459669e+003, 4.126615e-002
3.461598e+003, 3.995181e-002
3.463526e+003, 3.879237e-002
3.465455e+003, 3.831447e-002
3.467383e+003, 3.756737e-002
3.469312e+003, 3.703609e-002
3.471240e+003, 3.677910e-002
3.473168e+003, 3.661146e-002
3.475097e+003, 3.638524e-002
3.477025e+003, 3.560206e-002
3.478954e+003, 3.467674e-002
3.480882e+003, 3.465525e-002
3.482811e+003, 3.476100e-002
3.484739e+003, 3.419340e-002
3.486668e+003, 3.404560e-002
3.488596e+003, 3.406396e-002
3.490525e+003, 3.384955e-002
3.492453e+003, 3.311821e-002
3.494382e+003, 3.223905e-002
3.496310e+003, 3.243826e-002
3.498239e+003, 3.289493e-002
3.500167e+003, 3.256764e-002
3.502095e+003, 3.218327e-002
3.504024e+003, 3.224131e-002
3.505952e+003, 3.234390e-002
3.507881e+003, 3.241726e-002
3.509809e+003, 3.242831e-002
3.511738e+003, 3.208257e-002
3.513666e+003, 3.172417e-002
3.515595e+003, 3.162824e-002
3.517523e+003, 3.177601e-002
3.519452e+003, 3.190059e-002
3.521380e+003, 3.180251e-002
3.523309e+003, 3.159884e-002
3.525237e+003, 3.129123e-002
3.527166e+003, 3.134974e-002
3.529094e+003, 3.128548e-002
3.531022e+003, 3.123523e-002
3.532951e+003, 3.135708e-002
3.534879e+003, 3.141758e-002
3.536808e+003, 3.208328e-002
3.538736e+003, 3.206174e-002
3.540665e+003, 3.144637e-002
3.542593e+003, 3.118953e-002
3.544522e+003, 3.141314e-002
3.546450e+003, 3.140853e-002
3.548379e+003, 3.087709e-002
3.550307e+003, 3.061870e-002
3.552236e+003, 3.017028e-002
3.554164e+003, 2.983028e-002
3.556093e+003, 3.014597e-002
3.558021e+003, 3.016736e-002
3.559949e+003, 3.031892e-002
3.561878e+003, 2.999934e-002
3.563806e+003, 2.920012e-002
3.565735e+003, 2.955981e-002
3.567663e+003, 2.981439e-002
3.569592e+003, 2.969872e-002
3.571520e+003, 2.961634e-002
3.573449e+003, 2.928636e-002
3.575377e+003, 2.924120e-002
3.577306e+003, 2.958131e-002
3.579234e+003, 2.937873e-002
3.581163e+003, 2.851849e-002
3.583091e+003, 2.838621e-002
3.585020e+003, 2.879252e-002
3.586948e+003, 2.900960e-002
3.588876e+003, 2.868166e-002
3.590805e+003, 2.878663e-002
3.592733e+003, 2.895391e-002
3.594662e+003, 2.805994e-002
3.596590e+003, 2.851269e-002
3.598519e+003, 2.888053e-002
3.600447e+003, 2.839384e-002
3.602376e+003, 2.814701e-002
3.604304e+003, 2.828003e-002
3.606233e+003, 2.801876e-002
3.608161e+003, 2.794623e-002
3.610090e+003, 2.824723e-002
3.612018e+003, 2.858625e-002
3.613947e+003, 2.882079e-002
3.615875e+003, 2.849184e-002
3.617803e+003, 2.846211e-002
3.619732e+003, 2.872364e-002
3.621660e+003, 2.828999e-002
3.623589e+003, 2.802038e-002
3.625517e+003, 2.815452e-002
3.627446e+003, 2.761983e-002
3.629374e+003, 2.760698e-002
3.631303e+003, 2.813478e-002
3.633231e+003, 2.870595e-002
3.635160e+003, 2.944382e-002
3.637088e+003, 2.887241e-002
3.639017e+003, 2.821455e-002
3.640945e+003, 2.849628e-002
3.642874e+003, 2.855475e-002
3.644802e+003, 2.862262e-002
3.646730e+003, 2.836822e-002
3.648659e+003, 2.797822e-002
3.650587e+003, 2.842088e-002
3.652516e+003, 2.850366e-002
3.654444e+003, 2.806485e-002
3.656373e+003, 2.858606e-002
3.658301e+003, 2.898612e-002
3.660230e+003, 2.871970e-002
3.662158e+003, 2.899456e-002
3.664087e+003, 2.972499e-002
3.666015e+003, 2.967703e-002
3.667944e+003, 2.895286e-002
3.669872e+003, 2.838880e-002
3.671801e+003, 2.897513e-002
3.673729e+003, 2.922031e-002
3.675657e+003, 2.906634e-002
3.677586e+003, 2.929380e-002
3.679514e+003, 2.989214e-002
3.681443e+003, 2.988556e-002
3.683371e+003, 2.937494e-002
3.685300e+003, 2.984795e-002
3.687228e+003, 3.005128e-002
3.689157e+003, 2.942855e-002
3.691085e+003, 2.916692e-002
3.693014e+003, 2.985245e-002
3.694942e+003, 3.000238e-002
3.696871e+003, 2.920914e-002
3.698799e+003, 2.883353e-002
3.700728e+003, 2.906817e-002
3.702656e+003, 2.904972e-002
3.704584e+003, 2.928858e-002
3.706513e+003, 3.020169e-002
3.708441e+003, 3.015055e-002
3.710370e+003, 3.027233e-002
3.712298e+003, 3.015947e-002
3.714227e+003, 3.018342e-002
3.716155e+003, 3.077479e-002
3.718084e+003, 3.139573e-002
3.720012e+003, 3.128131e-002
3.721941e+003, 3.091082e-002
3.723869e+003, 3.065645e-002
3.725798e+003, 3.118636e-002
3.727726e+003, 3.116674e-002
3.729655e+003, 3.066743e-002
3.731583e+003, 3.021625e-002
3.733511e+003, 3.072751e-002
3.735440e+003, 3.129445e-002
3.737368e+003, 3.142688e-002
3.739297e+003, 3.118517e-002
3.741225e+003, 3.093540e-002
3.743154e+003, 3.064408e-002
3.745082e+003, 3.057957e-002
3.747011e+003, 3.104651e-002
3.748939e+003, 3.077625e-002
3.750868e+003, 3.029517e-002
3.752796e+003, 3.015861e-002
3.754725e+003, 3.040541e-002
3.756653e+003, 3.100170e-002
3.758582e+003, 3.140237e-002
3.760510e+003, 3.084293e-002
3.762438e+003, 3.125173e-002
3.764367e+003, 3.172525e-002
3.766295e+003, 3.151236e-002
3.768224e+003, 3.157839e-002
3.770152e+003, 3.162538e-002
3.772081e+003, 3.168806e-002
3.774009e+003, 3.147224e-002
3.775938e+003, 3.140773e-002
3.777866e+003, 3.139786e-002
3.779795e+003, 3.142372e-002
3.781723e+003, 3.165473e-002
3.783652e+003, 3.162754e-002
3.785580e+003, 3.141096e-002
3.787509e+003, 3.137529e-002
3.789437e+003, 3.185255e-002
3.791365e+003, 3.217785e-002
3.793294e+003, 3.219537e-002
3.795222e+003, 3.207569e-002
3.797151e+003, 3.211790e-002
3.799079e+003, 3.245551e-002
3.801008e+003, 3.252491e-002
3.802936e+003, 3.224508e-002
3.804865e+003, 3.185628e-002
3.806793e+003, 3.243085e-002
3.808722e+003, 3.290474e-002
3.810650e+003, 3.235890e-002
3.812579e+003, 3.198023e-002
3.814507e+003, 3.151688e-002
3.816436e+003, 3.141940e-002
3.818364e+003, 3.232790e-002
3.820292e+003, 3.234397e-002
3.822221e+003, 3.201089e-002
3.824149e+003, 3.186428e-002
3.826078e+003, 3.195841e-002
3.828006e+003, 3.226366e-002
3.829935e+003, 3.211521e-002
3.831863e+003, 3.182244e-002
3.833792e+003, 3.169693e-002
3.835720e+003, 3.200695e-002
3.837649e+003, 3.202019e-002
3.839577e+003, 3.205677e-002
3.841506e+003, 3.205976e-002
3.843434e+003, 3.213648e-002
3.845363e+003, 3.291186e-002
3.847291e+003, 3.266536e-002
3.849219e+003, 3.254778e-002
3.851148e+003, 3.219097e-002
3.853076e+003, 3.142130e-002
3.855005e+003, 3.152749e-002
3.856933e+003, 3.195781e-002
3.858862e+003, 3.219249e-002
3.860790e+003, 3.243968e-002
3.862719e+003, 3.268228e-002
3.864647e+003, 3.238539e-002
3.866576e+003, 3.245615e-002
3.868504e+003, 3.253506e-002
3.870433e+003, 3.268884e-002
3.872361e+003, 3.259825e-002
3.874290e+003, 3.239448e-002
3.876218e+003, 3.226711e-002
3.878146e+003, 3.226967e-002
3.880075e+003, 3.242516e-002
3.882003e+003, 3.287103e-002
3.883932e+003, 3.295507e-002
3.885860e+003, 3.242941e-002
3.887789e+003, 3.190627e-002
3.889717e+003, 3.197266e-002
3.891646e+003, 3.251765e-002
3.893574e+003, 3.273131e-002
3.895503e+003, 3.276700e-002
3.897431e+003, 3.315297e-002
3.899360e+003, 3.367935e-002
3.901288e+003, 3.398982e-002
3.903217e+003, 3.405531e-002
3.905145e+003, 3.337034e-002
3.907073e+003, 3.217971e-002
3.909002e+003, 3.237631e-002
3.910930e+003, 3.251974e-002
3.912859e+003, 3.279826e-002
3.914787e+003, 3.317231e-002
3.916716e+003, 3.316072e-002
3.918644e+003, 3.355747e-002
3.920573e+003, 3.351436e-002
3.922501e+003, 3.330261e-002
3.924430e+003, 3.332071e-002
3.926358e+003, 3.350053e-002
3.928287e+003, 3.301808e-002
3.930215e+003, 3.297879e-002
3.932144e+003, 3.320127e-002
3.934072e+003, 3.254184e-002
3.936000e+003, 3.206711e-002
3.937929e+003, 3.225221e-002
3.939857e+003, 3.251811e-002
3.941786e+003, 3.310065e-002
3.943714e+003, 3.301480e-002
3.945643e+003, 3.251816e-002
3.947571e+003, 3.267136e-002
3.949500e+003, 3.344336e-002
3.951428e+003, 3.398404e-002
3.953357e+003, 3.343782e-002
3.955285e+003, 3.343048e-002
3.957214e+003, 3.323274e-002
3.959142e+003, 3.241391e-002
3.961071e+003, 3.192021e-002
3.962999e+003, 3.270684e-002
3.964927e+003, 3.337843e-002
3.966856e+003, 3.374955e-002
3.968784e+003, 3.394983e-002
3.970713e+003, 3.399799e-002
3.972641e+003, 3.412983e-002
3.974570e+003, 3.439720e-002
3.976498e+003, 3.449615e-002
3.978427e+003, 3.459276e-002
3.980355e+003, 3.418749e-002
3.982284e+003, 3.334468e-002
3.984212e+003, 3.282836e-002
3.986141e+003, 3.303688e-002
3.988069e+003, 3.376982e-002
3.989998e+003, 3.435243e-002
3.991926e+003, 3.412162e-002
3.993854e+003, 3.435918e-002
3.995783e+003, 3.457133e-002
3.997711e+003, 3.427415e-002
3.999640e+003, 3.340111e-002
4.001568e+003, 0.000000e+000
##END=



