##NAMES=Paravauxite
##RRUFFID=R050314
##IDEAL CHEMISTRY=Fe^2+^Al_2_(PO_4_)_2_(OH)_2_&#183;8H_2_O
##LOCALITY=Siglo XX mine, Llallagua, Bolivia
##OWNER=RRUFF
##SOURCE=Eugene Schlepp
##DESCRIPTION=Pale green prismatic crystals
##STATUS=The identification of this mineral has been confirmed by X-ray diffraction and chemical analysis
##URL=rruff.info/R050314
##MEASURED CHEMISTRY=(Fe^2+^_0.93_Mg_0.07_)_Σ=1_Al_2.00_(P_1.00_O_4_)_2_(OH)_2_·8H_2_O
399.1926, 0.1937602
401.1211, 0.2116971
403.0496, 0.2127149
404.9780, 0.2055829
406.9065, 0.2003541
408.8350, 0.2028860
410.7634, 0.2014207
412.6919, 0.1934135
414.6204, 0.1969928
416.5488, 0.2023237
418.4773, 0.2013144
420.4058, 0.2008653
422.3342, 0.2012426
424.2627, 0.2013738
426.1912, 0.2059250
428.1196, 0.2078133
430.0481, 0.2091628
431.9766, 0.2103174
433.9050, 0.2099423
435.8335, 0.2140829
437.7620, 0.2166621
439.6904, 0.2166243
441.6189, 0.2194777
443.5474, 0.2200545
445.4758, 0.2152534
447.4043, 0.2113249
449.3328, 0.2110938
451.2612, 0.2078730
453.1897, 0.2039118
455.1182, 0.2010463
457.0466, 0.1972920
458.9751, 0.1933071
460.9036, 0.1898722
462.8320, 0.1863002
464.7605, 0.1808030
466.6890, 0.1753317
468.6174, 0.1717532
470.5459, 0.1670526
472.4744, 0.1650491
474.4028, 0.1643801
476.3313, 0.1631768
478.2598, 0.1621274
480.1882, 0.1622322
482.1167, 0.1631505
484.0452, 0.1647667
485.9736, 0.1672622
487.9021, 0.1695168
489.8306, 0.1716149
491.7590, 0.1738543
493.6875, 0.1769431
495.6160, 0.1804497
497.5444, 0.1838416
499.4729, 0.1882602
501.4014, 0.1926422
503.3298, 0.1969136
505.2583, 0.2001318
507.1868, 0.2034598
509.1152, 0.2069185
511.0437, 0.2092125
512.9722, 0.2096029
514.9006, 0.2089541
516.8291, 0.2100437
518.7576, 0.2111094
520.6860, 0.2101274
522.6145, 0.2093812
524.5430, 0.2091375
526.4714, 0.2089336
528.3999, 0.2068049
530.3284, 0.2045861
532.2568, 0.2049924
534.1853, 0.2036877
536.1138, 0.2019537
538.0422, 0.2012290
539.9707, 0.2001234
541.8992, 0.1993079
543.8276, 0.1984520
545.7561, 0.1974373
547.6846, 0.1966321
549.6130, 0.1950829
551.5415, 0.1939453
553.4700, 0.1931244
555.3984, 0.1925646
557.3269, 0.1938905
559.2554, 0.1971464
561.1838, 0.1996886
563.1123, 0.2009941
565.0408, 0.2010380
566.9692, 0.2002146
568.8977, 0.1992198
570.8262, 0.1993534
572.7546, 0.2004080
574.6831, 0.2001101
576.6116, 0.1988702
578.5400, 0.1977440
580.4685, 0.1968970
582.3970, 0.1957585
584.3254, 0.1949705
586.2539, 0.1933082
588.1824, 0.1914535
590.1108, 0.1889230
592.0393, 0.1856583
593.9678, 0.1827627
595.8962, 0.1803934
597.8247, 0.1792288
599.7532, 0.1780809
601.6816, 0.1758455
603.6101, 0.1742837
605.5386, 0.1729997
607.4670, 0.1712879
609.3955, 0.1700833
611.3240, 0.1695518
613.2524, 0.1693407
615.1809, 0.1687612
617.1094, 0.1687815
619.0378, 0.1689613
620.9663, 0.1688257
622.8948, 0.1691611
624.8232, 0.1704357
626.7517, 0.1718710
628.6802, 0.1731479
630.6086, 0.1742952
632.5371, 0.1758778
634.4656, 0.1778201
636.3940, 0.1790808
638.3225, 0.1797957
640.2510, 0.1811022
642.1794, 0.1825860
644.1079, 0.1831191
646.0364, 0.1829317
647.9648, 0.1821775
649.8933, 0.1808588
651.8218, 0.1787141
653.7502, 0.1755883
655.6787, 0.1715668
657.6072, 0.1680747
659.5356, 0.1654077
661.4641, 0.1629303
663.3926, 0.1604460
665.3210, 0.1581503
667.2495, 0.1556967
669.1780, 0.1533421
671.1064, 0.1513816
673.0349, 0.1493474
674.9634, 0.1476769
676.8918, 0.1463328
678.8203, 0.1446990
680.7488, 0.1425745
682.6772, 0.1406772
684.6057, 0.1390443
686.5342, 0.1370120
688.4626, 0.1344754
690.3911, 0.1321107
692.3196, 0.1301818
694.2480, 0.1283177
696.1765, 0.1263790
698.1050, 0.1244391
700.0334, 0.1227976
701.9619, 0.1209927
703.8904, 0.1189327
705.8188, 0.1172181
707.7473, 0.1156281
709.6758, 0.1139445
711.6042, 0.1124964
713.5327, 0.1111802
715.4612, 0.1102692
717.3896, 0.1094766
719.3181, 0.1081356
721.2466, 0.1070673
723.1750, 0.1058455
725.1035, 0.1044890
727.0320, 0.1037562
728.9604, 0.1033521
730.8889, 0.1021751
732.8174, 0.1009428
734.7458, 9.9920914E-02
736.6743, 9.8375797E-02
738.6028, 9.6751437E-02
740.5313, 9.5258273E-02
742.4597, 9.3884423E-02
744.3882, 9.2655227E-02
746.3167, 9.1272727E-02
748.2451, 8.9987688E-02
750.1736, 8.8596627E-02
752.1021, 8.6899668E-02
754.0305, 8.5113160E-02
755.9590, 8.3715498E-02
757.8875, 8.2680143E-02
759.8159, 8.1944972E-02
761.7444, 8.1106521E-02
763.6729, 7.9761647E-02
765.6013, 7.8481548E-02
767.5298, 7.8096583E-02
769.4583, 7.7655569E-02
771.3867, 7.6870210E-02
773.3152, 7.6022901E-02
775.2437, 7.5130157E-02
777.1721, 7.4549191E-02
779.1006, 7.4453250E-02
781.0291, 7.3961154E-02
782.9575, 7.3591121E-02
784.8860, 7.3354252E-02
786.8145, 7.2667390E-02
788.7429, 7.2418503E-02
790.6714, 7.2285131E-02
792.5999, 7.1800053E-02
794.5283, 7.1694359E-02
796.4568, 7.1773127E-02
798.3853, 7.1918413E-02
800.3137, 7.1601599E-02
802.2422, 7.1206167E-02
804.1707, 7.1112573E-02
806.0991, 7.0901252E-02
808.0276, 7.0553102E-02
809.9561, 7.0285782E-02
811.8845, 7.0258804E-02
813.8130, 7.0287377E-02
815.7415, 7.0164002E-02
817.6699, 7.0162043E-02
819.5984, 7.0239872E-02
821.5269, 7.0212990E-02
823.4553, 6.9976017E-02
825.3838, 7.0143446E-02
827.3123, 7.0230000E-02
829.2407, 7.0054069E-02
831.1692, 7.0337892E-02
833.0977, 7.0569716E-02
835.0261, 7.0339389E-02
836.9546, 7.0514217E-02
838.8831, 7.0856199E-02
840.8115, 7.0914648E-02
842.7400, 7.1016163E-02
844.6685, 7.1369037E-02
846.5969, 7.1374074E-02
848.5254, 7.1538627E-02
850.4539, 7.2056197E-02
852.3823, 7.2295189E-02
854.3108, 7.2686583E-02
856.2393, 7.3128708E-02
858.1677, 7.3549964E-02
860.0962, 7.4020959E-02
862.0247, 7.4623302E-02
863.9531, 7.5360037E-02
865.8816, 7.5998619E-02
867.8101, 7.6695479E-02
869.7385, 7.7687010E-02
871.6670, 7.8832850E-02
873.5955, 7.9676516E-02
875.5239, 8.0700390E-02
877.4524, 8.2020797E-02
879.3809, 8.2912140E-02
881.3093, 8.3917327E-02
883.2378, 8.5228659E-02
885.1663, 8.6721636E-02
887.0947, 8.8239558E-02
889.0232, 8.9741960E-02
890.9517, 9.1124810E-02
892.8801, 9.3053311E-02
894.8085, 9.4869167E-02
896.7370, 9.6487261E-02
898.6655, 9.8309688E-02
900.5939, 9.9961206E-02
902.5224, 0.1019557
904.4509, 0.1043171
906.3793, 0.1067268
908.3078, 0.1092219
910.2363, 0.1117742
912.1647, 0.1143784
914.0932, 0.1170364
916.0217, 0.1201007
917.9501, 0.1232595
919.8786, 0.1263036
921.8071, 0.1291683
923.7355, 0.1325522
925.6640, 0.1364067
927.5925, 0.1399308
929.5209, 0.1433755
931.4494, 0.1472637
933.3779, 0.1513326
935.3063, 0.1558031
937.2348, 0.1602091
939.1633, 0.1645637
941.0917, 0.1695615
943.0202, 0.1745854
944.9487, 0.1792578
946.8771, 0.1842944
948.8056, 0.1894500
950.7341, 0.1947977
952.6625, 0.1993072
954.5910, 0.2034827
956.5195, 0.2079761
958.4479, 0.2121378
960.3764, 0.2163991
962.3049, 0.2202833
964.2333, 0.2244882
966.1618, 0.2286935
968.0903, 0.2327063
970.0187, 0.2376630
971.9472, 0.2431644
973.8757, 0.2490436
975.8041, 0.2557196
977.7326, 0.2630237
979.6611, 0.2706127
981.5895, 0.2793055
983.5180, 0.2891229
985.4465, 0.2983865
987.3749, 0.3074606
989.3034, 0.3166956
991.2319, 0.3243193
993.1603, 0.3304262
995.0888, 0.3351540
997.0173, 0.3375488
998.9457, 0.3375967
1000.874, 0.3362064
1002.803, 0.3353475
1004.731, 0.3368361
1006.660, 0.3405862
1008.588, 0.3464328
1010.517, 0.3531259
1012.445, 0.3606502
1014.373, 0.3690315
1016.302, 0.3770299
1018.230, 0.3839305
1020.159, 0.3892927
1022.087, 0.3922865
1024.016, 0.3930281
1025.944, 0.3911854
1027.873, 0.3866591
1029.801, 0.3811042
1031.730, 0.3751333
1033.658, 0.3688000
1035.587, 0.3623985
1037.515, 0.3561064
1039.444, 0.3500477
1041.372, 0.3434523
1043.301, 0.3363877
1045.229, 0.3296644
1047.157, 0.3230263
1049.086, 0.3159946
1051.014, 0.3082426
1052.943, 0.3004283
1054.871, 0.2925050
1056.800, 0.2844296
1058.728, 0.2766592
1060.657, 0.2688307
1062.585, 0.2611963
1064.514, 0.2540372
1066.442, 0.2472008
1068.371, 0.2407223
1070.299, 0.2338455
1072.228, 0.2266351
1074.156, 0.2197404
1076.084, 0.2128545
1078.013, 0.2058631
1079.941, 0.1988294
1081.870, 0.1915313
1083.798, 0.1843491
1085.727, 0.1776656
1087.655, 0.1709698
1089.584, 0.1643237
1091.512, 0.1579099
1093.441, 0.1516481
1095.369, 0.1457063
1097.298, 0.1404784
1099.226, 0.1356793
1101.155, 0.1308103
1103.083, 0.1261284
1105.011, 0.1214360
1106.940, 0.1171282
1108.868, 0.1130014
1110.797, 0.1088106
1112.725, 0.1048869
1114.654, 0.1013812
1116.582, 9.8093338E-02
1118.511, 9.4945014E-02
1120.439, 9.2050053E-02
1122.368, 8.9234509E-02
1124.296, 8.6600743E-02
1126.225, 8.4148787E-02
1128.153, 8.1875317E-02
1130.082, 7.9831094E-02
1132.010, 7.8114837E-02
1133.938, 7.6534517E-02
1135.867, 7.5243451E-02
1137.795, 7.4180298E-02
1139.724, 7.3046811E-02
1141.652, 7.2280668E-02
1143.581, 7.1849041E-02
1145.509, 7.1729243E-02
1147.438, 7.2349533E-02
1149.366, 7.3143803E-02
1151.295, 7.3844612E-02
1153.223, 7.3984720E-02
1155.152, 7.3241547E-02
1157.080, 7.1373552E-02
1159.009, 6.8357147E-02
1160.937, 6.4656124E-02
1162.865, 6.1565019E-02
1164.794, 5.9133772E-02
1166.722, 5.6682691E-02
1168.651, 5.4109279E-02
1170.579, 5.1954150E-02
1172.508, 5.0086781E-02
1174.436, 4.8539892E-02
1176.365, 4.7331981E-02
1178.293, 4.5984831E-02
1180.222, 4.4550180E-02
1182.150, 4.3411270E-02
1184.079, 4.2385019E-02
1186.007, 4.1346379E-02
1187.936, 4.0451191E-02
1189.864, 3.9443340E-02
1191.792, 3.8447861E-02
1193.721, 3.7421480E-02
1195.649, 3.6445551E-02
1197.578, 3.5697021E-02
1199.506, 3.4860399E-02
1201.435, 3.3788629E-02
1203.363, 3.2792199E-02
1205.292, 3.2059882E-02
1207.220, 3.1364210E-02
1209.149, 3.0643450E-02
1211.077, 2.9757250E-02
1213.006, 2.9011210E-02
1214.934, 2.8351940E-02
1216.863, 2.7616819E-02
1218.791, 2.6894430E-02
1220.719, 2.6322540E-02
1222.648, 2.5549339E-02
1224.576, 2.5116710E-02
1226.505, 2.4820389E-02
1228.433, 2.4301751E-02
1230.362, 2.3641771E-02
1232.290, 2.3062060E-02
1234.219, 2.2649219E-02
1236.147, 2.2471329E-02
1238.076, 2.2062810E-02
1240.004, 2.1453740E-02
1241.933, 2.1117371E-02
1243.861, 2.0866159E-02
1245.790, 2.0649210E-02
1247.718, 2.0450450E-02
1249.646, 2.0228170E-02
1251.575, 1.9937810E-02
1253.503, 1.9771369E-02
1255.432, 1.9621680E-02
1257.360, 1.9362710E-02
1259.289, 1.9071590E-02
1261.217, 1.8802520E-02
1263.146, 1.9001950E-02
1265.074, 1.9045200E-02
1267.003, 1.9006699E-02
1268.931, 1.9180359E-02
1270.860, 1.9023320E-02
1272.788, 1.8907459E-02
1274.717, 1.9260461E-02
1276.645, 1.9524360E-02
1278.573, 1.9380240E-02
1280.502, 1.9187110E-02
1282.430, 1.8892640E-02
1284.359, 1.8721970E-02
1286.287, 1.8941620E-02
1288.216, 1.9072860E-02
1290.144, 1.9136710E-02
1292.073, 1.9042930E-02
1294.001, 1.8988419E-02
1295.930, 1.8839220E-02
1297.858, 1.8384410E-02
1299.787, 1.8135350E-02
1301.715, 1.8327519E-02
1303.644, 1.8482029E-02
1305.572, 1.8517811E-02
1307.500, 1.8604441E-02
1309.429, 1.8662810E-02
1311.357, 1.8524859E-02
1313.286, 1.8640980E-02
1315.214, 1.8689970E-02
1317.143, 1.8534459E-02
1319.071, 1.8471221E-02
1321.000, 1.8468609E-02
1322.928, 1.8510560E-02
1324.857, 1.8497741E-02
1326.785, 1.8516861E-02
1328.714, 1.8653261E-02
1330.642, 1.8661840E-02
1332.571, 1.8808199E-02
1334.499, 1.8891061E-02
1336.427, 1.8799599E-02
1338.356, 1.8630350E-02
1340.284, 1.8615611E-02
1342.213, 1.8800100E-02
1344.141, 1.8952370E-02
1346.070, 1.9036651E-02
1347.998, 1.9000711E-02
1349.927, 1.8811280E-02
1351.855, 1.8972309E-02
1353.784, 1.9123500E-02
1355.712, 1.9019190E-02
1357.641, 1.9058980E-02
1359.569, 1.9271171E-02
1361.498, 1.9288391E-02
1363.426, 1.9271189E-02
1365.354, 1.9225350E-02
1367.283, 1.9223820E-02
1369.211, 1.9478070E-02
1371.140, 1.9886579E-02
1373.068, 2.0181039E-02
1374.997, 2.0066410E-02
1376.925, 1.9933259E-02
1378.854, 2.0021509E-02
1380.782, 2.0022171E-02
1382.711, 1.9982200E-02
1384.639, 2.0189909E-02
1386.568, 2.0311249E-02
1388.496, 2.0346070E-02
1390.424, 2.0581501E-02
1392.353, 2.0750400E-02
1394.281, 2.0950910E-02
1396.210, 2.1434391E-02
1398.138, 2.1618070E-02
1400.067, 2.1448759E-02
1401.995, 2.1530719E-02
1403.924, 2.1528101E-02
1405.852, 2.1784460E-02
1407.781, 2.2053869E-02
1409.709, 2.2152791E-02
1411.638, 2.2425970E-02
1413.566, 2.2583220E-02
1415.495, 2.2723960E-02
1417.423, 2.2819890E-02
1419.351, 2.2877781E-02
1421.280, 2.3214109E-02
1423.208, 2.3363570E-02
1425.137, 2.3569440E-02
1427.065, 2.3708370E-02
1428.994, 2.3668051E-02
1430.922, 2.3849990E-02
1432.851, 2.3931220E-02
1434.779, 2.3896590E-02
1436.708, 2.4042150E-02
1438.636, 2.4309980E-02
1440.565, 2.4296559E-02
1442.493, 2.3990011E-02
1444.422, 2.3870081E-02
1446.350, 2.3990169E-02
1448.278, 2.4304699E-02
1450.207, 2.4509640E-02
1452.135, 2.4626080E-02
1454.064, 2.4461530E-02
1455.992, 2.4140431E-02
1457.921, 2.4219630E-02
1459.849, 2.4596671E-02
1461.778, 2.4752639E-02
1463.706, 2.4598639E-02
1465.635, 2.4476049E-02
1467.563, 2.4640361E-02
1469.492, 2.5138211E-02
1471.420, 2.5224000E-02
1473.349, 2.5231920E-02
1475.277, 2.5322560E-02
1477.205, 2.5543431E-02
1479.134, 2.5747290E-02
1481.062, 2.5733249E-02
1482.991, 2.5867360E-02
1484.919, 2.6000939E-02
1486.848, 2.6178131E-02
1488.776, 2.6435841E-02
1490.705, 2.6627610E-02
1492.633, 2.6614031E-02
1494.562, 2.6674930E-02
1496.490, 2.7005870E-02
1498.419, 2.7490890E-02
1500.347, 2.7702410E-02
1502.276, 2.7773330E-02
1504.204, 2.8038951E-02
1506.132, 2.8267410E-02
1508.061, 2.8639700E-02
1509.989, 2.9087439E-02
1511.918, 2.9352060E-02
1513.846, 2.9511411E-02
1515.775, 2.9929381E-02
1517.703, 3.0088350E-02
1519.632, 3.0421570E-02
1521.560, 3.0781770E-02
1523.489, 3.1037809E-02
1525.417, 3.1192221E-02
1527.346, 3.1370651E-02
1529.274, 3.2178570E-02
1531.203, 3.2663699E-02
1533.131, 3.2759529E-02
1535.059, 3.3211719E-02
1536.988, 3.3526499E-02
1538.916, 3.3990070E-02
1540.845, 3.4733031E-02
1542.773, 3.5169601E-02
1544.702, 3.5518609E-02
1546.630, 3.6073551E-02
1548.559, 3.6611009E-02
1550.487, 3.7031021E-02
1552.416, 3.7843570E-02
1554.344, 3.8522512E-02
1556.273, 3.8809691E-02
1558.201, 3.9011069E-02
1560.130, 3.9656620E-02
1562.058, 4.0406499E-02
1563.986, 4.1219141E-02
1565.915, 4.2030320E-02
1567.843, 4.2605050E-02
1569.772, 4.3239709E-02
1571.700, 4.3914951E-02
1573.629, 4.4506311E-02
1575.557, 4.5402251E-02
1577.486, 4.6318080E-02
1579.414, 4.6901960E-02
1581.343, 4.7541000E-02
1583.271, 4.8824541E-02
1585.200, 5.0178122E-02
1587.128, 5.1011361E-02
1589.057, 5.2070379E-02
1590.985, 5.3468719E-02
1592.913, 5.4733831E-02
1594.842, 5.5748630E-02
1596.770, 5.6459028E-02
1598.699, 5.7496279E-02
1600.627, 5.8644041E-02
1602.556, 5.9774179E-02
1604.484, 6.1024141E-02
1606.413, 6.2309612E-02
1608.341, 6.3668109E-02
1610.270, 6.4748861E-02
1612.198, 6.5586507E-02
1614.127, 6.6297598E-02
1616.055, 6.7127578E-02
1617.984, 6.7909501E-02
1619.912, 6.8263270E-02
1621.840, 6.8548799E-02
1623.769, 6.8998612E-02
1625.697, 6.9270313E-02
1627.626, 6.9214657E-02
1629.554, 6.8921499E-02
1631.483, 6.8784170E-02
1633.411, 6.8594173E-02
1635.340, 6.8198480E-02
1637.268, 6.7998707E-02
1639.197, 6.7981452E-02
1641.125, 6.7713208E-02
1643.054, 6.7366049E-02
1644.982, 6.7022271E-02
1646.911, 6.5997452E-02
1648.839, 6.5098800E-02
1650.767, 6.4388007E-02
1652.696, 6.3851550E-02
1654.624, 6.2953413E-02
1656.553, 6.1419781E-02
1658.481, 6.0182549E-02
1660.410, 5.8992580E-02
1662.338, 5.7438221E-02
1664.267, 5.5874448E-02
1666.195, 5.4863051E-02
1668.124, 5.3732581E-02
1670.052, 5.2028701E-02
1671.981, 5.0449271E-02
1673.909, 4.9034551E-02
1675.838, 4.7375400E-02
1677.766, 4.5770980E-02
1679.694, 4.4047982E-02
1681.623, 4.2526521E-02
1683.551, 4.0843301E-02
1685.480, 3.9397281E-02
1687.408, 3.8501341E-02
1689.337, 3.7594918E-02
1691.265, 3.6330361E-02
1693.194, 3.4760650E-02
1695.122, 3.3308599E-02
1697.051, 3.2202609E-02
1698.979, 3.1606879E-02
1700.908, 3.0827310E-02
1702.836, 2.9943610E-02
1704.765, 2.8887041E-02
1706.693, 2.8477561E-02
1708.621, 2.7878281E-02
1710.550, 2.7218090E-02
1712.478, 2.6589669E-02
1714.407, 2.5905650E-02
1716.335, 2.5499420E-02
1718.264, 2.5090471E-02
1720.192, 2.4343010E-02
1722.121, 2.3276320E-02
1724.049, 2.2682279E-02
1725.978, 2.2310629E-02
1727.906, 2.2106091E-02
1729.835, 2.1964850E-02
1731.763, 2.1420529E-02
1733.692, 2.0974649E-02
1735.620, 2.0460360E-02
1737.548, 1.9804170E-02
1739.477, 1.9352660E-02
1741.405, 1.9000789E-02
1743.334, 1.8887030E-02
1745.262, 1.8899500E-02
1747.191, 1.8658800E-02
1749.119, 1.8875441E-02
1751.048, 1.9123670E-02
1752.976, 1.8722611E-02
1754.905, 1.8356470E-02
1756.833, 1.8275520E-02
1758.762, 1.8236740E-02
1760.690, 1.8277761E-02
1762.619, 1.8466899E-02
1764.547, 1.8464280E-02
1766.475, 1.8331939E-02
1768.404, 1.7934451E-02
1770.332, 1.7686320E-02
1772.261, 1.8114300E-02
1774.189, 1.8213339E-02
1776.118, 1.8023830E-02
1778.046, 1.8005161E-02
1779.975, 1.7886760E-02
1781.903, 1.7769540E-02
1783.832, 1.7578630E-02
1785.760, 1.7877990E-02
1787.689, 1.8117361E-02
1789.617, 1.7828740E-02
1791.546, 1.7724119E-02
1793.474, 1.8142540E-02
1795.402, 1.7724790E-02
1797.331, 1.7534520E-02
1799.259, 1.7698040E-02
1801.188, 1.7928870E-02
1803.116, 1.7911689E-02
1805.045, 1.7611060E-02
1806.973, 1.7757680E-02
1808.902, 1.7640051E-02
1810.830, 1.7324140E-02
1812.759, 1.7245330E-02
1814.687, 1.6757039E-02
1816.616, 1.6875630E-02
1818.544, 1.7941410E-02
1820.473, 1.7646540E-02
1822.401, 1.7137600E-02
1824.329, 1.7571321E-02
1826.258, 1.7579930E-02
1828.186, 1.7300591E-02
1830.115, 1.7058279E-02
1832.043, 1.7408321E-02
1833.972, 1.7709671E-02
1835.900, 1.8097401E-02
1837.829, 1.7617850E-02
1839.757, 1.7657030E-02
1841.686, 1.8180089E-02
1843.614, 1.8480510E-02
1845.543, 1.8088240E-02
1847.471, 1.6911721E-02
1849.400, 1.7003721E-02
1851.328, 1.7713521E-02
1853.256, 1.7071430E-02
1855.185, 1.7085111E-02
1857.113, 1.7436741E-02
1859.042, 1.7539199E-02
1860.970, 1.7893840E-02
1862.899, 1.7686119E-02
1864.827, 1.7051660E-02
1866.756, 1.6571609E-02
1868.684, 1.6913369E-02
1870.613, 1.7430440E-02
1872.541, 1.6864600E-02
1874.470, 1.6722320E-02
1876.398, 1.6736601E-02
1878.327, 1.6148539E-02
1880.255, 1.5904309E-02
1882.183, 1.6861670E-02
1884.112, 1.7134789E-02
1886.040, 1.6674310E-02
1887.969, 1.6611431E-02
1889.897, 1.6058531E-02
1891.826, 1.5631611E-02
1893.754, 1.6651191E-02
1895.683, 1.7907230E-02
1897.611, 1.7523481E-02
1899.540, 1.6858719E-02
1901.468, 1.6803950E-02
1903.397, 1.5901299E-02
1905.325, 1.5563780E-02
1907.254, 1.5348450E-02
1909.182, 1.6634710E-02
1911.110, 1.7572850E-02
1913.039, 1.6810670E-02
1914.967, 1.6368810E-02
1916.896, 1.6375380E-02
1918.824, 1.6925540E-02
1920.753, 1.5499680E-02
1922.681, 1.3972030E-02
1924.610, 1.4477780E-02
1926.538, 1.5311120E-02
1928.467, 1.5681971E-02
1930.395, 1.4460190E-02
1932.324, 1.4346650E-02
1934.252, 1.5255000E-02
1936.181, 1.4898960E-02
1938.109, 1.4725250E-02
1940.037, 1.5646720E-02
1941.966, 1.6639819E-02
1943.894, 1.5704930E-02
1945.823, 1.4801440E-02
1947.751, 1.3564180E-02
1949.680, 1.3487220E-02
1951.608, 1.1774920E-02
1953.537, 1.0592460E-02
1955.465, 1.1039050E-02
1957.394, 1.0329590E-02
1959.322, 8.4893061E-03
1961.251, 9.7215977E-03
1963.179, 1.2779670E-02
1965.108, 1.2228350E-02
1967.036, 9.7336611E-03
1968.964, 1.1539810E-02
1970.893, 1.2966250E-02
1972.821, 1.2243670E-02
1974.750, 1.0232910E-02
1976.678, 1.0409150E-02
1978.607, 1.4789660E-02
1980.535, 1.4975000E-02
1982.464, 1.3126280E-02
1984.392, 1.3310440E-02
1986.321, 1.3499650E-02
1988.249, 1.2757920E-02
1990.178, 1.1921440E-02
1992.106, 1.1911850E-02
1994.035, 1.1319970E-02
1995.963, 9.3763936E-03
1997.891, 9.9681048E-03
1999.820, 1.0706490E-02
2001.748, 1.0845680E-02
2003.677, 9.5888181E-03
2005.605, 9.7405687E-03
2007.534, 1.0686780E-02
2009.462, 1.0248320E-02
2011.391, 9.4246147E-03
2013.319, 9.0045454E-03
2015.248, 9.0968311E-03
2017.176, 9.0207150E-03
2019.105, 1.0856130E-02
2021.033, 1.1466730E-02
2022.962, 9.9902675E-03
2024.890, 9.2932442E-03
2026.818, 9.1003403E-03
2028.747, 9.4000120E-03
2030.675, 9.1604209E-03
2032.604, 1.0071060E-02
2034.532, 1.1458840E-02
2036.461, 1.2163520E-02
2038.389, 1.1467350E-02
2040.318, 1.1910040E-02
2042.246, 1.2422780E-02
2044.175, 1.2211930E-02
2046.103, 1.2201250E-02
2048.032, 1.3179330E-02
2049.960, 1.3587740E-02
2051.889, 1.3168750E-02
2053.817, 1.3217250E-02
2055.746, 1.3698090E-02
2057.674, 1.2739150E-02
2059.603, 1.2083070E-02
2061.531, 1.2143260E-02
2063.459, 1.1857910E-02
2065.388, 1.1902490E-02
2067.316, 1.3416130E-02
2069.245, 1.3723850E-02
2071.173, 1.3431690E-02
2073.102, 1.2373040E-02
2075.030, 1.3217710E-02
2076.959, 1.5020870E-02
2078.887, 1.5791619E-02
2080.816, 1.5333150E-02
2082.744, 1.4811400E-02
2084.673, 1.5619090E-02
2086.601, 1.6202210E-02
2088.530, 1.6106300E-02
2090.458, 1.5252460E-02
2092.386, 1.4514920E-02
2094.315, 1.3612400E-02
2096.243, 1.3757420E-02
2098.172, 1.3425370E-02
2100.100, 1.4396420E-02
2102.029, 1.6713699E-02
2103.957, 1.6594069E-02
2105.886, 1.5525120E-02
2107.814, 1.5297350E-02
2109.743, 1.5875351E-02
2111.671, 1.6244380E-02
2113.600, 1.6325019E-02
2115.528, 1.6181380E-02
2117.457, 1.4154950E-02
2119.385, 1.3684120E-02
2121.313, 1.5351720E-02
2123.242, 1.6232070E-02
2125.170, 1.4590530E-02
2127.099, 1.3785210E-02
2129.027, 1.3718020E-02
2130.956, 1.3317970E-02
2132.884, 1.1974900E-02
2134.813, 1.0923900E-02
2136.741, 1.1022890E-02
2138.670, 1.1745830E-02
2140.598, 1.1766630E-02
2142.527, 1.2248900E-02
2144.455, 1.3688920E-02
2146.384, 1.4302400E-02
2148.312, 1.0152740E-02
2150.240, 1.0086300E-02
2152.169, 1.1296620E-02
2154.097, 8.3639054E-03
2156.026, 5.6136642E-03
2157.954, 8.0884742E-03
2159.883, 1.4927880E-02
2161.811, 1.7027540E-02
2163.740, 1.3088610E-02
2165.668, 1.4346450E-02
2167.597, 1.8752700E-02
2169.525, 1.7529881E-02
2171.454, 1.4812680E-02
2173.382, 1.3720780E-02
2175.311, 1.6492600E-02
2177.239, 1.8648179E-02
2179.167, 1.7500101E-02
2181.096, 1.7258400E-02
2183.024, 1.9381121E-02
2184.953, 1.8997980E-02
2186.881, 1.7833790E-02
2188.810, 1.6901569E-02
2190.738, 1.5830969E-02
2192.667, 1.6489280E-02
2194.595, 1.7822010E-02
2196.524, 1.5433750E-02
2198.452, 1.4858560E-02
2200.381, 1.8311519E-02
2202.309, 1.9922040E-02
2204.238, 2.1155789E-02
2206.166, 2.0898869E-02
2208.094, 2.0787640E-02
2210.023, 1.9964309E-02
2211.951, 1.9422680E-02
2213.880, 1.9665619E-02
2215.808, 2.0232789E-02
2217.737, 1.9795060E-02
2219.665, 1.9273389E-02
2221.594, 2.1028919E-02
2223.522, 2.2795660E-02
2225.451, 2.2178730E-02
2227.379, 2.1964939E-02
2229.308, 2.0410590E-02
2231.236, 1.8283861E-02
2233.165, 2.0463889E-02
2235.093, 2.4027530E-02
2237.021, 2.2762259E-02
2238.950, 2.1118149E-02
2240.878, 2.2525171E-02
2242.807, 2.2620611E-02
2244.735, 2.2506321E-02
2246.664, 2.3554239E-02
2248.592, 2.1624001E-02
2250.521, 2.1501970E-02
2252.449, 2.4473030E-02
2254.378, 2.7335189E-02
2256.306, 2.7943781E-02
2258.235, 2.6751690E-02
2260.163, 2.5255300E-02
2262.092, 2.4416961E-02
2264.020, 2.3935180E-02
2265.948, 2.4919439E-02
2267.877, 2.4827750E-02
2269.805, 2.5027120E-02
2271.734, 2.6205700E-02
2273.662, 2.7489780E-02
2275.591, 2.7962159E-02
2277.519, 2.7620910E-02
2279.448, 2.7296340E-02
2281.376, 2.7364811E-02
2283.305, 2.7502671E-02
2285.233, 2.8423350E-02
2287.162, 2.8654641E-02
2289.090, 2.7983939E-02
2291.019, 2.8685771E-02
2292.947, 2.9079551E-02
2294.875, 2.8729919E-02
2296.804, 2.9073060E-02
2298.732, 2.9135510E-02
2300.661, 2.8061571E-02
2302.589, 2.8348541E-02
2304.518, 2.8949739E-02
2306.446, 2.8073190E-02
2308.375, 2.7675141E-02
2310.303, 2.8615121E-02
2312.232, 2.9157210E-02
2314.160, 3.0019080E-02
2316.089, 3.0352270E-02
2318.017, 3.0595491E-02
2319.946, 3.0916160E-02
2321.874, 3.1470019E-02
2323.802, 3.2279961E-02
2325.731, 3.1479370E-02
2327.659, 3.0391039E-02
2329.588, 3.0244740E-02
2331.516, 3.0666171E-02
2333.445, 3.0932629E-02
2335.373, 3.0704210E-02
2337.302, 3.0648069E-02
2339.230, 3.0912960E-02
2341.159, 3.0835761E-02
2343.087, 3.0586310E-02
2345.016, 3.0302539E-02
2346.944, 3.0193759E-02
2348.873, 2.9815011E-02
2350.801, 2.8990420E-02
2352.729, 2.9321261E-02
2354.658, 2.9945159E-02
2356.586, 3.0652380E-02
2358.515, 3.1211151E-02
2360.443, 3.1025600E-02
2362.372, 3.1455308E-02
2364.300, 3.1068619E-02
2366.229, 3.1002650E-02
2368.157, 3.0820100E-02
2370.086, 3.0249000E-02
2372.014, 2.9257691E-02
2373.942, 2.9373160E-02
2375.871, 2.9842690E-02
2377.799, 2.9576940E-02
2379.728, 3.0613091E-02
2381.656, 3.0646680E-02
2383.585, 2.9837720E-02
2385.513, 2.9993819E-02
2387.442, 2.9772099E-02
2389.370, 2.9945020E-02
2391.299, 3.0036720E-02
2393.227, 3.0020621E-02
2395.156, 2.9989179E-02
2397.084, 2.9475801E-02
2399.012, 2.9032299E-02
2400.941, 2.9983420E-02
2402.869, 3.1027989E-02
2404.798, 3.0786879E-02
2406.726, 3.0570710E-02
2408.655, 3.1296741E-02
2410.583, 3.1158119E-02
2412.512, 3.0422980E-02
2414.440, 3.0385280E-02
2416.369, 3.0740600E-02
2418.297, 3.1097781E-02
2420.226, 3.1695578E-02
2422.154, 3.0885929E-02
2424.083, 3.0918131E-02
2426.011, 3.2020900E-02
2427.939, 3.1931091E-02
2429.868, 3.2263469E-02
2431.796, 3.2816160E-02
2433.725, 3.2619189E-02
2435.653, 3.2272968E-02
2437.582, 3.2485731E-02
2439.510, 3.2944679E-02
2441.439, 3.2894962E-02
2443.367, 3.2204919E-02
2445.296, 3.2250050E-02
2447.224, 3.2065202E-02
2449.153, 3.3294760E-02
2451.081, 3.3653609E-02
2453.010, 3.2825518E-02
2454.938, 3.3384230E-02
2456.866, 3.4004550E-02
2458.795, 3.3963371E-02
2460.723, 3.4551140E-02
2462.652, 3.4659211E-02
2464.580, 3.3364121E-02
2466.509, 3.3457510E-02
2468.437, 3.4232590E-02
2470.366, 3.3758819E-02
2472.294, 3.3641979E-02
2474.223, 3.4806561E-02
2476.151, 3.4869120E-02
2478.080, 3.4023710E-02
2480.008, 3.3700731E-02
2481.937, 3.4585379E-02
2483.865, 3.5135619E-02
2485.793, 3.4709290E-02
2487.722, 3.3984091E-02
2489.650, 3.3605389E-02
2491.579, 3.4467950E-02
2493.507, 3.4648929E-02
2495.436, 3.4338821E-02
2497.364, 3.4699969E-02
2499.293, 3.5977971E-02
2501.221, 3.6410589E-02
2503.150, 3.6581822E-02
2505.078, 3.6395159E-02
2507.007, 3.6108341E-02
2508.935, 3.5742611E-02
2510.864, 3.5629962E-02
2512.792, 3.6023509E-02
2514.720, 3.7499171E-02
2516.649, 3.8302831E-02
2518.577, 3.8017120E-02
2520.506, 3.7292819E-02
2522.434, 3.7490599E-02
2524.363, 3.7715670E-02
2526.291, 3.7436970E-02
2528.220, 3.6705561E-02
2530.148, 3.6632840E-02
2532.077, 3.7415151E-02
2534.005, 3.8324140E-02
2535.934, 3.8244911E-02
2537.862, 3.7995432E-02
2539.791, 3.7836179E-02
2541.719, 3.8599260E-02
2543.647, 3.9285012E-02
2545.576, 3.8476609E-02
2547.504, 3.8566321E-02
2549.433, 3.9388720E-02
2551.361, 3.9349049E-02
2553.290, 3.8840432E-02
2555.218, 3.8665570E-02
2557.147, 3.7944369E-02
2559.075, 3.8254749E-02
2561.004, 3.8992312E-02
2562.932, 3.8635202E-02
2564.861, 3.9076559E-02
2566.789, 3.9612189E-02
2568.718, 3.9135329E-02
2570.646, 3.8555380E-02
2572.574, 3.9099801E-02
2574.503, 4.0672891E-02
2576.431, 4.0989172E-02
2578.360, 3.9017960E-02
2580.288, 3.9827600E-02
2582.217, 4.1353799E-02
2584.145, 4.1726772E-02
2586.074, 4.1592330E-02
2588.002, 4.1875999E-02
2589.931, 4.1491140E-02
2591.859, 4.1633509E-02
2593.788, 4.2363878E-02
2595.716, 4.3936100E-02
2597.645, 4.4352990E-02
2599.573, 4.4512421E-02
2601.501, 4.4260971E-02
2603.430, 4.3347940E-02
2605.358, 4.2345650E-02
2607.287, 4.1894771E-02
2609.215, 4.2583730E-02
2611.144, 4.2963341E-02
2613.072, 4.2896520E-02
2615.001, 4.3794870E-02
2616.929, 4.4434819E-02
2618.858, 4.3233398E-02
2620.786, 4.2963360E-02
2622.715, 4.3510471E-02
2624.643, 4.3917581E-02
2626.572, 4.5028679E-02
2628.500, 4.5581531E-02
2630.428, 4.5868441E-02
2632.357, 4.5459080E-02
2634.285, 4.4106051E-02
2636.214, 4.4700868E-02
2638.142, 4.5877662E-02
2640.071, 4.6147581E-02
2641.999, 4.6514992E-02
2643.928, 4.6948589E-02
2645.856, 4.7009781E-02
2647.785, 4.6809450E-02
2649.713, 4.6745531E-02
2651.642, 4.6579260E-02
2653.570, 4.7031250E-02
2655.499, 4.7571730E-02
2657.427, 4.7768150E-02
2659.355, 4.7611538E-02
2661.284, 4.7853108E-02
2663.212, 4.8192810E-02
2665.141, 4.7596041E-02
2667.069, 4.6893619E-02
2668.998, 4.7373589E-02
2670.926, 4.7514860E-02
2672.855, 4.6783339E-02
2674.783, 4.7393192E-02
2676.712, 4.8206691E-02
2678.640, 4.8407029E-02
2680.569, 4.8512530E-02
2682.497, 4.7689769E-02
2684.426, 4.7743332E-02
2686.354, 4.9608171E-02
2688.282, 5.0421230E-02
2690.211, 5.0413389E-02
2692.139, 5.0452590E-02
2694.068, 5.0461061E-02
2695.996, 5.0383400E-02
2697.925, 5.0678991E-02
2699.853, 5.1564079E-02
2701.782, 5.2486841E-02
2703.710, 5.2570589E-02
2705.639, 5.3070471E-02
2707.567, 5.3892650E-02
2709.496, 5.4801378E-02
2711.424, 5.5105850E-02
2713.353, 5.4722961E-02
2715.281, 5.4263029E-02
2717.209, 5.4668061E-02
2719.138, 5.5040210E-02
2721.066, 5.5684049E-02
2722.995, 5.6220520E-02
2724.923, 5.6902088E-02
2726.852, 5.6972601E-02
2728.780, 5.6866799E-02
2730.709, 5.7073500E-02
2732.637, 5.7109062E-02
2734.566, 5.7565190E-02
2736.494, 5.8213159E-02
2738.423, 5.8235310E-02
2740.351, 5.8828659E-02
2742.280, 5.9935369E-02
2744.208, 6.0402051E-02
2746.136, 6.0785510E-02
2748.065, 6.0725000E-02
2749.993, 6.0595151E-02
2751.922, 6.1623711E-02
2753.850, 6.2152460E-02
2755.779, 6.1841801E-02
2757.707, 6.3187249E-02
2759.636, 6.4822860E-02
2761.564, 6.4632997E-02
2763.493, 6.4119034E-02
2765.421, 6.4087987E-02
2767.350, 6.4123303E-02
2769.278, 6.4967118E-02
2771.207, 6.6735633E-02
2773.135, 6.7431226E-02
2775.063, 6.7751899E-02
2776.992, 6.7625754E-02
2778.920, 6.7548543E-02
2780.849, 6.7906991E-02
2782.777, 6.8664663E-02
2784.706, 6.9114387E-02
2786.634, 6.9545344E-02
2788.563, 6.9844797E-02
2790.491, 6.9931991E-02
2792.420, 7.0937671E-02
2794.348, 7.1562544E-02
2796.277, 7.1949571E-02
2798.205, 7.2153337E-02
2800.134, 7.2697133E-02
2802.062, 7.3282801E-02
2803.990, 7.3855147E-02
2805.919, 7.5476237E-02
2807.847, 7.6433323E-02
2809.776, 7.6484717E-02
2811.704, 7.6368310E-02
2813.633, 7.6380096E-02
2815.561, 7.6820910E-02
2817.490, 7.7811003E-02
2819.418, 7.8445993E-02
2821.347, 7.9262733E-02
2823.275, 7.9303041E-02
2825.204, 7.9926170E-02
2827.132, 8.0907293E-02
2829.061, 8.1813417E-02
2830.989, 8.1700869E-02
2832.917, 8.1772767E-02
2834.846, 8.2247414E-02
2836.774, 8.3281502E-02
2838.703, 8.3608553E-02
2840.631, 8.4509723E-02
2842.560, 8.4746443E-02
2844.488, 8.4452592E-02
2846.417, 8.4637403E-02
2848.345, 8.5207857E-02
2850.274, 8.5506767E-02
2852.202, 8.5524417E-02
2854.131, 8.5524291E-02
2856.059, 8.5372724E-02
2857.988, 8.6695313E-02
2859.916, 8.8082843E-02
2861.844, 8.8749990E-02
2863.773, 8.9425802E-02
2865.701, 9.0637557E-02
2867.630, 9.1801412E-02
2869.558, 9.1532797E-02
2871.487, 9.2345499E-02
2873.415, 9.3081191E-02
2875.344, 9.3621887E-02
2877.272, 9.4622813E-02
2879.201, 9.4984591E-02
2881.129, 9.4574608E-02
2883.058, 9.5801950E-02
2884.986, 9.6858203E-02
2886.915, 9.6227936E-02
2888.843, 9.7372226E-02
2890.771, 9.8839693E-02
2892.700, 9.9213123E-02
2894.628, 0.1000453
2896.557, 9.9872820E-02
2898.485, 0.1005827
2900.414, 0.1017350
2902.342, 0.1023741
2904.271, 0.1018973
2906.199, 0.1002855
2908.128, 0.1009654
2910.056, 0.1035726
2911.985, 0.1034514
2913.913, 0.1023134
2915.842, 0.1011918
2917.770, 0.1017686
2919.698, 0.1033466
2921.627, 0.1028561
2923.555, 0.1025659
2925.484, 0.1041632
2927.412, 0.1057321
2929.341, 0.1065887
2931.269, 0.1071519
2933.198, 0.1082810
2935.126, 0.1084910
2937.055, 0.1084211
2938.983, 0.1086561
2940.912, 0.1099238
2942.840, 0.1109864
2944.769, 0.1114407
2946.697, 0.1117018
2948.625, 0.1119144
2950.554, 0.1124200
2952.482, 0.1118826
2954.411, 0.1126415
2956.339, 0.1148887
2958.268, 0.1157667
2960.196, 0.1150118
2962.125, 0.1152659
2964.053, 0.1171487
2965.982, 0.1179667
2967.910, 0.1190673
2969.839, 0.1202446
2971.767, 0.1201013
2973.696, 0.1205297
2975.624, 0.1218579
2977.552, 0.1216470
2979.481, 0.1215578
2981.409, 0.1226450
2983.338, 0.1240351
2985.266, 0.1249842
2987.195, 0.1242962
2989.123, 0.1228511
2991.052, 0.1232559
2992.980, 0.1247387
2994.909, 0.1261626
2996.837, 0.1263385
2998.766, 0.1271368
3000.694, 0.1283491
3002.623, 0.1288819
3004.551, 0.1279623
3006.479, 0.1279876
3008.408, 0.1300475
3010.336, 0.1304575
3012.265, 0.1313669
3014.193, 0.1325545
3016.122, 0.1331876
3018.050, 0.1338536
3019.979, 0.1347824
3021.907, 0.1353969
3023.836, 0.1356261
3025.764, 0.1357459
3027.693, 0.1361014
3029.621, 0.1358170
3031.550, 0.1368198
3033.478, 0.1383089
3035.406, 0.1375756
3037.335, 0.1379926
3039.263, 0.1403551
3041.192, 0.1412777
3043.120, 0.1407298
3045.049, 0.1407103
3046.977, 0.1408858
3048.906, 0.1414659
3050.834, 0.1414646
3052.763, 0.1410947
3054.691, 0.1421130
3056.620, 0.1431885
3058.548, 0.1423607
3060.477, 0.1433478
3062.405, 0.1446146
3064.333, 0.1454819
3066.262, 0.1457761
3068.190, 0.1456758
3070.119, 0.1459238
3072.047, 0.1455016
3073.976, 0.1463158
3075.904, 0.1484272
3077.833, 0.1489766
3079.761, 0.1489715
3081.690, 0.1498453
3083.618, 0.1511034
3085.547, 0.1508281
3087.475, 0.1513615
3089.404, 0.1517107
3091.332, 0.1515385
3093.260, 0.1507411
3095.189, 0.1500792
3097.117, 0.1518960
3099.046, 0.1534493
3100.974, 0.1539662
3102.903, 0.1536052
3104.831, 0.1545118
3106.760, 0.1549021
3108.688, 0.1550525
3110.617, 0.1566924
3112.545, 0.1586106
3114.474, 0.1578006
3116.402, 0.1566242
3118.331, 0.1562593
3120.259, 0.1559155
3122.188, 0.1570536
3124.116, 0.1580194
3126.044, 0.1582526
3127.973, 0.1581276
3129.901, 0.1587902
3131.830, 0.1590154
3133.758, 0.1586893
3135.687, 0.1582513
3137.615, 0.1572338
3139.544, 0.1566590
3141.472, 0.1570005
3143.401, 0.1565254
3145.329, 0.1579023
3147.258, 0.1589544
3149.186, 0.1585137
3151.115, 0.1589115
3153.043, 0.1590003
3154.971, 0.1589999
3156.900, 0.1598634
3158.828, 0.1603907
3160.757, 0.1603731
3162.685, 0.1601387
3164.614, 0.1590678
3166.542, 0.1563408
3168.471, 0.1548851
3170.399, 0.1555051
3172.328, 0.1570358
3174.256, 0.1577921
3176.185, 0.1588782
3178.113, 0.1583482
3180.042, 0.1568022
3181.970, 0.1578277
3183.898, 0.1563749
3185.827, 0.1567225
3187.755, 0.1589842
3189.684, 0.1586014
3191.612, 0.1577599
3193.541, 0.1569731
3195.469, 0.1567968
3197.398, 0.1570385
3199.326, 0.1566415
3201.255, 0.1552277
3203.183, 0.1546431
3205.112, 0.1549688
3207.040, 0.1560707
3208.969, 0.1569432
3210.897, 0.1581458
3212.825, 0.1585844
3214.754, 0.1572197
3216.682, 0.1573138
3218.611, 0.1579775
3220.539, 0.1595125
3222.468, 0.1602288
3224.396, 0.1602745
3226.325, 0.1591138
3228.253, 0.1578852
3230.182, 0.1590742
3232.110, 0.1617264
3234.039, 0.1630194
3235.967, 0.1640161
3237.896, 0.1633046
3239.824, 0.1622847
3241.752, 0.1616021
3243.681, 0.1624511
3245.609, 0.1653034
3247.538, 0.1660233
3249.466, 0.1645765
3251.395, 0.1648160
3253.323, 0.1672649
3255.252, 0.1679492
3257.180, 0.1673347
3259.109, 0.1670009
3261.037, 0.1665796
3262.966, 0.1661326
3264.894, 0.1660872
3266.823, 0.1664849
3268.751, 0.1682482
3270.679, 0.1687821
3272.608, 0.1673849
3274.536, 0.1664082
3276.465, 0.1651264
3278.393, 0.1645854
3280.322, 0.1648998
3282.250, 0.1641187
3284.179, 0.1617251
3286.107, 0.1605130
3288.036, 0.1603843
3289.964, 0.1614175
3291.893, 0.1613752
3293.821, 0.1608098
3295.750, 0.1594583
3297.678, 0.1579393
3299.606, 0.1581300
3301.535, 0.1577494
3303.463, 0.1554312
3305.392, 0.1553724
3307.320, 0.1567767
3309.249, 0.1553344
3311.177, 0.1531603
3313.106, 0.1515540
3315.034, 0.1516680
3316.963, 0.1499604
3318.891, 0.1487978
3320.820, 0.1489754
3322.748, 0.1484420
3324.677, 0.1477144
3326.605, 0.1456240
3328.533, 0.1442362
3330.462, 0.1442742
3332.390, 0.1444381
3334.319, 0.1443044
3336.247, 0.1440854
3338.176, 0.1439855
3340.104, 0.1431084
3342.033, 0.1431936
3343.961, 0.1461226
3345.890, 0.1452845
3347.818, 0.1425123
3349.747, 0.1426575
3351.675, 0.1431089
3353.604, 0.1430050
3355.532, 0.1416224
3357.460, 0.1411723
3359.389, 0.1427608
3361.317, 0.1426769
3363.246, 0.1412985
3365.174, 0.1425911
3367.103, 0.1421755
3369.031, 0.1398102
3370.960, 0.1396823
3372.888, 0.1410608
3374.817, 0.1420881
3376.745, 0.1425028
3378.674, 0.1415724
3380.602, 0.1423635
3382.531, 0.1446459
3384.459, 0.1459101
3386.387, 0.1462872
3388.316, 0.1465718
3390.244, 0.1468793
3392.173, 0.1482034
3394.101, 0.1508192
3396.030, 0.1517561
3397.958, 0.1535618
3399.887, 0.1553978
3401.815, 0.1581102
3403.744, 0.1596532
3405.672, 0.1630136
3407.601, 0.1659414
3409.529, 0.1668091
3411.458, 0.1673131
3413.386, 0.1690254
3415.314, 0.1719164
3417.243, 0.1742357
3419.171, 0.1720733
3421.100, 0.1686521
3423.028, 0.1652243
3424.957, 0.1636631
3426.885, 0.1621151
3428.814, 0.1591336
3430.742, 0.1560889
3432.671, 0.1530534
3434.599, 0.1500641
3436.528, 0.1491599
3438.456, 0.1472925
3440.385, 0.1438023
3442.313, 0.1406498
3444.241, 0.1395098
3446.170, 0.1373290
3448.098, 0.1352504
3450.027, 0.1345327
3451.955, 0.1338547
3453.884, 0.1337372
3455.812, 0.1300634
3457.741, 0.1265326
3459.669, 0.1269497
3461.598, 0.1256234
3463.526, 0.1209303
3465.455, 0.1184260
3467.383, 0.1176223
3469.312, 0.1169794
3471.240, 0.1167762
3473.168, 0.1142518
3475.097, 0.1126617
3477.025, 0.1142917
3478.954, 0.1121904
3480.882, 0.1089460
3482.811, 0.1094380
3484.739, 0.1119617
3486.668, 0.1106513
3488.596, 0.1070326
3490.525, 0.1043294
3492.453, 0.1043130
3494.382, 0.1040330
3496.310, 0.1030841
3498.239, 0.1031294
3500.167, 0.1004166
3502.095, 9.7669199E-02
3504.024, 9.7046047E-02
3505.952, 9.5137127E-02
3507.881, 9.2102587E-02
3509.809, 9.1151863E-02
3511.738, 9.0520099E-02
3513.666, 9.1670588E-02
3515.595, 9.1821469E-02
3517.523, 8.9482524E-02
3519.452, 9.0193607E-02
3521.380, 9.2915080E-02
3523.309, 9.4450742E-02
3525.237, 9.5695250E-02
3527.166, 9.4488382E-02
3529.094, 9.2155047E-02
3531.022, 9.1915689E-02
3532.951, 9.3609668E-02
3534.879, 9.4600223E-02
3536.808, 9.4740704E-02
3538.736, 9.6397869E-02
3540.665, 9.7140193E-02
3542.593, 9.7100697E-02
3544.522, 9.6097372E-02
3546.450, 9.5588282E-02
3548.379, 9.3474656E-02
3550.307, 9.3730472E-02
3552.236, 9.3230397E-02
3554.164, 8.7959804E-02
3556.093, 8.3211228E-02
3558.021, 8.2960017E-02
3559.949, 8.2699344E-02
3561.878, 8.0508552E-02
3563.806, 7.8235827E-02
3565.735, 7.5723477E-02
3567.663, 7.3417947E-02
3569.592, 7.0640743E-02
3571.520, 6.8672359E-02
3573.449, 6.6085286E-02
3575.377, 6.5172091E-02
3577.306, 6.4598210E-02
3579.234, 6.4014390E-02
3581.163, 6.1813589E-02
3583.091, 6.2194671E-02
3585.020, 6.4760409E-02
3586.948, 6.3730463E-02
3588.876, 6.0937621E-02
3590.805, 6.1050180E-02
3592.733, 6.3362688E-02
3594.662, 6.1974220E-02
3596.590, 5.7890300E-02
3598.519, 5.5718411E-02
3600.447, 5.4619972E-02
3602.376, 5.5571329E-02
3604.304, 5.6260530E-02
3606.233, 5.5324189E-02
3608.161, 5.3466540E-02
3610.090, 5.2127331E-02
3612.018, 5.1458381E-02
3613.947, 4.7956619E-02
3615.875, 4.5639679E-02
3617.803, 4.2562641E-02
3619.732, 3.7987340E-02
3621.660, 3.4854621E-02
3623.589, 3.1713221E-02
3625.517, 2.9858289E-02
3627.446, 2.9972410E-02
3629.374, 3.2591339E-02
3631.303, 3.1310841E-02
3633.231, 2.4707111E-02
3635.160, 2.1177810E-02
3637.088, 2.2950049E-02
3639.017, 2.6090860E-02
3640.945, 2.5986951E-02
3642.874, 2.3433510E-02
3644.802, 2.1755610E-02
3646.730, 2.1619510E-02
3648.659, 1.9877890E-02
3650.587, 1.9771909E-02
3652.516, 1.9439280E-02
3654.444, 1.6452000E-02
3656.373, 1.7192880E-02
3658.301, 1.7295189E-02
3660.230, 1.5747741E-02
3662.158, 1.4122790E-02
3664.087, 1.6396539E-02
3666.015, 1.3373730E-02
3667.944, 9.9375164E-03
3669.872, 1.2826650E-02
3671.801, 1.3339130E-02
3673.729, 1.3782450E-02
3675.657, 1.4077900E-02
3677.586, 1.6115339E-02
3679.514, 1.6261481E-02
3681.443, 1.1679800E-02
3683.371, 9.3537262E-03
3685.300, 1.2340400E-02
3687.228, 1.4520880E-02
3689.157, 1.3803210E-02
3691.085, 1.1069400E-02
3693.014, 8.7173982E-03
3694.942, 8.7321671E-03
3696.871, 9.7276121E-03
3698.799, 1.0098440E-02
3700.728, 1.0060020E-02
3702.656, 1.1461400E-02
3704.584, 1.0906950E-02
3706.513, 1.1239830E-02
3708.441, 1.2040260E-02
3710.370, 9.8957298E-03
3712.298, 9.6752727E-03
3714.227, 1.2729850E-02
3716.155, 1.1366030E-02
3718.084, 9.5164776E-03
3720.012, 1.0391790E-02
3721.941, 1.0913840E-02
3723.869, 9.7550806E-03
3725.798, 9.3581555E-03
3727.726, 9.5308442E-03
3729.655, 8.9260340E-03
3731.583, 6.9317310E-03
3733.511, 7.9283910E-03
3735.440, 1.1178360E-02
3737.368, 1.0206480E-02
3739.297, 9.2293210E-03
3741.225, 7.3885410E-03
3743.154, 6.3992878E-03
3745.082, 8.0135679E-03
3747.011, 9.4180563E-03
3748.939, 1.1546620E-02
3750.868, 1.2614180E-02
3752.796, 1.2763910E-02
3754.725, 1.1724700E-02
3756.653, 1.1880920E-02
3758.582, 1.2089880E-02
3760.510, 9.8243663E-03
3762.438, 9.6868109E-03
3764.367, 1.0215200E-02
3766.295, 9.4471974E-03
3768.224, 1.0765500E-02
3770.152, 9.0125296E-03
3772.081, 7.8980168E-03
3774.009, 1.0300250E-02
3775.938, 8.6424546E-03
3777.866, 7.6468932E-03
3779.795, 6.1917491E-03
3781.723, 7.3401318E-03
3783.652, 1.1937130E-02
3785.580, 1.5133140E-02
3787.509, 1.3481730E-02
3789.437, 1.1891390E-02
3791.365, 1.1853030E-02
3793.294, 1.3693180E-02
3795.222, 1.6227691E-02
3797.151, 1.3328200E-02
3799.079, 1.0426690E-02
3801.008, 9.4196340E-03
3802.936, 1.1017900E-02
3804.865, 1.1481710E-02
3806.793, 1.1367000E-02
3808.722, 1.2392290E-02
3810.650, 1.1888400E-02
3812.579, 1.2004730E-02
3814.507, 9.4683412E-03
3816.436, 8.5448567E-03
3818.364, 1.3132410E-02
3820.292, 1.3855990E-02
3822.221, 9.7400863E-03
3824.149, 9.3359202E-03
3826.078, 9.1713322E-03
3828.006, 7.2935200E-03
3829.935, 7.9386923E-03
3831.863, 1.2361290E-02
3833.792, 1.2474750E-02
3835.720, 1.2330450E-02
3837.649, 1.5131480E-02
3839.577, 1.2003880E-02
3841.506, 9.6832197E-03
3843.434, 1.0660050E-02
3845.363, 1.5809519E-02
3847.291, 1.7438300E-02
3849.219, 1.3678760E-02
3851.148, 8.7287817E-03
3853.076, 8.8167014E-03
3855.005, 1.2510700E-02
3856.933, 1.1614510E-02
3858.862, 9.8900469E-03
3860.790, 1.2452540E-02
3862.719, 1.1818300E-02
3864.647, 1.0355770E-02
3866.576, 1.2845800E-02
3868.504, 1.3646880E-02
3870.433, 1.0708990E-02
3872.361, 1.0815180E-02
3874.290, 1.0557410E-02
3876.218, 1.0243720E-02
3878.146, 1.2275640E-02
3880.075, 1.0763100E-02
3882.003, 7.8360988E-03
3883.932, 8.1673851E-03
3885.860, 8.8228611E-03
3887.789, 1.1113310E-02
3889.717, 7.2732409E-03
3891.646, 5.4742298E-03
3893.574, 8.4922044E-03
3895.503, 1.1701150E-02
3897.431, 1.3285640E-02
3899.360, 1.1922860E-02
3901.288, 9.0936236E-03
3903.217, 1.0677100E-02
3905.145, 1.5700961E-02
3907.073, 1.8979169E-02
3909.002, 1.7571690E-02
3910.930, 1.1646630E-02
3912.859, 9.6421894E-03
3914.787, 1.3072120E-02
3916.716, 1.1804470E-02
3918.644, 9.8838015E-03
3920.573, 1.0439880E-02
3922.501, 1.2080400E-02
3924.430, 1.1192260E-02
3926.358, 8.1815664E-03
3928.287, 9.7914767E-03
3930.215, 1.1907180E-02
3932.144, 1.2384220E-02
3934.072, 1.2877620E-02
3936.000, 1.1153590E-02
3937.929, 9.4730332E-03
3939.857, 1.0597230E-02
3941.786, 1.3185300E-02
3943.714, 1.4795330E-02
3945.643, 1.6172180E-02
3947.571, 1.6392549E-02
3949.500, 1.7734559E-02
3951.428, 1.7461341E-02
3953.357, 1.6318580E-02
3955.285, 1.3552730E-02
3957.214, 1.0458830E-02
3959.142, 1.0250250E-02
3961.071, 1.0252340E-02
3962.999, 1.0048900E-02
3964.927, 1.2070690E-02
3966.856, 1.2221370E-02
3968.784, 1.1463440E-02
3970.713, 1.2334620E-02
3972.641, 1.2638790E-02
3974.570, 1.4260180E-02
3976.498, 1.3210330E-02
3978.427, 1.1987270E-02
3980.355, 1.1745950E-02
3982.284, 1.0742290E-02
3984.212, 1.0429380E-02
3986.141, 1.3484340E-02
3988.069, 1.2325980E-02
3989.998, 1.1105280E-02
3991.926, 1.5518890E-02
3993.854, 1.8630089E-02
3995.783, 1.6391860E-02
3997.711, 1.2673590E-02
3999.640, 1.2679700E-02
##END=



