##NAMES=Pargasite
##RRUFFID=R060072
##IDEAL CHEMISTRY=NaCa_2_(Mg_4_Al)(Si_6_Al_2_)O_22_(OH)_2_
##LOCALITY=Pein Pyit, Mogok, Burma
##OWNER=RRUFF
##SOURCE=Marcus Origlieri
##DESCRIPTION=Pale green prismatic crystal embedded in calcite
##STATUS=The identification of this mineral has been confirmed by X-ray diffraction and chemical analysis
##URL=rruff.info/R060072
##MEASURED CHEMISTRY=(Na_0.81_K_0.19_)_Σ=1_(Ca_1.90_Na_0.10_)_Σ=2_(Mg_3.46_Al_0.45_Fe^2+^_0.05_Ti_0.04_)_Σ=4_Al_1.00_(Si_5.57_Al_2.43_)_Σ=8_O_22_(OH)_2_
3.991926e+002, 3.168526e-001
4.011211e+002, 3.271834e-001
4.030495e+002, 3.362696e-001
4.049780e+002, 3.363511e-001
4.069065e+002, 3.245582e-001
4.088349e+002, 3.107461e-001
4.107634e+002, 3.008866e-001
4.126919e+002, 2.945988e-001
4.146203e+002, 2.890370e-001
4.165488e+002, 2.891450e-001
4.184773e+002, 2.895939e-001
4.204057e+002, 2.877690e-001
4.223342e+002, 2.868428e-001
4.242627e+002, 2.894681e-001
4.261911e+002, 2.944919e-001
4.281196e+002, 2.987834e-001
4.300481e+002, 3.024566e-001
4.319765e+002, 3.102601e-001
4.339050e+002, 3.208741e-001
4.358335e+002, 3.297288e-001
4.377619e+002, 3.327327e-001
4.396904e+002, 3.326300e-001
4.416189e+002, 3.365123e-001
4.435473e+002, 3.362778e-001
4.454758e+002, 3.357593e-001
4.474043e+002, 3.332113e-001
4.493327e+002, 3.281901e-001
4.512612e+002, 3.259988e-001
4.531897e+002, 3.225066e-001
4.551181e+002, 3.175228e-001
4.570466e+002, 3.116946e-001
4.589751e+002, 3.080912e-001
4.609035e+002, 3.049569e-001
4.628320e+002, 2.972344e-001
4.647605e+002, 2.885329e-001
4.666889e+002, 2.827016e-001
4.686174e+002, 2.766840e-001
4.705459e+002, 2.702489e-001
4.724743e+002, 2.636515e-001
4.744028e+002, 2.565508e-001
4.763313e+002, 2.498631e-001
4.782597e+002, 2.452958e-001
4.801882e+002, 2.419117e-001
4.821167e+002, 2.372961e-001
4.840451e+002, 2.326512e-001
4.859736e+002, 2.282068e-001
4.879021e+002, 2.239979e-001
4.898305e+002, 2.202625e-001
4.917590e+002, 2.168791e-001
4.936875e+002, 2.134056e-001
4.956159e+002, 2.100329e-001
4.975444e+002, 2.070215e-001
4.994729e+002, 2.032100e-001
5.014013e+002, 1.994626e-001
5.033298e+002, 1.964299e-001
5.052583e+002, 1.948044e-001
5.071867e+002, 1.942712e-001
5.091152e+002, 1.939160e-001
5.110437e+002, 1.939246e-001
5.129721e+002, 1.943146e-001
5.149006e+002, 1.951681e-001
5.168290e+002, 1.958452e-001
5.187575e+002, 1.958076e-001
5.206860e+002, 1.951971e-001
5.226144e+002, 1.932935e-001
5.245429e+002, 1.903556e-001
5.264714e+002, 1.863774e-001
5.283998e+002, 1.822038e-001
5.303283e+002, 1.782516e-001
5.322568e+002, 1.740567e-001
5.341852e+002, 1.691777e-001
5.361137e+002, 1.638899e-001
5.380422e+002, 1.592160e-001
5.399706e+002, 1.546880e-001
5.418991e+002, 1.501247e-001
5.438276e+002, 1.453132e-001
5.457560e+002, 1.410733e-001
5.476845e+002, 1.368435e-001
5.496130e+002, 1.325847e-001
5.515414e+002, 1.288143e-001
5.534699e+002, 1.249379e-001
5.553984e+002, 1.205956e-001
5.573268e+002, 1.162561e-001
5.592553e+002, 1.113854e-001
5.611838e+002, 1.062407e-001
5.631122e+002, 1.015572e-001
5.650407e+002, 9.664322e-002
5.669692e+002, 9.148170e-002
5.688976e+002, 8.662396e-002
5.708261e+002, 8.248288e-002
5.727546e+002, 7.846933e-002
5.746830e+002, 7.471785e-002
5.766115e+002, 7.077201e-002
5.785400e+002, 6.702901e-002
5.804684e+002, 6.372060e-002
5.823969e+002, 6.108634e-002
5.843254e+002, 5.879739e-002
5.862538e+002, 5.684812e-002
5.881823e+002, 5.511701e-002
5.901108e+002, 5.392386e-002
5.920392e+002, 5.350716e-002
5.939677e+002, 5.351997e-002
5.958962e+002, 5.352559e-002
5.978246e+002, 5.363475e-002
5.997531e+002, 5.386630e-002
6.016816e+002, 5.408671e-002
6.036100e+002, 5.419924e-002
6.055385e+002, 5.442486e-002
6.074670e+002, 5.453229e-002
6.093954e+002, 5.458990e-002
6.113239e+002, 5.504053e-002
6.132524e+002, 5.546645e-002
6.151808e+002, 5.586476e-002
6.171093e+002, 5.649631e-002
6.190378e+002, 5.719978e-002
6.209662e+002, 5.816830e-002
6.228947e+002, 5.933728e-002
6.248232e+002, 6.035049e-002
6.267516e+002, 6.162254e-002
6.286801e+002, 6.318362e-002
6.306086e+002, 6.514024e-002
6.325370e+002, 6.691892e-002
6.344655e+002, 6.850441e-002
6.363940e+002, 7.014883e-002
6.383224e+002, 7.156490e-002
6.402509e+002, 7.251535e-002
6.421794e+002, 7.296269e-002
6.441078e+002, 7.309210e-002
6.460363e+002, 7.306963e-002
6.479648e+002, 7.286855e-002
6.498932e+002, 7.270198e-002
6.518217e+002, 7.264489e-002
6.537502e+002, 7.278356e-002
6.556786e+002, 7.314462e-002
6.576071e+002, 7.336083e-002
6.595356e+002, 7.352265e-002
6.614641e+002, 7.404979e-002
6.633925e+002, 7.475734e-002
6.653210e+002, 7.566331e-002
6.672495e+002, 7.725135e-002
6.691779e+002, 7.945359e-002
6.711064e+002, 8.206946e-002
6.730349e+002, 8.519544e-002
6.749633e+002, 8.848600e-002
6.768918e+002, 9.147009e-002
6.788203e+002, 9.378920e-002
6.807487e+002, 9.508005e-002
6.826772e+002, 9.533704e-002
6.846057e+002, 9.444357e-002
6.865341e+002, 9.272576e-002
6.884626e+002, 9.076357e-002
6.903911e+002, 8.878566e-002
6.923195e+002, 8.703574e-002
6.942480e+002, 8.556923e-002
6.961765e+002, 8.462960e-002
6.981049e+002, 8.394357e-002
7.000334e+002, 8.345634e-002
7.019619e+002, 8.280005e-002
7.038903e+002, 8.187793e-002
7.058188e+002, 8.058947e-002
7.077473e+002, 7.878888e-002
7.096757e+002, 7.690322e-002
7.116042e+002, 7.534266e-002
7.135327e+002, 7.374051e-002
7.154611e+002, 7.219119e-002
7.173896e+002, 7.095312e-002
7.193181e+002, 7.011265e-002
7.212465e+002, 6.993125e-002
7.231750e+002, 7.042078e-002
7.251035e+002, 7.127149e-002
7.270319e+002, 7.215488e-002
7.289604e+002, 7.312080e-002
7.308889e+002, 7.401207e-002
7.328173e+002, 7.487922e-002
7.347458e+002, 7.570026e-002
7.366743e+002, 7.656949e-002
7.386027e+002, 7.722785e-002
7.405312e+002, 7.772674e-002
7.424597e+002, 7.794835e-002
7.443881e+002, 7.794220e-002
7.463166e+002, 7.766656e-002
7.482451e+002, 7.738210e-002
7.501735e+002, 7.748105e-002
7.521020e+002, 7.773444e-002
7.540305e+002, 7.840749e-002
7.559589e+002, 7.950650e-002
7.578874e+002, 8.074155e-002
7.598159e+002, 8.218351e-002
7.617443e+002, 8.379962e-002
7.636728e+002, 8.515157e-002
7.656013e+002, 8.610652e-002
7.675297e+002, 8.688004e-002
7.694582e+002, 8.732626e-002
7.713867e+002, 8.752845e-002
7.733151e+002, 8.767280e-002
7.752436e+002, 8.803903e-002
7.771721e+002, 8.864497e-002
7.791005e+002, 8.955774e-002
7.810290e+002, 9.084637e-002
7.829575e+002, 9.259236e-002
7.848859e+002, 9.480321e-002
7.868144e+002, 9.751125e-002
7.887429e+002, 1.008275e-001
7.906713e+002, 1.045200e-001
7.925998e+002, 1.082855e-001
7.945283e+002, 1.122760e-001
7.964567e+002, 1.164512e-001
7.983852e+002, 1.207145e-001
8.003137e+002, 1.248968e-001
8.022421e+002, 1.285662e-001
8.041706e+002, 1.318360e-001
8.060991e+002, 1.348477e-001
8.080275e+002, 1.376017e-001
8.099560e+002, 1.399549e-001
8.118845e+002, 1.416947e-001
8.138129e+002, 1.428838e-001
8.157414e+002, 1.437420e-001
8.176699e+002, 1.442390e-001
8.195983e+002, 1.442665e-001
8.215268e+002, 1.443973e-001
8.234553e+002, 1.451233e-001
8.253837e+002, 1.464202e-001
8.273122e+002, 1.485578e-001
8.292407e+002, 1.517127e-001
8.311691e+002, 1.558351e-001
8.330976e+002, 1.604140e-001
8.350261e+002, 1.655037e-001
8.369545e+002, 1.711007e-001
8.388830e+002, 1.768640e-001
8.408115e+002, 1.828702e-001
8.427399e+002, 1.892007e-001
8.446684e+002, 1.955081e-001
8.465969e+002, 2.015405e-001
8.485253e+002, 2.074456e-001
8.504538e+002, 2.130475e-001
8.523823e+002, 2.183172e-001
8.543107e+002, 2.232856e-001
8.562392e+002, 2.278545e-001
8.581677e+002, 2.324560e-001
8.600961e+002, 2.367002e-001
8.620246e+002, 2.405928e-001
8.639531e+002, 2.439738e-001
8.658815e+002, 2.470366e-001
8.678100e+002, 2.496278e-001
8.697385e+002, 2.518111e-001
8.716669e+002, 2.534743e-001
8.735954e+002, 2.544869e-001
8.755239e+002, 2.549976e-001
8.774523e+002, 2.548845e-001
8.793808e+002, 2.545083e-001
8.813093e+002, 2.547194e-001
8.832377e+002, 2.557279e-001
8.851662e+002, 2.574875e-001
8.870947e+002, 2.599225e-001
8.890231e+002, 2.629136e-001
8.909516e+002, 2.663340e-001
8.928801e+002, 2.701230e-001
8.948085e+002, 2.741035e-001
8.967370e+002, 2.781802e-001
8.986655e+002, 2.824604e-001
9.005939e+002, 2.868222e-001
9.025224e+002, 2.910849e-001
9.044509e+002, 2.950516e-001
9.063793e+002, 2.986322e-001
9.083078e+002, 3.020783e-001
9.102363e+002, 3.052133e-001
9.121647e+002, 3.081724e-001
9.140932e+002, 3.109702e-001
9.160217e+002, 3.141270e-001
9.179501e+002, 3.177594e-001
9.198786e+002, 3.221213e-001
9.218071e+002, 3.272490e-001
9.237355e+002, 3.330257e-001
9.256640e+002, 3.387418e-001
9.275925e+002, 3.435278e-001
9.295209e+002, 3.472010e-001
9.314494e+002, 3.497197e-001
9.333779e+002, 3.508920e-001
9.353063e+002, 3.510402e-001
9.372348e+002, 3.502206e-001
9.391633e+002, 3.487766e-001
9.410917e+002, 3.470506e-001
9.430202e+002, 3.449263e-001
9.449487e+002, 3.426864e-001
9.468771e+002, 3.403090e-001
9.488056e+002, 3.376549e-001
9.507341e+002, 3.351100e-001
9.526625e+002, 3.326915e-001
9.545910e+002, 3.300206e-001
9.565195e+002, 3.273038e-001
9.584479e+002, 3.246399e-001
9.603764e+002, 3.217845e-001
9.623049e+002, 3.186149e-001
9.642333e+002, 3.153988e-001
9.661618e+002, 3.120691e-001
9.680903e+002, 3.084707e-001
9.700187e+002, 3.046403e-001
9.719472e+002, 3.002411e-001
9.738757e+002, 2.952133e-001
9.758041e+002, 2.899983e-001
9.777326e+002, 2.845766e-001
9.796611e+002, 2.784123e-001
9.815895e+002, 2.715633e-001
9.835180e+002, 2.643272e-001
9.854465e+002, 2.569818e-001
9.873749e+002, 2.493889e-001
9.893034e+002, 2.414954e-001
9.912319e+002, 2.332946e-001
9.931603e+002, 2.250355e-001
9.950888e+002, 2.170868e-001
9.970173e+002, 2.093592e-001
9.989457e+002, 2.018889e-001
1.000874e+003, 1.946993e-001
1.002803e+003, 1.879181e-001
1.004731e+003, 1.817869e-001
1.006660e+003, 1.760550e-001
1.008588e+003, 1.708274e-001
1.010517e+003, 1.663150e-001
1.012445e+003, 1.623563e-001
1.014373e+003, 1.590175e-001
1.016302e+003, 1.561792e-001
1.018230e+003, 1.537768e-001
1.020159e+003, 1.517660e-001
1.022087e+003, 1.498204e-001
1.024016e+003, 1.481045e-001
1.025944e+003, 1.466476e-001
1.027873e+003, 1.450929e-001
1.029801e+003, 1.433195e-001
1.031730e+003, 1.416358e-001
1.033658e+003, 1.400436e-001
1.035587e+003, 1.384448e-001
1.037515e+003, 1.370808e-001
1.039443e+003, 1.359486e-001
1.041372e+003, 1.348261e-001
1.043300e+003, 1.337641e-001
1.045229e+003, 1.325804e-001
1.047157e+003, 1.313754e-001
1.049086e+003, 1.301443e-001
1.051014e+003, 1.286446e-001
1.052943e+003, 1.265417e-001
1.054871e+003, 1.239019e-001
1.056800e+003, 1.211163e-001
1.058728e+003, 1.181602e-001
1.060657e+003, 1.147935e-001
1.062585e+003, 1.113738e-001
1.064514e+003, 1.079149e-001
1.066442e+003, 1.042315e-001
1.068370e+003, 1.005316e-001
1.070299e+003, 9.702696e-002
1.072227e+003, 9.365745e-002
1.074156e+003, 9.036031e-002
1.076084e+003, 8.714983e-002
1.078013e+003, 8.411460e-002
1.079941e+003, 8.111053e-002
1.081870e+003, 7.813671e-002
1.083798e+003, 7.516609e-002
1.085727e+003, 7.230575e-002
1.087655e+003, 6.950294e-002
1.089584e+003, 6.677095e-002
1.091512e+003, 6.418577e-002
1.093441e+003, 6.159959e-002
1.095369e+003, 5.894050e-002
1.097297e+003, 5.637829e-002
1.099226e+003, 5.399070e-002
1.101154e+003, 5.176467e-002
1.103083e+003, 4.945400e-002
1.105011e+003, 4.709432e-002
1.106940e+003, 4.465267e-002
1.108868e+003, 4.200528e-002
1.110797e+003, 3.923653e-002
1.112725e+003, 3.635461e-002
1.114654e+003, 3.335995e-002
1.116582e+003, 3.036711e-002
1.118511e+003, 2.730098e-002
1.120439e+003, 2.436621e-002
1.122368e+003, 2.158177e-002
1.124296e+003, 1.920171e-002
1.126224e+003, 1.722887e-002
1.128153e+003, 1.548200e-002
1.130081e+003, 1.414888e-002
1.132010e+003, 1.309372e-002
1.133938e+003, 1.217424e-002
1.135867e+003, 1.145527e-002
1.137795e+003, 1.096996e-002
1.139724e+003, 1.052950e-002
1.141652e+003, 9.913930e-003
1.143581e+003, 9.348682e-003
1.145509e+003, 8.763659e-003
1.147438e+003, 8.365069e-003
1.149366e+003, 8.137300e-003
1.151295e+003, 7.802011e-003
1.153223e+003, 7.433608e-003
1.155151e+003, 7.016014e-003
1.157080e+003, 6.711368e-003
1.159008e+003, 6.572706e-003
1.160937e+003, 6.365653e-003
1.162865e+003, 6.063163e-003
1.164794e+003, 5.864807e-003
1.166722e+003, 5.732541e-003
1.168651e+003, 5.581561e-003
1.170579e+003, 5.403406e-003
1.172508e+003, 5.148021e-003
1.174436e+003, 4.863029e-003
1.176365e+003, 4.710139e-003
1.178293e+003, 4.549609e-003
1.180222e+003, 4.396510e-003
1.182150e+003, 4.178017e-003
1.184078e+003, 3.908005e-003
1.186007e+003, 3.774856e-003
1.187935e+003, 3.706939e-003
1.189864e+003, 3.666223e-003
1.191792e+003, 3.553758e-003
1.193721e+003, 3.294355e-003
1.195649e+003, 3.121029e-003
1.197578e+003, 2.970009e-003
1.199506e+003, 2.939825e-003
1.201435e+003, 2.970058e-003
1.203363e+003, 2.999809e-003
1.205292e+003, 2.916591e-003
1.207220e+003, 2.792492e-003
1.209149e+003, 2.659956e-003
1.211077e+003, 2.602948e-003
1.213005e+003, 2.571722e-003
1.214934e+003, 2.484449e-003
1.216862e+003, 2.373124e-003
1.218791e+003, 2.347893e-003
1.220719e+003, 2.346823e-003
1.222648e+003, 2.251550e-003
1.224576e+003, 2.117450e-003
1.226505e+003, 2.189464e-003
1.228433e+003, 2.256799e-003
1.230362e+003, 2.152776e-003
1.232290e+003, 2.115702e-003
1.234219e+003, 2.074151e-003
1.236147e+003, 2.011003e-003
1.238076e+003, 2.019221e-003
1.240004e+003, 2.055619e-003
1.241932e+003, 2.095960e-003
1.243861e+003, 2.099311e-003
1.245789e+003, 2.105352e-003
1.247718e+003, 2.121699e-003
1.249646e+003, 1.997230e-003
1.251575e+003, 1.905440e-003
1.253503e+003, 1.893055e-003
1.255432e+003, 1.925619e-003
1.257360e+003, 1.906729e-003
1.259289e+003, 1.915611e-003
1.261217e+003, 1.902292e-003
1.263146e+003, 1.966028e-003
1.265074e+003, 2.061179e-003
1.267003e+003, 2.029956e-003
1.268931e+003, 2.054881e-003
1.270859e+003, 2.137523e-003
1.272788e+003, 2.226223e-003
1.274716e+003, 2.275246e-003
1.276645e+003, 2.280492e-003
1.278573e+003, 2.335808e-003
1.280502e+003, 2.419493e-003
1.282430e+003, 2.468139e-003
1.284359e+003, 2.547875e-003
1.286287e+003, 2.496582e-003
1.288216e+003, 2.344049e-003
1.290144e+003, 2.308048e-003
1.292073e+003, 2.428710e-003
1.294001e+003, 2.532782e-003
1.295930e+003, 2.394734e-003
1.297858e+003, 2.287046e-003
1.299786e+003, 2.269756e-003
1.301715e+003, 2.229371e-003
1.303643e+003, 2.159115e-003
1.305572e+003, 2.159638e-003
1.307500e+003, 2.242743e-003
1.309429e+003, 2.306140e-003
1.311357e+003, 2.354325e-003
1.313286e+003, 2.369785e-003
1.315214e+003, 2.380162e-003
1.317143e+003, 2.382847e-003
1.319071e+003, 2.353752e-003
1.321000e+003, 2.283129e-003
1.322928e+003, 2.205656e-003
1.324857e+003, 2.375485e-003
1.326785e+003, 2.554634e-003
1.328714e+003, 2.426667e-003
1.330642e+003, 2.248770e-003
1.332570e+003, 2.266283e-003
1.334499e+003, 2.394024e-003
1.336427e+003, 2.466436e-003
1.338356e+003, 2.575305e-003
1.340284e+003, 2.633022e-003
1.342213e+003, 2.572160e-003
1.344141e+003, 2.613459e-003
1.346070e+003, 2.684847e-003
1.347998e+003, 2.627126e-003
1.349927e+003, 2.711524e-003
1.351855e+003, 2.841705e-003
1.353784e+003, 2.826863e-003
1.355712e+003, 2.913703e-003
1.357641e+003, 3.068843e-003
1.359569e+003, 3.198136e-003
1.361497e+003, 3.299958e-003
1.363426e+003, 3.461911e-003
1.365354e+003, 3.612558e-003
1.367283e+003, 3.680007e-003
1.369211e+003, 3.850776e-003
1.371140e+003, 4.072733e-003
1.373068e+003, 4.188672e-003
1.374997e+003, 4.231251e-003
1.376925e+003, 4.354167e-003
1.378854e+003, 4.566731e-003
1.380782e+003, 4.800051e-003
1.382711e+003, 5.003790e-003
1.384639e+003, 5.143958e-003
1.386568e+003, 5.464798e-003
1.388496e+003, 5.758154e-003
1.390424e+003, 5.965240e-003
1.392353e+003, 6.340148e-003
1.394281e+003, 6.743668e-003
1.396210e+003, 7.069342e-003
1.398138e+003, 7.432066e-003
1.400067e+003, 7.800016e-003
1.401995e+003, 8.108949e-003
1.403924e+003, 8.421346e-003
1.405852e+003, 8.874555e-003
1.407781e+003, 9.252482e-003
1.409709e+003, 9.655402e-003
1.411638e+003, 1.007228e-002
1.413566e+003, 1.039674e-002
1.415495e+003, 1.070974e-002
1.417423e+003, 1.111952e-002
1.419351e+003, 1.142130e-002
1.421280e+003, 1.165076e-002
1.423208e+003, 1.188444e-002
1.425137e+003, 1.213399e-002
1.427065e+003, 1.244355e-002
1.428994e+003, 1.276033e-002
1.430922e+003, 1.295581e-002
1.432851e+003, 1.317191e-002
1.434779e+003, 1.337971e-002
1.436708e+003, 1.355612e-002
1.438636e+003, 1.355708e-002
1.440565e+003, 1.357998e-002
1.442493e+003, 1.360696e-002
1.444422e+003, 1.367533e-002
1.446350e+003, 1.370726e-002
1.448278e+003, 1.369429e-002
1.450207e+003, 1.360956e-002
1.452135e+003, 1.356208e-002
1.454064e+003, 1.354662e-002
1.455992e+003, 1.366362e-002
1.457921e+003, 1.365901e-002
1.459849e+003, 1.347601e-002
1.461778e+003, 1.339671e-002
1.463706e+003, 1.328428e-002
1.465635e+003, 1.314908e-002
1.467563e+003, 1.298339e-002
1.469492e+003, 1.267710e-002
1.471420e+003, 1.258007e-002
1.473349e+003, 1.252521e-002
1.475277e+003, 1.234979e-002
1.477205e+003, 1.218678e-002
1.479134e+003, 1.194402e-002
1.481062e+003, 1.165796e-002
1.482991e+003, 1.134505e-002
1.484919e+003, 1.128475e-002
1.486848e+003, 1.126923e-002
1.488776e+003, 1.108035e-002
1.490705e+003, 1.093675e-002
1.492633e+003, 1.072139e-002
1.494562e+003, 1.061197e-002
1.496490e+003, 1.046849e-002
1.498419e+003, 1.021766e-002
1.500347e+003, 1.000145e-002
1.502276e+003, 9.788974e-003
1.504204e+003, 9.734113e-003
1.506132e+003, 9.717681e-003
1.508061e+003, 9.260372e-003
1.509989e+003, 8.913316e-003
1.511918e+003, 8.717154e-003
1.513846e+003, 8.521037e-003
1.515775e+003, 8.335850e-003
1.517703e+003, 8.131489e-003
1.519632e+003, 7.965686e-003
1.521560e+003, 7.808963e-003
1.523489e+003, 7.625775e-003
1.525417e+003, 7.531454e-003
1.527346e+003, 7.313001e-003
1.529274e+003, 7.125087e-003
1.531203e+003, 7.050605e-003
1.533131e+003, 6.944304e-003
1.535059e+003, 6.718984e-003
1.536988e+003, 6.614534e-003
1.538916e+003, 6.685831e-003
1.540845e+003, 6.683292e-003
1.542773e+003, 6.508504e-003
1.544702e+003, 6.369803e-003
1.546630e+003, 6.276578e-003
1.548559e+003, 6.217087e-003
1.550487e+003, 6.151896e-003
1.552416e+003, 6.082379e-003
1.554344e+003, 6.035959e-003
1.556273e+003, 6.022758e-003
1.558201e+003, 6.161465e-003
1.560130e+003, 6.081521e-003
1.562058e+003, 5.729492e-003
1.563986e+003, 5.632855e-003
1.565915e+003, 5.639923e-003
1.567843e+003, 5.628396e-003
1.569772e+003, 5.443001e-003
1.571700e+003, 5.313816e-003
1.573629e+003, 5.495297e-003
1.575557e+003, 5.707212e-003
1.577486e+003, 5.501321e-003
1.579414e+003, 5.239973e-003
1.581343e+003, 5.287362e-003
1.583271e+003, 5.284525e-003
1.585200e+003, 5.224030e-003
1.587128e+003, 5.235705e-003
1.589057e+003, 5.124736e-003
1.590985e+003, 5.083128e-003
1.592913e+003, 5.172789e-003
1.594842e+003, 5.255315e-003
1.596770e+003, 5.259878e-003
1.598699e+003, 5.114047e-003
1.600627e+003, 5.110994e-003
1.602556e+003, 5.216931e-003
1.604484e+003, 5.214072e-003
1.606413e+003, 5.341190e-003
1.608341e+003, 5.321474e-003
1.610270e+003, 5.249927e-003
1.612198e+003, 5.284332e-003
1.614127e+003, 5.371457e-003
1.616055e+003, 5.589487e-003
1.617984e+003, 5.557437e-003
1.619912e+003, 5.340581e-003
1.621840e+003, 5.301319e-003
1.623769e+003, 5.414769e-003
1.625697e+003, 5.440277e-003
1.627626e+003, 5.465551e-003
1.629554e+003, 5.531145e-003
1.631483e+003, 5.533521e-003
1.633411e+003, 5.667025e-003
1.635340e+003, 5.782332e-003
1.637268e+003, 5.859349e-003
1.639197e+003, 5.775598e-003
1.641125e+003, 5.646636e-003
1.643054e+003, 5.764746e-003
1.644982e+003, 5.939088e-003
1.646911e+003, 5.884015e-003
1.648839e+003, 5.785897e-003
1.650767e+003, 5.940535e-003
1.652696e+003, 6.169005e-003
1.654624e+003, 5.809368e-003
1.656553e+003, 5.472410e-003
1.658481e+003, 5.437394e-003
1.660410e+003, 5.296587e-003
1.662338e+003, 5.214497e-003
1.664267e+003, 5.283563e-003
1.666195e+003, 5.282207e-003
1.668124e+003, 5.330044e-003
1.670052e+003, 5.373027e-003
1.671981e+003, 5.314636e-003
1.673909e+003, 5.231577e-003
1.675838e+003, 5.127298e-003
1.677766e+003, 4.997706e-003
1.679694e+003, 5.050834e-003
1.681623e+003, 5.096042e-003
1.683551e+003, 5.139050e-003
1.685480e+003, 4.940846e-003
1.687408e+003, 4.784550e-003
1.689337e+003, 4.691968e-003
1.691265e+003, 4.680719e-003
1.693194e+003, 4.727701e-003
1.695122e+003, 4.832549e-003
1.697051e+003, 4.797781e-003
1.698979e+003, 4.977575e-003
1.700908e+003, 4.976280e-003
1.702836e+003, 4.666315e-003
1.704765e+003, 4.623432e-003
1.706693e+003, 4.475700e-003
1.708621e+003, 4.332257e-003
1.710550e+003, 4.269686e-003
1.712478e+003, 4.220036e-003
1.714407e+003, 4.092128e-003
1.716335e+003, 4.288692e-003
1.718264e+003, 4.204453e-003
1.720192e+003, 3.927943e-003
1.722121e+003, 3.899277e-003
1.724049e+003, 3.880539e-003
1.725978e+003, 3.900034e-003
1.727906e+003, 3.771498e-003
1.729835e+003, 3.633704e-003
1.731763e+003, 3.552002e-003
1.733692e+003, 3.715478e-003
1.735620e+003, 3.440095e-003
1.737548e+003, 3.161708e-003
1.739477e+003, 3.156919e-003
1.741405e+003, 3.019790e-003
1.743334e+003, 2.889565e-003
1.745262e+003, 2.809215e-003
1.747191e+003, 2.819504e-003
1.749119e+003, 2.790421e-003
1.751048e+003, 2.815897e-003
1.752976e+003, 2.951676e-003
1.754905e+003, 2.879550e-003
1.756833e+003, 2.708708e-003
1.758762e+003, 2.641020e-003
1.760690e+003, 2.726560e-003
1.762619e+003, 2.886964e-003
1.764547e+003, 2.910703e-003
1.766475e+003, 2.936192e-003
1.768404e+003, 2.943908e-003
1.770332e+003, 2.794491e-003
1.772261e+003, 2.748897e-003
1.774189e+003, 2.643443e-003
1.776118e+003, 2.534573e-003
1.778046e+003, 2.571472e-003
1.779975e+003, 2.841815e-003
1.781903e+003, 2.977567e-003
1.783832e+003, 3.024680e-003
1.785760e+003, 2.912765e-003
1.787689e+003, 2.602617e-003
1.789617e+003, 2.518965e-003
1.791546e+003, 2.822108e-003
1.793474e+003, 2.847375e-003
1.795402e+003, 2.723973e-003
1.797331e+003, 2.606475e-003
1.799259e+003, 2.433058e-003
1.801188e+003, 2.588615e-003
1.803116e+003, 2.774575e-003
1.805045e+003, 2.798294e-003
1.806973e+003, 2.630763e-003
1.808902e+003, 2.370140e-003
1.810830e+003, 2.254164e-003
1.812759e+003, 2.080922e-003
1.814687e+003, 1.721837e-003
1.816616e+003, 1.776557e-003
1.818544e+003, 1.960408e-003
1.820473e+003, 2.152912e-003
1.822401e+003, 2.482385e-003
1.824329e+003, 2.432912e-003
1.826258e+003, 2.276581e-003
1.828186e+003, 2.221072e-003
1.830115e+003, 2.095288e-003
1.832043e+003, 2.087136e-003
1.833972e+003, 2.040145e-003
1.835900e+003, 1.899399e-003
1.837829e+003, 2.132143e-003
1.839757e+003, 2.172997e-003
1.841686e+003, 2.040773e-003
1.843614e+003, 1.990170e-003
1.845543e+003, 1.802961e-003
1.847471e+003, 1.708271e-003
1.849400e+003, 1.862717e-003
1.851328e+003, 1.728349e-003
1.853256e+003, 1.479841e-003
1.855185e+003, 1.816008e-003
1.857113e+003, 2.010386e-003
1.859042e+003, 1.719939e-003
1.860970e+003, 1.326953e-003
1.862899e+003, 1.493720e-003
1.864827e+003, 1.856292e-003
1.866756e+003, 1.686556e-003
1.868684e+003, 1.459486e-003
1.870613e+003, 1.428695e-003
1.872541e+003, 1.406166e-003
1.874470e+003, 1.585747e-003
1.876398e+003, 1.798575e-003
1.878327e+003, 1.730971e-003
1.880255e+003, 1.470016e-003
1.882183e+003, 1.108011e-003
1.884112e+003, 9.456584e-004
1.886040e+003, 1.093953e-003
1.887969e+003, 1.197719e-003
1.889897e+003, 1.130563e-003
1.891826e+003, 1.286867e-003
1.893754e+003, 1.603090e-003
1.895683e+003, 1.472992e-003
1.897611e+003, 1.329124e-003
1.899540e+003, 1.141083e-003
1.901468e+003, 6.860825e-004
1.903397e+003, 5.377849e-004
1.905325e+003, 9.133136e-004
1.907254e+003, 1.389450e-003
1.909182e+003, 1.443681e-003
1.911110e+003, 1.016115e-003
1.913039e+003, 8.021008e-004
1.914967e+003, 8.100811e-004
1.916896e+003, 6.613923e-004
1.918824e+003, 5.736804e-004
1.920753e+003, 4.791243e-004
1.922681e+003, 3.879256e-004
1.924610e+003, 2.968892e-004
1.926538e+003, 3.049167e-004
1.928467e+003, 6.324745e-004
1.930395e+003, 5.901097e-004
1.932324e+003, 3.871878e-004
1.934252e+003, 5.171144e-004
1.936181e+003, 1.949340e-005
1.938109e+003, -2.837757e-004
1.940037e+003, -2.302708e-004
1.941966e+003, -1.309681e-004
1.943894e+003, -2.411903e-004
1.945823e+003, -3.920564e-004
1.947751e+003, -4.927630e-004
1.949680e+003, -2.455452e-004
1.951608e+003, 4.824135e-004
1.953537e+003, 3.646611e-004
1.955465e+003, 3.471680e-005
1.957394e+003, -4.393812e-004
1.959322e+003, -1.150510e-003
1.961251e+003, -1.049587e-003
1.963179e+003, -4.602366e-004
1.965108e+003, 1.594261e-005
1.967036e+003, -8.690408e-004
1.968964e+003, -1.164670e-003
1.970893e+003, -3.568239e-004
1.972821e+003, -4.221632e-004
1.974750e+003, -3.193240e-004
1.976678e+003, -1.335929e-004
1.978607e+003, 6.383874e-004
1.980535e+003, 1.623638e-003
1.982464e+003, 1.433298e-003
1.984392e+003, 7.851468e-004
1.986321e+003, 1.344334e-003
1.988249e+003, 1.353254e-003
1.990178e+003, 9.665433e-004
1.992106e+003, 1.642741e-003
1.994035e+003, 1.801710e-003
1.995963e+003, 1.759204e-003
1.997891e+003, 9.647559e-004
1.999820e+003, -1.632189e-005
2.001748e+003, -2.573228e-004
2.003677e+003, -1.000711e-004
2.005605e+003, -1.359941e-005
2.007534e+003, 5.837542e-004
2.009462e+003, 1.794670e-003
2.011391e+003, 1.415636e-003
2.013319e+003, 3.974033e-004
2.015248e+003, 9.743334e-004
2.017176e+003, 1.120609e-003
2.019105e+003, 5.263835e-004
2.021033e+003, 9.762638e-004
2.022962e+003, 1.778095e-003
2.024890e+003, 1.969455e-003
2.026818e+003, 1.740434e-003
2.028747e+003, 1.555680e-003
2.030675e+003, 1.070849e-003
2.032604e+003, 1.458616e-003
2.034532e+003, 2.235050e-003
2.036461e+003, 2.587066e-003
2.038389e+003, 2.463710e-003
2.040318e+003, 2.534673e-003
2.042246e+003, 2.945858e-003
2.044175e+003, 3.236116e-003
2.046103e+003, 2.822241e-003
2.048031e+003, 2.710369e-003
2.049960e+003, 3.159750e-003
2.051888e+003, 2.960673e-003
2.053817e+003, 1.952459e-003
2.055745e+003, 2.079600e-003
2.057674e+003, 2.789248e-003
2.059602e+003, 2.473840e-003
2.061531e+003, 1.857522e-003
2.063459e+003, 1.802471e-003
2.065388e+003, 2.046622e-003
2.067316e+003, 2.351981e-003
2.069245e+003, 2.569203e-003
2.071173e+003, 2.829418e-003
2.073102e+003, 3.055449e-003
2.075030e+003, 3.371917e-003
2.076958e+003, 3.339737e-003
2.078887e+003, 3.028337e-003
2.080815e+003, 3.220691e-003
2.082744e+003, 3.215889e-003
2.084672e+003, 3.390561e-003
2.086601e+003, 3.412169e-003
2.088529e+003, 2.666041e-003
2.090458e+003, 2.117619e-003
2.092386e+003, 1.898293e-003
2.094315e+003, 1.885893e-003
2.096243e+003, 2.330376e-003
2.098172e+003, 3.041700e-003
2.100100e+003, 3.178447e-003
2.102029e+003, 2.779417e-003
2.103957e+003, 2.614358e-003
2.105885e+003, 2.917245e-003
2.107814e+003, 2.816576e-003
2.109742e+003, 2.718278e-003
2.111671e+003, 2.871529e-003
2.113599e+003, 2.848458e-003
2.115528e+003, 2.905755e-003
2.117456e+003, 2.896202e-003
2.119385e+003, 2.055610e-003
2.121313e+003, 1.675253e-003
2.123242e+003, 1.864986e-003
2.125170e+003, 2.210509e-003
2.127099e+003, 2.246014e-003
2.129027e+003, 1.810404e-003
2.130956e+003, 9.362001e-004
2.132884e+003, 2.483035e-004
2.134813e+003, 7.196091e-004
2.136741e+003, 1.420730e-003
2.138669e+003, 1.410243e-003
2.140598e+003, 1.269717e-003
2.142526e+003, 1.038151e-003
2.144455e+003, 1.136101e-003
2.146383e+003, 8.523576e-004
2.148312e+003, 9.190806e-004
2.150240e+003, 1.336940e-003
2.152169e+003, 1.449817e-003
2.154097e+003, 1.166529e-003
2.156026e+003, 2.847309e-004
2.157954e+003, 1.424205e-003
2.159883e+003, 4.867072e-003
2.161811e+003, 6.816121e-003
2.163740e+003, 7.860098e-003
2.165668e+003, 6.930449e-003
2.167596e+003, 6.041717e-003
2.169525e+003, 6.367784e-003
2.171453e+003, 5.186540e-003
2.173382e+003, 3.868922e-003
2.175310e+003, 3.647705e-003
2.177239e+003, 4.553493e-003
2.179167e+003, 4.804431e-003
2.181096e+003, 5.280797e-003
2.183024e+003, 6.309175e-003
2.184953e+003, 5.697274e-003
2.186881e+003, 5.616426e-003
2.188810e+003, 5.553353e-003
2.190738e+003, 4.364800e-003
2.192667e+003, 3.921658e-003
2.194595e+003, 4.624542e-003
2.196523e+003, 5.640868e-003
2.198452e+003, 6.311059e-003
2.200380e+003, 6.526878e-003
2.202309e+003, 6.485933e-003
2.204237e+003, 5.934530e-003
2.206166e+003, 5.450371e-003
2.208094e+003, 5.460954e-003
2.210023e+003, 5.635879e-003
2.211951e+003, 5.899658e-003
2.213880e+003, 6.595124e-003
2.215808e+003, 6.656771e-003
2.217737e+003, 6.351280e-003
2.219665e+003, 5.757249e-003
2.221594e+003, 5.703366e-003
2.223522e+003, 6.527960e-003
2.225450e+003, 5.848949e-003
2.227379e+003, 4.937176e-003
2.229307e+003, 5.290666e-003
2.231236e+003, 5.513776e-003
2.233164e+003, 5.950766e-003
2.235093e+003, 6.354216e-003
2.237021e+003, 5.901112e-003
2.238950e+003, 6.122600e-003
2.240878e+003, 6.700879e-003
2.242807e+003, 6.509076e-003
2.244735e+003, 6.546194e-003
2.246664e+003, 6.521994e-003
2.248592e+003, 6.298295e-003
2.250521e+003, 6.581896e-003
2.252449e+003, 7.019089e-003
2.254377e+003, 6.748714e-003
2.256306e+003, 6.651881e-003
2.258234e+003, 7.023549e-003
2.260163e+003, 6.873120e-003
2.262091e+003, 6.481639e-003
2.264020e+003, 6.633060e-003
2.265948e+003, 7.089324e-003
2.267877e+003, 7.310881e-003
2.269805e+003, 7.215498e-003
2.271734e+003, 7.025739e-003
2.273662e+003, 7.108894e-003
2.275591e+003, 7.155633e-003
2.277519e+003, 7.280241e-003
2.279448e+003, 7.190276e-003
2.281376e+003, 7.615058e-003
2.283304e+003, 8.040341e-003
2.285233e+003, 7.539530e-003
2.287161e+003, 7.025198e-003
2.289090e+003, 7.144347e-003
2.291018e+003, 7.163309e-003
2.292947e+003, 7.191138e-003
2.294875e+003, 7.237080e-003
2.296804e+003, 7.236287e-003
2.298732e+003, 6.836180e-003
2.300661e+003, 6.565564e-003
2.302589e+003, 6.748106e-003
2.304518e+003, 6.882588e-003
2.306446e+003, 6.478421e-003
2.308375e+003, 6.418974e-003
2.310303e+003, 6.656941e-003
2.312231e+003, 6.760602e-003
2.314160e+003, 6.725790e-003
2.316088e+003, 6.957953e-003
2.318017e+003, 7.221647e-003
2.319945e+003, 7.548186e-003
2.321874e+003, 8.161600e-003
2.323802e+003, 8.279925e-003
2.325731e+003, 7.291178e-003
2.327659e+003, 6.336371e-003
2.329588e+003, 6.093157e-003
2.331516e+003, 6.145550e-003
2.333445e+003, 6.006442e-003
2.335373e+003, 6.046842e-003
2.337302e+003, 6.166362e-003
2.339230e+003, 6.055660e-003
2.341158e+003, 5.938279e-003
2.343087e+003, 5.768989e-003
2.345015e+003, 5.741719e-003
2.346944e+003, 6.110699e-003
2.348872e+003, 6.150100e-003
2.350801e+003, 6.174578e-003
2.352729e+003, 6.128808e-003
2.354658e+003, 6.101845e-003
2.356586e+003, 6.221461e-003
2.358515e+003, 6.098804e-003
2.360443e+003, 5.904635e-003
2.362372e+003, 5.839438e-003
2.364300e+003, 5.908235e-003
2.366229e+003, 5.920109e-003
2.368157e+003, 5.872791e-003
2.370085e+003, 5.722390e-003
2.372014e+003, 5.625809e-003
2.373942e+003, 5.591851e-003
2.375871e+003, 5.603787e-003
2.377799e+003, 5.511726e-003
2.379728e+003, 5.622699e-003
2.381656e+003, 5.997007e-003
2.383585e+003, 5.997245e-003
2.385513e+003, 5.956405e-003
2.387442e+003, 5.909620e-003
2.389370e+003, 5.760008e-003
2.391299e+003, 5.457353e-003
2.393227e+003, 5.479739e-003
2.395156e+003, 5.687326e-003
2.397084e+003, 5.889437e-003
2.399012e+003, 5.847140e-003
2.400941e+003, 5.763672e-003
2.402869e+003, 5.350494e-003
2.404798e+003, 5.375276e-003
2.406726e+003, 5.776037e-003
2.408655e+003, 5.828756e-003
2.410583e+003, 5.891754e-003
2.412512e+003, 6.029328e-003
2.414440e+003, 6.291208e-003
2.416369e+003, 6.500092e-003
2.418297e+003, 6.248412e-003
2.420226e+003, 5.996364e-003
2.422154e+003, 6.037976e-003
2.424083e+003, 6.063718e-003
2.426011e+003, 6.286020e-003
2.427939e+003, 6.541438e-003
2.429868e+003, 6.419136e-003
2.431796e+003, 6.377910e-003
2.433725e+003, 6.528842e-003
2.435653e+003, 6.825431e-003
2.437582e+003, 6.713347e-003
2.439510e+003, 6.353368e-003
2.441439e+003, 6.505481e-003
2.443367e+003, 6.862435e-003
2.445296e+003, 6.936218e-003
2.447224e+003, 7.195660e-003
2.449153e+003, 7.432929e-003
2.451081e+003, 7.397921e-003
2.453010e+003, 7.074824e-003
2.454938e+003, 6.521149e-003
2.456866e+003, 6.508783e-003
2.458795e+003, 6.700983e-003
2.460723e+003, 6.857414e-003
2.462652e+003, 6.714947e-003
2.464580e+003, 6.845557e-003
2.466509e+003, 6.878341e-003
2.468437e+003, 6.750985e-003
2.470366e+003, 6.934557e-003
2.472294e+003, 6.914526e-003
2.474223e+003, 6.847766e-003
2.476151e+003, 6.832832e-003
2.478080e+003, 6.554306e-003
2.480008e+003, 6.413043e-003
2.481937e+003, 6.459095e-003
2.483865e+003, 6.558871e-003
2.485793e+003, 6.590512e-003
2.487722e+003, 6.581234e-003
2.489650e+003, 6.308475e-003
2.491579e+003, 6.435298e-003
2.493507e+003, 6.869917e-003
2.495436e+003, 7.013894e-003
2.497364e+003, 6.994538e-003
2.499293e+003, 7.081485e-003
2.501221e+003, 7.132452e-003
2.503150e+003, 6.910608e-003
2.505078e+003, 7.085793e-003
2.507007e+003, 7.106004e-003
2.508935e+003, 7.025406e-003
2.510864e+003, 6.812165e-003
2.512792e+003, 6.717404e-003
2.514720e+003, 7.034770e-003
2.516649e+003, 6.940082e-003
2.518577e+003, 6.808816e-003
2.520506e+003, 6.887686e-003
2.522434e+003, 6.408156e-003
2.524363e+003, 6.482422e-003
2.526291e+003, 6.897455e-003
2.528220e+003, 7.246490e-003
2.530148e+003, 7.095610e-003
2.532077e+003, 6.991885e-003
2.534005e+003, 6.928054e-003
2.535934e+003, 6.766379e-003
2.537862e+003, 6.375686e-003
2.539791e+003, 6.512110e-003
2.541719e+003, 7.140341e-003
2.543647e+003, 7.194145e-003
2.545576e+003, 7.067385e-003
2.547504e+003, 7.501172e-003
2.549433e+003, 7.483329e-003
2.551361e+003, 7.149419e-003
2.553290e+003, 7.055327e-003
2.555218e+003, 7.279862e-003
2.557147e+003, 7.339463e-003
2.559075e+003, 7.374915e-003
2.561004e+003, 7.422286e-003
2.562932e+003, 7.458943e-003
2.564861e+003, 7.229609e-003
2.566789e+003, 7.181420e-003
2.568718e+003, 7.187801e-003
2.570646e+003, 7.453007e-003
2.572574e+003, 7.556640e-003
2.574503e+003, 7.367151e-003
2.576431e+003, 7.432008e-003
2.578360e+003, 7.692371e-003
2.580288e+003, 7.428067e-003
2.582217e+003, 7.370018e-003
2.584145e+003, 7.618972e-003
2.586074e+003, 7.611159e-003
2.588002e+003, 7.738182e-003
2.589931e+003, 7.950089e-003
2.591859e+003, 7.710375e-003
2.593788e+003, 7.695728e-003
2.595716e+003, 8.022370e-003
2.597645e+003, 8.313329e-003
2.599573e+003, 8.572680e-003
2.601501e+003, 8.555452e-003
2.603430e+003, 8.169921e-003
2.605358e+003, 8.143412e-003
2.607287e+003, 8.383563e-003
2.609215e+003, 8.415851e-003
2.611144e+003, 8.386382e-003
2.613072e+003, 8.182437e-003
2.615001e+003, 8.042607e-003
2.616929e+003, 8.239140e-003
2.618858e+003, 8.491847e-003
2.620786e+003, 8.702698e-003
2.622715e+003, 8.548477e-003
2.624643e+003, 8.269991e-003
2.626572e+003, 8.288737e-003
2.628500e+003, 8.576943e-003
2.630428e+003, 8.535770e-003
2.632357e+003, 8.621690e-003
2.634285e+003, 8.659177e-003
2.636214e+003, 8.624112e-003
2.638142e+003, 8.777115e-003
2.640071e+003, 8.885481e-003
2.641999e+003, 8.886285e-003
2.643928e+003, 8.762513e-003
2.645856e+003, 8.629734e-003
2.647785e+003, 8.463370e-003
2.649713e+003, 8.325165e-003
2.651642e+003, 8.300556e-003
2.653570e+003, 8.508924e-003
2.655499e+003, 8.663977e-003
2.657427e+003, 8.470555e-003
2.659355e+003, 8.359591e-003
2.661284e+003, 8.242777e-003
2.663212e+003, 7.944815e-003
2.665141e+003, 7.840006e-003
2.667069e+003, 7.733010e-003
2.668998e+003, 7.847881e-003
2.670926e+003, 8.015501e-003
2.672855e+003, 7.973452e-003
2.674783e+003, 7.945159e-003
2.676712e+003, 7.913521e-003
2.678640e+003, 7.832858e-003
2.680569e+003, 7.810649e-003
2.682497e+003, 7.940422e-003
2.684426e+003, 8.038155e-003
2.686354e+003, 7.993522e-003
2.688282e+003, 7.965410e-003
2.690211e+003, 8.039203e-003
2.692139e+003, 8.165815e-003
2.694068e+003, 8.195446e-003
2.695996e+003, 8.260725e-003
2.697925e+003, 8.207001e-003
2.699853e+003, 7.979085e-003
2.701782e+003, 7.920655e-003
2.703710e+003, 8.132370e-003
2.705639e+003, 8.182175e-003
2.707567e+003, 8.071259e-003
2.709496e+003, 7.988920e-003
2.711424e+003, 7.974848e-003
2.713353e+003, 8.021213e-003
2.715281e+003, 7.943181e-003
2.717209e+003, 8.206679e-003
2.719138e+003, 8.328767e-003
2.721066e+003, 8.084700e-003
2.722995e+003, 8.245912e-003
2.724923e+003, 8.686831e-003
2.726852e+003, 8.677549e-003
2.728780e+003, 8.369014e-003
2.730709e+003, 8.231661e-003
2.732637e+003, 8.389601e-003
2.734566e+003, 8.343930e-003
2.736494e+003, 8.346113e-003
2.738423e+003, 8.609928e-003
2.740351e+003, 8.688206e-003
2.742280e+003, 8.470613e-003
2.744208e+003, 8.351355e-003
2.746136e+003, 8.273432e-003
2.748065e+003, 8.263892e-003
2.749993e+003, 8.307905e-003
2.751922e+003, 8.487053e-003
2.753850e+003, 8.575294e-003
2.755779e+003, 8.631841e-003
2.757707e+003, 8.778295e-003
2.759636e+003, 8.812848e-003
2.761564e+003, 8.812423e-003
2.763493e+003, 8.857272e-003
2.765421e+003, 9.004843e-003
2.767350e+003, 8.712905e-003
2.769278e+003, 8.525792e-003
2.771207e+003, 8.848727e-003
2.773135e+003, 9.093298e-003
2.775063e+003, 8.828539e-003
2.776992e+003, 8.747967e-003
2.778920e+003, 8.970491e-003
2.780849e+003, 8.898419e-003
2.782777e+003, 8.849750e-003
2.784706e+003, 8.746549e-003
2.786634e+003, 8.675464e-003
2.788563e+003, 8.918380e-003
2.790491e+003, 9.274307e-003
2.792420e+003, 9.211686e-003
2.794348e+003, 8.915775e-003
2.796277e+003, 9.048456e-003
2.798205e+003, 9.578028e-003
2.800134e+003, 9.588986e-003
2.802062e+003, 9.237394e-003
2.803990e+003, 9.247731e-003
2.805919e+003, 9.505604e-003
2.807847e+003, 9.686313e-003
2.809776e+003, 9.595620e-003
2.811704e+003, 9.411284e-003
2.813633e+003, 9.449924e-003
2.815561e+003, 9.461722e-003
2.817490e+003, 9.395728e-003
2.819418e+003, 9.418218e-003
2.821347e+003, 9.656845e-003
2.823275e+003, 9.788906e-003
2.825204e+003, 9.709692e-003
2.827132e+003, 9.645086e-003
2.829061e+003, 9.684222e-003
2.830989e+003, 9.945217e-003
2.832917e+003, 1.022082e-002
2.834846e+003, 1.006417e-002
2.836774e+003, 9.798473e-003
2.838703e+003, 9.833917e-003
2.840631e+003, 9.834291e-003
2.842560e+003, 9.859831e-003
2.844488e+003, 9.957680e-003
2.846417e+003, 9.572371e-003
2.848345e+003, 9.566160e-003
2.850274e+003, 9.994759e-003
2.852202e+003, 1.002683e-002
2.854131e+003, 9.860825e-003
2.856059e+003, 9.664484e-003
2.857988e+003, 9.364369e-003
2.859916e+003, 9.419918e-003
2.861844e+003, 9.779405e-003
2.863773e+003, 9.772091e-003
2.865701e+003, 9.580640e-003
2.867630e+003, 9.610902e-003
2.869558e+003, 9.498906e-003
2.871487e+003, 9.483675e-003
2.873415e+003, 9.886654e-003
2.875344e+003, 1.003307e-002
2.877272e+003, 9.913584e-003
2.879201e+003, 9.923067e-003
2.881129e+003, 9.990876e-003
2.883058e+003, 1.009536e-002
2.884986e+003, 1.014775e-002
2.886915e+003, 1.012315e-002
2.888843e+003, 1.032055e-002
2.890771e+003, 1.051081e-002
2.892700e+003, 1.030932e-002
2.894628e+003, 1.029895e-002
2.896557e+003, 1.022634e-002
2.898485e+003, 1.020028e-002
2.900414e+003, 1.039296e-002
2.902342e+003, 1.039207e-002
2.904271e+003, 1.056185e-002
2.906199e+003, 1.099624e-002
2.908128e+003, 1.098396e-002
2.910056e+003, 1.063343e-002
2.911985e+003, 1.037863e-002
2.913913e+003, 1.067247e-002
2.915842e+003, 1.091305e-002
2.917770e+003, 1.102536e-002
2.919698e+003, 1.100332e-002
2.921627e+003, 1.093820e-002
2.923555e+003, 1.079815e-002
2.925484e+003, 1.055910e-002
2.927412e+003, 1.060857e-002
2.929341e+003, 1.069440e-002
2.931269e+003, 1.065811e-002
2.933198e+003, 1.079073e-002
2.935126e+003, 1.077778e-002
2.937055e+003, 1.093046e-002
2.938983e+003, 1.096649e-002
2.940912e+003, 1.070782e-002
2.942840e+003, 1.029648e-002
2.944769e+003, 1.032916e-002
2.946697e+003, 1.047664e-002
2.948625e+003, 1.051951e-002
2.950554e+003, 1.061161e-002
2.952482e+003, 1.099142e-002
2.954411e+003, 1.100311e-002
2.956339e+003, 1.079340e-002
2.958268e+003, 1.097211e-002
2.960196e+003, 1.106014e-002
2.962125e+003, 1.092061e-002
2.964053e+003, 1.109379e-002
2.965982e+003, 1.122469e-002
2.967910e+003, 1.106422e-002
2.969839e+003, 1.079549e-002
2.971767e+003, 1.078836e-002
2.973696e+003, 1.100766e-002
2.975624e+003, 1.116850e-002
2.977552e+003, 1.082317e-002
2.979481e+003, 1.048186e-002
2.981409e+003, 1.046611e-002
2.983338e+003, 1.068231e-002
2.985266e+003, 1.064072e-002
2.987195e+003, 1.029453e-002
2.989123e+003, 1.022158e-002
2.991052e+003, 1.053593e-002
2.992980e+003, 1.064026e-002
2.994909e+003, 1.082298e-002
2.996837e+003, 1.099973e-002
2.998766e+003, 1.072804e-002
3.000694e+003, 1.028156e-002
3.002623e+003, 1.041348e-002
3.004551e+003, 1.073949e-002
3.006479e+003, 1.087812e-002
3.008408e+003, 1.086756e-002
3.010336e+003, 1.074516e-002
3.012265e+003, 1.076469e-002
3.014193e+003, 1.082007e-002
3.016122e+003, 1.107296e-002
3.018050e+003, 1.118730e-002
3.019979e+003, 1.085082e-002
3.021907e+003, 1.072718e-002
3.023836e+003, 1.101473e-002
3.025764e+003, 1.134841e-002
3.027693e+003, 1.125796e-002
3.029621e+003, 1.140542e-002
3.031550e+003, 1.172069e-002
3.033478e+003, 1.165794e-002
3.035406e+003, 1.143156e-002
3.037335e+003, 1.111702e-002
3.039263e+003, 1.100756e-002
3.041192e+003, 1.113603e-002
3.043120e+003, 1.145446e-002
3.045049e+003, 1.197959e-002
3.046977e+003, 1.203461e-002
3.048906e+003, 1.198358e-002
3.050834e+003, 1.187473e-002
3.052763e+003, 1.178944e-002
3.054691e+003, 1.190151e-002
3.056620e+003, 1.191441e-002
3.058548e+003, 1.188139e-002
3.060477e+003, 1.202811e-002
3.062405e+003, 1.205234e-002
3.064333e+003, 1.188562e-002
3.066262e+003, 1.189020e-002
3.068190e+003, 1.181343e-002
3.070119e+003, 1.173841e-002
3.072047e+003, 1.175930e-002
3.073976e+003, 1.189283e-002
3.075904e+003, 1.218039e-002
3.077833e+003, 1.234648e-002
3.079761e+003, 1.242401e-002
3.081690e+003, 1.238589e-002
3.083618e+003, 1.246693e-002
3.085547e+003, 1.236427e-002
3.087475e+003, 1.241667e-002
3.089404e+003, 1.256500e-002
3.091332e+003, 1.268800e-002
3.093260e+003, 1.262811e-002
3.095189e+003, 1.278772e-002
3.097117e+003, 1.289915e-002
3.099046e+003, 1.259855e-002
3.100974e+003, 1.273195e-002
3.102903e+003, 1.327287e-002
3.104831e+003, 1.339257e-002
3.106760e+003, 1.291324e-002
3.108688e+003, 1.296489e-002
3.110617e+003, 1.333123e-002
3.112545e+003, 1.336257e-002
3.114474e+003, 1.323805e-002
3.116402e+003, 1.312713e-002
3.118331e+003, 1.299106e-002
3.120259e+003, 1.318017e-002
3.122188e+003, 1.359834e-002
3.124116e+003, 1.367571e-002
3.126044e+003, 1.371404e-002
3.127973e+003, 1.383135e-002
3.129901e+003, 1.354254e-002
3.131830e+003, 1.369769e-002
3.133758e+003, 1.384413e-002
3.135687e+003, 1.380317e-002
3.137615e+003, 1.394270e-002
3.139544e+003, 1.396436e-002
3.141472e+003, 1.423572e-002
3.143401e+003, 1.405490e-002
3.145329e+003, 1.344755e-002
3.147258e+003, 1.368440e-002
3.149186e+003, 1.428108e-002
3.151115e+003, 1.432260e-002
3.153043e+003, 1.437936e-002
3.154971e+003, 1.467919e-002
3.156900e+003, 1.526942e-002
3.158828e+003, 1.521151e-002
3.160757e+003, 1.467879e-002
3.162685e+003, 1.455278e-002
3.164614e+003, 1.486165e-002
3.166542e+003, 1.491065e-002
3.168471e+003, 1.440043e-002
3.170399e+003, 1.449227e-002
3.172328e+003, 1.468228e-002
3.174256e+003, 1.440928e-002
3.176185e+003, 1.461422e-002
3.178113e+003, 1.458688e-002
3.180042e+003, 1.421026e-002
3.181970e+003, 1.450019e-002
3.183898e+003, 1.455521e-002
3.185827e+003, 1.462042e-002
3.187755e+003, 1.471495e-002
3.189684e+003, 1.506321e-002
3.191612e+003, 1.503326e-002
3.193541e+003, 1.505022e-002
3.195469e+003, 1.527005e-002
3.197398e+003, 1.537862e-002
3.199326e+003, 1.508242e-002
3.201255e+003, 1.466006e-002
3.203183e+003, 1.459335e-002
3.205112e+003, 1.465448e-002
3.207040e+003, 1.468151e-002
3.208969e+003, 1.491490e-002
3.210897e+003, 1.556400e-002
3.212825e+003, 1.596919e-002
3.214754e+003, 1.582931e-002
3.216682e+003, 1.557049e-002
3.218611e+003, 1.524532e-002
3.220539e+003, 1.543210e-002
3.222468e+003, 1.597191e-002
3.224396e+003, 1.620405e-002
3.226325e+003, 1.578498e-002
3.228253e+003, 1.541874e-002
3.230182e+003, 1.540779e-002
3.232110e+003, 1.575264e-002
3.234039e+003, 1.595274e-002
3.235967e+003, 1.576595e-002
3.237896e+003, 1.580199e-002
3.239824e+003, 1.569207e-002
3.241752e+003, 1.565434e-002
3.243681e+003, 1.563592e-002
3.245609e+003, 1.604126e-002
3.247538e+003, 1.635726e-002
3.249466e+003, 1.584356e-002
3.251395e+003, 1.590848e-002
3.253323e+003, 1.609581e-002
3.255252e+003, 1.589630e-002
3.257180e+003, 1.620990e-002
3.259109e+003, 1.611701e-002
3.261037e+003, 1.584687e-002
3.262966e+003, 1.623727e-002
3.264894e+003, 1.618993e-002
3.266823e+003, 1.617220e-002
3.268751e+003, 1.626443e-002
3.270679e+003, 1.580534e-002
3.272608e+003, 1.583293e-002
3.274536e+003, 1.634436e-002
3.276465e+003, 1.656383e-002
3.278393e+003, 1.593233e-002
3.280322e+003, 1.596749e-002
3.282250e+003, 1.639746e-002
3.284179e+003, 1.664991e-002
3.286107e+003, 1.670216e-002
3.288036e+003, 1.643088e-002
3.289964e+003, 1.653896e-002
3.291893e+003, 1.686412e-002
3.293821e+003, 1.627402e-002
3.295750e+003, 1.601592e-002
3.297678e+003, 1.628505e-002
3.299606e+003, 1.639207e-002
3.301535e+003, 1.668823e-002
3.303463e+003, 1.662165e-002
3.305392e+003, 1.630605e-002
3.307320e+003, 1.617711e-002
3.309249e+003, 1.655969e-002
3.311177e+003, 1.660216e-002
3.313106e+003, 1.654294e-002
3.315034e+003, 1.672566e-002
3.316963e+003, 1.638571e-002
3.318891e+003, 1.643724e-002
3.320820e+003, 1.678314e-002
3.322748e+003, 1.637845e-002
3.324677e+003, 1.646513e-002
3.326605e+003, 1.665849e-002
3.328533e+003, 1.645114e-002
3.330462e+003, 1.662182e-002
3.332390e+003, 1.715577e-002
3.334319e+003, 1.708384e-002
3.336247e+003, 1.673412e-002
3.338176e+003, 1.687053e-002
3.340104e+003, 1.731249e-002
3.342033e+003, 1.711112e-002
3.343961e+003, 1.649933e-002
3.345890e+003, 1.644972e-002
3.347818e+003, 1.660794e-002
3.349747e+003, 1.689422e-002
3.351675e+003, 1.711582e-002
3.353604e+003, 1.682727e-002
3.355532e+003, 1.682803e-002
3.357460e+003, 1.716496e-002
3.359389e+003, 1.766209e-002
3.361317e+003, 1.759362e-002
3.363246e+003, 1.704188e-002
3.365174e+003, 1.717899e-002
3.367103e+003, 1.731071e-002
3.369031e+003, 1.762742e-002
3.370960e+003, 1.762912e-002
3.372888e+003, 1.732521e-002
3.374817e+003, 1.713041e-002
3.376745e+003, 1.691559e-002
3.378674e+003, 1.666976e-002
3.380602e+003, 1.672886e-002
3.382531e+003, 1.681670e-002
3.384459e+003, 1.658240e-002
3.386387e+003, 1.676351e-002
3.388316e+003, 1.745053e-002
3.390244e+003, 1.777123e-002
3.392173e+003, 1.756405e-002
3.394101e+003, 1.723443e-002
3.396030e+003, 1.684522e-002
3.397958e+003, 1.690827e-002
3.399887e+003, 1.700992e-002
3.401815e+003, 1.699753e-002
3.403744e+003, 1.731507e-002
3.405672e+003, 1.746642e-002
3.407601e+003, 1.766080e-002
3.409529e+003, 1.771123e-002
3.411458e+003, 1.752939e-002
3.413386e+003, 1.745195e-002
3.415314e+003, 1.710148e-002
3.417243e+003, 1.700035e-002
3.419171e+003, 1.717482e-002
3.421100e+003, 1.711315e-002
3.423028e+003, 1.726562e-002
3.424957e+003, 1.734637e-002
3.426885e+003, 1.695168e-002
3.428814e+003, 1.717092e-002
3.430742e+003, 1.768991e-002
3.432671e+003, 1.741534e-002
3.434599e+003, 1.669173e-002
3.436528e+003, 1.684858e-002
3.438456e+003, 1.671374e-002
3.440385e+003, 1.672332e-002
3.442313e+003, 1.668180e-002
3.444241e+003, 1.628703e-002
3.446170e+003, 1.624603e-002
3.448098e+003, 1.682226e-002
3.450027e+003, 1.734027e-002
3.451955e+003, 1.761005e-002
3.453884e+003, 1.718709e-002
3.455812e+003, 1.683927e-002
3.457741e+003, 1.699972e-002
3.459669e+003, 1.692732e-002
3.461598e+003, 1.675508e-002
3.463526e+003, 1.645620e-002
3.465455e+003, 1.579937e-002
3.467383e+003, 1.611873e-002
3.469312e+003, 1.670883e-002
3.471240e+003, 1.694966e-002
3.473168e+003, 1.684709e-002
3.475097e+003, 1.694816e-002
3.477025e+003, 1.712193e-002
3.478954e+003, 1.700106e-002
3.480882e+003, 1.648870e-002
3.482811e+003, 1.627428e-002
3.484739e+003, 1.607553e-002
3.486668e+003, 1.565514e-002
3.488596e+003, 1.591394e-002
3.490525e+003, 1.575021e-002
3.492453e+003, 1.561460e-002
3.494382e+003, 1.586922e-002
3.496310e+003, 1.626184e-002
3.498239e+003, 1.635479e-002
3.500167e+003, 1.594615e-002
3.502095e+003, 1.597248e-002
3.504024e+003, 1.616535e-002
3.505952e+003, 1.588905e-002
3.507881e+003, 1.573206e-002
3.509809e+003, 1.587099e-002
3.511738e+003, 1.574611e-002
3.513666e+003, 1.564957e-002
3.515595e+003, 1.596649e-002
3.517523e+003, 1.648938e-002
3.519452e+003, 1.621138e-002
3.521380e+003, 1.599232e-002
3.523309e+003, 1.608150e-002
3.525237e+003, 1.605616e-002
3.527166e+003, 1.589249e-002
3.529094e+003, 1.620742e-002
3.531022e+003, 1.624699e-002
3.532951e+003, 1.541159e-002
3.534879e+003, 1.490591e-002
3.536808e+003, 1.495814e-002
3.538736e+003, 1.462105e-002
3.540665e+003, 1.483165e-002
3.542593e+003, 1.564712e-002
3.544522e+003, 1.563188e-002
3.546450e+003, 1.507992e-002
3.548379e+003, 1.516693e-002
3.550307e+003, 1.536784e-002
3.552236e+003, 1.501802e-002
3.554164e+003, 1.472830e-002
3.556093e+003, 1.555714e-002
3.558021e+003, 1.621148e-002
3.559949e+003, 1.566272e-002
3.561878e+003, 1.499010e-002
3.563806e+003, 1.472111e-002
3.565735e+003, 1.498563e-002
3.567663e+003, 1.524677e-002
3.569592e+003, 1.472784e-002
3.571520e+003, 1.361092e-002
3.573449e+003, 1.387949e-002
3.575377e+003, 1.484443e-002
3.577306e+003, 1.507847e-002
3.579234e+003, 1.455832e-002
3.581163e+003, 1.424075e-002
3.583091e+003, 1.455561e-002
3.585020e+003, 1.426633e-002
3.586948e+003, 1.441394e-002
3.588876e+003, 1.474659e-002
3.590805e+003, 1.479291e-002
3.592733e+003, 1.452156e-002
3.594662e+003, 1.450888e-002
3.596590e+003, 1.505667e-002
3.598519e+003, 1.537523e-002
3.600447e+003, 1.462679e-002
3.602376e+003, 1.316578e-002
3.604304e+003, 1.297156e-002
3.606233e+003, 1.317523e-002
3.608161e+003, 1.358388e-002
3.610090e+003, 1.383932e-002
3.612018e+003, 1.401778e-002
3.613947e+003, 1.339541e-002
3.615875e+003, 1.345920e-002
3.617803e+003, 1.384312e-002
3.619732e+003, 1.336318e-002
3.621660e+003, 1.358291e-002
3.623589e+003, 1.385137e-002
3.625517e+003, 1.368384e-002
3.627446e+003, 1.411208e-002
3.629374e+003, 1.386453e-002
3.631303e+003, 1.323304e-002
3.633231e+003, 1.314729e-002
3.635160e+003, 1.288609e-002
3.637088e+003, 1.341165e-002
3.639017e+003, 1.370392e-002
3.640945e+003, 1.342338e-002
3.642874e+003, 1.357106e-002
3.644802e+003, 1.365471e-002
3.646730e+003, 1.371017e-002
3.648659e+003, 1.327625e-002
3.650587e+003, 1.274262e-002
3.652516e+003, 1.293514e-002
3.654444e+003, 1.351433e-002
3.656373e+003, 1.319682e-002
3.658301e+003, 1.257368e-002
3.660230e+003, 1.260986e-002
3.662158e+003, 1.346722e-002
3.664087e+003, 1.360064e-002
3.666015e+003, 1.319582e-002
3.667944e+003, 1.307553e-002
3.669872e+003, 1.390988e-002
3.671801e+003, 1.411783e-002
3.673729e+003, 1.426253e-002
3.675657e+003, 1.457500e-002
3.677586e+003, 1.377012e-002
3.679514e+003, 1.368385e-002
3.681443e+003, 1.416177e-002
3.683371e+003, 1.491746e-002
3.685300e+003, 1.527728e-002
3.687228e+003, 1.556341e-002
3.689157e+003, 1.530073e-002
3.691085e+003, 1.505141e-002
3.693014e+003, 1.492696e-002
3.694942e+003, 1.469365e-002
3.696871e+003, 1.509889e-002
3.698799e+003, 1.507680e-002
3.700728e+003, 1.540277e-002
3.702656e+003, 1.527513e-002
3.704584e+003, 1.462643e-002
3.706513e+003, 1.474171e-002
3.708441e+003, 1.452405e-002
3.710370e+003, 1.421081e-002
3.712298e+003, 1.415463e-002
3.714227e+003, 1.384093e-002
3.716155e+003, 1.301274e-002
3.718084e+003, 1.244432e-002
3.720012e+003, 1.248018e-002
3.721941e+003, 1.207270e-002
3.723869e+003, 1.135164e-002
3.725798e+003, 1.093311e-002
3.727726e+003, 1.086998e-002
3.729655e+003, 1.096639e-002
3.731583e+003, 1.055632e-002
3.733511e+003, 1.099261e-002
3.735440e+003, 1.132539e-002
3.737368e+003, 1.106822e-002
3.739297e+003, 1.036311e-002
3.741225e+003, 9.839411e-003
3.743154e+003, 1.050626e-002
3.745082e+003, 1.109910e-002
3.747011e+003, 1.028432e-002
3.748939e+003, 1.026582e-002
3.750868e+003, 1.104664e-002
3.752796e+003, 1.102373e-002
3.754725e+003, 1.077849e-002
3.756653e+003, 1.090326e-002
3.758582e+003, 1.097965e-002
3.760510e+003, 1.128167e-002
3.762438e+003, 1.082101e-002
3.764367e+003, 1.014024e-002
3.766295e+003, 1.000902e-002
3.768224e+003, 9.906824e-003
3.770152e+003, 9.880421e-003
3.772081e+003, 1.017956e-002
3.774009e+003, 9.796584e-003
3.775938e+003, 9.856548e-003
3.777866e+003, 9.811545e-003
3.779795e+003, 1.026988e-002
3.781723e+003, 1.054770e-002
3.783652e+003, 1.036743e-002
3.785580e+003, 1.053868e-002
3.787509e+003, 1.041315e-002
3.789437e+003, 1.082672e-002
3.791365e+003, 1.065124e-002
3.793294e+003, 1.009896e-002
3.795222e+003, 1.016643e-002
3.797151e+003, 9.758400e-003
3.799079e+003, 9.818652e-003
3.801008e+003, 1.005887e-002
3.802936e+003, 1.037064e-002
3.804865e+003, 1.032181e-002
3.806793e+003, 1.045659e-002
3.808722e+003, 1.089878e-002
3.810650e+003, 1.061501e-002
3.812579e+003, 1.032350e-002
3.814507e+003, 1.038514e-002
3.816436e+003, 1.023397e-002
3.818364e+003, 1.045019e-002
3.820292e+003, 1.121747e-002
3.822221e+003, 1.124744e-002
3.824149e+003, 1.025794e-002
3.826078e+003, 1.019305e-002
3.828006e+003, 1.019329e-002
3.829935e+003, 9.968069e-003
3.831863e+003, 1.032830e-002
3.833792e+003, 1.017561e-002
3.835720e+003, 1.040218e-002
3.837649e+003, 1.132709e-002
3.839577e+003, 1.120556e-002
3.841506e+003, 1.069148e-002
3.843434e+003, 1.026456e-002
3.845363e+003, 9.900883e-003
3.847291e+003, 9.764377e-003
3.849219e+003, 9.955523e-003
3.851148e+003, 1.004713e-002
3.853076e+003, 1.063803e-002
3.855005e+003, 1.127086e-002
3.856933e+003, 1.052128e-002
3.858862e+003, 9.889731e-003
3.860790e+003, 9.763907e-003
3.862719e+003, 1.049613e-002
3.864647e+003, 1.114986e-002
3.866576e+003, 1.070496e-002
3.868504e+003, 1.049988e-002
3.870433e+003, 1.012637e-002
3.872361e+003, 9.645454e-003
3.874290e+003, 1.007040e-002
3.876218e+003, 1.068871e-002
3.878146e+003, 1.092069e-002
3.880075e+003, 1.089659e-002
3.882003e+003, 1.060773e-002
3.883932e+003, 1.049086e-002
3.885860e+003, 1.052234e-002
3.887789e+003, 1.069864e-002
3.889717e+003, 1.127977e-002
3.891646e+003, 1.159482e-002
3.893574e+003, 1.138947e-002
3.895503e+003, 1.064129e-002
3.897431e+003, 1.030544e-002
3.899360e+003, 1.054242e-002
3.901288e+003, 1.072309e-002
3.903217e+003, 1.066017e-002
3.905145e+003, 9.950308e-003
3.907073e+003, 9.451843e-003
3.909002e+003, 9.792410e-003
3.910930e+003, 1.027340e-002
3.912859e+003, 1.095605e-002
3.914787e+003, 1.116105e-002
3.916716e+003, 1.071159e-002
3.918644e+003, 1.037559e-002
3.920573e+003, 1.055935e-002
3.922501e+003, 1.096513e-002
3.924430e+003, 1.087876e-002
3.926358e+003, 1.089507e-002
3.928287e+003, 1.050170e-002
3.930215e+003, 1.012283e-002
3.932144e+003, 1.053385e-002
3.934072e+003, 1.071200e-002
3.936000e+003, 9.883287e-003
3.937929e+003, 1.038990e-002
3.939857e+003, 1.117924e-002
3.941786e+003, 1.081387e-002
3.943714e+003, 1.057746e-002
3.945643e+003, 1.051999e-002
3.947571e+003, 1.070831e-002
3.949500e+003, 1.134769e-002
3.951428e+003, 1.151494e-002
3.953357e+003, 1.147385e-002
3.955285e+003, 1.123867e-002
3.957214e+003, 1.009931e-002
3.959142e+003, 9.683853e-003
3.961071e+003, 9.652783e-003
3.962999e+003, 9.873505e-003
3.964927e+003, 1.028676e-002
3.966856e+003, 1.120540e-002
3.968784e+003, 1.163576e-002
3.970713e+003, 1.146748e-002
3.972641e+003, 1.127428e-002
3.974570e+003, 1.057521e-002
3.976498e+003, 1.086337e-002
3.978427e+003, 1.031766e-002
3.980355e+003, 1.010904e-002
3.982284e+003, 1.120141e-002
3.984212e+003, 1.134036e-002
3.986141e+003, 1.116464e-002
3.988069e+003, 1.174148e-002
3.989998e+003, 1.171572e-002
3.991926e+003, 1.107111e-002
3.993854e+003, 1.098134e-002
3.995783e+003, 1.052742e-002
3.997711e+003, 9.972843e-003
3.999640e+003, 1.044688e-002
4.001568e+003, 0.000000e+000
##END=



