##NAMES=Pargasite
##RRUFFID=R050321
##IDEAL CHEMISTRY=NaCa_2_(Mg_4_Al)(Si_6_Al_2_)O_22_(OH)_2_
##LOCALITY=Soper River, near Kimmirut, Baffin Island, Nunavut, Canada
##OWNER=RRUFF
##SOURCE=Frank Hawthorne
##DESCRIPTION=Greenish brown transparent fragment
##STATUS=The identification of this mineral has been confirmed by X-ray diffraction and chemical analysis
##URL=rruff.info/R050321
##MEASURED CHEMISTRY=(Na_0.77_K_0.23_)(Ca_1.90_Na_0.10_)_&#931;=2_Mg_4.00_(Al_0.58_Fe^3+^_0.07_Ti_0.05_Mg_0.30_)(Si_6.24_Al_1.76_)_&#931;=8_O_22_((OH)_0.69_F_0.31_)_2_
3.991926e+002, 2.366596e-001
4.011211e+002, 2.428362e-001
4.030496e+002, 2.440037e-001
4.049780e+002, 2.446717e-001
4.069065e+002, 2.392206e-001
4.088350e+002, 2.369648e-001
4.107634e+002, 2.371219e-001
4.126919e+002, 2.403792e-001
4.146204e+002, 2.406341e-001
4.165488e+002, 2.387847e-001
4.184773e+002, 2.348194e-001
4.204058e+002, 2.368152e-001
4.223342e+002, 2.381646e-001
4.242627e+002, 2.380955e-001
4.261912e+002, 2.364846e-001
4.281196e+002, 2.421458e-001
4.300481e+002, 2.480468e-001
4.319766e+002, 2.495493e-001
4.339050e+002, 2.522091e-001
4.358335e+002, 2.548118e-001
4.377620e+002, 2.574476e-001
4.396904e+002, 2.585932e-001
4.416189e+002, 2.574833e-001
4.435474e+002, 2.534208e-001
4.454758e+002, 2.522050e-001
4.474043e+002, 2.515433e-001
4.493328e+002, 2.502108e-001
4.512612e+002, 2.490929e-001
4.531897e+002, 2.471010e-001
4.551182e+002, 2.470851e-001
4.570466e+002, 2.446128e-001
4.589751e+002, 2.413026e-001
4.609036e+002, 2.375840e-001
4.628320e+002, 2.351661e-001
4.647605e+002, 2.325539e-001
4.666890e+002, 2.256166e-001
4.686174e+002, 2.183666e-001
4.705459e+002, 2.130818e-001
4.724744e+002, 2.066288e-001
4.744028e+002, 2.022589e-001
4.763313e+002, 1.980443e-001
4.782598e+002, 1.919136e-001
4.801882e+002, 1.867109e-001
4.821167e+002, 1.834720e-001
4.840452e+002, 1.808248e-001
4.859736e+002, 1.773836e-001
4.879021e+002, 1.749435e-001
4.898306e+002, 1.723224e-001
4.917590e+002, 1.696589e-001
4.936875e+002, 1.690286e-001
4.956160e+002, 1.703118e-001
4.975444e+002, 1.705075e-001
4.994729e+002, 1.706506e-001
5.014014e+002, 1.716910e-001
5.033298e+002, 1.723476e-001
5.052583e+002, 1.717669e-001
5.071868e+002, 1.707631e-001
5.091152e+002, 1.691667e-001
5.110437e+002, 1.652396e-001
5.129722e+002, 1.614835e-001
5.149006e+002, 1.592448e-001
5.168291e+002, 1.562486e-001
5.187576e+002, 1.529779e-001
5.206860e+002, 1.507506e-001
5.226145e+002, 1.499429e-001
5.245430e+002, 1.474117e-001
5.264714e+002, 1.434361e-001
5.283999e+002, 1.406551e-001
5.303284e+002, 1.385374e-001
5.322568e+002, 1.360164e-001
5.341853e+002, 1.322380e-001
5.361138e+002, 1.285049e-001
5.380422e+002, 1.247905e-001
5.399707e+002, 1.209844e-001
5.418992e+002, 1.159339e-001
5.438276e+002, 1.112566e-001
5.457561e+002, 1.073448e-001
5.476846e+002, 1.020867e-001
5.496130e+002, 9.693626e-002
5.515415e+002, 9.240401e-002
5.534700e+002, 8.788374e-002
5.553984e+002, 8.322336e-002
5.573269e+002, 7.908253e-002
5.592554e+002, 7.562090e-002
5.611838e+002, 7.161756e-002
5.631123e+002, 6.751398e-002
5.650408e+002, 6.436367e-002
5.669692e+002, 6.118302e-002
5.688977e+002, 5.772375e-002
5.708262e+002, 5.474646e-002
5.727546e+002, 5.122836e-002
5.746831e+002, 4.857224e-002
5.766116e+002, 4.656013e-002
5.785400e+002, 4.470307e-002
5.804685e+002, 4.345525e-002
5.823970e+002, 4.221224e-002
5.843254e+002, 4.089273e-002
5.862539e+002, 3.978123e-002
5.881824e+002, 3.932329e-002
5.901108e+002, 3.953630e-002
5.920393e+002, 3.963927e-002
5.939678e+002, 3.977165e-002
5.958962e+002, 4.036726e-002
5.978247e+002, 4.089019e-002
5.997532e+002, 4.126359e-002
6.016816e+002, 4.234545e-002
6.036101e+002, 4.347062e-002
6.055386e+002, 4.425045e-002
6.074670e+002, 4.553666e-002
6.093955e+002, 4.607662e-002
6.113240e+002, 4.685246e-002
6.132524e+002, 4.757821e-002
6.151809e+002, 4.817049e-002
6.171094e+002, 4.877047e-002
6.190378e+002, 4.990267e-002
6.209663e+002, 5.097731e-002
6.228948e+002, 5.224782e-002
6.248232e+002, 5.375811e-002
6.267517e+002, 5.496483e-002
6.286802e+002, 5.584019e-002
6.306086e+002, 5.748336e-002
6.325371e+002, 5.954830e-002
6.344656e+002, 6.160615e-002
6.363940e+002, 6.383171e-002
6.383225e+002, 6.623619e-002
6.402510e+002, 6.830536e-002
6.421794e+002, 6.966730e-002
6.441079e+002, 7.080599e-002
6.460364e+002, 7.182572e-002
6.479648e+002, 7.209364e-002
6.498933e+002, 7.259233e-002
6.518218e+002, 7.346942e-002
6.537502e+002, 7.468344e-002
6.556787e+002, 7.644064e-002
6.576072e+002, 7.787660e-002
6.595356e+002, 7.932350e-002
6.614641e+002, 8.038929e-002
6.633926e+002, 8.037999e-002
6.653210e+002, 7.982817e-002
6.672495e+002, 7.947788e-002
6.691780e+002, 7.839732e-002
6.711064e+002, 7.702937e-002
6.730349e+002, 7.683095e-002
6.749634e+002, 7.750550e-002
6.768918e+002, 7.853476e-002
6.788203e+002, 7.911130e-002
6.807488e+002, 7.919734e-002
6.826772e+002, 7.906168e-002
6.846057e+002, 7.835316e-002
6.865342e+002, 7.698233e-002
6.884626e+002, 7.503152e-002
6.903911e+002, 7.308684e-002
6.923196e+002, 7.159212e-002
6.942480e+002, 7.105812e-002
6.961765e+002, 7.072514e-002
6.981050e+002, 7.047878e-002
7.000334e+002, 7.041829e-002
7.019619e+002, 6.977420e-002
7.038904e+002, 6.813206e-002
7.058188e+002, 6.536610e-002
7.077473e+002, 6.216606e-002
7.096758e+002, 5.992211e-002
7.116042e+002, 5.842550e-002
7.135327e+002, 5.690247e-002
7.154612e+002, 5.626920e-002
7.173896e+002, 5.672205e-002
7.193181e+002, 5.808819e-002
7.212466e+002, 6.015218e-002
7.231750e+002, 6.189097e-002
7.251035e+002, 6.377746e-002
7.270320e+002, 6.586088e-002
7.289604e+002, 6.799405e-002
7.308889e+002, 7.033623e-002
7.328174e+002, 7.239454e-002
7.347458e+002, 7.375858e-002
7.366743e+002, 7.390671e-002
7.386028e+002, 7.262421e-002
7.405313e+002, 7.009833e-002
7.424597e+002, 6.725508e-002
7.443882e+002, 6.465064e-002
7.463167e+002, 6.229259e-002
7.482451e+002, 6.069059e-002
7.501736e+002, 5.977124e-002
7.521021e+002, 5.912290e-002
7.540305e+002, 5.929309e-002
7.559590e+002, 5.967149e-002
7.578875e+002, 6.001778e-002
7.598159e+002, 6.075629e-002
7.617444e+002, 6.173047e-002
7.636729e+002, 6.276484e-002
7.656013e+002, 6.434948e-002
7.675298e+002, 6.641645e-002
7.694583e+002, 6.805725e-002
7.713867e+002, 6.983639e-002
7.733152e+002, 7.192368e-002
7.752437e+002, 7.431609e-002
7.771721e+002, 7.722390e-002
7.791006e+002, 8.015502e-002
7.810291e+002, 8.308867e-002
7.829575e+002, 8.669084e-002
7.848860e+002, 9.028119e-002
7.868145e+002, 9.388095e-002
7.887429e+002, 9.788627e-002
7.906714e+002, 1.017542e-001
7.925999e+002, 1.053674e-001
7.945283e+002, 1.088956e-001
7.964568e+002, 1.125097e-001
7.983853e+002, 1.156134e-001
8.003137e+002, 1.182012e-001
8.022422e+002, 1.202777e-001
8.041707e+002, 1.217121e-001
8.060991e+002, 1.225733e-001
8.080276e+002, 1.233860e-001
8.099561e+002, 1.232724e-001
8.118845e+002, 1.222474e-001
8.138130e+002, 1.210359e-001
8.157415e+002, 1.200347e-001
8.176699e+002, 1.186714e-001
8.195984e+002, 1.175566e-001
8.215269e+002, 1.165766e-001
8.234553e+002, 1.162416e-001
8.253838e+002, 1.167192e-001
8.273123e+002, 1.176940e-001
8.292407e+002, 1.191159e-001
8.311692e+002, 1.214472e-001
8.330977e+002, 1.250671e-001
8.350261e+002, 1.287126e-001
8.369546e+002, 1.329827e-001
8.388831e+002, 1.387430e-001
8.408115e+002, 1.452451e-001
8.427400e+002, 1.520018e-001
8.446685e+002, 1.587135e-001
8.465969e+002, 1.653599e-001
8.485254e+002, 1.716994e-001
8.504539e+002, 1.782802e-001
8.523823e+002, 1.849087e-001
8.543108e+002, 1.914814e-001
8.562393e+002, 1.973887e-001
8.581677e+002, 2.029114e-001
8.600962e+002, 2.081795e-001
8.620247e+002, 2.132052e-001
8.639531e+002, 2.178726e-001
8.658816e+002, 2.219784e-001
8.678101e+002, 2.261744e-001
8.697385e+002, 2.311301e-001
8.716670e+002, 2.366901e-001
8.735955e+002, 2.433345e-001
8.755239e+002, 2.510277e-001
8.774524e+002, 2.593774e-001
8.793809e+002, 2.680241e-001
8.813093e+002, 2.771326e-001
8.832378e+002, 2.859802e-001
8.851663e+002, 2.937404e-001
8.870947e+002, 3.005018e-001
8.890232e+002, 3.056394e-001
8.909517e+002, 3.097952e-001
8.928801e+002, 3.130595e-001
8.948085e+002, 3.155900e-001
8.967370e+002, 3.178818e-001
8.986655e+002, 3.205007e-001
9.005939e+002, 3.228571e-001
9.025224e+002, 3.250551e-001
9.044509e+002, 3.271849e-001
9.063793e+002, 3.283715e-001
9.083078e+002, 3.287282e-001
9.102363e+002, 3.288866e-001
9.121647e+002, 3.286057e-001
9.140932e+002, 3.276913e-001
9.160217e+002, 3.258916e-001
9.179501e+002, 3.237182e-001
9.198786e+002, 3.215941e-001
9.218071e+002, 3.195327e-001
9.237355e+002, 3.185367e-001
9.256640e+002, 3.180941e-001
9.275925e+002, 3.182150e-001
9.295209e+002, 3.177677e-001
9.314494e+002, 3.169224e-001
9.333779e+002, 3.159114e-001
9.353063e+002, 3.144416e-001
9.372348e+002, 3.121642e-001
9.391633e+002, 3.090302e-001
9.410917e+002, 3.057722e-001
9.430202e+002, 3.027628e-001
9.449487e+002, 2.995565e-001
9.468771e+002, 2.954738e-001
9.488056e+002, 2.913171e-001
9.507341e+002, 2.877345e-001
9.526625e+002, 2.845642e-001
9.545910e+002, 2.815697e-001
9.565195e+002, 2.784792e-001
9.584479e+002, 2.757180e-001
9.603764e+002, 2.735181e-001
9.623049e+002, 2.715187e-001
9.642333e+002, 2.695296e-001
9.661618e+002, 2.673001e-001
9.680903e+002, 2.647888e-001
9.700187e+002, 2.619365e-001
9.719472e+002, 2.583215e-001
9.738757e+002, 2.539147e-001
9.758041e+002, 2.489730e-001
9.777326e+002, 2.436203e-001
9.796611e+002, 2.377879e-001
9.815895e+002, 2.317839e-001
9.835180e+002, 2.252291e-001
9.854465e+002, 2.183693e-001
9.873749e+002, 2.116041e-001
9.893034e+002, 2.047402e-001
9.912319e+002, 1.979787e-001
9.931603e+002, 1.915517e-001
9.950888e+002, 1.850914e-001
9.970173e+002, 1.791411e-001
9.989457e+002, 1.733639e-001
1.000874e+003, 1.677466e-001
1.002803e+003, 1.627056e-001
1.004731e+003, 1.580761e-001
1.006660e+003, 1.538279e-001
1.008588e+003, 1.505281e-001
1.010517e+003, 1.473400e-001
1.012445e+003, 1.449302e-001
1.014373e+003, 1.430696e-001
1.016302e+003, 1.414916e-001
1.018230e+003, 1.405849e-001
1.020159e+003, 1.400718e-001
1.022087e+003, 1.398829e-001
1.024016e+003, 1.400580e-001
1.025944e+003, 1.405428e-001
1.027873e+003, 1.407851e-001
1.029801e+003, 1.409840e-001
1.031730e+003, 1.418058e-001
1.033658e+003, 1.425282e-001
1.035587e+003, 1.433295e-001
1.037515e+003, 1.444251e-001
1.039444e+003, 1.453094e-001
1.041372e+003, 1.459621e-001
1.043301e+003, 1.465906e-001
1.045229e+003, 1.470390e-001
1.047157e+003, 1.473825e-001
1.049086e+003, 1.469451e-001
1.051014e+003, 1.456481e-001
1.052943e+003, 1.437376e-001
1.054871e+003, 1.407925e-001
1.056800e+003, 1.368502e-001
1.058728e+003, 1.324029e-001
1.060657e+003, 1.275082e-001
1.062585e+003, 1.226065e-001
1.064514e+003, 1.179941e-001
1.066442e+003, 1.129966e-001
1.068371e+003, 1.076806e-001
1.070299e+003, 1.027966e-001
1.072228e+003, 9.821174e-002
1.074156e+003, 9.357252e-002
1.076084e+003, 8.922772e-002
1.078013e+003, 8.521213e-002
1.079941e+003, 8.140513e-002
1.081870e+003, 7.762422e-002
1.083798e+003, 7.414234e-002
1.085727e+003, 7.086232e-002
1.087655e+003, 6.798751e-002
1.089584e+003, 6.578764e-002
1.091512e+003, 6.380010e-002
1.093441e+003, 6.221963e-002
1.095369e+003, 6.062571e-002
1.097298e+003, 5.910509e-002
1.099226e+003, 5.789624e-002
1.101155e+003, 5.669021e-002
1.103083e+003, 5.562912e-002
1.105011e+003, 5.439371e-002
1.106940e+003, 5.303073e-002
1.108868e+003, 5.176186e-002
1.110797e+003, 5.024990e-002
1.112725e+003, 4.818074e-002
1.114654e+003, 4.581964e-002
1.116582e+003, 4.317107e-002
1.118511e+003, 3.993954e-002
1.120439e+003, 3.653139e-002
1.122368e+003, 3.328632e-002
1.124296e+003, 3.013883e-002
1.126225e+003, 2.705415e-002
1.128153e+003, 2.423680e-002
1.130082e+003, 2.161338e-002
1.132010e+003, 1.929053e-002
1.133938e+003, 1.728358e-002
1.135867e+003, 1.550768e-002
1.137795e+003, 1.392016e-002
1.139724e+003, 1.227153e-002
1.141652e+003, 1.097044e-002
1.143581e+003, 1.003280e-002
1.145509e+003, 9.256624e-003
1.147438e+003, 8.451544e-003
1.149366e+003, 7.842976e-003
1.151295e+003, 7.372677e-003
1.153223e+003, 6.912421e-003
1.155152e+003, 6.751050e-003
1.157080e+003, 6.437805e-003
1.159009e+003, 5.897382e-003
1.160937e+003, 5.226051e-003
1.162865e+003, 5.027151e-003
1.164794e+003, 4.819817e-003
1.166722e+003, 4.583265e-003
1.168651e+003, 4.570796e-003
1.170579e+003, 4.471936e-003
1.172508e+003, 4.153869e-003
1.174436e+003, 4.243371e-003
1.176365e+003, 4.182192e-003
1.178293e+003, 3.936953e-003
1.180222e+003, 3.730285e-003
1.182150e+003, 3.561346e-003
1.184079e+003, 3.427085e-003
1.186007e+003, 3.240086e-003
1.187936e+003, 3.044731e-003
1.189864e+003, 2.891184e-003
1.191792e+003, 2.951388e-003
1.193721e+003, 2.993955e-003
1.195649e+003, 2.961019e-003
1.197578e+003, 2.787838e-003
1.199506e+003, 2.685211e-003
1.201435e+003, 2.714937e-003
1.203363e+003, 2.708834e-003
1.205292e+003, 2.775241e-003
1.207220e+003, 2.623036e-003
1.209149e+003, 2.346011e-003
1.211077e+003, 2.412314e-003
1.213006e+003, 2.366211e-003
1.214934e+003, 2.319672e-003
1.216863e+003, 2.496994e-003
1.218791e+003, 2.548507e-003
1.220719e+003, 2.548719e-003
1.222648e+003, 2.434140e-003
1.224576e+003, 2.216649e-003
1.226505e+003, 2.219528e-003
1.228433e+003, 2.235811e-003
1.230362e+003, 2.166948e-003
1.232290e+003, 2.242708e-003
1.234219e+003, 2.284945e-003
1.236147e+003, 2.118866e-003
1.238076e+003, 2.042320e-003
1.240004e+003, 2.213757e-003
1.241933e+003, 2.200837e-003
1.243861e+003, 2.196764e-003
1.245790e+003, 2.071619e-003
1.247718e+003, 2.281995e-003
1.249646e+003, 2.541095e-003
1.251575e+003, 2.562599e-003
1.253503e+003, 2.561206e-003
1.255432e+003, 2.515498e-003
1.257360e+003, 2.537234e-003
1.259289e+003, 2.588539e-003
1.261217e+003, 2.574700e-003
1.263146e+003, 2.398859e-003
1.265074e+003, 2.296564e-003
1.267003e+003, 2.353733e-003
1.268931e+003, 2.246951e-003
1.270860e+003, 2.197686e-003
1.272788e+003, 2.416790e-003
1.274717e+003, 2.402041e-003
1.276645e+003, 2.042893e-003
1.278573e+003, 1.832268e-003
1.280502e+003, 1.950148e-003
1.282430e+003, 2.108791e-003
1.284359e+003, 2.254400e-003
1.286287e+003, 2.394653e-003
1.288216e+003, 2.273642e-003
1.290144e+003, 2.249447e-003
1.292073e+003, 2.308219e-003
1.294001e+003, 2.414568e-003
1.295930e+003, 2.215950e-003
1.297858e+003, 1.976409e-003
1.299787e+003, 1.771589e-003
1.301715e+003, 1.969124e-003
1.303644e+003, 2.153169e-003
1.305572e+003, 2.116319e-003
1.307500e+003, 2.284624e-003
1.309429e+003, 2.464751e-003
1.311357e+003, 2.416932e-003
1.313286e+003, 2.281495e-003
1.315214e+003, 2.262488e-003
1.317143e+003, 2.289686e-003
1.319071e+003, 2.330382e-003
1.321000e+003, 2.423627e-003
1.322928e+003, 2.316598e-003
1.324857e+003, 2.236194e-003
1.326785e+003, 2.407400e-003
1.328714e+003, 2.247566e-003
1.330642e+003, 2.358881e-003
1.332571e+003, 2.844855e-003
1.334499e+003, 3.064968e-003
1.336427e+003, 3.051190e-003
1.338356e+003, 2.833900e-003
1.340284e+003, 2.668027e-003
1.342213e+003, 2.975259e-003
1.344141e+003, 3.030658e-003
1.346070e+003, 3.110375e-003
1.347998e+003, 3.613555e-003
1.349927e+003, 3.820249e-003
1.351855e+003, 3.920213e-003
1.353784e+003, 3.853875e-003
1.355712e+003, 3.710126e-003
1.357641e+003, 3.859376e-003
1.359569e+003, 4.268148e-003
1.361498e+003, 4.550218e-003
1.363426e+003, 4.503903e-003
1.365354e+003, 4.330831e-003
1.367283e+003, 4.435575e-003
1.369211e+003, 4.542489e-003
1.371140e+003, 4.714678e-003
1.373068e+003, 4.906737e-003
1.374997e+003, 4.843948e-003
1.376925e+003, 4.676769e-003
1.378854e+003, 4.795498e-003
1.380782e+003, 5.021954e-003
1.382711e+003, 4.756680e-003
1.384639e+003, 4.510415e-003
1.386568e+003, 5.135568e-003
1.388496e+003, 5.201039e-003
1.390424e+003, 5.102507e-003
1.392353e+003, 5.268443e-003
1.394281e+003, 5.300162e-003
1.396210e+003, 5.201283e-003
1.398138e+003, 5.492154e-003
1.400067e+003, 5.675016e-003
1.401995e+003, 5.751764e-003
1.403924e+003, 5.938900e-003
1.405852e+003, 6.086540e-003
1.407781e+003, 6.069495e-003
1.409709e+003, 6.063468e-003
1.411638e+003, 6.184721e-003
1.413566e+003, 6.408194e-003
1.415495e+003, 6.377602e-003
1.417423e+003, 6.337367e-003
1.419351e+003, 6.409377e-003
1.421280e+003, 6.267688e-003
1.423208e+003, 6.178257e-003
1.425137e+003, 5.885699e-003
1.427065e+003, 5.665001e-003
1.428994e+003, 5.892642e-003
1.430922e+003, 6.001022e-003
1.432851e+003, 5.832582e-003
1.434779e+003, 5.852190e-003
1.436708e+003, 6.369242e-003
1.438636e+003, 6.199925e-003
1.440565e+003, 6.085608e-003
1.442493e+003, 5.930840e-003
1.444422e+003, 5.746024e-003
1.446350e+003, 5.624914e-003
1.448278e+003, 5.801176e-003
1.450207e+003, 5.801772e-003
1.452135e+003, 5.902973e-003
1.454064e+003, 5.921802e-003
1.455992e+003, 6.124428e-003
1.457921e+003, 5.897234e-003
1.459849e+003, 5.181008e-003
1.461778e+003, 5.079259e-003
1.463706e+003, 5.805608e-003
1.465635e+003, 5.842909e-003
1.467563e+003, 5.099509e-003
1.469492e+003, 4.968699e-003
1.471420e+003, 5.485397e-003
1.473349e+003, 5.616926e-003
1.475277e+003, 5.066644e-003
1.477205e+003, 4.545755e-003
1.479134e+003, 4.172878e-003
1.481062e+003, 3.938558e-003
1.482991e+003, 4.112247e-003
1.484919e+003, 4.181326e-003
1.486848e+003, 4.142974e-003
1.488776e+003, 4.282456e-003
1.490705e+003, 4.366816e-003
1.492633e+003, 4.297235e-003
1.494562e+003, 4.328210e-003
1.496490e+003, 4.590318e-003
1.498419e+003, 4.844283e-003
1.500347e+003, 4.699982e-003
1.502276e+003, 4.486411e-003
1.504204e+003, 5.160765e-003
1.506132e+003, 5.836011e-003
1.508061e+003, 5.497166e-003
1.509989e+003, 5.037211e-003
1.511918e+003, 5.153199e-003
1.513846e+003, 5.094408e-003
1.515775e+003, 5.131571e-003
1.517703e+003, 5.066390e-003
1.519632e+003, 5.365307e-003
1.521560e+003, 5.997583e-003
1.523489e+003, 6.056992e-003
1.525417e+003, 6.141482e-003
1.527346e+003, 6.010583e-003
1.529274e+003, 5.796346e-003
1.531203e+003, 5.839533e-003
1.533131e+003, 6.081743e-003
1.535059e+003, 6.362212e-003
1.536988e+003, 7.319178e-003
1.538916e+003, 8.543479e-003
1.540845e+003, 8.498392e-003
1.542773e+003, 8.328317e-003
1.544702e+003, 8.337949e-003
1.546630e+003, 8.517222e-003
1.548559e+003, 9.048730e-003
1.550487e+003, 8.990853e-003
1.552416e+003, 8.846500e-003
1.554344e+003, 9.401601e-003
1.556273e+003, 1.019319e-002
1.558201e+003, 1.124767e-002
1.560130e+003, 1.144662e-002
1.562058e+003, 1.078979e-002
1.563986e+003, 1.041434e-002
1.565915e+003, 1.048994e-002
1.567843e+003, 1.080073e-002
1.569772e+003, 1.107707e-002
1.571700e+003, 1.111137e-002
1.573629e+003, 1.169618e-002
1.575557e+003, 1.250719e-002
1.577486e+003, 1.224622e-002
1.579414e+003, 1.209627e-002
1.581343e+003, 1.237784e-002
1.583271e+003, 1.244523e-002
1.585200e+003, 1.260138e-002
1.587128e+003, 1.260986e-002
1.589057e+003, 1.265156e-002
1.590985e+003, 1.277179e-002
1.592913e+003, 1.301247e-002
1.594842e+003, 1.337896e-002
1.596770e+003, 1.359825e-002
1.598699e+003, 1.345593e-002
1.600627e+003, 1.334121e-002
1.602556e+003, 1.346787e-002
1.604484e+003, 1.328128e-002
1.606413e+003, 1.293283e-002
1.608341e+003, 1.289450e-002
1.610270e+003, 1.319709e-002
1.612198e+003, 1.323957e-002
1.614127e+003, 1.329607e-002
1.616055e+003, 1.386100e-002
1.617984e+003, 1.329582e-002
1.619912e+003, 1.233596e-002
1.621840e+003, 1.243870e-002
1.623769e+003, 1.258301e-002
1.625697e+003, 1.242135e-002
1.627626e+003, 1.212149e-002
1.629554e+003, 1.189031e-002
1.631483e+003, 1.169425e-002
1.633411e+003, 1.208596e-002
1.635340e+003, 1.257643e-002
1.637268e+003, 1.217498e-002
1.639197e+003, 1.168257e-002
1.641125e+003, 1.167343e-002
1.643054e+003, 1.163696e-002
1.644982e+003, 1.130250e-002
1.646911e+003, 1.085227e-002
1.648839e+003, 1.031755e-002
1.650767e+003, 1.057143e-002
1.652696e+003, 1.195075e-002
1.654624e+003, 1.134815e-002
1.656553e+003, 9.916526e-003
1.658481e+003, 9.777435e-003
1.660410e+003, 9.766217e-003
1.662338e+003, 9.320058e-003
1.664267e+003, 8.802735e-003
1.666195e+003, 8.771135e-003
1.668124e+003, 8.695416e-003
1.670052e+003, 8.175419e-003
1.671981e+003, 7.689130e-003
1.673909e+003, 7.541456e-003
1.675838e+003, 7.591664e-003
1.677766e+003, 7.064304e-003
1.679694e+003, 6.687237e-003
1.681623e+003, 6.344224e-003
1.683551e+003, 6.553929e-003
1.685480e+003, 6.368351e-003
1.687408e+003, 5.675888e-003
1.689337e+003, 5.441489e-003
1.691265e+003, 4.844664e-003
1.693194e+003, 4.217278e-003
1.695122e+003, 4.654294e-003
1.697051e+003, 4.575789e-003
1.698979e+003, 4.634407e-003
1.700908e+003, 4.630026e-003
1.702836e+003, 3.634471e-003
1.704765e+003, 3.264833e-003
1.706693e+003, 3.019673e-003
1.708621e+003, 2.516772e-003
1.710550e+003, 2.107704e-003
1.712478e+003, 2.220593e-003
1.714407e+003, 2.479354e-003
1.716335e+003, 3.275911e-003
1.718264e+003, 3.129615e-003
1.720192e+003, 2.128959e-003
1.722121e+003, 2.062623e-003
1.724049e+003, 1.966299e-003
1.725978e+003, 1.469414e-003
1.727906e+003, 1.502836e-003
1.729835e+003, 1.740421e-003
1.731763e+003, 1.727926e-003
1.733692e+003, 1.811382e-003
1.735620e+003, 7.974264e-004
1.737548e+003, -2.648998e-004
1.739477e+003, -4.792058e-004
1.741405e+003, -3.037861e-004
1.743334e+003, -5.055523e-004
1.745262e+003, -9.690911e-004
1.747191e+003, -1.303060e-003
1.749119e+003, -1.183570e-003
1.751048e+003, -1.129840e-003
1.752976e+003, -1.334743e-003
1.754905e+003, -9.504607e-004
1.756833e+003, -3.847358e-004
1.758762e+003, -3.473558e-004
1.760690e+003, -1.630395e-004
1.762619e+003, 1.404713e-004
1.764547e+003, 3.774947e-004
1.766475e+003, 6.387162e-004
1.768404e+003, 7.055071e-004
1.770332e+003, 8.993464e-004
1.772261e+003, 1.043201e-003
1.774189e+003, 7.448265e-004
1.776118e+003, 6.077475e-004
1.778046e+003, 5.053516e-004
1.779975e+003, 7.334414e-004
1.781903e+003, 8.004873e-004
1.783832e+003, 1.288608e-004
1.785760e+003, -1.934008e-004
1.787689e+003, -1.179246e-004
1.789617e+003, 3.165338e-004
1.791546e+003, 8.785064e-004
1.793474e+003, 8.868292e-004
1.795402e+003, 5.061176e-004
1.797331e+003, 3.956502e-004
1.799259e+003, 5.123353e-004
1.801188e+003, 5.574963e-004
1.803116e+003, 5.657460e-004
1.805045e+003, 4.925575e-004
1.806973e+003, 2.153304e-004
1.808902e+003, -1.570172e-004
1.810830e+003, -2.613171e-004
1.812759e+003, -9.357418e-005
1.814687e+003, -2.696877e-004
1.816616e+003, -2.593239e-004
1.818544e+003, 1.831383e-004
1.820473e+003, 3.968216e-004
1.822401e+003, 7.098849e-004
1.824329e+003, 8.481077e-004
1.826258e+003, 9.452429e-005
1.828186e+003, -8.480524e-007
1.830115e+003, 6.435807e-004
1.832043e+003, 4.093649e-004
1.833972e+003, 4.688330e-004
1.835900e+003, 2.815746e-004
1.837829e+003, 4.207934e-005
1.839757e+003, -3.788288e-004
1.841686e+003, -4.926049e-004
1.843614e+003, -3.381028e-004
1.845543e+003, -8.580294e-004
1.847471e+003, -7.605928e-004
1.849400e+003, -7.488978e-004
1.851328e+003, -3.693165e-004
1.853256e+003, -3.871323e-004
1.855185e+003, -7.708922e-004
1.857113e+003, -9.238909e-004
1.859042e+003, -6.308205e-004
1.860970e+003, -1.173333e-004
1.862899e+003, -3.404672e-004
1.864827e+003, -5.871558e-004
1.866756e+003, -5.911625e-004
1.868684e+003, -7.268284e-004
1.870613e+003, -5.732456e-004
1.872541e+003, -8.456039e-004
1.874470e+003, -1.340073e-003
1.876398e+003, -1.326306e-003
1.878327e+003, -1.241048e-003
1.880255e+003, -1.147577e-003
1.882183e+003, -1.425901e-003
1.884112e+003, -1.010027e-003
1.886040e+003, -4.347674e-004
1.887969e+003, -6.683890e-004
1.889897e+003, -1.509628e-004
1.891826e+003, -8.390333e-004
1.893754e+003, -1.528243e-003
1.895683e+003, -6.564338e-004
1.897611e+003, -5.166748e-004
1.899540e+003, -1.132887e-003
1.901468e+003, -9.018410e-004
1.903397e+003, -3.648264e-004
1.905325e+003, -4.898157e-004
1.907254e+003, -1.525639e-003
1.909182e+003, -1.182857e-003
1.911110e+003, -3.573803e-004
1.913039e+003, -1.305248e-003
1.914967e+003, -1.509262e-003
1.916896e+003, -8.034517e-004
1.918824e+003, -1.204131e-003
1.920753e+003, -1.871846e-003
1.922681e+003, -2.574662e-003
1.924610e+003, -3.459056e-003
1.926538e+003, -3.573254e-003
1.928467e+003, -3.803944e-003
1.930395e+003, -4.307551e-003
1.932324e+003, -2.857654e-003
1.934252e+003, -1.142901e-003
1.936181e+003, -2.586912e-004
1.938109e+003, -2.427709e-004
1.940037e+003, -1.439570e-003
1.941966e+003, -1.994528e-003
1.943894e+003, -2.920853e-003
1.945823e+003, -3.466748e-003
1.947751e+003, -2.218576e-003
1.949680e+003, -2.601864e-003
1.951608e+003, -2.579296e-003
1.953537e+003, -2.905281e-003
1.955465e+003, -2.880189e-003
1.957394e+003, -2.806367e-003
1.959322e+003, -3.353914e-003
1.961251e+003, -4.683117e-003
1.963179e+003, -5.446409e-003
1.965108e+003, -6.123505e-003
1.967036e+003, -4.620248e-003
1.968964e+003, -3.851549e-003
1.970893e+003, -4.236910e-003
1.972821e+003, -2.309979e-003
1.974750e+003, -3.270627e-003
1.976678e+003, -5.910081e-003
1.978607e+003, -5.381132e-003
1.980535e+003, -4.637792e-003
1.982464e+003, -3.906792e-003
1.984392e+003, -3.054039e-003
1.986321e+003, -2.375209e-003
1.988249e+003, -3.137499e-003
1.990178e+003, -4.429274e-003
1.992106e+003, -3.944653e-003
1.994035e+003, -3.231414e-003
1.995963e+003, -3.153493e-003
1.997891e+003, -2.300843e-003
1.999820e+003, -1.394426e-003
2.001748e+003, -3.499537e-003
2.003677e+003, -5.776227e-003
2.005605e+003, -4.334876e-003
2.007534e+003, -3.035301e-003
2.009462e+003, -6.791059e-005
2.011391e+003, -1.428763e-004
2.013319e+003, -3.012670e-003
2.015248e+003, -3.747563e-003
2.017176e+003, -4.516956e-003
2.019105e+003, -3.505492e-003
2.021033e+003, -4.846978e-003
2.022962e+003, -6.295001e-003
2.024890e+003, -8.053794e-003
2.026818e+003, -8.356606e-003
2.028747e+003, -3.811151e-003
2.030675e+003, -1.037051e-003
2.032604e+003, -4.158650e-003
2.034532e+003, -3.977929e-003
2.036461e+003, -1.899707e-003
2.038389e+003, -2.541326e-003
2.040318e+003, -3.374913e-003
2.042246e+003, -3.242125e-003
2.044175e+003, -1.382953e-003
2.046103e+003, -2.052920e-003
2.048032e+003, -2.094528e-003
2.049960e+003, -1.579381e-003
2.051889e+003, -1.560303e-003
2.053817e+003, -2.012454e-003
2.055746e+003, -3.237155e-003
2.057674e+003, -5.664326e-003
2.059603e+003, -4.430873e-003
2.061531e+003, -1.839321e-003
2.063459e+003, -8.048408e-004
2.065388e+003, 1.352371e-004
2.067316e+003, 6.711255e-004
2.069245e+003, -1.482198e-004
2.071173e+003, -9.920641e-004
2.073102e+003, -1.447856e-003
2.075030e+003, -2.064795e-003
2.076959e+003, -1.764763e-003
2.078887e+003, -8.963288e-004
2.080816e+003, 2.427219e-004
2.082744e+003, 2.003361e-003
2.084673e+003, 1.758525e-003
2.086601e+003, 1.194515e-003
2.088530e+003, 4.285272e-004
2.090458e+003, -1.898999e-003
2.092386e+003, -3.305214e-003
2.094315e+003, -2.312636e-003
2.096243e+003, -1.116045e-003
2.098172e+003, -1.453357e-003
2.100100e+003, -2.112165e-003
2.102029e+003, -1.760970e-003
2.103957e+003, -7.264650e-004
2.105886e+003, -1.027750e-004
2.107814e+003, -2.198312e-004
2.109743e+003, -7.251799e-004
2.111671e+003, -1.520547e-003
2.113600e+003, -9.857324e-004
2.115528e+003, 1.852123e-004
2.117457e+003, -4.037516e-004
2.119385e+003, -1.916307e-003
2.121313e+003, -2.468287e-003
2.123242e+003, -2.848493e-003
2.125170e+003, -2.913134e-003
2.127099e+003, -4.244300e-003
2.129027e+003, -4.660317e-003
2.130956e+003, -3.731259e-003
2.132884e+003, -2.306868e-003
2.134813e+003, -2.700685e-003
2.136741e+003, -4.277775e-003
2.138670e+003, -3.544445e-003
2.140598e+003, -2.728796e-003
2.142527e+003, -3.308943e-003
2.144455e+003, -5.941624e-003
2.146384e+003, -5.860820e-003
2.148312e+003, -5.168863e-003
2.150240e+003, -4.605589e-003
2.152169e+003, -3.237070e-003
2.154097e+003, -4.022754e-003
2.156026e+003, -3.654477e-003
2.157954e+003, -1.454575e-003
2.159883e+003, -8.968613e-004
2.161811e+003, -3.101763e-004
2.163740e+003, 8.703311e-004
2.165668e+003, 6.945086e-004
2.167597e+003, 1.308558e-003
2.169525e+003, 1.020675e-003
2.171454e+003, -3.550736e-004
2.173382e+003, 8.986449e-004
2.175311e+003, 1.901064e-003
2.177239e+003, -8.448232e-004
2.179167e+003, -2.341009e-003
2.181096e+003, 5.901840e-004
2.183024e+003, 2.003409e-003
2.184953e+003, 9.801730e-004
2.186881e+003, 1.304962e-003
2.188810e+003, 2.010462e-003
2.190738e+003, -5.496954e-004
2.192667e+003, -9.967321e-005
2.194595e+003, 1.480480e-003
2.196524e+003, 1.253435e-003
2.198452e+003, 1.828084e-003
2.200381e+003, 1.967537e-003
2.202309e+003, 1.854383e-004
2.204238e+003, 5.560332e-004
2.206166e+003, 2.771174e-003
2.208094e+003, 3.407839e-003
2.210023e+003, 3.454321e-003
2.211951e+003, 2.249878e-003
2.213880e+003, 8.504846e-004
2.215808e+003, 3.297064e-004
2.217737e+003, 9.619264e-004
2.219665e+003, 1.961714e-003
2.221594e+003, 2.568295e-003
2.223522e+003, 3.338272e-003
2.225451e+003, 2.895163e-003
2.227379e+003, 2.176878e-003
2.229308e+003, 1.300619e-003
2.231236e+003, 2.085882e-003
2.233165e+003, 2.566611e-003
2.235093e+003, 1.114318e-003
2.237021e+003, 1.328870e-003
2.238950e+003, 2.111086e-003
2.240878e+003, 2.221624e-003
2.242807e+003, 2.590211e-003
2.244735e+003, 2.956955e-003
2.246664e+003, 2.259518e-003
2.248592e+003, 2.113607e-003
2.250521e+003, 1.322254e-003
2.252449e+003, 2.106163e-003
2.254378e+003, 2.893538e-003
2.256306e+003, 8.196434e-004
2.258235e+003, 1.185262e-003
2.260163e+003, 2.145122e-003
2.262092e+003, 2.549808e-003
2.264020e+003, 3.152349e-003
2.265948e+003, 3.556654e-003
2.267877e+003, 4.555298e-003
2.269805e+003, 5.423387e-003
2.271734e+003, 4.379380e-003
2.273662e+003, 4.715802e-003
2.275591e+003, 4.868606e-003
2.277519e+003, 4.962147e-003
2.279448e+003, 4.551527e-003
2.281376e+003, 4.366762e-003
2.283305e+003, 5.035734e-003
2.285233e+003, 5.318189e-003
2.287162e+003, 4.866631e-003
2.289090e+003, 4.297883e-003
2.291019e+003, 3.930591e-003
2.292947e+003, 3.441206e-003
2.294875e+003, 4.442627e-003
2.296804e+003, 5.463180e-003
2.298732e+003, 5.020383e-003
2.300661e+003, 4.733656e-003
2.302589e+003, 4.598272e-003
2.304518e+003, 4.894968e-003
2.306446e+003, 5.620982e-003
2.308375e+003, 4.915151e-003
2.310303e+003, 4.106402e-003
2.312232e+003, 4.228998e-003
2.314160e+003, 4.857507e-003
2.316089e+003, 5.641548e-003
2.318017e+003, 6.940028e-003
2.319946e+003, 7.472575e-003
2.321874e+003, 7.819870e-003
2.323802e+003, 8.245162e-003
2.325731e+003, 7.321981e-003
2.327659e+003, 6.384376e-003
2.329588e+003, 6.886070e-003
2.331516e+003, 7.182166e-003
2.333445e+003, 7.132200e-003
2.335373e+003, 6.956385e-003
2.337302e+003, 7.198583e-003
2.339230e+003, 7.091733e-003
2.341159e+003, 6.873257e-003
2.343087e+003, 6.758946e-003
2.345016e+003, 5.854228e-003
2.346944e+003, 4.601308e-003
2.348873e+003, 4.484621e-003
2.350801e+003, 5.074997e-003
2.352729e+003, 5.381299e-003
2.354658e+003, 6.098115e-003
2.356586e+003, 7.470639e-003
2.358515e+003, 8.393933e-003
2.360443e+003, 8.228986e-003
2.362372e+003, 8.077436e-003
2.364300e+003, 8.358921e-003
2.366229e+003, 7.750252e-003
2.368157e+003, 6.892245e-003
2.370086e+003, 5.538159e-003
2.372014e+003, 4.300770e-003
2.373942e+003, 3.883112e-003
2.375871e+003, 4.370611e-003
2.377799e+003, 4.426933e-003
2.379728e+003, 3.226685e-003
2.381656e+003, 2.875671e-003
2.383585e+003, 3.400122e-003
2.385513e+003, 3.291698e-003
2.387442e+003, 3.769898e-003
2.389370e+003, 4.489662e-003
2.391299e+003, 3.911423e-003
2.393227e+003, 4.243284e-003
2.395156e+003, 4.059298e-003
2.397084e+003, 2.873670e-003
2.399012e+003, 2.815883e-003
2.400941e+003, 3.089713e-003
2.402869e+003, 2.786004e-003
2.404798e+003, 3.212081e-003
2.406726e+003, 3.793947e-003
2.408655e+003, 3.987639e-003
2.410583e+003, 3.777742e-003
2.412512e+003, 3.805875e-003
2.414440e+003, 4.027252e-003
2.416369e+003, 3.312750e-003
2.418297e+003, 2.751830e-003
2.420226e+003, 4.633096e-003
2.422154e+003, 4.906867e-003
2.424083e+003, 3.917239e-003
2.426011e+003, 3.534035e-003
2.427939e+003, 3.548790e-003
2.429868e+003, 4.291434e-003
2.431796e+003, 4.100204e-003
2.433725e+003, 3.198305e-003
2.435653e+003, 3.173803e-003
2.437582e+003, 3.244691e-003
2.439510e+003, 4.441900e-003
2.441439e+003, 5.224900e-003
2.443367e+003, 5.077385e-003
2.445296e+003, 4.769064e-003
2.447224e+003, 3.699675e-003
2.449153e+003, 3.118874e-003
2.451081e+003, 4.343333e-003
2.453010e+003, 4.743696e-003
2.454938e+003, 3.335190e-003
2.456866e+003, 2.821185e-003
2.458795e+003, 3.120613e-003
2.460723e+003, 3.277457e-003
2.462652e+003, 2.767697e-003
2.464580e+003, 2.451016e-003
2.466509e+003, 2.654294e-003
2.468437e+003, 2.648745e-003
2.470366e+003, 2.770294e-003
2.472294e+003, 3.133391e-003
2.474223e+003, 4.267293e-003
2.476151e+003, 4.173672e-003
2.478080e+003, 4.248637e-003
2.480008e+003, 4.344345e-003
2.481937e+003, 3.541986e-003
2.483865e+003, 3.317443e-003
2.485793e+003, 3.150748e-003
2.487722e+003, 3.186922e-003
2.489650e+003, 3.376143e-003
2.491579e+003, 4.043547e-003
2.493507e+003, 4.303456e-003
2.495436e+003, 4.200201e-003
2.497364e+003, 4.108088e-003
2.499293e+003, 4.333645e-003
2.501221e+003, 4.460142e-003
2.503150e+003, 4.495311e-003
2.505078e+003, 4.007970e-003
2.507007e+003, 3.531677e-003
2.508935e+003, 2.780791e-003
2.510864e+003, 2.890196e-003
2.512792e+003, 2.791827e-003
2.514720e+003, 3.611762e-003
2.516649e+003, 5.109355e-003
2.518577e+003, 4.503409e-003
2.520506e+003, 2.938475e-003
2.522434e+003, 3.542259e-003
2.524363e+003, 4.714838e-003
2.526291e+003, 5.327170e-003
2.528220e+003, 4.810720e-003
2.530148e+003, 4.281350e-003
2.532077e+003, 4.050576e-003
2.534005e+003, 4.016666e-003
2.535934e+003, 4.114012e-003
2.537862e+003, 4.271779e-003
2.539791e+003, 4.195702e-003
2.541719e+003, 5.306134e-003
2.543647e+003, 4.950890e-003
2.545576e+003, 3.417462e-003
2.547504e+003, 3.665115e-003
2.549433e+003, 4.451202e-003
2.551361e+003, 5.396430e-003
2.553290e+003, 4.443666e-003
2.555218e+003, 2.818423e-003
2.557147e+003, 2.030597e-003
2.559075e+003, 3.277054e-003
2.561004e+003, 3.842819e-003
2.562932e+003, 4.705260e-003
2.564861e+003, 4.802682e-003
2.566789e+003, 3.872665e-003
2.568718e+003, 4.378913e-003
2.570646e+003, 5.222234e-003
2.572574e+003, 4.772525e-003
2.574503e+003, 3.871806e-003
2.576431e+003, 3.850549e-003
2.578360e+003, 3.915842e-003
2.580288e+003, 4.231194e-003
2.582217e+003, 5.472440e-003
2.584145e+003, 6.077175e-003
2.586074e+003, 6.215169e-003
2.588002e+003, 4.893986e-003
2.589931e+003, 2.512632e-003
2.591859e+003, 3.302757e-003
2.593788e+003, 4.791251e-003
2.595716e+003, 5.643145e-003
2.597645e+003, 4.615576e-003
2.599573e+003, 3.446927e-003
2.601501e+003, 4.337191e-003
2.603430e+003, 5.091165e-003
2.605358e+003, 4.739804e-003
2.607287e+003, 3.704926e-003
2.609215e+003, 3.129018e-003
2.611144e+003, 2.187807e-003
2.613072e+003, 3.086586e-003
2.615001e+003, 4.708361e-003
2.616929e+003, 3.934567e-003
2.618858e+003, 3.755061e-003
2.620786e+003, 5.481580e-003
2.622715e+003, 5.232847e-003
2.624643e+003, 4.088942e-003
2.626572e+003, 4.270399e-003
2.628500e+003, 4.663055e-003
2.630428e+003, 4.923007e-003
2.632357e+003, 4.817738e-003
2.634285e+003, 4.362233e-003
2.636214e+003, 4.716734e-003
2.638142e+003, 4.741514e-003
2.640071e+003, 4.903013e-003
2.641999e+003, 5.167292e-003
2.643928e+003, 4.931555e-003
2.645856e+003, 5.872247e-003
2.647785e+003, 6.145953e-003
2.649713e+003, 4.908400e-003
2.651642e+003, 4.680290e-003
2.653570e+003, 5.960688e-003
2.655499e+003, 5.995621e-003
2.657427e+003, 5.373582e-003
2.659355e+003, 5.071309e-003
2.661284e+003, 4.677654e-003
2.663212e+003, 4.279485e-003
2.665141e+003, 3.798831e-003
2.667069e+003, 3.674624e-003
2.668998e+003, 4.067962e-003
2.670926e+003, 4.205190e-003
2.672855e+003, 3.707027e-003
2.674783e+003, 4.428316e-003
2.676712e+003, 3.996505e-003
2.678640e+003, 3.097469e-003
2.680569e+003, 3.654109e-003
2.682497e+003, 3.631416e-003
2.684426e+003, 3.902799e-003
2.686354e+003, 4.536022e-003
2.688282e+003, 4.428133e-003
2.690211e+003, 4.285919e-003
2.692139e+003, 3.870875e-003
2.694068e+003, 3.891919e-003
2.695996e+003, 4.740999e-003
2.697925e+003, 5.132558e-003
2.699853e+003, 4.630033e-003
2.701782e+003, 4.953699e-003
2.703710e+003, 3.805903e-003
2.705639e+003, 3.695028e-003
2.707567e+003, 4.606515e-003
2.709496e+003, 4.574105e-003
2.711424e+003, 4.466793e-003
2.713353e+003, 4.653635e-003
2.715281e+003, 5.213471e-003
2.717209e+003, 5.509845e-003
2.719138e+003, 5.264677e-003
2.721066e+003, 5.515945e-003
2.722995e+003, 4.641911e-003
2.724923e+003, 3.580172e-003
2.726852e+003, 3.616872e-003
2.728780e+003, 4.347820e-003
2.730709e+003, 4.404382e-003
2.732637e+003, 3.916932e-003
2.734566e+003, 4.063519e-003
2.736494e+003, 4.252458e-003
2.738423e+003, 4.194628e-003
2.740351e+003, 4.228654e-003
2.742280e+003, 4.267375e-003
2.744208e+003, 4.371398e-003
2.746136e+003, 4.138783e-003
2.748065e+003, 3.546373e-003
2.749993e+003, 3.995566e-003
2.751922e+003, 4.863241e-003
2.753850e+003, 5.106530e-003
2.755779e+003, 4.983291e-003
2.757707e+003, 5.067158e-003
2.759636e+003, 4.971809e-003
2.761564e+003, 5.064045e-003
2.763493e+003, 5.002664e-003
2.765421e+003, 5.643049e-003
2.767350e+003, 5.558824e-003
2.769278e+003, 5.096896e-003
2.771207e+003, 5.019118e-003
2.773135e+003, 4.710966e-003
2.775063e+003, 5.343403e-003
2.776992e+003, 4.963257e-003
2.778920e+003, 4.678273e-003
2.780849e+003, 4.225125e-003
2.782777e+003, 4.258127e-003
2.784706e+003, 4.918861e-003
2.786634e+003, 5.360025e-003
2.788563e+003, 5.454874e-003
2.790491e+003, 5.243097e-003
2.792420e+003, 5.500990e-003
2.794348e+003, 5.618730e-003
2.796277e+003, 4.489027e-003
2.798205e+003, 4.225445e-003
2.800134e+003, 5.554958e-003
2.802062e+003, 6.420892e-003
2.803990e+003, 6.176802e-003
2.805919e+003, 5.225864e-003
2.807847e+003, 5.112200e-003
2.809776e+003, 5.147872e-003
2.811704e+003, 5.226160e-003
2.813633e+003, 5.908166e-003
2.815561e+003, 6.241204e-003
2.817490e+003, 5.171099e-003
2.819418e+003, 4.729289e-003
2.821347e+003, 5.405103e-003
2.823275e+003, 6.032288e-003
2.825204e+003, 5.618987e-003
2.827132e+003, 5.589510e-003
2.829061e+003, 6.436868e-003
2.830989e+003, 6.560450e-003
2.832917e+003, 5.895747e-003
2.834846e+003, 4.894069e-003
2.836774e+003, 5.181480e-003
2.838703e+003, 5.858360e-003
2.840631e+003, 5.960319e-003
2.842560e+003, 6.229674e-003
2.844488e+003, 7.463964e-003
2.846417e+003, 9.327412e-003
2.848345e+003, 8.664180e-003
2.850274e+003, 6.467950e-003
2.852202e+003, 5.716356e-003
2.854131e+003, 5.712811e-003
2.856059e+003, 5.247874e-003
2.857988e+003, 4.352020e-003
2.859916e+003, 3.500266e-003
2.861844e+003, 4.688609e-003
2.863773e+003, 6.449270e-003
2.865701e+003, 7.255330e-003
2.867630e+003, 7.202011e-003
2.869558e+003, 6.267629e-003
2.871487e+003, 6.733406e-003
2.873415e+003, 8.046386e-003
2.875344e+003, 8.481150e-003
2.877272e+003, 8.878425e-003
2.879201e+003, 8.264814e-003
2.881129e+003, 8.050020e-003
2.883058e+003, 7.801037e-003
2.884986e+003, 7.223487e-003
2.886915e+003, 7.365131e-003
2.888843e+003, 7.194251e-003
2.890771e+003, 7.561225e-003
2.892700e+003, 7.560194e-003
2.894628e+003, 6.704648e-003
2.896557e+003, 6.899692e-003
2.898485e+003, 7.921158e-003
2.900414e+003, 9.590149e-003
2.902342e+003, 9.634124e-003
2.904271e+003, 7.843912e-003
2.906199e+003, 6.919562e-003
2.908128e+003, 7.153993e-003
2.910056e+003, 7.075442e-003
2.911985e+003, 7.535952e-003
2.913913e+003, 8.333259e-003
2.915842e+003, 9.138924e-003
2.917770e+003, 9.345680e-003
2.919698e+003, 9.162315e-003
2.921627e+003, 8.923355e-003
2.923555e+003, 7.348216e-003
2.925484e+003, 5.689803e-003
2.927412e+003, 3.618087e-003
2.929341e+003, 4.111926e-003
2.931269e+003, 6.710233e-003
2.933198e+003, 7.234139e-003
2.935126e+003, 6.352001e-003
2.937055e+003, 6.573803e-003
2.938983e+003, 6.692844e-003
2.940912e+003, 7.153796e-003
2.942840e+003, 7.918449e-003
2.944769e+003, 8.809908e-003
2.946697e+003, 8.174458e-003
2.948625e+003, 7.481392e-003
2.950554e+003, 6.987128e-003
2.952482e+003, 7.082191e-003
2.954411e+003, 7.608425e-003
2.956339e+003, 8.364963e-003
2.958268e+003, 8.629232e-003
2.960196e+003, 7.625593e-003
2.962125e+003, 6.800205e-003
2.964053e+003, 7.466205e-003
2.965982e+003, 8.460501e-003
2.967910e+003, 8.637459e-003
2.969839e+003, 9.368724e-003
2.971767e+003, 9.722496e-003
2.973696e+003, 9.637873e-003
2.975624e+003, 9.776739e-003
2.977552e+003, 1.060991e-002
2.979481e+003, 9.936141e-003
2.981409e+003, 9.477271e-003
2.983338e+003, 9.571429e-003
2.985266e+003, 9.060849e-003
2.987195e+003, 8.953080e-003
2.989123e+003, 9.194039e-003
2.991052e+003, 9.087989e-003
2.992980e+003, 9.275816e-003
2.994909e+003, 9.028160e-003
2.996837e+003, 9.352176e-003
2.998766e+003, 8.577822e-003
3.000694e+003, 6.977810e-003
3.002623e+003, 6.812766e-003
3.004551e+003, 7.779311e-003
3.006479e+003, 8.642104e-003
3.008408e+003, 9.227958e-003
3.010336e+003, 8.182266e-003
3.012265e+003, 7.913249e-003
3.014193e+003, 7.096358e-003
3.016122e+003, 7.486797e-003
3.018050e+003, 8.139336e-003
3.019979e+003, 8.674864e-003
3.021907e+003, 7.992473e-003
3.023836e+003, 7.121577e-003
3.025764e+003, 6.586643e-003
3.027693e+003, 7.151641e-003
3.029621e+003, 7.775453e-003
3.031550e+003, 6.832356e-003
3.033478e+003, 6.674350e-003
3.035406e+003, 7.950163e-003
3.037335e+003, 7.693411e-003
3.039263e+003, 8.835283e-003
3.041192e+003, 8.406579e-003
3.043120e+003, 7.380213e-003
3.045049e+003, 7.820326e-003
3.046977e+003, 7.177602e-003
3.048906e+003, 6.183967e-003
3.050834e+003, 6.496047e-003
3.052763e+003, 7.229979e-003
3.054691e+003, 7.932347e-003
3.056620e+003, 8.549217e-003
3.058548e+003, 8.745053e-003
3.060477e+003, 8.306611e-003
3.062405e+003, 6.777159e-003
3.064333e+003, 6.679276e-003
3.066262e+003, 7.761062e-003
3.068190e+003, 8.073973e-003
3.070119e+003, 8.291121e-003
3.072047e+003, 7.652236e-003
3.073976e+003, 8.444721e-003
3.075904e+003, 9.036197e-003
3.077833e+003, 8.859322e-003
3.079761e+003, 9.201951e-003
3.081690e+003, 8.992027e-003
3.083618e+003, 7.875289e-003
3.085547e+003, 8.913842e-003
3.087475e+003, 8.715212e-003
3.089404e+003, 8.228357e-003
3.091332e+003, 8.761772e-003
3.093260e+003, 9.815785e-003
3.095189e+003, 1.065328e-002
3.097117e+003, 1.073915e-002
3.099046e+003, 1.039831e-002
3.100974e+003, 1.048678e-002
3.102903e+003, 9.384974e-003
3.104831e+003, 7.960821e-003
3.106760e+003, 8.065487e-003
3.108688e+003, 9.175338e-003
3.110617e+003, 1.016596e-002
3.112545e+003, 1.017870e-002
3.114474e+003, 1.079808e-002
3.116402e+003, 1.017020e-002
3.118331e+003, 1.053382e-002
3.120259e+003, 1.003967e-002
3.122188e+003, 9.704907e-003
3.124116e+003, 1.032137e-002
3.126044e+003, 1.012924e-002
3.127973e+003, 8.417535e-003
3.129901e+003, 8.879336e-003
3.131830e+003, 1.051782e-002
3.133758e+003, 1.082109e-002
3.135687e+003, 1.040210e-002
3.137615e+003, 1.046088e-002
3.139544e+003, 9.937717e-003
3.141472e+003, 9.827964e-003
3.143401e+003, 9.655039e-003
3.145329e+003, 1.067649e-002
3.147258e+003, 1.094875e-002
3.149186e+003, 9.809953e-003
3.151115e+003, 8.720834e-003
3.153043e+003, 1.022893e-002
3.154971e+003, 1.106474e-002
3.156900e+003, 1.046024e-002
3.158828e+003, 1.085660e-002
3.160757e+003, 1.153476e-002
3.162685e+003, 1.104351e-002
3.164614e+003, 9.579966e-003
3.166542e+003, 9.431979e-003
3.168471e+003, 1.142422e-002
3.170399e+003, 1.255199e-002
3.172328e+003, 1.322625e-002
3.174256e+003, 1.232125e-002
3.176185e+003, 1.070157e-002
3.178113e+003, 1.168857e-002
3.180042e+003, 1.235966e-002
3.181970e+003, 1.131227e-002
3.183898e+003, 1.078880e-002
3.185827e+003, 1.139846e-002
3.187755e+003, 1.160154e-002
3.189684e+003, 1.193824e-002
3.191612e+003, 1.319412e-002
3.193541e+003, 1.252113e-002
3.195469e+003, 1.079888e-002
3.197398e+003, 1.141882e-002
3.199326e+003, 1.112038e-002
3.201255e+003, 1.111222e-002
3.203183e+003, 1.231243e-002
3.205112e+003, 1.265405e-002
3.207040e+003, 1.269287e-002
3.208969e+003, 1.288099e-002
3.210897e+003, 1.351414e-002
3.212825e+003, 1.514103e-002
3.214754e+003, 1.378218e-002
3.216682e+003, 1.102718e-002
3.218611e+003, 1.166222e-002
3.220539e+003, 1.296772e-002
3.222468e+003, 1.284973e-002
3.224396e+003, 1.577966e-002
3.226325e+003, 1.744160e-002
3.228253e+003, 1.600203e-002
3.230182e+003, 1.453346e-002
3.232110e+003, 1.421160e-002
3.234039e+003, 1.382655e-002
3.235967e+003, 1.337424e-002
3.237896e+003, 1.377760e-002
3.239824e+003, 1.304375e-002
3.241752e+003, 1.206389e-002
3.243681e+003, 1.179316e-002
3.245609e+003, 1.079698e-002
3.247538e+003, 1.114717e-002
3.249466e+003, 1.159348e-002
3.251395e+003, 1.072678e-002
3.253323e+003, 1.058304e-002
3.255252e+003, 1.090906e-002
3.257180e+003, 1.134551e-002
3.259109e+003, 1.342279e-002
3.261037e+003, 1.594356e-002
3.262966e+003, 1.546597e-002
3.264894e+003, 1.384419e-002
3.266823e+003, 1.448834e-002
3.268751e+003, 1.552547e-002
3.270679e+003, 1.427916e-002
3.272608e+003, 1.413184e-002
3.274536e+003, 1.441623e-002
3.276465e+003, 1.296852e-002
3.278393e+003, 1.256229e-002
3.280322e+003, 1.276531e-002
3.282250e+003, 1.283767e-002
3.284179e+003, 1.372632e-002
3.286107e+003, 1.322349e-002
3.288036e+003, 1.377137e-002
3.289964e+003, 1.441654e-002
3.291893e+003, 1.285370e-002
3.293821e+003, 1.122485e-002
3.295750e+003, 1.239151e-002
3.297678e+003, 1.405063e-002
3.299606e+003, 1.308174e-002
3.301535e+003, 1.177649e-002
3.303463e+003, 1.349375e-002
3.305392e+003, 1.357913e-002
3.307320e+003, 1.092199e-002
3.309249e+003, 1.028106e-002
3.311177e+003, 1.130180e-002
3.313106e+003, 1.305860e-002
3.315034e+003, 1.443741e-002
3.316963e+003, 1.427697e-002
3.318891e+003, 1.301194e-002
3.320820e+003, 1.344647e-002
3.322748e+003, 1.449292e-002
3.324677e+003, 1.383374e-002
3.326605e+003, 1.262026e-002
3.328533e+003, 1.223790e-002
3.330462e+003, 1.273364e-002
3.332390e+003, 1.170310e-002
3.334319e+003, 1.125074e-002
3.336247e+003, 1.228243e-002
3.338176e+003, 1.272698e-002
3.340104e+003, 1.336226e-002
3.342033e+003, 1.341635e-002
3.343961e+003, 1.389899e-002
3.345890e+003, 1.488056e-002
3.347818e+003, 1.305864e-002
3.349747e+003, 1.266025e-002
3.351675e+003, 1.435550e-002
3.353604e+003, 1.206754e-002
3.355532e+003, 1.122372e-002
3.357460e+003, 1.091249e-002
3.359389e+003, 1.160515e-002
3.361317e+003, 1.198659e-002
3.363246e+003, 1.259470e-002
3.365174e+003, 1.352816e-002
3.367103e+003, 1.361440e-002
3.369031e+003, 1.310590e-002
3.370960e+003, 1.156304e-002
3.372888e+003, 1.304175e-002
3.374817e+003, 1.415437e-002
3.376745e+003, 1.509058e-002
3.378674e+003, 1.365519e-002
3.380602e+003, 1.300659e-002
3.382531e+003, 1.418853e-002
3.384459e+003, 1.425029e-002
3.386387e+003, 1.237502e-002
3.388316e+003, 1.103144e-002
3.390244e+003, 1.304811e-002
3.392173e+003, 1.401632e-002
3.394101e+003, 1.463739e-002
3.396030e+003, 1.590637e-002
3.397958e+003, 1.441491e-002
3.399887e+003, 1.075770e-002
3.401815e+003, 1.069818e-002
3.403744e+003, 1.239990e-002
3.405672e+003, 1.322214e-002
3.407601e+003, 1.220605e-002
3.409529e+003, 1.236857e-002
3.411458e+003, 1.214135e-002
3.413386e+003, 1.220762e-002
3.415314e+003, 1.233866e-002
3.417243e+003, 1.244005e-002
3.419171e+003, 1.238950e-002
3.421100e+003, 1.187923e-002
3.423028e+003, 1.327499e-002
3.424957e+003, 1.476095e-002
3.426885e+003, 1.273567e-002
3.428814e+003, 1.250795e-002
3.430742e+003, 1.249619e-002
3.432671e+003, 1.051891e-002
3.434599e+003, 9.686929e-003
3.436528e+003, 9.375626e-003
3.438456e+003, 1.073113e-002
3.440385e+003, 1.234544e-002
3.442313e+003, 1.362001e-002
3.444241e+003, 1.355440e-002
3.446170e+003, 1.102746e-002
3.448098e+003, 8.885668e-003
3.450027e+003, 1.100560e-002
3.451955e+003, 1.248488e-002
3.453884e+003, 1.127616e-002
3.455812e+003, 1.221597e-002
3.457741e+003, 1.385877e-002
3.459669e+003, 1.070913e-002
3.461598e+003, 1.100854e-002
3.463526e+003, 1.270899e-002
3.465455e+003, 1.061163e-002
3.467383e+003, 8.935248e-003
3.469312e+003, 1.076317e-002
3.471240e+003, 1.262595e-002
3.473168e+003, 1.308922e-002
3.475097e+003, 1.309405e-002
3.477025e+003, 1.400746e-002
3.478954e+003, 1.371636e-002
3.480882e+003, 1.231529e-002
3.482811e+003, 1.151095e-002
3.484739e+003, 1.033838e-002
3.486668e+003, 1.047009e-002
3.488596e+003, 1.255912e-002
3.490525e+003, 1.346744e-002
3.492453e+003, 1.148906e-002
3.494382e+003, 7.274220e-003
3.496310e+003, 7.327590e-003
3.498239e+003, 9.633221e-003
3.500167e+003, 1.233230e-002
3.502095e+003, 1.041488e-002
3.504024e+003, 8.711325e-003
3.505952e+003, 9.442294e-003
3.507881e+003, 8.863652e-003
3.509809e+003, 9.357315e-003
3.511738e+003, 9.899806e-003
3.513666e+003, 1.007036e-002
3.515595e+003, 8.860179e-003
3.517523e+003, 8.545510e-003
3.519452e+003, 9.311804e-003
3.521380e+003, 8.902338e-003
3.523309e+003, 7.479312e-003
3.525237e+003, 8.397582e-003
3.527166e+003, 9.625730e-003
3.529094e+003, 8.259100e-003
3.531022e+003, 8.064480e-003
3.532951e+003, 8.667278e-003
3.534879e+003, 7.514350e-003
3.536808e+003, 4.980854e-003
3.538736e+003, 5.532310e-003
3.540665e+003, 6.525598e-003
3.542593e+003, 7.715951e-003
3.544522e+003, 9.198656e-003
3.546450e+003, 8.060970e-003
3.548379e+003, 7.587826e-003
3.550307e+003, 8.731862e-003
3.552236e+003, 8.720387e-003
3.554164e+003, 7.263660e-003
3.556093e+003, 6.424941e-003
3.558021e+003, 6.781129e-003
3.559949e+003, 8.124500e-003
3.561878e+003, 8.381864e-003
3.563806e+003, 8.593828e-003
3.565735e+003, 7.579942e-003
3.567663e+003, 4.628843e-003
3.569592e+003, 6.191269e-003
3.571520e+003, 8.432873e-003
3.573449e+003, 7.660354e-003
3.575377e+003, 7.601867e-003
3.577306e+003, 6.779787e-003
3.579234e+003, 4.803256e-003
3.581163e+003, 2.413722e-003
3.583091e+003, 7.531189e-004
3.585020e+003, 2.490086e-003
3.586948e+003, 6.495488e-003
3.588876e+003, 8.382510e-003
3.590805e+003, 7.435373e-003
3.592733e+003, 5.458913e-003
3.594662e+003, 5.322008e-003
3.596590e+003, 6.733990e-003
3.598519e+003, 7.190076e-003
3.600447e+003, 4.764233e-003
3.602376e+003, 6.109843e-003
3.604304e+003, 8.056938e-003
3.606233e+003, 4.612491e-003
3.608161e+003, 2.370854e-003
3.610090e+003, 3.586264e-003
3.612018e+003, 6.151068e-003
3.613947e+003, 8.530759e-003
3.615875e+003, 8.599399e-003
3.617803e+003, 5.243449e-003
3.619732e+003, 2.453172e-003
3.621660e+003, 3.359873e-003
3.623589e+003, 4.714650e-003
3.625517e+003, 6.825431e-003
3.627446e+003, 7.429004e-003
3.629374e+003, 6.321159e-003
3.631303e+003, 5.570403e-003
3.633231e+003, 4.311285e-003
3.635160e+003, 2.442878e-003
3.637088e+003, 1.981124e-003
3.639017e+003, 1.730479e-003
3.640945e+003, -1.420251e-003
3.642874e+003, 1.367916e-003
3.644802e+003, 7.839286e-003
3.646730e+003, 1.047241e-002
3.648659e+003, 8.742522e-003
3.650587e+003, 8.434956e-003
3.652516e+003, 7.570573e-003
3.654444e+003, 5.843360e-003
3.656373e+003, 5.745277e-003
3.658301e+003, 6.245706e-003
3.660230e+003, 6.210889e-003
3.662158e+003, 5.025670e-003
3.664087e+003, 1.084768e-003
3.666015e+003, -8.478373e-005
3.667944e+003, 4.979967e-003
3.669872e+003, 1.079275e-002
3.671801e+003, 1.028356e-002
3.673729e+003, 6.503763e-003
3.675657e+003, 6.230221e-003
3.677586e+003, 5.018116e-003
3.679514e+003, 6.627365e-003
3.681443e+003, 7.742068e-003
3.683371e+003, 7.715097e-003
3.685300e+003, 8.481034e-003
3.687228e+003, 1.116449e-002
3.689157e+003, 1.059400e-002
3.691085e+003, 7.511662e-003
3.693014e+003, 6.331381e-003
3.694942e+003, 6.928465e-003
3.696871e+003, 1.530167e-003
3.698799e+003, 1.646650e-003
3.700728e+003, 6.740930e-003
3.702656e+003, 5.123461e-003
3.704584e+003, 1.801105e-003
3.706513e+003, 4.555017e-003
3.708441e+003, 8.000735e-003
3.710370e+003, 5.943271e-003
3.712298e+003, 4.460365e-003
3.714227e+003, 6.061612e-003
3.716155e+003, 3.365729e-003
3.718084e+003, 2.038194e-003
3.720012e+003, 2.993282e-003
3.721941e+003, 4.160469e-003
3.723869e+003, 3.405729e-003
3.725798e+003, 1.347902e-003
3.727726e+003, 3.667595e-003
3.729655e+003, 3.246074e-003
3.731583e+003, 2.114552e-003
3.733511e+003, 4.362801e-003
3.735440e+003, 5.232150e-003
3.737368e+003, 2.795361e-003
3.739297e+003, 2.597119e-003
3.741225e+003, 2.874242e-003
3.743154e+003, 3.643990e-003
3.745082e+003, 3.728078e-003
3.747011e+003, 1.769157e-003
3.748939e+003, 3.945577e-003
3.750868e+003, 4.683934e-003
3.752796e+003, 4.142601e-003
3.754725e+003, 2.352906e-003
3.756653e+003, 9.095295e-004
3.758582e+003, -7.272586e-004
3.760510e+003, 1.220548e-003
3.762438e+003, 4.472106e-003
3.764367e+003, 5.978187e-003
3.766295e+003, 2.156964e-003
3.768224e+003, -1.079028e-003
3.770152e+003, 5.629880e-004
3.772081e+003, 2.020617e-003
3.774009e+003, 3.249595e-003
3.775938e+003, 5.980238e-003
3.777866e+003, 6.628546e-003
3.779795e+003, 4.356860e-003
3.781723e+003, 4.521414e-003
3.783652e+003, 5.396024e-003
3.785580e+003, 4.226577e-003
3.787509e+003, 3.099142e-003
3.789437e+003, 2.984237e-003
3.791365e+003, 1.980133e-003
3.793294e+003, 2.262287e-003
3.795222e+003, 1.537395e-003
3.797151e+003, 8.347418e-004
3.799079e+003, -4.259190e-004
3.801008e+003, -2.345151e-003
3.802936e+003, -5.911174e-004
3.804865e+003, 4.034262e-006
3.806793e+003, 1.971142e-003
3.808722e+003, 2.730661e-003
3.810650e+003, 9.085799e-004
3.812579e+003, -9.712894e-004
3.814507e+003, 9.068439e-004
3.816436e+003, 2.108822e-003
3.818364e+003, 2.205352e-004
3.820292e+003, 3.827007e-004
3.822221e+003, 1.884289e-003
3.824149e+003, 1.274680e-003
3.826078e+003, 1.187909e-004
3.828006e+003, 4.312475e-006
3.829935e+003, 3.893785e-004
3.831863e+003, 2.430235e-003
3.833792e+003, 3.829498e-003
3.835720e+003, 5.417747e-003
3.837649e+003, 4.633672e-003
3.839577e+003, 9.728860e-004
3.841506e+003, 1.130288e-003
3.843434e+003, 7.094819e-004
3.845363e+003, -1.160687e-004
3.847291e+003, -2.146214e-003
3.849219e+003, -1.448357e-003
3.851148e+003, 3.115419e-003
3.853076e+003, 6.026555e-003
3.855005e+003, 5.601078e-003
3.856933e+003, 2.964673e-003
3.858862e+003, 7.963714e-004
3.860790e+003, 1.614661e-003
3.862719e+003, 2.902065e-003
3.864647e+003, 2.099947e-003
3.866576e+003, -1.901123e-004
3.868504e+003, 2.035821e-003
3.870433e+003, 2.194003e-003
3.872361e+003, -3.375318e-003
3.874290e+003, -2.223711e-003
3.876218e+003, 2.005547e-003
3.878146e+003, 2.320742e-003
3.880075e+003, 2.766880e-003
3.882003e+003, -1.111995e-003
3.883932e+003, -3.587287e-003
3.885860e+003, 1.075956e-003
3.887789e+003, 4.866026e-003
3.889717e+003, 4.652341e-003
3.891646e+003, 2.548345e-003
3.893574e+003, 4.244477e-005
3.895503e+003, -2.117291e-003
3.897431e+003, -2.415732e-003
3.899360e+003, 1.906020e-003
3.901288e+003, 4.161767e-003
3.903217e+003, 5.234141e-003
3.905145e+003, 3.427076e-003
3.907073e+003, 1.838510e-003
3.909002e+003, 7.784703e-004
3.910930e+003, -3.898491e-003
3.912859e+003, -4.002986e-003
3.914787e+003, 1.561813e-004
3.916716e+003, -7.950852e-004
3.918644e+003, -9.319997e-004
3.920573e+003, 1.498457e-003
3.922501e+003, 1.161533e-003
3.924430e+003, -1.645543e-003
3.926358e+003, -2.809971e-003
3.928287e+003, -1.095205e-003
3.930215e+003, 2.044437e-003
3.932144e+003, 2.782738e-003
3.934072e+003, 3.290245e-003
3.936000e+003, 2.537814e-003
3.937929e+003, -2.085617e-003
3.939857e+003, -2.809857e-003
3.941786e+003, 4.824007e-004
3.943714e+003, 1.814677e-003
3.945643e+003, 1.526489e-003
3.947571e+003, -1.895798e-003
3.949500e+003, 3.072936e-004
3.951428e+003, 5.355923e-003
3.953357e+003, 3.186553e-003
3.955285e+003, -2.780561e-003
3.957214e+003, -7.267587e-003
3.959142e+003, -5.404607e-003
3.961071e+003, -1.380157e-003
3.962999e+003, -1.355506e-003
3.964927e+003, -3.018169e-003
3.966856e+003, -4.040918e-003
3.968784e+003, -4.908937e-003
3.970713e+003, -2.907782e-003
3.972641e+003, -1.708760e-003
3.974570e+003, -7.940939e-005
3.976498e+003, -9.011974e-005
3.978427e+003, -1.394239e-003
3.980355e+003, -2.476876e-003
3.982284e+003, -1.833780e-003
3.984212e+003, 6.020842e-004
3.986141e+003, 2.382722e-003
3.988069e+003, 3.068781e-003
3.989998e+003, 3.347747e-004
3.991926e+003, -2.965209e-004
3.993854e+003, -1.364295e-004
3.995783e+003, -5.268579e-004
3.997711e+003, -1.465188e-003
3.999640e+003, -1.465894e-003
4.001568e+003, 0.000000e+000
##END=



