##NAMES=Pearceite
##RRUFFID=R050611
##IDEAL CHEMISTRY=Cu(Ag,Cu)_6_Ag_9_As_2_S_11_
##LOCALITY=Imiter mine, Morocco
##OWNER=RRUFF
##SOURCE=Marcus Origlieri
##DESCRIPTION=Dark red flakes. The cell parameters indicate that this is pearceite-M2a2b2c
##STATUS=The identification of this mineral is confirmed by single-crystal X-ray diffraction and chemical analysis.
##URL=rruff.info/R050611
##MEASURED CHEMISTRY=Cu_1.00_(Ag_5.83_Cu_0.17_)_Î£=6.00_Ag_10.78_As_1.99_S_11_ 
399.1926, 0.1463632
401.1211, 0.1431274
403.0496, 0.1438155
404.9780, 0.1399152
406.9065, 0.1383557
408.8350, 0.1454720
410.7634, 0.1506983
412.6919, 0.1536335
414.6204, 0.1538053
416.5488, 0.1530132
418.4773, 0.1567384
420.4058, 0.1597032
422.3342, 0.1621123
424.2627, 0.1633704
426.1912, 0.1649047
428.1196, 0.1653994
430.0481, 0.1691567
431.9766, 0.1754984
433.9050, 0.1777443
435.8335, 0.1780764
437.7620, 0.1811415
439.6904, 0.1828084
441.6189, 0.1845676
443.5474, 0.1878565
445.4758, 0.1910338
447.4043, 0.1912463
449.3328, 0.1896856
451.2612, 0.1913809
453.1897, 0.1953160
455.1182, 0.1957428
457.0466, 0.1964966
458.9751, 0.2003269
460.9036, 0.2016486
462.8320, 0.2020147
464.7605, 0.2033031
466.6890, 0.2053319
468.6174, 0.2065807
470.5459, 0.2069318
472.4744, 0.2058014
474.4028, 0.2052074
476.3313, 0.2068829
478.2598, 0.2097368
480.1882, 0.2119867
482.1167, 0.2123985
484.0452, 0.2121124
485.9736, 0.2125020
487.9021, 0.2132944
489.8306, 0.2146936
491.7590, 0.2161083
493.6875, 0.2165122
495.6160, 0.2165654
497.5444, 0.2178140
499.4729, 0.2192967
501.4014, 0.2215998
503.3298, 0.2221057
505.2583, 0.2229482
507.1868, 0.2246559
509.1152, 0.2263827
511.0437, 0.2273976
512.9722, 0.2279962
514.9006, 0.2293895
516.8291, 0.2292189
518.7576, 0.2301317
520.6860, 0.2324917
522.6145, 0.2335468
524.5430, 0.2334584
526.4714, 0.2344026
528.3999, 0.2360439
530.3284, 0.2370280
532.2568, 0.2388326
534.1853, 0.2403750
536.1138, 0.2420772
538.0422, 0.2429949
539.9707, 0.2439524
541.8992, 0.2455354
543.8276, 0.2462311
545.7561, 0.2470145
547.6846, 0.2478655
549.6130, 0.2496131
551.5415, 0.2510950
553.4700, 0.2528460
555.3984, 0.2537707
557.3269, 0.2540157
559.2554, 0.2553951
561.1838, 0.2559274
563.1123, 0.2558277
565.0408, 0.2565342
566.9692, 0.2576186
568.8977, 0.2574606
570.8262, 0.2578562
572.7546, 0.2593016
574.6831, 0.2606215
576.6116, 0.2615786
578.5400, 0.2626178
580.4685, 0.2633151
582.3970, 0.2647179
584.3254, 0.2667946
586.2539, 0.2675077
588.1824, 0.2680435
590.1108, 0.2679949
592.0393, 0.2680767
593.9678, 0.2690672
595.8962, 0.2700478
597.8247, 0.2705842
599.7532, 0.2710820
601.6816, 0.2722901
603.6101, 0.2738109
605.5386, 0.2751041
607.4670, 0.2763286
609.3955, 0.2773554
611.3240, 0.2772498
613.2524, 0.2775526
615.1809, 0.2788219
617.1094, 0.2791906
619.0378, 0.2798091
620.9663, 0.2808659
622.8948, 0.2817434
624.8232, 0.2819156
626.7517, 0.2817279
628.6802, 0.2833168
630.6086, 0.2854951
632.5371, 0.2863785
634.4656, 0.2864841
636.3940, 0.2872728
638.3225, 0.2873075
640.2510, 0.2880318
642.1794, 0.2894272
644.1079, 0.2903473
646.0364, 0.2902107
647.9648, 0.2905141
649.8933, 0.2920349
651.8218, 0.2926848
653.7502, 0.2923903
655.6787, 0.2925174
657.6072, 0.2933494
659.5356, 0.2945974
661.4641, 0.2955181
663.3926, 0.2957829
665.3210, 0.2966614
667.2495, 0.2978328
669.1780, 0.2977408
671.1064, 0.2975900
673.0349, 0.2980472
674.9634, 0.2985995
676.8918, 0.2988709
678.8203, 0.2992350
680.7488, 0.2999848
682.6772, 0.3005590
684.6057, 0.3012275
686.5342, 0.3014475
688.4626, 0.3011889
690.3911, 0.3014629
692.3196, 0.3025871
694.2480, 0.3040746
696.1765, 0.3046415
698.1050, 0.3044967
700.0334, 0.3049541
701.9619, 0.3058471
703.8904, 0.3067616
705.8188, 0.3075635
707.7473, 0.3082276
709.6758, 0.3087875
711.6042, 0.3099044
713.5327, 0.3108076
715.4612, 0.3106185
717.3896, 0.3104410
719.3181, 0.3115123
721.2466, 0.3130204
723.1750, 0.3137510
725.1035, 0.3143100
727.0320, 0.3150255
728.9604, 0.3157519
730.8889, 0.3166253
732.8174, 0.3178254
734.7458, 0.3188410
736.6743, 0.3189988
738.6028, 0.3186007
740.5313, 0.3184216
742.4597, 0.3180014
744.3882, 0.3176965
746.3167, 0.3179607
748.2451, 0.3186982
750.1736, 0.3191333
752.1021, 0.3195128
754.0305, 0.3202175
755.9590, 0.3211407
757.8875, 0.3217920
759.8159, 0.3225027
761.7444, 0.3232702
763.6729, 0.3235860
765.6013, 0.3239954
767.5298, 0.3242072
769.4583, 0.3244396
771.3867, 0.3250116
773.3152, 0.3255517
775.2437, 0.3265372
777.1721, 0.3278101
779.1006, 0.3286226
781.0291, 0.3292052
782.9575, 0.3301491
784.8860, 0.3302567
786.8145, 0.3304143
788.7429, 0.3305101
790.6714, 0.3311578
792.5999, 0.3325662
794.5283, 0.3333179
796.4568, 0.3340978
798.3853, 0.3348863
800.3137, 0.3360808
802.2422, 0.3374102
804.1707, 0.3379968
806.0991, 0.3381664
808.0276, 0.3390957
809.9561, 0.3393306
811.8845, 0.3390273
813.8130, 0.3397689
815.7415, 0.3405695
817.6699, 0.3408161
819.5984, 0.3411557
821.5269, 0.3421678
823.4553, 0.3428158
825.3838, 0.3431326
827.3123, 0.3430040
829.2407, 0.3429238
831.1692, 0.3432063
833.0977, 0.3442396
835.0261, 0.3448231
836.9546, 0.3447580
838.8831, 0.3450763
840.8115, 0.3459677
842.7400, 0.3474186
844.6685, 0.3479745
846.5969, 0.3481510
848.5254, 0.3481158
850.4539, 0.3482326
852.3823, 0.3489895
854.3108, 0.3497060
856.2393, 0.3506512
858.1677, 0.3521541
860.0962, 0.3534862
862.0247, 0.3545880
863.9531, 0.3555167
865.8816, 0.3557954
867.8101, 0.3554908
869.7385, 0.3552390
871.6670, 0.3545481
873.5955, 0.3541285
875.5239, 0.3542795
877.4524, 0.3541532
879.3809, 0.3540891
881.3093, 0.3545584
883.2378, 0.3554531
885.1663, 0.3550132
887.0947, 0.3547787
889.0232, 0.3555628
890.9517, 0.3565384
892.8801, 0.3572655
894.8085, 0.3579669
896.7370, 0.3582807
898.6655, 0.3588910
900.5939, 0.3592404
902.5224, 0.3594140
904.4509, 0.3603604
906.3793, 0.3613476
908.3078, 0.3619241
910.2363, 0.3629009
912.1647, 0.3642181
914.0932, 0.3652445
916.0217, 0.3658445
917.9501, 0.3661585
919.8786, 0.3667901
921.8071, 0.3672701
923.7355, 0.3673171
925.6640, 0.3683384
927.5925, 0.3692723
929.5209, 0.3698259
931.4494, 0.3702632
933.3779, 0.3708119
935.3063, 0.3712359
937.2348, 0.3722759
939.1633, 0.3736993
941.0917, 0.3747067
943.0202, 0.3754581
944.9487, 0.3762479
946.8771, 0.3773088
948.8056, 0.3783093
950.7341, 0.3788744
952.6625, 0.3795894
954.5910, 0.3806010
956.5195, 0.3814617
958.4479, 0.3822835
960.3764, 0.3834603
962.3049, 0.3841719
964.2333, 0.3847020
966.1618, 0.3854951
968.0903, 0.3865757
970.0187, 0.3869528
971.9472, 0.3879497
973.8757, 0.3896142
975.8041, 0.3908858
977.7326, 0.3916784
979.6611, 0.3923337
981.5895, 0.3926467
983.5180, 0.3927970
985.4465, 0.3929834
987.3749, 0.3934511
989.3034, 0.3938830
991.2319, 0.3947164
993.1603, 0.3951416
995.0888, 0.3950082
997.0173, 0.3950467
998.9457, 0.3951595
1000.874, 0.3953482
1002.803, 0.3956537
1004.731, 0.3955745
1006.660, 0.3957506
1008.588, 0.3956937
1010.517, 0.3961535
1012.445, 0.3970254
1014.373, 0.3972275
1016.302, 0.3971619
1018.230, 0.3971381
1020.159, 0.3972448
1022.087, 0.3975173
1024.016, 0.3976847
1025.944, 0.3976702
1027.873, 0.3977138
1029.801, 0.3988227
1031.730, 0.3997472
1033.658, 0.4002130
1035.587, 0.4006957
1037.515, 0.4007554
1039.444, 0.4004809
1041.372, 0.4004163
1043.301, 0.4009711
1045.229, 0.4014066
1047.157, 0.4016256
1049.086, 0.4020660
1051.014, 0.4025328
1052.943, 0.4029989
1054.871, 0.4030881
1056.800, 0.4031742
1058.728, 0.4038075
1060.657, 0.4042611
1062.585, 0.4049134
1064.514, 0.4057769
1066.442, 0.4058262
1068.371, 0.4057734
1070.299, 0.4060847
1072.228, 0.4065876
1074.156, 0.4073750
1076.084, 0.4079129
1078.013, 0.4082374
1079.941, 0.4083643
1081.870, 0.4084728
1083.798, 0.4090794
1085.727, 0.4098453
1087.655, 0.4098141
1089.584, 0.4101065
1091.512, 0.4105196
1093.441, 0.4107265
1095.369, 0.4113328
1097.298, 0.4118569
1099.226, 0.4120353
1101.155, 0.4126387
1103.083, 0.4133067
1105.011, 0.4133057
1106.940, 0.4137061
1108.868, 0.4140634
1110.797, 0.4143735
1112.725, 0.4145663
1114.654, 0.4148162
1116.582, 0.4158225
1118.511, 0.4164842
1120.439, 0.4164947
1122.368, 0.4165805
1124.296, 0.4173080
1126.225, 0.4180508
1128.153, 0.4188037
1130.082, 0.4190310
1132.010, 0.4199795
1133.938, 0.4213266
1135.867, 0.4221333
1137.795, 0.4230394
1139.724, 0.4239965
1141.652, 0.4248811
1143.581, 0.4253793
1145.509, 0.4258189
1147.438, 0.4265994
1149.366, 0.4270210
1151.295, 0.4272207
1153.223, 0.4269672
1155.152, 0.4267832
1157.080, 0.4274977
1159.009, 0.4278174
1160.937, 0.4279773
1162.865, 0.4281421
1164.794, 0.4279621
1166.722, 0.4278946
1168.651, 0.4283455
1170.579, 0.4289609
1172.508, 0.4292967
1174.436, 0.4293024
1176.365, 0.4296337
1178.293, 0.4299711
1180.222, 0.4306156
1182.150, 0.4313418
1184.079, 0.4318599
1186.007, 0.4325280
1187.936, 0.4331509
1189.864, 0.4340674
1191.792, 0.4349239
1193.721, 0.4355451
1195.649, 0.4358556
1197.578, 0.4360613
1199.506, 0.4362241
1201.435, 0.4366443
1203.363, 0.4368992
1205.292, 0.4370835
1207.220, 0.4375094
1209.149, 0.4379716
1211.077, 0.4381495
1213.006, 0.4380070
1214.934, 0.4383441
1216.863, 0.4385936
1218.791, 0.4390459
1220.719, 0.4393463
1222.648, 0.4392845
1224.576, 0.4396177
1226.505, 0.4404439
1228.433, 0.4408827
1230.362, 0.4410182
1232.290, 0.4411888
1234.219, 0.4416171
1236.147, 0.4421924
1238.076, 0.4429187
1240.004, 0.4432982
1241.933, 0.4432548
1243.861, 0.4430521
1245.790, 0.4430767
1247.718, 0.4435262
1249.646, 0.4442633
1251.575, 0.4442866
1253.503, 0.4442094
1255.432, 0.4446696
1257.360, 0.4449668
1259.289, 0.4450683
1261.217, 0.4447962
1263.146, 0.4445429
1265.074, 0.4446169
1267.003, 0.4449535
1268.931, 0.4455530
1270.860, 0.4456505
1272.788, 0.4456755
1274.717, 0.4463437
1276.645, 0.4469250
1278.573, 0.4471747
1280.502, 0.4475576
1282.430, 0.4481583
1284.359, 0.4486158
1286.287, 0.4488560
1288.216, 0.4492374
1290.144, 0.4500141
1292.073, 0.4505769
1294.001, 0.4507529
1295.930, 0.4510246
1297.858, 0.4514540
1299.787, 0.4518918
1301.715, 0.4520667
1303.644, 0.4521224
1305.572, 0.4523155
1307.500, 0.4529522
1309.429, 0.4537515
1311.357, 0.4540129
1313.286, 0.4546550
1315.214, 0.4556386
1317.143, 0.4561971
1319.071, 0.4558372
1321.000, 0.4552178
1322.928, 0.4559208
1324.857, 0.4568788
1326.785, 0.4575022
1328.714, 0.4577723
1330.642, 0.4581769
1332.571, 0.4586774
1334.499, 0.4595816
1336.427, 0.4602490
1338.356, 0.4604669
1340.284, 0.4607535
1342.213, 0.4616524
1344.141, 0.4624134
1346.070, 0.4628474
1347.998, 0.4629982
1349.927, 0.4635233
1351.855, 0.4640143
1353.784, 0.4644465
1355.712, 0.4654659
1357.641, 0.4666468
1359.569, 0.4672480
1361.498, 0.4679011
1363.426, 0.4687943
1365.354, 0.4693134
1367.283, 0.4697509
1369.211, 0.4698929
1371.140, 0.4702323
1373.068, 0.4708795
1374.997, 0.4715799
1376.925, 0.4724347
1378.854, 0.4736645
1380.782, 0.4744321
1382.711, 0.4747899
1384.639, 0.4756747
1386.568, 0.4765748
1388.496, 0.4773251
1390.424, 0.4780257
1392.353, 0.4786377
1394.281, 0.4792769
1396.210, 0.4806372
1398.138, 0.4816487
1400.067, 0.4823769
1401.995, 0.4833436
1403.924, 0.4839517
1405.852, 0.4845016
1407.781, 0.4848935
1409.709, 0.4850879
1411.638, 0.4850398
1413.566, 0.4852988
1415.495, 0.4853115
1417.423, 0.4850905
1419.351, 0.4854619
1421.280, 0.4859381
1423.208, 0.4861007
1425.137, 0.4863004
1427.065, 0.4861107
1428.994, 0.4863141
1430.922, 0.4870015
1432.851, 0.4871111
1434.779, 0.4869270
1436.708, 0.4870699
1438.636, 0.4870395
1440.565, 0.4870780
1442.493, 0.4872969
1444.422, 0.4876424
1446.350, 0.4877310
1448.278, 0.4875368
1450.207, 0.4875137
1452.135, 0.4873688
1454.064, 0.4877241
1455.992, 0.4877387
1457.921, 0.4873530
1459.849, 0.4875599
1461.778, 0.4877666
1463.706, 0.4877769
1465.635, 0.4874562
1467.563, 0.4872979
1469.492, 0.4874427
1471.420, 0.4875172
1473.349, 0.4876194
1475.277, 0.4875892
1477.205, 0.4875879
1479.134, 0.4877301
1481.062, 0.4876758
1482.991, 0.4878210
1484.919, 0.4883880
1486.848, 0.4886723
1488.776, 0.4884928
1490.705, 0.4879619
1492.633, 0.4879485
1494.562, 0.4885684
1496.490, 0.4883186
1498.419, 0.4884362
1500.347, 0.4893394
1502.276, 0.4898030
1504.204, 0.4899324
1506.132, 0.4896739
1508.061, 0.4897346
1509.989, 0.4894550
1511.918, 0.4893843
1513.846, 0.4895205
1515.775, 0.4895419
1517.703, 0.4892115
1519.632, 0.4901542
1521.560, 0.4906331
1523.489, 0.4903254
1525.417, 0.4904275
1527.346, 0.4907136
1529.274, 0.4911253
1531.203, 0.4915829
1533.131, 0.4917003
1535.059, 0.4919893
1536.988, 0.4923466
1538.916, 0.4923466
1540.845, 0.4926433
1542.773, 0.4934023
1544.702, 0.4939328
1546.630, 0.4936814
1548.559, 0.4934348
1550.487, 0.4934626
1552.416, 0.4935193
1554.344, 0.4937309
1556.273, 0.4951251
1558.201, 0.4955153
1560.130, 0.4958036
1562.058, 0.4961074
1563.986, 0.4955138
1565.915, 0.4962283
1567.843, 0.4971225
1569.772, 0.4968728
1571.700, 0.4966528
1573.629, 0.4973869
1575.557, 0.4979086
1577.486, 0.4982016
1579.414, 0.4987147
1581.343, 0.4994571
1583.271, 0.4994113
1585.200, 0.4995657
1587.128, 0.5005460
1589.057, 0.5014071
1590.985, 0.5017890
1592.913, 0.5014277
1594.842, 0.5011119
1596.770, 0.5017923
1598.699, 0.5027798
1600.627, 0.5031958
1602.556, 0.5028679
1604.484, 0.5029497
1606.413, 0.5030310
1608.341, 0.5034607
1610.270, 0.5043883
1612.198, 0.5050980
1614.127, 0.5053494
1616.055, 0.5052921
1617.984, 0.5056295
1619.912, 0.5062678
1621.840, 0.5057667
1623.769, 0.5057899
1625.697, 0.5063176
1627.626, 0.5069913
1629.554, 0.5075594
1631.483, 0.5079045
1633.411, 0.5079982
1635.340, 0.5083017
1637.268, 0.5088587
1639.197, 0.5097625
1641.125, 0.5100809
1643.054, 0.5098273
1644.982, 0.5100281
1646.911, 0.5105361
1648.839, 0.5108700
1650.767, 0.5112055
1652.696, 0.5108604
1654.624, 0.5111325
1656.553, 0.5117865
1658.481, 0.5125750
1660.410, 0.5128296
1662.338, 0.5130298
1664.267, 0.5131992
1666.195, 0.5133271
1668.124, 0.5135863
1670.052, 0.5138899
1671.981, 0.5142459
1673.909, 0.5140060
1675.838, 0.5141004
1677.766, 0.5147377
1679.694, 0.5155770
1681.623, 0.5156636
1683.551, 0.5158435
1685.480, 0.5165433
1687.408, 0.5171503
1689.337, 0.5176951
1691.265, 0.5176029
1693.194, 0.5175889
1695.122, 0.5181976
1697.051, 0.5188658
1698.979, 0.5186614
1700.908, 0.5187830
1702.836, 0.5197309
1704.765, 0.5193914
1706.693, 0.5191388
1708.621, 0.5194448
1710.550, 0.5202777
1712.478, 0.5215706
1714.407, 0.5222228
1716.335, 0.5225851
1718.264, 0.5226259
1720.192, 0.5225884
1722.121, 0.5232627
1724.049, 0.5243823
1725.978, 0.5250163
1727.906, 0.5255723
1729.835, 0.5257504
1731.763, 0.5249642
1733.692, 0.5242308
1735.620, 0.5241165
1737.548, 0.5237643
1739.477, 0.5236902
1741.405, 0.5238568
1743.334, 0.5234815
1745.262, 0.5229662
1747.191, 0.5225817
1749.119, 0.5230545
1751.048, 0.5232818
1752.976, 0.5232248
1754.905, 0.5237837
1756.833, 0.5244414
1758.762, 0.5253748
1760.690, 0.5262431
1762.619, 0.5263629
1764.547, 0.5263129
1766.475, 0.5272419
1768.404, 0.5273868
1770.332, 0.5265279
1772.261, 0.5258236
1774.189, 0.5268301
1776.118, 0.5280640
1778.046, 0.5284965
1779.975, 0.5287626
1781.903, 0.5284921
1783.832, 0.5279953
1785.760, 0.5283838
1787.689, 0.5286777
1789.617, 0.5283636
1791.546, 0.5282972
1793.474, 0.5277411
1795.402, 0.5278355
1797.331, 0.5297678
1799.259, 0.5300553
1801.188, 0.5292143
1803.116, 0.5294281
1805.045, 0.5296265
1806.973, 0.5300425
1808.902, 0.5305650
1810.830, 0.5303443
1812.759, 0.5308005
1814.687, 0.5306650
1816.616, 0.5305019
1818.544, 0.5313417
1820.473, 0.5318674
1822.401, 0.5312262
1824.329, 0.5303527
1826.258, 0.5303510
1828.186, 0.5310971
1830.115, 0.5316618
1832.043, 0.5318181
1833.972, 0.5315018
1835.900, 0.5306611
1837.829, 0.5308234
1839.757, 0.5314324
1841.686, 0.5307084
1843.614, 0.5304604
1845.543, 0.5302267
1847.471, 0.5312756
1849.400, 0.5324249
1851.328, 0.5330077
1853.256, 0.5333356
1855.185, 0.5330118
1857.113, 0.5330489
1859.042, 0.5332944
1860.970, 0.5340748
1862.899, 0.5344512
1864.827, 0.5332559
1866.756, 0.5323787
1868.684, 0.5325418
1870.613, 0.5339457
1872.541, 0.5348921
1874.470, 0.5347937
1876.398, 0.5330163
1878.327, 0.5313091
1880.255, 0.5333106
1882.183, 0.5352563
1884.112, 0.5346678
1886.040, 0.5349042
1887.969, 0.5348898
1889.897, 0.5353585
1891.826, 0.5361756
1893.754, 0.5351972
1895.683, 0.5344629
1897.611, 0.5343174
1899.540, 0.5337713
1901.468, 0.5334232
1903.397, 0.5347142
1905.325, 0.5361955
1907.254, 0.5371521
1909.182, 0.5362771
1911.110, 0.5353646
1913.039, 0.5352859
1914.967, 0.5343086
1916.896, 0.5343698
1918.824, 0.5352586
1920.753, 0.5357246
1922.681, 0.5362563
1924.610, 0.5375358
1926.538, 0.5354825
1928.467, 0.5334623
1930.395, 0.5336115
1932.324, 0.5330907
1934.252, 0.5327707
1936.181, 0.5337669
1938.109, 0.5324438
1940.037, 0.5333780
1941.966, 0.5345095
1943.894, 0.5327354
1945.823, 0.5320552
1947.751, 0.5317810
1949.680, 0.5283080
1951.608, 0.5263916
1953.537, 0.5287502
1955.465, 0.5278313
1957.394, 0.5262702
1959.322, 0.5252199
1961.251, 0.5238842
1963.179, 0.5226939
1965.108, 0.5220678
1967.036, 0.5239783
1968.964, 0.5250010
1970.893, 0.5241916
1972.821, 0.5232725
1974.750, 0.5208014
1976.678, 0.5198951
1978.607, 0.5222398
1980.535, 0.5244178
1982.464, 0.5274982
1984.392, 0.5261403
1986.321, 0.5243290
1988.249, 0.5256578
1990.178, 0.5245940
1992.106, 0.5239458
1994.035, 0.5263719
1995.963, 0.5272490
1997.891, 0.5271828
1999.820, 0.5268660
2001.748, 0.5266789
2003.677, 0.5272162
2005.605, 0.5255006
2007.534, 0.5251721
2009.462, 0.5285267
2011.391, 0.5284926
2013.319, 0.5257742
2015.248, 0.5240570
2017.176, 0.5267729
2019.105, 0.5277258
2021.033, 0.5248032
2022.962, 0.5255890
2024.890, 0.5273978
2026.818, 0.5316299
2028.747, 0.5280074
2030.675, 0.5254606
2032.604, 0.5283676
2034.532, 0.5332279
2036.461, 0.5363653
2038.389, 0.5386188
2040.318, 0.5397998
2042.246, 0.5385397
2044.175, 0.5393790
2046.103, 0.5374728
2048.032, 0.5384762
2049.960, 0.5441451
2051.889, 0.5423413
2053.817, 0.5428702
2055.746, 0.5434304
2057.674, 0.5439227
2059.603, 0.5462098
2061.531, 0.5494406
2063.459, 0.5507691
2065.388, 0.5507253
2067.316, 0.5495324
2069.245, 0.5501000
2071.173, 0.5530739
2073.102, 0.5545966
2075.030, 0.5550646
2076.959, 0.5547147
2078.887, 0.5539702
2080.816, 0.5562457
2082.744, 0.5576773
2084.673, 0.5587225
2086.601, 0.5599505
2088.530, 0.5596459
2090.458, 0.5585138
2092.386, 0.5593925
2094.315, 0.5602344
2096.243, 0.5606351
2098.172, 0.5602770
2100.100, 0.5596623
2102.029, 0.5588920
2103.957, 0.5589137
2105.886, 0.5619316
2107.814, 0.5636346
2109.743, 0.5620194
2111.671, 0.5627642
2113.600, 0.5662124
2115.528, 0.5657980
2117.457, 0.5621557
2119.385, 0.5606783
2121.313, 0.5620006
2123.242, 0.5652618
2125.170, 0.5666352
2127.099, 0.5631106
2129.027, 0.5592051
2130.956, 0.5589807
2132.884, 0.5590677
2134.813, 0.5569721
2136.741, 0.5554318
2138.670, 0.5577312
2140.598, 0.5576593
2142.527, 0.5536829
2144.455, 0.5510788
2146.384, 0.5495971
2148.312, 0.5488827
2150.240, 0.5474351
2152.169, 0.5448638
2154.097, 0.5416884
2156.026, 0.5337441
2157.954, 0.5327106
2159.883, 0.5407689
2161.811, 0.5435342
2163.740, 0.5446965
2165.668, 0.5467616
2167.597, 0.5501605
2169.525, 0.5518947
2171.454, 0.5541549
2173.382, 0.5544567
2175.311, 0.5515476
2177.239, 0.5553329
2179.167, 0.5589765
2181.096, 0.5550462
2183.024, 0.5505400
2184.953, 0.5515783
2186.881, 0.5539758
2188.810, 0.5583941
2190.738, 0.5629609
2192.667, 0.5621418
2194.595, 0.5602220
2196.524, 0.5602433
2198.452, 0.5625606
2200.381, 0.5623780
2202.309, 0.5616128
2204.238, 0.5615166
2206.166, 0.5629947
2208.094, 0.5681984
2210.023, 0.5708228
2211.951, 0.5702093
2213.880, 0.5665764
2215.808, 0.5675529
2217.737, 0.5712581
2219.665, 0.5722893
2221.594, 0.5734853
2223.522, 0.5740560
2225.451, 0.5722837
2227.379, 0.5725691
2229.308, 0.5748428
2231.236, 0.5755171
2233.165, 0.5752100
2235.093, 0.5758684
2237.021, 0.5786458
2238.950, 0.5784070
2240.878, 0.5759946
2242.807, 0.5780073
2244.735, 0.5805891
2246.664, 0.5802486
2248.592, 0.5792400
2250.521, 0.5797430
2252.449, 0.5805249
2254.378, 0.5822517
2256.306, 0.5833340
2258.235, 0.5852206
2260.163, 0.5865179
2262.092, 0.5864299
2264.020, 0.5845687
2265.948, 0.5858360
2267.877, 0.5864350
2269.805, 0.5881481
2271.734, 0.5900108
2273.662, 0.5901580
2275.591, 0.5894279
2277.519, 0.5911687
2279.448, 0.5931506
2281.376, 0.5930606
2283.305, 0.5950170
2285.233, 0.5966699
2287.162, 0.5960015
2289.090, 0.5958759
2291.019, 0.5980273
2292.947, 0.5990517
2294.875, 0.5991938
2296.804, 0.5981686
2298.732, 0.5990336
2300.661, 0.6001183
2302.589, 0.6017128
2304.518, 0.6035197
2306.446, 0.6029270
2308.375, 0.6025193
2310.303, 0.6028411
2312.232, 0.6039158
2314.160, 0.6044239
2316.089, 0.6046377
2318.017, 0.6052170
2319.946, 0.6067386
2321.874, 0.6089501
2323.802, 0.6106408
2325.731, 0.6108281
2327.659, 0.6103331
2329.588, 0.6101624
2331.516, 0.6110874
2333.445, 0.6117250
2335.373, 0.6106450
2337.302, 0.6100061
2339.230, 0.6109940
2341.159, 0.6111032
2343.087, 0.6119785
2345.016, 0.6124893
2346.944, 0.6115033
2348.873, 0.6104930
2350.801, 0.6116270
2352.729, 0.6127166
2354.658, 0.6136538
2356.586, 0.6138756
2358.515, 0.6146782
2360.443, 0.6146420
2362.372, 0.6139238
2364.300, 0.6135316
2366.229, 0.6132035
2368.157, 0.6138783
2370.086, 0.6138622
2372.014, 0.6129606
2373.942, 0.6123868
2375.871, 0.6123940
2377.799, 0.6130867
2379.728, 0.6125574
2381.656, 0.6119949
2383.585, 0.6123077
2385.513, 0.6126570
2387.442, 0.6128608
2389.370, 0.6126025
2391.299, 0.6124488
2393.227, 0.6127204
2395.156, 0.6131527
2397.084, 0.6135527
2399.012, 0.6132507
2400.941, 0.6115424
2402.869, 0.6122561
2404.798, 0.6138598
2406.726, 0.6137030
2408.655, 0.6130511
2410.583, 0.6134889
2412.512, 0.6136190
2414.440, 0.6139138
2416.369, 0.6135045
2418.297, 0.6131240
2420.226, 0.6139419
2422.154, 0.6150476
2424.083, 0.6148330
2426.011, 0.6142685
2427.939, 0.6146080
2429.868, 0.6148357
2431.796, 0.6154654
2433.725, 0.6152833
2435.653, 0.6167160
2437.582, 0.6188400
2439.510, 0.6170225
2441.439, 0.6162527
2443.367, 0.6179336
2445.296, 0.6184517
2447.224, 0.6182707
2449.153, 0.6188270
2451.081, 0.6187144
2453.010, 0.6173078
2454.938, 0.6182542
2456.866, 0.6186573
2458.795, 0.6178781
2460.723, 0.6185338
2462.652, 0.6198936
2464.580, 0.6192691
2466.509, 0.6175969
2468.437, 0.6184386
2470.366, 0.6189680
2472.294, 0.6177577
2474.223, 0.6191005
2476.151, 0.6224028
2478.080, 0.6221609
2480.008, 0.6197142
2481.937, 0.6197848
2483.865, 0.6208082
2485.793, 0.6206713
2487.722, 0.6225491
2489.650, 0.6237074
2491.579, 0.6244535
2493.507, 0.6240814
2495.436, 0.6227615
2497.364, 0.6224782
2499.293, 0.6227060
2501.221, 0.6228646
2503.150, 0.6229733
2505.078, 0.6224588
2507.007, 0.6228925
2508.935, 0.6238125
2510.864, 0.6249821
2512.792, 0.6259742
2514.720, 0.6261004
2516.649, 0.6238853
2518.577, 0.6240184
2520.506, 0.6255858
2522.434, 0.6259146
2524.363, 0.6265094
2526.291, 0.6275517
2528.220, 0.6269816
2530.148, 0.6264834
2532.077, 0.6279190
2534.005, 0.6287966
2535.934, 0.6290502
2537.862, 0.6297154
2539.791, 0.6300461
2541.719, 0.6289848
2543.647, 0.6283960
2545.576, 0.6286300
2547.504, 0.6280169
2549.433, 0.6283398
2551.361, 0.6292439
2553.290, 0.6297305
2555.218, 0.6298168
2557.147, 0.6297208
2559.075, 0.6298580
2561.004, 0.6307915
2562.932, 0.6321416
2564.861, 0.6323094
2566.789, 0.6332704
2568.718, 0.6341767
2570.646, 0.6324003
2572.574, 0.6322361
2574.503, 0.6331061
2576.431, 0.6345561
2578.360, 0.6340140
2580.288, 0.6330771
2582.217, 0.6350930
2584.145, 0.6365503
2586.074, 0.6367041
2588.002, 0.6367709
2589.931, 0.6370779
2591.859, 0.6364785
2593.788, 0.6359448
2595.716, 0.6376124
2597.645, 0.6380496
2599.573, 0.6383106
2601.501, 0.6395775
2603.430, 0.6401725
2605.358, 0.6392253
2607.287, 0.6400487
2609.215, 0.6421055
2611.144, 0.6415434
2613.072, 0.6417073
2615.001, 0.6423368
2616.929, 0.6423044
2618.858, 0.6433254
2620.786, 0.6442986
2622.715, 0.6444112
2624.643, 0.6434646
2626.572, 0.6430547
2628.500, 0.6434074
2630.428, 0.6452766
2632.357, 0.6460273
2634.285, 0.6456193
2636.214, 0.6468532
2638.142, 0.6486694
2640.071, 0.6496381
2641.999, 0.6501874
2643.928, 0.6502888
2645.856, 0.6497705
2647.785, 0.6499333
2649.713, 0.6506094
2651.642, 0.6509208
2653.570, 0.6525738
2655.499, 0.6540381
2657.427, 0.6542736
2659.355, 0.6541656
2661.284, 0.6534361
2663.212, 0.6539856
2665.141, 0.6539551
2667.069, 0.6534389
2668.998, 0.6541755
2670.926, 0.6551384
2672.855, 0.6552219
2674.783, 0.6548578
2676.712, 0.6551217
2678.640, 0.6550801
2680.569, 0.6555002
2682.497, 0.6561541
2684.426, 0.6554305
2686.354, 0.6563125
2688.282, 0.6567703
2690.211, 0.6558272
2692.139, 0.6558007
2694.068, 0.6568559
2695.996, 0.6580505
2697.925, 0.6576539
2699.853, 0.6571657
2701.782, 0.6572412
2703.710, 0.6579956
2705.639, 0.6587391
2707.567, 0.6582423
2709.496, 0.6588845
2711.424, 0.6593190
2713.353, 0.6591939
2715.281, 0.6594424
2717.209, 0.6602873
2719.138, 0.6605564
2721.066, 0.6615824
2722.995, 0.6611965
2724.923, 0.6599998
2726.852, 0.6593934
2728.780, 0.6607581
2730.709, 0.6622226
2732.637, 0.6613336
2734.566, 0.6610046
2736.494, 0.6620928
2738.423, 0.6625586
2740.351, 0.6614290
2742.280, 0.6617432
2744.208, 0.6629378
2746.136, 0.6633649
2748.065, 0.6637658
2749.993, 0.6637467
2751.922, 0.6643875
2753.850, 0.6645702
2755.779, 0.6639194
2757.707, 0.6640740
2759.636, 0.6649883
2761.564, 0.6659383
2763.493, 0.6662297
2765.421, 0.6660870
2767.350, 0.6671658
2769.278, 0.6677116
2771.207, 0.6670563
2773.135, 0.6663517
2775.063, 0.6658643
2776.992, 0.6666343
2778.920, 0.6680806
2780.849, 0.6687020
2782.777, 0.6682976
2784.706, 0.6683524
2786.634, 0.6673494
2788.563, 0.6668820
2790.491, 0.6677781
2792.420, 0.6685401
2794.348, 0.6689981
2796.277, 0.6692554
2798.205, 0.6698703
2800.134, 0.6705251
2802.062, 0.6705194
2803.990, 0.6716011
2805.919, 0.6722443
2807.847, 0.6719036
2809.776, 0.6704366
2811.704, 0.6707367
2813.633, 0.6718841
2815.561, 0.6724279
2817.490, 0.6727787
2819.418, 0.6726251
2821.347, 0.6729854
2823.275, 0.6727115
2825.204, 0.6718341
2827.132, 0.6725796
2829.061, 0.6733446
2830.989, 0.6727524
2832.917, 0.6727469
2834.846, 0.6741205
2836.774, 0.6747281
2838.703, 0.6751067
2840.631, 0.6759416
2842.560, 0.6762164
2844.488, 0.6756762
2846.417, 0.6753672
2848.345, 0.6754940
2850.274, 0.6748239
2852.202, 0.6752045
2854.131, 0.6763112
2856.059, 0.6769874
2857.988, 0.6772728
2859.916, 0.6781364
2861.844, 0.6787061
2863.773, 0.6779120
2865.701, 0.6759877
2867.630, 0.6766475
2869.558, 0.6782071
2871.487, 0.6802278
2873.415, 0.6812726
2875.344, 0.6798694
2877.272, 0.6795036
2879.201, 0.6813680
2881.129, 0.6817182
2883.058, 0.6813697
2884.986, 0.6792497
2886.915, 0.6784806
2888.843, 0.6787878
2890.771, 0.6792922
2892.700, 0.6815231
2894.628, 0.6827887
2896.557, 0.6818634
2898.485, 0.6811178
2900.414, 0.6828708
2902.342, 0.6824511
2904.271, 0.6817316
2906.199, 0.6812062
2908.128, 0.6817276
2910.056, 0.6823781
2911.985, 0.6817945
2913.913, 0.6842773
2915.842, 0.6855022
2917.770, 0.6846826
2919.698, 0.6843132
2921.627, 0.6834458
2923.555, 0.6833899
2925.484, 0.6820992
2927.412, 0.6804810
2929.341, 0.6824442
2931.269, 0.6830157
2933.198, 0.6811494
2935.126, 0.6805523
2937.055, 0.6821740
2938.983, 0.6838062
2940.912, 0.6836076
2942.840, 0.6829112
2944.769, 0.6828987
2946.697, 0.6844627
2948.625, 0.6852917
2950.554, 0.6854410
2952.482, 0.6852558
2954.411, 0.6850662
2956.339, 0.6844052
2958.268, 0.6855700
2960.196, 0.6881328
2962.125, 0.6860362
2964.053, 0.6843814
2965.982, 0.6837383
2967.910, 0.6846730
2969.839, 0.6859900
2971.767, 0.6879431
2973.696, 0.6872149
2975.624, 0.6856343
2977.552, 0.6855333
2979.481, 0.6850215
2981.409, 0.6840165
2983.338, 0.6834731
2985.266, 0.6839119
2987.195, 0.6848053
2989.123, 0.6861999
2991.052, 0.6871001
2992.980, 0.6873577
2994.909, 0.6876043
2996.837, 0.6888100
2998.766, 0.6893838
3000.694, 0.6880057
3002.623, 0.6865882
3004.551, 0.6877336
3006.479, 0.6890799
3008.408, 0.6891174
3010.336, 0.6891040
3012.265, 0.6891222
3014.193, 0.6904397
3016.122, 0.6909199
3018.050, 0.6905692
3019.979, 0.6913444
3021.907, 0.6915393
3023.836, 0.6907752
3025.764, 0.6904987
3027.693, 0.6911293
3029.621, 0.6914496
3031.550, 0.6911898
3033.478, 0.6919936
3035.406, 0.6917979
3037.335, 0.6918150
3039.263, 0.6930386
3041.192, 0.6929428
3043.120, 0.6923183
3045.049, 0.6941688
3046.977, 0.6953326
3048.906, 0.6936470
3050.834, 0.6934553
3052.763, 0.6942971
3054.691, 0.6966555
3056.620, 0.6975117
3058.548, 0.6950876
3060.477, 0.6945450
3062.405, 0.6955526
3064.333, 0.6937788
3066.262, 0.6918574
3068.190, 0.6935545
3070.119, 0.6934541
3072.047, 0.6936439
3073.976, 0.6939678
3075.904, 0.6941767
3077.833, 0.6962497
3079.761, 0.6983164
3081.690, 0.6965790
3083.618, 0.6946970
3085.547, 0.6958288
3087.475, 0.6980670
3089.404, 0.6995241
3091.332, 0.6984214
3093.260, 0.6973775
3095.189, 0.6976190
3097.117, 0.6982416
3099.046, 0.6963819
3100.974, 0.6949509
3102.903, 0.6957456
3104.831, 0.6962804
3106.760, 0.6976879
3108.688, 0.6993806
3110.617, 0.7008047
3112.545, 0.7003860
3114.474, 0.7020077
3116.402, 0.7035938
3118.331, 0.7029986
3120.259, 0.7012661
3122.188, 0.6985051
3124.116, 0.6972223
3126.044, 0.6988470
3127.973, 0.7011862
3129.901, 0.7018911
3131.830, 0.7031880
3133.758, 0.7043734
3135.687, 0.7026545
3137.615, 0.7006972
3139.544, 0.7012814
3141.472, 0.7018242
3143.401, 0.6997676
3145.329, 0.6997269
3147.258, 0.7006971
3149.186, 0.7007025
3151.115, 0.7030971
3153.043, 0.7054415
3154.971, 0.7043706
3156.900, 0.7024451
3158.828, 0.7024140
3160.757, 0.7024058
3162.685, 0.7039245
3164.614, 0.7062114
3166.542, 0.7051550
3168.471, 0.7040366
3170.399, 0.7061443
3172.328, 0.7074635
3174.256, 0.7067097
3176.185, 0.7064431
3178.113, 0.7061611
3180.042, 0.7070820
3181.970, 0.7075298
3183.898, 0.7063143
3185.827, 0.7084393
3187.755, 0.7102512
3189.684, 0.7089236
3191.612, 0.7080727
3193.541, 0.7089422
3195.469, 0.7092274
3197.398, 0.7104844
3199.326, 0.7116620
3201.255, 0.7083181
3203.183, 0.7070235
3205.112, 0.7078084
3207.040, 0.7090415
3208.969, 0.7111819
3210.897, 0.7104745
3212.825, 0.7086453
3214.754, 0.7094985
3216.682, 0.7101926
3218.611, 0.7118094
3220.539, 0.7107991
3222.468, 0.7098390
3224.396, 0.7090645
3226.325, 0.7101406
3228.253, 0.7118219
3230.182, 0.7118036
3232.110, 0.7109263
3234.039, 0.7126074
3235.967, 0.7151603
3237.896, 0.7136771
3239.824, 0.7114494
3241.752, 0.7112137
3243.681, 0.7112634
3245.609, 0.7105610
3247.538, 0.7113012
3249.466, 0.7161902
3251.395, 0.7170444
3253.323, 0.7144332
3255.252, 0.7141065
3257.180, 0.7136074
3259.109, 0.7121673
3261.037, 0.7148746
3262.966, 0.7154572
3264.894, 0.7134306
3266.823, 0.7148319
3268.751, 0.7165738
3270.679, 0.7165556
3272.608, 0.7166685
3274.536, 0.7162051
3276.465, 0.7167099
3278.393, 0.7182703
3280.322, 0.7186337
3282.250, 0.7200981
3284.179, 0.7194122
3286.107, 0.7185556
3288.036, 0.7183487
3289.964, 0.7200661
3291.893, 0.7175228
3293.821, 0.7172116
3295.750, 0.7193778
3297.678, 0.7200969
3299.606, 0.7205918
3301.535, 0.7205760
3303.463, 0.7195206
3305.392, 0.7208068
3307.320, 0.7217184
3309.249, 0.7201724
3311.177, 0.7190925
3313.106, 0.7214453
3315.034, 0.7236136
3316.963, 0.7234011
3318.891, 0.7226966
3320.820, 0.7219858
3322.748, 0.7226387
3324.677, 0.7247947
3326.605, 0.7243184
3328.533, 0.7218795
3330.462, 0.7217351
3332.390, 0.7209401
3334.319, 0.7207090
3336.247, 0.7209479
3338.176, 0.7230222
3340.104, 0.7238660
3342.033, 0.7271178
3343.961, 0.7288510
3345.890, 0.7253131
3347.818, 0.7240821
3349.747, 0.7246658
3351.675, 0.7255980
3353.604, 0.7245966
3355.532, 0.7240785
3357.460, 0.7231240
3359.389, 0.7217091
3361.317, 0.7234159
3363.246, 0.7247513
3365.174, 0.7244225
3367.103, 0.7265977
3369.031, 0.7304431
3370.960, 0.7278334
3372.888, 0.7256286
3374.817, 0.7262709
3376.745, 0.7277231
3378.674, 0.7280611
3380.602, 0.7279229
3382.531, 0.7286322
3384.459, 0.7257429
3386.387, 0.7261769
3388.316, 0.7304676
3390.244, 0.7301358
3392.173, 0.7296212
3394.101, 0.7291310
3396.030, 0.7268582
3397.958, 0.7248217
3399.887, 0.7258433
3401.815, 0.7280139
3403.744, 0.7275570
3405.672, 0.7277808
3407.601, 0.7321976
3409.529, 0.7350292
3411.458, 0.7307678
3413.386, 0.7284103
3415.314, 0.7291014
3417.243, 0.7287778
3419.171, 0.7283820
3421.100, 0.7294576
3423.028, 0.7305688
3424.957, 0.7303063
3426.885, 0.7323239
3428.814, 0.7328248
3430.742, 0.7325899
3432.671, 0.7325112
3434.599, 0.7336674
3436.528, 0.7361568
3438.456, 0.7347818
3440.385, 0.7349996
3442.313, 0.7347806
3444.241, 0.7325898
3446.170, 0.7301907
3448.098, 0.7301194
3450.027, 0.7334851
3451.955, 0.7348741
3453.884, 0.7347427
3455.812, 0.7318988
3457.741, 0.7304000
3459.669, 0.7331569
3461.598, 0.7347587
3463.526, 0.7330658
3465.455, 0.7309666
3467.383, 0.7329534
3469.312, 0.7342086
3471.240, 0.7334165
3473.168, 0.7334685
3475.097, 0.7306529
3477.025, 0.7322580
3478.954, 0.7363725
3480.882, 0.7346532
3482.811, 0.7336359
3484.739, 0.7344162
3486.668, 0.7357447
3488.596, 0.7364719
3490.525, 0.7382620
3492.453, 0.7370045
3494.382, 0.7326093
3496.310, 0.7333756
3498.239, 0.7348380
3500.167, 0.7351596
3502.095, 0.7366293
3504.024, 0.7377769
3505.952, 0.7388011
3507.881, 0.7383175
3509.809, 0.7353737
3511.738, 0.7327616
3513.666, 0.7338055
3515.595, 0.7355319
3517.523, 0.7371677
3519.452, 0.7350345
3521.380, 0.7316291
3523.309, 0.7311848
3525.237, 0.7364392
3527.166, 0.7374033
3529.094, 0.7346566
3531.022, 0.7363309
3532.951, 0.7368866
3534.879, 0.7376688
3536.808, 0.7361263
3538.736, 0.7358029
3540.665, 0.7377171
3542.593, 0.7375405
3544.522, 0.7399442
3546.450, 0.7405781
3548.379, 0.7359264
3550.307, 0.7373295
3552.236, 0.7453203
3554.164, 0.7464792
3556.093, 0.7434195
3558.021, 0.7425509
3559.949, 0.7381232
3561.878, 0.7386140
3563.806, 0.7415756
3565.735, 0.7423129
3567.663, 0.7382148
3569.592, 0.7356640
3571.520, 0.7354813
3573.449, 0.7389430
3575.377, 0.7429181
3577.306, 0.7447771
3579.234, 0.7449225
3581.163, 0.7448091
3583.091, 0.7438098
3585.020, 0.7390372
3586.948, 0.7385178
3588.876, 0.7398142
3590.805, 0.7389858
3592.733, 0.7396839
3594.662, 0.7411277
3596.590, 0.7406278
3598.519, 0.7410132
3600.447, 0.7415983
3602.376, 0.7420394
3604.304, 0.7468297
3606.233, 0.7479129
3608.161, 0.7409958
3610.090, 0.7391408
3612.018, 0.7438701
3613.947, 0.7457043
3615.875, 0.7453956
3617.803, 0.7441217
3619.732, 0.7418257
3621.660, 0.7460393
3623.589, 0.7501179
3625.517, 0.7477449
3627.446, 0.7460142
3629.374, 0.7447884
3631.303, 0.7458132
3633.231, 0.7453206
3635.160, 0.7435822
3637.088, 0.7453997
3639.017, 0.7437604
3640.945, 0.7425739
3642.874, 0.7447138
3644.802, 0.7417781
3646.730, 0.7450392
3648.659, 0.7463908
3650.587, 0.7420705
3652.516, 0.7436082
3654.444, 0.7507164
3656.373, 0.7509260
3658.301, 0.7472178
3660.230, 0.7465422
3662.158, 0.7463704
3664.087, 0.7465451
3666.015, 0.7466775
3667.944, 0.7437812
3669.872, 0.7422417
3671.801, 0.7470654
3673.729, 0.7522434
3675.657, 0.7524983
3677.586, 0.7519433
3679.514, 0.7517814
3681.443, 0.7507569
3683.371, 0.7510156
3685.300, 0.7508357
3687.228, 0.7497390
3689.157, 0.7492612
3691.085, 0.7520722
3693.014, 0.7524953
3694.942, 0.7516860
3696.871, 0.7502408
3698.799, 0.7501859
3700.728, 0.7539870
3702.656, 0.7538698
3704.584, 0.7487081
3706.513, 0.7454429
3708.441, 0.7477648
3710.370, 0.7492453
3712.298, 0.7511843
3714.227, 0.7502420
3716.155, 0.7530735
3718.084, 0.7575940
3720.012, 0.7553781
3721.941, 0.7529817
3723.869, 0.7535970
3725.798, 0.7531573
3727.726, 0.7515101
3729.655, 0.7526431
3731.583, 0.7543714
3733.511, 0.7535508
3735.440, 0.7540975
3737.368, 0.7544633
3739.297, 0.7568038
3741.225, 0.7548040
3743.154, 0.7486577
3745.082, 0.7501131
3747.011, 0.7533655
3748.939, 0.7550862
3750.868, 0.7562771
3752.796, 0.7580910
3754.725, 0.7570044
3756.653, 0.7587152
3758.582, 0.7570067
3760.510, 0.7548188
3762.438, 0.7527044
3764.367, 0.7531078
3766.295, 0.7587414
3768.224, 0.7604948
3770.152, 0.7596402
3772.081, 0.7607408
3774.009, 0.7573431
3775.938, 0.7575935
3777.866, 0.7632375
3779.795, 0.7624078
3781.723, 0.7569503
3783.652, 0.7528692
3785.580, 0.7588530
3787.509, 0.7634938
3789.437, 0.7617474
3791.365, 0.7611110
3793.294, 0.7615028
3795.222, 0.7608427
3797.151, 0.7611949
3799.079, 0.7642710
3801.008, 0.7672412
3802.936, 0.7643205
3804.865, 0.7614752
3806.793, 0.7615002
3808.722, 0.7644009
3810.650, 0.7602657
3812.579, 0.7547178
3814.507, 0.7592753
3816.436, 0.7595866
3818.364, 0.7598470
3820.292, 0.7594727
3822.221, 0.7583000
3824.149, 0.7574271
3826.078, 0.7605516
3828.006, 0.7632083
3829.935, 0.7631366
3831.863, 0.7626895
3833.792, 0.7616715
3835.720, 0.7624475
3837.649, 0.7653974
3839.577, 0.7677972
3841.506, 0.7656767
3843.434, 0.7615589
3845.363, 0.7617694
3847.291, 0.7632431
3849.219, 0.7656932
3851.148, 0.7661218
3853.076, 0.7615803
3855.005, 0.7599975
3856.933, 0.7637647
3858.862, 0.7665969
3860.790, 0.7696183
3862.719, 0.7716812
3864.647, 0.7707310
3866.576, 0.7684242
3868.504, 0.7698746
3870.433, 0.7670295
3872.361, 0.7633119
3874.290, 0.7686063
3876.218, 0.7732980
3878.146, 0.7747050
3880.075, 0.7764171
3882.003, 0.7757603
3883.932, 0.7707455
3885.860, 0.7644531
3887.789, 0.7628102
3889.717, 0.7688813
3891.646, 0.7720556
3893.574, 0.7724012
3895.503, 0.7729864
3897.431, 0.7741727
3899.360, 0.7765082
3901.288, 0.7741437
3903.217, 0.7676870
3905.145, 0.7654710
3907.073, 0.7704538
3909.002, 0.7714316
3910.930, 0.7675667
3912.859, 0.7677863
3914.787, 0.7697838
3916.716, 0.7710045
3918.644, 0.7712763
3920.573, 0.7685344
3922.501, 0.7639993
3924.430, 0.7639464
3926.358, 0.7656409
3928.287, 0.7644325
3930.215, 0.7663407
3932.144, 0.7709430
3934.072, 0.7731158
3936.000, 0.7718978
3937.929, 0.7692740
3939.857, 0.7702377
3941.786, 0.7693503
3943.714, 0.7672447
3945.643, 0.7697694
3947.571, 0.7740756
3949.500, 0.7758034
3951.428, 0.7708232
3953.357, 0.7689978
3955.285, 0.7743319
3957.214, 0.7762585
3959.142, 0.7731563
3961.071, 0.7675537
3962.999, 0.7675204
3964.927, 0.7729908
3966.856, 0.7749003
3968.784, 0.7737585
3970.713, 0.7712340
3972.641, 0.7693647
3974.570, 0.7743000
3976.498, 0.7774546
3978.427, 0.7751966
3980.355, 0.7723997
3982.284, 0.7754968
3984.212, 0.7775549
3986.141, 0.7756589
3988.069, 0.7754804
3989.998, 0.7733870
3991.926, 0.7705994
3993.854, 0.7698040
3995.783, 0.7696865
3997.711, 0.7718230
3999.640, 0.7721953
##END=



