##NAMES=Petzite
##RRUFFID=R070254
##IDEAL CHEMISTRY=Ag_3_AuTe_2_
##LOCALITY=Red Jacket mine, Baker County, Oregon, USA
##OWNER=RRUFF
##SOURCE=Michael Scott
##DESCRIPTION=Steel grey metallic fragments with subconchoidal fracture, sample used as the standard for the ICDD powder diffraction file
##STATUS=The identification of this mineral has been confirmed by X-ray diffraction and chemical analysis
##URL=rruff.info/R070254
##MEASURED CHEMISTRY=Ag_3.00_Au_1.00_Te_2.00_ ; = lighter phase. The darker phase is: Ag_3.00_(Au_0.99_Cu_0.01_)_Î£=1_Te_2.00_
3.741225e+002, 3.495819e-001
3.760510e+002, 3.370393e-001
3.779795e+002, 3.443793e-001
3.799079e+002, 3.546554e-001
3.818364e+002, 3.606523e-001
3.837649e+002, 3.586476e-001
3.856933e+002, 3.623030e-001
3.876218e+002, 3.503726e-001
3.895503e+002, 3.385679e-001
3.914787e+002, 3.375812e-001
3.934072e+002, 3.416691e-001
3.953357e+002, 3.461353e-001
3.972641e+002, 3.490394e-001
3.991926e+002, 3.545412e-001
4.011211e+002, 3.614272e-001
4.030495e+002, 3.593513e-001
4.049780e+002, 3.631529e-001
4.069065e+002, 3.630112e-001
4.088349e+002, 3.555240e-001
4.107634e+002, 3.555891e-001
4.126919e+002, 3.565732e-001
4.146203e+002, 3.617811e-001
4.165488e+002, 3.671726e-001
4.184773e+002, 3.661885e-001
4.204057e+002, 3.689685e-001
4.223342e+002, 3.700642e-001
4.242627e+002, 3.703374e-001
4.261911e+002, 3.722804e-001
4.281196e+002, 3.719161e-001
4.300481e+002, 3.748019e-001
4.319765e+002, 3.750642e-001
4.339050e+002, 3.785244e-001
4.358335e+002, 3.825845e-001
4.377619e+002, 3.820512e-001
4.396904e+002, 3.791760e-001
4.416189e+002, 3.809752e-001
4.435473e+002, 3.864771e-001
4.454758e+002, 3.866343e-001
4.474043e+002, 3.875377e-001
4.493327e+002, 3.854226e-001
4.512612e+002, 3.844439e-001
4.531897e+002, 3.868574e-001
4.551181e+002, 3.922523e-001
4.570466e+002, 3.930949e-001
4.589751e+002, 3.917998e-001
4.609035e+002, 3.928471e-001
4.628320e+002, 3.956385e-001
4.647605e+002, 3.949448e-001
4.666889e+002, 3.928291e-001
4.686174e+002, 3.914567e-001
4.705459e+002, 3.922076e-001
4.724743e+002, 3.933083e-001
4.744028e+002, 3.945148e-001
4.763313e+002, 3.964995e-001
4.782597e+002, 3.989027e-001
4.801882e+002, 3.992017e-001
4.821167e+002, 3.994417e-001
4.840451e+002, 4.013981e-001
4.859736e+002, 4.032205e-001
4.879021e+002, 4.035858e-001
4.898305e+002, 4.050983e-001
4.917590e+002, 4.066090e-001
4.936875e+002, 4.090704e-001
4.956159e+002, 4.073021e-001
4.975444e+002, 4.099841e-001
4.994729e+002, 4.131766e-001
5.014013e+002, 4.137895e-001
5.033298e+002, 4.140542e-001
5.052583e+002, 4.160572e-001
5.071867e+002, 4.206038e-001
5.091152e+002, 4.190154e-001
5.110437e+002, 4.188586e-001
5.129721e+002, 4.210250e-001
5.149006e+002, 4.207830e-001
5.168290e+002, 4.211996e-001
5.187575e+002, 4.209451e-001
5.206860e+002, 4.216469e-001
5.226144e+002, 4.231369e-001
5.245429e+002, 4.254611e-001
5.264714e+002, 4.268414e-001
5.283998e+002, 4.267108e-001
5.303283e+002, 4.282848e-001
5.322568e+002, 4.289318e-001
5.341852e+002, 4.304371e-001
5.361137e+002, 4.327203e-001
5.380422e+002, 4.319543e-001
5.399706e+002, 4.313259e-001
5.418991e+002, 4.340440e-001
5.438276e+002, 4.355581e-001
5.457560e+002, 4.339785e-001
5.476845e+002, 4.346780e-001
5.496130e+002, 4.374815e-001
5.515414e+002, 4.383534e-001
5.534699e+002, 4.406407e-001
5.553984e+002, 4.423275e-001
5.573268e+002, 4.427780e-001
5.592553e+002, 4.423292e-001
5.611838e+002, 4.428348e-001
5.631122e+002, 4.435322e-001
5.650407e+002, 4.442688e-001
5.669692e+002, 4.455344e-001
5.688976e+002, 4.455742e-001
5.708261e+002, 4.468455e-001
5.727546e+002, 4.463833e-001
5.746830e+002, 4.472379e-001
5.766115e+002, 4.474958e-001
5.785400e+002, 4.481466e-001
5.804684e+002, 4.492407e-001
5.823969e+002, 4.509036e-001
5.843254e+002, 4.513304e-001
5.862538e+002, 4.523056e-001
5.881823e+002, 4.526388e-001
5.901108e+002, 4.526530e-001
5.920392e+002, 4.537879e-001
5.939677e+002, 4.556149e-001
5.958962e+002, 4.568482e-001
5.978246e+002, 4.570400e-001
5.997531e+002, 4.584392e-001
6.016816e+002, 4.591249e-001
6.036100e+002, 4.590832e-001
6.055385e+002, 4.600118e-001
6.074670e+002, 4.618945e-001
6.093954e+002, 4.625216e-001
6.113239e+002, 4.633135e-001
6.132524e+002, 4.642116e-001
6.151808e+002, 4.665041e-001
6.171093e+002, 4.677336e-001
6.190378e+002, 4.685377e-001
6.209662e+002, 4.692282e-001
6.228947e+002, 4.694265e-001
6.248232e+002, 4.697084e-001
6.267516e+002, 4.716383e-001
6.286801e+002, 4.733117e-001
6.306086e+002, 4.744394e-001
6.325370e+002, 4.749516e-001
6.344655e+002, 4.764662e-001
6.363940e+002, 4.781582e-001
6.383224e+002, 4.789327e-001
6.402509e+002, 4.790987e-001
6.421794e+002, 4.782106e-001
6.441078e+002, 4.783733e-001
6.460363e+002, 4.792821e-001
6.479648e+002, 4.802642e-001
6.498932e+002, 4.806488e-001
6.518217e+002, 4.815071e-001
6.537502e+002, 4.821239e-001
6.556786e+002, 4.835083e-001
6.576071e+002, 4.842983e-001
6.595356e+002, 4.848515e-001
6.614641e+002, 4.848968e-001
6.633925e+002, 4.845031e-001
6.653210e+002, 4.861535e-001
6.672495e+002, 4.880859e-001
6.691779e+002, 4.885137e-001
6.711064e+002, 4.880301e-001
6.730349e+002, 4.880624e-001
6.749633e+002, 4.892382e-001
6.768918e+002, 4.903615e-001
6.788203e+002, 4.904026e-001
6.807487e+002, 4.911927e-001
6.826772e+002, 4.916440e-001
6.846057e+002, 4.923078e-001
6.865341e+002, 4.932694e-001
6.884626e+002, 4.932962e-001
6.903911e+002, 4.935314e-001
6.923195e+002, 4.953087e-001
6.942480e+002, 4.959715e-001
6.961765e+002, 4.972633e-001
6.981049e+002, 4.982841e-001
7.000334e+002, 4.989080e-001
7.019619e+002, 4.983357e-001
7.038903e+002, 4.995977e-001
7.058188e+002, 5.000026e-001
7.077473e+002, 4.998389e-001
7.096757e+002, 5.003889e-001
7.116042e+002, 5.021202e-001
7.135327e+002, 5.029926e-001
7.154611e+002, 5.033956e-001
7.173896e+002, 5.041446e-001
7.193181e+002, 5.045219e-001
7.212465e+002, 5.047237e-001
7.231750e+002, 5.056031e-001
7.251035e+002, 5.073096e-001
7.270319e+002, 5.074809e-001
7.289604e+002, 5.082465e-001
7.308889e+002, 5.092024e-001
7.328173e+002, 5.096257e-001
7.347458e+002, 5.102174e-001
7.366743e+002, 5.117809e-001
7.386027e+002, 5.133874e-001
7.405312e+002, 5.139843e-001
7.424597e+002, 5.141897e-001
7.443881e+002, 5.147456e-001
7.463166e+002, 5.157712e-001
7.482451e+002, 5.163391e-001
7.501735e+002, 5.176080e-001
7.521020e+002, 5.185574e-001
7.540305e+002, 5.184210e-001
7.559589e+002, 5.190203e-001
7.578874e+002, 5.194724e-001
7.598159e+002, 5.203099e-001
7.617443e+002, 5.211444e-001
7.636728e+002, 5.217152e-001
7.656013e+002, 5.223963e-001
7.675297e+002, 5.234447e-001
7.694582e+002, 5.238626e-001
7.713867e+002, 5.244134e-001
7.733151e+002, 5.247999e-001
7.752436e+002, 5.262165e-001
7.771721e+002, 5.270649e-001
7.791005e+002, 5.279218e-001
7.810290e+002, 5.288398e-001
7.829575e+002, 5.295340e-001
7.848859e+002, 5.293299e-001
7.868144e+002, 5.298548e-001
7.887429e+002, 5.303681e-001
7.906713e+002, 5.314573e-001
7.925998e+002, 5.322774e-001
7.945283e+002, 5.320164e-001
7.964567e+002, 5.323343e-001
7.983852e+002, 5.330706e-001
8.003137e+002, 5.341893e-001
8.022421e+002, 5.349286e-001
8.041706e+002, 5.361291e-001
8.060991e+002, 5.372375e-001
8.080275e+002, 5.371009e-001
8.099560e+002, 5.377451e-001
8.118845e+002, 5.389255e-001
8.138129e+002, 5.393823e-001
8.157414e+002, 5.399423e-001
8.176699e+002, 5.398557e-001
8.195983e+002, 5.401250e-001
8.215268e+002, 5.415277e-001
8.234553e+002, 5.427643e-001
8.253837e+002, 5.431775e-001
8.273122e+002, 5.443633e-001
8.292407e+002, 5.451269e-001
8.311691e+002, 5.452999e-001
8.330976e+002, 5.451638e-001
8.350261e+002, 5.461383e-001
8.369545e+002, 5.465260e-001
8.388830e+002, 5.470580e-001
8.408115e+002, 5.478252e-001
8.427399e+002, 5.485694e-001
8.446684e+002, 5.497649e-001
8.465969e+002, 5.502588e-001
8.485253e+002, 5.502842e-001
8.504538e+002, 5.505048e-001
8.523823e+002, 5.507274e-001
8.543107e+002, 5.514255e-001
8.562392e+002, 5.522222e-001
8.581677e+002, 5.549091e-001
8.600961e+002, 5.559354e-001
8.620246e+002, 5.560799e-001
8.639531e+002, 5.562718e-001
8.658815e+002, 5.569245e-001
8.678100e+002, 5.582434e-001
8.697385e+002, 5.589045e-001
8.716669e+002, 5.592009e-001
8.735954e+002, 5.598310e-001
8.755239e+002, 5.604984e-001
8.774523e+002, 5.608911e-001
8.793808e+002, 5.613203e-001
8.813093e+002, 5.622855e-001
8.832377e+002, 5.624202e-001
8.851662e+002, 5.626670e-001
8.870947e+002, 5.641987e-001
8.890231e+002, 5.652588e-001
8.909516e+002, 5.655748e-001
8.928801e+002, 5.661289e-001
8.948085e+002, 5.671667e-001
8.967370e+002, 5.676779e-001
8.986655e+002, 5.679467e-001
9.005939e+002, 5.682103e-001
9.025224e+002, 5.694693e-001
9.044509e+002, 5.705173e-001
9.063793e+002, 5.707747e-001
9.083078e+002, 5.709754e-001
9.102363e+002, 5.712435e-001
9.121647e+002, 5.719576e-001
9.140932e+002, 5.728107e-001
9.160217e+002, 5.736894e-001
9.179501e+002, 5.742376e-001
9.198786e+002, 5.744685e-001
9.218071e+002, 5.749506e-001
9.237355e+002, 5.758748e-001
9.256640e+002, 5.765359e-001
9.275925e+002, 5.772244e-001
9.295209e+002, 5.778668e-001
9.314494e+002, 5.787705e-001
9.333779e+002, 5.792435e-001
9.353063e+002, 5.799013e-001
9.372348e+002, 5.807220e-001
9.391633e+002, 5.811064e-001
9.410917e+002, 5.816864e-001
9.430202e+002, 5.821235e-001
9.449487e+002, 5.826954e-001
9.468771e+002, 5.832038e-001
9.488056e+002, 5.837901e-001
9.507341e+002, 5.843699e-001
9.526625e+002, 5.848472e-001
9.545910e+002, 5.855153e-001
9.565195e+002, 5.862003e-001
9.584479e+002, 5.867855e-001
9.603764e+002, 5.874267e-001
9.623049e+002, 5.880872e-001
9.642333e+002, 5.887507e-001
9.661618e+002, 5.887231e-001
9.680903e+002, 5.890417e-001
9.700187e+002, 5.898335e-001
9.719472e+002, 5.904441e-001
9.738757e+002, 5.909610e-001
9.758041e+002, 5.914716e-001
9.777326e+002, 5.918531e-001
9.796611e+002, 5.922462e-001
9.815895e+002, 5.932717e-001
9.835180e+002, 5.937767e-001
9.854465e+002, 5.941969e-001
9.873749e+002, 5.948630e-001
9.893034e+002, 5.957351e-001
9.912319e+002, 5.966852e-001
9.931603e+002, 5.973256e-001
9.950888e+002, 5.977048e-001
9.970173e+002, 5.978869e-001
9.989457e+002, 5.982195e-001
1.000874e+003, 5.989873e-001
1.002803e+003, 5.995550e-001
1.004731e+003, 6.000093e-001
1.006660e+003, 6.004466e-001
1.008588e+003, 6.001831e-001
1.010517e+003, 6.007023e-001
1.012445e+003, 6.016383e-001
1.014373e+003, 6.023580e-001
1.016302e+003, 6.028428e-001
1.018230e+003, 6.034414e-001
1.020159e+003, 6.039559e-001
1.022087e+003, 6.045166e-001
1.024016e+003, 6.049928e-001
1.025944e+003, 6.057609e-001
1.027873e+003, 6.062548e-001
1.029801e+003, 6.065227e-001
1.031730e+003, 6.069821e-001
1.033658e+003, 6.075497e-001
1.035587e+003, 6.080375e-001
1.037515e+003, 6.086513e-001
1.039443e+003, 6.093644e-001
1.041372e+003, 6.096024e-001
1.043300e+003, 6.102726e-001
1.045229e+003, 6.110536e-001
1.047157e+003, 6.116247e-001
1.049086e+003, 6.121278e-001
1.051014e+003, 6.124848e-001
1.052943e+003, 6.127210e-001
1.054871e+003, 6.132067e-001
1.056800e+003, 6.140209e-001
1.058728e+003, 6.146107e-001
1.060657e+003, 6.152269e-001
1.062585e+003, 6.157126e-001
1.064514e+003, 6.157935e-001
1.066442e+003, 6.162784e-001
1.068370e+003, 6.171702e-001
1.070299e+003, 6.176709e-001
1.072227e+003, 6.182202e-001
1.074156e+003, 6.191984e-001
1.076084e+003, 6.194458e-001
1.078013e+003, 6.196890e-001
1.079941e+003, 6.201763e-001
1.081870e+003, 6.205602e-001
1.083798e+003, 6.209252e-001
1.085727e+003, 6.213571e-001
1.087655e+003, 6.220623e-001
1.089584e+003, 6.230574e-001
1.091512e+003, 6.232958e-001
1.093441e+003, 6.236450e-001
1.095369e+003, 6.245333e-001
1.097297e+003, 6.253684e-001
1.099226e+003, 6.262953e-001
1.101154e+003, 6.273407e-001
1.103083e+003, 6.282675e-001
1.105011e+003, 6.289217e-001
1.106940e+003, 6.294333e-001
1.108868e+003, 6.300540e-001
1.110797e+003, 6.308094e-001
1.112725e+003, 6.315166e-001
1.114654e+003, 6.323507e-001
1.116582e+003, 6.330152e-001
1.118511e+003, 6.335480e-001
1.120439e+003, 6.342692e-001
1.122368e+003, 6.351296e-001
1.124296e+003, 6.357824e-001
1.126224e+003, 6.367227e-001
1.128153e+003, 6.379527e-001
1.130081e+003, 6.392279e-001
1.132010e+003, 6.406443e-001
1.133938e+003, 6.418207e-001
1.135867e+003, 6.430001e-001
1.137795e+003, 6.448048e-001
1.139724e+003, 6.465185e-001
1.141652e+003, 6.476258e-001
1.143581e+003, 6.488222e-001
1.145509e+003, 6.498837e-001
1.147438e+003, 6.500297e-001
1.149366e+003, 6.503424e-001
1.151295e+003, 6.505017e-001
1.153223e+003, 6.502064e-001
1.155151e+003, 6.501987e-001
1.157080e+003, 6.505650e-001
1.159008e+003, 6.504400e-001
1.160937e+003, 6.501607e-001
1.162865e+003, 6.504872e-001
1.164794e+003, 6.507340e-001
1.166722e+003, 6.514688e-001
1.168651e+003, 6.522044e-001
1.170579e+003, 6.524317e-001
1.172508e+003, 6.525484e-001
1.174436e+003, 6.526530e-001
1.176365e+003, 6.530189e-001
1.178293e+003, 6.536724e-001
1.180222e+003, 6.547055e-001
1.182150e+003, 6.555959e-001
1.184078e+003, 6.561934e-001
1.186007e+003, 6.571458e-001
1.187935e+003, 6.585515e-001
1.189864e+003, 6.597770e-001
1.191792e+003, 6.604625e-001
1.193721e+003, 6.611218e-001
1.195649e+003, 6.617311e-001
1.197578e+003, 6.623635e-001
1.199506e+003, 6.631931e-001
1.201435e+003, 6.640131e-001
1.203363e+003, 6.645079e-001
1.205292e+003, 6.649181e-001
1.207220e+003, 6.652547e-001
1.209149e+003, 6.654741e-001
1.211077e+003, 6.659136e-001
1.213005e+003, 6.663620e-001
1.214934e+003, 6.666578e-001
1.216862e+003, 6.669003e-001
1.218791e+003, 6.673477e-001
1.220719e+003, 6.680256e-001
1.222648e+003, 6.684957e-001
1.224576e+003, 6.689630e-001
1.226505e+003, 6.693422e-001
1.228433e+003, 6.693869e-001
1.230362e+003, 6.695641e-001
1.232290e+003, 6.700996e-001
1.234219e+003, 6.708463e-001
1.236147e+003, 6.709677e-001
1.238076e+003, 6.708791e-001
1.240004e+003, 6.712306e-001
1.241932e+003, 6.717654e-001
1.243861e+003, 6.724308e-001
1.245789e+003, 6.727764e-001
1.247718e+003, 6.728624e-001
1.249646e+003, 6.729021e-001
1.251575e+003, 6.730130e-001
1.253503e+003, 6.732575e-001
1.255432e+003, 6.735555e-001
1.257360e+003, 6.739328e-001
1.259289e+003, 6.742102e-001
1.261217e+003, 6.744023e-001
1.263146e+003, 6.748466e-001
1.265074e+003, 6.753896e-001
1.267003e+003, 6.759173e-001
1.268931e+003, 6.761722e-001
1.270859e+003, 6.768577e-001
1.272788e+003, 6.777278e-001
1.274716e+003, 6.781082e-001
1.276645e+003, 6.781238e-001
1.278573e+003, 6.784095e-001
1.280502e+003, 6.790786e-001
1.282430e+003, 6.798115e-001
1.284359e+003, 6.803479e-001
1.286287e+003, 6.808320e-001
1.288216e+003, 6.812642e-001
1.290144e+003, 6.818523e-001
1.292073e+003, 6.823547e-001
1.294001e+003, 6.827914e-001
1.295930e+003, 6.831633e-001
1.297858e+003, 6.836325e-001
1.299786e+003, 6.842805e-001
1.301715e+003, 6.847273e-001
1.303643e+003, 6.854097e-001
1.305572e+003, 6.858185e-001
1.307500e+003, 6.859022e-001
1.309429e+003, 6.864023e-001
1.311357e+003, 6.872148e-001
1.313286e+003, 6.879392e-001
1.315214e+003, 6.883258e-001
1.317143e+003, 6.885509e-001
1.319071e+003, 6.889571e-001
1.321000e+003, 6.896065e-001
1.322928e+003, 6.901876e-001
1.324857e+003, 6.904758e-001
1.326785e+003, 6.911088e-001
1.328714e+003, 6.917312e-001
1.330642e+003, 6.920583e-001
1.332570e+003, 6.924272e-001
1.334499e+003, 6.929353e-001
1.336427e+003, 6.936454e-001
1.338356e+003, 6.943606e-001
1.340284e+003, 6.948829e-001
1.342213e+003, 6.953106e-001
1.344141e+003, 6.958664e-001
1.346070e+003, 6.964229e-001
1.347998e+003, 6.969338e-001
1.349927e+003, 6.974158e-001
1.351855e+003, 6.978129e-001
1.353784e+003, 6.981618e-001
1.355712e+003, 6.988078e-001
1.357641e+003, 6.993787e-001
1.359569e+003, 6.998867e-001
1.361497e+003, 7.004470e-001
1.363426e+003, 7.007863e-001
1.365354e+003, 7.010193e-001
1.367283e+003, 7.013905e-001
1.369211e+003, 7.018929e-001
1.371140e+003, 7.023836e-001
1.373068e+003, 7.028998e-001
1.374997e+003, 7.032860e-001
1.376925e+003, 7.037868e-001
1.378854e+003, 7.044774e-001
1.380782e+003, 7.048008e-001
1.382711e+003, 7.049394e-001
1.384639e+003, 7.053773e-001
1.386568e+003, 7.060325e-001
1.388496e+003, 7.064019e-001
1.390424e+003, 7.067042e-001
1.392353e+003, 7.073591e-001
1.394281e+003, 7.078503e-001
1.396210e+003, 7.079031e-001
1.398138e+003, 7.081937e-001
1.400067e+003, 7.088054e-001
1.401995e+003, 7.093407e-001
1.403924e+003, 7.098566e-001
1.405852e+003, 7.101704e-001
1.407781e+003, 7.105389e-001
1.409709e+003, 7.111758e-001
1.411638e+003, 7.116311e-001
1.413566e+003, 7.119487e-001
1.415495e+003, 7.122557e-001
1.417423e+003, 7.130381e-001
1.419351e+003, 7.138756e-001
1.421280e+003, 7.141906e-001
1.423208e+003, 7.144517e-001
1.425137e+003, 7.148556e-001
1.427065e+003, 7.155031e-001
1.428994e+003, 7.162154e-001
1.430922e+003, 7.169721e-001
1.432851e+003, 7.176471e-001
1.434779e+003, 7.181317e-001
1.436708e+003, 7.181968e-001
1.438636e+003, 7.184734e-001
1.440565e+003, 7.191474e-001
1.442493e+003, 7.196314e-001
1.444422e+003, 7.201037e-001
1.446350e+003, 7.204546e-001
1.448278e+003, 7.209030e-001
1.450207e+003, 7.215470e-001
1.452135e+003, 7.220668e-001
1.454064e+003, 7.225476e-001
1.455992e+003, 7.233207e-001
1.457921e+003, 7.234427e-001
1.459849e+003, 7.235146e-001
1.461778e+003, 7.238206e-001
1.463706e+003, 7.242795e-001
1.465635e+003, 7.244787e-001
1.467563e+003, 7.244540e-001
1.469492e+003, 7.249776e-001
1.471420e+003, 7.254808e-001
1.473349e+003, 7.259740e-001
1.475277e+003, 7.265539e-001
1.477205e+003, 7.271057e-001
1.479134e+003, 7.275291e-001
1.481062e+003, 7.279487e-001
1.482991e+003, 7.281756e-001
1.484919e+003, 7.289900e-001
1.486848e+003, 7.300146e-001
1.488776e+003, 7.305504e-001
1.490705e+003, 7.306716e-001
1.492633e+003, 7.307436e-001
1.494562e+003, 7.313364e-001
1.496490e+003, 7.321831e-001
1.498419e+003, 7.328986e-001
1.500347e+003, 7.331453e-001
1.502276e+003, 7.333157e-001
1.504204e+003, 7.340981e-001
1.506132e+003, 7.348330e-001
1.508061e+003, 7.352452e-001
1.509989e+003, 7.355334e-001
1.511918e+003, 7.357827e-001
1.513846e+003, 7.363625e-001
1.515775e+003, 7.367275e-001
1.517703e+003, 7.371403e-001
1.519632e+003, 7.378107e-001
1.521560e+003, 7.382931e-001
1.523489e+003, 7.384657e-001
1.525417e+003, 7.385669e-001
1.527346e+003, 7.388821e-001
1.529274e+003, 7.392927e-001
1.531203e+003, 7.397299e-001
1.533131e+003, 7.402544e-001
1.535059e+003, 7.409492e-001
1.536988e+003, 7.414923e-001
1.538916e+003, 7.419937e-001
1.540845e+003, 7.424831e-001
1.542773e+003, 7.427816e-001
1.544702e+003, 7.433258e-001
1.546630e+003, 7.438131e-001
1.548559e+003, 7.441667e-001
1.550487e+003, 7.444369e-001
1.552416e+003, 7.448910e-001
1.554344e+003, 7.452832e-001
1.556273e+003, 7.457238e-001
1.558201e+003, 7.466236e-001
1.560130e+003, 7.470389e-001
1.562058e+003, 7.469414e-001
1.563986e+003, 7.471424e-001
1.565915e+003, 7.476646e-001
1.567843e+003, 7.482031e-001
1.569772e+003, 7.486151e-001
1.571700e+003, 7.490045e-001
1.573629e+003, 7.494510e-001
1.575557e+003, 7.497953e-001
1.577486e+003, 7.498807e-001
1.579414e+003, 7.500943e-001
1.581343e+003, 7.506842e-001
1.583271e+003, 7.512624e-001
1.585200e+003, 7.516075e-001
1.587128e+003, 7.520416e-001
1.589057e+003, 7.526262e-001
1.590985e+003, 7.530731e-001
1.592913e+003, 7.536011e-001
1.594842e+003, 7.539201e-001
1.596770e+003, 7.540067e-001
1.598699e+003, 7.546225e-001
1.600627e+003, 7.552868e-001
1.602556e+003, 7.557945e-001
1.604484e+003, 7.561196e-001
1.606413e+003, 7.565972e-001
1.608341e+003, 7.570122e-001
1.610270e+003, 7.574924e-001
1.612198e+003, 7.580435e-001
1.614127e+003, 7.583799e-001
1.616055e+003, 7.585130e-001
1.617984e+003, 7.589852e-001
1.619912e+003, 7.594759e-001
1.621840e+003, 7.597266e-001
1.623769e+003, 7.604069e-001
1.625697e+003, 7.607076e-001
1.627626e+003, 7.611483e-001
1.629554e+003, 7.616403e-001
1.631483e+003, 7.620538e-001
1.633411e+003, 7.625415e-001
1.635340e+003, 7.630911e-001
1.637268e+003, 7.635264e-001
1.639197e+003, 7.637500e-001
1.641125e+003, 7.641710e-001
1.643054e+003, 7.645850e-001
1.644982e+003, 7.652353e-001
1.646911e+003, 7.657497e-001
1.648839e+003, 7.657147e-001
1.650767e+003, 7.659075e-001
1.652696e+003, 7.661121e-001
1.654624e+003, 7.664004e-001
1.656553e+003, 7.665787e-001
1.658481e+003, 7.666816e-001
1.660410e+003, 7.671359e-001
1.662338e+003, 7.676488e-001
1.664267e+003, 7.681812e-001
1.666195e+003, 7.684415e-001
1.668124e+003, 7.688723e-001
1.670052e+003, 7.693363e-001
1.671981e+003, 7.696157e-001
1.673909e+003, 7.699356e-001
1.675838e+003, 7.704444e-001
1.677766e+003, 7.706784e-001
1.679694e+003, 7.708953e-001
1.681623e+003, 7.711573e-001
1.683551e+003, 7.717234e-001
1.685480e+003, 7.724978e-001
1.687408e+003, 7.730547e-001
1.689337e+003, 7.734143e-001
1.691265e+003, 7.737179e-001
1.693194e+003, 7.737221e-001
1.695122e+003, 7.739996e-001
1.697051e+003, 7.741331e-001
1.698979e+003, 7.748327e-001
1.700908e+003, 7.752845e-001
1.702836e+003, 7.751864e-001
1.704765e+003, 7.753552e-001
1.706693e+003, 7.755570e-001
1.708621e+003, 7.759950e-001
1.710550e+003, 7.767410e-001
1.712478e+003, 7.772387e-001
1.714407e+003, 7.776098e-001
1.716335e+003, 7.783742e-001
1.718264e+003, 7.792438e-001
1.720192e+003, 7.800205e-001
1.722121e+003, 7.801949e-001
1.724049e+003, 7.801129e-001
1.725978e+003, 7.802700e-001
1.727906e+003, 7.808577e-001
1.729835e+003, 7.813071e-001
1.731763e+003, 7.817670e-001
1.733692e+003, 7.821584e-001
1.735620e+003, 7.820255e-001
1.737548e+003, 7.817550e-001
1.739477e+003, 7.819806e-001
1.741405e+003, 7.820127e-001
1.743334e+003, 7.818984e-001
1.745262e+003, 7.821884e-001
1.747191e+003, 7.825152e-001
1.749119e+003, 7.828940e-001
1.751048e+003, 7.832679e-001
1.752976e+003, 7.836117e-001
1.754905e+003, 7.838923e-001
1.756833e+003, 7.842663e-001
1.758762e+003, 7.849905e-001
1.760690e+003, 7.855752e-001
1.762619e+003, 7.856597e-001
1.764547e+003, 7.860419e-001
1.766475e+003, 7.864250e-001
1.768404e+003, 7.864757e-001
1.770332e+003, 7.867903e-001
1.772261e+003, 7.871754e-001
1.774189e+003, 7.874643e-001
1.776118e+003, 7.878718e-001
1.778046e+003, 7.883117e-001
1.779975e+003, 7.888370e-001
1.781903e+003, 7.886831e-001
1.783832e+003, 7.888397e-001
1.785760e+003, 7.895349e-001
1.787689e+003, 7.896512e-001
1.789617e+003, 7.898709e-001
1.791546e+003, 7.904420e-001
1.793474e+003, 7.903341e-001
1.795402e+003, 7.906346e-001
1.797331e+003, 7.911919e-001
1.799259e+003, 7.912315e-001
1.801188e+003, 7.912424e-001
1.803116e+003, 7.914124e-001
1.805045e+003, 7.915594e-001
1.806973e+003, 7.918057e-001
1.808902e+003, 7.919723e-001
1.810830e+003, 7.923312e-001
1.812759e+003, 7.924170e-001
1.814687e+003, 7.920688e-001
1.816616e+003, 7.920228e-001
1.818544e+003, 7.923328e-001
1.820473e+003, 7.930996e-001
1.822401e+003, 7.934551e-001
1.824329e+003, 7.933211e-001
1.826258e+003, 7.932759e-001
1.828186e+003, 7.933694e-001
1.830115e+003, 7.933898e-001
1.832043e+003, 7.934727e-001
1.833972e+003, 7.936700e-001
1.835900e+003, 7.937930e-001
1.837829e+003, 7.943563e-001
1.839757e+003, 7.945391e-001
1.841686e+003, 7.946894e-001
1.843614e+003, 7.951999e-001
1.845543e+003, 7.952350e-001
1.847471e+003, 7.950433e-001
1.849400e+003, 7.947240e-001
1.851328e+003, 7.946920e-001
1.853256e+003, 7.949106e-001
1.855185e+003, 7.956430e-001
1.857113e+003, 7.961293e-001
1.859042e+003, 7.964215e-001
1.860970e+003, 7.965295e-001
1.862899e+003, 7.963191e-001
1.864827e+003, 7.964188e-001
1.866756e+003, 7.967563e-001
1.868684e+003, 7.968191e-001
1.870613e+003, 7.966789e-001
1.872541e+003, 7.966169e-001
1.874470e+003, 7.965929e-001
1.876398e+003, 7.970275e-001
1.878327e+003, 7.971003e-001
1.880255e+003, 7.968014e-001
1.882183e+003, 7.964004e-001
1.884112e+003, 7.962174e-001
1.886040e+003, 7.976010e-001
1.887969e+003, 7.990658e-001
1.889897e+003, 7.993448e-001
1.891826e+003, 8.003330e-001
1.893754e+003, 8.009332e-001
1.895683e+003, 8.002635e-001
1.897611e+003, 8.006683e-001
1.899540e+003, 8.010207e-001
1.901468e+003, 8.006449e-001
1.903397e+003, 8.009360e-001
1.905325e+003, 8.027347e-001
1.907254e+003, 8.036134e-001
1.909182e+003, 8.023272e-001
1.911110e+003, 8.017513e-001
1.913039e+003, 8.026000e-001
1.914967e+003, 8.034623e-001
1.916896e+003, 8.045037e-001
1.918824e+003, 8.036660e-001
1.920753e+003, 8.033981e-001
1.922681e+003, 8.042677e-001
1.924610e+003, 8.037349e-001
1.926538e+003, 8.043494e-001
1.928467e+003, 8.048805e-001
1.930395e+003, 8.042260e-001
1.932324e+003, 8.055139e-001
1.934252e+003, 8.071566e-001
1.936181e+003, 8.064845e-001
1.938109e+003, 8.071112e-001
1.940037e+003, 8.074253e-001
1.941966e+003, 8.073720e-001
1.943894e+003, 8.085030e-001
1.945823e+003, 8.092801e-001
1.947751e+003, 8.091727e-001
1.949680e+003, 8.090470e-001
1.951608e+003, 8.084267e-001
1.953537e+003, 8.083950e-001
1.955465e+003, 8.070038e-001
1.957394e+003, 8.096491e-001
1.959322e+003, 8.135685e-001
1.961251e+003, 8.136672e-001
1.963179e+003, 8.113135e-001
1.965108e+003, 8.114434e-001
1.967036e+003, 8.092570e-001
1.968964e+003, 8.073334e-001
1.970893e+003, 8.098874e-001
1.972821e+003, 8.129399e-001
1.974750e+003, 8.145077e-001
1.976678e+003, 8.131164e-001
1.978607e+003, 8.111818e-001
1.980535e+003, 8.119164e-001
1.982464e+003, 8.152313e-001
1.984392e+003, 8.167847e-001
1.986321e+003, 8.147684e-001
1.988249e+003, 8.116266e-001
1.990178e+003, 8.125930e-001
1.992106e+003, 8.169184e-001
1.994035e+003, 8.188702e-001
1.995963e+003, 8.213041e-001
1.997891e+003, 8.237777e-001
1.999820e+003, 8.230266e-001
2.001748e+003, 8.197562e-001
2.003677e+003, 8.180391e-001
2.005605e+003, 8.190197e-001
2.007534e+003, 8.235862e-001
2.009462e+003, 8.266448e-001
2.011391e+003, 8.269183e-001
2.013319e+003, 8.244711e-001
2.015248e+003, 8.216807e-001
2.017176e+003, 8.225397e-001
2.019105e+003, 8.226494e-001
2.021033e+003, 8.221826e-001
2.022962e+003, 8.220041e-001
2.024890e+003, 8.228787e-001
2.026818e+003, 8.224725e-001
2.028747e+003, 8.286882e-001
2.030675e+003, 8.318740e-001
2.032604e+003, 8.313453e-001
2.034532e+003, 8.287813e-001
2.036461e+003, 8.235145e-001
2.038389e+003, 8.240440e-001
2.040318e+003, 8.266535e-001
2.042246e+003, 8.289137e-001
2.044175e+003, 8.279788e-001
2.046103e+003, 8.265153e-001
2.048031e+003, 8.272243e-001
2.049960e+003, 8.296623e-001
2.051888e+003, 8.331497e-001
2.053817e+003, 8.339236e-001
2.055745e+003, 8.323744e-001
2.057674e+003, 8.329590e-001
2.059602e+003, 8.313136e-001
2.061531e+003, 8.289313e-001
2.063459e+003, 8.278849e-001
2.065388e+003, 8.279603e-001
2.067316e+003, 8.288074e-001
2.069245e+003, 8.311129e-001
2.071173e+003, 8.337997e-001
2.073102e+003, 8.338647e-001
2.075030e+003, 8.360675e-001
2.076958e+003, 8.354042e-001
2.078887e+003, 8.335417e-001
2.080815e+003, 8.353707e-001
2.082744e+003, 8.361189e-001
2.084672e+003, 8.370835e-001
2.086601e+003, 8.363628e-001
2.088529e+003, 8.357400e-001
2.090458e+003, 8.365349e-001
2.092386e+003, 8.382246e-001
2.094315e+003, 8.385651e-001
2.096243e+003, 8.388265e-001
2.098172e+003, 8.404650e-001
2.100100e+003, 8.402600e-001
2.102029e+003, 8.397839e-001
2.103957e+003, 8.417030e-001
2.105885e+003, 8.422801e-001
2.107814e+003, 8.418942e-001
2.109742e+003, 8.406934e-001
2.111671e+003, 8.404367e-001
2.113599e+003, 8.416364e-001
2.115528e+003, 8.431124e-001
2.117456e+003, 8.426977e-001
2.119385e+003, 8.430256e-001
2.121313e+003, 8.443761e-001
2.123242e+003, 8.467104e-001
2.125170e+003, 8.478216e-001
2.127099e+003, 8.473979e-001
2.129027e+003, 8.485001e-001
2.130956e+003, 8.494338e-001
2.132884e+003, 8.484794e-001
2.134813e+003, 8.476850e-001
2.136741e+003, 8.477021e-001
2.138669e+003, 8.465695e-001
2.140598e+003, 8.477908e-001
2.142526e+003, 8.474330e-001
2.144455e+003, 8.457770e-001
2.146383e+003, 8.478166e-001
2.148312e+003, 8.516114e-001
2.150240e+003, 8.509424e-001
2.152169e+003, 8.508232e-001
2.154097e+003, 8.556674e-001
2.156026e+003, 8.572361e-001
2.157954e+003, 8.592551e-001
2.159883e+003, 8.557200e-001
2.161811e+003, 8.506227e-001
2.163740e+003, 8.495374e-001
2.165668e+003, 8.521885e-001
2.167596e+003, 8.550115e-001
2.169525e+003, 8.570678e-001
2.171453e+003, 8.529866e-001
2.173382e+003, 8.545353e-001
2.175310e+003, 8.542504e-001
2.177239e+003, 8.546790e-001
2.179167e+003, 8.559553e-001
2.181096e+003, 8.560697e-001
2.183024e+003, 8.561075e-001
2.184953e+003, 8.576909e-001
2.186881e+003, 8.576751e-001
2.188810e+003, 8.579699e-001
2.190738e+003, 8.546668e-001
2.192667e+003, 8.516358e-001
2.194595e+003, 8.551223e-001
2.196523e+003, 8.595663e-001
2.198452e+003, 8.599536e-001
2.200380e+003, 8.594931e-001
2.202309e+003, 8.594890e-001
2.204237e+003, 8.607013e-001
2.206166e+003, 8.586594e-001
2.208094e+003, 8.570316e-001
2.210023e+003, 8.587027e-001
2.211951e+003, 8.593956e-001
2.213880e+003, 8.590729e-001
2.215808e+003, 8.580385e-001
2.217737e+003, 8.603806e-001
2.219665e+003, 8.645333e-001
2.221594e+003, 8.637297e-001
2.223522e+003, 8.613494e-001
2.225450e+003, 8.600886e-001
2.227379e+003, 8.605183e-001
2.229307e+003, 8.625814e-001
2.231236e+003, 8.647488e-001
2.233164e+003, 8.645380e-001
2.235093e+003, 8.651943e-001
2.237021e+003, 8.658583e-001
2.238950e+003, 8.673502e-001
2.240878e+003, 8.688747e-001
2.242807e+003, 8.680275e-001
2.244735e+003, 8.679147e-001
2.246664e+003, 8.682829e-001
2.248592e+003, 8.693522e-001
2.250521e+003, 8.701075e-001
2.252449e+003, 8.697166e-001
2.254377e+003, 8.684724e-001
2.256306e+003, 8.673636e-001
2.258234e+003, 8.674901e-001
2.260163e+003, 8.685799e-001
2.262091e+003, 8.693463e-001
2.264020e+003, 8.693423e-001
2.265948e+003, 8.695179e-001
2.267877e+003, 8.689705e-001
2.269805e+003, 8.711815e-001
2.271734e+003, 8.749141e-001
2.273662e+003, 8.764576e-001
2.275591e+003, 8.768771e-001
2.277519e+003, 8.768252e-001
2.279448e+003, 8.766204e-001
2.281376e+003, 8.762305e-001
2.283304e+003, 8.756663e-001
2.285233e+003, 8.760920e-001
2.287161e+003, 8.761474e-001
2.289090e+003, 8.753425e-001
2.291018e+003, 8.759862e-001
2.292947e+003, 8.774745e-001
2.294875e+003, 8.772793e-001
2.296804e+003, 8.770863e-001
2.298732e+003, 8.776035e-001
2.300661e+003, 8.799110e-001
2.302589e+003, 8.811915e-001
2.304518e+003, 8.805847e-001
2.306446e+003, 8.790054e-001
2.308375e+003, 8.791000e-001
2.310303e+003, 8.800480e-001
2.312231e+003, 8.816743e-001
2.314160e+003, 8.821190e-001
2.316088e+003, 8.815455e-001
2.318017e+003, 8.820844e-001
2.319945e+003, 8.830424e-001
2.321874e+003, 8.832053e-001
2.323802e+003, 8.835930e-001
2.325731e+003, 8.842901e-001
2.327659e+003, 8.848353e-001
2.329588e+003, 8.849265e-001
2.331516e+003, 8.845797e-001
2.333445e+003, 8.856025e-001
2.335373e+003, 8.868988e-001
2.337302e+003, 8.868515e-001
2.339230e+003, 8.867022e-001
2.341158e+003, 8.874346e-001
2.343087e+003, 8.882222e-001
2.345015e+003, 8.884416e-001
2.346944e+003, 8.893117e-001
2.348872e+003, 8.893881e-001
2.350801e+003, 8.894324e-001
2.352729e+003, 8.886220e-001
2.354658e+003, 8.882096e-001
2.356586e+003, 8.890454e-001
2.358515e+003, 8.893158e-001
2.360443e+003, 8.898453e-001
2.362372e+003, 8.902950e-001
2.364300e+003, 8.911051e-001
2.366229e+003, 8.915935e-001
2.368157e+003, 8.918580e-001
2.370085e+003, 8.922662e-001
2.372014e+003, 8.933200e-001
2.373942e+003, 8.938230e-001
2.375871e+003, 8.933323e-001
2.377799e+003, 8.926404e-001
2.379728e+003, 8.934253e-001
2.381656e+003, 8.939098e-001
2.383585e+003, 8.934664e-001
2.385513e+003, 8.943154e-001
2.387442e+003, 8.953468e-001
2.389370e+003, 8.960646e-001
2.391299e+003, 8.957440e-001
2.393227e+003, 8.963231e-001
2.395156e+003, 8.967977e-001
2.397084e+003, 8.956203e-001
2.399012e+003, 8.952023e-001
2.400941e+003, 8.967656e-001
2.402869e+003, 8.960360e-001
2.404798e+003, 8.949564e-001
2.406726e+003, 8.960474e-001
2.408655e+003, 8.971276e-001
2.410583e+003, 8.979525e-001
2.412512e+003, 8.988394e-001
2.414440e+003, 8.992096e-001
2.416369e+003, 8.997529e-001
2.418297e+003, 8.994684e-001
2.420226e+003, 8.981190e-001
2.422154e+003, 8.975191e-001
2.424083e+003, 8.995880e-001
2.426011e+003, 9.007308e-001
2.427939e+003, 9.008364e-001
2.429868e+003, 9.013126e-001
2.431796e+003, 9.017937e-001
2.433725e+003, 9.001622e-001
2.435653e+003, 9.002210e-001
2.437582e+003, 9.004461e-001
2.439510e+003, 9.005955e-001
2.441439e+003, 9.014191e-001
2.443367e+003, 9.015806e-001
2.445296e+003, 9.020340e-001
2.447224e+003, 9.025255e-001
2.449153e+003, 9.026044e-001
2.451081e+003, 9.030085e-001
2.453010e+003, 9.037285e-001
2.454938e+003, 9.040939e-001
2.456866e+003, 9.040458e-001
2.458795e+003, 9.039388e-001
2.460723e+003, 9.045897e-001
2.462652e+003, 9.055010e-001
2.464580e+003, 9.056208e-001
2.466509e+003, 9.055805e-001
2.468437e+003, 9.057202e-001
2.470366e+003, 9.064364e-001
2.472294e+003, 9.067311e-001
2.474223e+003, 9.067437e-001
2.476151e+003, 9.071479e-001
2.478080e+003, 9.075044e-001
2.480008e+003, 9.080677e-001
2.481937e+003, 9.086054e-001
2.483865e+003, 9.078591e-001
2.485793e+003, 9.080609e-001
2.487722e+003, 9.091594e-001
2.489650e+003, 9.099304e-001
2.491579e+003, 9.102680e-001
2.493507e+003, 9.100804e-001
2.495436e+003, 9.104552e-001
2.497364e+003, 9.109545e-001
2.499293e+003, 9.115109e-001
2.501221e+003, 9.117609e-001
2.503150e+003, 9.119998e-001
2.505078e+003, 9.120603e-001
2.507007e+003, 9.121613e-001
2.508935e+003, 9.123621e-001
2.510864e+003, 9.126706e-001
2.512792e+003, 9.123313e-001
2.514720e+003, 9.123697e-001
2.516649e+003, 9.135067e-001
2.518577e+003, 9.143981e-001
2.520506e+003, 9.148437e-001
2.522434e+003, 9.143935e-001
2.524363e+003, 9.142058e-001
2.526291e+003, 9.150271e-001
2.528220e+003, 9.153787e-001
2.530148e+003, 9.158995e-001
2.532077e+003, 9.168714e-001
2.534005e+003, 9.166977e-001
2.535934e+003, 9.159621e-001
2.537862e+003, 9.162663e-001
2.539791e+003, 9.174419e-001
2.541719e+003, 9.180820e-001
2.543647e+003, 9.182119e-001
2.545576e+003, 9.186990e-001
2.547504e+003, 9.191649e-001
2.549433e+003, 9.196599e-001
2.551361e+003, 9.207553e-001
2.553290e+003, 9.215120e-001
2.555218e+003, 9.210646e-001
2.557147e+003, 9.205709e-001
2.559075e+003, 9.207283e-001
2.561004e+003, 9.214327e-001
2.562932e+003, 9.223062e-001
2.564861e+003, 9.226732e-001
2.566789e+003, 9.228364e-001
2.568718e+003, 9.230043e-001
2.570646e+003, 9.232718e-001
2.572574e+003, 9.238334e-001
2.574503e+003, 9.240470e-001
2.576431e+003, 9.245305e-001
2.578360e+003, 9.255798e-001
2.580288e+003, 9.258099e-001
2.582217e+003, 9.260265e-001
2.584145e+003, 9.264898e-001
2.586074e+003, 9.269955e-001
2.588002e+003, 9.277591e-001
2.589931e+003, 9.286284e-001
2.591859e+003, 9.292492e-001
2.593788e+003, 9.296085e-001
2.595716e+003, 9.300006e-001
2.597645e+003, 9.308054e-001
2.599573e+003, 9.311385e-001
2.601501e+003, 9.313381e-001
2.603430e+003, 9.319201e-001
2.605358e+003, 9.330942e-001
2.607287e+003, 9.336598e-001
2.609215e+003, 9.339839e-001
2.611144e+003, 9.341798e-001
2.613072e+003, 9.345900e-001
2.615001e+003, 9.351034e-001
2.616929e+003, 9.357350e-001
2.618858e+003, 9.364923e-001
2.620786e+003, 9.369626e-001
2.622715e+003, 9.374520e-001
2.624643e+003, 9.381262e-001
2.626572e+003, 9.389468e-001
2.628500e+003, 9.390308e-001
2.630428e+003, 9.397832e-001
2.632357e+003, 9.411513e-001
2.634285e+003, 9.413102e-001
2.636214e+003, 9.421583e-001
2.638142e+003, 9.431115e-001
2.640071e+003, 9.433132e-001
2.641999e+003, 9.436358e-001
2.643928e+003, 9.443798e-001
2.645856e+003, 9.450916e-001
2.647785e+003, 9.458769e-001
2.649713e+003, 9.464561e-001
2.651642e+003, 9.466193e-001
2.653570e+003, 9.468660e-001
2.655499e+003, 9.475996e-001
2.657427e+003, 9.481408e-001
2.659355e+003, 9.489950e-001
2.661284e+003, 9.494929e-001
2.663212e+003, 9.495975e-001
2.665141e+003, 9.496275e-001
2.667069e+003, 9.496499e-001
2.668998e+003, 9.503520e-001
2.670926e+003, 9.508861e-001
2.672855e+003, 9.509418e-001
2.674783e+003, 9.513174e-001
2.676712e+003, 9.518441e-001
2.678640e+003, 9.523771e-001
2.680569e+003, 9.525859e-001
2.682497e+003, 9.521444e-001
2.684426e+003, 9.526383e-001
2.686354e+003, 9.537765e-001
2.688282e+003, 9.541150e-001
2.690211e+003, 9.542068e-001
2.692139e+003, 9.544899e-001
2.694068e+003, 9.548631e-001
2.695996e+003, 9.552533e-001
2.697925e+003, 9.555582e-001
2.699853e+003, 9.555698e-001
2.701782e+003, 9.554531e-001
2.703710e+003, 9.559644e-001
2.705639e+003, 9.568880e-001
2.707567e+003, 9.574041e-001
2.709496e+003, 9.576605e-001
2.711424e+003, 9.578224e-001
2.713353e+003, 9.583457e-001
2.715281e+003, 9.588188e-001
2.717209e+003, 9.590684e-001
2.719138e+003, 9.591215e-001
2.721066e+003, 9.592741e-001
2.722995e+003, 9.595414e-001
2.724923e+003, 9.596617e-001
2.726852e+003, 9.598644e-001
2.728780e+003, 9.604093e-001
2.730709e+003, 9.608496e-001
2.732637e+003, 9.613538e-001
2.734566e+003, 9.618109e-001
2.736494e+003, 9.615877e-001
2.738423e+003, 9.616145e-001
2.740351e+003, 9.619308e-001
2.742280e+003, 9.625033e-001
2.744208e+003, 9.631237e-001
2.746136e+003, 9.629105e-001
2.748065e+003, 9.629456e-001
2.749993e+003, 9.636645e-001
2.751922e+003, 9.643287e-001
2.753850e+003, 9.642434e-001
2.755779e+003, 9.645948e-001
2.757707e+003, 9.651659e-001
2.759636e+003, 9.651726e-001
2.761564e+003, 9.651127e-001
2.763493e+003, 9.653316e-001
2.765421e+003, 9.657400e-001
2.767350e+003, 9.662421e-001
2.769278e+003, 9.664794e-001
2.771207e+003, 9.666162e-001
2.773135e+003, 9.670136e-001
2.775063e+003, 9.673688e-001
2.776992e+003, 9.675062e-001
2.778920e+003, 9.674182e-001
2.780849e+003, 9.674480e-001
2.782777e+003, 9.678236e-001
2.784706e+003, 9.683065e-001
2.786634e+003, 9.688173e-001
2.788563e+003, 9.696476e-001
2.790491e+003, 9.701476e-001
2.792420e+003, 9.704260e-001
2.794348e+003, 9.704543e-001
2.796277e+003, 9.704111e-001
2.798205e+003, 9.704077e-001
2.800134e+003, 9.708905e-001
2.802062e+003, 9.713862e-001
2.803990e+003, 9.712573e-001
2.805919e+003, 9.714572e-001
2.807847e+003, 9.721500e-001
2.809776e+003, 9.724145e-001
2.811704e+003, 9.724218e-001
2.813633e+003, 9.724444e-001
2.815561e+003, 9.730045e-001
2.817490e+003, 9.730599e-001
2.819418e+003, 9.730119e-001
2.821347e+003, 9.737599e-001
2.823275e+003, 9.741368e-001
2.825204e+003, 9.745549e-001
2.827132e+003, 9.748527e-001
2.829061e+003, 9.749602e-001
2.830989e+003, 9.749888e-001
2.832917e+003, 9.753667e-001
2.834846e+003, 9.759514e-001
2.836774e+003, 9.762325e-001
2.838703e+003, 9.761071e-001
2.840631e+003, 9.761036e-001
2.842560e+003, 9.756247e-001
2.844488e+003, 9.749198e-001
2.846417e+003, 9.740102e-001
2.848345e+003, 9.728103e-001
2.850274e+003, 9.717890e-001
2.852202e+003, 9.714204e-001
2.854131e+003, 9.715967e-001
2.856059e+003, 9.726568e-001
2.857988e+003, 9.738084e-001
2.859916e+003, 9.748369e-001
2.861844e+003, 9.755377e-001
2.863773e+003, 9.764066e-001
2.865701e+003, 9.770494e-001
2.867630e+003, 9.774523e-001
2.869558e+003, 9.773468e-001
2.871487e+003, 9.772527e-001
2.873415e+003, 9.780890e-001
2.875344e+003, 9.789872e-001
2.877272e+003, 9.797479e-001
2.879201e+003, 9.803193e-001
2.881129e+003, 9.806291e-001
2.883058e+003, 9.809681e-001
2.884986e+003, 9.814550e-001
2.886915e+003, 9.815681e-001
2.888843e+003, 9.817768e-001
2.890771e+003, 9.817961e-001
2.892700e+003, 9.820980e-001
2.894628e+003, 9.824465e-001
2.896557e+003, 9.820065e-001
2.898485e+003, 9.814650e-001
2.900414e+003, 9.818265e-001
2.902342e+003, 9.825483e-001
2.904271e+003, 9.819267e-001
2.906199e+003, 9.820480e-001
2.908128e+003, 9.817256e-001
2.910056e+003, 9.809756e-001
2.911985e+003, 9.810324e-001
2.913913e+003, 9.806128e-001
2.915842e+003, 9.793352e-001
2.917770e+003, 9.781611e-001
2.919698e+003, 9.777691e-001
2.921627e+003, 9.775457e-001
2.923555e+003, 9.777838e-001
2.925484e+003, 9.778385e-001
2.927412e+003, 9.779133e-001
2.929341e+003, 9.780578e-001
2.931269e+003, 9.791935e-001
2.933198e+003, 9.806936e-001
2.935126e+003, 9.821342e-001
2.937055e+003, 9.835956e-001
2.938983e+003, 9.841748e-001
2.940912e+003, 9.849086e-001
2.942840e+003, 9.854105e-001
2.944769e+003, 9.854245e-001
2.946697e+003, 9.864640e-001
2.948625e+003, 9.873884e-001
2.950554e+003, 9.874182e-001
2.952482e+003, 9.873297e-001
2.954411e+003, 9.875170e-001
2.956339e+003, 9.875870e-001
2.958268e+003, 9.878661e-001
2.960196e+003, 9.885409e-001
2.962125e+003, 9.892148e-001
2.964053e+003, 9.894937e-001
2.965982e+003, 9.895845e-001
2.967910e+003, 9.898982e-001
2.969839e+003, 9.904332e-001
2.971767e+003, 9.915695e-001
2.973696e+003, 9.925309e-001
2.975624e+003, 9.930407e-001
2.977552e+003, 9.935754e-001
2.979481e+003, 9.933347e-001
2.981409e+003, 9.932616e-001
2.983338e+003, 9.940411e-001
2.985266e+003, 9.947836e-001
2.987195e+003, 9.950718e-001
2.989123e+003, 9.952373e-001
2.991052e+003, 9.960095e-001
2.992980e+003, 9.964136e-001
2.994909e+003, 9.967296e-001
2.996837e+003, 9.969030e-001
2.998766e+003, 9.967130e-001
3.000694e+003, 9.971352e-001
3.002623e+003, 9.975435e-001
3.004551e+003, 9.976106e-001
3.006479e+003, 9.977623e-001
3.008408e+003, 9.984223e-001
3.010336e+003, 9.990077e-001
3.012265e+003, 9.993865e-001
3.014193e+003, 9.991465e-001
3.016122e+003, 9.989721e-001
3.018050e+003, 9.991512e-001
3.019979e+003, 9.996907e-001
3.021907e+003, 9.999236e-001
3.023836e+003, 1.000172e+000
3.025764e+003, 1.001137e+000
3.027693e+003, 1.002027e+000
3.029621e+003, 1.002703e+000
3.031550e+003, 1.002643e+000
3.033478e+003, 1.002622e+000
3.035406e+003, 1.002408e+000
3.037335e+003, 1.002643e+000
3.039263e+003, 1.003277e+000
3.041192e+003, 1.003870e+000
3.043120e+003, 1.004438e+000
3.045049e+003, 1.004190e+000
3.046977e+003, 1.004258e+000
3.048906e+003, 1.004896e+000
3.050834e+003, 1.005108e+000
3.052763e+003, 1.005381e+000
3.054691e+003, 1.006100e+000
3.056620e+003, 1.006485e+000
3.058548e+003, 1.006355e+000
3.060477e+003, 1.006598e+000
3.062405e+003, 1.007167e+000
3.064333e+003, 1.008059e+000
3.066262e+003, 1.008542e+000
3.068190e+003, 1.008024e+000
3.070119e+003, 1.007620e+000
3.072047e+003, 1.008198e+000
3.073976e+003, 1.008809e+000
3.075904e+003, 1.009195e+000
3.077833e+003, 1.009392e+000
3.079761e+003, 1.009702e+000
3.081690e+003, 1.010063e+000
3.083618e+003, 1.009872e+000
3.085547e+003, 1.010164e+000
3.087475e+003, 1.009997e+000
3.089404e+003, 1.010392e+000
3.091332e+003, 1.011333e+000
3.093260e+003, 1.011669e+000
3.095189e+003, 1.011971e+000
3.097117e+003, 1.012450e+000
3.099046e+003, 1.012457e+000
3.100974e+003, 1.012872e+000
3.102903e+003, 1.013519e+000
3.104831e+003, 1.013594e+000
3.106760e+003, 1.014049e+000
3.108688e+003, 1.014629e+000
3.110617e+003, 1.014536e+000
3.112545e+003, 1.014792e+000
3.114474e+003, 1.015025e+000
3.116402e+003, 1.014636e+000
3.118331e+003, 1.014904e+000
3.120259e+003, 1.014950e+000
3.122188e+003, 1.015548e+000
3.124116e+003, 1.016471e+000
3.126044e+003, 1.016964e+000
3.127973e+003, 1.016869e+000
3.129901e+003, 1.016451e+000
3.131830e+003, 1.017303e+000
3.133758e+003, 1.018369e+000
3.135687e+003, 1.018709e+000
3.137615e+003, 1.018550e+000
3.139544e+003, 1.018958e+000
3.141472e+003, 1.018898e+000
3.143401e+003, 1.019183e+000
3.145329e+003, 1.019946e+000
3.147258e+003, 1.020322e+000
3.149186e+003, 1.020499e+000
3.151115e+003, 1.021280e+000
3.153043e+003, 1.021481e+000
3.154971e+003, 1.021352e+000
3.156900e+003, 1.021256e+000
3.158828e+003, 1.021737e+000
3.160757e+003, 1.021943e+000
3.162685e+003, 1.021402e+000
3.164614e+003, 1.021333e+000
3.166542e+003, 1.021888e+000
3.168471e+003, 1.022777e+000
3.170399e+003, 1.023770e+000
3.172328e+003, 1.024369e+000
3.174256e+003, 1.024417e+000
3.176185e+003, 1.023845e+000
3.178113e+003, 1.024038e+000
3.180042e+003, 1.024649e+000
3.181970e+003, 1.025275e+000
3.183898e+003, 1.025715e+000
3.185827e+003, 1.025660e+000
3.187755e+003, 1.025603e+000
3.189684e+003, 1.025940e+000
3.191612e+003, 1.026863e+000
3.193541e+003, 1.027288e+000
3.195469e+003, 1.026330e+000
3.197398e+003, 1.026098e+000
3.199326e+003, 1.026702e+000
3.201255e+003, 1.027620e+000
3.203183e+003, 1.027773e+000
3.205112e+003, 1.028469e+000
3.207040e+003, 1.030111e+000
3.208969e+003, 1.030929e+000
3.210897e+003, 1.030181e+000
3.212825e+003, 1.029751e+000
3.214754e+003, 1.029770e+000
3.216682e+003, 1.029940e+000
3.218611e+003, 1.031469e+000
3.220539e+003, 1.032878e+000
3.222468e+003, 1.032760e+000
3.224396e+003, 1.031815e+000
3.226325e+003, 1.032202e+000
3.228253e+003, 1.033491e+000
3.230182e+003, 1.033848e+000
3.232110e+003, 1.033905e+000
3.234039e+003, 1.033642e+000
3.235967e+003, 1.033959e+000
3.237896e+003, 1.034533e+000
3.239824e+003, 1.034757e+000
3.241752e+003, 1.035345e+000
3.243681e+003, 1.035726e+000
3.245609e+003, 1.035423e+000
3.247538e+003, 1.036099e+000
3.249466e+003, 1.037216e+000
3.251395e+003, 1.036908e+000
3.253323e+003, 1.037321e+000
3.255252e+003, 1.037894e+000
3.257180e+003, 1.037394e+000
3.259109e+003, 1.037203e+000
3.261037e+003, 1.037979e+000
3.262966e+003, 1.038844e+000
3.264894e+003, 1.039306e+000
3.266823e+003, 1.039578e+000
3.268751e+003, 1.040123e+000
3.270679e+003, 1.041003e+000
3.272608e+003, 1.041067e+000
3.274536e+003, 1.040254e+000
3.276465e+003, 1.040236e+000
3.278393e+003, 1.041090e+000
3.280322e+003, 1.041531e+000
3.282250e+003, 1.041412e+000
3.284179e+003, 1.041486e+000
3.286107e+003, 1.042352e+000
3.288036e+003, 1.042723e+000
3.289964e+003, 1.042641e+000
3.291893e+003, 1.042669e+000
3.293821e+003, 1.043386e+000
3.295750e+003, 1.044328e+000
3.297678e+003, 1.043946e+000
3.299606e+003, 1.043711e+000
3.301535e+003, 1.043813e+000
3.303463e+003, 1.044613e+000
3.305392e+003, 1.045552e+000
3.307320e+003, 1.046092e+000
3.309249e+003, 1.046330e+000
3.311177e+003, 1.046344e+000
3.313106e+003, 1.046408e+000
3.315034e+003, 1.046736e+000
3.316963e+003, 1.047856e+000
3.318891e+003, 1.048594e+000
3.320820e+003, 1.048448e+000
3.322748e+003, 1.047858e+000
3.324677e+003, 1.047782e+000
3.326605e+003, 1.048069e+000
3.328533e+003, 1.048957e+000
3.330462e+003, 1.050275e+000
3.332390e+003, 1.050378e+000
3.334319e+003, 1.049818e+000
3.336247e+003, 1.049978e+000
3.338176e+003, 1.051359e+000
3.340104e+003, 1.052133e+000
3.342033e+003, 1.052498e+000
3.343961e+003, 1.052782e+000
3.345890e+003, 1.051908e+000
3.347818e+003, 1.051602e+000
3.349747e+003, 1.051522e+000
3.351675e+003, 1.051679e+000
3.353604e+003, 1.052478e+000
3.355532e+003, 1.052142e+000
3.357460e+003, 1.051780e+000
3.359389e+003, 1.052815e+000
3.361317e+003, 1.054040e+000
3.363246e+003, 1.055130e+000
3.365174e+003, 1.054825e+000
3.367103e+003, 1.055161e+000
3.369031e+003, 1.056446e+000
3.370960e+003, 1.056413e+000
3.372888e+003, 1.055516e+000
3.374817e+003, 1.055990e+000
3.376745e+003, 1.055977e+000
3.378674e+003, 1.055906e+000
3.380602e+003, 1.056445e+000
3.382531e+003, 1.057092e+000
3.384459e+003, 1.057534e+000
3.386387e+003, 1.057285e+000
3.388316e+003, 1.058095e+000
3.390244e+003, 1.058651e+000
3.392173e+003, 1.058131e+000
3.394101e+003, 1.057966e+000
3.396030e+003, 1.058093e+000
3.397958e+003, 1.057967e+000
3.399887e+003, 1.058883e+000
3.401815e+003, 1.059498e+000
3.403744e+003, 1.059690e+000
3.405672e+003, 1.059608e+000
3.407601e+003, 1.060048e+000
3.409529e+003, 1.060905e+000
3.411458e+003, 1.060559e+000
3.413386e+003, 1.060405e+000
3.415314e+003, 1.061418e+000
3.417243e+003, 1.061916e+000
3.419171e+003, 1.061757e+000
3.421100e+003, 1.061771e+000
3.423028e+003, 1.062158e+000
3.424957e+003, 1.062490e+000
3.426885e+003, 1.063201e+000
3.428814e+003, 1.063289e+000
3.430742e+003, 1.063601e+000
3.432671e+003, 1.064540e+000
3.434599e+003, 1.064184e+000
3.436528e+003, 1.064524e+000
3.438456e+003, 1.065556e+000
3.440385e+003, 1.065494e+000
3.442313e+003, 1.065938e+000
3.444241e+003, 1.065703e+000
3.446170e+003, 1.065580e+000
3.448098e+003, 1.067292e+000
3.450027e+003, 1.067881e+000
3.451955e+003, 1.066978e+000
3.453884e+003, 1.066513e+000
3.455812e+003, 1.067428e+000
3.457741e+003, 1.068154e+000
3.459669e+003, 1.068293e+000
3.461598e+003, 1.068755e+000
3.463526e+003, 1.068521e+000
3.465455e+003, 1.068318e+000
3.467383e+003, 1.068613e+000
3.469312e+003, 1.070110e+000
3.471240e+003, 1.071447e+000
3.473168e+003, 1.071536e+000
3.475097e+003, 1.071802e+000
3.477025e+003, 1.071664e+000
3.478954e+003, 1.071575e+000
3.480882e+003, 1.071934e+000
3.482811e+003, 1.071272e+000
3.484739e+003, 1.071112e+000
3.486668e+003, 1.072431e+000
3.488596e+003, 1.072476e+000
3.490525e+003, 1.072524e+000
3.492453e+003, 1.073328e+000
3.494382e+003, 1.073906e+000
3.496310e+003, 1.073642e+000
3.498239e+003, 1.073517e+000
3.500167e+003, 1.073937e+000
3.502095e+003, 1.074235e+000
3.504024e+003, 1.074524e+000
3.505952e+003, 1.075280e+000
3.507881e+003, 1.075910e+000
3.509809e+003, 1.076450e+000
3.511738e+003, 1.076474e+000
3.513666e+003, 1.076590e+000
3.515595e+003, 1.077650e+000
3.517523e+003, 1.078161e+000
3.519452e+003, 1.077498e+000
3.521380e+003, 1.078206e+000
3.523309e+003, 1.078727e+000
3.525237e+003, 1.078338e+000
3.527166e+003, 1.078331e+000
3.529094e+003, 1.078752e+000
3.531022e+003, 1.079434e+000
3.532951e+003, 1.079474e+000
3.534879e+003, 1.079692e+000
3.536808e+003, 1.080651e+000
3.538736e+003, 1.081344e+000
3.540665e+003, 1.081190e+000
3.542593e+003, 1.081417e+000
3.544522e+003, 1.081727e+000
3.546450e+003, 1.082234e+000
3.548379e+003, 1.082859e+000
3.550307e+003, 1.083246e+000
3.552236e+003, 1.083024e+000
3.554164e+003, 1.082931e+000
3.556093e+003, 1.083121e+000
3.558021e+003, 1.083542e+000
3.559949e+003, 1.083997e+000
3.561878e+003, 1.084972e+000
3.563806e+003, 1.084980e+000
3.565735e+003, 1.084679e+000
3.567663e+003, 1.084800e+000
3.569592e+003, 1.085343e+000
3.571520e+003, 1.086779e+000
3.573449e+003, 1.086204e+000
3.575377e+003, 1.084862e+000
3.577306e+003, 1.085840e+000
3.579234e+003, 1.087349e+000
3.581163e+003, 1.086739e+000
3.583091e+003, 1.085699e+000
3.585020e+003, 1.086722e+000
3.586948e+003, 1.088526e+000
3.588876e+003, 1.088918e+000
3.590805e+003, 1.089388e+000
3.592733e+003, 1.090052e+000
3.594662e+003, 1.090449e+000
3.596590e+003, 1.090376e+000
3.598519e+003, 1.089944e+000
3.600447e+003, 1.090123e+000
3.602376e+003, 1.090714e+000
3.604304e+003, 1.090022e+000
3.606233e+003, 1.089227e+000
3.608161e+003, 1.089897e+000
3.610090e+003, 1.091504e+000
3.612018e+003, 1.092314e+000
3.613947e+003, 1.092582e+000
3.615875e+003, 1.093050e+000
3.617803e+003, 1.093378e+000
3.619732e+003, 1.093083e+000
3.621660e+003, 1.093681e+000
3.623589e+003, 1.094999e+000
3.625517e+003, 1.094657e+000
3.627446e+003, 1.094330e+000
3.629374e+003, 1.095167e+000
3.631303e+003, 1.095759e+000
3.633231e+003, 1.095276e+000
3.635160e+003, 1.095456e+000
3.637088e+003, 1.095957e+000
3.639017e+003, 1.095532e+000
3.640945e+003, 1.095931e+000
3.642874e+003, 1.097075e+000
3.644802e+003, 1.097829e+000
3.646730e+003, 1.097274e+000
3.648659e+003, 1.097708e+000
3.650587e+003, 1.100131e+000
3.652516e+003, 1.100852e+000
3.654444e+003, 1.099093e+000
3.656373e+003, 1.098066e+000
3.658301e+003, 1.098003e+000
3.660230e+003, 1.098534e+000
3.662158e+003, 1.100492e+000
3.664087e+003, 1.101957e+000
3.666015e+003, 1.102033e+000
3.667944e+003, 1.100677e+000
3.669872e+003, 1.099991e+000
3.671801e+003, 1.101044e+000
3.673729e+003, 1.103242e+000
3.675657e+003, 1.103871e+000
3.677586e+003, 1.102285e+000
3.679514e+003, 1.103107e+000
3.681443e+003, 1.104064e+000
3.683371e+003, 1.103087e+000
3.685300e+003, 1.102198e+000
3.687228e+003, 1.103156e+000
3.689157e+003, 1.104165e+000
3.691085e+003, 1.104265e+000
3.693014e+003, 1.104890e+000
3.694942e+003, 1.105471e+000
3.696871e+003, 1.105299e+000
3.698799e+003, 1.105913e+000
3.700728e+003, 1.106586e+000
3.702656e+003, 1.106771e+000
3.704584e+003, 1.107699e+000
3.706513e+003, 1.108757e+000
3.708441e+003, 1.109156e+000
3.710370e+003, 1.109009e+000
3.712298e+003, 1.109600e+000
3.714227e+003, 1.109737e+000
3.716155e+003, 1.109761e+000
3.718084e+003, 1.110879e+000
3.720012e+003, 1.110672e+000
3.721941e+003, 1.110786e+000
3.723869e+003, 1.111050e+000
3.725798e+003, 1.112359e+000
3.727726e+003, 1.113334e+000
3.729655e+003, 1.113218e+000
3.731583e+003, 1.112806e+000
3.733511e+003, 1.113065e+000
3.735440e+003, 1.114709e+000
3.737368e+003, 1.115645e+000
3.739297e+003, 1.115147e+000
3.741225e+003, 1.115001e+000
3.743154e+003, 1.115660e+000
3.745082e+003, 1.114849e+000
3.747011e+003, 1.114709e+000
3.748939e+003, 1.115921e+000
3.750868e+003, 1.116647e+000
3.752796e+003, 1.116253e+000
3.754725e+003, 1.115491e+000
3.756653e+003, 1.115489e+000
3.758582e+003, 1.115900e+000
3.760510e+003, 1.115781e+000
3.762438e+003, 1.116270e+000
3.764367e+003, 1.117125e+000
3.766295e+003, 1.117056e+000
3.768224e+003, 1.117440e+000
3.770152e+003, 1.118205e+000
3.772081e+003, 1.118565e+000
3.774009e+003, 1.118744e+000
3.775938e+003, 1.119431e+000
3.777866e+003, 1.119308e+000
3.779795e+003, 1.119349e+000
3.781723e+003, 1.119781e+000
3.783652e+003, 1.119698e+000
3.785580e+003, 1.118870e+000
3.787509e+003, 1.119920e+000
3.789437e+003, 1.121263e+000
3.791365e+003, 1.121401e+000
3.793294e+003, 1.120393e+000
3.795222e+003, 1.120582e+000
3.797151e+003, 1.121171e+000
3.799079e+003, 1.121872e+000
3.801008e+003, 1.123347e+000
3.802936e+003, 1.123270e+000
3.804865e+003, 1.122498e+000
3.806793e+003, 1.123162e+000
3.808722e+003, 1.123351e+000
3.810650e+003, 1.123805e+000
3.812579e+003, 1.124949e+000
3.814507e+003, 1.125483e+000
3.816436e+003, 1.126132e+000
3.818364e+003, 1.126340e+000
3.820292e+003, 1.125789e+000
3.822221e+003, 1.125020e+000
3.824149e+003, 1.125676e+000
3.826078e+003, 1.126424e+000
3.828006e+003, 1.126384e+000
3.829935e+003, 1.126767e+000
3.831863e+003, 1.126912e+000
3.833792e+003, 1.127342e+000
3.835720e+003, 1.127218e+000
3.837649e+003, 1.127908e+000
3.839577e+003, 1.128045e+000
3.841506e+003, 1.127766e+000
3.843434e+003, 1.128350e+000
3.845363e+003, 1.129904e+000
3.847291e+003, 1.129795e+000
3.849219e+003, 1.128984e+000
3.851148e+003, 1.130452e+000
3.853076e+003, 1.131391e+000
3.855005e+003, 1.130929e+000
3.856933e+003, 1.130576e+000
3.858862e+003, 1.130379e+000
3.860790e+003, 1.130534e+000
3.862719e+003, 1.130877e+000
3.864647e+003, 1.130582e+000
3.866576e+003, 1.131167e+000
3.868504e+003, 1.132252e+000
3.870433e+003, 1.132788e+000
3.872361e+003, 1.133582e+000
3.874290e+003, 1.133726e+000
3.876218e+003, 1.133142e+000
3.878146e+003, 1.133094e+000
3.880075e+003, 1.134253e+000
3.882003e+003, 1.134585e+000
3.883932e+003, 1.134884e+000
3.885860e+003, 1.135163e+000
3.887789e+003, 1.134940e+000
3.889717e+003, 1.135436e+000
3.891646e+003, 1.136106e+000
3.893574e+003, 1.136367e+000
3.895503e+003, 1.136176e+000
3.897431e+003, 1.135334e+000
3.899360e+003, 1.135801e+000
3.901288e+003, 1.136929e+000
3.903217e+003, 1.136989e+000
3.905145e+003, 1.137661e+000
3.907073e+003, 1.137598e+000
3.909002e+003, 1.138266e+000
3.910930e+003, 1.139048e+000
3.912859e+003, 1.139513e+000
3.914787e+003, 1.139187e+000
3.916716e+003, 1.139019e+000
3.918644e+003, 1.139158e+000
3.920573e+003, 1.139311e+000
3.922501e+003, 1.139341e+000
3.924430e+003, 1.139327e+000
3.926358e+003, 1.139992e+000
3.928287e+003, 1.140700e+000
3.930215e+003, 1.140746e+000
3.932144e+003, 1.141751e+000
3.934072e+003, 1.142346e+000
3.936000e+003, 1.142174e+000
3.937929e+003, 1.140574e+000
3.939857e+003, 1.141811e+000
3.941786e+003, 1.144033e+000
3.943714e+003, 1.143385e+000
3.945643e+003, 1.143174e+000
3.947571e+003, 1.143728e+000
3.949500e+003, 1.143664e+000
3.951428e+003, 1.143522e+000
3.953357e+003, 1.142701e+000
3.955285e+003, 1.143398e+000
3.957214e+003, 1.144491e+000
3.959142e+003, 1.144210e+000
3.961071e+003, 1.143545e+000
3.962999e+003, 1.144514e+000
3.964927e+003, 1.145565e+000
3.966856e+003, 1.146020e+000
3.968784e+003, 1.145143e+000
3.970713e+003, 1.145355e+000
3.972641e+003, 1.146507e+000
3.974570e+003, 1.146604e+000
3.976498e+003, 1.146221e+000
3.978427e+003, 1.145588e+000
3.980355e+003, 1.146035e+000
3.982284e+003, 1.147441e+000
3.984212e+003, 1.148442e+000
3.986141e+003, 1.148937e+000
3.988069e+003, 1.149001e+000
3.989998e+003, 1.149230e+000
3.991926e+003, 1.149600e+000
3.993854e+003, 1.149717e+000
3.995783e+003, 1.149327e+000
3.997711e+003, 1.148663e+000
3.999640e+003, 1.149296e+000
##END=



