##NAMES=Phlogopite
##RRUFFID=R050068
##IDEAL CHEMISTRY=KMg_3_(Si_3_Al)O_10_(OH)_2_
##LOCALITY=S.W. Jasper County, Georgia, USA
##OWNER=RRUFF
##SOURCE=Rock Currier
##DESCRIPTION=Dark brown micaceous single crystal
##STATUS=The identification of this mineral has been confirmed by X-ray diffraction and chemical analysis
##URL=rruff.info/R050068
##MEASURED CHEMISTRY=(K_0.94_Na_0.05_[box]_0.01_)(Mg_0.94_Fe_0.06_)_3_(Si_3.00_Al_1.00_)O_10_((OH)_0.53_F_0.47_)_2_
3.991926e+002, 2.342443e-001
4.011211e+002, 2.525735e-001
4.030496e+002, 2.537878e-001
4.049780e+002, 2.495888e-001
4.069065e+002, 2.467005e-001
4.088350e+002, 2.526646e-001
4.107634e+002, 2.612658e-001
4.126919e+002, 2.593853e-001
4.146204e+002, 2.517207e-001
4.165488e+002, 2.510894e-001
4.184773e+002, 2.585932e-001
4.204058e+002, 2.638599e-001
4.223342e+002, 2.656852e-001
4.242627e+002, 2.674502e-001
4.261912e+002, 2.691806e-001
4.281196e+002, 2.746356e-001
4.300481e+002, 2.844012e-001
4.319766e+002, 2.906855e-001
4.339050e+002, 2.928498e-001
4.358335e+002, 2.959053e-001
4.377620e+002, 2.995671e-001
4.396904e+002, 3.056818e-001
4.416189e+002, 3.088834e-001
4.435474e+002, 3.106262e-001
4.454758e+002, 3.111795e-001
4.474043e+002, 3.095750e-001
4.493328e+002, 3.093626e-001
4.512612e+002, 3.096612e-001
4.531897e+002, 3.067682e-001
4.551182e+002, 3.002381e-001
4.570466e+002, 2.932114e-001
4.589751e+002, 2.862934e-001
4.609036e+002, 2.796636e-001
4.628320e+002, 2.710024e-001
4.647605e+002, 2.607817e-001
4.666890e+002, 2.499119e-001
4.686174e+002, 2.364531e-001
4.705459e+002, 2.234332e-001
4.724744e+002, 2.111288e-001
4.744028e+002, 1.999604e-001
4.763313e+002, 1.904845e-001
4.782598e+002, 1.823520e-001
4.801882e+002, 1.754636e-001
4.821167e+002, 1.713909e-001
4.840452e+002, 1.684961e-001
4.859736e+002, 1.654944e-001
4.879021e+002, 1.623845e-001
4.898306e+002, 1.597705e-001
4.917590e+002, 1.568494e-001
4.936875e+002, 1.535066e-001
4.956160e+002, 1.507478e-001
4.975444e+002, 1.472688e-001
4.994729e+002, 1.425658e-001
5.014014e+002, 1.392118e-001
5.033298e+002, 1.364772e-001
5.052583e+002, 1.332183e-001
5.071868e+002, 1.304615e-001
5.091152e+002, 1.273772e-001
5.110437e+002, 1.241956e-001
5.129722e+002, 1.209380e-001
5.149006e+002, 1.169392e-001
5.168291e+002, 1.135726e-001
5.187576e+002, 1.107379e-001
5.206860e+002, 1.079847e-001
5.226145e+002, 1.058391e-001
5.245430e+002, 1.034570e-001
5.264714e+002, 1.008078e-001
5.283999e+002, 9.914345e-002
5.303284e+002, 9.741702e-002
5.322568e+002, 9.626468e-002
5.341853e+002, 9.579141e-002
5.361138e+002, 9.621401e-002
5.380422e+002, 9.652986e-002
5.399707e+002, 9.640268e-002
5.418992e+002, 9.687416e-002
5.438276e+002, 9.845176e-002
5.457561e+002, 1.000799e-001
5.476846e+002, 1.017667e-001
5.496130e+002, 1.040513e-001
5.515415e+002, 1.068257e-001
5.534700e+002, 1.106281e-001
5.553984e+002, 1.137106e-001
5.573269e+002, 1.172104e-001
5.592554e+002, 1.213936e-001
5.611838e+002, 1.258579e-001
5.631123e+002, 1.306472e-001
5.650408e+002, 1.353174e-001
5.669692e+002, 1.397156e-001
5.688977e+002, 1.441314e-001
5.708262e+002, 1.486644e-001
5.727546e+002, 1.533023e-001
5.746831e+002, 1.580603e-001
5.766116e+002, 1.621580e-001
5.785400e+002, 1.664264e-001
5.804685e+002, 1.711275e-001
5.823970e+002, 1.756777e-001
5.843254e+002, 1.796314e-001
5.862539e+002, 1.838553e-001
5.881824e+002, 1.883121e-001
5.901108e+002, 1.923885e-001
5.920393e+002, 1.960723e-001
5.939678e+002, 1.990389e-001
5.958962e+002, 2.016475e-001
5.978247e+002, 2.041387e-001
5.997532e+002, 2.066495e-001
6.016816e+002, 2.090688e-001
6.036101e+002, 2.111329e-001
6.055386e+002, 2.121930e-001
6.074670e+002, 2.127160e-001
6.093955e+002, 2.132256e-001
6.113240e+002, 2.138416e-001
6.132524e+002, 2.128991e-001
6.151809e+002, 2.110959e-001
6.171094e+002, 2.087885e-001
6.190378e+002, 2.065315e-001
6.209663e+002, 2.039095e-001
6.228948e+002, 2.007919e-001
6.248232e+002, 1.978661e-001
6.267517e+002, 1.956401e-001
6.286802e+002, 1.952650e-001
6.306086e+002, 1.973922e-001
6.325371e+002, 2.012332e-001
6.344656e+002, 2.057351e-001
6.363940e+002, 2.098194e-001
6.383225e+002, 2.128594e-001
6.402510e+002, 2.148679e-001
6.421794e+002, 2.162507e-001
6.441079e+002, 2.165390e-001
6.460364e+002, 2.159044e-001
6.479648e+002, 2.153629e-001
6.498933e+002, 2.140676e-001
6.518218e+002, 2.122291e-001
6.537502e+002, 2.105584e-001
6.556787e+002, 2.091968e-001
6.576072e+002, 2.072459e-001
6.595356e+002, 2.047324e-001
6.614641e+002, 2.025147e-001
6.633926e+002, 2.000873e-001
6.653210e+002, 1.977073e-001
6.672495e+002, 1.954434e-001
6.691780e+002, 1.932798e-001
6.711064e+002, 1.909316e-001
6.730349e+002, 1.887488e-001
6.749634e+002, 1.864264e-001
6.768918e+002, 1.844702e-001
6.788203e+002, 1.823744e-001
6.807488e+002, 1.799373e-001
6.826772e+002, 1.777595e-001
6.846057e+002, 1.759443e-001
6.865342e+002, 1.739024e-001
6.884626e+002, 1.712880e-001
6.903911e+002, 1.680571e-001
6.923196e+002, 1.643301e-001
6.942480e+002, 1.610707e-001
6.961765e+002, 1.586653e-001
6.981050e+002, 1.567434e-001
7.000334e+002, 1.554523e-001
7.019619e+002, 1.547133e-001
7.038904e+002, 1.538018e-001
7.058188e+002, 1.531116e-001
7.077473e+002, 1.526721e-001
7.096758e+002, 1.521641e-001
7.116042e+002, 1.517098e-001
7.135327e+002, 1.509251e-001
7.154612e+002, 1.501130e-001
7.173896e+002, 1.494769e-001
7.193181e+002, 1.488123e-001
7.212466e+002, 1.478815e-001
7.231750e+002, 1.466608e-001
7.251035e+002, 1.453859e-001
7.270320e+002, 1.439946e-001
7.289604e+002, 1.420342e-001
7.308889e+002, 1.402396e-001
7.328174e+002, 1.385809e-001
7.347458e+002, 1.363972e-001
7.366743e+002, 1.338906e-001
7.386028e+002, 1.316138e-001
7.405313e+002, 1.298411e-001
7.424597e+002, 1.282222e-001
7.443882e+002, 1.264434e-001
7.463167e+002, 1.245249e-001
7.482451e+002, 1.231460e-001
7.501736e+002, 1.221606e-001
7.521021e+002, 1.212313e-001
7.540305e+002, 1.200270e-001
7.559590e+002, 1.189224e-001
7.578875e+002, 1.181158e-001
7.598159e+002, 1.173379e-001
7.617444e+002, 1.166400e-001
7.636729e+002, 1.159899e-001
7.656013e+002, 1.153623e-001
7.675298e+002, 1.146985e-001
7.694583e+002, 1.139591e-001
7.713867e+002, 1.132429e-001
7.733152e+002, 1.126463e-001
7.752437e+002, 1.121207e-001
7.771721e+002, 1.113808e-001
7.791006e+002, 1.102418e-001
7.810291e+002, 1.091990e-001
7.829575e+002, 1.084033e-001
7.848860e+002, 1.074458e-001
7.868145e+002, 1.065586e-001
7.887429e+002, 1.058737e-001
7.906714e+002, 1.052424e-001
7.925999e+002, 1.046774e-001
7.945283e+002, 1.041968e-001
7.964568e+002, 1.042027e-001
7.983853e+002, 1.044720e-001
8.003137e+002, 1.044496e-001
8.022422e+002, 1.039712e-001
8.041707e+002, 1.034509e-001
8.060991e+002, 1.030108e-001
8.080276e+002, 1.023605e-001
8.099561e+002, 1.012316e-001
8.118845e+002, 9.966808e-002
8.138130e+002, 9.728735e-002
8.157415e+002, 9.476613e-002
8.176699e+002, 9.218341e-002
8.195984e+002, 8.974796e-002
8.215269e+002, 8.763236e-002
8.234553e+002, 8.586962e-002
8.253838e+002, 8.444022e-002
8.273123e+002, 8.353779e-002
8.292407e+002, 8.302147e-002
8.311692e+002, 8.223031e-002
8.330977e+002, 8.132540e-002
8.350261e+002, 8.041218e-002
8.369546e+002, 7.925284e-002
8.388831e+002, 7.838876e-002
8.408115e+002, 7.782619e-002
8.427400e+002, 7.716706e-002
8.446685e+002, 7.632780e-002
8.465969e+002, 7.515415e-002
8.485254e+002, 7.423531e-002
8.504539e+002, 7.344484e-002
8.523823e+002, 7.215298e-002
8.543108e+002, 7.069180e-002
8.562393e+002, 6.940099e-002
8.581677e+002, 6.820642e-002
8.600962e+002, 6.702455e-002
8.620247e+002, 6.593901e-002
8.639531e+002, 6.489292e-002
8.658816e+002, 6.400096e-002
8.678101e+002, 6.304248e-002
8.697385e+002, 6.233628e-002
8.716670e+002, 6.204812e-002
8.735955e+002, 6.174548e-002
8.755239e+002, 6.145201e-002
8.774524e+002, 6.157101e-002
8.793809e+002, 6.187318e-002
8.813093e+002, 6.254250e-002
8.832378e+002, 6.352590e-002
8.851663e+002, 6.447911e-002
8.870947e+002, 6.560630e-002
8.890232e+002, 6.705343e-002
8.909517e+002, 6.852201e-002
8.928801e+002, 7.021070e-002
8.948085e+002, 7.228504e-002
8.967370e+002, 7.443006e-002
8.986655e+002, 7.646680e-002
9.005939e+002, 7.858640e-002
9.025224e+002, 8.068419e-002
9.044509e+002, 8.290567e-002
9.063793e+002, 8.529186e-002
9.083078e+002, 8.762910e-002
9.102363e+002, 8.994177e-002
9.121647e+002, 9.244905e-002
9.140932e+002, 9.512556e-002
9.160217e+002, 9.798549e-002
9.179501e+002, 1.008518e-001
9.198786e+002, 1.038109e-001
9.218071e+002, 1.068438e-001
9.237355e+002, 1.099774e-001
9.256640e+002, 1.133942e-001
9.275925e+002, 1.173767e-001
9.295209e+002, 1.220227e-001
9.314494e+002, 1.270215e-001
9.333779e+002, 1.320435e-001
9.353063e+002, 1.377132e-001
9.372348e+002, 1.439320e-001
9.391633e+002, 1.508503e-001
9.410917e+002, 1.581551e-001
9.430202e+002, 1.658740e-001
9.449487e+002, 1.740031e-001
9.468771e+002, 1.827022e-001
9.488056e+002, 1.920152e-001
9.507341e+002, 2.023548e-001
9.526625e+002, 2.133022e-001
9.545910e+002, 2.244251e-001
9.565195e+002, 2.359517e-001
9.584479e+002, 2.479391e-001
9.603764e+002, 2.596046e-001
9.623049e+002, 2.697115e-001
9.642333e+002, 2.785501e-001
9.661618e+002, 2.864820e-001
9.680903e+002, 2.923390e-001
9.700187e+002, 2.962036e-001
9.719472e+002, 2.987024e-001
9.738757e+002, 2.994169e-001
9.758041e+002, 2.983829e-001
9.777326e+002, 2.963400e-001
9.796611e+002, 2.935642e-001
9.815895e+002, 2.907836e-001
9.835180e+002, 2.886159e-001
9.854465e+002, 2.871993e-001
9.873749e+002, 2.864327e-001
9.893034e+002, 2.870361e-001
9.912319e+002, 2.888133e-001
9.931603e+002, 2.913766e-001
9.950888e+002, 2.941946e-001
9.970173e+002, 2.964911e-001
9.989457e+002, 2.978431e-001
1.000874e+003, 2.983665e-001
1.002803e+003, 2.977108e-001
1.004731e+003, 2.952609e-001
1.006660e+003, 2.909493e-001
1.008588e+003, 2.847495e-001
1.010517e+003, 2.764465e-001
1.012445e+003, 2.663151e-001
1.014373e+003, 2.544393e-001
1.016302e+003, 2.408849e-001
1.018230e+003, 2.259616e-001
1.020159e+003, 2.103509e-001
1.022087e+003, 1.949884e-001
1.024016e+003, 1.808999e-001
1.025944e+003, 1.683107e-001
1.027873e+003, 1.569009e-001
1.029801e+003, 1.469532e-001
1.031730e+003, 1.385043e-001
1.033658e+003, 1.310391e-001
1.035587e+003, 1.243293e-001
1.037515e+003, 1.180948e-001
1.039444e+003, 1.120472e-001
1.041372e+003, 1.065286e-001
1.043301e+003, 1.016743e-001
1.045229e+003, 9.740423e-002
1.047157e+003, 9.367439e-002
1.049086e+003, 9.006750e-002
1.051014e+003, 8.697777e-002
1.052943e+003, 8.422944e-002
1.054871e+003, 8.166095e-002
1.056800e+003, 7.934991e-002
1.058728e+003, 7.746423e-002
1.060657e+003, 7.573037e-002
1.062585e+003, 7.403101e-002
1.064514e+003, 7.257663e-002
1.066442e+003, 7.125389e-002
1.068371e+003, 6.985154e-002
1.070299e+003, 6.871387e-002
1.072228e+003, 6.780872e-002
1.074156e+003, 6.651575e-002
1.076084e+003, 6.497452e-002
1.078013e+003, 6.361517e-002
1.079941e+003, 6.214834e-002
1.081870e+003, 6.017831e-002
1.083798e+003, 5.836571e-002
1.085727e+003, 5.676805e-002
1.087655e+003, 5.495961e-002
1.089584e+003, 5.302307e-002
1.091512e+003, 5.095726e-002
1.093441e+003, 4.889786e-002
1.095369e+003, 4.703601e-002
1.097298e+003, 4.510844e-002
1.099226e+003, 4.300945e-002
1.101155e+003, 4.085368e-002
1.103083e+003, 3.867825e-002
1.105011e+003, 3.653627e-002
1.106940e+003, 3.467316e-002
1.108868e+003, 3.284225e-002
1.110797e+003, 3.130268e-002
1.112725e+003, 3.002838e-002
1.114654e+003, 2.856602e-002
1.116582e+003, 2.722482e-002
1.118511e+003, 2.620172e-002
1.120439e+003, 2.554277e-002
1.122368e+003, 2.481066e-002
1.124296e+003, 2.388128e-002
1.126225e+003, 2.325908e-002
1.128153e+003, 2.268425e-002
1.130082e+003, 2.204328e-002
1.132010e+003, 2.154446e-002
1.133938e+003, 2.109953e-002
1.135867e+003, 2.082655e-002
1.137795e+003, 2.043617e-002
1.139724e+003, 2.001645e-002
1.141652e+003, 1.954065e-002
1.143581e+003, 1.904284e-002
1.145509e+003, 1.882330e-002
1.147438e+003, 1.862940e-002
1.149366e+003, 1.826578e-002
1.151295e+003, 1.800172e-002
1.153223e+003, 1.792814e-002
1.155152e+003, 1.774202e-002
1.157080e+003, 1.729782e-002
1.159009e+003, 1.700367e-002
1.160937e+003, 1.680499e-002
1.162865e+003, 1.646723e-002
1.164794e+003, 1.601835e-002
1.166722e+003, 1.557609e-002
1.168651e+003, 1.513789e-002
1.170579e+003, 1.463552e-002
1.172508e+003, 1.411642e-002
1.174436e+003, 1.374438e-002
1.176365e+003, 1.322020e-002
1.178293e+003, 1.283383e-002
1.180222e+003, 1.249635e-002
1.182150e+003, 1.223669e-002
1.184079e+003, 1.212725e-002
1.186007e+003, 1.183275e-002
1.187936e+003, 1.146088e-002
1.189864e+003, 1.124401e-002
1.191792e+003, 1.094805e-002
1.193721e+003, 1.056110e-002
1.195649e+003, 1.035211e-002
1.197578e+003, 1.024086e-002
1.199506e+003, 1.005708e-002
1.201435e+003, 9.776518e-003
1.203363e+003, 9.371877e-003
1.205292e+003, 9.164006e-003
1.207220e+003, 9.046526e-003
1.209149e+003, 8.752232e-003
1.211077e+003, 8.476369e-003
1.213006e+003, 8.335411e-003
1.214934e+003, 8.210058e-003
1.216863e+003, 7.937657e-003
1.218791e+003, 7.581909e-003
1.220719e+003, 7.337829e-003
1.222648e+003, 7.249332e-003
1.224576e+003, 7.068459e-003
1.226505e+003, 6.917366e-003
1.228433e+003, 6.738429e-003
1.230362e+003, 6.377828e-003
1.232290e+003, 6.167775e-003
1.234219e+003, 6.151935e-003
1.236147e+003, 6.126639e-003
1.238076e+003, 6.043628e-003
1.240004e+003, 6.120637e-003
1.241933e+003, 6.068273e-003
1.243861e+003, 5.880173e-003
1.245790e+003, 5.590267e-003
1.247718e+003, 5.508481e-003
1.249646e+003, 5.413945e-003
1.251575e+003, 5.331964e-003
1.253503e+003, 5.389044e-003
1.255432e+003, 5.462492e-003
1.257360e+003, 5.381749e-003
1.259289e+003, 5.237780e-003
1.261217e+003, 4.990735e-003
1.263146e+003, 4.819764e-003
1.265074e+003, 4.922699e-003
1.267003e+003, 5.085060e-003
1.268931e+003, 5.017288e-003
1.270860e+003, 4.986152e-003
1.272788e+003, 4.937840e-003
1.274717e+003, 4.818445e-003
1.276645e+003, 4.702322e-003
1.278573e+003, 4.786380e-003
1.280502e+003, 4.831451e-003
1.282430e+003, 4.725527e-003
1.284359e+003, 4.691863e-003
1.286287e+003, 4.793288e-003
1.288216e+003, 4.877520e-003
1.290144e+003, 4.883371e-003
1.292073e+003, 4.751512e-003
1.294001e+003, 4.825648e-003
1.295930e+003, 4.897766e-003
1.297858e+003, 4.811982e-003
1.299787e+003, 4.776456e-003
1.301715e+003, 4.812351e-003
1.303644e+003, 4.756306e-003
1.305572e+003, 4.649005e-003
1.307500e+003, 4.624088e-003
1.309429e+003, 4.455526e-003
1.311357e+003, 4.509808e-003
1.313286e+003, 4.636469e-003
1.315214e+003, 4.476958e-003
1.317143e+003, 4.590020e-003
1.319071e+003, 4.928553e-003
1.321000e+003, 4.868941e-003
1.322928e+003, 4.714769e-003
1.324857e+003, 4.770475e-003
1.326785e+003, 4.721159e-003
1.328714e+003, 4.609315e-003
1.330642e+003, 4.549774e-003
1.332571e+003, 4.516824e-003
1.334499e+003, 4.481190e-003
1.336427e+003, 4.390963e-003
1.338356e+003, 4.357579e-003
1.340284e+003, 4.431274e-003
1.342213e+003, 4.511447e-003
1.344141e+003, 4.435497e-003
1.346070e+003, 4.436771e-003
1.347998e+003, 4.518974e-003
1.349927e+003, 4.487444e-003
1.351855e+003, 4.769391e-003
1.353784e+003, 5.026349e-003
1.355712e+003, 4.990438e-003
1.357641e+003, 4.990644e-003
1.359569e+003, 5.041413e-003
1.361498e+003, 5.101465e-003
1.363426e+003, 4.810964e-003
1.365354e+003, 4.741822e-003
1.367283e+003, 4.941002e-003
1.369211e+003, 4.921474e-003
1.371140e+003, 5.246966e-003
1.373068e+003, 6.050635e-003
1.374997e+003, 6.914767e-003
1.376925e+003, 7.173735e-003
1.378854e+003, 6.562552e-003
1.380782e+003, 5.646924e-003
1.382711e+003, 5.144112e-003
1.384639e+003, 4.767046e-003
1.386568e+003, 4.521152e-003
1.388496e+003, 4.507643e-003
1.390424e+003, 4.667134e-003
1.392353e+003, 4.703131e-003
1.394281e+003, 4.718407e-003
1.396210e+003, 4.962345e-003
1.398138e+003, 5.138288e-003
1.400067e+003, 5.012178e-003
1.401995e+003, 5.047102e-003
1.403924e+003, 5.005668e-003
1.405852e+003, 5.058903e-003
1.407781e+003, 5.219564e-003
1.409709e+003, 5.420169e-003
1.411638e+003, 5.502427e-003
1.413566e+003, 5.548409e-003
1.415495e+003, 5.571562e-003
1.417423e+003, 5.616621e-003
1.419351e+003, 5.576101e-003
1.421280e+003, 5.489367e-003
1.423208e+003, 5.452180e-003
1.425137e+003, 5.476973e-003
1.427065e+003, 5.478906e-003
1.428994e+003, 5.520601e-003
1.430922e+003, 5.474221e-003
1.432851e+003, 5.305720e-003
1.434779e+003, 5.399105e-003
1.436708e+003, 5.266535e-003
1.438636e+003, 5.207159e-003
1.440565e+003, 5.217089e-003
1.442493e+003, 5.166865e-003
1.444422e+003, 5.371280e-003
1.446350e+003, 5.661123e-003
1.448278e+003, 5.705650e-003
1.450207e+003, 5.688219e-003
1.452135e+003, 5.821374e-003
1.454064e+003, 5.924297e-003
1.455992e+003, 5.877393e-003
1.457921e+003, 5.807258e-003
1.459849e+003, 5.738198e-003
1.461778e+003, 5.543153e-003
1.463706e+003, 5.281766e-003
1.465635e+003, 4.937161e-003
1.467563e+003, 4.543937e-003
1.469492e+003, 4.176097e-003
1.471420e+003, 4.149329e-003
1.473349e+003, 3.992591e-003
1.475277e+003, 3.653273e-003
1.477205e+003, 3.573509e-003
1.479134e+003, 3.568477e-003
1.481062e+003, 3.439281e-003
1.482991e+003, 3.507227e-003
1.484919e+003, 3.554660e-003
1.486848e+003, 3.412460e-003
1.488776e+003, 3.389019e-003
1.490705e+003, 3.622048e-003
1.492633e+003, 3.822445e-003
1.494562e+003, 3.844063e-003
1.496490e+003, 3.726555e-003
1.498419e+003, 3.607487e-003
1.500347e+003, 3.670973e-003
1.502276e+003, 3.816126e-003
1.504204e+003, 3.765008e-003
1.506132e+003, 3.752442e-003
1.508061e+003, 3.874774e-003
1.509989e+003, 4.057417e-003
1.511918e+003, 4.180785e-003
1.513846e+003, 4.237978e-003
1.515775e+003, 4.270505e-003
1.517703e+003, 4.529640e-003
1.519632e+003, 4.651866e-003
1.521560e+003, 4.437589e-003
1.523489e+003, 4.580242e-003
1.525417e+003, 4.964531e-003
1.527346e+003, 5.017321e-003
1.529274e+003, 4.883891e-003
1.531203e+003, 5.009794e-003
1.533131e+003, 5.403095e-003
1.535059e+003, 5.508085e-003
1.536988e+003, 5.534393e-003
1.538916e+003, 5.886948e-003
1.540845e+003, 6.110153e-003
1.542773e+003, 6.098528e-003
1.544702e+003, 6.192979e-003
1.546630e+003, 6.358851e-003
1.548559e+003, 6.322204e-003
1.550487e+003, 6.512709e-003
1.552416e+003, 6.684842e-003
1.554344e+003, 6.708513e-003
1.556273e+003, 6.732299e-003
1.558201e+003, 6.610183e-003
1.560130e+003, 6.500399e-003
1.562058e+003, 6.388623e-003
1.563986e+003, 6.350674e-003
1.565915e+003, 6.348796e-003
1.567843e+003, 6.365472e-003
1.569772e+003, 6.485656e-003
1.571700e+003, 6.476850e-003
1.573629e+003, 6.367425e-003
1.575557e+003, 6.372872e-003
1.577486e+003, 6.321169e-003
1.579414e+003, 5.986366e-003
1.581343e+003, 5.840074e-003
1.583271e+003, 5.932219e-003
1.585200e+003, 5.819297e-003
1.587128e+003, 5.707669e-003
1.589057e+003, 5.681883e-003
1.590985e+003, 5.494441e-003
1.592913e+003, 5.444706e-003
1.594842e+003, 5.553975e-003
1.596770e+003, 5.823124e-003
1.598699e+003, 5.953390e-003
1.600627e+003, 5.862874e-003
1.602556e+003, 5.832951e-003
1.604484e+003, 5.689667e-003
1.606413e+003, 5.815814e-003
1.608341e+003, 6.114910e-003
1.610270e+003, 5.995459e-003
1.612198e+003, 5.724520e-003
1.614127e+003, 5.778804e-003
1.616055e+003, 5.687371e-003
1.617984e+003, 5.765956e-003
1.619912e+003, 5.969510e-003
1.621840e+003, 5.910337e-003
1.623769e+003, 5.754616e-003
1.625697e+003, 5.735087e-003
1.627626e+003, 5.905658e-003
1.629554e+003, 6.105554e-003
1.631483e+003, 6.158484e-003
1.633411e+003, 6.219791e-003
1.635340e+003, 6.365556e-003
1.637268e+003, 6.270922e-003
1.639197e+003, 6.084816e-003
1.641125e+003, 6.163503e-003
1.643054e+003, 6.365733e-003
1.644982e+003, 6.342303e-003
1.646911e+003, 6.167596e-003
1.648839e+003, 6.098310e-003
1.650767e+003, 6.165992e-003
1.652696e+003, 6.028049e-003
1.654624e+003, 5.868017e-003
1.656553e+003, 5.863626e-003
1.658481e+003, 5.775703e-003
1.660410e+003, 5.549220e-003
1.662338e+003, 5.439575e-003
1.664267e+003, 5.313573e-003
1.666195e+003, 5.307749e-003
1.668124e+003, 5.188116e-003
1.670052e+003, 4.839860e-003
1.671981e+003, 4.733874e-003
1.673909e+003, 4.679904e-003
1.675838e+003, 4.819363e-003
1.677766e+003, 4.834082e-003
1.679694e+003, 4.865095e-003
1.681623e+003, 4.690045e-003
1.683551e+003, 4.444825e-003
1.685480e+003, 4.303493e-003
1.687408e+003, 4.082032e-003
1.689337e+003, 4.015147e-003
1.691265e+003, 4.189253e-003
1.693194e+003, 4.164782e-003
1.695122e+003, 3.971407e-003
1.697051e+003, 3.837820e-003
1.698979e+003, 3.615696e-003
1.700908e+003, 3.439850e-003
1.702836e+003, 3.393756e-003
1.704765e+003, 3.561838e-003
1.706693e+003, 3.353648e-003
1.708621e+003, 3.072814e-003
1.710550e+003, 2.810277e-003
1.712478e+003, 2.854394e-003
1.714407e+003, 3.098183e-003
1.716335e+003, 3.361601e-003
1.718264e+003, 3.271338e-003
1.720192e+003, 3.233294e-003
1.722121e+003, 3.507948e-003
1.724049e+003, 3.491316e-003
1.725978e+003, 3.210579e-003
1.727906e+003, 3.171457e-003
1.729835e+003, 3.061428e-003
1.731763e+003, 2.932431e-003
1.733692e+003, 2.780503e-003
1.735620e+003, 2.338309e-003
1.737548e+003, 1.991007e-003
1.739477e+003, 1.913286e-003
1.741405e+003, 1.817685e-003
1.743334e+003, 1.772051e-003
1.745262e+003, 1.750146e-003
1.747191e+003, 1.829201e-003
1.749119e+003, 1.902805e-003
1.751048e+003, 1.821084e-003
1.752976e+003, 2.120647e-003
1.754905e+003, 2.601608e-003
1.756833e+003, 2.992180e-003
1.758762e+003, 3.182918e-003
1.760690e+003, 3.189120e-003
1.762619e+003, 3.209270e-003
1.764547e+003, 3.160551e-003
1.766475e+003, 3.301213e-003
1.768404e+003, 3.301620e-003
1.770332e+003, 3.198765e-003
1.772261e+003, 3.108224e-003
1.774189e+003, 2.931811e-003
1.776118e+003, 3.011311e-003
1.778046e+003, 2.912274e-003
1.779975e+003, 2.888957e-003
1.781903e+003, 3.142709e-003
1.783832e+003, 3.062058e-003
1.785760e+003, 2.950398e-003
1.787689e+003, 3.006181e-003
1.789617e+003, 3.364139e-003
1.791546e+003, 3.283250e-003
1.793474e+003, 2.880414e-003
1.795402e+003, 2.996378e-003
1.797331e+003, 3.260860e-003
1.799259e+003, 3.394776e-003
1.801188e+003, 3.240364e-003
1.803116e+003, 2.958287e-003
1.805045e+003, 3.151631e-003
1.806973e+003, 3.293876e-003
1.808902e+003, 3.434638e-003
1.810830e+003, 3.163874e-003
1.812759e+003, 3.105365e-003
1.814687e+003, 3.243112e-003
1.816616e+003, 2.994336e-003
1.818544e+003, 3.146387e-003
1.820473e+003, 3.400967e-003
1.822401e+003, 3.155601e-003
1.824329e+003, 3.081020e-003
1.826258e+003, 3.161420e-003
1.828186e+003, 3.453497e-003
1.830115e+003, 3.509438e-003
1.832043e+003, 3.233804e-003
1.833972e+003, 2.982264e-003
1.835900e+003, 3.056430e-003
1.837829e+003, 2.917415e-003
1.839757e+003, 2.862922e-003
1.841686e+003, 2.746834e-003
1.843614e+003, 2.771163e-003
1.845543e+003, 2.566746e-003
1.847471e+003, 2.513165e-003
1.849400e+003, 2.874143e-003
1.851328e+003, 2.957782e-003
1.853256e+003, 2.818503e-003
1.855185e+003, 2.600643e-003
1.857113e+003, 2.757628e-003
1.859042e+003, 2.884538e-003
1.860970e+003, 2.927764e-003
1.862899e+003, 2.325046e-003
1.864827e+003, 1.849864e-003
1.866756e+003, 1.999232e-003
1.868684e+003, 2.310494e-003
1.870613e+003, 2.587609e-003
1.872541e+003, 2.570076e-003
1.874470e+003, 1.958689e-003
1.876398e+003, 1.350690e-003
1.878327e+003, 1.664634e-003
1.880255e+003, 2.391247e-003
1.882183e+003, 2.390358e-003
1.884112e+003, 2.134066e-003
1.886040e+003, 2.063365e-003
1.887969e+003, 1.740023e-003
1.889897e+003, 2.125745e-003
1.891826e+003, 2.650276e-003
1.893754e+003, 1.945885e-003
1.895683e+003, 1.529313e-003
1.897611e+003, 2.172903e-003
1.899540e+003, 1.876216e-003
1.901468e+003, 9.601190e-004
1.903397e+003, 1.326692e-003
1.905325e+003, 1.311834e-003
1.907254e+003, 2.239532e-004
1.909182e+003, -1.806987e-004
1.911110e+003, 3.141410e-004
1.913039e+003, 6.591215e-004
1.914967e+003, 8.497167e-004
1.916896e+003, 8.031508e-004
1.918824e+003, 3.966558e-004
1.920753e+003, -1.329673e-004
1.922681e+003, 4.747375e-004
1.924610e+003, 8.604483e-004
1.926538e+003, -4.582070e-004
1.928467e+003, -6.598639e-004
1.930395e+003, -6.153402e-004
1.932324e+003, -1.568025e-003
1.934252e+003, -1.777177e-003
1.936181e+003, -1.677477e-003
1.938109e+003, -1.686056e-003
1.940037e+003, -1.562473e-003
1.941966e+003, -1.323708e-003
1.943894e+003, -9.259760e-004
1.945823e+003, -1.742902e-004
1.947751e+003, -3.122111e-004
1.949680e+003, -1.353148e-003
1.951608e+003, -2.656272e-003
1.953537e+003, -2.946394e-003
1.955465e+003, -1.837376e-003
1.957394e+003, -1.184247e-003
1.959322e+003, -2.285644e-003
1.961251e+003, -3.427297e-003
1.963179e+003, -4.381476e-003
1.965108e+003, -4.808498e-003
1.967036e+003, -3.923946e-003
1.968964e+003, -4.038552e-003
1.970893e+003, -5.632287e-003
1.972821e+003, -5.806143e-003
1.974750e+003, -5.677895e-003
1.976678e+003, -4.287511e-003
1.978607e+003, -4.070238e-003
1.980535e+003, -4.218545e-003
1.982464e+003, -3.438162e-003
1.984392e+003, -2.877791e-003
1.986321e+003, -3.047638e-003
1.988249e+003, -3.275192e-003
1.990178e+003, -4.324219e-003
1.992106e+003, -3.842580e-003
1.994035e+003, -3.581678e-003
1.995963e+003, -3.536337e-003
1.997891e+003, -3.707042e-003
1.999820e+003, -4.166589e-003
2.001748e+003, -4.470863e-003
2.003677e+003, -6.201888e-003
2.005605e+003, -7.987674e-003
2.007534e+003, -6.959789e-003
2.009462e+003, -5.152607e-003
2.011391e+003, -6.296625e-003
2.013319e+003, -7.109782e-003
2.015248e+003, -5.914757e-003
2.017176e+003, -5.802906e-003
2.019105e+003, -5.479153e-003
2.021033e+003, -6.056886e-003
2.022962e+003, -7.228015e-003
2.024890e+003, -7.094648e-003
2.026818e+003, -7.229800e-003
2.028747e+003, -5.425629e-003
2.030675e+003, -2.857256e-003
2.032604e+003, -2.876058e-003
2.034532e+003, -3.838551e-003
2.036461e+003, -4.988417e-003
2.038389e+003, -5.808345e-003
2.040318e+003, -5.924487e-003
2.042246e+003, -4.727700e-003
2.044175e+003, -3.790860e-003
2.046103e+003, -3.048094e-003
2.048032e+003, -2.071552e-003
2.049960e+003, -1.557156e-003
2.051889e+003, -1.913501e-003
2.053817e+003, -1.345496e-003
2.055746e+003, -4.689653e-004
2.057674e+003, -2.130755e-004
2.059603e+003, -5.594948e-004
2.061531e+003, -3.643730e-004
2.063459e+003, -1.033268e-003
2.065388e+003, -9.498907e-004
2.067316e+003, -8.842695e-004
2.069245e+003, -8.208418e-004
2.071173e+003, -8.471834e-004
2.073102e+003, -5.988384e-004
2.075030e+003, -5.563345e-004
2.076959e+003, -4.930394e-004
2.078887e+003, 3.833184e-004
2.080816e+003, 1.260418e-003
2.082744e+003, 7.767816e-004
2.084673e+003, 6.502061e-004
2.086601e+003, 1.513749e-003
2.088530e+003, 1.905759e-003
2.090458e+003, 1.854414e-003
2.092386e+003, 1.821540e-003
2.094315e+003, 1.464770e-003
2.096243e+003, 6.979069e-004
2.098172e+003, 9.735447e-004
2.100100e+003, 1.493508e-003
2.102029e+003, 1.313433e-003
2.103957e+003, 2.242861e-003
2.105886e+003, 2.773422e-003
2.107814e+003, 2.694642e-003
2.109743e+003, 2.388093e-003
2.111671e+003, 2.261763e-003
2.113600e+003, 2.854147e-003
2.115528e+003, 2.349084e-003
2.117457e+003, 2.022760e-003
2.119385e+003, 2.183388e-003
2.121313e+003, 2.081378e-003
2.123242e+003, 1.801606e-003
2.125170e+003, 1.079388e-003
2.127099e+003, 1.399134e-003
2.129027e+003, 1.039519e-003
2.130956e+003, -5.113571e-004
2.132884e+003, -1.709778e-003
2.134813e+003, -7.469070e-004
2.136741e+003, 1.219599e-003
2.138670e+003, 6.917264e-004
2.140598e+003, -4.858014e-004
2.142527e+003, -8.504406e-004
2.144455e+003, -2.748921e-004
2.146384e+003, 1.897326e-004
2.148312e+003, 3.045003e-004
2.150240e+003, 6.333733e-004
2.152169e+003, 1.914472e-003
2.154097e+003, -4.373493e-004
2.156026e+003, -4.393252e-003
2.157954e+003, -3.814231e-003
2.159883e+003, -4.781889e-004
2.161811e+003, 7.181842e-004
2.163740e+003, 8.601208e-004
2.165668e+003, 7.642056e-004
2.167597e+003, 1.471191e-003
2.169525e+003, 2.073025e-003
2.171454e+003, 2.022036e-003
2.173382e+003, 9.433515e-004
2.175311e+003, 5.094887e-004
2.177239e+003, 1.118273e-003
2.179167e+003, 2.390993e-003
2.181096e+003, 2.540375e-003
2.183024e+003, 2.245892e-003
2.184953e+003, 2.554310e-003
2.186881e+003, 2.673663e-003
2.188810e+003, 2.154191e-003
2.190738e+003, 1.898724e-003
2.192667e+003, 2.625305e-004
2.194595e+003, 1.129789e-003
2.196524e+003, 2.847355e-003
2.198452e+003, 3.242189e-003
2.200381e+003, 2.408969e-003
2.202309e+003, 3.892028e-004
2.204238e+003, -6.071687e-004
2.206166e+003, -1.959144e-004
2.208094e+003, 1.913863e-003
2.210023e+003, 2.906522e-003
2.211951e+003, 1.982854e-003
2.213880e+003, 2.168350e-003
2.215808e+003, 2.829103e-003
2.217737e+003, 2.497312e-003
2.219665e+003, 1.670975e-003
2.221594e+003, 1.356602e-003
2.223522e+003, 2.712005e-003
2.225451e+003, 2.694835e-003
2.227379e+003, 3.472521e-003
2.229308e+003, 4.884922e-003
2.231236e+003, 3.958779e-003
2.233165e+003, 2.254750e-003
2.235093e+003, 1.443291e-003
2.237021e+003, 2.253467e-003
2.238950e+003, 3.257303e-003
2.240878e+003, 3.231669e-003
2.242807e+003, 3.074445e-003
2.244735e+003, 2.589134e-003
2.246664e+003, 2.407903e-003
2.248592e+003, 2.299595e-003
2.250521e+003, 2.484977e-003
2.252449e+003, 2.100782e-003
2.254378e+003, 3.293130e-003
2.256306e+003, 3.352502e-003
2.258235e+003, 2.472578e-003
2.260163e+003, 2.445876e-003
2.262092e+003, 3.029897e-003
2.264020e+003, 3.530397e-003
2.265948e+003, 2.718961e-003
2.267877e+003, 2.993337e-003
2.269805e+003, 3.203316e-003
2.271734e+003, 2.439337e-003
2.273662e+003, 2.826977e-003
2.275591e+003, 3.441240e-003
2.277519e+003, 4.040513e-003
2.279448e+003, 3.930780e-003
2.281376e+003, 3.706965e-003
2.283305e+003, 3.758952e-003
2.285233e+003, 4.637363e-003
2.287162e+003, 4.964132e-003
2.289090e+003, 5.154536e-003
2.291019e+003, 5.350419e-003
2.292947e+003, 4.822305e-003
2.294875e+003, 4.576126e-003
2.296804e+003, 4.227388e-003
2.298732e+003, 4.004349e-003
2.300661e+003, 4.061684e-003
2.302589e+003, 3.847206e-003
2.304518e+003, 4.049337e-003
2.306446e+003, 4.875359e-003
2.308375e+003, 4.634033e-003
2.310303e+003, 3.853936e-003
2.312232e+003, 4.012452e-003
2.314160e+003, 4.837367e-003
2.316089e+003, 5.071294e-003
2.318017e+003, 4.776559e-003
2.319946e+003, 4.418964e-003
2.321874e+003, 4.823155e-003
2.323802e+003, 5.282617e-003
2.325731e+003, 4.884762e-003
2.327659e+003, 4.339888e-003
2.329588e+003, 4.060870e-003
2.331516e+003, 3.971569e-003
2.333445e+003, 4.365696e-003
2.335373e+003, 4.424611e-003
2.337302e+003, 4.449708e-003
2.339230e+003, 4.319750e-003
2.341159e+003, 4.230591e-003
2.343087e+003, 4.302558e-003
2.345016e+003, 4.463617e-003
2.346944e+003, 4.163370e-003
2.348873e+003, 3.777706e-003
2.350801e+003, 3.998407e-003
2.352729e+003, 4.384699e-003
2.354658e+003, 4.580446e-003
2.356586e+003, 4.854245e-003
2.358515e+003, 4.608658e-003
2.360443e+003, 4.393650e-003
2.362372e+003, 4.514347e-003
2.364300e+003, 4.844058e-003
2.366229e+003, 4.790015e-003
2.368157e+003, 4.411880e-003
2.370086e+003, 4.404489e-003
2.372014e+003, 4.544382e-003
2.373942e+003, 4.385952e-003
2.375871e+003, 4.183098e-003
2.377799e+003, 4.677781e-003
2.379728e+003, 4.727276e-003
2.381656e+003, 4.234042e-003
2.383585e+003, 3.835493e-003
2.385513e+003, 4.204376e-003
2.387442e+003, 4.699166e-003
2.389370e+003, 4.659437e-003
2.391299e+003, 4.065549e-003
2.393227e+003, 3.934103e-003
2.395156e+003, 4.121937e-003
2.397084e+003, 4.105529e-003
2.399012e+003, 3.905160e-003
2.400941e+003, 4.708592e-003
2.402869e+003, 4.967222e-003
2.404798e+003, 4.023454e-003
2.406726e+003, 4.363630e-003
2.408655e+003, 5.286411e-003
2.410583e+003, 5.148401e-003
2.412512e+003, 4.423630e-003
2.414440e+003, 3.909738e-003
2.416369e+003, 3.935991e-003
2.418297e+003, 4.595492e-003
2.420226e+003, 5.252355e-003
2.422154e+003, 4.988926e-003
2.424083e+003, 4.705023e-003
2.426011e+003, 4.690417e-003
2.427939e+003, 5.060381e-003
2.429868e+003, 5.391627e-003
2.431796e+003, 5.025458e-003
2.433725e+003, 4.485565e-003
2.435653e+003, 4.302441e-003
2.437582e+003, 4.762268e-003
2.439510e+003, 4.941739e-003
2.441439e+003, 4.675802e-003
2.443367e+003, 5.473547e-003
2.445296e+003, 5.547404e-003
2.447224e+003, 4.581900e-003
2.449153e+003, 4.314320e-003
2.451081e+003, 4.660581e-003
2.453010e+003, 4.690591e-003
2.454938e+003, 4.435410e-003
2.456866e+003, 4.618446e-003
2.458795e+003, 4.781549e-003
2.460723e+003, 4.772264e-003
2.462652e+003, 4.802756e-003
2.464580e+003, 5.061928e-003
2.466509e+003, 5.131563e-003
2.468437e+003, 5.227861e-003
2.470366e+003, 5.289821e-003
2.472294e+003, 4.404322e-003
2.474223e+003, 3.673880e-003
2.476151e+003, 4.327852e-003
2.478080e+003, 5.564659e-003
2.480008e+003, 5.549025e-003
2.481937e+003, 5.168032e-003
2.483865e+003, 4.622696e-003
2.485793e+003, 4.948179e-003
2.487722e+003, 5.705168e-003
2.489650e+003, 5.465198e-003
2.491579e+003, 4.835811e-003
2.493507e+003, 4.976535e-003
2.495436e+003, 5.247972e-003
2.497364e+003, 4.638844e-003
2.499293e+003, 4.409370e-003
2.501221e+003, 5.090601e-003
2.503150e+003, 5.820540e-003
2.505078e+003, 5.689450e-003
2.507007e+003, 5.868734e-003
2.508935e+003, 5.365072e-003
2.510864e+003, 5.075542e-003
2.512792e+003, 5.227082e-003
2.514720e+003, 5.011722e-003
2.516649e+003, 5.052717e-003
2.518577e+003, 5.021320e-003
2.520506e+003, 5.537520e-003
2.522434e+003, 5.929588e-003
2.524363e+003, 5.535704e-003
2.526291e+003, 5.350613e-003
2.528220e+003, 4.550491e-003
2.530148e+003, 4.285763e-003
2.532077e+003, 4.859414e-003
2.534005e+003, 5.550540e-003
2.535934e+003, 5.243922e-003
2.537862e+003, 4.834240e-003
2.539791e+003, 5.241324e-003
2.541719e+003, 5.592100e-003
2.543647e+003, 5.169069e-003
2.545576e+003, 4.380567e-003
2.547504e+003, 5.050990e-003
2.549433e+003, 5.906415e-003
2.551361e+003, 5.517046e-003
2.553290e+003, 5.165198e-003
2.555218e+003, 5.397587e-003
2.557147e+003, 5.786503e-003
2.559075e+003, 5.262850e-003
2.561004e+003, 5.004084e-003
2.562932e+003, 5.241937e-003
2.564861e+003, 5.423435e-003
2.566789e+003, 5.368146e-003
2.568718e+003, 5.518834e-003
2.570646e+003, 5.934007e-003
2.572574e+003, 6.432006e-003
2.574503e+003, 5.663471e-003
2.576431e+003, 4.631696e-003
2.578360e+003, 4.361678e-003
2.580288e+003, 4.561746e-003
2.582217e+003, 5.720875e-003
2.584145e+003, 5.683162e-003
2.586074e+003, 5.070836e-003
2.588002e+003, 5.730240e-003
2.589931e+003, 6.140669e-003
2.591859e+003, 5.469904e-003
2.593788e+003, 4.816219e-003
2.595716e+003, 5.060842e-003
2.597645e+003, 5.723674e-003
2.599573e+003, 5.202034e-003
2.601501e+003, 4.740446e-003
2.603430e+003, 5.048611e-003
2.605358e+003, 4.821147e-003
2.607287e+003, 5.157749e-003
2.609215e+003, 5.707686e-003
2.611144e+003, 5.573964e-003
2.613072e+003, 5.549764e-003
2.615001e+003, 5.652613e-003
2.616929e+003, 5.013817e-003
2.618858e+003, 4.765410e-003
2.620786e+003, 5.019903e-003
2.622715e+003, 5.182792e-003
2.624643e+003, 5.580667e-003
2.626572e+003, 5.877567e-003
2.628500e+003, 5.495888e-003
2.630428e+003, 5.290429e-003
2.632357e+003, 5.651355e-003
2.634285e+003, 5.425996e-003
2.636214e+003, 5.447658e-003
2.638142e+003, 6.025086e-003
2.640071e+003, 5.529908e-003
2.641999e+003, 4.792021e-003
2.643928e+003, 5.507939e-003
2.645856e+003, 6.012471e-003
2.647785e+003, 5.784080e-003
2.649713e+003, 5.672959e-003
2.651642e+003, 5.743646e-003
2.653570e+003, 5.950156e-003
2.655499e+003, 5.826403e-003
2.657427e+003, 5.705929e-003
2.659355e+003, 5.477873e-003
2.661284e+003, 5.589598e-003
2.663212e+003, 5.661147e-003
2.665141e+003, 5.502601e-003
2.667069e+003, 5.441492e-003
2.668998e+003, 5.713124e-003
2.670926e+003, 5.806198e-003
2.672855e+003, 5.386616e-003
2.674783e+003, 5.376239e-003
2.676712e+003, 5.650740e-003
2.678640e+003, 5.488356e-003
2.680569e+003, 5.302456e-003
2.682497e+003, 5.407504e-003
2.684426e+003, 5.666751e-003
2.686354e+003, 5.429030e-003
2.688282e+003, 5.330355e-003
2.690211e+003, 5.102266e-003
2.692139e+003, 4.808472e-003
2.694068e+003, 5.690913e-003
2.695996e+003, 6.238373e-003
2.697925e+003, 5.927234e-003
2.699853e+003, 5.259233e-003
2.701782e+003, 5.052524e-003
2.703710e+003, 5.509021e-003
2.705639e+003, 5.833895e-003
2.707567e+003, 5.730831e-003
2.709496e+003, 5.709881e-003
2.711424e+003, 6.146322e-003
2.713353e+003, 6.530534e-003
2.715281e+003, 5.997258e-003
2.717209e+003, 5.531048e-003
2.719138e+003, 5.954149e-003
2.721066e+003, 6.409746e-003
2.722995e+003, 6.085698e-003
2.724923e+003, 5.607008e-003
2.726852e+003, 5.749753e-003
2.728780e+003, 6.482832e-003
2.730709e+003, 6.381026e-003
2.732637e+003, 6.135036e-003
2.734566e+003, 6.368299e-003
2.736494e+003, 6.883749e-003
2.738423e+003, 6.843726e-003
2.740351e+003, 6.950674e-003
2.742280e+003, 7.038401e-003
2.744208e+003, 6.751295e-003
2.746136e+003, 6.424983e-003
2.748065e+003, 6.318060e-003
2.749993e+003, 6.330804e-003
2.751922e+003, 6.518518e-003
2.753850e+003, 6.311107e-003
2.755779e+003, 6.260095e-003
2.757707e+003, 6.223953e-003
2.759636e+003, 5.922851e-003
2.761564e+003, 6.351591e-003
2.763493e+003, 6.839045e-003
2.765421e+003, 6.589350e-003
2.767350e+003, 6.458461e-003
2.769278e+003, 6.645135e-003
2.771207e+003, 6.207354e-003
2.773135e+003, 6.164136e-003
2.775063e+003, 6.287316e-003
2.776992e+003, 6.412118e-003
2.778920e+003, 6.783150e-003
2.780849e+003, 6.529584e-003
2.782777e+003, 6.817877e-003
2.784706e+003, 7.300553e-003
2.786634e+003, 7.371837e-003
2.788563e+003, 7.586658e-003
2.790491e+003, 7.548106e-003
2.792420e+003, 7.611452e-003
2.794348e+003, 7.816083e-003
2.796277e+003, 7.483278e-003
2.798205e+003, 7.017375e-003
2.800134e+003, 6.682629e-003
2.802062e+003, 6.463543e-003
2.803990e+003, 6.705468e-003
2.805919e+003, 6.693549e-003
2.807847e+003, 7.457683e-003
2.809776e+003, 8.098245e-003
2.811704e+003, 7.617298e-003
2.813633e+003, 7.270129e-003
2.815561e+003, 7.221722e-003
2.817490e+003, 7.177309e-003
2.819418e+003, 7.343122e-003
2.821347e+003, 7.617258e-003
2.823275e+003, 7.808305e-003
2.825204e+003, 8.214751e-003
2.827132e+003, 8.269723e-003
2.829061e+003, 8.345942e-003
2.830989e+003, 8.720649e-003
2.832917e+003, 8.851804e-003
2.834846e+003, 9.294286e-003
2.836774e+003, 9.988555e-003
2.838703e+003, 1.013936e-002
2.840631e+003, 9.711715e-003
2.842560e+003, 8.967632e-003
2.844488e+003, 8.379139e-003
2.846417e+003, 7.827867e-003
2.848345e+003, 7.158773e-003
2.850274e+003, 6.475697e-003
2.852202e+003, 6.214461e-003
2.854131e+003, 6.692125e-003
2.856059e+003, 6.967447e-003
2.857988e+003, 6.918228e-003
2.859916e+003, 7.814504e-003
2.861844e+003, 8.421681e-003
2.863773e+003, 8.612717e-003
2.865701e+003, 9.001837e-003
2.867630e+003, 9.366944e-003
2.869558e+003, 9.446643e-003
2.871487e+003, 9.285450e-003
2.873415e+003, 9.198184e-003
2.875344e+003, 9.581974e-003
2.877272e+003, 9.450485e-003
2.879201e+003, 8.927234e-003
2.881129e+003, 9.286931e-003
2.883058e+003, 9.492562e-003
2.884986e+003, 9.199540e-003
2.886915e+003, 9.221641e-003
2.888843e+003, 9.420693e-003
2.890771e+003, 9.097985e-003
2.892700e+003, 8.842069e-003
2.894628e+003, 9.325264e-003
2.896557e+003, 9.352030e-003
2.898485e+003, 9.356372e-003
2.900414e+003, 9.875186e-003
2.902342e+003, 1.002220e-002
2.904271e+003, 1.008088e-002
2.906199e+003, 9.868283e-003
2.908128e+003, 9.917548e-003
2.910056e+003, 1.033642e-002
2.911985e+003, 1.069395e-002
2.913913e+003, 1.089192e-002
2.915842e+003, 1.043534e-002
2.917770e+003, 1.043565e-002
2.919698e+003, 1.031381e-002
2.921627e+003, 9.296370e-003
2.923555e+003, 8.609222e-003
2.925484e+003, 8.900551e-003
2.927412e+003, 9.375117e-003
2.929341e+003, 9.444301e-003
2.931269e+003, 8.187659e-003
2.933198e+003, 7.626092e-003
2.935126e+003, 8.028185e-003
2.937055e+003, 8.131362e-003
2.938983e+003, 8.048424e-003
2.940912e+003, 8.778363e-003
2.942840e+003, 9.772086e-003
2.944769e+003, 1.000013e-002
2.946697e+003, 1.047085e-002
2.948625e+003, 1.103982e-002
2.950554e+003, 1.141128e-002
2.952482e+003, 1.205249e-002
2.954411e+003, 1.183907e-002
2.956339e+003, 1.138897e-002
2.958268e+003, 1.129786e-002
2.960196e+003, 1.180905e-002
2.962125e+003, 1.163381e-002
2.964053e+003, 1.077924e-002
2.965982e+003, 1.014670e-002
2.967910e+003, 9.863934e-003
2.969839e+003, 8.933690e-003
2.971767e+003, 8.233271e-003
2.973696e+003, 8.189247e-003
2.975624e+003, 8.330478e-003
2.977552e+003, 7.790845e-003
2.979481e+003, 7.440472e-003
2.981409e+003, 6.953146e-003
2.983338e+003, 7.427927e-003
2.985266e+003, 7.869113e-003
2.987195e+003, 8.279441e-003
2.989123e+003, 8.071295e-003
2.991052e+003, 7.908831e-003
2.992980e+003, 8.003172e-003
2.994909e+003, 8.227865e-003
2.996837e+003, 8.940218e-003
2.998766e+003, 9.042184e-003
3.000694e+003, 7.920079e-003
3.002623e+003, 7.750009e-003
3.004551e+003, 7.847884e-003
3.006479e+003, 7.773672e-003
3.008408e+003, 7.296054e-003
3.010336e+003, 7.215586e-003
3.012265e+003, 7.879389e-003
3.014193e+003, 7.742840e-003
3.016122e+003, 7.794205e-003
3.018050e+003, 8.451495e-003
3.019979e+003, 8.746216e-003
3.021907e+003, 9.114310e-003
3.023836e+003, 9.504559e-003
3.025764e+003, 9.490315e-003
3.027693e+003, 8.576436e-003
3.029621e+003, 8.473189e-003
3.031550e+003, 8.638211e-003
3.033478e+003, 8.482217e-003
3.035406e+003, 8.503580e-003
3.037335e+003, 8.749940e-003
3.039263e+003, 9.298249e-003
3.041192e+003, 1.005855e-002
3.043120e+003, 1.038325e-002
3.045049e+003, 1.039266e-002
3.046977e+003, 9.847341e-003
3.048906e+003, 9.751351e-003
3.050834e+003, 1.032569e-002
3.052763e+003, 1.055740e-002
3.054691e+003, 1.025661e-002
3.056620e+003, 9.716081e-003
3.058548e+003, 9.124149e-003
3.060477e+003, 8.611965e-003
3.062405e+003, 9.250184e-003
3.064333e+003, 1.007284e-002
3.066262e+003, 1.040867e-002
3.068190e+003, 1.060965e-002
3.070119e+003, 1.040749e-002
3.072047e+003, 1.073670e-002
3.073976e+003, 1.084440e-002
3.075904e+003, 1.084663e-002
3.077833e+003, 1.048077e-002
3.079761e+003, 1.100686e-002
3.081690e+003, 1.189751e-002
3.083618e+003, 1.144901e-002
3.085547e+003, 1.084417e-002
3.087475e+003, 1.052805e-002
3.089404e+003, 1.093441e-002
3.091332e+003, 1.142470e-002
3.093260e+003, 1.114425e-002
3.095189e+003, 1.054030e-002
3.097117e+003, 1.098227e-002
3.099046e+003, 1.121764e-002
3.100974e+003, 1.066418e-002
3.102903e+003, 1.117665e-002
3.104831e+003, 1.240279e-002
3.106760e+003, 1.183362e-002
3.108688e+003, 1.162130e-002
3.110617e+003, 1.221911e-002
3.112545e+003, 1.226805e-002
3.114474e+003, 1.180343e-002
3.116402e+003, 1.210502e-002
3.118331e+003, 1.212463e-002
3.120259e+003, 1.158385e-002
3.122188e+003, 1.120407e-002
3.124116e+003, 1.143075e-002
3.126044e+003, 1.204493e-002
3.127973e+003, 1.264219e-002
3.129901e+003, 1.220173e-002
3.131830e+003, 1.152619e-002
3.133758e+003, 1.296679e-002
3.135687e+003, 1.319994e-002
3.137615e+003, 1.270522e-002
3.139544e+003, 1.210741e-002
3.141472e+003, 1.156011e-002
3.143401e+003, 1.152142e-002
3.145329e+003, 1.242857e-002
3.147258e+003, 1.269813e-002
3.149186e+003, 1.324686e-002
3.151115e+003, 1.377841e-002
3.153043e+003, 1.355830e-002
3.154971e+003, 1.300092e-002
3.156900e+003, 1.271457e-002
3.158828e+003, 1.304042e-002
3.160757e+003, 1.391388e-002
3.162685e+003, 1.354715e-002
3.164614e+003, 1.278276e-002
3.166542e+003, 1.348986e-002
3.168471e+003, 1.415029e-002
3.170399e+003, 1.342684e-002
3.172328e+003, 1.323314e-002
3.174256e+003, 1.334058e-002
3.176185e+003, 1.406649e-002
3.178113e+003, 1.481748e-002
3.180042e+003, 1.422345e-002
3.181970e+003, 1.343497e-002
3.183898e+003, 1.347775e-002
3.185827e+003, 1.352582e-002
3.187755e+003, 1.436945e-002
3.189684e+003, 1.515008e-002
3.191612e+003, 1.452694e-002
3.193541e+003, 1.422907e-002
3.195469e+003, 1.412054e-002
3.197398e+003, 1.422507e-002
3.199326e+003, 1.456779e-002
3.201255e+003, 1.529234e-002
3.203183e+003, 1.563419e-002
3.205112e+003, 1.487661e-002
3.207040e+003, 1.401026e-002
3.208969e+003, 1.385359e-002
3.210897e+003, 1.471908e-002
3.212825e+003, 1.562141e-002
3.214754e+003, 1.543154e-002
3.216682e+003, 1.462262e-002
3.218611e+003, 1.557936e-002
3.220539e+003, 1.544402e-002
3.222468e+003, 1.409225e-002
3.224396e+003, 1.408159e-002
3.226325e+003, 1.490610e-002
3.228253e+003, 1.528739e-002
3.230182e+003, 1.581985e-002
3.232110e+003, 1.532304e-002
3.234039e+003, 1.525679e-002
3.235967e+003, 1.538491e-002
3.237896e+003, 1.500679e-002
3.239824e+003, 1.568136e-002
3.241752e+003, 1.600227e-002
3.243681e+003, 1.653196e-002
3.245609e+003, 1.660776e-002
3.247538e+003, 1.600545e-002
3.249466e+003, 1.577450e-002
3.251395e+003, 1.613776e-002
3.253323e+003, 1.602431e-002
3.255252e+003, 1.496377e-002
3.257180e+003, 1.474130e-002
3.259109e+003, 1.483271e-002
3.261037e+003, 1.575735e-002
3.262966e+003, 1.589209e-002
3.264894e+003, 1.549894e-002
3.266823e+003, 1.463029e-002
3.268751e+003, 1.499151e-002
3.270679e+003, 1.543323e-002
3.272608e+003, 1.538759e-002
3.274536e+003, 1.543008e-002
3.276465e+003, 1.732287e-002
3.278393e+003, 1.664087e-002
3.280322e+003, 1.515552e-002
3.282250e+003, 1.575952e-002
3.284179e+003, 1.619238e-002
3.286107e+003, 1.647646e-002
3.288036e+003, 1.666938e-002
3.289964e+003, 1.679034e-002
3.291893e+003, 1.698288e-002
3.293821e+003, 1.663732e-002
3.295750e+003, 1.663718e-002
3.297678e+003, 1.696245e-002
3.299606e+003, 1.672336e-002
3.301535e+003, 1.676863e-002
3.303463e+003, 1.691449e-002
3.305392e+003, 1.779200e-002
3.307320e+003, 1.787693e-002
3.309249e+003, 1.726395e-002
3.311177e+003, 1.668928e-002
3.313106e+003, 1.649674e-002
3.315034e+003, 1.697189e-002
3.316963e+003, 1.747614e-002
3.318891e+003, 1.836121e-002
3.320820e+003, 1.861338e-002
3.322748e+003, 1.860828e-002
3.324677e+003, 1.781843e-002
3.326605e+003, 1.724315e-002
3.328533e+003, 1.744611e-002
3.330462e+003, 1.828592e-002
3.332390e+003, 1.824218e-002
3.334319e+003, 1.794194e-002
3.336247e+003, 1.831305e-002
3.338176e+003, 1.868819e-002
3.340104e+003, 1.856963e-002
3.342033e+003, 1.847864e-002
3.343961e+003, 1.812004e-002
3.345890e+003, 1.684291e-002
3.347818e+003, 1.687664e-002
3.349747e+003, 1.847939e-002
3.351675e+003, 1.792425e-002
3.353604e+003, 1.706576e-002
3.355532e+003, 1.779146e-002
3.357460e+003, 1.812708e-002
3.359389e+003, 1.875195e-002
3.361317e+003, 1.800244e-002
3.363246e+003, 1.780559e-002
3.365174e+003, 1.902997e-002
3.367103e+003, 1.906588e-002
3.369031e+003, 1.841376e-002
3.370960e+003, 1.794266e-002
3.372888e+003, 1.844038e-002
3.374817e+003, 1.798431e-002
3.376745e+003, 1.852209e-002
3.378674e+003, 1.939561e-002
3.380602e+003, 1.948489e-002
3.382531e+003, 1.979660e-002
3.384459e+003, 1.914134e-002
3.386387e+003, 1.689523e-002
3.388316e+003, 1.688040e-002
3.390244e+003, 1.802942e-002
3.392173e+003, 1.874038e-002
3.394101e+003, 1.913179e-002
3.396030e+003, 1.890815e-002
3.397958e+003, 1.853451e-002
3.399887e+003, 1.836167e-002
3.401815e+003, 1.940562e-002
3.403744e+003, 1.974076e-002
3.405672e+003, 1.946806e-002
3.407601e+003, 1.928002e-002
3.409529e+003, 1.941051e-002
3.411458e+003, 2.029094e-002
3.413386e+003, 2.029571e-002
3.415314e+003, 1.973801e-002
3.417243e+003, 1.857512e-002
3.419171e+003, 1.838401e-002
3.421100e+003, 1.883776e-002
3.423028e+003, 1.859486e-002
3.424957e+003, 1.826266e-002
3.426885e+003, 1.843204e-002
3.428814e+003, 1.832722e-002
3.430742e+003, 1.723342e-002
3.432671e+003, 1.686944e-002
3.434599e+003, 1.744132e-002
3.436528e+003, 1.801891e-002
3.438456e+003, 1.763175e-002
3.440385e+003, 1.776855e-002
3.442313e+003, 1.818483e-002
3.444241e+003, 1.825495e-002
3.446170e+003, 1.802729e-002
3.448098e+003, 1.826574e-002
3.450027e+003, 1.842396e-002
3.451955e+003, 1.893442e-002
3.453884e+003, 1.890353e-002
3.455812e+003, 1.839576e-002
3.457741e+003, 1.947703e-002
3.459669e+003, 1.976461e-002
3.461598e+003, 1.916691e-002
3.463526e+003, 1.930871e-002
3.465455e+003, 2.027893e-002
3.467383e+003, 1.999637e-002
3.469312e+003, 1.883848e-002
3.471240e+003, 1.801243e-002
3.473168e+003, 1.847265e-002
3.475097e+003, 1.836559e-002
3.477025e+003, 1.804459e-002
3.478954e+003, 1.776380e-002
3.480882e+003, 1.771510e-002
3.482811e+003, 1.859134e-002
3.484739e+003, 1.793767e-002
3.486668e+003, 1.824780e-002
3.488596e+003, 1.863898e-002
3.490525e+003, 1.974235e-002
3.492453e+003, 2.200266e-002
3.494382e+003, 2.228862e-002
3.496310e+003, 1.984701e-002
3.498239e+003, 1.822146e-002
3.500167e+003, 1.832653e-002
3.502095e+003, 1.906887e-002
3.504024e+003, 1.911529e-002
3.505952e+003, 1.851276e-002
3.507881e+003, 1.766073e-002
3.509809e+003, 1.772333e-002
3.511738e+003, 1.994529e-002
3.513666e+003, 1.945350e-002
3.515595e+003, 1.745334e-002
3.517523e+003, 1.753466e-002
3.519452e+003, 1.831079e-002
3.521380e+003, 1.828393e-002
3.523309e+003, 1.786656e-002
3.525237e+003, 1.672841e-002
3.527166e+003, 1.679968e-002
3.529094e+003, 1.844886e-002
3.531022e+003, 1.879627e-002
3.532951e+003, 1.884945e-002
3.534879e+003, 1.855332e-002
3.536808e+003, 1.751173e-002
3.538736e+003, 1.717394e-002
3.540665e+003, 1.776176e-002
3.542593e+003, 1.812280e-002
3.544522e+003, 1.809260e-002
3.546450e+003, 1.810626e-002
3.548379e+003, 1.817713e-002
3.550307e+003, 1.795171e-002
3.552236e+003, 1.691457e-002
3.554164e+003, 1.727189e-002
3.556093e+003, 1.856923e-002
3.558021e+003, 1.773594e-002
3.559949e+003, 1.765754e-002
3.561878e+003, 1.814818e-002
3.563806e+003, 1.775245e-002
3.565735e+003, 1.782831e-002
3.567663e+003, 1.835586e-002
3.569592e+003, 1.758791e-002
3.571520e+003, 1.680101e-002
3.573449e+003, 1.665529e-002
3.575377e+003, 1.743304e-002
3.577306e+003, 1.689911e-002
3.579234e+003, 1.696876e-002
3.581163e+003, 1.711651e-002
3.583091e+003, 1.633440e-002
3.585020e+003, 1.662560e-002
3.586948e+003, 1.696376e-002
3.588876e+003, 1.665594e-002
3.590805e+003, 1.706304e-002
3.592733e+003, 1.792099e-002
3.594662e+003, 1.673950e-002
3.596590e+003, 1.520909e-002
3.598519e+003, 1.445981e-002
3.600447e+003, 1.410963e-002
3.602376e+003, 1.398100e-002
3.604304e+003, 1.459320e-002
3.606233e+003, 1.582525e-002
3.608161e+003, 1.619687e-002
3.610090e+003, 1.634058e-002
3.612018e+003, 1.512164e-002
3.613947e+003, 1.526563e-002
3.615875e+003, 1.616666e-002
3.617803e+003, 1.528023e-002
3.619732e+003, 1.517954e-002
3.621660e+003, 1.545028e-002
3.623589e+003, 1.362257e-002
3.625517e+003, 1.263562e-002
3.627446e+003, 1.161994e-002
3.629374e+003, 1.015212e-002
3.631303e+003, 1.071567e-002
3.633231e+003, 1.182355e-002
3.635160e+003, 1.209128e-002
3.637088e+003, 1.163311e-002
3.639017e+003, 1.143323e-002
3.640945e+003, 1.255263e-002
3.642874e+003, 1.254071e-002
3.644802e+003, 1.170948e-002
3.646730e+003, 1.203326e-002
3.648659e+003, 1.293215e-002
3.650587e+003, 1.116933e-002
3.652516e+003, 1.081339e-002
3.654444e+003, 1.155422e-002
3.656373e+003, 1.260112e-002
3.658301e+003, 1.312280e-002
3.660230e+003, 1.173966e-002
3.662158e+003, 1.090886e-002
3.664087e+003, 1.191858e-002
3.666015e+003, 1.218574e-002
3.667944e+003, 1.175411e-002
3.669872e+003, 1.150573e-002
3.671801e+003, 1.133805e-002
3.673729e+003, 1.086296e-002
3.675657e+003, 9.975696e-003
3.677586e+003, 9.485125e-003
3.679514e+003, 1.023363e-002
3.681443e+003, 1.053487e-002
3.683371e+003, 1.170302e-002
3.685300e+003, 1.201739e-002
3.687228e+003, 1.020875e-002
3.689157e+003, 9.739393e-003
3.691085e+003, 1.014839e-002
3.693014e+003, 9.445211e-003
3.694942e+003, 9.989619e-003
3.696871e+003, 9.898933e-003
3.698799e+003, 1.083897e-002
3.700728e+003, 1.272227e-002
3.702656e+003, 1.203066e-002
3.704584e+003, 1.243976e-002
3.706513e+003, 1.241186e-002
3.708441e+003, 1.085281e-002
3.710370e+003, 9.639144e-003
3.712298e+003, 9.782927e-003
3.714227e+003, 1.028461e-002
3.716155e+003, 9.989498e-003
3.718084e+003, 1.031660e-002
3.720012e+003, 9.827373e-003
3.721941e+003, 8.500831e-003
3.723869e+003, 8.095217e-003
3.725798e+003, 8.650962e-003
3.727726e+003, 8.073742e-003
3.729655e+003, 7.580857e-003
3.731583e+003, 7.922561e-003
3.733511e+003, 8.595886e-003
3.735440e+003, 8.753833e-003
3.737368e+003, 8.461630e-003
3.739297e+003, 8.451235e-003
3.741225e+003, 9.641579e-003
3.743154e+003, 9.099158e-003
3.745082e+003, 8.160624e-003
3.747011e+003, 9.184174e-003
3.748939e+003, 9.652738e-003
3.750868e+003, 1.051224e-002
3.752796e+003, 9.648288e-003
3.754725e+003, 7.991011e-003
3.756653e+003, 7.291378e-003
3.758582e+003, 7.121547e-003
3.760510e+003, 8.129077e-003
3.762438e+003, 8.330433e-003
3.764367e+003, 7.717434e-003
3.766295e+003, 7.734968e-003
3.768224e+003, 8.426476e-003
3.770152e+003, 7.436230e-003
3.772081e+003, 7.635865e-003
3.774009e+003, 7.820699e-003
3.775938e+003, 7.612591e-003
3.777866e+003, 8.489450e-003
3.779795e+003, 9.170033e-003
3.781723e+003, 9.395164e-003
3.783652e+003, 9.866523e-003
3.785580e+003, 9.469576e-003
3.787509e+003, 9.094539e-003
3.789437e+003, 8.514405e-003
3.791365e+003, 8.123477e-003
3.793294e+003, 8.174619e-003
3.795222e+003, 9.914210e-003
3.797151e+003, 1.091573e-002
3.799079e+003, 1.009815e-002
3.801008e+003, 8.231273e-003
3.802936e+003, 7.711195e-003
3.804865e+003, 7.353190e-003
3.806793e+003, 7.434433e-003
3.808722e+003, 7.532705e-003
3.810650e+003, 6.054237e-003
3.812579e+003, 5.543431e-003
3.814507e+003, 7.065407e-003
3.816436e+003, 9.556992e-003
3.818364e+003, 1.059102e-002
3.820292e+003, 9.171031e-003
3.822221e+003, 7.486184e-003
3.824149e+003, 6.844843e-003
3.826078e+003, 7.738321e-003
3.828006e+003, 9.766767e-003
3.829935e+003, 9.465560e-003
3.831863e+003, 8.029201e-003
3.833792e+003, 7.272225e-003
3.835720e+003, 8.025864e-003
3.837649e+003, 9.059273e-003
3.839577e+003, 9.339533e-003
3.841506e+003, 7.459640e-003
3.843434e+003, 7.471363e-003
3.845363e+003, 8.847596e-003
3.847291e+003, 1.012713e-002
3.849219e+003, 1.018510e-002
3.851148e+003, 1.032414e-002
3.853076e+003, 1.015472e-002
3.855005e+003, 8.429542e-003
3.856933e+003, 9.024030e-003
3.858862e+003, 8.710072e-003
3.860790e+003, 8.811728e-003
3.862719e+003, 9.814971e-003
3.864647e+003, 9.432035e-003
3.866576e+003, 9.420470e-003
3.868504e+003, 8.201778e-003
3.870433e+003, 5.955229e-003
3.872361e+003, 7.855324e-003
3.874290e+003, 8.518192e-003
3.876218e+003, 8.061034e-003
3.878146e+003, 8.819532e-003
3.880075e+003, 8.503286e-003
3.882003e+003, 6.954046e-003
3.883932e+003, 7.157960e-003
3.885860e+003, 7.972502e-003
3.887789e+003, 7.616839e-003
3.889717e+003, 5.564764e-003
3.891646e+003, 5.400849e-003
3.893574e+003, 6.795147e-003
3.895503e+003, 7.240145e-003
3.897431e+003, 8.246049e-003
3.899360e+003, 8.774837e-003
3.901288e+003, 7.948051e-003
3.903217e+003, 8.225044e-003
3.905145e+003, 9.510952e-003
3.907073e+003, 9.911279e-003
3.909002e+003, 9.903394e-003
3.910930e+003, 9.595292e-003
3.912859e+003, 8.754979e-003
3.914787e+003, 7.804041e-003
3.916716e+003, 6.727642e-003
3.918644e+003, 7.938175e-003
3.920573e+003, 8.864070e-003
3.922501e+003, 8.054601e-003
3.924430e+003, 7.114698e-003
3.926358e+003, 6.417892e-003
3.928287e+003, 7.322538e-003
3.930215e+003, 9.018884e-003
3.932144e+003, 1.012222e-002
3.934072e+003, 1.002477e-002
3.936000e+003, 9.530206e-003
3.937929e+003, 9.107120e-003
3.939857e+003, 8.294387e-003
3.941786e+003, 8.102729e-003
3.943714e+003, 8.664411e-003
3.945643e+003, 7.594076e-003
3.947571e+003, 8.001623e-003
3.949500e+003, 9.670725e-003
3.951428e+003, 1.012101e-002
3.953357e+003, 1.021210e-002
3.955285e+003, 9.775395e-003
3.957214e+003, 9.064998e-003
3.959142e+003, 8.484730e-003
3.961071e+003, 9.082657e-003
3.962999e+003, 7.246250e-003
3.964927e+003, 6.558300e-003
3.966856e+003, 7.788877e-003
3.968784e+003, 7.904508e-003
3.970713e+003, 7.490385e-003
3.972641e+003, 8.255887e-003
3.974570e+003, 8.509661e-003
3.976498e+003, 8.218208e-003
3.978427e+003, 8.549067e-003
3.980355e+003, 1.028673e-002
3.982284e+003, 1.107883e-002
3.984212e+003, 1.069590e-002
3.986141e+003, 9.790446e-003
3.988069e+003, 1.063331e-002
3.989998e+003, 1.077545e-002
3.991926e+003, 8.404925e-003
3.993854e+003, 8.988262e-003
3.995783e+003, 1.125857e-002
3.997711e+003, 1.173730e-002
3.999640e+003, 1.174296e-002
##END=



