##NAMES=Phosgenite
##RRUFFID=R050640
##IDEAL CHEMISTRY=Pb^2+^_2_CO_3_Cl_2_
##LOCALITY=Monte Poni, Sardinia, Italy
##OWNER=RRUFF
##SOURCE=University of Arizona Mineral Museum
##DESCRIPTION=Gray rectangular prismatic crystal
##STATUS=The identification of this mineral has been confirmed by X-ray diffraction and chemical analysis
##URL=rruff.info/R050640
##MEASURED CHEMISTRY=Pb_2.00_(CO_3_)Cl_2.03_ ; C estimated by difference
399.1926, 1.7919300E-02
401.1211, 2.6251441E-02
403.0496, 2.6377650E-02
404.9780, 2.5506999E-02
406.9065, 2.3995711E-02
408.8350, 2.1814739E-02
410.7634, 2.4098590E-02
412.6919, 2.5189230E-02
414.6204, 2.4090370E-02
416.5488, 2.3567680E-02
418.4773, 2.3553479E-02
420.4058, 2.3720341E-02
422.3342, 2.3764700E-02
424.2627, 2.5711030E-02
426.1912, 2.7035760E-02
428.1196, 2.7138891E-02
430.0481, 2.6755430E-02
431.9766, 2.4775879E-02
433.9050, 2.3212651E-02
435.8335, 2.4665879E-02
437.7620, 2.5934881E-02
439.6904, 2.6839400E-02
441.6189, 2.7244290E-02
443.5474, 2.5976280E-02
445.4758, 2.7224220E-02
447.4043, 2.7948730E-02
449.3328, 2.8705470E-02
451.2612, 2.9981650E-02
453.1897, 3.1877011E-02
455.1182, 3.3000771E-02
457.0466, 3.3390280E-02
458.9751, 3.4041472E-02
460.9036, 3.4946039E-02
462.8320, 3.6599301E-02
464.7605, 3.8653292E-02
466.6890, 4.0077280E-02
468.6174, 4.1246329E-02
470.5459, 4.2670708E-02
472.4744, 4.4371560E-02
474.4028, 4.6368591E-02
476.3313, 4.6675771E-02
478.2598, 4.5053791E-02
480.1882, 4.3884400E-02
482.1167, 4.2852979E-02
484.0452, 4.2396210E-02
485.9736, 4.1881550E-02
487.9021, 4.1452669E-02
489.8306, 4.1507270E-02
491.7590, 4.1696869E-02
493.6875, 4.1566089E-02
495.6160, 4.1782510E-02
497.5444, 4.2236529E-02
499.4729, 4.2329259E-02
501.4014, 4.3157309E-02
503.3298, 4.4215210E-02
505.2583, 4.5379430E-02
507.1868, 4.6235930E-02
509.1152, 4.6575550E-02
511.0437, 4.8175160E-02
512.9722, 4.9764059E-02
514.9006, 5.0862290E-02
516.8291, 5.1980089E-02
518.7576, 5.2630529E-02
520.6860, 5.3829599E-02
522.6145, 5.5472098E-02
524.5430, 5.6567062E-02
526.4714, 5.7293110E-02
528.3999, 5.8041599E-02
530.3284, 5.9216350E-02
532.2568, 6.0112242E-02
534.1853, 6.0672149E-02
536.1138, 6.0480099E-02
538.0422, 6.0086280E-02
539.9707, 6.0650680E-02
541.8992, 6.1645329E-02
543.8276, 6.1943270E-02
545.7561, 6.2537722E-02
547.6846, 6.3470043E-02
549.6130, 6.4003877E-02
551.5415, 6.4379454E-02
553.4700, 6.4916573E-02
555.3984, 6.5699331E-02
557.3269, 6.6774577E-02
559.2554, 6.7521632E-02
561.1838, 6.7564368E-02
563.1123, 6.7912303E-02
565.0408, 6.8652824E-02
566.9692, 6.9424823E-02
568.8977, 6.9542073E-02
570.8262, 6.9745943E-02
572.7546, 7.0486210E-02
574.6831, 7.1547084E-02
576.6116, 7.2345249E-02
578.5400, 7.2945952E-02
580.4685, 7.3812507E-02
582.3970, 7.5037234E-02
584.3254, 7.6262534E-02
586.2539, 7.7545702E-02
588.1824, 7.9827107E-02
590.1108, 8.1976406E-02
592.0393, 8.3700687E-02
593.9678, 8.5471652E-02
595.8962, 8.7186590E-02
597.8247, 8.7990478E-02
599.7532, 8.7969802E-02
601.6816, 8.7568797E-02
603.6101, 8.6551048E-02
605.5386, 8.4808096E-02
607.4670, 8.3317563E-02
609.3955, 8.2884014E-02
611.3240, 8.2678869E-02
613.2524, 8.2691677E-02
615.1809, 8.3246693E-02
617.1094, 8.4558323E-02
619.0378, 8.6459689E-02
620.9663, 8.8306047E-02
622.8948, 9.0213053E-02
624.8232, 9.2461191E-02
626.7517, 9.4862223E-02
628.6802, 9.6840367E-02
630.6086, 9.8275527E-02
632.5371, 9.9520370E-02
634.4656, 0.1000792
636.3940, 0.1012723
638.3225, 0.1032422
640.2510, 0.1076303
642.1794, 0.1169942
644.1079, 0.1380848
646.0364, 0.1858105
647.9648, 0.1995834
649.8933, 0.1159526
651.8218, 6.5961927E-02
653.7502, 6.3048817E-02
655.6787, 6.7209899E-02
657.6072, 7.0645057E-02
659.5356, 7.3505141E-02
661.4641, 7.6245673E-02
663.3926, 7.8719832E-02
665.3210, 8.0684260E-02
667.2495, 8.1673130E-02
669.1780, 8.3129764E-02
671.1064, 8.5081659E-02
673.0349, 8.7018408E-02
674.9634, 8.8456258E-02
676.8918, 9.0102829E-02
678.8203, 9.1355577E-02
680.7488, 9.2689201E-02
682.6772, 9.3750857E-02
684.6057, 9.5116019E-02
686.5342, 9.6412636E-02
688.4626, 9.7905964E-02
690.3911, 9.9769562E-02
692.3196, 0.1016023
694.2480, 0.1029801
696.1765, 0.1043436
698.1050, 0.1056669
700.0334, 0.1068450
701.9619, 0.1079065
703.8904, 0.1099527
705.8188, 0.1118702
707.7473, 0.1136204
709.6758, 0.1154489
711.6042, 0.1175703
713.5327, 0.1196259
715.4612, 0.1218874
717.3896, 0.1243632
719.3181, 0.1271417
721.2466, 0.1292976
723.1750, 0.1316940
725.1035, 0.1348755
727.0320, 0.1383300
728.9604, 0.1417912
730.8889, 0.1455803
732.8174, 0.1501850
734.7458, 0.1560049
736.6743, 0.1615721
738.6028, 0.1671002
740.5313, 0.1750482
742.4597, 0.1846457
744.3882, 0.1963372
746.3167, 0.2118313
748.2451, 0.2288755
750.1736, 0.2503177
752.1021, 0.2826887
754.0305, 0.3279212
755.9590, 0.3716455
757.8875, 0.3562033
759.8159, 0.2631807
761.7444, 0.1636359
763.6729, 0.1028816
765.6013, 7.8829579E-02
767.5298, 7.1423396E-02
769.4583, 6.9713794E-02
771.3867, 6.9959737E-02
773.3152, 7.1650870E-02
775.2437, 7.4235633E-02
777.1721, 7.7389553E-02
779.1006, 7.9912268E-02
781.0291, 8.2573287E-02
782.9575, 8.5443713E-02
784.8860, 8.8449813E-02
786.8145, 9.1047153E-02
788.7429, 9.3808793E-02
790.6714, 9.6301213E-02
792.5999, 9.8839067E-02
794.5283, 0.1014276
796.4568, 0.1040177
798.3853, 0.1068884
800.3137, 0.1098901
802.2422, 0.1128290
804.1707, 0.1158526
806.0991, 0.1185647
808.0276, 0.1233058
809.9561, 0.1302045
811.8845, 0.1312454
813.8130, 0.1289023
815.7415, 0.1332301
817.6699, 0.1394044
819.5984, 0.1470483
821.5269, 0.1550112
823.4553, 0.1653083
825.3838, 0.1777935
827.3123, 0.1957155
829.2407, 0.2204410
831.1692, 0.2624102
833.0977, 0.3302021
835.0261, 0.3783634
836.9546, 0.2430706
838.8831, 9.4410174E-02
840.8115, 5.2503102E-02
842.7400, 5.3651132E-02
844.6685, 6.0340330E-02
846.5969, 6.7074537E-02
848.5254, 7.4074157E-02
850.4539, 7.9747468E-02
852.3823, 8.4657833E-02
854.3108, 8.8029087E-02
856.2393, 9.1438122E-02
858.1677, 9.4420142E-02
860.0962, 9.7540289E-02
862.0247, 0.1005237
863.9531, 0.1033953
865.8816, 0.1055468
867.8101, 0.1077496
869.7385, 0.1093275
871.6670, 0.1117087
873.5955, 0.1136245
875.5239, 0.1158887
877.4524, 0.1179222
879.3809, 0.1195601
881.3093, 0.1210137
883.2378, 0.1225529
885.1663, 0.1239526
887.0947, 0.1256169
889.0232, 0.1271130
890.9517, 0.1288031
892.8801, 0.1303835
894.8085, 0.1321672
896.7370, 0.1338061
898.6655, 0.1353840
900.5939, 0.1367811
902.5224, 0.1382832
904.4509, 0.1396511
906.3793, 0.1412133
908.3078, 0.1425627
910.2363, 0.1437790
912.1647, 0.1448146
914.0932, 0.1457995
916.0217, 0.1468045
917.9501, 0.1480933
919.8786, 0.1496685
921.8071, 0.1508809
923.7355, 0.1516302
925.6640, 0.1531498
927.5925, 0.1544537
929.5209, 0.1557346
931.4494, 0.1569068
933.3779, 0.1583731
935.3063, 0.1601001
937.2348, 0.1615052
939.1633, 0.1624770
941.0917, 0.1634921
943.0202, 0.1646296
944.9487, 0.1658647
946.8771, 0.1672267
948.8056, 0.1691926
950.7341, 0.1710144
952.6625, 0.1727395
954.5910, 0.1744716
956.5195, 0.1761782
958.4479, 0.1778601
960.3764, 0.1799002
962.3049, 0.1819135
964.2333, 0.1842430
966.1618, 0.1864127
968.0903, 0.1877603
970.0187, 0.1884131
971.9472, 0.1891986
973.8757, 0.1909607
975.8041, 0.1938604
977.7326, 0.1963964
979.6611, 0.1988124
981.5895, 0.2013782
983.5180, 0.2039176
985.4465, 0.2062961
987.3749, 0.2083452
989.3034, 0.2101414
991.2319, 0.2122263
993.1603, 0.2144368
995.0888, 0.2160988
997.0173, 0.2172756
998.9457, 0.2186747
1000.874, 0.2195717
1002.803, 0.2206267
1004.731, 0.2224095
1006.660, 0.2243394
1008.588, 0.2258854
1010.517, 0.2274912
1012.445, 0.2294556
1014.373, 0.2309841
1016.302, 0.2320864
1018.230, 0.2336598
1020.159, 0.2351697
1022.087, 0.2366678
1024.016, 0.2379661
1025.944, 0.2394637
1027.873, 0.2409852
1029.801, 0.2420856
1031.730, 0.2425840
1033.658, 0.2428960
1035.587, 0.2428171
1037.515, 0.2428840
1039.444, 0.2430101
1041.372, 0.2434060
1043.301, 0.2441267
1045.229, 0.2447884
1047.157, 0.2453163
1049.086, 0.2461237
1051.014, 0.2471779
1052.943, 0.2482899
1054.871, 0.2495891
1056.800, 0.2518492
1058.728, 0.2555437
1060.657, 0.2586590
1062.585, 0.2536207
1064.514, 0.2443003
1066.442, 0.2405490
1068.371, 0.2405573
1070.299, 0.2411614
1072.228, 0.2415154
1074.156, 0.2411239
1076.084, 0.2409559
1078.013, 0.2412473
1079.941, 0.2410803
1081.870, 0.2407513
1083.798, 0.2404954
1085.727, 0.2406242
1087.655, 0.2412152
1089.584, 0.2415321
1091.512, 0.2413624
1093.441, 0.2412725
1095.369, 0.2412711
1097.298, 0.2410804
1099.226, 0.2409433
1101.155, 0.2411637
1103.083, 0.2417473
1105.011, 0.2419400
1106.940, 0.2422894
1108.868, 0.2422675
1110.797, 0.2420224
1112.725, 0.2421259
1114.654, 0.2425831
1116.582, 0.2434590
1118.511, 0.2446450
1120.439, 0.2458411
1122.368, 0.2475291
1124.296, 0.2489337
1126.225, 0.2494368
1128.153, 0.2492523
1130.082, 0.2486472
1132.010, 0.2478313
1133.938, 0.2471888
1135.867, 0.2467546
1137.795, 0.2465830
1139.724, 0.2466983
1141.652, 0.2470942
1143.581, 0.2474326
1145.509, 0.2483479
1147.438, 0.2499007
1149.366, 0.2514374
1151.295, 0.2530980
1153.223, 0.2550740
1155.152, 0.2570299
1157.080, 0.2590147
1159.009, 0.2609560
1160.937, 0.2630711
1162.865, 0.2655039
1164.794, 0.2671543
1166.722, 0.2684978
1168.651, 0.2699913
1170.579, 0.2714019
1172.508, 0.2729786
1174.436, 0.2743767
1176.365, 0.2758659
1178.293, 0.2768188
1180.222, 0.2779091
1182.150, 0.2789843
1184.079, 0.2802095
1186.007, 0.2819826
1187.936, 0.2829751
1189.864, 0.2839470
1191.792, 0.2853042
1193.721, 0.2868256
1195.649, 0.2884541
1197.578, 0.2903192
1199.506, 0.2923544
1201.435, 0.2941403
1203.363, 0.2960702
1205.292, 0.2982241
1207.220, 0.3000944
1209.149, 0.3018422
1211.077, 0.3037404
1213.006, 0.3060989
1214.934, 0.3086575
1216.863, 0.3108544
1218.791, 0.3133412
1220.719, 0.3159629
1222.648, 0.3182246
1224.576, 0.3211223
1226.505, 0.3243947
1228.433, 0.3275948
1230.362, 0.3306125
1232.290, 0.3336135
1234.219, 0.3367183
1236.147, 0.3401270
1238.076, 0.3438479
1240.004, 0.3480563
1241.933, 0.3520153
1243.861, 0.3556794
1245.790, 0.3595165
1247.718, 0.3639918
1249.646, 0.3685335
1251.575, 0.3730467
1253.503, 0.3777451
1255.432, 0.3826217
1257.360, 0.3876762
1259.289, 0.3928316
1261.217, 0.3977456
1263.146, 0.4026369
1265.074, 0.4080455
1267.003, 0.4137237
1268.931, 0.4191933
1270.860, 0.4243759
1272.788, 0.4294052
1274.717, 0.4346191
1276.645, 0.4398045
1278.573, 0.4455657
1280.502, 0.4515105
1282.430, 0.4574599
1284.359, 0.4634421
1286.287, 0.4694230
1288.216, 0.4756088
1290.144, 0.4822284
1292.073, 0.4888251
1294.001, 0.4955802
1295.930, 0.5020417
1297.858, 0.5081814
1299.787, 0.5154135
1301.715, 0.5228415
1303.644, 0.5291308
1305.572, 0.5356874
1307.500, 0.5425984
1309.429, 0.5490764
1311.357, 0.5563082
1313.286, 0.5647590
1315.214, 0.5741916
1317.143, 0.5836149
1319.071, 0.5914395
1321.000, 0.5991970
1322.928, 0.6072629
1324.857, 0.6140741
1326.785, 0.6198586
1328.714, 0.6236956
1330.642, 0.6243605
1332.571, 0.6234795
1334.499, 0.6205022
1336.427, 0.6141276
1338.356, 0.6044138
1340.284, 0.5915076
1342.213, 0.5752173
1344.141, 0.5560991
1346.070, 0.5344787
1347.998, 0.5105861
1349.927, 0.4850039
1351.855, 0.4592200
1353.784, 0.4329027
1355.712, 0.4070836
1357.641, 0.3832033
1359.569, 0.3611802
1361.498, 0.3408943
1363.426, 0.3232276
1365.354, 0.3079976
1367.283, 0.2952670
1369.211, 0.2840334
1371.140, 0.2744501
1373.068, 0.2665086
1374.997, 0.2597701
1376.925, 0.2543557
1378.854, 0.2498033
1380.782, 0.2458124
1382.711, 0.2425445
1384.639, 0.2404388
1386.568, 0.2387674
1388.496, 0.2380524
1390.424, 0.2383640
1392.353, 0.2391205
1394.281, 0.2402951
1396.210, 0.2418530
1398.138, 0.2439871
1400.067, 0.2463799
1401.995, 0.2488747
1403.924, 0.2516757
1405.852, 0.2543919
1407.781, 0.2567151
1409.709, 0.2597613
1411.638, 0.2633036
1413.566, 0.2660571
1415.495, 0.2687662
1417.423, 0.2720846
1419.351, 0.2755824
1421.280, 0.2792157
1423.208, 0.2833403
1425.137, 0.2879921
1427.065, 0.2923987
1428.994, 0.2974804
1430.922, 0.3028983
1432.851, 0.3081001
1434.779, 0.3138554
1436.708, 0.3199957
1438.636, 0.3258902
1440.565, 0.3318495
1442.493, 0.3375841
1444.422, 0.3431047
1446.350, 0.3491255
1448.278, 0.3552014
1450.207, 0.3608299
1452.135, 0.3663483
1454.064, 0.3713915
1455.992, 0.3763559
1457.921, 0.3818139
1459.849, 0.3870077
1461.778, 0.3922858
1463.706, 0.3973933
1465.635, 0.4021789
1467.563, 0.4069310
1469.492, 0.4115446
1471.420, 0.4158988
1473.349, 0.4200519
1475.277, 0.4240416
1477.205, 0.4275698
1479.134, 0.4307441
1481.062, 0.4336486
1482.991, 0.4362328
1484.919, 0.4385943
1486.848, 0.4403741
1488.776, 0.4418579
1490.705, 0.4430640
1492.633, 0.4436426
1494.562, 0.4430853
1496.490, 0.4421305
1498.419, 0.4409570
1500.347, 0.4389085
1502.276, 0.4360819
1504.204, 0.4325490
1506.132, 0.4290031
1508.061, 0.4251247
1509.989, 0.4201255
1511.918, 0.4140958
1513.846, 0.4081655
1515.775, 0.4016353
1517.703, 0.3938018
1519.632, 0.3855069
1521.560, 0.3769043
1523.489, 0.3683074
1525.417, 0.3595109
1527.346, 0.3501356
1529.274, 0.3399990
1531.203, 0.3296666
1533.131, 0.3190036
1535.059, 0.3080804
1536.988, 0.2964993
1538.916, 0.2848120
1540.845, 0.2728067
1542.773, 0.2610231
1544.702, 0.2496498
1546.630, 0.2382679
1548.559, 0.2264207
1550.487, 0.2149015
1552.416, 0.2041919
1554.344, 0.1936547
1556.273, 0.1836455
1558.201, 0.1742219
1560.130, 0.1653870
1562.058, 0.1569657
1563.986, 0.1490569
1565.915, 0.1421002
1567.843, 0.1356983
1569.772, 0.1295937
1571.700, 0.1238721
1573.629, 0.1186671
1575.557, 0.1139939
1577.486, 0.1099495
1579.414, 0.1063662
1581.343, 0.1027033
1583.271, 9.9451661E-02
1585.200, 9.6611828E-02
1587.128, 9.4148472E-02
1589.057, 9.1939934E-02
1590.985, 9.0015069E-02
1592.913, 8.8228248E-02
1594.842, 8.6675368E-02
1596.770, 8.5263647E-02
1598.699, 8.4054947E-02
1600.627, 8.3214290E-02
1602.556, 8.2773224E-02
1604.484, 8.1998743E-02
1606.413, 8.1182562E-02
1608.341, 8.0653973E-02
1610.270, 8.0408387E-02
1612.198, 8.0298021E-02
1614.127, 8.0043077E-02
1616.055, 7.9665467E-02
1617.984, 7.9570137E-02
1619.912, 7.9352953E-02
1621.840, 7.9163611E-02
1623.769, 7.9259723E-02
1625.697, 7.9410642E-02
1627.626, 7.9332016E-02
1629.554, 7.9360299E-02
1631.483, 7.9655431E-02
1633.411, 7.9880297E-02
1635.340, 7.9990983E-02
1637.268, 7.9920433E-02
1639.197, 7.9960167E-02
1641.125, 8.0392353E-02
1643.054, 8.0388397E-02
1644.982, 8.0375321E-02
1646.911, 8.1024207E-02
1648.839, 8.1765547E-02
1650.767, 8.1688859E-02
1652.696, 8.1497379E-02
1654.624, 8.1604138E-02
1656.553, 8.1858464E-02
1658.481, 8.2294777E-02
1660.410, 8.2621418E-02
1662.338, 8.3210617E-02
1664.267, 8.3846837E-02
1666.195, 8.3765581E-02
1668.124, 8.3897598E-02
1670.052, 8.4490873E-02
1671.981, 8.5016668E-02
1673.909, 8.5488513E-02
1675.838, 8.5898973E-02
1677.766, 8.6262040E-02
1679.694, 8.6696073E-02
1681.623, 8.7433487E-02
1683.551, 8.8164501E-02
1685.480, 8.8609248E-02
1687.408, 8.9341000E-02
1689.337, 8.9809187E-02
1691.265, 8.9909121E-02
1693.194, 9.0508483E-02
1695.122, 9.1120109E-02
1697.051, 9.2498481E-02
1698.979, 9.3824953E-02
1700.908, 9.4744943E-02
1702.836, 9.6143529E-02
1704.765, 9.8427437E-02
1706.693, 0.1020988
1708.621, 0.1070323
1710.550, 0.1094885
1712.478, 0.1065649
1714.407, 0.1020351
1716.335, 0.1000277
1718.264, 0.1002652
1720.192, 0.1005544
1722.121, 0.1000855
1724.049, 9.9288940E-02
1725.978, 9.8452993E-02
1727.906, 9.7594537E-02
1729.835, 9.6734799E-02
1731.763, 9.6289068E-02
1733.692, 9.6183211E-02
1735.620, 9.6380249E-02
1737.548, 9.7159609E-02
1739.477, 9.7871266E-02
1741.405, 9.8016821E-02
1743.334, 9.8233208E-02
1745.262, 9.8731339E-02
1747.191, 9.9068247E-02
1749.119, 9.9812433E-02
1751.048, 0.1006139
1752.976, 0.1013178
1754.905, 0.1023679
1756.833, 0.1034870
1758.762, 0.1040945
1760.690, 0.1048184
1762.619, 0.1059782
1764.547, 0.1065258
1766.475, 0.1066590
1768.404, 0.1073498
1770.332, 0.1084366
1772.261, 0.1090049
1774.189, 0.1096920
1776.118, 0.1105816
1778.046, 0.1110068
1779.975, 0.1112143
1781.903, 0.1119738
1783.832, 0.1124577
1785.760, 0.1130162
1787.689, 0.1136726
1789.617, 0.1146754
1791.546, 0.1156135
1793.474, 0.1167377
1795.402, 0.1178940
1797.331, 0.1186578
1799.259, 0.1199257
1801.188, 0.1205785
1803.116, 0.1216245
1805.045, 0.1232084
1806.973, 0.1247805
1808.902, 0.1266608
1810.830, 0.1293771
1812.759, 0.1340693
1814.687, 0.1399276
1816.616, 0.1453860
1818.544, 0.1472648
1820.473, 0.1452852
1822.401, 0.1410481
1824.329, 0.1355867
1826.258, 0.1297494
1828.186, 0.1253960
1830.115, 0.1237412
1832.043, 0.1235839
1833.972, 0.1232100
1835.900, 0.1228914
1837.829, 0.1236700
1839.757, 0.1246171
1841.686, 0.1251778
1843.614, 0.1255093
1845.543, 0.1258352
1847.471, 0.1256303
1849.400, 0.1264093
1851.328, 0.1273695
1853.256, 0.1273174
1855.185, 0.1273363
1857.113, 0.1283442
1859.042, 0.1290008
1860.970, 0.1290187
1862.899, 0.1295729
1864.827, 0.1298403
1866.756, 0.1305475
1868.684, 0.1323829
1870.613, 0.1334764
1872.541, 0.1329917
1874.470, 0.1329453
1876.398, 0.1338370
1878.327, 0.1346708
1880.255, 0.1349801
1882.183, 0.1353429
1884.112, 0.1363775
1886.040, 0.1374901
1887.969, 0.1379438
1889.897, 0.1382735
1891.826, 0.1378338
1893.754, 0.1380825
1895.683, 0.1391455
1897.611, 0.1399590
1899.540, 0.1394647
1901.468, 0.1384469
1903.397, 0.1399526
1905.325, 0.1413074
1907.254, 0.1413789
1909.182, 0.1417714
1911.110, 0.1416807
1913.039, 0.1414239
1914.967, 0.1421356
1916.896, 0.1433721
1918.824, 0.1437802
1920.753, 0.1434733
1922.681, 0.1433099
1924.610, 0.1431652
1926.538, 0.1436103
1928.467, 0.1458239
1930.395, 0.1464970
1932.324, 0.1455972
1934.252, 0.1451953
1936.181, 0.1458672
1938.109, 0.1476873
1940.037, 0.1483204
1941.966, 0.1483919
1943.894, 0.1484511
1945.823, 0.1467519
1947.751, 0.1465606
1949.680, 0.1480922
1951.608, 0.1488100
1953.537, 0.1496114
1955.465, 0.1493032
1957.394, 0.1488420
1959.322, 0.1504807
1961.251, 0.1517829
1963.179, 0.1510925
1965.108, 0.1493992
1967.036, 0.1483635
1968.964, 0.1491144
1970.893, 0.1503159
1972.821, 0.1525980
1974.750, 0.1545476
1976.678, 0.1545659
1978.607, 0.1547459
1980.535, 0.1543765
1982.464, 0.1537574
1984.392, 0.1546553
1986.321, 0.1545148
1988.249, 0.1544824
1990.178, 0.1581784
1992.106, 0.1591931
1994.035, 0.1583057
1995.963, 0.1582487
1997.891, 0.1576239
1999.820, 0.1573220
2001.748, 0.1585651
2003.677, 0.1589632
2005.605, 0.1603149
2007.534, 0.1630916
2009.462, 0.1623765
2011.391, 0.1612506
2013.319, 0.1617996
2015.248, 0.1603447
2017.176, 0.1607153
2019.105, 0.1620279
2021.033, 0.1617206
2022.962, 0.1600176
2024.890, 0.1609466
2026.818, 0.1666083
2028.747, 0.1685269
2030.675, 0.1647305
2032.604, 0.1654413
2034.532, 0.1678450
2036.461, 0.1682158
2038.389, 0.1682021
2040.318, 0.1678540
2042.246, 0.1680877
2044.175, 0.1685073
2046.103, 0.1684297
2048.032, 0.1689780
2049.960, 0.1705642
2051.889, 0.1716939
2053.817, 0.1743703
2055.746, 0.1730507
2057.674, 0.1732133
2059.603, 0.1740606
2061.531, 0.1736117
2063.459, 0.1734952
2065.388, 0.1736538
2067.316, 0.1737969
2069.245, 0.1741843
2071.173, 0.1739480
2073.102, 0.1739060
2075.030, 0.1754526
2076.959, 0.1766325
2078.887, 0.1780058
2080.816, 0.1777374
2082.744, 0.1765520
2084.673, 0.1771303
2086.601, 0.1780329
2088.530, 0.1767694
2090.458, 0.1771574
2092.386, 0.1778105
2094.315, 0.1786533
2096.243, 0.1798059
2098.172, 0.1792913
2100.100, 0.1794784
2102.029, 0.1825117
2103.957, 0.1837988
2105.886, 0.1832061
2107.814, 0.1821025
2109.743, 0.1825338
2111.671, 0.1826344
2113.600, 0.1818846
2115.528, 0.1811856
2117.457, 0.1799389
2119.385, 0.1808562
2121.313, 0.1821156
2123.242, 0.1830338
2125.170, 0.1834055
2127.099, 0.1846717
2129.027, 0.1847669
2130.956, 0.1832188
2132.884, 0.1812557
2134.813, 0.1795547
2136.741, 0.1803241
2138.670, 0.1822627
2140.598, 0.1828656
2142.527, 0.1805971
2144.455, 0.1777054
2146.384, 0.1776809
2148.312, 0.1783493
2150.240, 0.1816793
2152.169, 0.1830489
2154.097, 0.1819361
2156.026, 0.1785325
2157.954, 0.1780200
2159.883, 0.1848130
2161.811, 0.1864912
2163.740, 0.1870914
2165.668, 0.1893791
2167.597, 0.1891148
2169.525, 0.1877559
2171.454, 0.1884254
2173.382, 0.1863403
2175.311, 0.1851288
2177.239, 0.1874757
2179.167, 0.1888504
2181.096, 0.1915580
2183.024, 0.1925001
2184.953, 0.1913950
2186.881, 0.1894862
2188.810, 0.1902988
2190.738, 0.1929835
2192.667, 0.1913967
2194.595, 0.1918874
2196.524, 0.1943547
2198.452, 0.1937404
2200.381, 0.1925465
2202.309, 0.1945102
2204.238, 0.1964296
2206.166, 0.1958203
2208.094, 0.1952734
2210.023, 0.1957364
2211.951, 0.1966593
2213.880, 0.1973583
2215.808, 0.1986062
2217.737, 0.1991384
2219.665, 0.1977099
2221.594, 0.1970507
2223.522, 0.1985969
2225.451, 0.2019003
2227.379, 0.2030433
2229.308, 0.2009676
2231.236, 0.1999770
2233.165, 0.2010860
2235.093, 0.2004839
2237.021, 0.2011100
2238.950, 0.2037059
2240.878, 0.2042222
2242.807, 0.2030793
2244.735, 0.2036155
2246.664, 0.2047602
2248.592, 0.2062939
2250.521, 0.2054158
2252.449, 0.2045316
2254.378, 0.2054888
2256.306, 0.2065404
2258.235, 0.2078407
2260.163, 0.2070463
2262.092, 0.2059129
2264.020, 0.2065840
2265.948, 0.2085211
2267.877, 0.2094374
2269.805, 0.2088066
2271.734, 0.2080455
2273.662, 0.2093723
2275.591, 0.2115260
2277.519, 0.2128776
2279.448, 0.2127786
2281.376, 0.2118857
2283.305, 0.2123948
2285.233, 0.2130291
2287.162, 0.2140868
2289.090, 0.2142252
2291.019, 0.2142860
2292.947, 0.2149543
2294.875, 0.2154362
2296.804, 0.2167084
2298.732, 0.2167363
2300.661, 0.2159572
2302.589, 0.2158825
2304.518, 0.2158835
2306.446, 0.2165995
2308.375, 0.2170047
2310.303, 0.2172773
2312.232, 0.2185050
2314.160, 0.2184208
2316.089, 0.2182504
2318.017, 0.2183635
2319.946, 0.2193407
2321.874, 0.2212024
2323.802, 0.2224510
2325.731, 0.2214958
2327.659, 0.2205426
2329.588, 0.2202840
2331.516, 0.2200555
2333.445, 0.2210081
2335.373, 0.2220111
2337.302, 0.2221763
2339.230, 0.2222182
2341.159, 0.2225727
2343.087, 0.2230423
2345.016, 0.2234191
2346.944, 0.2234614
2348.873, 0.2236375
2350.801, 0.2240816
2352.729, 0.2244962
2354.658, 0.2253513
2356.586, 0.2261542
2358.515, 0.2257588
2360.443, 0.2259946
2362.372, 0.2260443
2364.300, 0.2261634
2366.229, 0.2275651
2368.157, 0.2284521
2370.086, 0.2281271
2372.014, 0.2282753
2373.942, 0.2296878
2375.871, 0.2309362
2377.799, 0.2309216
2379.728, 0.2303127
2381.656, 0.2306267
2383.585, 0.2319534
2385.513, 0.2327239
2387.442, 0.2330919
2389.370, 0.2332746
2391.299, 0.2333075
2393.227, 0.2332402
2395.156, 0.2340476
2397.084, 0.2345753
2399.012, 0.2343249
2400.941, 0.2342448
2402.869, 0.2334746
2404.798, 0.2343572
2406.726, 0.2358224
2408.655, 0.2359447
2410.583, 0.2349917
2412.512, 0.2341995
2414.440, 0.2348403
2416.369, 0.2350973
2418.297, 0.2356367
2420.226, 0.2361514
2422.154, 0.2376325
2424.083, 0.2385412
2426.011, 0.2374348
2427.939, 0.2358694
2429.868, 0.2370425
2431.796, 0.2387019
2433.725, 0.2382549
2435.653, 0.2378298
2437.582, 0.2376027
2439.510, 0.2382631
2441.439, 0.2393890
2443.367, 0.2407976
2445.296, 0.2413906
2447.224, 0.2404384
2449.153, 0.2402084
2451.081, 0.2413110
2453.010, 0.2426471
2454.938, 0.2437608
2456.866, 0.2439483
2458.795, 0.2443491
2460.723, 0.2452036
2462.652, 0.2454010
2464.580, 0.2450854
2466.509, 0.2457044
2468.437, 0.2463103
2470.366, 0.2460348
2472.294, 0.2458819
2474.223, 0.2447774
2476.151, 0.2444782
2478.080, 0.2452510
2480.008, 0.2448898
2481.937, 0.2453835
2483.865, 0.2462491
2485.793, 0.2453877
2487.722, 0.2442390
2489.650, 0.2434205
2491.579, 0.2432983
2493.507, 0.2431334
2495.436, 0.2444927
2497.364, 0.2451632
2499.293, 0.2450994
2501.221, 0.2452799
2503.150, 0.2449496
2505.078, 0.2461262
2507.007, 0.2468056
2508.935, 0.2464411
2510.864, 0.2465098
2512.792, 0.2452218
2514.720, 0.2450689
2516.649, 0.2461087
2518.577, 0.2461555
2520.506, 0.2451570
2522.434, 0.2458975
2524.363, 0.2463822
2526.291, 0.2450517
2528.220, 0.2441053
2530.148, 0.2436942
2532.077, 0.2445703
2534.005, 0.2466623
2535.934, 0.2480717
2537.862, 0.2472466
2539.791, 0.2460962
2541.719, 0.2472058
2543.647, 0.2472447
2545.576, 0.2473846
2547.504, 0.2477788
2549.433, 0.2468997
2551.361, 0.2471175
2553.290, 0.2462581
2555.218, 0.2458685
2557.147, 0.2481693
2559.075, 0.2497090
2561.004, 0.2490091
2562.932, 0.2485365
2564.861, 0.2488345
2566.789, 0.2494467
2568.718, 0.2502745
2570.646, 0.2511849
2572.574, 0.2504017
2574.503, 0.2507484
2576.431, 0.2518190
2578.360, 0.2524075
2580.288, 0.2528520
2582.217, 0.2513744
2584.145, 0.2497094
2586.074, 0.2506514
2588.002, 0.2525815
2589.931, 0.2525492
2591.859, 0.2524488
2593.788, 0.2530083
2595.716, 0.2536736
2597.645, 0.2548233
2599.573, 0.2542897
2601.501, 0.2534916
2603.430, 0.2546071
2605.358, 0.2553281
2607.287, 0.2560059
2609.215, 0.2568430
2611.144, 0.2567888
2613.072, 0.2565272
2615.001, 0.2563905
2616.929, 0.2570449
2618.858, 0.2587672
2620.786, 0.2597143
2622.715, 0.2598704
2624.643, 0.2595176
2626.572, 0.2597831
2628.500, 0.2608007
2630.428, 0.2605957
2632.357, 0.2596698
2634.285, 0.2590910
2636.214, 0.2597274
2638.142, 0.2605471
2640.071, 0.2606823
2641.999, 0.2608755
2643.928, 0.2615572
2645.856, 0.2620268
2647.785, 0.2624409
2649.713, 0.2635132
2651.642, 0.2642827
2653.570, 0.2639931
2655.499, 0.2634407
2657.427, 0.2636388
2659.355, 0.2643047
2661.284, 0.2652826
2663.212, 0.2652946
2665.141, 0.2649459
2667.069, 0.2653926
2668.998, 0.2660438
2670.926, 0.2667754
2672.855, 0.2668960
2674.783, 0.2655148
2676.712, 0.2662777
2678.640, 0.2677239
2680.569, 0.2679254
2682.497, 0.2676972
2684.426, 0.2680914
2686.354, 0.2693102
2688.282, 0.2694805
2690.211, 0.2693599
2692.139, 0.2694117
2694.068, 0.2694479
2695.996, 0.2701330
2697.925, 0.2704176
2699.853, 0.2701485
2701.782, 0.2708176
2703.710, 0.2711750
2705.639, 0.2711748
2707.567, 0.2713680
2709.496, 0.2725953
2711.424, 0.2755243
2713.353, 0.2765780
2715.281, 0.2762802
2717.209, 0.2762202
2719.138, 0.2759685
2721.066, 0.2764791
2722.995, 0.2780220
2724.923, 0.2780037
2726.852, 0.2775643
2728.780, 0.2779593
2730.709, 0.2779987
2732.637, 0.2787105
2734.566, 0.2796555
2736.494, 0.2803931
2738.423, 0.2813694
2740.351, 0.2813678
2742.280, 0.2812976
2744.208, 0.2815281
2746.136, 0.2820527
2748.065, 0.2829763
2749.993, 0.2832476
2751.922, 0.2837918
2753.850, 0.2847055
2755.779, 0.2849671
2757.707, 0.2844737
2759.636, 0.2842066
2761.564, 0.2847181
2763.493, 0.2862421
2765.421, 0.2868906
2767.350, 0.2858097
2769.278, 0.2851667
2771.207, 0.2854488
2773.135, 0.2857311
2775.063, 0.2868411
2776.992, 0.2866744
2778.920, 0.2860900
2780.849, 0.2873884
2782.777, 0.2881818
2784.706, 0.2884563
2786.634, 0.2889426
2788.563, 0.2887138
2790.491, 0.2877836
2792.420, 0.2875123
2794.348, 0.2879404
2796.277, 0.2881798
2798.205, 0.2886126
2800.134, 0.2898556
2802.062, 0.2900772
2803.990, 0.2900844
2805.919, 0.2906145
2807.847, 0.2904587
2809.776, 0.2901830
2811.704, 0.2902657
2813.633, 0.2906413
2815.561, 0.2912174
2817.490, 0.2923500
2819.418, 0.2927942
2821.347, 0.2924747
2823.275, 0.2929421
2825.204, 0.2928412
2827.132, 0.2922842
2829.061, 0.2921623
2830.989, 0.2927237
2832.917, 0.2934413
2834.846, 0.2942660
2836.774, 0.2947575
2838.703, 0.2946240
2840.631, 0.2940204
2842.560, 0.2936493
2844.488, 0.2938270
2846.417, 0.2929678
2848.345, 0.2919322
2850.274, 0.2923965
2852.202, 0.2927613
2854.131, 0.2912737
2856.059, 0.2914709
2857.988, 0.2928714
2859.916, 0.2934705
2861.844, 0.2925940
2863.773, 0.2927169
2865.701, 0.2939595
2867.630, 0.2950327
2869.558, 0.2959587
2871.487, 0.2947911
2873.415, 0.2933355
2875.344, 0.2940936
2877.272, 0.2944446
2879.201, 0.2943320
2881.129, 0.2965722
2883.058, 0.2979520
2884.986, 0.2975226
2886.915, 0.2961543
2888.843, 0.2959356
2890.771, 0.2970642
2892.700, 0.2968964
2894.628, 0.2951859
2896.557, 0.2955621
2898.485, 0.2970308
2900.414, 0.2977586
2902.342, 0.2978954
2904.271, 0.2974843
2906.199, 0.2969484
2908.128, 0.2973974
2910.056, 0.2976525
2911.985, 0.2974673
2913.913, 0.2973494
2915.842, 0.2973004
2917.770, 0.2977424
2919.698, 0.2985597
2921.627, 0.2995432
2923.555, 0.2984353
2925.484, 0.2982720
2927.412, 0.2977483
2929.341, 0.2968698
2931.269, 0.2976665
2933.198, 0.2976062
2935.126, 0.2966533
2937.055, 0.2984965
2938.983, 0.2993864
2940.912, 0.2977396
2942.840, 0.2979117
2944.769, 0.2992210
2946.697, 0.2998060
2948.625, 0.3000926
2950.554, 0.2988243
2952.482, 0.2983053
2954.411, 0.2993414
2956.339, 0.2994918
2958.268, 0.2994833
2960.196, 0.3000376
2962.125, 0.3017904
2964.053, 0.3022300
2965.982, 0.3021224
2967.910, 0.3023254
2969.839, 0.3022401
2971.767, 0.3031250
2973.696, 0.3041371
2975.624, 0.3042414
2977.552, 0.3041355
2979.481, 0.3054851
2981.409, 0.3054757
2983.338, 0.3042258
2985.266, 0.3040624
2987.195, 0.3039484
2989.123, 0.3047686
2991.052, 0.3055445
2992.980, 0.3063073
2994.909, 0.3066234
2996.837, 0.3049223
2998.766, 0.3040799
3000.694, 0.3052164
3002.623, 0.3067785
3004.551, 0.3087976
3006.479, 0.3079360
3008.408, 0.3060271
3010.336, 0.3067752
3012.265, 0.3092256
3014.193, 0.3097619
3016.122, 0.3094155
3018.050, 0.3092330
3019.979, 0.3089138
3021.907, 0.3106658
3023.836, 0.3123111
3025.764, 0.3122683
3027.693, 0.3121188
3029.621, 0.3124452
3031.550, 0.3125286
3033.478, 0.3128234
3035.406, 0.3113490
3037.335, 0.3117612
3039.263, 0.3145074
3041.192, 0.3151082
3043.120, 0.3141996
3045.049, 0.3139182
3046.977, 0.3140203
3048.906, 0.3154182
3050.834, 0.3159898
3052.763, 0.3159088
3054.691, 0.3151440
3056.620, 0.3162690
3058.548, 0.3181786
3060.477, 0.3175389
3062.405, 0.3169596
3064.333, 0.3178361
3066.262, 0.3182063
3068.190, 0.3184485
3070.119, 0.3175605
3072.047, 0.3160606
3073.976, 0.3179670
3075.904, 0.3207454
3077.833, 0.3221236
3079.761, 0.3223885
3081.690, 0.3222975
3083.618, 0.3217729
3085.547, 0.3204854
3087.475, 0.3227525
3089.404, 0.3243096
3091.332, 0.3240122
3093.260, 0.3241623
3095.189, 0.3232514
3097.117, 0.3231103
3099.046, 0.3242555
3100.974, 0.3254766
3102.903, 0.3261976
3104.831, 0.3268183
3106.760, 0.3271113
3108.688, 0.3267927
3110.617, 0.3278299
3112.545, 0.3286439
3114.474, 0.3293045
3116.402, 0.3301629
3118.331, 0.3307437
3120.259, 0.3301565
3122.188, 0.3309441
3124.116, 0.3323094
3126.044, 0.3310677
3127.973, 0.3310691
3129.901, 0.3320286
3131.830, 0.3333107
3133.758, 0.3343667
3135.687, 0.3341582
3137.615, 0.3343187
3139.544, 0.3328059
3141.472, 0.3324780
3143.401, 0.3339221
3145.329, 0.3343958
3147.258, 0.3361534
3149.186, 0.3379565
3151.115, 0.3379502
3153.043, 0.3371864
3154.971, 0.3392395
3156.900, 0.3402061
3158.828, 0.3379282
3160.757, 0.3364617
3162.685, 0.3378493
3164.614, 0.3398210
3166.542, 0.3416620
3168.471, 0.3414688
3170.399, 0.3419835
3172.328, 0.3429325
3174.256, 0.3423468
3176.185, 0.3418336
3178.113, 0.3401488
3180.042, 0.3397193
3181.970, 0.3409505
3183.898, 0.3420488
3185.827, 0.3431382
3187.755, 0.3446164
3189.684, 0.3445078
3191.612, 0.3441654
3193.541, 0.3441866
3195.469, 0.3460343
3197.398, 0.3470106
3199.326, 0.3474963
3201.255, 0.3484704
3203.183, 0.3466164
3205.112, 0.3439039
3207.040, 0.3462830
3208.969, 0.3474608
3210.897, 0.3476623
3212.825, 0.3471404
3214.754, 0.3472999
3216.682, 0.3484073
3218.611, 0.3477242
3220.539, 0.3475765
3222.468, 0.3484102
3224.396, 0.3486945
3226.325, 0.3502262
3228.253, 0.3524823
3230.182, 0.3536954
3232.110, 0.3526206
3234.039, 0.3509584
3235.967, 0.3516692
3237.896, 0.3518006
3239.824, 0.3524028
3241.752, 0.3533698
3243.681, 0.3534326
3245.609, 0.3529503
3247.538, 0.3530533
3249.466, 0.3533558
3251.395, 0.3546539
3253.323, 0.3538278
3255.252, 0.3531219
3257.180, 0.3544130
3259.109, 0.3559321
3261.037, 0.3551034
3262.966, 0.3544312
3264.894, 0.3559468
3266.823, 0.3558229
3268.751, 0.3563615
3270.679, 0.3577901
3272.608, 0.3573675
3274.536, 0.3571972
3276.465, 0.3581353
3278.393, 0.3592562
3280.322, 0.3576396
3282.250, 0.3587222
3284.179, 0.3598141
3286.107, 0.3603818
3288.036, 0.3608756
3289.964, 0.3614872
3291.893, 0.3623329
3293.821, 0.3632025
3295.750, 0.3623807
3297.678, 0.3613613
3299.606, 0.3625540
3301.535, 0.3632877
3303.463, 0.3631305
3305.392, 0.3635503
3307.320, 0.3626924
3309.249, 0.3626709
3311.177, 0.3657798
3313.106, 0.3669318
3315.034, 0.3659136
3316.963, 0.3664490
3318.891, 0.3672124
3320.820, 0.3673466
3322.748, 0.3690944
3324.677, 0.3689483
3326.605, 0.3674998
3328.533, 0.3681909
3330.462, 0.3664211
3332.390, 0.3642378
3334.319, 0.3642596
3336.247, 0.3676252
3338.176, 0.3686069
3340.104, 0.3687876
3342.033, 0.3694795
3343.961, 0.3684731
3345.890, 0.3673631
3347.818, 0.3702842
3349.747, 0.3713273
3351.675, 0.3719655
3353.604, 0.3719122
3355.532, 0.3705665
3357.460, 0.3690958
3359.389, 0.3687519
3361.317, 0.3714482
3363.246, 0.3733454
3365.174, 0.3726009
3367.103, 0.3721912
3369.031, 0.3735547
3370.960, 0.3745391
3372.888, 0.3752122
3374.817, 0.3753261
3376.745, 0.3745474
3378.674, 0.3751054
3380.602, 0.3737535
3382.531, 0.3732725
3384.459, 0.3744024
3386.387, 0.3745503
3388.316, 0.3750782
3390.244, 0.3743367
3392.173, 0.3745336
3394.101, 0.3769230
3396.030, 0.3765328
3397.958, 0.3770842
3399.887, 0.3774923
3401.815, 0.3762170
3403.744, 0.3756194
3405.672, 0.3758046
3407.601, 0.3770012
3409.529, 0.3775198
3411.458, 0.3771555
3413.386, 0.3770171
3415.314, 0.3775775
3417.243, 0.3789777
3419.171, 0.3783648
3421.100, 0.3771200
3423.028, 0.3784796
3424.957, 0.3799107
3426.885, 0.3791087
3428.814, 0.3799245
3430.742, 0.3799195
3432.671, 0.3813705
3434.599, 0.3830298
3436.528, 0.3828262
3438.456, 0.3840800
3440.385, 0.3840538
3442.313, 0.3830294
3444.241, 0.3824709
3446.170, 0.3828371
3448.098, 0.3837189
3450.027, 0.3840907
3451.955, 0.3833072
3453.884, 0.3838973
3455.812, 0.3825700
3457.741, 0.3824101
3459.669, 0.3868053
3461.598, 0.3864542
3463.526, 0.3846422
3465.455, 0.3839563
3467.383, 0.3845818
3469.312, 0.3859329
3471.240, 0.3871885
3473.168, 0.3866231
3475.097, 0.3866878
3477.025, 0.3885178
3478.954, 0.3888794
3480.882, 0.3885115
3482.811, 0.3879548
3484.739, 0.3867480
3486.668, 0.3853850
3488.596, 0.3876522
3490.525, 0.3898671
3492.453, 0.3887186
3494.382, 0.3889354
3496.310, 0.3912697
3498.239, 0.3894401
3500.167, 0.3901600
3502.095, 0.3924377
3504.024, 0.3923792
3505.952, 0.3913917
3507.881, 0.3926441
3509.809, 0.3938588
3511.738, 0.3952550
3513.666, 0.3913064
3515.595, 0.3874790
3517.523, 0.3893885
3519.452, 0.3907419
3521.380, 0.3910637
3523.309, 0.3901458
3525.237, 0.3897724
3527.166, 0.3932967
3529.094, 0.3944277
3531.022, 0.3941677
3532.951, 0.3934852
3534.879, 0.3945115
3536.808, 0.3923156
3538.736, 0.3904705
3540.665, 0.3934765
3542.593, 0.3972377
3544.522, 0.3973952
3546.450, 0.3965612
3548.379, 0.3983038
3550.307, 0.3980623
3552.236, 0.3956875
3554.164, 0.3959795
3556.093, 0.3958382
3558.021, 0.3916810
3559.949, 0.3927493
3561.878, 0.3984479
3563.806, 0.4003437
3565.735, 0.3955557
3567.663, 0.3940802
3569.592, 0.3976083
3571.520, 0.3994704
3573.449, 0.4005752
3575.377, 0.4012253
3577.306, 0.4029521
3579.234, 0.4017519
3581.163, 0.4012522
3583.091, 0.4010778
3585.020, 0.4012761
3586.948, 0.4013824
3588.876, 0.4010712
3590.805, 0.4005177
3592.733, 0.4031411
3594.662, 0.4065352
3596.590, 0.4069950
3598.519, 0.4042354
3600.447, 0.4012165
3602.376, 0.4023032
3604.304, 0.4055111
3606.233, 0.4054296
3608.161, 0.4064496
3610.090, 0.4055943
3612.018, 0.4052590
3613.947, 0.4071678
3615.875, 0.4084291
3617.803, 0.4114483
3619.732, 0.4137628
3621.660, 0.4140368
3623.589, 0.4139571
3625.517, 0.4107927
3627.446, 0.4075620
3629.374, 0.4087281
3631.303, 0.4122641
3633.231, 0.4135756
3635.160, 0.4108060
3637.088, 0.4072768
3639.017, 0.4104964
3640.945, 0.4142951
3642.874, 0.4127417
3644.802, 0.4115827
3646.730, 0.4124388
3648.659, 0.4148468
3650.587, 0.4157209
3652.516, 0.4134524
3654.444, 0.4093357
3656.373, 0.4090096
3658.301, 0.4120614
3660.230, 0.4131435
3662.158, 0.4151234
3664.087, 0.4134106
3666.015, 0.4098509
3667.944, 0.4112483
3669.872, 0.4142773
3671.801, 0.4166864
3673.729, 0.4201531
3675.657, 0.4166250
3677.586, 0.4128885
3679.514, 0.4152922
3681.443, 0.4152072
3683.371, 0.4111831
3685.300, 0.4112702
3687.228, 0.4139179
3689.157, 0.4178833
3691.085, 0.4169230
3693.014, 0.4165423
3694.942, 0.4172996
3696.871, 0.4171545
3698.799, 0.4194187
3700.728, 0.4195442
3702.656, 0.4183629
3704.584, 0.4169945
3706.513, 0.4175589
3708.441, 0.4170342
3710.370, 0.4186804
3712.298, 0.4202085
3714.227, 0.4186558
3716.155, 0.4177066
3718.084, 0.4177017
3720.012, 0.4187405
3721.941, 0.4198860
3723.869, 0.4219156
3725.798, 0.4252098
3727.726, 0.4259737
3729.655, 0.4245372
3731.583, 0.4230565
3733.511, 0.4200556
3735.440, 0.4173475
3737.368, 0.4182151
3739.297, 0.4206914
3741.225, 0.4220191
3743.154, 0.4196429
3745.082, 0.4178174
3747.011, 0.4215583
3748.939, 0.4229550
3750.868, 0.4235798
3752.796, 0.4275911
3754.725, 0.4286166
3756.653, 0.4251773
3758.582, 0.4251482
3760.510, 0.4270972
3762.438, 0.4272624
3764.367, 0.4279461
3766.295, 0.4291876
3768.224, 0.4328296
3770.152, 0.4332803
3772.081, 0.4318235
3774.009, 0.4326649
3775.938, 0.4331106
3777.866, 0.4308147
3779.795, 0.4309465
3781.723, 0.4320565
3783.652, 0.4294729
3785.580, 0.4296831
3787.509, 0.4318244
3789.437, 0.4293540
3791.365, 0.4302245
3793.294, 0.4307108
3795.222, 0.4313297
3797.151, 0.4312468
3799.079, 0.4323835
3801.008, 0.4332643
3802.936, 0.4305260
3804.865, 0.4291035
3806.793, 0.4304497
3808.722, 0.4347174
3810.650, 0.4344413
3812.579, 0.4344614
3814.507, 0.4341111
3816.436, 0.4341851
3818.364, 0.4344797
3820.292, 0.4333564
3822.221, 0.4363102
3824.149, 0.4417097
3826.078, 0.4419220
3828.006, 0.4361049
3829.935, 0.4338793
3831.863, 0.4354453
3833.792, 0.4376416
3835.720, 0.4392449
3837.649, 0.4382764
3839.577, 0.4391387
3841.506, 0.4395694
3843.434, 0.4402381
3845.363, 0.4423440
3847.291, 0.4413491
3849.219, 0.4412371
3851.148, 0.4396992
3853.076, 0.4400615
3855.005, 0.4416832
3856.933, 0.4417970
3858.862, 0.4417117
3860.790, 0.4420766
3862.719, 0.4416369
3864.647, 0.4406473
3866.576, 0.4386514
3868.504, 0.4396461
3870.433, 0.4418204
3872.361, 0.4432587
3874.290, 0.4453614
3876.218, 0.4463243
3878.146, 0.4462139
3880.075, 0.4429058
3882.003, 0.4412972
3883.932, 0.4461197
3885.860, 0.4514006
3887.789, 0.4487167
3889.717, 0.4459231
3891.646, 0.4438607
3893.574, 0.4419856
3895.503, 0.4406982
3897.431, 0.4411012
3899.360, 0.4419743
3901.288, 0.4460300
3903.217, 0.4450650
3905.145, 0.4464837
3907.073, 0.4507887
3909.002, 0.4505485
3910.930, 0.4468666
3912.859, 0.4466094
3914.787, 0.4510973
3916.716, 0.4564849
3918.644, 0.4548361
3920.573, 0.4500185
3922.501, 0.4505609
3924.430, 0.4533550
3926.358, 0.4506550
3928.287, 0.4507557
3930.215, 0.4510987
3932.144, 0.4521953
3934.072, 0.4565260
3936.000, 0.4581390
3937.929, 0.4588681
3939.857, 0.4562239
3941.786, 0.4547303
3943.714, 0.4536696
3945.643, 0.4561202
3947.571, 0.4588852
3949.500, 0.4564427
3951.428, 0.4569477
3953.357, 0.4611558
3955.285, 0.4626257
3957.214, 0.4589316
3959.142, 0.4552399
3961.071, 0.4569300
3962.999, 0.4592407
3964.927, 0.4573677
3966.856, 0.4536723
3968.784, 0.4560519
3970.713, 0.4587563
3972.641, 0.4588847
3974.570, 0.4604671
3976.498, 0.4591387
3978.427, 0.4601844
3980.355, 0.4644584
3982.284, 0.4643905
3984.212, 0.4652988
3986.141, 0.4619742
3988.069, 0.4612454
3989.998, 0.4600090
3991.926, 0.4597333
3993.854, 0.4589609
3995.783, 0.4585879
3997.711, 0.4626834
3999.640, 0.4629066
##END=



