##NAMES=Pollucite
##RRUFFID=R050344
##IDEAL CHEMISTRY=Cs(Si_2_Al)O_6_&#183;nH_2_O
##LOCALITY=Konar Province, Afghanistan
##OWNER=RRUFF
##SOURCE=George Rossman
##DESCRIPTION=Colorless fragment
##STATUS=The identification of this mineral has been confirmed by X-ray diffraction and chemical analysis
##URL=rruff.info/R050344
##MEASURED CHEMISTRY=(Cs_0.78_Na_0.21_Rb_0.01_)_Σ=1_(Si_2.13_Al_0.87_)_Σ=3_O_6_·H_2_O
3.991926e+002, 2.719052e-001
4.011211e+002, 2.717769e-001
4.030496e+002, 2.730835e-001
4.049780e+002, 2.840152e-001
4.069065e+002, 2.919168e-001
4.088350e+002, 2.864659e-001
4.107634e+002, 2.881415e-001
4.126919e+002, 2.892884e-001
4.146204e+002, 2.867708e-001
4.165488e+002, 2.874467e-001
4.184773e+002, 2.950209e-001
4.204058e+002, 2.997997e-001
4.223342e+002, 2.951171e-001
4.242627e+002, 2.976979e-001
4.261912e+002, 3.033933e-001
4.281196e+002, 2.996594e-001
4.300481e+002, 2.982048e-001
4.319766e+002, 2.956385e-001
4.339050e+002, 2.891086e-001
4.358335e+002, 2.848684e-001
4.377620e+002, 2.765907e-001
4.396904e+002, 2.607020e-001
4.416189e+002, 2.441975e-001
4.435474e+002, 2.263644e-001
4.454758e+002, 2.072952e-001
4.474043e+002, 1.886953e-001
4.493328e+002, 1.735404e-001
4.512612e+002, 1.597374e-001
4.531897e+002, 1.477003e-001
4.551182e+002, 1.358950e-001
4.570466e+002, 1.249535e-001
4.589751e+002, 1.173019e-001
4.609036e+002, 1.112842e-001
4.628320e+002, 1.038284e-001
4.647605e+002, 9.855925e-002
4.666890e+002, 9.350780e-002
4.686174e+002, 8.672231e-002
4.705459e+002, 8.101348e-002
4.724744e+002, 7.617515e-002
4.744028e+002, 7.060829e-002
4.763313e+002, 6.479011e-002
4.782598e+002, 5.965759e-002
4.801882e+002, 5.498466e-002
4.821167e+002, 5.159051e-002
4.840452e+002, 4.880643e-002
4.859736e+002, 4.644206e-002
4.879021e+002, 4.350526e-002
4.898306e+002, 4.074621e-002
4.917590e+002, 3.931157e-002
4.936875e+002, 3.738465e-002
4.956160e+002, 3.461443e-002
4.975444e+002, 3.183210e-002
4.994729e+002, 2.955918e-002
5.014014e+002, 2.764987e-002
5.033298e+002, 2.623988e-002
5.052583e+002, 2.506889e-002
5.071868e+002, 2.400182e-002
5.091152e+002, 2.308708e-002
5.110437e+002, 2.296839e-002
5.129722e+002, 2.269881e-002
5.149006e+002, 2.239681e-002
5.168291e+002, 2.235102e-002
5.187576e+002, 2.174038e-002
5.206860e+002, 2.144690e-002
5.226145e+002, 2.196027e-002
5.245430e+002, 2.216289e-002
5.264714e+002, 2.209654e-002
5.283999e+002, 2.193689e-002
5.303284e+002, 2.177375e-002
5.322568e+002, 2.165758e-002
5.341853e+002, 2.128579e-002
5.361138e+002, 2.178050e-002
5.380422e+002, 2.236633e-002
5.399707e+002, 2.242194e-002
5.418992e+002, 2.190909e-002
5.438276e+002, 2.145735e-002
5.457561e+002, 2.163217e-002
5.476846e+002, 2.212434e-002
5.496130e+002, 2.217428e-002
5.515415e+002, 2.190134e-002
5.534700e+002, 2.244086e-002
5.553984e+002, 2.272828e-002
5.573269e+002, 2.261965e-002
5.592554e+002, 2.301136e-002
5.611838e+002, 2.326551e-002
5.631123e+002, 2.332916e-002
5.650408e+002, 2.357468e-002
5.669692e+002, 2.383449e-002
5.688977e+002, 2.477217e-002
5.708262e+002, 2.574167e-002
5.727546e+002, 2.661482e-002
5.746831e+002, 2.717173e-002
5.766116e+002, 2.791209e-002
5.785400e+002, 2.915073e-002
5.804685e+002, 3.038459e-002
5.823970e+002, 3.092428e-002
5.843254e+002, 3.118371e-002
5.862539e+002, 3.187854e-002
5.881824e+002, 3.240116e-002
5.901108e+002, 3.294144e-002
5.920393e+002, 3.390828e-002
5.939678e+002, 3.469033e-002
5.958962e+002, 3.505533e-002
5.978247e+002, 3.627137e-002
5.997532e+002, 3.800936e-002
6.016816e+002, 3.936094e-002
6.036101e+002, 4.025795e-002
6.055386e+002, 4.143933e-002
6.074670e+002, 4.368908e-002
6.093955e+002, 4.578969e-002
6.113240e+002, 4.754870e-002
6.132524e+002, 4.959906e-002
6.151809e+002, 5.215346e-002
6.171094e+002, 5.474402e-002
6.190378e+002, 5.776653e-002
6.209663e+002, 6.036408e-002
6.228948e+002, 6.176373e-002
6.248232e+002, 6.204816e-002
6.267517e+002, 6.091934e-002
6.286802e+002, 5.864362e-002
6.306086e+002, 5.613659e-002
6.325371e+002, 5.347831e-002
6.344656e+002, 5.088210e-002
6.363940e+002, 4.888387e-002
6.383225e+002, 4.771066e-002
6.402510e+002, 4.723939e-002
6.421794e+002, 4.665986e-002
6.441079e+002, 4.619086e-002
6.460364e+002, 4.631875e-002
6.479648e+002, 4.693686e-002
6.498933e+002, 4.764821e-002
6.518218e+002, 4.860746e-002
6.537502e+002, 4.977710e-002
6.556787e+002, 5.115221e-002
6.576072e+002, 5.270260e-002
6.595356e+002, 5.447549e-002
6.614641e+002, 5.621552e-002
6.633926e+002, 5.782055e-002
6.653210e+002, 5.962504e-002
6.672495e+002, 6.160901e-002
6.691780e+002, 6.332932e-002
6.711064e+002, 6.479908e-002
6.730349e+002, 6.620929e-002
6.749634e+002, 6.818299e-002
6.768918e+002, 7.097609e-002
6.788203e+002, 7.393404e-002
6.807488e+002, 7.736676e-002
6.826772e+002, 8.151771e-002
6.846057e+002, 8.620906e-002
6.865342e+002, 9.167994e-002
6.884626e+002, 9.712916e-002
6.903911e+002, 1.017961e-001
6.923196e+002, 1.063919e-001
6.942480e+002, 1.104528e-001
6.961765e+002, 1.136052e-001
6.981050e+002, 1.160228e-001
7.000334e+002, 1.173975e-001
7.019619e+002, 1.191179e-001
7.038904e+002, 1.211876e-001
7.058188e+002, 1.231216e-001
7.077473e+002, 1.254055e-001
7.096758e+002, 1.278295e-001
7.116042e+002, 1.296484e-001
7.135327e+002, 1.319613e-001
7.154612e+002, 1.344078e-001
7.173896e+002, 1.359470e-001
7.193181e+002, 1.369952e-001
7.212466e+002, 1.380839e-001
7.231750e+002, 1.390037e-001
7.251035e+002, 1.392418e-001
7.270320e+002, 1.385503e-001
7.289604e+002, 1.374375e-001
7.308889e+002, 1.351866e-001
7.328174e+002, 1.320672e-001
7.347458e+002, 1.286415e-001
7.366743e+002, 1.248048e-001
7.386028e+002, 1.204325e-001
7.405313e+002, 1.157057e-001
7.424597e+002, 1.113823e-001
7.443882e+002, 1.075273e-001
7.463167e+002, 1.046210e-001
7.482451e+002, 1.038196e-001
7.501736e+002, 1.052794e-001
7.521021e+002, 1.080966e-001
7.540305e+002, 1.111340e-001
7.559590e+002, 1.148754e-001
7.578875e+002, 1.188933e-001
7.598159e+002, 1.225812e-001
7.617444e+002, 1.248284e-001
7.636729e+002, 1.249223e-001
7.656013e+002, 1.227519e-001
7.675298e+002, 1.184749e-001
7.694583e+002, 1.128267e-001
7.713867e+002, 1.057685e-001
7.733152e+002, 9.789688e-002
7.752437e+002, 8.989414e-002
7.771721e+002, 8.187312e-002
7.791006e+002, 7.405707e-002
7.810291e+002, 6.709668e-002
7.829575e+002, 6.118334e-002
7.848860e+002, 5.582184e-002
7.868145e+002, 5.106147e-002
7.887429e+002, 4.708032e-002
7.906714e+002, 4.332164e-002
7.925999e+002, 4.025175e-002
7.945283e+002, 3.745132e-002
7.964568e+002, 3.528463e-002
7.983853e+002, 3.346922e-002
8.003137e+002, 3.161405e-002
8.022422e+002, 3.007850e-002
8.041707e+002, 2.864116e-002
8.060991e+002, 2.754425e-002
8.080276e+002, 2.663284e-002
8.099561e+002, 2.573006e-002
8.118845e+002, 2.476308e-002
8.138130e+002, 2.424783e-002
8.157415e+002, 2.370685e-002
8.176699e+002, 2.294136e-002
8.195984e+002, 2.250059e-002
8.215269e+002, 2.262203e-002
8.234553e+002, 2.245558e-002
8.253838e+002, 2.223288e-002
8.273123e+002, 2.215558e-002
8.292407e+002, 2.191449e-002
8.311692e+002, 2.177778e-002
8.330977e+002, 2.210180e-002
8.350261e+002, 2.220058e-002
8.369546e+002, 2.224536e-002
8.388831e+002, 2.252961e-002
8.408115e+002, 2.269368e-002
8.427400e+002, 2.277827e-002
8.446685e+002, 2.318106e-002
8.465969e+002, 2.357673e-002
8.485254e+002, 2.385254e-002
8.504539e+002, 2.457853e-002
8.523823e+002, 2.506799e-002
8.543108e+002, 2.544831e-002
8.562393e+002, 2.576108e-002
8.581677e+002, 2.625788e-002
8.600962e+002, 2.711661e-002
8.620247e+002, 2.791085e-002
8.639531e+002, 2.866482e-002
8.658816e+002, 2.937889e-002
8.678101e+002, 2.995850e-002
8.697385e+002, 3.086516e-002
8.716670e+002, 3.203826e-002
8.735955e+002, 3.311365e-002
8.755239e+002, 3.400462e-002
8.774524e+002, 3.497126e-002
8.793809e+002, 3.593337e-002
8.813093e+002, 3.712866e-002
8.832378e+002, 3.860429e-002
8.851663e+002, 4.007460e-002
8.870947e+002, 4.137162e-002
8.890232e+002, 4.273250e-002
8.909517e+002, 4.434742e-002
8.928801e+002, 4.605846e-002
8.948085e+002, 4.791913e-002
8.967370e+002, 4.989001e-002
8.986655e+002, 5.200117e-002
9.005939e+002, 5.415289e-002
9.025224e+002, 5.628996e-002
9.044509e+002, 5.870454e-002
9.063793e+002, 6.180894e-002
9.083078e+002, 6.500439e-002
9.102363e+002, 6.787718e-002
9.121647e+002, 7.117738e-002
9.140932e+002, 7.489304e-002
9.160217e+002, 7.902423e-002
9.179501e+002, 8.327205e-002
9.198786e+002, 8.790606e-002
9.218071e+002, 9.284108e-002
9.237355e+002, 9.777202e-002
9.256640e+002, 1.035469e-001
9.275925e+002, 1.103219e-001
9.295209e+002, 1.172207e-001
9.314494e+002, 1.241107e-001
9.333779e+002, 1.319792e-001
9.353063e+002, 1.404055e-001
9.372348e+002, 1.491294e-001
9.391633e+002, 1.584376e-001
9.410917e+002, 1.681629e-001
9.430202e+002, 1.789790e-001
9.449487e+002, 1.906826e-001
9.468771e+002, 2.030920e-001
9.488056e+002, 2.161293e-001
9.507341e+002, 2.293228e-001
9.526625e+002, 2.431660e-001
9.545910e+002, 2.581720e-001
9.565195e+002, 2.741653e-001
9.584479e+002, 2.903687e-001
9.603764e+002, 3.067339e-001
9.623049e+002, 3.234060e-001
9.642333e+002, 3.404422e-001
9.661618e+002, 3.575574e-001
9.680903e+002, 3.747216e-001
9.700187e+002, 3.917388e-001
9.719472e+002, 4.083596e-001
9.738757e+002, 4.246800e-001
9.758041e+002, 4.402712e-001
9.777326e+002, 4.548351e-001
9.796611e+002, 4.670171e-001
9.815895e+002, 4.766855e-001
9.835180e+002, 4.843704e-001
9.854465e+002, 4.892467e-001
9.873749e+002, 4.922733e-001
9.893034e+002, 4.941745e-001
9.912319e+002, 4.940987e-001
9.931603e+002, 4.922783e-001
9.950888e+002, 4.899162e-001
9.970173e+002, 4.868523e-001
9.989457e+002, 4.837332e-001
1.000874e+003, 4.800065e-001
1.002803e+003, 4.757740e-001
1.004731e+003, 4.715068e-001
1.006660e+003, 4.667707e-001
1.008588e+003, 4.619805e-001
1.010517e+003, 4.568205e-001
1.012445e+003, 4.511316e-001
1.014373e+003, 4.452517e-001
1.016302e+003, 4.391160e-001
1.018230e+003, 4.330234e-001
1.020159e+003, 4.265248e-001
1.022087e+003, 4.194703e-001
1.024016e+003, 4.122243e-001
1.025944e+003, 4.049486e-001
1.027873e+003, 3.974849e-001
1.029801e+003, 3.895001e-001
1.031730e+003, 3.813342e-001
1.033658e+003, 3.733945e-001
1.035587e+003, 3.646630e-001
1.037515e+003, 3.551550e-001
1.039444e+003, 3.461494e-001
1.041372e+003, 3.370576e-001
1.043301e+003, 3.279830e-001
1.045229e+003, 3.189809e-001
1.047157e+003, 3.099278e-001
1.049086e+003, 3.005459e-001
1.051014e+003, 2.909267e-001
1.052943e+003, 2.810812e-001
1.054871e+003, 2.711192e-001
1.056800e+003, 2.612123e-001
1.058728e+003, 2.513410e-001
1.060657e+003, 2.416656e-001
1.062585e+003, 2.319964e-001
1.064514e+003, 2.227910e-001
1.066442e+003, 2.139600e-001
1.068371e+003, 2.056152e-001
1.070299e+003, 1.981034e-001
1.072228e+003, 1.906509e-001
1.074156e+003, 1.835674e-001
1.076084e+003, 1.773150e-001
1.078013e+003, 1.716654e-001
1.079941e+003, 1.666134e-001
1.081870e+003, 1.622928e-001
1.083798e+003, 1.583854e-001
1.085727e+003, 1.545434e-001
1.087655e+003, 1.509429e-001
1.089584e+003, 1.476257e-001
1.091512e+003, 1.448230e-001
1.093441e+003, 1.425905e-001
1.095369e+003, 1.401554e-001
1.097298e+003, 1.377644e-001
1.099226e+003, 1.355416e-001
1.101155e+003, 1.332079e-001
1.103083e+003, 1.308854e-001
1.105011e+003, 1.288536e-001
1.106940e+003, 1.266188e-001
1.108868e+003, 1.241271e-001
1.110797e+003, 1.215870e-001
1.112725e+003, 1.189610e-001
1.114654e+003, 1.162387e-001
1.116582e+003, 1.132688e-001
1.118511e+003, 1.100634e-001
1.120439e+003, 1.069835e-001
1.122368e+003, 1.039991e-001
1.124296e+003, 1.010090e-001
1.126225e+003, 9.794825e-002
1.128153e+003, 9.463684e-002
1.130082e+003, 9.164766e-002
1.132010e+003, 8.872622e-002
1.133938e+003, 8.573352e-002
1.135867e+003, 8.267328e-002
1.137795e+003, 7.963387e-002
1.139724e+003, 7.692205e-002
1.141652e+003, 7.414148e-002
1.143581e+003, 7.115529e-002
1.145509e+003, 6.841541e-002
1.147438e+003, 6.564315e-002
1.149366e+003, 6.301504e-002
1.151295e+003, 6.079935e-002
1.153223e+003, 5.860789e-002
1.155152e+003, 5.623296e-002
1.157080e+003, 5.379774e-002
1.159009e+003, 5.141198e-002
1.160937e+003, 4.900904e-002
1.162865e+003, 4.658621e-002
1.164794e+003, 4.431910e-002
1.166722e+003, 4.235449e-002
1.168651e+003, 4.041527e-002
1.170579e+003, 3.819704e-002
1.172508e+003, 3.613333e-002
1.174436e+003, 3.429360e-002
1.176365e+003, 3.272223e-002
1.178293e+003, 3.140562e-002
1.180222e+003, 2.987034e-002
1.182150e+003, 2.808886e-002
1.184079e+003, 2.650624e-002
1.186007e+003, 2.523587e-002
1.187936e+003, 2.415346e-002
1.189864e+003, 2.292854e-002
1.191792e+003, 2.135271e-002
1.193721e+003, 2.007080e-002
1.195649e+003, 1.895075e-002
1.197578e+003, 1.795324e-002
1.199506e+003, 1.717782e-002
1.201435e+003, 1.609699e-002
1.203363e+003, 1.499284e-002
1.205292e+003, 1.425993e-002
1.207220e+003, 1.382388e-002
1.209149e+003, 1.310389e-002
1.211077e+003, 1.225815e-002
1.213006e+003, 1.141416e-002
1.214934e+003, 1.063875e-002
1.216863e+003, 9.988714e-003
1.218791e+003, 9.498755e-003
1.220719e+003, 9.388490e-003
1.222648e+003, 9.071029e-003
1.224576e+003, 8.446258e-003
1.226505e+003, 7.830431e-003
1.228433e+003, 7.345983e-003
1.230362e+003, 6.985242e-003
1.232290e+003, 6.645381e-003
1.234219e+003, 6.192817e-003
1.236147e+003, 5.921352e-003
1.238076e+003, 5.835324e-003
1.240004e+003, 5.486420e-003
1.241933e+003, 5.249487e-003
1.243861e+003, 5.049509e-003
1.245790e+003, 4.714122e-003
1.247718e+003, 4.477048e-003
1.249646e+003, 3.975491e-003
1.251575e+003, 3.760766e-003
1.253503e+003, 3.930988e-003
1.255432e+003, 3.785465e-003
1.257360e+003, 3.722401e-003
1.259289e+003, 3.759283e-003
1.261217e+003, 3.652662e-003
1.263146e+003, 3.584898e-003
1.265074e+003, 3.574929e-003
1.267003e+003, 3.237249e-003
1.268931e+003, 3.351388e-003
1.270860e+003, 3.542327e-003
1.272788e+003, 3.418518e-003
1.274717e+003, 2.981549e-003
1.276645e+003, 2.816864e-003
1.278573e+003, 2.819160e-003
1.280502e+003, 2.581501e-003
1.282430e+003, 2.563063e-003
1.284359e+003, 2.747447e-003
1.286287e+003, 2.575525e-003
1.288216e+003, 2.433309e-003
1.290144e+003, 2.581229e-003
1.292073e+003, 2.649174e-003
1.294001e+003, 2.463142e-003
1.295930e+003, 2.374138e-003
1.297858e+003, 2.457958e-003
1.299787e+003, 2.571403e-003
1.301715e+003, 2.633367e-003
1.303644e+003, 2.351053e-003
1.305572e+003, 2.275174e-003
1.307500e+003, 2.374062e-003
1.309429e+003, 2.444009e-003
1.311357e+003, 2.343455e-003
1.313286e+003, 2.214873e-003
1.315214e+003, 2.306503e-003
1.317143e+003, 2.440481e-003
1.319071e+003, 2.462314e-003
1.321000e+003, 2.357829e-003
1.322928e+003, 2.338780e-003
1.324857e+003, 2.298467e-003
1.326785e+003, 2.233580e-003
1.328714e+003, 2.040141e-003
1.330642e+003, 2.156913e-003
1.332571e+003, 1.872704e-003
1.334499e+003, 1.628600e-003
1.336427e+003, 1.771781e-003
1.338356e+003, 1.941031e-003
1.340284e+003, 1.922040e-003
1.342213e+003, 2.296073e-003
1.344141e+003, 2.424268e-003
1.346070e+003, 2.108641e-003
1.347998e+003, 1.828430e-003
1.349927e+003, 1.912846e-003
1.351855e+003, 2.021105e-003
1.353784e+003, 2.023583e-003
1.355712e+003, 2.061354e-003
1.357641e+003, 2.038602e-003
1.359569e+003, 1.775983e-003
1.361498e+003, 1.578903e-003
1.363426e+003, 1.681299e-003
1.365354e+003, 1.684947e-003
1.367283e+003, 1.776063e-003
1.369211e+003, 1.806918e-003
1.371140e+003, 1.544169e-003
1.373068e+003, 1.526910e-003
1.374997e+003, 1.650794e-003
1.376925e+003, 1.826707e-003
1.378854e+003, 2.170681e-003
1.380782e+003, 2.080191e-003
1.382711e+003, 1.759756e-003
1.384639e+003, 1.863034e-003
1.386568e+003, 1.903098e-003
1.388496e+003, 1.796051e-003
1.390424e+003, 1.788287e-003
1.392353e+003, 1.836161e-003
1.394281e+003, 1.945478e-003
1.396210e+003, 2.132263e-003
1.398138e+003, 2.059807e-003
1.400067e+003, 2.177305e-003
1.401995e+003, 2.201843e-003
1.403924e+003, 1.893602e-003
1.405852e+003, 1.930968e-003
1.407781e+003, 2.174883e-003
1.409709e+003, 1.959835e-003
1.411638e+003, 1.702288e-003
1.413566e+003, 2.021115e-003
1.415495e+003, 2.167691e-003
1.417423e+003, 1.900502e-003
1.419351e+003, 1.841765e-003
1.421280e+003, 2.099571e-003
1.423208e+003, 2.114343e-003
1.425137e+003, 2.037990e-003
1.427065e+003, 1.992645e-003
1.428994e+003, 1.821985e-003
1.430922e+003, 1.808561e-003
1.432851e+003, 2.106802e-003
1.434779e+003, 2.257482e-003
1.436708e+003, 1.970340e-003
1.438636e+003, 1.918952e-003
1.440565e+003, 1.995788e-003
1.442493e+003, 1.861247e-003
1.444422e+003, 1.846647e-003
1.446350e+003, 1.886268e-003
1.448278e+003, 1.952079e-003
1.450207e+003, 2.184251e-003
1.452135e+003, 2.144717e-003
1.454064e+003, 1.981383e-003
1.455992e+003, 1.879343e-003
1.457921e+003, 1.748510e-003
1.459849e+003, 1.474165e-003
1.461778e+003, 1.504271e-003
1.463706e+003, 1.655467e-003
1.465635e+003, 1.705560e-003
1.467563e+003, 1.897058e-003
1.469492e+003, 2.111336e-003
1.471420e+003, 2.400866e-003
1.473349e+003, 2.591030e-003
1.475277e+003, 2.484393e-003
1.477205e+003, 2.403034e-003
1.479134e+003, 2.225705e-003
1.481062e+003, 2.034025e-003
1.482991e+003, 2.247830e-003
1.484919e+003, 2.367878e-003
1.486848e+003, 2.375947e-003
1.488776e+003, 2.240017e-003
1.490705e+003, 2.195933e-003
1.492633e+003, 2.149001e-003
1.494562e+003, 2.422818e-003
1.496490e+003, 2.863024e-003
1.498419e+003, 2.630732e-003
1.500347e+003, 2.421868e-003
1.502276e+003, 2.476693e-003
1.504204e+003, 2.352159e-003
1.506132e+003, 2.056540e-003
1.508061e+003, 1.937630e-003
1.509989e+003, 1.903076e-003
1.511918e+003, 2.093537e-003
1.513846e+003, 2.328928e-003
1.515775e+003, 2.203232e-003
1.517703e+003, 2.086111e-003
1.519632e+003, 1.969213e-003
1.521560e+003, 2.221910e-003
1.523489e+003, 2.479186e-003
1.525417e+003, 2.470098e-003
1.527346e+003, 2.430350e-003
1.529274e+003, 2.442929e-003
1.531203e+003, 2.215374e-003
1.533131e+003, 2.105890e-003
1.535059e+003, 2.506439e-003
1.536988e+003, 2.767633e-003
1.538916e+003, 2.647771e-003
1.540845e+003, 2.493850e-003
1.542773e+003, 2.572092e-003
1.544702e+003, 2.688042e-003
1.546630e+003, 2.657338e-003
1.548559e+003, 2.681360e-003
1.550487e+003, 2.693623e-003
1.552416e+003, 2.567927e-003
1.554344e+003, 2.666404e-003
1.556273e+003, 2.862012e-003
1.558201e+003, 2.764254e-003
1.560130e+003, 2.927665e-003
1.562058e+003, 2.842141e-003
1.563986e+003, 2.727949e-003
1.565915e+003, 3.064691e-003
1.567843e+003, 3.386912e-003
1.569772e+003, 3.724342e-003
1.571700e+003, 3.687239e-003
1.573629e+003, 3.552594e-003
1.575557e+003, 3.585496e-003
1.577486e+003, 3.625720e-003
1.579414e+003, 3.812786e-003
1.581343e+003, 3.808906e-003
1.583271e+003, 3.908511e-003
1.585200e+003, 4.115879e-003
1.587128e+003, 4.098456e-003
1.589057e+003, 3.927347e-003
1.590985e+003, 4.141825e-003
1.592913e+003, 4.291550e-003
1.594842e+003, 4.489043e-003
1.596770e+003, 4.899088e-003
1.598699e+003, 5.386734e-003
1.600627e+003, 5.890854e-003
1.602556e+003, 6.416786e-003
1.604484e+003, 7.112013e-003
1.606413e+003, 8.278878e-003
1.608341e+003, 9.587939e-003
1.610270e+003, 1.100161e-002
1.612198e+003, 1.282047e-002
1.614127e+003, 1.488466e-002
1.616055e+003, 1.693492e-002
1.617984e+003, 1.864148e-002
1.619912e+003, 1.996749e-002
1.621840e+003, 2.022627e-002
1.623769e+003, 1.953215e-002
1.625697e+003, 1.821977e-002
1.627626e+003, 1.668739e-002
1.629554e+003, 1.509334e-002
1.631483e+003, 1.351689e-002
1.633411e+003, 1.163639e-002
1.635340e+003, 1.005845e-002
1.637268e+003, 8.900993e-003
1.639197e+003, 7.749067e-003
1.641125e+003, 7.062849e-003
1.643054e+003, 6.681149e-003
1.644982e+003, 5.879205e-003
1.646911e+003, 5.624912e-003
1.648839e+003, 5.421735e-003
1.650767e+003, 4.929979e-003
1.652696e+003, 4.742945e-003
1.654624e+003, 5.050145e-003
1.656553e+003, 4.960908e-003
1.658481e+003, 4.626635e-003
1.660410e+003, 4.127267e-003
1.662338e+003, 3.881769e-003
1.664267e+003, 3.937280e-003
1.666195e+003, 3.903541e-003
1.668124e+003, 3.456078e-003
1.670052e+003, 3.123103e-003
1.671981e+003, 3.580472e-003
1.673909e+003, 3.826655e-003
1.675838e+003, 3.620930e-003
1.677766e+003, 3.210001e-003
1.679694e+003, 3.319966e-003
1.681623e+003, 3.711438e-003
1.683551e+003, 3.450097e-003
1.685480e+003, 2.959823e-003
1.687408e+003, 2.696269e-003
1.689337e+003, 2.607782e-003
1.691265e+003, 2.610702e-003
1.693194e+003, 2.351527e-003
1.695122e+003, 2.294762e-003
1.697051e+003, 2.522523e-003
1.698979e+003, 2.286883e-003
1.700908e+003, 1.907754e-003
1.702836e+003, 1.793680e-003
1.704765e+003, 1.799958e-003
1.706693e+003, 1.630251e-003
1.708621e+003, 1.372165e-003
1.710550e+003, 1.371329e-003
1.712478e+003, 1.292839e-003
1.714407e+003, 1.506407e-003
1.716335e+003, 1.657187e-003
1.718264e+003, 1.276505e-003
1.720192e+003, 1.357703e-003
1.722121e+003, 1.524449e-003
1.724049e+003, 1.509098e-003
1.725978e+003, 1.492220e-003
1.727906e+003, 1.723848e-003
1.729835e+003, 1.705378e-003
1.731763e+003, 1.364651e-003
1.733692e+003, 1.172832e-003
1.735620e+003, 1.755119e-003
1.737548e+003, 1.645358e-003
1.739477e+003, 1.092125e-003
1.741405e+003, 1.192151e-003
1.743334e+003, 1.233161e-003
1.745262e+003, 1.231571e-003
1.747191e+003, 1.053662e-003
1.749119e+003, 8.523063e-004
1.751048e+003, 1.225019e-003
1.752976e+003, 1.848125e-003
1.754905e+003, 2.200552e-003
1.756833e+003, 1.984721e-003
1.758762e+003, 1.663577e-003
1.760690e+003, 1.919244e-003
1.762619e+003, 2.596484e-003
1.764547e+003, 2.865301e-003
1.766475e+003, 2.593650e-003
1.768404e+003, 2.644752e-003
1.770332e+003, 2.798982e-003
1.772261e+003, 2.487022e-003
1.774189e+003, 2.335107e-003
1.776118e+003, 2.473187e-003
1.778046e+003, 2.772745e-003
1.779975e+003, 2.762080e-003
1.781903e+003, 2.629987e-003
1.783832e+003, 2.638942e-003
1.785760e+003, 3.004757e-003
1.787689e+003, 2.759367e-003
1.789617e+003, 2.144654e-003
1.791546e+003, 2.215065e-003
1.793474e+003, 2.863960e-003
1.795402e+003, 2.485479e-003
1.797331e+003, 2.301414e-003
1.799259e+003, 2.648127e-003
1.801188e+003, 2.806377e-003
1.803116e+003, 2.879357e-003
1.805045e+003, 2.848581e-003
1.806973e+003, 2.736320e-003
1.808902e+003, 2.488233e-003
1.810830e+003, 2.359080e-003
1.812759e+003, 2.727240e-003
1.814687e+003, 2.381956e-003
1.816616e+003, 1.831534e-003
1.818544e+003, 2.028822e-003
1.820473e+003, 2.299225e-003
1.822401e+003, 2.371852e-003
1.824329e+003, 1.792902e-003
1.826258e+003, 1.672115e-003
1.828186e+003, 2.233335e-003
1.830115e+003, 2.403240e-003
1.832043e+003, 2.283887e-003
1.833972e+003, 1.936014e-003
1.835900e+003, 1.815126e-003
1.837829e+003, 2.001436e-003
1.839757e+003, 1.823950e-003
1.841686e+003, 1.081806e-003
1.843614e+003, 1.204368e-003
1.845543e+003, 1.528501e-003
1.847471e+003, 1.470548e-003
1.849400e+003, 1.652960e-003
1.851328e+003, 1.947265e-003
1.853256e+003, 1.614259e-003
1.855185e+003, 8.486066e-004
1.857113e+003, 1.002822e-003
1.859042e+003, 1.437981e-003
1.860970e+003, 1.414271e-003
1.862899e+003, 1.121215e-003
1.864827e+003, 1.083272e-003
1.866756e+003, 1.418667e-003
1.868684e+003, 1.748749e-003
1.870613e+003, 1.215860e-003
1.872541e+003, 1.088064e-003
1.874470e+003, 1.420921e-003
1.876398e+003, 6.154307e-004
1.878327e+003, 6.754839e-004
1.880255e+003, 1.048317e-003
1.882183e+003, 1.348743e-003
1.884112e+003, 1.748985e-003
1.886040e+003, 1.479024e-003
1.887969e+003, 1.193248e-003
1.889897e+003, 1.099340e-003
1.891826e+003, 8.538839e-004
1.893754e+003, -5.094958e-005
1.895683e+003, -1.222852e-004
1.897611e+003, -4.441587e-004
1.899540e+003, -1.200797e-004
1.901468e+003, -2.959366e-004
1.903397e+003, -5.821577e-004
1.905325e+003, -7.152447e-005
1.907254e+003, -3.499632e-004
1.909182e+003, -6.811451e-004
1.911110e+003, -1.320809e-004
1.913039e+003, -2.017354e-004
1.914967e+003, -7.939590e-004
1.916896e+003, -9.581363e-004
1.918824e+003, -9.069607e-004
1.920753e+003, -1.467636e-003
1.922681e+003, -2.149100e-003
1.924610e+003, -2.921807e-003
1.926538e+003, -2.502759e-003
1.928467e+003, -1.979261e-003
1.930395e+003, -2.470781e-003
1.932324e+003, -2.336563e-003
1.934252e+003, -2.670593e-003
1.936181e+003, -3.065880e-003
1.938109e+003, -2.637510e-003
1.940037e+003, -3.124505e-003
1.941966e+003, -5.129155e-003
1.943894e+003, -6.741631e-003
1.945823e+003, -5.657286e-003
1.947751e+003, -4.213299e-003
1.949680e+003, -4.438307e-003
1.951608e+003, -4.978883e-003
1.953537e+003, -6.298922e-003
1.955465e+003, -5.668393e-003
1.957394e+003, -5.295532e-003
1.959322e+003, -5.570259e-003
1.961251e+003, -6.124391e-003
1.963179e+003, -7.116785e-003
1.965108e+003, -7.045124e-003
1.967036e+003, -8.431829e-003
1.968964e+003, -1.009262e-002
1.970893e+003, -8.197565e-003
1.972821e+003, -7.388185e-003
1.974750e+003, -7.901241e-003
1.976678e+003, -9.464435e-003
1.978607e+003, -7.297205e-003
1.980535e+003, -5.536224e-003
1.982464e+003, -5.776018e-003
1.984392e+003, -5.273822e-003
1.986321e+003, -5.125212e-003
1.988249e+003, -5.483754e-003
1.990178e+003, -5.840740e-003
1.992106e+003, -6.295383e-003
1.994035e+003, -6.060920e-003
1.995963e+003, -5.023791e-003
1.997891e+003, -4.518753e-003
1.999820e+003, -6.443026e-003
2.001748e+003, -7.875652e-003
2.003677e+003, -9.094532e-003
2.005605e+003, -9.029891e-003
2.007534e+003, -7.021595e-003
2.009462e+003, -7.226460e-003
2.011391e+003, -8.799520e-003
2.013319e+003, -7.795760e-003
2.015248e+003, -6.464960e-003
2.017176e+003, -8.530801e-003
2.019105e+003, -9.386516e-003
2.021033e+003, -1.063021e-002
2.022962e+003, -1.007119e-002
2.024890e+003, -1.050652e-002
2.026818e+003, -1.166173e-002
2.028747e+003, -1.029130e-002
2.030675e+003, -7.473025e-003
2.032604e+003, -6.694104e-003
2.034532e+003, -7.272425e-003
2.036461e+003, -8.190542e-003
2.038389e+003, -5.348585e-003
2.040318e+003, -3.135462e-003
2.042246e+003, -5.037210e-003
2.044175e+003, -5.821988e-003
2.046103e+003, -7.080297e-003
2.048032e+003, -7.801565e-003
2.049960e+003, -3.411365e-003
2.051889e+003, -3.545888e-003
2.053817e+003, -6.521070e-003
2.055746e+003, -4.808220e-003
2.057674e+003, -3.275108e-003
2.059603e+003, -3.476629e-003
2.061531e+003, -4.887651e-003
2.063459e+003, -6.226991e-003
2.065388e+003, -7.202291e-003
2.067316e+003, -5.876329e-003
2.069245e+003, -4.199768e-003
2.071173e+003, -3.145609e-003
2.073102e+003, -3.508378e-003
2.075030e+003, -4.375257e-003
2.076959e+003, -4.813001e-003
2.078887e+003, -4.162020e-003
2.080816e+003, -4.838467e-003
2.082744e+003, -4.355123e-003
2.084673e+003, -1.975283e-003
2.086601e+003, -2.067134e-003
2.088530e+003, -2.242949e-003
2.090458e+003, -2.000532e-003
2.092386e+003, -3.371457e-003
2.094315e+003, -3.502250e-003
2.096243e+003, -2.533389e-003
2.098172e+003, -3.822573e-003
2.100100e+003, -5.215956e-003
2.102029e+003, -4.168624e-003
2.103957e+003, -3.272785e-003
2.105886e+003, -2.882595e-003
2.107814e+003, -2.765201e-003
2.109743e+003, -2.864879e-003
2.111671e+003, -2.866869e-003
2.113600e+003, -2.520353e-003
2.115528e+003, -3.572427e-003
2.117457e+003, -4.076642e-003
2.119385e+003, -4.705656e-003
2.121313e+003, -4.615877e-003
2.123242e+003, -3.515162e-003
2.125170e+003, -3.891675e-003
2.127099e+003, -5.201017e-003
2.129027e+003, -4.895840e-003
2.130956e+003, -4.797025e-003
2.132884e+003, -5.512024e-003
2.134813e+003, -5.698474e-003
2.136741e+003, -5.586456e-003
2.138670e+003, -6.688477e-003
2.140598e+003, -8.186941e-003
2.142527e+003, -8.230485e-003
2.144455e+003, -9.307865e-003
2.146384e+003, -7.545122e-003
2.148312e+003, -5.180330e-003
2.150240e+003, -4.696118e-003
2.152169e+003, -4.766242e-003
2.154097e+003, -6.877518e-003
2.156026e+003, -1.012729e-002
2.157954e+003, -1.144398e-002
2.159883e+003, -6.376248e-003
2.161811e+003, -1.287088e-003
2.163740e+003, -1.760217e-003
2.165668e+003, -3.027873e-003
2.167597e+003, -2.499003e-003
2.169525e+003, -2.844152e-003
2.171454e+003, -2.946167e-003
2.173382e+003, -2.716519e-003
2.175311e+003, -2.248138e-003
2.177239e+003, -2.664439e-003
2.179167e+003, -2.999819e-003
2.181096e+003, -1.714680e-003
2.183024e+003, -1.186377e-003
2.184953e+003, -2.236436e-003
2.186881e+003, -2.368667e-003
2.188810e+003, -1.934280e-003
2.190738e+003, -1.333523e-003
2.192667e+003, -1.435246e-003
2.194595e+003, -1.257735e-003
2.196524e+003, -2.155626e-003
2.198452e+003, -3.277792e-003
2.200381e+003, -3.033018e-003
2.202309e+003, -2.685005e-003
2.204238e+003, -2.203785e-003
2.206166e+003, -1.272688e-003
2.208094e+003, -1.627741e-004
2.210023e+003, 3.331886e-005
2.211951e+003, 7.102150e-005
2.213880e+003, -3.194070e-004
2.215808e+003, -4.067270e-004
2.217737e+003, -1.592813e-003
2.219665e+003, -1.497933e-003
2.221594e+003, -3.241993e-004
2.223522e+003, -7.718715e-004
2.225451e+003, -1.202069e-003
2.227379e+003, -4.961917e-004
2.229308e+003, 2.642546e-004
2.231236e+003, 1.233787e-003
2.233165e+003, 1.575793e-003
2.235093e+003, 1.176452e-003
2.237021e+003, 1.152384e-003
2.238950e+003, 2.003512e-003
2.240878e+003, 8.787665e-004
2.242807e+003, -7.950502e-004
2.244735e+003, -1.736869e-003
2.246664e+003, -5.401436e-004
2.248592e+003, 1.026398e-003
2.250521e+003, 1.946693e-003
2.252449e+003, 2.615939e-003
2.254378e+003, 1.736817e-003
2.256306e+003, 8.030328e-004
2.258235e+003, 1.721724e-003
2.260163e+003, 1.579092e-003
2.262092e+003, -3.285357e-004
2.264020e+003, -6.684665e-004
2.265948e+003, 6.963883e-004
2.267877e+003, 1.443445e-003
2.269805e+003, 1.590424e-003
2.271734e+003, 1.590644e-003
2.273662e+003, 1.820580e-003
2.275591e+003, 2.121983e-003
2.277519e+003, 2.605407e-003
2.279448e+003, 2.506220e-003
2.281376e+003, 4.071912e-003
2.283305e+003, 4.665563e-003
2.285233e+003, 3.434721e-003
2.287162e+003, 2.772974e-003
2.289090e+003, 3.287016e-003
2.291019e+003, 2.994701e-003
2.292947e+003, 3.271211e-003
2.294875e+003, 4.116546e-003
2.296804e+003, 4.138880e-003
2.298732e+003, 3.488411e-003
2.300661e+003, 3.501358e-003
2.302589e+003, 4.034472e-003
2.304518e+003, 4.244949e-003
2.306446e+003, 3.725685e-003
2.308375e+003, 3.433891e-003
2.310303e+003, 3.539155e-003
2.312232e+003, 2.569994e-003
2.314160e+003, 3.159395e-003
2.316089e+003, 4.550450e-003
2.318017e+003, 4.607785e-003
2.319946e+003, 5.273086e-003
2.321874e+003, 5.770303e-003
2.323802e+003, 6.722694e-003
2.325731e+003, 6.252535e-003
2.327659e+003, 5.009149e-003
2.329588e+003, 4.871198e-003
2.331516e+003, 5.021953e-003
2.333445e+003, 5.807767e-003
2.335373e+003, 6.050507e-003
2.337302e+003, 5.680213e-003
2.339230e+003, 5.380967e-003
2.341159e+003, 5.291904e-003
2.343087e+003, 4.993587e-003
2.345016e+003, 4.504182e-003
2.346944e+003, 3.644295e-003
2.348873e+003, 3.448528e-003
2.350801e+003, 3.490594e-003
2.352729e+003, 3.779166e-003
2.354658e+003, 4.861923e-003
2.356586e+003, 6.473619e-003
2.358515e+003, 6.870791e-003
2.360443e+003, 6.346486e-003
2.362372e+003, 5.959595e-003
2.364300e+003, 5.900480e-003
2.366229e+003, 4.948996e-003
2.368157e+003, 4.609005e-003
2.370086e+003, 5.125390e-003
2.372014e+003, 4.511201e-003
2.373942e+003, 4.110686e-003
2.375871e+003, 3.257229e-003
2.377799e+003, 2.196606e-003
2.379728e+003, 2.814674e-003
2.381656e+003, 3.143572e-003
2.383585e+003, 3.249027e-003
2.385513e+003, 2.997086e-003
2.387442e+003, 3.269282e-003
2.389370e+003, 3.482565e-003
2.391299e+003, 3.348487e-003
2.393227e+003, 3.908051e-003
2.395156e+003, 4.534408e-003
2.397084e+003, 4.044945e-003
2.399012e+003, 3.041151e-003
2.400941e+003, 3.038171e-003
2.402869e+003, 4.058384e-003
2.404798e+003, 3.842649e-003
2.406726e+003, 2.464378e-003
2.408655e+003, 2.228630e-003
2.410583e+003, 2.763634e-003
2.412512e+003, 2.473107e-003
2.414440e+003, 2.432504e-003
2.416369e+003, 3.239904e-003
2.418297e+003, 2.983632e-003
2.420226e+003, 1.924922e-003
2.422154e+003, 1.872105e-003
2.424083e+003, 2.608235e-003
2.426011e+003, 3.401852e-003
2.427939e+003, 3.250819e-003
2.429868e+003, 3.773300e-003
2.431796e+003, 3.001257e-003
2.433725e+003, 2.709396e-003
2.435653e+003, 3.149924e-003
2.437582e+003, 2.523094e-003
2.439510e+003, 2.784317e-003
2.441439e+003, 3.785098e-003
2.443367e+003, 4.215783e-003
2.445296e+003, 3.822302e-003
2.447224e+003, 3.876017e-003
2.449153e+003, 3.602025e-003
2.451081e+003, 3.948070e-003
2.453010e+003, 4.171302e-003
2.454938e+003, 3.392799e-003
2.456866e+003, 3.297144e-003
2.458795e+003, 3.398784e-003
2.460723e+003, 3.114801e-003
2.462652e+003, 2.959065e-003
2.464580e+003, 3.515005e-003
2.466509e+003, 3.182861e-003
2.468437e+003, 2.713848e-003
2.470366e+003, 2.926228e-003
2.472294e+003, 4.374919e-003
2.474223e+003, 3.988143e-003
2.476151e+003, 3.134412e-003
2.478080e+003, 2.927461e-003
2.480008e+003, 2.955036e-003
2.481937e+003, 3.727396e-003
2.483865e+003, 3.688340e-003
2.485793e+003, 3.792781e-003
2.487722e+003, 4.346685e-003
2.489650e+003, 4.594167e-003
2.491579e+003, 4.071887e-003
2.493507e+003, 3.858858e-003
2.495436e+003, 4.384155e-003
2.497364e+003, 3.972788e-003
2.499293e+003, 4.268878e-003
2.501221e+003, 3.990652e-003
2.503150e+003, 2.572838e-003
2.505078e+003, 2.149668e-003
2.507007e+003, 4.176982e-003
2.508935e+003, 4.606795e-003
2.510864e+003, 3.340651e-003
2.512792e+003, 2.521494e-003
2.514720e+003, 3.161340e-003
2.516649e+003, 3.477249e-003
2.518577e+003, 3.614706e-003
2.520506e+003, 4.524887e-003
2.522434e+003, 4.018961e-003
2.524363e+003, 2.571251e-003
2.526291e+003, 3.083043e-003
2.528220e+003, 4.711273e-003
2.530148e+003, 4.887900e-003
2.532077e+003, 4.784858e-003
2.534005e+003, 3.602310e-003
2.535934e+003, 3.119499e-003
2.537862e+003, 3.225853e-003
2.539791e+003, 3.645911e-003
2.541719e+003, 4.473840e-003
2.543647e+003, 4.438309e-003
2.545576e+003, 3.995475e-003
2.547504e+003, 4.246490e-003
2.549433e+003, 4.022045e-003
2.551361e+003, 4.765688e-003
2.553290e+003, 5.599119e-003
2.555218e+003, 5.348948e-003
2.557147e+003, 4.104628e-003
2.559075e+003, 2.576607e-003
2.561004e+003, 2.932427e-003
2.562932e+003, 4.524651e-003
2.564861e+003, 4.675601e-003
2.566789e+003, 3.764198e-003
2.568718e+003, 3.141306e-003
2.570646e+003, 3.832843e-003
2.572574e+003, 4.297007e-003
2.574503e+003, 3.780646e-003
2.576431e+003, 4.204646e-003
2.578360e+003, 4.483266e-003
2.580288e+003, 4.258570e-003
2.582217e+003, 4.482928e-003
2.584145e+003, 4.666820e-003
2.586074e+003, 4.120701e-003
2.588002e+003, 5.090196e-003
2.589931e+003, 5.524231e-003
2.591859e+003, 4.112250e-003
2.593788e+003, 3.960057e-003
2.595716e+003, 4.797060e-003
2.597645e+003, 4.377504e-003
2.599573e+003, 4.858252e-003
2.601501e+003, 5.804910e-003
2.603430e+003, 5.371776e-003
2.605358e+003, 5.099012e-003
2.607287e+003, 4.555335e-003
2.609215e+003, 3.869704e-003
2.611144e+003, 4.401295e-003
2.613072e+003, 4.693934e-003
2.615001e+003, 4.755780e-003
2.616929e+003, 5.049540e-003
2.618858e+003, 5.035306e-003
2.620786e+003, 4.994008e-003
2.622715e+003, 5.667691e-003
2.624643e+003, 5.830411e-003
2.626572e+003, 5.620051e-003
2.628500e+003, 5.139404e-003
2.630428e+003, 5.054577e-003
2.632357e+003, 5.797051e-003
2.634285e+003, 6.164989e-003
2.636214e+003, 5.710646e-003
2.638142e+003, 5.154042e-003
2.640071e+003, 4.889396e-003
2.641999e+003, 4.401105e-003
2.643928e+003, 4.398690e-003
2.645856e+003, 4.513581e-003
2.647785e+003, 5.207866e-003
2.649713e+003, 5.736712e-003
2.651642e+003, 5.123403e-003
2.653570e+003, 4.053359e-003
2.655499e+003, 4.449825e-003
2.657427e+003, 5.069666e-003
2.659355e+003, 4.929271e-003
2.661284e+003, 5.058159e-003
2.663212e+003, 4.485961e-003
2.665141e+003, 3.726804e-003
2.667069e+003, 4.352298e-003
2.668998e+003, 5.162534e-003
2.670926e+003, 3.970373e-003
2.672855e+003, 3.084918e-003
2.674783e+003, 3.628975e-003
2.676712e+003, 4.325480e-003
2.678640e+003, 4.038215e-003
2.680569e+003, 3.643595e-003
2.682497e+003, 3.752679e-003
2.684426e+003, 4.281880e-003
2.686354e+003, 4.015993e-003
2.688282e+003, 3.404098e-003
2.690211e+003, 3.703289e-003
2.692139e+003, 4.008709e-003
2.694068e+003, 4.231948e-003
2.695996e+003, 4.851594e-003
2.697925e+003, 4.696641e-003
2.699853e+003, 4.342045e-003
2.701782e+003, 4.591279e-003
2.703710e+003, 4.223000e-003
2.705639e+003, 3.638643e-003
2.707567e+003, 3.198475e-003
2.709496e+003, 3.782613e-003
2.711424e+003, 5.030654e-003
2.713353e+003, 4.779283e-003
2.715281e+003, 4.299944e-003
2.717209e+003, 4.273270e-003
2.719138e+003, 4.246192e-003
2.721066e+003, 3.952994e-003
2.722995e+003, 3.226199e-003
2.724923e+003, 3.020816e-003
2.726852e+003, 3.826060e-003
2.728780e+003, 4.206988e-003
2.730709e+003, 4.358249e-003
2.732637e+003, 4.787432e-003
2.734566e+003, 5.055392e-003
2.736494e+003, 4.643441e-003
2.738423e+003, 4.186888e-003
2.740351e+003, 4.135075e-003
2.742280e+003, 4.051186e-003
2.744208e+003, 4.381436e-003
2.746136e+003, 4.090026e-003
2.748065e+003, 3.770141e-003
2.749993e+003, 3.987520e-003
2.751922e+003, 4.916069e-003
2.753850e+003, 5.184423e-003
2.755779e+003, 4.475980e-003
2.757707e+003, 4.274051e-003
2.759636e+003, 5.466810e-003
2.761564e+003, 5.767753e-003
2.763493e+003, 4.426655e-003
2.765421e+003, 4.026256e-003
2.767350e+003, 4.740261e-003
2.769278e+003, 5.189691e-003
2.771207e+003, 4.461776e-003
2.773135e+003, 4.852294e-003
2.775063e+003, 5.606004e-003
2.776992e+003, 5.335563e-003
2.778920e+003, 5.425837e-003
2.780849e+003, 5.443486e-003
2.782777e+003, 5.033315e-003
2.784706e+003, 4.788054e-003
2.786634e+003, 5.546544e-003
2.788563e+003, 5.673098e-003
2.790491e+003, 4.843209e-003
2.792420e+003, 4.694868e-003
2.794348e+003, 4.696252e-003
2.796277e+003, 4.438067e-003
2.798205e+003, 4.141713e-003
2.800134e+003, 4.075212e-003
2.802062e+003, 4.252977e-003
2.803990e+003, 4.724116e-003
2.805919e+003, 5.198694e-003
2.807847e+003, 5.274306e-003
2.809776e+003, 3.761134e-003
2.811704e+003, 3.784088e-003
2.813633e+003, 4.432491e-003
2.815561e+003, 4.655766e-003
2.817490e+003, 5.375960e-003
2.819418e+003, 5.500311e-003
2.821347e+003, 4.412462e-003
2.823275e+003, 3.442569e-003
2.825204e+003, 3.041706e-003
2.827132e+003, 4.282662e-003
2.829061e+003, 4.922573e-003
2.830989e+003, 4.771769e-003
2.832917e+003, 5.228448e-003
2.834846e+003, 5.488517e-003
2.836774e+003, 4.605081e-003
2.838703e+003, 3.686454e-003
2.840631e+003, 3.898647e-003
2.842560e+003, 3.193247e-003
2.844488e+003, 2.089768e-003
2.846417e+003, 2.397409e-003
2.848345e+003, 2.826993e-003
2.850274e+003, 1.941814e-003
2.852202e+003, 2.658710e-004
2.854131e+003, -1.009009e-004
2.856059e+003, -2.640919e-004
2.857988e+003, 3.411443e-004
2.859916e+003, 1.185736e-003
2.861844e+003, 1.846845e-003
2.863773e+003, 2.120189e-003
2.865701e+003, 1.717922e-003
2.867630e+003, 1.974099e-003
2.869558e+003, 3.122058e-003
2.871487e+003, 3.429036e-003
2.873415e+003, 3.279933e-003
2.875344e+003, 2.503678e-003
2.877272e+003, 3.142493e-003
2.879201e+003, 4.003453e-003
2.881129e+003, 2.886992e-003
2.883058e+003, 2.273034e-003
2.884986e+003, 3.165101e-003
2.886915e+003, 3.833591e-003
2.888843e+003, 4.012731e-003
2.890771e+003, 3.457252e-003
2.892700e+003, 2.618387e-003
2.894628e+003, 1.468579e-003
2.896557e+003, 8.272853e-004
2.898485e+003, 1.164333e-003
2.900414e+003, 2.091964e-003
2.902342e+003, 1.889064e-003
2.904271e+003, 1.356902e-003
2.906199e+003, 1.350116e-004
2.908128e+003, 6.173240e-004
2.910056e+003, 1.916584e-003
2.911985e+003, -2.991057e-006
2.913913e+003, -1.273622e-003
2.915842e+003, -8.131288e-004
2.917770e+003, 5.071750e-004
2.919698e+003, 4.826380e-004
2.921627e+003, -1.903989e-003
2.923555e+003, -3.685363e-003
2.925484e+003, -3.783379e-003
2.927412e+003, -2.052738e-003
2.929341e+003, -1.240416e-003
2.931269e+003, -1.532872e-003
2.933198e+003, -1.600761e-003
2.935126e+003, -1.007528e-003
2.937055e+003, -7.129359e-004
2.938983e+003, 1.399433e-004
2.940912e+003, 2.096577e-003
2.942840e+003, 2.874261e-003
2.944769e+003, 1.937785e-003
2.946697e+003, 1.657956e-003
2.948625e+003, 1.805985e-003
2.950554e+003, 2.274537e-003
2.952482e+003, 2.243781e-003
2.954411e+003, 1.894915e-003
2.956339e+003, 1.665735e-003
2.958268e+003, 1.790591e-003
2.960196e+003, 2.977625e-003
2.962125e+003, 4.901865e-003
2.964053e+003, 5.114667e-003
2.965982e+003, 3.969933e-003
2.967910e+003, 4.114864e-003
2.969839e+003, 4.267596e-003
2.971767e+003, 3.862713e-003
2.973696e+003, 3.787545e-003
2.975624e+003, 4.235551e-003
2.977552e+003, 4.889862e-003
2.979481e+003, 4.252332e-003
2.981409e+003, 3.995835e-003
2.983338e+003, 4.316153e-003
2.985266e+003, 3.277201e-003
2.987195e+003, 3.504486e-003
2.989123e+003, 3.780078e-003
2.991052e+003, 4.023969e-003
2.992980e+003, 4.585944e-003
2.994909e+003, 4.404482e-003
2.996837e+003, 3.729882e-003
2.998766e+003, 3.148386e-003
3.000694e+003, 4.356925e-003
3.002623e+003, 4.566873e-003
3.004551e+003, 4.334358e-003
3.006479e+003, 5.250586e-003
3.008408e+003, 4.959545e-003
3.010336e+003, 4.859801e-003
3.012265e+003, 5.482174e-003
3.014193e+003, 5.620785e-003
3.016122e+003, 5.390347e-003
3.018050e+003, 5.574247e-003
3.019979e+003, 5.778102e-003
3.021907e+003, 5.395157e-003
3.023836e+003, 5.435723e-003
3.025764e+003, 5.222261e-003
3.027693e+003, 5.163447e-003
3.029621e+003, 6.597864e-003
3.031550e+003, 7.074505e-003
3.033478e+003, 6.023930e-003
3.035406e+003, 5.079775e-003
3.037335e+003, 4.909044e-003
3.039263e+003, 5.107459e-003
3.041192e+003, 5.071350e-003
3.043120e+003, 4.993998e-003
3.045049e+003, 4.507783e-003
3.046977e+003, 4.733625e-003
3.048906e+003, 5.666340e-003
3.050834e+003, 6.352923e-003
3.052763e+003, 6.622034e-003
3.054691e+003, 5.665911e-003
3.056620e+003, 4.845981e-003
3.058548e+003, 6.138160e-003
3.060477e+003, 6.130824e-003
3.062405e+003, 4.753316e-003
3.064333e+003, 4.172056e-003
3.066262e+003, 4.214532e-003
3.068190e+003, 5.839304e-003
3.070119e+003, 5.987249e-003
3.072047e+003, 5.477213e-003
3.073976e+003, 6.145074e-003
3.075904e+003, 6.299243e-003
3.077833e+003, 5.748573e-003
3.079761e+003, 5.734035e-003
3.081690e+003, 5.068670e-003
3.083618e+003, 5.934961e-003
3.085547e+003, 7.133704e-003
3.087475e+003, 7.357449e-003
3.089404e+003, 6.511617e-003
3.091332e+003, 5.833555e-003
3.093260e+003, 5.040171e-003
3.095189e+003, 4.957669e-003
3.097117e+003, 5.758826e-003
3.099046e+003, 5.836664e-003
3.100974e+003, 5.048305e-003
3.102903e+003, 5.738711e-003
3.104831e+003, 7.073524e-003
3.106760e+003, 7.170950e-003
3.108688e+003, 6.546468e-003
3.110617e+003, 6.845316e-003
3.112545e+003, 7.868148e-003
3.114474e+003, 7.825380e-003
3.116402e+003, 7.044248e-003
3.118331e+003, 8.016220e-003
3.120259e+003, 8.672793e-003
3.122188e+003, 6.992125e-003
3.124116e+003, 6.107214e-003
3.126044e+003, 6.773709e-003
3.127973e+003, 6.431597e-003
3.129901e+003, 6.862843e-003
3.131830e+003, 7.697830e-003
3.133758e+003, 8.716690e-003
3.135687e+003, 7.253387e-003
3.137615e+003, 6.456855e-003
3.139544e+003, 7.576925e-003
3.141472e+003, 7.296698e-003
3.143401e+003, 7.355734e-003
3.145329e+003, 8.366301e-003
3.147258e+003, 7.195235e-003
3.149186e+003, 5.586561e-003
3.151115e+003, 6.368299e-003
3.153043e+003, 7.724965e-003
3.154971e+003, 9.066734e-003
3.156900e+003, 8.832539e-003
3.158828e+003, 7.736508e-003
3.160757e+003, 8.526622e-003
3.162685e+003, 7.901933e-003
3.164614e+003, 7.031173e-003
3.166542e+003, 7.770489e-003
3.168471e+003, 8.486269e-003
3.170399e+003, 6.667555e-003
3.172328e+003, 5.296778e-003
3.174256e+003, 6.279188e-003
3.176185e+003, 8.632521e-003
3.178113e+003, 9.005616e-003
3.180042e+003, 9.834649e-003
3.181970e+003, 1.036059e-002
3.183898e+003, 9.765830e-003
3.185827e+003, 7.983109e-003
3.187755e+003, 6.829408e-003
3.189684e+003, 7.160280e-003
3.191612e+003, 7.553612e-003
3.193541e+003, 7.743632e-003
3.195469e+003, 7.370598e-003
3.197398e+003, 7.865277e-003
3.199326e+003, 7.666626e-003
3.201255e+003, 7.003733e-003
3.203183e+003, 8.459747e-003
3.205112e+003, 9.657968e-003
3.207040e+003, 8.337157e-003
3.208969e+003, 7.219389e-003
3.210897e+003, 8.106283e-003
3.212825e+003, 1.122686e-002
3.214754e+003, 1.121684e-002
3.216682e+003, 8.867972e-003
3.218611e+003, 7.881102e-003
3.220539e+003, 7.496225e-003
3.222468e+003, 6.944015e-003
3.224396e+003, 7.933732e-003
3.226325e+003, 1.021510e-002
3.228253e+003, 9.895845e-003
3.230182e+003, 8.195770e-003
3.232110e+003, 9.250898e-003
3.234039e+003, 8.536817e-003
3.235967e+003, 6.657528e-003
3.237896e+003, 8.220846e-003
3.239824e+003, 8.561917e-003
3.241752e+003, 7.217244e-003
3.243681e+003, 7.264857e-003
3.245609e+003, 8.955621e-003
3.247538e+003, 8.314274e-003
3.249466e+003, 7.496445e-003
3.251395e+003, 7.996587e-003
3.253323e+003, 7.354609e-003
3.255252e+003, 6.293577e-003
3.257180e+003, 8.265682e-003
3.259109e+003, 1.018359e-002
3.261037e+003, 1.065581e-002
3.262966e+003, 9.551991e-003
3.264894e+003, 7.725960e-003
3.266823e+003, 7.814002e-003
3.268751e+003, 8.377953e-003
3.270679e+003, 7.507470e-003
3.272608e+003, 8.163922e-003
3.274536e+003, 9.675328e-003
3.276465e+003, 9.274038e-003
3.278393e+003, 9.322684e-003
3.280322e+003, 9.086953e-003
3.282250e+003, 7.080161e-003
3.284179e+003, 7.730238e-003
3.286107e+003, 9.038219e-003
3.288036e+003, 1.024336e-002
3.289964e+003, 1.169466e-002
3.291893e+003, 1.042061e-002
3.293821e+003, 8.686827e-003
3.295750e+003, 1.002456e-002
3.297678e+003, 1.046633e-002
3.299606e+003, 9.860474e-003
3.301535e+003, 8.381102e-003
3.303463e+003, 7.834619e-003
3.305392e+003, 7.937755e-003
3.307320e+003, 8.308711e-003
3.309249e+003, 9.660546e-003
3.311177e+003, 9.364781e-003
3.313106e+003, 9.273116e-003
3.315034e+003, 9.591737e-003
3.316963e+003, 9.881797e-003
3.318891e+003, 9.917107e-003
3.320820e+003, 8.047607e-003
3.322748e+003, 7.852902e-003
3.324677e+003, 9.363488e-003
3.326605e+003, 9.312118e-003
3.328533e+003, 8.966574e-003
3.330462e+003, 9.674257e-003
3.332390e+003, 8.905972e-003
3.334319e+003, 5.862955e-003
3.336247e+003, 7.226524e-003
3.338176e+003, 9.198238e-003
3.340104e+003, 6.992428e-003
3.342033e+003, 7.679046e-003
3.343961e+003, 9.966805e-003
3.345890e+003, 8.419322e-003
3.347818e+003, 7.088275e-003
3.349747e+003, 8.112798e-003
3.351675e+003, 9.471606e-003
3.353604e+003, 9.999236e-003
3.355532e+003, 9.995135e-003
3.357460e+003, 9.980381e-003
3.359389e+003, 9.864181e-003
3.361317e+003, 9.392587e-003
3.363246e+003, 8.096858e-003
3.365174e+003, 7.834900e-003
3.367103e+003, 6.544453e-003
3.369031e+003, 6.739957e-003
3.370960e+003, 8.925103e-003
3.372888e+003, 9.154545e-003
3.374817e+003, 9.096880e-003
3.376745e+003, 1.055319e-002
3.378674e+003, 1.213754e-002
3.380602e+003, 1.175679e-002
3.382531e+003, 1.039202e-002
3.384459e+003, 9.909569e-003
3.386387e+003, 1.102641e-002
3.388316e+003, 1.133236e-002
3.390244e+003, 1.067933e-002
3.392173e+003, 9.800786e-003
3.394101e+003, 1.009247e-002
3.396030e+003, 9.895077e-003
3.397958e+003, 8.473907e-003
3.399887e+003, 9.780888e-003
3.401815e+003, 9.918968e-003
3.403744e+003, 1.101838e-002
3.405672e+003, 1.193282e-002
3.407601e+003, 1.090518e-002
3.409529e+003, 1.120546e-002
3.411458e+003, 1.285905e-002
3.413386e+003, 1.179214e-002
3.415314e+003, 9.802602e-003
3.417243e+003, 8.602968e-003
3.419171e+003, 8.946521e-003
3.421100e+003, 1.014422e-002
3.423028e+003, 8.230061e-003
3.424957e+003, 8.429158e-003
3.426885e+003, 1.146055e-002
3.428814e+003, 1.158687e-002
3.430742e+003, 1.056086e-002
3.432671e+003, 9.833184e-003
3.434599e+003, 9.362119e-003
3.436528e+003, 9.816724e-003
3.438456e+003, 1.066951e-002
3.440385e+003, 9.302297e-003
3.442313e+003, 8.742603e-003
3.444241e+003, 8.323639e-003
3.446170e+003, 8.329447e-003
3.448098e+003, 1.044929e-002
3.450027e+003, 1.142701e-002
3.451955e+003, 1.028074e-002
3.453884e+003, 9.404897e-003
3.455812e+003, 1.207052e-002
3.457741e+003, 1.253468e-002
3.459669e+003, 9.702948e-003
3.461598e+003, 9.276442e-003
3.463526e+003, 1.076661e-002
3.465455e+003, 1.034719e-002
3.467383e+003, 8.398280e-003
3.469312e+003, 8.241012e-003
3.471240e+003, 9.608761e-003
3.473168e+003, 1.033824e-002
3.475097e+003, 1.230248e-002
3.477025e+003, 1.442659e-002
3.478954e+003, 1.244188e-002
3.480882e+003, 1.032729e-002
3.482811e+003, 9.288703e-003
3.484739e+003, 1.067359e-002
3.486668e+003, 1.158202e-002
3.488596e+003, 1.184085e-002
3.490525e+003, 1.223036e-002
3.492453e+003, 1.253321e-002
3.494382e+003, 1.165221e-002
3.496310e+003, 1.042030e-002
3.498239e+003, 1.114503e-002
3.500167e+003, 8.978666e-003
3.502095e+003, 6.912320e-003
3.504024e+003, 1.005570e-002
3.505952e+003, 1.365530e-002
3.507881e+003, 1.119776e-002
3.509809e+003, 1.150280e-002
3.511738e+003, 1.330711e-002
3.513666e+003, 1.074085e-002
3.515595e+003, 1.052082e-002
3.517523e+003, 1.002275e-002
3.519452e+003, 9.948432e-003
3.521380e+003, 1.229907e-002
3.523309e+003, 1.144801e-002
3.525237e+003, 1.008894e-002
3.527166e+003, 1.239786e-002
3.529094e+003, 1.167252e-002
3.531022e+003, 1.121907e-002
3.532951e+003, 1.217865e-002
3.534879e+003, 1.201872e-002
3.536808e+003, 1.305968e-002
3.538736e+003, 1.222164e-002
3.540665e+003, 1.151929e-002
3.542593e+003, 1.317113e-002
3.544522e+003, 1.247129e-002
3.546450e+003, 1.166456e-002
3.548379e+003, 1.212091e-002
3.550307e+003, 1.316220e-002
3.552236e+003, 1.184928e-002
3.554164e+003, 1.101574e-002
3.556093e+003, 1.169711e-002
3.558021e+003, 1.124951e-002
3.559949e+003, 1.073753e-002
3.561878e+003, 1.200002e-002
3.563806e+003, 1.403327e-002
3.565735e+003, 1.514372e-002
3.567663e+003, 1.563282e-002
3.569592e+003, 1.401607e-002
3.571520e+003, 1.442301e-002
3.573449e+003, 1.681193e-002
3.575377e+003, 1.377761e-002
3.577306e+003, 1.142213e-002
3.579234e+003, 1.359267e-002
3.581163e+003, 1.731610e-002
3.583091e+003, 1.600818e-002
3.585020e+003, 1.102632e-002
3.586948e+003, 1.208017e-002
3.588876e+003, 1.343316e-002
3.590805e+003, 1.181561e-002
3.592733e+003, 1.312572e-002
3.594662e+003, 1.626314e-002
3.596590e+003, 1.564449e-002
3.598519e+003, 1.229398e-002
3.600447e+003, 1.376108e-002
3.602376e+003, 1.437221e-002
3.604304e+003, 1.355608e-002
3.606233e+003, 1.444115e-002
3.608161e+003, 1.208017e-002
3.610090e+003, 9.711324e-003
3.612018e+003, 1.136948e-002
3.613947e+003, 1.545380e-002
3.615875e+003, 1.631964e-002
3.617803e+003, 1.238814e-002
3.619732e+003, 9.061350e-003
3.621660e+003, 9.027676e-003
3.623589e+003, 1.006975e-002
3.625517e+003, 1.184183e-002
3.627446e+003, 1.402446e-002
3.629374e+003, 1.218148e-002
3.631303e+003, 1.308731e-002
3.633231e+003, 1.358595e-002
3.635160e+003, 9.079739e-003
3.637088e+003, 7.163753e-003
3.639017e+003, 1.123392e-002
3.640945e+003, 1.377591e-002
3.642874e+003, 1.396038e-002
3.644802e+003, 1.278505e-002
3.646730e+003, 1.336845e-002
3.648659e+003, 1.280516e-002
3.650587e+003, 1.090057e-002
3.652516e+003, 9.937245e-003
3.654444e+003, 1.206040e-002
3.656373e+003, 1.349738e-002
3.658301e+003, 1.292026e-002
3.660230e+003, 1.254515e-002
3.662158e+003, 1.127151e-002
3.664087e+003, 1.097022e-002
3.666015e+003, 1.463224e-002
3.667944e+003, 1.647520e-002
3.669872e+003, 1.573298e-002
3.671801e+003, 1.265912e-002
3.673729e+003, 1.035745e-002
3.675657e+003, 1.075152e-002
3.677586e+003, 1.099431e-002
3.679514e+003, 1.082638e-002
3.681443e+003, 1.150520e-002
3.683371e+003, 9.937191e-003
3.685300e+003, 7.800242e-003
3.687228e+003, 8.479332e-003
3.689157e+003, 9.780734e-003
3.691085e+003, 8.868530e-003
3.693014e+003, 6.619241e-003
3.694942e+003, 6.847438e-003
3.696871e+003, 7.269691e-003
3.698799e+003, 7.542013e-003
3.700728e+003, 6.901015e-003
3.702656e+003, 5.200631e-003
3.704584e+003, 3.751002e-003
3.706513e+003, 5.296240e-003
3.708441e+003, 1.076775e-002
3.710370e+003, 1.158186e-002
3.712298e+003, 7.389241e-003
3.714227e+003, 4.905902e-003
3.716155e+003, 2.175101e-003
3.718084e+003, 1.211956e-003
3.720012e+003, 5.962428e-003
3.721941e+003, 1.115398e-002
3.723869e+003, 1.006681e-002
3.725798e+003, 6.681721e-003
3.727726e+003, 5.528061e-003
3.729655e+003, 6.956197e-003
3.731583e+003, 7.168794e-003
3.733511e+003, 7.641006e-003
3.735440e+003, 6.836848e-003
3.737368e+003, 5.732486e-003
3.739297e+003, 8.564818e-003
3.741225e+003, 8.683389e-003
3.743154e+003, 3.768548e-003
3.745082e+003, 3.176570e-003
3.747011e+003, 6.254822e-003
3.748939e+003, 5.106881e-003
3.750868e+003, 4.262957e-003
3.752796e+003, 4.607656e-003
3.754725e+003, 6.272693e-003
3.756653e+003, 5.055333e-003
3.758582e+003, 3.390302e-003
3.760510e+003, 6.303498e-003
3.762438e+003, 8.163337e-003
3.764367e+003, 5.427588e-003
3.766295e+003, 4.196162e-003
3.768224e+003, 5.232226e-003
3.770152e+003, 5.995274e-003
3.772081e+003, 7.994096e-003
3.774009e+003, 9.145733e-003
3.775938e+003, 1.084899e-002
3.777866e+003, 9.154953e-003
3.779795e+003, 8.338951e-003
3.781723e+003, 6.131392e-003
3.783652e+003, 5.002379e-003
3.785580e+003, 6.381155e-003
3.787509e+003, 5.524667e-003
3.789437e+003, 6.316820e-003
3.791365e+003, 7.817471e-003
3.793294e+003, 9.021342e-003
3.795222e+003, 9.705693e-003
3.797151e+003, 8.079339e-003
3.799079e+003, 6.911357e-003
3.801008e+003, 6.252036e-003
3.802936e+003, 5.357410e-003
3.804865e+003, 8.622993e-003
3.806793e+003, 7.851563e-003
3.808722e+003, 5.671854e-003
3.810650e+003, 6.689111e-003
3.812579e+003, 7.669689e-003
3.814507e+003, 8.145481e-003
3.816436e+003, 8.842823e-003
3.818364e+003, 8.821980e-003
3.820292e+003, 6.293031e-003
3.822221e+003, 3.969130e-003
3.824149e+003, 6.703011e-003
3.826078e+003, 8.041777e-003
3.828006e+003, 6.717158e-003
3.829935e+003, 6.467769e-003
3.831863e+003, 8.776075e-003
3.833792e+003, 8.894532e-003
3.835720e+003, 8.257195e-003
3.837649e+003, 8.694223e-003
3.839577e+003, 6.649326e-003
3.841506e+003, 7.804608e-003
3.843434e+003, 9.270945e-003
3.845363e+003, 7.679447e-003
3.847291e+003, 6.896019e-003
3.849219e+003, 5.449099e-003
3.851148e+003, 5.629275e-003
3.853076e+003, 5.481969e-003
3.855005e+003, 4.113546e-003
3.856933e+003, 3.464930e-003
3.858862e+003, 5.092582e-003
3.860790e+003, 5.233967e-003
3.862719e+003, 3.251471e-003
3.864647e+003, 4.896136e-003
3.866576e+003, 5.906368e-003
3.868504e+003, 4.944731e-003
3.870433e+003, 6.323490e-003
3.872361e+003, 6.740367e-003
3.874290e+003, 5.775936e-003
3.876218e+003, 6.435178e-003
3.878146e+003, 7.925914e-003
3.880075e+003, 5.918990e-003
3.882003e+003, 3.935930e-003
3.883932e+003, 4.930893e-003
3.885860e+003, 5.849517e-003
3.887789e+003, 6.504820e-003
3.889717e+003, 8.430944e-003
3.891646e+003, 1.121857e-002
3.893574e+003, 1.097947e-002
3.895503e+003, 1.145644e-002
3.897431e+003, 1.237883e-002
3.899360e+003, 9.224226e-003
3.901288e+003, 8.183490e-003
3.903217e+003, 6.925098e-003
3.905145e+003, 7.912061e-003
3.907073e+003, 6.418310e-003
3.909002e+003, 6.489345e-003
3.910930e+003, 8.985691e-003
3.912859e+003, 8.587951e-003
3.914787e+003, 8.394163e-003
3.916716e+003, 8.999114e-003
3.918644e+003, 9.323241e-003
3.920573e+003, 8.376542e-003
3.922501e+003, 7.873713e-003
3.924430e+003, 6.920301e-003
3.926358e+003, 3.024553e-003
3.928287e+003, 3.370828e-003
3.930215e+003, 5.622943e-003
3.932144e+003, 8.644027e-003
3.934072e+003, 9.186683e-003
3.936000e+003, 7.757088e-003
3.937929e+003, 8.307287e-003
3.939857e+003, 9.827538e-003
3.941786e+003, 8.931853e-003
3.943714e+003, 6.745576e-003
3.945643e+003, 8.595259e-003
3.947571e+003, 9.628417e-003
3.949500e+003, 7.939083e-003
3.951428e+003, 6.266586e-003
3.953357e+003, 6.914888e-003
3.955285e+003, 1.028523e-002
3.957214e+003, 1.040131e-002
3.959142e+003, 6.854279e-003
3.961071e+003, 5.021586e-003
3.962999e+003, 4.925263e-003
3.964927e+003, 4.365045e-003
3.966856e+003, 4.152130e-003
3.968784e+003, 7.324414e-003
3.970713e+003, 1.027981e-002
3.972641e+003, 1.174810e-002
3.974570e+003, 1.248415e-002
3.976498e+003, 9.661078e-003
3.978427e+003, 6.574560e-003
3.980355e+003, 7.812044e-003
3.982284e+003, 1.098541e-002
3.984212e+003, 1.159452e-002
3.986141e+003, 8.542249e-003
3.988069e+003, 4.231293e-003
3.989998e+003, 5.759011e-003
3.991926e+003, 8.203235e-003
3.993854e+003, 9.789879e-003
3.995783e+003, 9.421173e-003
3.997711e+003, 7.615396e-003
3.999640e+003, 7.619070e-003
4.001568e+003, 0.000000e+000
##END=



