##NAMES=Pollucite
##RRUFFID=R050345
##IDEAL CHEMISTRY=Cs(Si_2_Al)O_6_&#183;nH_2_O
##LOCALITY=Bernic Lake, Manitoba, Canada
##OWNER=RRUFF
##SOURCE=California Institute of Technology
##DESCRIPTION=Colorless to white fragment
##STATUS=The identification of this mineral has been confirmed by X-ray diffraction and chemical analysis
##URL=rruff.info/R050345
##MEASURED CHEMISTRY=(Cs_0.79_Na_0.19_Rb_0.02_)_Σ=1_(Si_2.10_Al_0.90_)_Σ=3_O_6_·H_2_O
3.991926e+002, 1.898262e-001
4.011211e+002, 1.881498e-001
4.030495e+002, 1.847360e-001
4.049780e+002, 1.818805e-001
4.069065e+002, 1.817036e-001
4.088349e+002, 1.871654e-001
4.107634e+002, 1.918899e-001
4.126919e+002, 1.970780e-001
4.146203e+002, 2.024202e-001
4.165488e+002, 2.036956e-001
4.184773e+002, 2.036617e-001
4.204057e+002, 2.051405e-001
4.223342e+002, 2.079693e-001
4.242627e+002, 2.091663e-001
4.261911e+002, 2.084130e-001
4.281196e+002, 2.077398e-001
4.300481e+002, 2.087466e-001
4.319765e+002, 2.111421e-001
4.339050e+002, 2.123762e-001
4.358335e+002, 2.107579e-001
4.377619e+002, 2.081159e-001
4.396904e+002, 2.055147e-001
4.416189e+002, 1.968703e-001
4.435473e+002, 1.862137e-001
4.454758e+002, 1.756623e-001
4.474043e+002, 1.654240e-001
4.493327e+002, 1.548472e-001
4.512612e+002, 1.448937e-001
4.531897e+002, 1.360047e-001
4.551181e+002, 1.296885e-001
4.570466e+002, 1.246549e-001
4.589751e+002, 1.190788e-001
4.609035e+002, 1.136517e-001
4.628320e+002, 1.093962e-001
4.647605e+002, 1.043002e-001
4.666889e+002, 9.926295e-002
4.686174e+002, 9.421147e-002
4.705459e+002, 8.953850e-002
4.724743e+002, 8.539696e-002
4.744028e+002, 8.140854e-002
4.763313e+002, 7.752100e-002
4.782597e+002, 7.352843e-002
4.801882e+002, 6.999791e-002
4.821167e+002, 6.670116e-002
4.840451e+002, 6.389761e-002
4.859736e+002, 6.139132e-002
4.879021e+002, 5.847152e-002
4.898305e+002, 5.574388e-002
4.917590e+002, 5.332560e-002
4.936875e+002, 5.094459e-002
4.956159e+002, 4.816124e-002
4.975444e+002, 4.609660e-002
4.994729e+002, 4.430655e-002
5.014013e+002, 4.293073e-002
5.033298e+002, 4.175787e-002
5.052583e+002, 4.103542e-002
5.071867e+002, 4.119305e-002
5.091152e+002, 4.106381e-002
5.110437e+002, 4.120934e-002
5.129721e+002, 4.209733e-002
5.149006e+002, 4.301755e-002
5.168290e+002, 4.390047e-002
5.187575e+002, 4.399738e-002
5.206860e+002, 4.403847e-002
5.226144e+002, 4.435658e-002
5.245429e+002, 4.533692e-002
5.264714e+002, 4.579298e-002
5.283998e+002, 4.597534e-002
5.303283e+002, 4.626717e-002
5.322568e+002, 4.596336e-002
5.341852e+002, 4.584337e-002
5.361137e+002, 4.544763e-002
5.380422e+002, 4.426095e-002
5.399706e+002, 4.269715e-002
5.418991e+002, 4.137229e-002
5.438276e+002, 4.024342e-002
5.457560e+002, 3.864963e-002
5.476845e+002, 3.715166e-002
5.496130e+002, 3.597350e-002
5.515414e+002, 3.528243e-002
5.534699e+002, 3.481882e-002
5.553984e+002, 3.419202e-002
5.573268e+002, 3.391839e-002
5.592553e+002, 3.383487e-002
5.611838e+002, 3.335150e-002
5.631122e+002, 3.309187e-002
5.650407e+002, 3.380661e-002
5.669692e+002, 3.468117e-002
5.688976e+002, 3.522233e-002
5.708261e+002, 3.602940e-002
5.727546e+002, 3.714086e-002
5.746830e+002, 3.884474e-002
5.766115e+002, 4.010176e-002
5.785400e+002, 4.158977e-002
5.804684e+002, 4.310196e-002
5.823969e+002, 4.448969e-002
5.843254e+002, 4.553836e-002
5.862538e+002, 4.697018e-002
5.881823e+002, 4.810775e-002
5.901108e+002, 4.876081e-002
5.920392e+002, 4.924948e-002
5.939677e+002, 4.912827e-002
5.958962e+002, 4.865512e-002
5.978246e+002, 4.785795e-002
5.997531e+002, 4.714896e-002
6.016816e+002, 4.681239e-002
6.036100e+002, 4.662035e-002
6.055385e+002, 4.675364e-002
6.074670e+002, 4.715063e-002
6.093954e+002, 4.720654e-002
6.113239e+002, 4.711213e-002
6.132524e+002, 4.700067e-002
6.151808e+002, 4.696718e-002
6.171093e+002, 4.710379e-002
6.190378e+002, 4.748119e-002
6.209662e+002, 4.746780e-002
6.228947e+002, 4.726423e-002
6.248232e+002, 4.683373e-002
6.267516e+002, 4.601489e-002
6.286801e+002, 4.489730e-002
6.306086e+002, 4.360482e-002
6.325370e+002, 4.203527e-002
6.344655e+002, 4.085213e-002
6.363940e+002, 4.023355e-002
6.383224e+002, 3.980248e-002
6.402509e+002, 3.985325e-002
6.421794e+002, 4.049039e-002
6.441078e+002, 4.134277e-002
6.460363e+002, 4.229419e-002
6.479648e+002, 4.317174e-002
6.498932e+002, 4.338307e-002
6.518217e+002, 4.303572e-002
6.537502e+002, 4.231173e-002
6.556786e+002, 4.151145e-002
6.576071e+002, 4.092092e-002
6.595356e+002, 4.068180e-002
6.614641e+002, 4.095500e-002
6.633925e+002, 4.148057e-002
6.653210e+002, 4.217593e-002
6.672495e+002, 4.305142e-002
6.691779e+002, 4.369766e-002
6.711064e+002, 4.416393e-002
6.730349e+002, 4.510452e-002
6.749633e+002, 4.659939e-002
6.768918e+002, 4.829989e-002
6.788203e+002, 5.022245e-002
6.807487e+002, 5.290920e-002
6.826772e+002, 5.602850e-002
6.846057e+002, 5.950163e-002
6.865341e+002, 6.350132e-002
6.884626e+002, 6.776351e-002
6.903911e+002, 7.221537e-002
6.923195e+002, 7.637733e-002
6.942480e+002, 7.943363e-002
6.961765e+002, 8.105750e-002
6.981049e+002, 8.140634e-002
7.000334e+002, 8.168309e-002
7.019619e+002, 8.227827e-002
7.038903e+002, 8.370713e-002
7.058188e+002, 8.566666e-002
7.077473e+002, 8.784997e-002
7.096757e+002, 9.028547e-002
7.116042e+002, 9.316146e-002
7.135327e+002, 9.595156e-002
7.154611e+002, 9.852474e-002
7.173896e+002, 1.009426e-001
7.193181e+002, 1.030138e-001
7.212465e+002, 1.044420e-001
7.231750e+002, 1.058777e-001
7.251035e+002, 1.073111e-001
7.270319e+002, 1.079561e-001
7.289604e+002, 1.081380e-001
7.308889e+002, 1.081523e-001
7.328173e+002, 1.074397e-001
7.347458e+002, 1.058835e-001
7.366743e+002, 1.034451e-001
7.386027e+002, 1.001858e-001
7.405312e+002, 9.632745e-002
7.424597e+002, 9.217033e-002
7.443881e+002, 8.813290e-002
7.463166e+002, 8.495907e-002
7.482451e+002, 8.280089e-002
7.501735e+002, 8.225791e-002
7.521020e+002, 8.323984e-002
7.540305e+002, 8.512456e-002
7.559589e+002, 8.770296e-002
7.578874e+002, 9.060261e-002
7.598159e+002, 9.324020e-002
7.617443e+002, 9.478202e-002
7.636728e+002, 9.460706e-002
7.656013e+002, 9.281813e-002
7.675297e+002, 9.009431e-002
7.694582e+002, 8.647078e-002
7.713867e+002, 8.230644e-002
7.733151e+002, 7.778738e-002
7.752436e+002, 7.339166e-002
7.771721e+002, 6.905261e-002
7.791005e+002, 6.454489e-002
7.810290e+002, 5.994309e-002
7.829575e+002, 5.550458e-002
7.848859e+002, 5.148625e-002
7.868144e+002, 4.831564e-002
7.887429e+002, 4.614013e-002
7.906713e+002, 4.442517e-002
7.925998e+002, 4.305715e-002
7.945283e+002, 4.220087e-002
7.964567e+002, 4.195045e-002
7.983852e+002, 4.140581e-002
8.003137e+002, 3.969621e-002
8.022421e+002, 3.704883e-002
8.041706e+002, 3.413091e-002
8.060991e+002, 3.119819e-002
8.080275e+002, 2.833091e-002
8.099560e+002, 2.615701e-002
8.118845e+002, 2.479067e-002
8.138129e+002, 2.362047e-002
8.157414e+002, 2.284182e-002
8.176699e+002, 2.239918e-002
8.195983e+002, 2.212355e-002
8.215268e+002, 2.202890e-002
8.234553e+002, 2.207597e-002
8.253837e+002, 2.208277e-002
8.273122e+002, 2.225551e-002
8.292407e+002, 2.238593e-002
8.311691e+002, 2.236235e-002
8.330976e+002, 2.225241e-002
8.350261e+002, 2.242575e-002
8.369545e+002, 2.238740e-002
8.388830e+002, 2.231379e-002
8.408115e+002, 2.235694e-002
8.427399e+002, 2.267896e-002
8.446684e+002, 2.309708e-002
8.465969e+002, 2.342399e-002
8.485253e+002, 2.395008e-002
8.504538e+002, 2.473603e-002
8.523823e+002, 2.545067e-002
8.543107e+002, 2.614209e-002
8.562392e+002, 2.685095e-002
8.581677e+002, 2.792742e-002
8.600961e+002, 2.874872e-002
8.620246e+002, 2.931192e-002
8.639531e+002, 2.972670e-002
8.658815e+002, 3.030048e-002
8.678100e+002, 3.089093e-002
8.697385e+002, 3.152457e-002
8.716669e+002, 3.233540e-002
8.735954e+002, 3.329745e-002
8.755239e+002, 3.437807e-002
8.774523e+002, 3.545453e-002
8.793808e+002, 3.642650e-002
8.813093e+002, 3.770525e-002
8.832377e+002, 3.899990e-002
8.851662e+002, 4.036932e-002
8.870947e+002, 4.188378e-002
8.890231e+002, 4.344970e-002
8.909516e+002, 4.504780e-002
8.928801e+002, 4.669073e-002
8.948085e+002, 4.859323e-002
8.967370e+002, 5.056043e-002
8.986655e+002, 5.261037e-002
9.005939e+002, 5.494434e-002
9.025224e+002, 5.755898e-002
9.044509e+002, 6.012157e-002
9.063793e+002, 6.273871e-002
9.083078e+002, 6.553248e-002
9.102363e+002, 6.843318e-002
9.121647e+002, 7.153600e-002
9.140932e+002, 7.479399e-002
9.160217e+002, 7.816105e-002
9.179501e+002, 8.168207e-002
9.198786e+002, 8.548271e-002
9.218071e+002, 8.942328e-002
9.237355e+002, 9.344090e-002
9.256640e+002, 9.772632e-002
9.275925e+002, 1.024328e-001
9.295209e+002, 1.073583e-001
9.314494e+002, 1.124309e-001
9.333779e+002, 1.175650e-001
9.353063e+002, 1.229411e-001
9.372348e+002, 1.287363e-001
9.391633e+002, 1.348620e-001
9.410917e+002, 1.414042e-001
9.430202e+002, 1.483679e-001
9.449487e+002, 1.556261e-001
9.468771e+002, 1.633921e-001
9.488056e+002, 1.713996e-001
9.507341e+002, 1.798319e-001
9.526625e+002, 1.889037e-001
9.545910e+002, 1.982862e-001
9.565195e+002, 2.078563e-001
9.584479e+002, 2.177084e-001
9.603764e+002, 2.279739e-001
9.623049e+002, 2.385314e-001
9.642333e+002, 2.491902e-001
9.661618e+002, 2.601922e-001
9.680903e+002, 2.711721e-001
9.700187e+002, 2.819224e-001
9.719472e+002, 2.923909e-001
9.738757e+002, 3.026601e-001
9.758041e+002, 3.124890e-001
9.777326e+002, 3.213912e-001
9.796611e+002, 3.288168e-001
9.815895e+002, 3.352210e-001
9.835180e+002, 3.404476e-001
9.854465e+002, 3.443201e-001
9.873749e+002, 3.469934e-001
9.893034e+002, 3.485777e-001
9.912319e+002, 3.491755e-001
9.931603e+002, 3.493705e-001
9.950888e+002, 3.487485e-001
9.970173e+002, 3.473869e-001
9.989457e+002, 3.458829e-001
1.000874e+003, 3.447164e-001
1.002803e+003, 3.435782e-001
1.004731e+003, 3.419204e-001
1.006660e+003, 3.399724e-001
1.008588e+003, 3.378837e-001
1.010517e+003, 3.356222e-001
1.012445e+003, 3.332480e-001
1.014373e+003, 3.303570e-001
1.016302e+003, 3.268936e-001
1.018230e+003, 3.232577e-001
1.020159e+003, 3.196975e-001
1.022087e+003, 3.156466e-001
1.024016e+003, 3.114588e-001
1.025944e+003, 3.071956e-001
1.027873e+003, 3.028542e-001
1.029801e+003, 2.982732e-001
1.031730e+003, 2.933845e-001
1.033658e+003, 2.881014e-001
1.035587e+003, 2.826367e-001
1.037515e+003, 2.768908e-001
1.039443e+003, 2.709873e-001
1.041372e+003, 2.646745e-001
1.043300e+003, 2.583017e-001
1.045229e+003, 2.520658e-001
1.047157e+003, 2.456159e-001
1.049086e+003, 2.392995e-001
1.051014e+003, 2.331788e-001
1.052943e+003, 2.265993e-001
1.054871e+003, 2.199731e-001
1.056800e+003, 2.132784e-001
1.058728e+003, 2.066943e-001
1.060657e+003, 1.999416e-001
1.062585e+003, 1.931776e-001
1.064514e+003, 1.864427e-001
1.066442e+003, 1.801801e-001
1.068370e+003, 1.743337e-001
1.070299e+003, 1.688292e-001
1.072227e+003, 1.637394e-001
1.074156e+003, 1.593364e-001
1.076084e+003, 1.554717e-001
1.078013e+003, 1.520928e-001
1.079941e+003, 1.489043e-001
1.081870e+003, 1.460011e-001
1.083798e+003, 1.435193e-001
1.085727e+003, 1.413478e-001
1.087655e+003, 1.392763e-001
1.089584e+003, 1.371816e-001
1.091512e+003, 1.350551e-001
1.093441e+003, 1.331308e-001
1.095369e+003, 1.309187e-001
1.097297e+003, 1.285018e-001
1.099226e+003, 1.262311e-001
1.101154e+003, 1.240250e-001
1.103083e+003, 1.215950e-001
1.105011e+003, 1.191054e-001
1.106940e+003, 1.166561e-001
1.108868e+003, 1.140954e-001
1.110797e+003, 1.114400e-001
1.112725e+003, 1.087718e-001
1.114654e+003, 1.060763e-001
1.116582e+003, 1.031871e-001
1.118511e+003, 1.003193e-001
1.120439e+003, 9.771295e-002
1.122368e+003, 9.491514e-002
1.124296e+003, 9.216741e-002
1.126224e+003, 8.944568e-002
1.128153e+003, 8.678631e-002
1.130081e+003, 8.412933e-002
1.132010e+003, 8.152525e-002
1.133938e+003, 7.901993e-002
1.135867e+003, 7.669407e-002
1.137795e+003, 7.443012e-002
1.139724e+003, 7.219141e-002
1.141652e+003, 6.975544e-002
1.143581e+003, 6.738193e-002
1.145509e+003, 6.526029e-002
1.147438e+003, 6.315402e-002
1.149366e+003, 6.098188e-002
1.151295e+003, 5.880480e-002
1.153223e+003, 5.674874e-002
1.155151e+003, 5.493583e-002
1.157080e+003, 5.324229e-002
1.159008e+003, 5.172363e-002
1.160937e+003, 5.038298e-002
1.162865e+003, 4.892227e-002
1.164794e+003, 4.704308e-002
1.166722e+003, 4.476566e-002
1.168651e+003, 4.253714e-002
1.170579e+003, 4.044873e-002
1.172508e+003, 3.838656e-002
1.174436e+003, 3.648828e-002
1.176365e+003, 3.466740e-002
1.178293e+003, 3.294906e-002
1.180222e+003, 3.131404e-002
1.182150e+003, 2.967517e-002
1.184078e+003, 2.810398e-002
1.186007e+003, 2.673690e-002
1.187935e+003, 2.546994e-002
1.189864e+003, 2.415421e-002
1.191792e+003, 2.270768e-002
1.193721e+003, 2.140622e-002
1.195649e+003, 2.021880e-002
1.197578e+003, 1.903421e-002
1.199506e+003, 1.786410e-002
1.201435e+003, 1.684070e-002
1.203363e+003, 1.577076e-002
1.205292e+003, 1.479790e-002
1.207220e+003, 1.383011e-002
1.209149e+003, 1.283663e-002
1.211077e+003, 1.196255e-002
1.213005e+003, 1.110073e-002
1.214934e+003, 1.025581e-002
1.216862e+003, 9.443485e-003
1.218791e+003, 8.715878e-003
1.220719e+003, 8.065431e-003
1.222648e+003, 7.501334e-003
1.224576e+003, 7.031876e-003
1.226505e+003, 6.536737e-003
1.228433e+003, 5.991794e-003
1.230362e+003, 5.575414e-003
1.232290e+003, 5.397190e-003
1.234219e+003, 5.196887e-003
1.236147e+003, 4.793331e-003
1.238076e+003, 4.343085e-003
1.240004e+003, 4.032466e-003
1.241932e+003, 3.826908e-003
1.243861e+003, 3.597717e-003
1.245789e+003, 3.315399e-003
1.247718e+003, 3.003834e-003
1.249646e+003, 2.687806e-003
1.251575e+003, 2.547183e-003
1.253503e+003, 2.509156e-003
1.255432e+003, 2.331966e-003
1.257360e+003, 1.962935e-003
1.259289e+003, 1.761454e-003
1.261217e+003, 1.609091e-003
1.263146e+003, 1.464977e-003
1.265074e+003, 1.407187e-003
1.267003e+003, 1.416511e-003
1.268931e+003, 1.320619e-003
1.270859e+003, 1.261956e-003
1.272788e+003, 1.147722e-003
1.274716e+003, 1.121726e-003
1.276645e+003, 1.034921e-003
1.278573e+003, 8.628256e-004
1.280502e+003, 7.789613e-004
1.282430e+003, 9.029294e-004
1.284359e+003, 8.431163e-004
1.286287e+003, 6.239666e-004
1.288216e+003, 6.033916e-004
1.290144e+003, 6.230695e-004
1.292073e+003, 5.056278e-004
1.294001e+003, 4.859476e-004
1.295930e+003, 5.155340e-004
1.297858e+003, 5.149152e-004
1.299786e+003, 4.155522e-004
1.301715e+003, 3.631637e-004
1.303643e+003, 3.067342e-004
1.305572e+003, 3.372537e-004
1.307500e+003, 3.039374e-004
1.309429e+003, 2.242065e-004
1.311357e+003, 2.008440e-004
1.313286e+003, 1.852042e-004
1.315214e+003, 7.742656e-006
1.317143e+003, -8.126751e-005
1.319071e+003, -1.330878e-004
1.321000e+003, -1.979974e-004
1.322928e+003, -1.631036e-004
1.324857e+003, -4.336376e-005
1.326785e+003, -1.022004e-004
1.328714e+003, -1.859200e-004
1.330642e+003, -2.581993e-004
1.332570e+003, -3.343917e-004
1.334499e+003, -3.659016e-004
1.336427e+003, -3.364265e-004
1.338356e+003, -3.088200e-004
1.340284e+003, -3.773854e-004
1.342213e+003, -4.141437e-004
1.344141e+003, -3.876846e-004
1.346070e+003, -4.422508e-004
1.347998e+003, -5.484152e-004
1.349927e+003, -5.658168e-004
1.351855e+003, -6.072998e-004
1.353784e+003, -5.988851e-004
1.355712e+003, -5.566608e-004
1.357641e+003, -5.769486e-004
1.359569e+003, -5.166912e-004
1.361497e+003, -4.039205e-004
1.363426e+003, -4.190647e-004
1.365354e+003, -4.762493e-004
1.367283e+003, -5.319511e-004
1.369211e+003, -5.704904e-004
1.371140e+003, -5.063868e-004
1.373068e+003, -4.138552e-004
1.374997e+003, -3.651197e-004
1.376925e+003, -4.290352e-004
1.378854e+003, -5.280469e-004
1.380782e+003, -6.035985e-004
1.382711e+003, -5.192060e-004
1.384639e+003, -5.095645e-004
1.386568e+003, -4.076627e-004
1.388496e+003, -3.887220e-004
1.390424e+003, -4.241954e-004
1.392353e+003, -4.100158e-004
1.394281e+003, -2.409369e-004
1.396210e+003, -1.243913e-004
1.398138e+003, -3.029726e-005
1.400067e+003, -4.391154e-005
1.401995e+003, -1.571822e-004
1.403924e+003, -2.223941e-004
1.405852e+003, -2.893064e-004
1.407781e+003, -2.904292e-004
1.409709e+003, -1.750184e-004
1.411638e+003, -1.932921e-004
1.413566e+003, -2.246221e-004
1.415495e+003, -1.447347e-004
1.417423e+003, 1.220188e-005
1.419351e+003, 1.849489e-004
1.421280e+003, 8.612452e-005
1.423208e+003, 1.321803e-005
1.425137e+003, 1.641676e-005
1.427065e+003, -1.357759e-004
1.428994e+003, -4.774220e-005
1.430922e+003, -1.493489e-005
1.432851e+003, -9.942366e-005
1.434779e+003, 5.138632e-006
1.436708e+003, 1.594213e-004
1.438636e+003, -6.915360e-005
1.440565e+003, -1.425175e-004
1.442493e+003, -4.820732e-005
1.444422e+003, -7.334005e-006
1.446350e+003, 8.068459e-006
1.448278e+003, -3.982615e-005
1.450207e+003, -2.033817e-004
1.452135e+003, -2.060260e-004
1.454064e+003, -3.898387e-005
1.455992e+003, 3.920476e-004
1.457921e+003, 2.809501e-004
1.459849e+003, -2.107701e-004
1.461778e+003, -3.289939e-004
1.463706e+003, -2.229505e-004
1.465635e+003, -2.835458e-004
1.467563e+003, -4.539203e-004
1.469492e+003, -2.955610e-004
1.471420e+003, -9.134525e-006
1.473349e+003, 7.572825e-005
1.475277e+003, 1.527005e-007
1.477205e+003, -6.491574e-005
1.479134e+003, -1.550717e-004
1.481062e+003, -1.072540e-004
1.482991e+003, -1.282337e-004
1.484919e+003, -1.892128e-004
1.486848e+003, -1.147541e-004
1.488776e+003, -4.433447e-005
1.490705e+003, 9.228688e-006
1.492633e+003, -5.569943e-005
1.494562e+003, 2.221002e-005
1.496490e+003, 1.242334e-004
1.498419e+003, 5.416940e-005
1.500347e+003, -9.484029e-007
1.502276e+003, -3.803679e-005
1.504204e+003, 2.754462e-004
1.506132e+003, 7.149136e-004
1.508061e+003, 3.868073e-004
1.509989e+003, -7.553796e-005
1.511918e+003, -2.664962e-004
1.513846e+003, -4.248036e-004
1.515775e+003, -3.771153e-004
1.517703e+003, -2.737101e-004
1.519632e+003, -1.687657e-004
1.521560e+003, -1.082619e-004
1.523489e+003, -3.949517e-004
1.525417e+003, -4.952050e-004
1.527346e+003, -6.139468e-004
1.529274e+003, -6.508662e-004
1.531203e+003, -6.186418e-004
1.533131e+003, -4.448714e-004
1.535059e+003, -5.584742e-004
1.536988e+003, -4.939418e-004
1.538916e+003, 7.852259e-005
1.540845e+003, 4.482253e-005
1.542773e+003, -2.656137e-004
1.544702e+003, -3.981131e-004
1.546630e+003, -6.107154e-004
1.548559e+003, -5.391553e-004
1.550487e+003, -5.217037e-004
1.552416e+003, -4.303443e-004
1.554344e+003, -2.083477e-004
1.556273e+003, 5.766860e-006
1.558201e+003, 6.493676e-004
1.560130e+003, 6.617520e-004
1.562058e+003, 4.362344e-005
1.563986e+003, -1.710352e-004
1.565915e+003, -1.616958e-004
1.567843e+003, 1.497189e-005
1.569772e+003, 2.683427e-004
1.571700e+003, 2.208580e-004
1.573629e+003, 2.657167e-004
1.575557e+003, 6.802510e-004
1.577486e+003, 5.393238e-004
1.579414e+003, 2.680280e-004
1.581343e+003, 3.572133e-004
1.583271e+003, 3.719348e-004
1.585200e+003, 3.895821e-004
1.587128e+003, 4.942536e-004
1.589057e+003, 5.198775e-004
1.590985e+003, 6.037698e-004
1.592913e+003, 8.905079e-004
1.594842e+003, 9.862601e-004
1.596770e+003, 9.081041e-004
1.598699e+003, 9.991204e-004
1.600627e+003, 1.316785e-003
1.602556e+003, 1.534707e-003
1.604484e+003, 1.764265e-003
1.606413e+003, 2.171199e-003
1.608341e+003, 2.827241e-003
1.610270e+003, 3.669241e-003
1.612198e+003, 4.634695e-003
1.614127e+003, 5.852395e-003
1.616055e+003, 7.223024e-003
1.617984e+003, 8.056561e-003
1.619912e+003, 8.438610e-003
1.621840e+003, 8.764940e-003
1.623769e+003, 8.700538e-003
1.625697e+003, 8.113572e-003
1.627626e+003, 7.240404e-003
1.629554e+003, 6.345504e-003
1.631483e+003, 5.183404e-003
1.633411e+003, 4.341009e-003
1.635340e+003, 3.929337e-003
1.637268e+003, 3.086103e-003
1.639197e+003, 2.245479e-003
1.641125e+003, 1.714256e-003
1.643054e+003, 1.469225e-003
1.644982e+003, 1.591682e-003
1.646911e+003, 1.590289e-003
1.648839e+003, 1.117899e-003
1.650767e+003, 1.246331e-003
1.652696e+003, 1.902628e-003
1.654624e+003, 1.223519e-003
1.656553e+003, 3.905236e-004
1.658481e+003, 2.688461e-004
1.660410e+003, 3.671520e-004
1.662338e+003, 3.845210e-004
1.664267e+003, 2.079128e-004
1.666195e+003, 1.724633e-005
1.668124e+003, 2.215894e-004
1.670052e+003, 1.372450e-004
1.671981e+003, -2.210293e-004
1.673909e+003, -8.695749e-005
1.675838e+003, 6.355276e-005
1.677766e+003, -1.658046e-004
1.679694e+003, -1.542827e-004
1.681623e+003, -1.179581e-004
1.683551e+003, 2.846666e-004
1.685480e+003, 1.697212e-004
1.687408e+003, -3.236257e-004
1.689337e+003, -4.391547e-004
1.691265e+003, -5.536404e-004
1.693194e+003, -4.865756e-004
1.695122e+003, 9.830580e-005
1.697051e+003, 7.786648e-005
1.698979e+003, 9.431308e-005
1.700908e+003, 1.346403e-004
1.702836e+003, -4.489460e-004
1.704765e+003, -5.771011e-004
1.706693e+003, -6.871619e-004
1.708621e+003, -8.703024e-004
1.710550e+003, -1.023742e-003
1.712478e+003, -9.136274e-004
1.714407e+003, -6.759603e-004
1.716335e+003, -3.118941e-004
1.718264e+003, -3.985909e-004
1.720192e+003, -8.356843e-004
1.722121e+003, -1.094689e-003
1.724049e+003, -1.226376e-003
1.725978e+003, -1.242955e-003
1.727906e+003, -1.169372e-003
1.729835e+003, -1.209668e-003
1.731763e+003, -1.077890e-003
1.733692e+003, -7.540350e-004
1.735620e+003, -1.136275e-003
1.737548e+003, -1.775202e-003
1.739477e+003, -1.920523e-003
1.741405e+003, -2.199274e-003
1.743334e+003, -2.382036e-003
1.745262e+003, -2.387226e-003
1.747191e+003, -2.263144e-003
1.749119e+003, -2.117334e-003
1.751048e+003, -1.996153e-003
1.752976e+003, -2.076685e-003
1.754905e+003, -1.908659e-003
1.756833e+003, -1.556847e-003
1.758762e+003, -1.549268e-003
1.760690e+003, -1.276429e-003
1.762619e+003, -8.877620e-004
1.764547e+003, -8.108423e-004
1.766475e+003, -7.986469e-004
1.768404e+003, -8.201369e-004
1.770332e+003, -7.190260e-004
1.772261e+003, -6.046534e-004
1.774189e+003, -8.348426e-004
1.776118e+003, -1.104145e-003
1.778046e+003, -1.046526e-003
1.779975e+003, -1.009980e-003
1.781903e+003, -1.197743e-003
1.783832e+003, -1.215222e-003
1.785760e+003, -1.232380e-003
1.787689e+003, -1.414266e-003
1.789617e+003, -1.484104e-003
1.791546e+003, -1.202167e-003
1.793474e+003, -1.098210e-003
1.795402e+003, -1.332054e-003
1.797331e+003, -1.560978e-003
1.799259e+003, -1.669453e-003
1.801188e+003, -1.734331e-003
1.803116e+003, -1.919958e-003
1.805045e+003, -2.018786e-003
1.806973e+003, -1.965532e-003
1.808902e+003, -1.920228e-003
1.810830e+003, -1.996199e-003
1.812759e+003, -2.266988e-003
1.814687e+003, -2.283692e-003
1.816616e+003, -2.232711e-003
1.818544e+003, -2.222411e-003
1.820473e+003, -2.053633e-003
1.822401e+003, -2.052864e-003
1.824329e+003, -2.138059e-003
1.826258e+003, -2.361408e-003
1.828186e+003, -2.526367e-003
1.830115e+003, -2.328818e-003
1.832043e+003, -2.325528e-003
1.833972e+003, -2.610351e-003
1.835900e+003, -2.810916e-003
1.837829e+003, -2.649112e-003
1.839757e+003, -2.571756e-003
1.841686e+003, -2.572160e-003
1.843614e+003, -2.434130e-003
1.845543e+003, -2.712190e-003
1.847471e+003, -3.104888e-003
1.849400e+003, -3.123455e-003
1.851328e+003, -3.046116e-003
1.853256e+003, -2.855106e-003
1.855185e+003, -2.824100e-003
1.857113e+003, -2.978663e-003
1.859042e+003, -3.091726e-003
1.860970e+003, -2.721139e-003
1.862899e+003, -2.334463e-003
1.864827e+003, -2.617715e-003
1.866756e+003, -2.995680e-003
1.868684e+003, -2.859179e-003
1.870613e+003, -2.706290e-003
1.872541e+003, -2.838250e-003
1.874470e+003, -3.122113e-003
1.876398e+003, -3.428238e-003
1.878327e+003, -3.532811e-003
1.880255e+003, -3.350475e-003
1.882183e+003, -3.290461e-003
1.884112e+003, -3.563199e-003
1.886040e+003, -3.515253e-003
1.887969e+003, -3.737327e-003
1.889897e+003, -3.716503e-003
1.891826e+003, -3.521243e-003
1.893754e+003, -3.488403e-003
1.895683e+003, -3.363327e-003
1.897611e+003, -3.203765e-003
1.899540e+003, -3.077462e-003
1.901468e+003, -3.253844e-003
1.903397e+003, -3.504844e-003
1.905325e+003, -3.897633e-003
1.907254e+003, -4.040322e-003
1.909182e+003, -4.168632e-003
1.911110e+003, -4.128865e-003
1.913039e+003, -3.738855e-003
1.914967e+003, -3.441143e-003
1.916896e+003, -3.859353e-003
1.918824e+003, -4.353214e-003
1.920753e+003, -4.698903e-003
1.922681e+003, -4.447145e-003
1.924610e+003, -4.648287e-003
1.926538e+003, -4.784293e-003
1.928467e+003, -4.587046e-003
1.930395e+003, -4.615545e-003
1.932324e+003, -4.473831e-003
1.934252e+003, -4.795672e-003
1.936181e+003, -5.454585e-003
1.938109e+003, -5.867701e-003
1.940037e+003, -5.563885e-003
1.941966e+003, -5.187850e-003
1.943894e+003, -5.178487e-003
1.945823e+003, -5.619642e-003
1.947751e+003, -5.654558e-003
1.949680e+003, -5.711813e-003
1.951608e+003, -6.272132e-003
1.953537e+003, -6.418628e-003
1.955465e+003, -6.385703e-003
1.957394e+003, -6.274094e-003
1.959322e+003, -5.477482e-003
1.961251e+003, -5.379049e-003
1.963179e+003, -5.337544e-003
1.965108e+003, -5.319789e-003
1.967036e+003, -5.573642e-003
1.968964e+003, -5.619568e-003
1.970893e+003, -5.554626e-003
1.972821e+003, -5.961833e-003
1.974750e+003, -6.096629e-003
1.976678e+003, -5.345199e-003
1.978607e+003, -4.901140e-003
1.980535e+003, -5.622218e-003
1.982464e+003, -5.786731e-003
1.984392e+003, -5.298097e-003
1.986321e+003, -5.750526e-003
1.988249e+003, -6.864458e-003
1.990178e+003, -6.398044e-003
1.992106e+003, -5.140796e-003
1.994035e+003, -5.330427e-003
1.995963e+003, -5.506541e-003
1.997891e+003, -5.258680e-003
1.999820e+003, -5.164708e-003
2.001748e+003, -5.980605e-003
2.003677e+003, -7.184192e-003
2.005605e+003, -7.541740e-003
2.007534e+003, -6.888461e-003
2.009462e+003, -7.159005e-003
2.011391e+003, -7.317820e-003
2.013319e+003, -6.300130e-003
2.015248e+003, -6.324713e-003
2.017176e+003, -6.232353e-003
2.019105e+003, -6.485439e-003
2.021033e+003, -7.127086e-003
2.022962e+003, -7.477595e-003
2.024890e+003, -6.894631e-003
2.026818e+003, -5.954920e-003
2.028747e+003, -5.465649e-003
2.030675e+003, -6.091796e-003
2.032604e+003, -6.223730e-003
2.034532e+003, -5.829300e-003
2.036461e+003, -6.646422e-003
2.038389e+003, -6.573999e-003
2.040318e+003, -5.891276e-003
2.042246e+003, -5.566622e-003
2.044175e+003, -5.696916e-003
2.046103e+003, -6.911064e-003
2.048031e+003, -7.409244e-003
2.049960e+003, -6.449465e-003
2.051888e+003, -5.929512e-003
2.053817e+003, -5.783285e-003
2.055745e+003, -5.764541e-003
2.057674e+003, -6.006431e-003
2.059602e+003, -6.459902e-003
2.061531e+003, -7.016853e-003
2.063459e+003, -7.164237e-003
2.065388e+003, -6.750570e-003
2.067316e+003, -6.907362e-003
2.069245e+003, -7.170621e-003
2.071173e+003, -6.446420e-003
2.073102e+003, -6.176106e-003
2.075030e+003, -6.015129e-003
2.076958e+003, -6.156011e-003
2.078887e+003, -6.411404e-003
2.080815e+003, -6.183611e-003
2.082744e+003, -5.541833e-003
2.084672e+003, -5.664130e-003
2.086601e+003, -6.079649e-003
2.088529e+003, -5.948264e-003
2.090458e+003, -6.489068e-003
2.092386e+003, -6.980802e-003
2.094315e+003, -6.589896e-003
2.096243e+003, -6.243340e-003
2.098172e+003, -5.691354e-003
2.100100e+003, -5.769789e-003
2.102029e+003, -6.227770e-003
2.103957e+003, -5.986729e-003
2.105885e+003, -5.710730e-003
2.107814e+003, -5.484546e-003
2.109742e+003, -5.681376e-003
2.111671e+003, -6.211220e-003
2.113599e+003, -5.953961e-003
2.115528e+003, -5.217511e-003
2.117456e+003, -5.340253e-003
2.119385e+003, -5.900716e-003
2.121313e+003, -6.308219e-003
2.123242e+003, -5.897916e-003
2.125170e+003, -5.886603e-003
2.127099e+003, -6.215651e-003
2.129027e+003, -6.060690e-003
2.130956e+003, -5.567424e-003
2.132884e+003, -5.651960e-003
2.134813e+003, -6.481083e-003
2.136741e+003, -6.404733e-003
2.138669e+003, -5.834175e-003
2.140598e+003, -5.918997e-003
2.142526e+003, -6.435672e-003
2.144455e+003, -6.736987e-003
2.146383e+003, -6.334336e-003
2.148312e+003, -4.981922e-003
2.150240e+003, -4.172832e-003
2.152169e+003, -4.616418e-003
2.154097e+003, -4.647078e-003
2.156026e+003, -4.776426e-003
2.157954e+003, -4.678824e-003
2.159883e+003, -4.676998e-003
2.161811e+003, -4.777022e-003
2.163740e+003, -4.035761e-003
2.165668e+003, -2.912910e-003
2.167596e+003, -3.136296e-003
2.169525e+003, -3.775374e-003
2.171453e+003, -4.792895e-003
2.173382e+003, -4.083506e-003
2.175310e+003, -4.179145e-003
2.177239e+003, -4.407085e-003
2.179167e+003, -3.996067e-003
2.181096e+003, -3.627578e-003
2.183024e+003, -3.985351e-003
2.184953e+003, -4.341838e-003
2.186881e+003, -3.649711e-003
2.188810e+003, -2.782565e-003
2.190738e+003, -2.979568e-003
2.192667e+003, -3.204123e-003
2.194595e+003, -3.089260e-003
2.196523e+003, -2.723208e-003
2.198452e+003, -2.631279e-003
2.200380e+003, -2.043863e-003
2.202309e+003, -2.015347e-003
2.204237e+003, -2.800014e-003
2.206166e+003, -3.212240e-003
2.208094e+003, -3.383811e-003
2.210023e+003, -3.228087e-003
2.211951e+003, -3.166979e-003
2.213880e+003, -3.543110e-003
2.215808e+003, -3.658349e-003
2.217737e+003, -3.108602e-003
2.219665e+003, -3.051958e-003
2.221594e+003, -3.671630e-003
2.223522e+003, -3.139713e-003
2.225450e+003, -3.029249e-003
2.227379e+003, -3.382719e-003
2.229307e+003, -3.471350e-003
2.231236e+003, -3.737559e-003
2.233164e+003, -3.577728e-003
2.235093e+003, -2.971752e-003
2.237021e+003, -2.677129e-003
2.238950e+003, -2.201373e-003
2.240878e+003, -2.324992e-003
2.242807e+003, -2.545422e-003
2.244735e+003, -2.237905e-003
2.246664e+003, -2.685582e-003
2.248592e+003, -3.270213e-003
2.250521e+003, -3.479119e-003
2.252449e+003, -3.528127e-003
2.254377e+003, -3.588601e-003
2.256306e+003, -3.644674e-003
2.258234e+003, -3.543124e-003
2.260163e+003, -3.130004e-003
2.262091e+003, -3.183649e-003
2.264020e+003, -3.310509e-003
2.265948e+003, -3.270221e-003
2.267877e+003, -3.108069e-003
2.269805e+003, -2.880531e-003
2.271734e+003, -2.665010e-003
2.273662e+003, -2.256116e-003
2.275591e+003, -2.279943e-003
2.277519e+003, -2.333083e-003
2.279448e+003, -2.659551e-003
2.281376e+003, -2.969348e-003
2.283304e+003, -2.794508e-003
2.285233e+003, -2.464467e-003
2.287161e+003, -2.653813e-003
2.289090e+003, -3.166869e-003
2.291018e+003, -3.867235e-003
2.292947e+003, -3.835456e-003
2.294875e+003, -3.618162e-003
2.296804e+003, -3.738509e-003
2.298732e+003, -3.822752e-003
2.300661e+003, -3.819969e-003
2.302589e+003, -3.649764e-003
2.304518e+003, -3.417767e-003
2.306446e+003, -3.623929e-003
2.308375e+003, -3.946199e-003
2.310303e+003, -4.006487e-003
2.312231e+003, -3.538298e-003
2.314160e+003, -3.517362e-003
2.316088e+003, -3.517013e-003
2.318017e+003, -3.547809e-003
2.319945e+003, -3.196829e-003
2.321874e+003, -2.864106e-003
2.323802e+003, -2.956136e-003
2.325731e+003, -3.244378e-003
2.327659e+003, -3.317316e-003
2.329588e+003, -3.177068e-003
2.331516e+003, -3.359798e-003
2.333445e+003, -3.352729e-003
2.335373e+003, -3.101133e-003
2.337302e+003, -3.184710e-003
2.339230e+003, -3.265471e-003
2.341158e+003, -3.333165e-003
2.343087e+003, -3.307843e-003
2.345015e+003, -3.291848e-003
2.346944e+003, -3.545164e-003
2.348872e+003, -3.995681e-003
2.350801e+003, -3.665821e-003
2.352729e+003, -3.412041e-003
2.354658e+003, -3.426359e-003
2.356586e+003, -3.280725e-003
2.358515e+003, -2.716304e-003
2.360443e+003, -2.512326e-003
2.362372e+003, -2.774019e-003
2.364300e+003, -2.968972e-003
2.366229e+003, -3.161702e-003
2.368157e+003, -3.008154e-003
2.370085e+003, -3.047727e-003
2.372014e+003, -3.185408e-003
2.373942e+003, -3.411765e-003
2.375871e+003, -3.863707e-003
2.377799e+003, -3.984797e-003
2.379728e+003, -4.153057e-003
2.381656e+003, -4.569783e-003
2.383585e+003, -4.539381e-003
2.385513e+003, -4.280705e-003
2.387442e+003, -4.229730e-003
2.389370e+003, -4.238371e-003
2.391299e+003, -4.307619e-003
2.393227e+003, -4.400784e-003
2.395156e+003, -4.345859e-003
2.397084e+003, -4.575835e-003
2.399012e+003, -4.787120e-003
2.400941e+003, -4.350925e-003
2.402869e+003, -4.467201e-003
2.404798e+003, -4.931834e-003
2.406726e+003, -4.953330e-003
2.408655e+003, -4.768477e-003
2.410583e+003, -4.364170e-003
2.412512e+003, -4.325082e-003
2.414440e+003, -4.424189e-003
2.416369e+003, -4.178719e-003
2.418297e+003, -4.298651e-003
2.420226e+003, -4.756548e-003
2.422154e+003, -4.676468e-003
2.424083e+003, -4.391362e-003
2.426011e+003, -4.366058e-003
2.427939e+003, -4.233501e-003
2.429868e+003, -4.092219e-003
2.431796e+003, -3.988769e-003
2.433725e+003, -4.391741e-003
2.435653e+003, -4.405356e-003
2.437582e+003, -4.198005e-003
2.439510e+003, -4.156962e-003
2.441439e+003, -4.238894e-003
2.443367e+003, -4.636369e-003
2.445296e+003, -4.760463e-003
2.447224e+003, -4.518958e-003
2.449153e+003, -4.348048e-003
2.451081e+003, -4.215596e-003
2.453010e+003, -4.191707e-003
2.454938e+003, -4.018052e-003
2.456866e+003, -4.105700e-003
2.458795e+003, -3.926646e-003
2.460723e+003, -4.031577e-003
2.462652e+003, -4.248558e-003
2.464580e+003, -4.308742e-003
2.466509e+003, -4.573183e-003
2.468437e+003, -4.300498e-003
2.470366e+003, -4.105737e-003
2.472294e+003, -4.249944e-003
2.474223e+003, -4.452058e-003
2.476151e+003, -4.440079e-003
2.478080e+003, -4.500533e-003
2.480008e+003, -4.398058e-003
2.481937e+003, -4.120377e-003
2.483865e+003, -4.242356e-003
2.485793e+003, -4.346393e-003
2.487722e+003, -4.636550e-003
2.489650e+003, -4.595604e-003
2.491579e+003, -4.288896e-003
2.493507e+003, -3.989259e-003
2.495436e+003, -3.971262e-003
2.497364e+003, -4.056924e-003
2.499293e+003, -4.026404e-003
2.501221e+003, -4.132866e-003
2.503150e+003, -4.090849e-003
2.505078e+003, -3.868246e-003
2.507007e+003, -3.590843e-003
2.508935e+003, -3.977649e-003
2.510864e+003, -4.278305e-003
2.512792e+003, -3.835515e-003
2.514720e+003, -3.692547e-003
2.516649e+003, -4.001733e-003
2.518577e+003, -4.265822e-003
2.520506e+003, -4.414975e-003
2.522434e+003, -4.229059e-003
2.524363e+003, -4.101384e-003
2.526291e+003, -4.097433e-003
2.528220e+003, -3.857005e-003
2.530148e+003, -3.994769e-003
2.532077e+003, -4.131370e-003
2.534005e+003, -3.881876e-003
2.535934e+003, -3.723231e-003
2.537862e+003, -3.826272e-003
2.539791e+003, -4.233288e-003
2.541719e+003, -4.280197e-003
2.543647e+003, -4.351109e-003
2.545576e+003, -4.438738e-003
2.547504e+003, -4.281173e-003
2.549433e+003, -3.908909e-003
2.551361e+003, -3.829384e-003
2.553290e+003, -3.921556e-003
2.555218e+003, -4.062091e-003
2.557147e+003, -4.151595e-003
2.559075e+003, -3.929489e-003
2.561004e+003, -4.061625e-003
2.562932e+003, -4.119847e-003
2.564861e+003, -3.916245e-003
2.566789e+003, -4.118904e-003
2.568718e+003, -3.902516e-003
2.570646e+003, -3.724820e-003
2.572574e+003, -4.013511e-003
2.574503e+003, -4.190064e-003
2.576431e+003, -3.945173e-003
2.578360e+003, -4.097243e-003
2.580288e+003, -4.249447e-003
2.582217e+003, -4.108643e-003
2.584145e+003, -4.215183e-003
2.586074e+003, -4.280455e-003
2.588002e+003, -4.161048e-003
2.589931e+003, -3.769255e-003
2.591859e+003, -3.701949e-003
2.593788e+003, -3.753354e-003
2.595716e+003, -3.766073e-003
2.597645e+003, -3.847012e-003
2.599573e+003, -4.035159e-003
2.601501e+003, -4.030164e-003
2.603430e+003, -4.097425e-003
2.605358e+003, -3.986820e-003
2.607287e+003, -3.784016e-003
2.609215e+003, -3.726570e-003
2.611144e+003, -3.668083e-003
2.613072e+003, -3.882877e-003
2.615001e+003, -3.890662e-003
2.616929e+003, -3.655088e-003
2.618858e+003, -3.507434e-003
2.620786e+003, -3.524904e-003
2.622715e+003, -3.945819e-003
2.624643e+003, -4.028356e-003
2.626572e+003, -3.990453e-003
2.628500e+003, -3.992238e-003
2.630428e+003, -3.804951e-003
2.632357e+003, -3.718272e-003
2.634285e+003, -3.825123e-003
2.636214e+003, -3.693837e-003
2.638142e+003, -3.486701e-003
2.640071e+003, -3.554809e-003
2.641999e+003, -4.079986e-003
2.643928e+003, -4.174697e-003
2.645856e+003, -4.030290e-003
2.647785e+003, -3.921305e-003
2.649713e+003, -3.775483e-003
2.651642e+003, -3.739696e-003
2.653570e+003, -3.868233e-003
2.655499e+003, -4.094185e-003
2.657427e+003, -4.135742e-003
2.659355e+003, -4.222303e-003
2.661284e+003, -4.556519e-003
2.663212e+003, -4.291862e-003
2.665141e+003, -3.975569e-003
2.667069e+003, -4.100829e-003
2.668998e+003, -4.319217e-003
2.670926e+003, -4.643107e-003
2.672855e+003, -4.636297e-003
2.674783e+003, -4.462996e-003
2.676712e+003, -4.372986e-003
2.678640e+003, -4.571956e-003
2.680569e+003, -4.682709e-003
2.682497e+003, -4.766357e-003
2.684426e+003, -4.660097e-003
2.686354e+003, -4.408527e-003
2.688282e+003, -4.494634e-003
2.690211e+003, -4.623469e-003
2.692139e+003, -4.506919e-003
2.694068e+003, -4.419960e-003
2.695996e+003, -4.314279e-003
2.697925e+003, -4.492246e-003
2.699853e+003, -4.629271e-003
2.701782e+003, -4.578179e-003
2.703710e+003, -4.553496e-003
2.705639e+003, -4.513694e-003
2.707567e+003, -4.558800e-003
2.709496e+003, -4.395071e-003
2.711424e+003, -4.190516e-003
2.713353e+003, -4.640935e-003
2.715281e+003, -4.899752e-003
2.717209e+003, -4.722901e-003
2.719138e+003, -4.737999e-003
2.721066e+003, -4.849445e-003
2.722995e+003, -4.780811e-003
2.724923e+003, -4.552339e-003
2.726852e+003, -4.529362e-003
2.728780e+003, -4.602611e-003
2.730709e+003, -4.366535e-003
2.732637e+003, -4.288602e-003
2.734566e+003, -4.327263e-003
2.736494e+003, -4.364362e-003
2.738423e+003, -4.420658e-003
2.740351e+003, -4.479829e-003
2.742280e+003, -4.453992e-003
2.744208e+003, -4.327106e-003
2.746136e+003, -4.462126e-003
2.748065e+003, -4.527824e-003
2.749993e+003, -4.383210e-003
2.751922e+003, -4.227180e-003
2.753850e+003, -4.195400e-003
2.755779e+003, -4.323231e-003
2.757707e+003, -4.332604e-003
2.759636e+003, -4.233218e-003
2.761564e+003, -4.475644e-003
2.763493e+003, -4.746370e-003
2.765421e+003, -4.692419e-003
2.767350e+003, -4.384746e-003
2.769278e+003, -4.287942e-003
2.771207e+003, -4.165828e-003
2.773135e+003, -4.022297e-003
2.775063e+003, -4.114504e-003
2.776992e+003, -4.334558e-003
2.778920e+003, -4.201022e-003
2.780849e+003, -3.886749e-003
2.782777e+003, -3.996298e-003
2.784706e+003, -4.299712e-003
2.786634e+003, -4.231467e-003
2.788563e+003, -4.289609e-003
2.790491e+003, -4.213315e-003
2.792420e+003, -4.045804e-003
2.794348e+003, -4.088079e-003
2.796277e+003, -4.515638e-003
2.798205e+003, -4.795165e-003
2.800134e+003, -4.610650e-003
2.802062e+003, -4.416781e-003
2.803990e+003, -4.287245e-003
2.805919e+003, -4.328889e-003
2.807847e+003, -4.645419e-003
2.809776e+003, -4.550365e-003
2.811704e+003, -4.345743e-003
2.813633e+003, -4.162711e-003
2.815561e+003, -4.156797e-003
2.817490e+003, -4.349112e-003
2.819418e+003, -4.610245e-003
2.821347e+003, -4.464651e-003
2.823275e+003, -4.258976e-003
2.825204e+003, -4.223051e-003
2.827132e+003, -4.283793e-003
2.829061e+003, -4.285659e-003
2.830989e+003, -4.404839e-003
2.832917e+003, -4.633375e-003
2.834846e+003, -4.563057e-003
2.836774e+003, -4.627279e-003
2.838703e+003, -4.922801e-003
2.840631e+003, -5.023899e-003
2.842560e+003, -5.123687e-003
2.844488e+003, -5.613034e-003
2.846417e+003, -6.269867e-003
2.848345e+003, -6.906420e-003
2.850274e+003, -7.239524e-003
2.852202e+003, -7.452756e-003
2.854131e+003, -7.298819e-003
2.856059e+003, -6.832135e-003
2.857988e+003, -6.613146e-003
2.859916e+003, -6.488255e-003
2.861844e+003, -6.261870e-003
2.863773e+003, -6.012076e-003
2.865701e+003, -5.612473e-003
2.867630e+003, -5.238944e-003
2.869558e+003, -5.239122e-003
2.871487e+003, -5.297101e-003
2.873415e+003, -5.245925e-003
2.875344e+003, -5.096397e-003
2.877272e+003, -5.135386e-003
2.879201e+003, -5.461594e-003
2.881129e+003, -5.499626e-003
2.883058e+003, -5.367838e-003
2.884986e+003, -5.386449e-003
2.886915e+003, -5.591055e-003
2.888843e+003, -5.841166e-003
2.890771e+003, -5.913005e-003
2.892700e+003, -5.834891e-003
2.894628e+003, -5.780118e-003
2.896557e+003, -5.715342e-003
2.898485e+003, -5.906969e-003
2.900414e+003, -6.085412e-003
2.902342e+003, -6.105517e-003
2.904271e+003, -6.358591e-003
2.906199e+003, -6.501801e-003
2.908128e+003, -6.524679e-003
2.910056e+003, -7.073016e-003
2.911985e+003, -7.880668e-003
2.913913e+003, -8.512611e-003
2.915842e+003, -8.910937e-003
2.917770e+003, -9.275277e-003
2.919698e+003, -9.570315e-003
2.921627e+003, -9.262114e-003
2.923555e+003, -9.042676e-003
2.925484e+003, -9.002617e-003
2.927412e+003, -8.940907e-003
2.929341e+003, -8.422473e-003
2.931269e+003, -7.676762e-003
2.933198e+003, -7.341519e-003
2.935126e+003, -7.241205e-003
2.937055e+003, -7.298095e-003
2.938983e+003, -7.019701e-003
2.940912e+003, -6.672552e-003
2.942840e+003, -6.414795e-003
2.944769e+003, -6.292851e-003
2.946697e+003, -6.310260e-003
2.948625e+003, -6.239885e-003
2.950554e+003, -6.058409e-003
2.952482e+003, -5.813644e-003
2.954411e+003, -5.811169e-003
2.956339e+003, -5.491950e-003
2.958268e+003, -5.306631e-003
2.960196e+003, -5.632161e-003
2.962125e+003, -5.687386e-003
2.964053e+003, -5.540975e-003
2.965982e+003, -5.444425e-003
2.967910e+003, -5.311126e-003
2.969839e+003, -5.079444e-003
2.971767e+003, -5.227163e-003
2.973696e+003, -5.690673e-003
2.975624e+003, -5.643186e-003
2.977552e+003, -5.254844e-003
2.979481e+003, -5.197546e-003
2.981409e+003, -5.419961e-003
2.983338e+003, -5.530437e-003
2.985266e+003, -5.879820e-003
2.987195e+003, -5.930690e-003
2.989123e+003, -5.633363e-003
2.991052e+003, -5.392623e-003
2.992980e+003, -5.454522e-003
2.994909e+003, -5.540111e-003
2.996837e+003, -5.339172e-003
2.998766e+003, -5.017178e-003
3.000694e+003, -5.255478e-003
3.002623e+003, -5.578128e-003
3.004551e+003, -5.271971e-003
3.006479e+003, -4.948586e-003
3.008408e+003, -4.886891e-003
3.010336e+003, -5.160338e-003
3.012265e+003, -5.252973e-003
3.014193e+003, -5.386807e-003
3.016122e+003, -5.513999e-003
3.018050e+003, -5.139253e-003
3.019979e+003, -5.137315e-003
3.021907e+003, -5.093096e-003
3.023836e+003, -5.119859e-003
3.025764e+003, -5.545932e-003
3.027693e+003, -5.389702e-003
3.029621e+003, -4.933555e-003
3.031550e+003, -4.761339e-003
3.033478e+003, -4.876985e-003
3.035406e+003, -5.105876e-003
3.037335e+003, -5.054358e-003
3.039263e+003, -5.241590e-003
3.041192e+003, -5.215684e-003
3.043120e+003, -5.017658e-003
3.045049e+003, -5.145839e-003
3.046977e+003, -5.391994e-003
3.048906e+003, -5.551400e-003
3.050834e+003, -5.156714e-003
3.052763e+003, -4.808960e-003
3.054691e+003, -5.063654e-003
3.056620e+003, -5.116546e-003
3.058548e+003, -5.122371e-003
3.060477e+003, -4.863610e-003
3.062405e+003, -4.450457e-003
3.064333e+003, -4.500487e-003
3.066262e+003, -4.789686e-003
3.068190e+003, -4.953702e-003
3.070119e+003, -5.216189e-003
3.072047e+003, -5.339476e-003
3.073976e+003, -4.989717e-003
3.075904e+003, -4.632414e-003
3.077833e+003, -4.637424e-003
3.079761e+003, -4.565137e-003
3.081690e+003, -4.250650e-003
3.083618e+003, -4.170871e-003
3.085547e+003, -4.229299e-003
3.087475e+003, -4.603239e-003
3.089404e+003, -4.878220e-003
3.091332e+003, -4.987032e-003
3.093260e+003, -4.960488e-003
3.095189e+003, -4.964777e-003
3.097117e+003, -5.003098e-003
3.099046e+003, -4.974368e-003
3.100974e+003, -4.553049e-003
3.102903e+003, -4.537202e-003
3.104831e+003, -4.861769e-003
3.106760e+003, -4.635491e-003
3.108688e+003, -4.389398e-003
3.110617e+003, -4.294993e-003
3.112545e+003, -4.156576e-003
3.114474e+003, -4.567046e-003
3.116402e+003, -4.541029e-003
3.118331e+003, -4.246875e-003
3.120259e+003, -4.329119e-003
3.122188e+003, -4.339395e-003
3.124116e+003, -4.370713e-003
3.126044e+003, -4.467533e-003
3.127973e+003, -4.671867e-003
3.129901e+003, -4.613327e-003
3.131830e+003, -4.293534e-003
3.133758e+003, -4.489875e-003
3.135687e+003, -4.622870e-003
3.137615e+003, -4.311807e-003
3.139544e+003, -4.592814e-003
3.141472e+003, -4.505648e-003
3.143401e+003, -4.244776e-003
3.145329e+003, -4.466006e-003
3.147258e+003, -4.645810e-003
3.149186e+003, -4.524027e-003
3.151115e+003, -4.562858e-003
3.153043e+003, -4.577905e-003
3.154971e+003, -4.254625e-003
3.156900e+003, -4.195671e-003
3.158828e+003, -4.556136e-003
3.160757e+003, -4.504398e-003
3.162685e+003, -4.090297e-003
3.164614e+003, -4.098911e-003
3.166542e+003, -3.914854e-003
3.168471e+003, -3.851433e-003
3.170399e+003, -4.186916e-003
3.172328e+003, -4.179880e-003
3.174256e+003, -4.506347e-003
3.176185e+003, -4.554664e-003
3.178113e+003, -4.375276e-003
3.180042e+003, -4.235573e-003
3.181970e+003, -4.153166e-003
3.183898e+003, -3.793166e-003
3.185827e+003, -3.522958e-003
3.187755e+003, -3.581734e-003
3.189684e+003, -4.055168e-003
3.191612e+003, -4.379647e-003
3.193541e+003, -4.101660e-003
3.195469e+003, -4.091406e-003
3.197398e+003, -3.890915e-003
3.199326e+003, -3.828201e-003
3.201255e+003, -4.092348e-003
3.203183e+003, -4.227137e-003
3.205112e+003, -4.326714e-003
3.207040e+003, -3.968123e-003
3.208969e+003, -3.763387e-003
3.210897e+003, -4.389021e-003
3.212825e+003, -4.621966e-003
3.214754e+003, -4.215906e-003
3.216682e+003, -3.833058e-003
3.218611e+003, -3.937186e-003
3.220539e+003, -4.771447e-003
3.222468e+003, -5.026840e-003
3.224396e+003, -4.635356e-003
3.226325e+003, -4.209596e-003
3.228253e+003, -4.102445e-003
3.230182e+003, -4.533872e-003
3.232110e+003, -4.203660e-003
3.234039e+003, -4.192564e-003
3.235967e+003, -4.396073e-003
3.237896e+003, -4.071790e-003
3.239824e+003, -4.349858e-003
3.241752e+003, -4.660546e-003
3.243681e+003, -4.276504e-003
3.245609e+003, -3.745520e-003
3.247538e+003, -3.910710e-003
3.249466e+003, -4.066291e-003
3.251395e+003, -4.069740e-003
3.253323e+003, -3.994821e-003
3.255252e+003, -4.070176e-003
3.257180e+003, -3.918645e-003
3.259109e+003, -3.633363e-003
3.261037e+003, -3.598401e-003
3.262966e+003, -3.726317e-003
3.264894e+003, -4.272474e-003
3.266823e+003, -4.563477e-003
3.268751e+003, -4.278927e-003
3.270679e+003, -4.321265e-003
3.272608e+003, -4.290695e-003
3.274536e+003, -4.257798e-003
3.276465e+003, -4.278327e-003
3.278393e+003, -4.022711e-003
3.280322e+003, -4.051685e-003
3.282250e+003, -3.988745e-003
3.284179e+003, -3.902053e-003
3.286107e+003, -3.963154e-003
3.288036e+003, -4.083731e-003
3.289964e+003, -4.265516e-003
3.291893e+003, -4.417493e-003
3.293821e+003, -4.225687e-003
3.295750e+003, -4.050642e-003
3.297678e+003, -3.727041e-003
3.299606e+003, -3.439754e-003
3.301535e+003, -3.854371e-003
3.303463e+003, -3.937235e-003
3.305392e+003, -3.726065e-003
3.307320e+003, -3.662058e-003
3.309249e+003, -3.569548e-003
3.311177e+003, -3.550779e-003
3.313106e+003, -3.358426e-003
3.315034e+003, -3.458507e-003
3.316963e+003, -3.612742e-003
3.318891e+003, -3.727667e-003
3.320820e+003, -3.673133e-003
3.322748e+003, -3.729691e-003
3.324677e+003, -3.446213e-003
3.326605e+003, -3.175889e-003
3.328533e+003, -3.457924e-003
3.330462e+003, -3.646564e-003
3.332390e+003, -4.164080e-003
3.334319e+003, -4.131402e-003
3.336247e+003, -3.545579e-003
3.338176e+003, -3.497700e-003
3.340104e+003, -3.400535e-003
3.342033e+003, -3.062478e-003
3.343961e+003, -3.038758e-003
3.345890e+003, -3.569380e-003
3.347818e+003, -3.998542e-003
3.349747e+003, -3.754735e-003
3.351675e+003, -3.385507e-003
3.353604e+003, -3.490727e-003
3.355532e+003, -3.768824e-003
3.357460e+003, -3.516711e-003
3.359389e+003, -3.411087e-003
3.361317e+003, -3.429765e-003
3.363246e+003, -3.516179e-003
3.365174e+003, -3.341714e-003
3.367103e+003, -3.727436e-003
3.369031e+003, -3.856325e-003
3.370960e+003, -3.426179e-003
3.372888e+003, -3.773348e-003
3.374817e+003, -4.421512e-003
3.376745e+003, -4.222865e-003
3.378674e+003, -3.941442e-003
3.380602e+003, -3.801435e-003
3.382531e+003, -3.812040e-003
3.384459e+003, -4.091635e-003
3.386387e+003, -4.160816e-003
3.388316e+003, -4.102113e-003
3.390244e+003, -4.284178e-003
3.392173e+003, -4.464731e-003
3.394101e+003, -4.092707e-003
3.396030e+003, -3.663579e-003
3.397958e+003, -3.507914e-003
3.399887e+003, -3.497145e-003
3.401815e+003, -3.758010e-003
3.403744e+003, -4.060525e-003
3.405672e+003, -4.352392e-003
3.407601e+003, -4.155094e-003
3.409529e+003, -4.004396e-003
3.411458e+003, -3.713031e-003
3.413386e+003, -3.501401e-003
3.415314e+003, -3.864306e-003
3.417243e+003, -4.308495e-003
3.419171e+003, -4.482215e-003
3.421100e+003, -4.198513e-003
3.423028e+003, -3.976081e-003
3.424957e+003, -4.132752e-003
3.426885e+003, -4.305304e-003
3.428814e+003, -4.262127e-003
3.430742e+003, -4.235914e-003
3.432671e+003, -4.324878e-003
3.434599e+003, -4.228426e-003
3.436528e+003, -4.458029e-003
3.438456e+003, -4.350414e-003
3.440385e+003, -4.420872e-003
3.442313e+003, -4.934021e-003
3.444241e+003, -4.557700e-003
3.446170e+003, -3.807878e-003
3.448098e+003, -4.139371e-003
3.450027e+003, -4.825893e-003
3.451955e+003, -5.101904e-003
3.453884e+003, -4.775396e-003
3.455812e+003, -4.043114e-003
3.457741e+003, -3.745023e-003
3.459669e+003, -3.849155e-003
3.461598e+003, -3.837295e-003
3.463526e+003, -3.714598e-003
3.465455e+003, -3.864594e-003
3.467383e+003, -3.960528e-003
3.469312e+003, -4.351272e-003
3.471240e+003, -4.952375e-003
3.473168e+003, -4.804455e-003
3.475097e+003, -4.746357e-003
3.477025e+003, -4.888800e-003
3.478954e+003, -4.764266e-003
3.480882e+003, -4.694066e-003
3.482811e+003, -4.750109e-003
3.484739e+003, -4.350584e-003
3.486668e+003, -3.866851e-003
3.488596e+003, -3.879086e-003
3.490525e+003, -4.543052e-003
3.492453e+003, -4.845790e-003
3.494382e+003, -4.302295e-003
3.496310e+003, -4.014517e-003
3.498239e+003, -4.116659e-003
3.500167e+003, -4.185828e-003
3.502095e+003, -4.188894e-003
3.504024e+003, -3.424594e-003
3.505952e+003, -3.584047e-003
3.507881e+003, -4.168975e-003
3.509809e+003, -4.017297e-003
3.511738e+003, -3.823550e-003
3.513666e+003, -3.512705e-003
3.515595e+003, -3.647410e-003
3.517523e+003, -3.820367e-003
3.519452e+003, -4.057706e-003
3.521380e+003, -4.492435e-003
3.523309e+003, -4.508811e-003
3.525237e+003, -4.547547e-003
3.527166e+003, -4.336840e-003
3.529094e+003, -3.891818e-003
3.531022e+003, -3.227975e-003
3.532951e+003, -3.614650e-003
3.534879e+003, -4.245294e-003
3.536808e+003, -4.412559e-003
3.538736e+003, -4.148429e-003
3.540665e+003, -4.105462e-003
3.542593e+003, -4.461842e-003
3.544522e+003, -4.978076e-003
3.546450e+003, -4.609281e-003
3.548379e+003, -4.276074e-003
3.550307e+003, -3.778654e-003
3.552236e+003, -3.572577e-003
3.554164e+003, -3.707205e-003
3.556093e+003, -4.227320e-003
3.558021e+003, -4.228369e-003
3.559949e+003, -4.117326e-003
3.561878e+003, -4.139498e-003
3.563806e+003, -3.771153e-003
3.565735e+003, -3.218510e-003
3.567663e+003, -3.285297e-003
3.569592e+003, -3.951692e-003
3.571520e+003, -4.509013e-003
3.573449e+003, -4.038847e-003
3.575377e+003, -3.806992e-003
3.577306e+003, -3.943067e-003
3.579234e+003, -3.895677e-003
3.581163e+003, -4.188132e-003
3.583091e+003, -4.470206e-003
3.585020e+003, -4.070260e-003
3.586948e+003, -3.136740e-003
3.588876e+003, -3.199234e-003
3.590805e+003, -3.827791e-003
3.592733e+003, -4.114982e-003
3.594662e+003, -4.485457e-003
3.596590e+003, -4.247156e-003
3.598519e+003, -4.405109e-003
3.600447e+003, -4.841078e-003
3.602376e+003, -5.480422e-003
3.604304e+003, -4.883878e-003
3.606233e+003, -3.569898e-003
3.608161e+003, -3.522727e-003
3.610090e+003, -4.323473e-003
3.612018e+003, -4.404839e-003
3.613947e+003, -4.633393e-003
3.615875e+003, -4.709495e-003
3.617803e+003, -3.542822e-003
3.619732e+003, -3.073574e-003
3.621660e+003, -3.861323e-003
3.623589e+003, -3.913236e-003
3.625517e+003, -3.609060e-003
3.627446e+003, -3.173776e-003
3.629374e+003, -2.909426e-003
3.631303e+003, -4.089568e-003
3.633231e+003, -4.756230e-003
3.635160e+003, -4.737804e-003
3.637088e+003, -4.858587e-003
3.639017e+003, -4.582799e-003
3.640945e+003, -4.259158e-003
3.642874e+003, -4.363057e-003
3.644802e+003, -4.476103e-003
3.646730e+003, -4.408636e-003
3.648659e+003, -3.657965e-003
3.650587e+003, -4.199644e-003
3.652516e+003, -5.285062e-003
3.654444e+003, -5.217798e-003
3.656373e+003, -5.345087e-003
3.658301e+003, -5.685461e-003
3.660230e+003, -5.769228e-003
3.662158e+003, -5.792278e-003
3.664087e+003, -5.158627e-003
3.666015e+003, -5.375556e-003
3.667944e+003, -5.170589e-003
3.669872e+003, -4.501882e-003
3.671801e+003, -5.546921e-003
3.673729e+003, -5.839991e-003
3.675657e+003, -5.759513e-003
3.677586e+003, -7.041628e-003
3.679514e+003, -7.527046e-003
3.681443e+003, -7.892800e-003
3.683371e+003, -8.540977e-003
3.685300e+003, -9.167003e-003
3.687228e+003, -8.404445e-003
3.689157e+003, -8.143805e-003
3.691085e+003, -8.531958e-003
3.693014e+003, -8.611193e-003
3.694942e+003, -8.933784e-003
3.696871e+003, -9.708391e-003
3.698799e+003, -9.260532e-003
3.700728e+003, -8.656828e-003
3.702656e+003, -9.183571e-003
3.704584e+003, -9.416246e-003
3.706513e+003, -9.219378e-003
3.708441e+003, -9.544280e-003
3.710370e+003, -9.590354e-003
3.712298e+003, -9.182438e-003
3.714227e+003, -9.566423e-003
3.716155e+003, -9.387597e-003
3.718084e+003, -9.407090e-003
3.720012e+003, -9.828600e-003
3.721941e+003, -9.890999e-003
3.723869e+003, -9.733538e-003
3.725798e+003, -9.963057e-003
3.727726e+003, -1.066535e-002
3.729655e+003, -1.065559e-002
3.731583e+003, -1.039765e-002
3.733511e+003, -1.023063e-002
3.735440e+003, -9.230956e-003
3.737368e+003, -8.902399e-003
3.739297e+003, -9.383807e-003
3.741225e+003, -9.535690e-003
3.743154e+003, -9.126674e-003
3.745082e+003, -9.267367e-003
3.747011e+003, -9.627902e-003
3.748939e+003, -9.341676e-003
3.750868e+003, -1.003265e-002
3.752796e+003, -1.073096e-002
3.754725e+003, -1.125252e-002
3.756653e+003, -1.073486e-002
3.758582e+003, -1.096071e-002
3.760510e+003, -1.108344e-002
3.762438e+003, -9.880580e-003
3.764367e+003, -9.403201e-003
3.766295e+003, -1.006737e-002
3.768224e+003, -1.015480e-002
3.770152e+003, -1.020149e-002
3.772081e+003, -1.000996e-002
3.774009e+003, -1.002182e-002
3.775938e+003, -1.029116e-002
3.777866e+003, -1.047044e-002
3.779795e+003, -1.022741e-002
3.781723e+003, -1.074609e-002
3.783652e+003, -1.079804e-002
3.785580e+003, -1.092715e-002
3.787509e+003, -1.120385e-002
3.789437e+003, -1.082543e-002
3.791365e+003, -1.049732e-002
3.793294e+003, -1.176043e-002
3.795222e+003, -1.192997e-002
3.797151e+003, -1.109972e-002
3.799079e+003, -1.046056e-002
3.801008e+003, -9.739258e-003
3.802936e+003, -1.039908e-002
3.804865e+003, -1.013373e-002
3.806793e+003, -9.509695e-003
3.808722e+003, -1.115677e-002
3.810650e+003, -1.160508e-002
3.812579e+003, -1.104411e-002
3.814507e+003, -9.881819e-003
3.816436e+003, -9.402165e-003
3.818364e+003, -1.023396e-002
3.820292e+003, -1.005269e-002
3.822221e+003, -9.999985e-003
3.824149e+003, -1.067281e-002
3.826078e+003, -1.103776e-002
3.828006e+003, -1.158000e-002
3.829935e+003, -1.080230e-002
3.831863e+003, -9.645180e-003
3.833792e+003, -9.598007e-003
3.835720e+003, -9.740052e-003
3.837649e+003, -9.671128e-003
3.839577e+003, -1.016679e-002
3.841506e+003, -1.082672e-002
3.843434e+003, -1.123191e-002
3.845363e+003, -1.148445e-002
3.847291e+003, -1.155287e-002
3.849219e+003, -1.076670e-002
3.851148e+003, -9.467347e-003
3.853076e+003, -7.980165e-003
3.855005e+003, -8.657274e-003
3.856933e+003, -1.050444e-002
3.858862e+003, -1.101430e-002
3.860790e+003, -1.099475e-002
3.862719e+003, -1.106902e-002
3.864647e+003, -1.086540e-002
3.866576e+003, -1.090326e-002
3.868504e+003, -1.011271e-002
3.870433e+003, -1.037980e-002
3.872361e+003, -1.181344e-002
3.874290e+003, -1.198871e-002
3.876218e+003, -1.170082e-002
3.878146e+003, -1.168942e-002
3.880075e+003, -1.222229e-002
3.882003e+003, -1.237929e-002
3.883932e+003, -1.200060e-002
3.885860e+003, -1.134918e-002
3.887789e+003, -1.135210e-002
3.889717e+003, -1.124428e-002
3.891646e+003, -1.125254e-002
3.893574e+003, -1.162432e-002
3.895503e+003, -1.194026e-002
3.897431e+003, -1.201398e-002
3.899360e+003, -1.126401e-002
3.901288e+003, -1.081325e-002
3.903217e+003, -1.110165e-002
3.905145e+003, -1.120508e-002
3.907073e+003, -1.141879e-002
3.909002e+003, -1.199502e-002
3.910930e+003, -1.233852e-002
3.912859e+003, -1.165894e-002
3.914787e+003, -1.061955e-002
3.916716e+003, -1.044547e-002
3.918644e+003, -1.113879e-002
3.920573e+003, -1.187261e-002
3.922501e+003, -1.192323e-002
3.924430e+003, -1.187457e-002
3.926358e+003, -1.207972e-002
3.928287e+003, -1.249359e-002
3.930215e+003, -1.231767e-002
3.932144e+003, -1.221180e-002
3.934072e+003, -1.223549e-002
3.936000e+003, -1.198856e-002
3.937929e+003, -1.218343e-002
3.939857e+003, -1.241749e-002
3.941786e+003, -1.200286e-002
3.943714e+003, -1.239702e-002
3.945643e+003, -1.240838e-002
3.947571e+003, -1.231026e-002
3.949500e+003, -1.217775e-002
3.951428e+003, -1.167682e-002
3.953357e+003, -1.165153e-002
3.955285e+003, -1.200366e-002
3.957214e+003, -1.210662e-002
3.959142e+003, -1.169741e-002
3.961071e+003, -1.150270e-002
3.962999e+003, -1.207284e-002
3.964927e+003, -1.255413e-002
3.966856e+003, -1.226764e-002
3.968784e+003, -1.208109e-002
3.970713e+003, -1.270505e-002
3.972641e+003, -1.327961e-002
3.974570e+003, -1.291993e-002
3.976498e+003, -1.252921e-002
3.978427e+003, -1.226799e-002
3.980355e+003, -1.259052e-002
3.982284e+003, -1.275403e-002
3.984212e+003, -1.259294e-002
3.986141e+003, -1.255572e-002
3.988069e+003, -1.288470e-002
3.989998e+003, -1.326394e-002
3.991926e+003, -1.305567e-002
3.993854e+003, -1.296541e-002
3.995783e+003, -1.276043e-002
3.997711e+003, -1.243753e-002
3.999640e+003, -1.222583e-002
4.001568e+003, 0.000000e+000
##END=



