##NAMES=Polydymite
##RRUFFID=R050609
##IDEAL CHEMISTRY=Ni^2+^Ni^3+^_2_S^2-^_4_
##LOCALITY=Dry Nickel mine, Bindura, South Rhodesia, Rhodesia
##OWNER=RRUFF
##SOURCE=University of Arizona Mineral Museum
##DESCRIPTION=Reddish-bronze tarnished metallic fragment associated with green clinochlore and white actinolite
##STATUS=The identification of this mineral has been confirmed by X-ray diffraction.
##URL=rruff.info/R050609
##MEASURED CHEMISTRY=(Ni_0.85_Fe_0.15_)Ni_2.00_S_4.00_
399.1926, 0.2673353
401.1211, 0.2717250
403.0496, 0.2730314
404.9780, 0.2728601
406.9065, 0.2774960
408.8350, 0.2692606
410.7634, 0.2666318
412.6919, 0.2745401
414.6204, 0.2750788
416.5488, 0.2751734
418.4773, 0.2787090
420.4058, 0.2769378
422.3342, 0.2740497
424.2627, 0.2763751
426.1912, 0.2757871
428.1196, 0.2792048
430.0481, 0.2821460
431.9766, 0.2827080
433.9050, 0.2823723
435.8335, 0.2820131
437.7620, 0.2836349
439.6904, 0.2835963
441.6189, 0.2817086
443.5474, 0.2799748
445.4758, 0.2830501
447.4043, 0.2870236
449.3328, 0.2890329
451.2612, 0.2908090
453.1897, 0.2886773
455.1182, 0.2859179
457.0466, 0.2868563
458.9751, 0.2894670
460.9036, 0.2923002
462.8320, 0.2923088
464.7605, 0.2910538
466.6890, 0.2913305
468.6174, 0.2898398
470.5459, 0.2893651
472.4744, 0.2930714
474.4028, 0.2960336
476.3313, 0.2946596
478.2598, 0.2956403
480.1882, 0.2977270
482.1167, 0.2990737
484.0452, 0.2984837
485.9736, 0.2991731
487.9021, 0.2993916
489.8306, 0.2996121
491.7590, 0.3004686
493.6875, 0.3020222
495.6160, 0.3047573
497.5444, 0.3046394
499.4729, 0.3026437
501.4014, 0.3035772
503.3298, 0.3041881
505.2583, 0.3045635
507.1868, 0.3066265
509.1152, 0.3086641
511.0437, 0.3094088
512.9722, 0.3082649
514.9006, 0.3084342
516.8291, 0.3102278
518.7576, 0.3114725
520.6860, 0.3122380
522.6145, 0.3125573
524.5430, 0.3131659
526.4714, 0.3136335
528.3999, 0.3130382
530.3284, 0.3127700
532.2568, 0.3146854
534.1853, 0.3158051
536.1138, 0.3161541
538.0422, 0.3155024
539.9707, 0.3166428
541.8992, 0.3191722
543.8276, 0.3200802
545.7561, 0.3215425
547.6846, 0.3232099
549.6130, 0.3229632
551.5415, 0.3237427
553.4700, 0.3242381
555.3984, 0.3251908
557.3269, 0.3270599
559.2554, 0.3272361
561.1838, 0.3272083
563.1123, 0.3281554
565.0408, 0.3277586
566.9692, 0.3288340
568.8977, 0.3311679
570.8262, 0.3314501
572.7546, 0.3311386
574.6831, 0.3318961
576.6116, 0.3326116
578.5400, 0.3331335
580.4685, 0.3332008
582.3970, 0.3332798
584.3254, 0.3340763
586.2539, 0.3348619
588.1824, 0.3359208
590.1108, 0.3364942
592.0393, 0.3367927
593.9678, 0.3378560
595.8962, 0.3379770
597.8247, 0.3378251
599.7532, 0.3378430
601.6816, 0.3389116
603.6101, 0.3394004
605.5386, 0.3379427
607.4670, 0.3381510
609.3955, 0.3386891
611.3240, 0.3368583
613.2524, 0.3341897
615.1809, 0.3326656
617.1094, 0.3322854
619.0378, 0.3311279
620.9663, 0.3306526
622.8948, 0.3299679
624.8232, 0.3287736
626.7517, 0.3282191
628.6802, 0.3266596
630.6086, 0.3243001
632.5371, 0.3228078
634.4656, 0.3223858
636.3940, 0.3221363
638.3225, 0.3225045
640.2510, 0.3224989
642.1794, 0.3221121
644.1079, 0.3216774
646.0364, 0.3198327
647.9648, 0.3186941
649.8933, 0.3186791
651.8218, 0.3188748
653.7502, 0.3183590
655.6787, 0.3178087
657.6072, 0.3173062
659.5356, 0.3174324
661.4641, 0.3179148
663.3926, 0.3174426
665.3210, 0.3173441
667.2495, 0.3177784
669.1780, 0.3174550
671.1064, 0.3186386
673.0349, 0.3207412
674.9634, 0.3213689
676.8918, 0.3213862
678.8203, 0.3220337
680.7488, 0.3235198
682.6772, 0.3240184
684.6057, 0.3244987
686.5342, 0.3263431
688.4626, 0.3279968
690.3911, 0.3289808
692.3196, 0.3303099
694.2480, 0.3310049
696.1765, 0.3316462
698.1050, 0.3325181
700.0334, 0.3330100
701.9619, 0.3334046
703.8904, 0.3342961
705.8188, 0.3357576
707.7473, 0.3362205
709.6758, 0.3365719
711.6042, 0.3374772
713.5327, 0.3379313
715.4612, 0.3382990
717.3896, 0.3389559
719.3181, 0.3399289
721.2466, 0.3403721
723.1750, 0.3404925
725.1035, 0.3406334
727.0320, 0.3404295
728.9604, 0.3412867
730.8889, 0.3426011
732.8174, 0.3423532
734.7458, 0.3431986
736.6743, 0.3442356
738.6028, 0.3445210
740.5313, 0.3451980
742.4597, 0.3449595
744.3882, 0.3445643
746.3167, 0.3453998
748.2451, 0.3459053
750.1736, 0.3460520
752.1021, 0.3468011
754.0305, 0.3481313
755.9590, 0.3484189
757.8875, 0.3493328
759.8159, 0.3495577
761.7444, 0.3493657
763.6729, 0.3497249
765.6013, 0.3507266
767.5298, 0.3512872
769.4583, 0.3515503
771.3867, 0.3516017
773.3152, 0.3521790
775.2437, 0.3529938
777.1721, 0.3532963
779.1006, 0.3531833
781.0291, 0.3537247
782.9575, 0.3547782
784.8860, 0.3552312
786.8145, 0.3559520
788.7429, 0.3564801
790.6714, 0.3568502
792.5999, 0.3579529
794.5283, 0.3589158
796.4568, 0.3590224
798.3853, 0.3594151
800.3137, 0.3604439
802.2422, 0.3611876
804.1707, 0.3610468
806.0991, 0.3619531
808.0276, 0.3631482
809.9561, 0.3637059
811.8845, 0.3644675
813.8130, 0.3653950
815.7415, 0.3666500
817.6699, 0.3676695
819.5984, 0.3680450
821.5269, 0.3692419
823.4553, 0.3700233
825.3838, 0.3701029
827.3123, 0.3714837
829.2407, 0.3725843
831.1692, 0.3730457
833.0977, 0.3741712
835.0261, 0.3753390
836.9546, 0.3761876
838.8831, 0.3768905
840.8115, 0.3777526
842.7400, 0.3784810
844.6685, 0.3792556
846.5969, 0.3799957
848.5254, 0.3800449
850.4539, 0.3808387
852.3823, 0.3823482
854.3108, 0.3833129
856.2393, 0.3838431
858.1677, 0.3844315
860.0962, 0.3850361
862.0247, 0.3858360
863.9531, 0.3871631
865.8816, 0.3878451
867.8101, 0.3881878
869.7385, 0.3887499
871.6670, 0.3892955
873.5955, 0.3899051
875.5239, 0.3909758
877.4524, 0.3920177
879.3809, 0.3927727
881.3093, 0.3933913
883.2378, 0.3942376
885.1663, 0.3949433
887.0947, 0.3956875
889.0232, 0.3966606
890.9517, 0.3972704
892.8801, 0.3984400
894.8085, 0.4000132
896.7370, 0.4008352
898.6655, 0.4011579
900.5939, 0.4017084
902.5224, 0.4029234
904.4509, 0.4034142
906.3793, 0.4037828
908.3078, 0.4053223
910.2363, 0.4062584
912.1647, 0.4065382
914.0932, 0.4071318
916.0217, 0.4082652
917.9501, 0.4096506
919.8786, 0.4102346
921.8071, 0.4104635
923.7355, 0.4114144
925.6640, 0.4121672
927.5925, 0.4130318
929.5209, 0.4135890
931.4494, 0.4148875
933.3779, 0.4163901
935.3063, 0.4172010
937.2348, 0.4178189
939.1633, 0.4187610
941.0917, 0.4197365
943.0202, 0.4202183
944.9487, 0.4210647
946.8771, 0.4220091
948.8056, 0.4226283
950.7341, 0.4235401
952.6625, 0.4239331
954.5910, 0.4247962
956.5195, 0.4258324
958.4479, 0.4268805
960.3764, 0.4271114
962.3049, 0.4271139
964.2333, 0.4277731
966.1618, 0.4290660
968.0903, 0.4301468
970.0187, 0.4315146
971.9472, 0.4325603
973.8757, 0.4326613
975.8041, 0.4332170
977.7326, 0.4338368
979.6611, 0.4341524
981.5895, 0.4348867
983.5180, 0.4358381
985.4465, 0.4366579
987.3749, 0.4363509
989.3034, 0.4345258
991.2319, 0.4330458
993.1603, 0.4331852
995.0888, 0.4336707
997.0173, 0.4349524
998.9457, 0.4364510
1000.874, 0.4378735
1002.803, 0.4387836
1004.731, 0.4400291
1006.660, 0.4415334
1008.588, 0.4420644
1010.517, 0.4429243
1012.445, 0.4442674
1014.373, 0.4453889
1016.302, 0.4459491
1018.230, 0.4465066
1020.159, 0.4474557
1022.087, 0.4478801
1024.016, 0.4489123
1025.944, 0.4505398
1027.873, 0.4518383
1029.801, 0.4526733
1031.730, 0.4538655
1033.658, 0.4550930
1035.587, 0.4558280
1037.515, 0.4566480
1039.444, 0.4582458
1041.372, 0.4595642
1043.301, 0.4608966
1045.229, 0.4615902
1047.157, 0.4621255
1049.086, 0.4626085
1051.014, 0.4632011
1052.943, 0.4636941
1054.871, 0.4639395
1056.800, 0.4639877
1058.728, 0.4640680
1060.657, 0.4637825
1062.585, 0.4629413
1064.514, 0.4619373
1066.442, 0.4607819
1068.371, 0.4589653
1070.299, 0.4574261
1072.228, 0.4565530
1074.156, 0.4552174
1076.084, 0.4535042
1078.013, 0.4522188
1079.941, 0.4512434
1081.870, 0.4495101
1083.798, 0.4485367
1085.727, 0.4479244
1087.655, 0.4466984
1089.584, 0.4459061
1091.512, 0.4454927
1093.441, 0.4453497
1095.369, 0.4451941
1097.298, 0.4443058
1099.226, 0.4430345
1101.155, 0.4417162
1103.083, 0.4400949
1105.011, 0.4377230
1106.940, 0.4351580
1108.868, 0.4318535
1110.797, 0.4282746
1112.725, 0.4250130
1114.654, 0.4215996
1116.582, 0.4180080
1118.511, 0.4147741
1120.439, 0.4121770
1122.368, 0.4099623
1124.296, 0.4081399
1126.225, 0.4062358
1128.153, 0.4044743
1130.082, 0.4028915
1132.010, 0.4012938
1133.938, 0.4001779
1135.867, 0.3994948
1137.795, 0.3986075
1139.724, 0.3978392
1141.652, 0.3968849
1143.581, 0.3953419
1145.509, 0.3938747
1147.438, 0.3924011
1149.366, 0.3904822
1151.295, 0.3880604
1153.223, 0.3851940
1155.152, 0.3821391
1157.080, 0.3784430
1159.009, 0.3744053
1160.937, 0.3698826
1162.865, 0.3643312
1164.794, 0.3583116
1166.722, 0.3520335
1168.651, 0.3458324
1170.579, 0.3398186
1172.508, 0.3342217
1174.436, 0.3288108
1176.365, 0.3236503
1178.293, 0.3189408
1180.222, 0.3151250
1182.150, 0.3131289
1184.079, 0.3125762
1186.007, 0.3127468
1187.936, 0.3131983
1189.864, 0.3141772
1191.792, 0.3155721
1193.721, 0.3172504
1195.649, 0.3190247
1197.578, 0.3210356
1199.506, 0.3231725
1201.435, 0.3248663
1203.363, 0.3264007
1205.292, 0.3280163
1207.220, 0.3299740
1209.149, 0.3315244
1211.077, 0.3326893
1213.006, 0.3341973
1214.934, 0.3358755
1216.863, 0.3370571
1218.791, 0.3383327
1220.719, 0.3399717
1222.648, 0.3414787
1224.576, 0.3428742
1226.505, 0.3443180
1228.433, 0.3456158
1230.362, 0.3470986
1232.290, 0.3487739
1234.219, 0.3504886
1236.147, 0.3519874
1238.076, 0.3536499
1240.004, 0.3551634
1241.933, 0.3567564
1243.861, 0.3584244
1245.790, 0.3598692
1247.718, 0.3615397
1249.646, 0.3628464
1251.575, 0.3642642
1253.503, 0.3659345
1255.432, 0.3667111
1257.360, 0.3680747
1259.289, 0.3699194
1261.217, 0.3711259
1263.146, 0.3719790
1265.074, 0.3733044
1267.003, 0.3749973
1268.931, 0.3764198
1270.860, 0.3777283
1272.788, 0.3786854
1274.717, 0.3795499
1276.645, 0.3806522
1278.573, 0.3821565
1280.502, 0.3833677
1282.430, 0.3844496
1284.359, 0.3855429
1286.287, 0.3864097
1288.216, 0.3873616
1290.144, 0.3882184
1292.073, 0.3894455
1294.001, 0.3906892
1295.930, 0.3916988
1297.858, 0.3925736
1299.787, 0.3930520
1301.715, 0.3940177
1303.644, 0.3949060
1305.572, 0.3956966
1307.500, 0.3963190
1309.429, 0.3966973
1311.357, 0.3976165
1313.286, 0.3986563
1315.214, 0.3993063
1317.143, 0.4000703
1319.071, 0.4011527
1321.000, 0.4020712
1322.928, 0.4023901
1324.857, 0.4034211
1326.785, 0.4045669
1328.714, 0.4048395
1330.642, 0.4049509
1332.571, 0.4057985
1334.499, 0.4066538
1336.427, 0.4074141
1338.356, 0.4082057
1340.284, 0.4090559
1342.213, 0.4091576
1344.141, 0.4097185
1346.070, 0.4104930
1347.998, 0.4111154
1349.927, 0.4121530
1351.855, 0.4125463
1353.784, 0.4127142
1355.712, 0.4133998
1357.641, 0.4139585
1359.569, 0.4144961
1361.498, 0.4151095
1363.426, 0.4155985
1365.354, 0.4161278
1367.283, 0.4169681
1369.211, 0.4174860
1371.140, 0.4180427
1373.068, 0.4184019
1374.997, 0.4187753
1376.925, 0.4192383
1378.854, 0.4195509
1380.782, 0.4202547
1382.711, 0.4209722
1384.639, 0.4214101
1386.568, 0.4219168
1388.496, 0.4224545
1390.424, 0.4232942
1392.353, 0.4237396
1394.281, 0.4240429
1396.210, 0.4245249
1398.138, 0.4251837
1400.067, 0.4256455
1401.995, 0.4260172
1403.924, 0.4262179
1405.852, 0.4267211
1407.781, 0.4277351
1409.709, 0.4280217
1411.638, 0.4281753
1413.566, 0.4290408
1415.495, 0.4296318
1417.423, 0.4296732
1419.351, 0.4299378
1421.280, 0.4307704
1423.208, 0.4313849
1425.137, 0.4316341
1427.065, 0.4320189
1428.994, 0.4327424
1430.922, 0.4334782
1432.851, 0.4336466
1434.779, 0.4340246
1436.708, 0.4345023
1438.636, 0.4346131
1440.565, 0.4347423
1442.493, 0.4350875
1444.422, 0.4358797
1446.350, 0.4365815
1448.278, 0.4370381
1450.207, 0.4375829
1452.135, 0.4383251
1454.064, 0.4387154
1455.992, 0.4387528
1457.921, 0.4386837
1459.849, 0.4390802
1461.778, 0.4396311
1463.706, 0.4401773
1465.635, 0.4406178
1467.563, 0.4404319
1469.492, 0.4406097
1471.420, 0.4415867
1473.349, 0.4424199
1475.277, 0.4429321
1477.205, 0.4433106
1479.134, 0.4436056
1481.062, 0.4443205
1482.991, 0.4449466
1484.919, 0.4454799
1486.848, 0.4458050
1488.776, 0.4459869
1490.705, 0.4467950
1492.633, 0.4473058
1494.562, 0.4476572
1496.490, 0.4482984
1498.419, 0.4488678
1500.347, 0.4493261
1502.276, 0.4496096
1504.204, 0.4500255
1506.132, 0.4506774
1508.061, 0.4508999
1509.989, 0.4508081
1511.918, 0.4510588
1513.846, 0.4518990
1515.775, 0.4522684
1517.703, 0.4525315
1519.632, 0.4529390
1521.560, 0.4532828
1523.489, 0.4534281
1525.417, 0.4535792
1527.346, 0.4539816
1529.274, 0.4543843
1531.203, 0.4544375
1533.131, 0.4546161
1535.059, 0.4555781
1536.988, 0.4566751
1538.916, 0.4571498
1540.845, 0.4571721
1542.773, 0.4572910
1544.702, 0.4579830
1546.630, 0.4588115
1548.559, 0.4589227
1550.487, 0.4586658
1552.416, 0.4592386
1554.344, 0.4604688
1556.273, 0.4613215
1558.201, 0.4618894
1560.130, 0.4626169
1562.058, 0.4630926
1563.986, 0.4634651
1565.915, 0.4641275
1567.843, 0.4648590
1569.772, 0.4653716
1571.700, 0.4656681
1573.629, 0.4659137
1575.557, 0.4666599
1577.486, 0.4673447
1579.414, 0.4677887
1581.343, 0.4685493
1583.271, 0.4693435
1585.200, 0.4692444
1587.128, 0.4690809
1589.057, 0.4695123
1590.985, 0.4701883
1592.913, 0.4703106
1594.842, 0.4699709
1596.770, 0.4700139
1598.699, 0.4701334
1600.627, 0.4705896
1602.556, 0.4710655
1604.484, 0.4709214
1606.413, 0.4704397
1608.341, 0.4701844
1610.270, 0.4701352
1612.198, 0.4696701
1614.127, 0.4696770
1616.055, 0.4700246
1617.984, 0.4697889
1619.912, 0.4687271
1621.840, 0.4673795
1623.769, 0.4663229
1625.697, 0.4652847
1627.626, 0.4640554
1629.554, 0.4626929
1631.483, 0.4615243
1633.411, 0.4609158
1635.340, 0.4597560
1637.268, 0.4588892
1639.197, 0.4578207
1641.125, 0.4573211
1643.054, 0.4575956
1644.982, 0.4574316
1646.911, 0.4569009
1648.839, 0.4569003
1650.767, 0.4567144
1652.696, 0.4567681
1654.624, 0.4567715
1656.553, 0.4563759
1658.481, 0.4558652
1660.410, 0.4554588
1662.338, 0.4542547
1664.267, 0.4529457
1666.195, 0.4527878
1668.124, 0.4526908
1670.052, 0.4523757
1671.981, 0.4527671
1673.909, 0.4534760
1675.838, 0.4537740
1677.766, 0.4532853
1679.694, 0.4531676
1681.623, 0.4539177
1683.551, 0.4550115
1685.480, 0.4557415
1687.408, 0.4560258
1689.337, 0.4563328
1691.265, 0.4564050
1693.194, 0.4567699
1695.122, 0.4572206
1697.051, 0.4576687
1698.979, 0.4588748
1700.908, 0.4598114
1702.836, 0.4598877
1704.765, 0.4597897
1706.693, 0.4598376
1708.621, 0.4603282
1710.550, 0.4610186
1712.478, 0.4616730
1714.407, 0.4620862
1716.335, 0.4628336
1718.264, 0.4628118
1720.192, 0.4624468
1722.121, 0.4635814
1724.049, 0.4644513
1725.978, 0.4647482
1727.906, 0.4649760
1729.835, 0.4652643
1731.763, 0.4654472
1733.692, 0.4655171
1735.620, 0.4650721
1737.548, 0.4650101
1739.477, 0.4654660
1741.405, 0.4659625
1743.334, 0.4667706
1745.262, 0.4674426
1747.191, 0.4677645
1749.119, 0.4678268
1751.048, 0.4684280
1752.976, 0.4690730
1754.905, 0.4691095
1756.833, 0.4693597
1758.762, 0.4696859
1760.690, 0.4703491
1762.619, 0.4706956
1764.547, 0.4707772
1766.475, 0.4714362
1768.404, 0.4714176
1770.332, 0.4718029
1772.261, 0.4725090
1774.189, 0.4726442
1776.118, 0.4725891
1778.046, 0.4729574
1779.975, 0.4736578
1781.903, 0.4743511
1783.832, 0.4745601
1785.760, 0.4744595
1787.689, 0.4746650
1789.617, 0.4748818
1791.546, 0.4748788
1793.474, 0.4752119
1795.402, 0.4751576
1797.331, 0.4749441
1799.259, 0.4752693
1801.188, 0.4763574
1803.116, 0.4761620
1805.045, 0.4755442
1806.973, 0.4761420
1808.902, 0.4767611
1810.830, 0.4769668
1812.759, 0.4774679
1814.687, 0.4774844
1816.616, 0.4774436
1818.544, 0.4778217
1820.473, 0.4776322
1822.401, 0.4774397
1824.329, 0.4778267
1826.258, 0.4785645
1828.186, 0.4786729
1830.115, 0.4781370
1832.043, 0.4781834
1833.972, 0.4784868
1835.900, 0.4787169
1837.829, 0.4785865
1839.757, 0.4796691
1841.686, 0.4809239
1843.614, 0.4812520
1845.543, 0.4799011
1847.471, 0.4783283
1849.400, 0.4789794
1851.328, 0.4801479
1853.256, 0.4802814
1855.185, 0.4807167
1857.113, 0.4801857
1859.042, 0.4799017
1860.970, 0.4808405
1862.899, 0.4813917
1864.827, 0.4814068
1866.756, 0.4816577
1868.684, 0.4816379
1870.613, 0.4812022
1872.541, 0.4817414
1874.470, 0.4829638
1876.398, 0.4836070
1878.327, 0.4839702
1880.255, 0.4848675
1882.183, 0.4848738
1884.112, 0.4849271
1886.040, 0.4845204
1887.969, 0.4843520
1889.897, 0.4847974
1891.826, 0.4854120
1893.754, 0.4844798
1895.683, 0.4836943
1897.611, 0.4837342
1899.540, 0.4847912
1901.468, 0.4854234
1903.397, 0.4846286
1905.325, 0.4834990
1907.254, 0.4840858
1909.182, 0.4846384
1911.110, 0.4840823
1913.039, 0.4829013
1914.967, 0.4834718
1916.896, 0.4839703
1918.824, 0.4837772
1920.753, 0.4833132
1922.681, 0.4819686
1924.610, 0.4815514
1926.538, 0.4810985
1928.467, 0.4821752
1930.395, 0.4825682
1932.324, 0.4817438
1934.252, 0.4807668
1936.181, 0.4816606
1938.109, 0.4825480
1940.037, 0.4814430
1941.966, 0.4802732
1943.894, 0.4802951
1945.823, 0.4812237
1947.751, 0.4824482
1949.680, 0.4815513
1951.608, 0.4818778
1953.537, 0.4816033
1955.465, 0.4780069
1957.394, 0.4761143
1959.322, 0.4750598
1961.251, 0.4758919
1963.179, 0.4765126
1965.108, 0.4763494
1967.036, 0.4769945
1968.964, 0.4768346
1970.893, 0.4725443
1972.821, 0.4698299
1974.750, 0.4698835
1976.678, 0.4715513
1978.607, 0.4751663
1980.535, 0.4757607
1982.464, 0.4759449
1984.392, 0.4758812
1986.321, 0.4753872
1988.249, 0.4752316
1990.178, 0.4777794
1992.106, 0.4789039
1994.035, 0.4789163
1995.963, 0.4784694
1997.891, 0.4768896
1999.820, 0.4781376
2001.748, 0.4800053
2003.677, 0.4776844
2005.605, 0.4774080
2007.534, 0.4785240
2009.462, 0.4782112
2011.391, 0.4757676
2013.319, 0.4734413
2015.248, 0.4730770
2017.176, 0.4741067
2019.105, 0.4782721
2021.033, 0.4767050
2022.962, 0.4725350
2024.890, 0.4726307
2026.818, 0.4726183
2028.747, 0.4756930
2030.675, 0.4789737
2032.604, 0.4773170
2034.532, 0.4782257
2036.461, 0.4777069
2038.389, 0.4807838
2040.318, 0.4825096
2042.246, 0.4843788
2044.175, 0.4846660
2046.103, 0.4827913
2048.032, 0.4848001
2049.960, 0.4878139
2051.889, 0.4881941
2053.817, 0.4903471
2055.746, 0.4919607
2057.674, 0.4911397
2059.603, 0.4916864
2061.531, 0.4908160
2063.459, 0.4910556
2065.388, 0.4940220
2067.316, 0.4973449
2069.245, 0.4998142
2071.173, 0.4979465
2073.102, 0.4967791
2075.030, 0.4978414
2076.959, 0.4974826
2078.887, 0.4968438
2080.816, 0.4988050
2082.744, 0.5004390
2084.673, 0.5014891
2086.601, 0.4998639
2088.530, 0.4987346
2090.458, 0.5003582
2092.386, 0.5017235
2094.315, 0.5014585
2096.243, 0.5025079
2098.172, 0.5037380
2100.100, 0.5014880
2102.029, 0.4984392
2103.957, 0.4986894
2105.886, 0.5015014
2107.814, 0.5032226
2109.743, 0.5035562
2111.671, 0.5024034
2113.600, 0.5023338
2115.528, 0.5037912
2117.457, 0.5043383
2119.385, 0.5036698
2121.313, 0.5021247
2123.242, 0.5017391
2125.170, 0.5028999
2127.099, 0.5036470
2129.027, 0.5022932
2130.956, 0.4996153
2132.884, 0.4979160
2134.813, 0.4970657
2136.741, 0.4980940
2138.670, 0.4996356
2140.598, 0.4973052
2142.527, 0.4944676
2144.455, 0.4938301
2146.384, 0.4941887
2148.312, 0.4925653
2150.240, 0.4928460
2152.169, 0.4881819
2154.097, 0.4825778
2156.026, 0.4795046
2157.954, 0.4809009
2159.883, 0.4884285
2161.811, 0.4933847
2163.740, 0.4927339
2165.668, 0.4939443
2167.597, 0.4941344
2169.525, 0.4914976
2171.454, 0.4906533
2173.382, 0.4925635
2175.311, 0.4952351
2177.239, 0.4946607
2179.167, 0.4967011
2181.096, 0.5001258
2183.024, 0.4967687
2184.953, 0.4944339
2186.881, 0.4970429
2188.810, 0.4983724
2190.738, 0.4996253
2192.667, 0.5033730
2194.595, 0.5047372
2196.524, 0.5018169
2198.452, 0.5011706
2200.381, 0.5033894
2202.309, 0.5044852
2204.238, 0.5061091
2206.166, 0.5064917
2208.094, 0.5074142
2210.023, 0.5073273
2211.951, 0.5057791
2213.880, 0.5056286
2215.808, 0.5078817
2217.737, 0.5071396
2219.665, 0.5061241
2221.594, 0.5073782
2223.522, 0.5079846
2225.451, 0.5081151
2227.379, 0.5087219
2229.308, 0.5094976
2231.236, 0.5121577
2233.165, 0.5125288
2235.093, 0.5106983
2237.021, 0.5089543
2238.950, 0.5102657
2240.878, 0.5140044
2242.807, 0.5166960
2244.735, 0.5179311
2246.664, 0.5156294
2248.592, 0.5142343
2250.521, 0.5143560
2252.449, 0.5160263
2254.378, 0.5147665
2256.306, 0.5152378
2258.235, 0.5169041
2260.163, 0.5202867
2262.092, 0.5218456
2264.020, 0.5217012
2265.948, 0.5219176
2267.877, 0.5205095
2269.805, 0.5218037
2271.734, 0.5239053
2273.662, 0.5242344
2275.591, 0.5240035
2277.519, 0.5250844
2279.448, 0.5249969
2281.376, 0.5240989
2283.305, 0.5246277
2285.233, 0.5263000
2287.162, 0.5282715
2289.090, 0.5302722
2291.019, 0.5301341
2292.947, 0.5304524
2294.875, 0.5312078
2296.804, 0.5306488
2298.732, 0.5313420
2300.661, 0.5325865
2302.589, 0.5328735
2304.518, 0.5329583
2306.446, 0.5330831
2308.375, 0.5328557
2310.303, 0.5330501
2312.232, 0.5341808
2314.160, 0.5353633
2316.089, 0.5361577
2318.017, 0.5360553
2319.946, 0.5368714
2321.874, 0.5384164
2323.802, 0.5382832
2325.731, 0.5379251
2327.659, 0.5387310
2329.588, 0.5386686
2331.516, 0.5381160
2333.445, 0.5382558
2335.373, 0.5391342
2337.302, 0.5388299
2339.230, 0.5386027
2341.159, 0.5390623
2343.087, 0.5388914
2345.016, 0.5392764
2346.944, 0.5394682
2348.873, 0.5396218
2350.801, 0.5407105
2352.729, 0.5408807
2354.658, 0.5414397
2356.586, 0.5422116
2358.515, 0.5425143
2360.443, 0.5421337
2362.372, 0.5424986
2364.300, 0.5436738
2366.229, 0.5430657
2368.157, 0.5422212
2370.086, 0.5423544
2372.014, 0.5420026
2373.942, 0.5411700
2375.871, 0.5406834
2377.799, 0.5396328
2379.728, 0.5403140
2381.656, 0.5402245
2383.585, 0.5405516
2385.513, 0.5407919
2387.442, 0.5403649
2389.370, 0.5412405
2391.299, 0.5407284
2393.227, 0.5398643
2395.156, 0.5402420
2397.084, 0.5410690
2399.012, 0.5412236
2400.941, 0.5417402
2402.869, 0.5413361
2404.798, 0.5403450
2406.726, 0.5412667
2408.655, 0.5425224
2410.583, 0.5430310
2412.512, 0.5425298
2414.440, 0.5423742
2416.369, 0.5430662
2418.297, 0.5421600
2420.226, 0.5419494
2422.154, 0.5417447
2424.083, 0.5416428
2426.011, 0.5436445
2427.939, 0.5447093
2429.868, 0.5434102
2431.796, 0.5430341
2433.725, 0.5432876
2435.653, 0.5433617
2437.582, 0.5432332
2439.510, 0.5439575
2441.439, 0.5452659
2443.367, 0.5438611
2445.296, 0.5428233
2447.224, 0.5432646
2449.153, 0.5435676
2451.081, 0.5442320
2453.010, 0.5453656
2454.938, 0.5465184
2456.866, 0.5453023
2458.795, 0.5445659
2460.723, 0.5446914
2462.652, 0.5455715
2464.580, 0.5473058
2466.509, 0.5470496
2468.437, 0.5458632
2470.366, 0.5463496
2472.294, 0.5472671
2474.223, 0.5457783
2476.151, 0.5446339
2478.080, 0.5459156
2480.008, 0.5467865
2481.937, 0.5462161
2483.865, 0.5469248
2485.793, 0.5462951
2487.722, 0.5473751
2489.650, 0.5495646
2491.579, 0.5499550
2493.507, 0.5506659
2495.436, 0.5506834
2497.364, 0.5501463
2499.293, 0.5489569
2501.221, 0.5489914
2503.150, 0.5505816
2505.078, 0.5503286
2507.007, 0.5500507
2508.935, 0.5503806
2510.864, 0.5502561
2512.792, 0.5501553
2514.720, 0.5500575
2516.649, 0.5499069
2518.577, 0.5505320
2520.506, 0.5512866
2522.434, 0.5505887
2524.363, 0.5506755
2526.291, 0.5509562
2528.220, 0.5500700
2530.148, 0.5492730
2532.077, 0.5508447
2534.005, 0.5537580
2535.934, 0.5532848
2537.862, 0.5525525
2539.791, 0.5533211
2541.719, 0.5529794
2543.647, 0.5516552
2545.576, 0.5530224
2547.504, 0.5533727
2549.433, 0.5529484
2551.361, 0.5542010
2553.290, 0.5548384
2555.218, 0.5536497
2557.147, 0.5539130
2559.075, 0.5561835
2561.004, 0.5559162
2562.932, 0.5547630
2564.861, 0.5553046
2566.789, 0.5577912
2568.718, 0.5580776
2570.646, 0.5563543
2572.574, 0.5564753
2574.503, 0.5573745
2576.431, 0.5569894
2578.360, 0.5570936
2580.288, 0.5570578
2582.217, 0.5577340
2584.145, 0.5594012
2586.074, 0.5599474
2588.002, 0.5587296
2589.931, 0.5574237
2591.859, 0.5583554
2593.788, 0.5603733
2595.716, 0.5613842
2597.645, 0.5608040
2599.573, 0.5599139
2601.501, 0.5600951
2603.430, 0.5616597
2605.358, 0.5620063
2607.287, 0.5604270
2609.215, 0.5604158
2611.144, 0.5612129
2613.072, 0.5618752
2615.001, 0.5621154
2616.929, 0.5630724
2618.858, 0.5627549
2620.786, 0.5628237
2622.715, 0.5649314
2624.643, 0.5650898
2626.572, 0.5661444
2628.500, 0.5665570
2630.428, 0.5657483
2632.357, 0.5661297
2634.285, 0.5670905
2636.214, 0.5681109
2638.142, 0.5675370
2640.071, 0.5682036
2641.999, 0.5691845
2643.928, 0.5695794
2645.856, 0.5693669
2647.785, 0.5696477
2649.713, 0.5691777
2651.642, 0.5689994
2653.570, 0.5693976
2655.499, 0.5704569
2657.427, 0.5712857
2659.355, 0.5714256
2661.284, 0.5719610
2663.212, 0.5726486
2665.141, 0.5727002
2667.069, 0.5721979
2668.998, 0.5716592
2670.926, 0.5708921
2672.855, 0.5713601
2674.783, 0.5727860
2676.712, 0.5734119
2678.640, 0.5732815
2680.569, 0.5730733
2682.497, 0.5739513
2684.426, 0.5746064
2686.354, 0.5744060
2688.282, 0.5747989
2690.211, 0.5750440
2692.139, 0.5751340
2694.068, 0.5754121
2695.996, 0.5751035
2697.925, 0.5748002
2699.853, 0.5759004
2701.782, 0.5775714
2703.710, 0.5769050
2705.639, 0.5759812
2707.567, 0.5772206
2709.496, 0.5776365
2711.424, 0.5769115
2713.353, 0.5772313
2715.281, 0.5774857
2717.209, 0.5773036
2719.138, 0.5776385
2721.066, 0.5787896
2722.995, 0.5789771
2724.923, 0.5794464
2726.852, 0.5796830
2728.780, 0.5791264
2730.709, 0.5792041
2732.637, 0.5798640
2734.566, 0.5797890
2736.494, 0.5789635
2738.423, 0.5792360
2740.351, 0.5793897
2742.280, 0.5804906
2744.208, 0.5816654
2746.136, 0.5815817
2748.065, 0.5808408
2749.993, 0.5812446
2751.922, 0.5834242
2753.850, 0.5837948
2755.779, 0.5821931
2757.707, 0.5811707
2759.636, 0.5815814
2761.564, 0.5826370
2763.493, 0.5832642
2765.421, 0.5834421
2767.350, 0.5830380
2769.278, 0.5828559
2771.207, 0.5830797
2773.135, 0.5829547
2775.063, 0.5836536
2776.992, 0.5834425
2778.920, 0.5843120
2780.849, 0.5850489
2782.777, 0.5840513
2784.706, 0.5833624
2786.634, 0.5831944
2788.563, 0.5838383
2790.491, 0.5849939
2792.420, 0.5855610
2794.348, 0.5869339
2796.277, 0.5883083
2798.205, 0.5879693
2800.134, 0.5868565
2802.062, 0.5856310
2803.990, 0.5858570
2805.919, 0.5857561
2807.847, 0.5863321
2809.776, 0.5871857
2811.704, 0.5876794
2813.633, 0.5877302
2815.561, 0.5865039
2817.490, 0.5858182
2819.418, 0.5871301
2821.347, 0.5887922
2823.275, 0.5897464
2825.204, 0.5890236
2827.132, 0.5871583
2829.061, 0.5886285
2830.989, 0.5907398
2832.917, 0.5907947
2834.846, 0.5909014
2836.774, 0.5907379
2838.703, 0.5909721
2840.631, 0.5914759
2842.560, 0.5918475
2844.488, 0.5910566
2846.417, 0.5920676
2848.345, 0.5925891
2850.274, 0.5905813
2852.202, 0.5895699
2854.131, 0.5905548
2856.059, 0.5910326
2857.988, 0.5912559
2859.916, 0.5918807
2861.844, 0.5912202
2863.773, 0.5912439
2865.701, 0.5915107
2867.630, 0.5919110
2869.558, 0.5919414
2871.487, 0.5937367
2873.415, 0.5954859
2875.344, 0.5937315
2877.272, 0.5932069
2879.201, 0.5953357
2881.129, 0.5965067
2883.058, 0.5957245
2884.986, 0.5958595
2886.915, 0.5964183
2888.843, 0.5953121
2890.771, 0.5948746
2892.700, 0.5962165
2894.628, 0.5972464
2896.557, 0.5956701
2898.485, 0.5966877
2900.414, 0.5982112
2902.342, 0.5972557
2904.271, 0.5966101
2906.199, 0.5962765
2908.128, 0.5961861
2910.056, 0.5974400
2911.985, 0.5984283
2913.913, 0.5977798
2915.842, 0.5973524
2917.770, 0.5973475
2919.698, 0.5980157
2921.627, 0.5971333
2923.555, 0.5963316
2925.484, 0.5977331
2927.412, 0.5988020
2929.341, 0.5982752
2931.269, 0.5976384
2933.198, 0.5978566
2935.126, 0.5982095
2937.055, 0.5993154
2938.983, 0.5999703
2940.912, 0.5993420
2942.840, 0.5989727
2944.769, 0.5998766
2946.697, 0.5995147
2948.625, 0.5986275
2950.554, 0.6000670
2952.482, 0.6005267
2954.411, 0.6003420
2956.339, 0.6005421
2958.268, 0.6011594
2960.196, 0.6016458
2962.125, 0.6017706
2964.053, 0.6019579
2965.982, 0.6036861
2967.910, 0.6042103
2969.839, 0.6037161
2971.767, 0.6044498
2973.696, 0.6043038
2975.624, 0.6045331
2977.552, 0.6039163
2979.481, 0.6036283
2981.409, 0.6050369
2983.338, 0.6062372
2985.266, 0.6078584
2987.195, 0.6075609
2989.123, 0.6053348
2991.052, 0.6044979
2992.980, 0.6068683
2994.909, 0.6078471
2996.837, 0.6066678
2998.766, 0.6070835
3000.694, 0.6077659
3002.623, 0.6093370
3004.551, 0.6105946
3006.479, 0.6107870
3008.408, 0.6106691
3010.336, 0.6102474
3012.265, 0.6104965
3014.193, 0.6105722
3016.122, 0.6094945
3018.050, 0.6074539
3019.979, 0.6076100
3021.907, 0.6105316
3023.836, 0.6108676
3025.764, 0.6104934
3027.693, 0.6128348
3029.621, 0.6136441
3031.550, 0.6116095
3033.478, 0.6119587
3035.406, 0.6136242
3037.335, 0.6147409
3039.263, 0.6160108
3041.192, 0.6155344
3043.120, 0.6143214
3045.049, 0.6133086
3046.977, 0.6128893
3048.906, 0.6141286
3050.834, 0.6135393
3052.763, 0.6129597
3054.691, 0.6144039
3056.620, 0.6166008
3058.548, 0.6180453
3060.477, 0.6173463
3062.405, 0.6177689
3064.333, 0.6176105
3066.262, 0.6170923
3068.190, 0.6200317
3070.119, 0.6220597
3072.047, 0.6188824
3073.976, 0.6161912
3075.904, 0.6156759
3077.833, 0.6169259
3079.761, 0.6180651
3081.690, 0.6178984
3083.618, 0.6187290
3085.547, 0.6176180
3087.475, 0.6172075
3089.404, 0.6196000
3091.332, 0.6191300
3093.260, 0.6201297
3095.189, 0.6212614
3097.117, 0.6218105
3099.046, 0.6210859
3100.974, 0.6221740
3102.903, 0.6224275
3104.831, 0.6198028
3106.760, 0.6207989
3108.688, 0.6233062
3110.617, 0.6238664
3112.545, 0.6239320
3114.474, 0.6240836
3116.402, 0.6228806
3118.331, 0.6227853
3120.259, 0.6236855
3122.188, 0.6225566
3124.116, 0.6238883
3126.044, 0.6257594
3127.973, 0.6264805
3129.901, 0.6269525
3131.830, 0.6273733
3133.758, 0.6275457
3135.687, 0.6274979
3137.615, 0.6285977
3139.544, 0.6299301
3141.472, 0.6298773
3143.401, 0.6284889
3145.329, 0.6278640
3147.258, 0.6279793
3149.186, 0.6281658
3151.115, 0.6290706
3153.043, 0.6316408
3154.971, 0.6334133
3156.900, 0.6330111
3158.828, 0.6306334
3160.757, 0.6310021
3162.685, 0.6325314
3164.614, 0.6332140
3166.542, 0.6333353
3168.471, 0.6339614
3170.399, 0.6328305
3172.328, 0.6312003
3174.256, 0.6301997
3176.185, 0.6309380
3178.113, 0.6339488
3180.042, 0.6333106
3181.970, 0.6317486
3183.898, 0.6325065
3185.827, 0.6334527
3187.755, 0.6344023
3189.684, 0.6344839
3191.612, 0.6339884
3193.541, 0.6359350
3195.469, 0.6368166
3197.398, 0.6356310
3199.326, 0.6369174
3201.255, 0.6387357
3203.183, 0.6393578
3205.112, 0.6384277
3207.040, 0.6379520
3208.969, 0.6390063
3210.897, 0.6387146
3212.825, 0.6386172
3214.754, 0.6372861
3216.682, 0.6374332
3218.611, 0.6410792
3220.539, 0.6411654
3222.468, 0.6381890
3224.396, 0.6366667
3226.325, 0.6385757
3228.253, 0.6414634
3230.182, 0.6423517
3232.110, 0.6409747
3234.039, 0.6381592
3235.967, 0.6377932
3237.896, 0.6396477
3239.824, 0.6398841
3241.752, 0.6393536
3243.681, 0.6397473
3245.609, 0.6409698
3247.538, 0.6408722
3249.466, 0.6397488
3251.395, 0.6405832
3253.323, 0.6400865
3255.252, 0.6369004
3257.180, 0.6361390
3259.109, 0.6376907
3261.037, 0.6369292
3262.966, 0.6358072
3264.894, 0.6362457
3266.823, 0.6386004
3268.751, 0.6401536
3270.679, 0.6416682
3272.608, 0.6406410
3274.536, 0.6370505
3276.465, 0.6349122
3278.393, 0.6346745
3280.322, 0.6358694
3282.250, 0.6365980
3284.179, 0.6377806
3286.107, 0.6373248
3288.036, 0.6363767
3289.964, 0.6376983
3291.893, 0.6375242
3293.821, 0.6368921
3295.750, 0.6378885
3297.678, 0.6379125
3299.606, 0.6360758
3301.535, 0.6340646
3303.463, 0.6348217
3305.392, 0.6344193
3307.320, 0.6347027
3309.249, 0.6337180
3311.177, 0.6356717
3313.106, 0.6378037
3315.034, 0.6373724
3316.963, 0.6369992
3318.891, 0.6374876
3320.820, 0.6373118
3322.748, 0.6364052
3324.677, 0.6364813
3326.605, 0.6384836
3328.533, 0.6381144
3330.462, 0.6379421
3332.390, 0.6387343
3334.319, 0.6397940
3336.247, 0.6388746
3338.176, 0.6383209
3340.104, 0.6394768
3342.033, 0.6401830
3343.961, 0.6393282
3345.890, 0.6384020
3347.818, 0.6387827
3349.747, 0.6383401
3351.675, 0.6386168
3353.604, 0.6382435
3355.532, 0.6373416
3357.460, 0.6393528
3359.389, 0.6421525
3361.317, 0.6391320
3363.246, 0.6349982
3365.174, 0.6351423
3367.103, 0.6352503
3369.031, 0.6342714
3370.960, 0.6357706
3372.888, 0.6367557
3374.817, 0.6367499
3376.745, 0.6346813
3378.674, 0.6341136
3380.602, 0.6361614
3382.531, 0.6368602
3384.459, 0.6369641
3386.387, 0.6349940
3388.316, 0.6336272
3390.244, 0.6343414
3392.173, 0.6350533
3394.101, 0.6351812
3396.030, 0.6364328
3397.958, 0.6351758
3399.887, 0.6336902
3401.815, 0.6332890
3403.744, 0.6329464
3405.672, 0.6311804
3407.601, 0.6291466
3409.529, 0.6283369
3411.458, 0.6268383
3413.386, 0.6257164
3415.314, 0.6264703
3417.243, 0.6282387
3419.171, 0.6293507
3421.100, 0.6296921
3423.028, 0.6303068
3424.957, 0.6314809
3426.885, 0.6275219
3428.814, 0.6219835
3430.742, 0.6197866
3432.671, 0.6211084
3434.599, 0.6248210
3436.528, 0.6256979
3438.456, 0.6228121
3440.385, 0.6213861
3442.313, 0.6214856
3444.241, 0.6197810
3446.170, 0.6174284
3448.098, 0.6158804
3450.027, 0.6155320
3451.955, 0.6132807
3453.884, 0.6130767
3455.812, 0.6126921
3457.741, 0.6097636
3459.669, 0.6066344
3461.598, 0.6056626
3463.526, 0.6037582
3465.455, 0.6026048
3467.383, 0.6024452
3469.312, 0.5997637
3471.240, 0.5992836
3473.168, 0.6005252
3475.097, 0.5967218
3477.025, 0.5931349
3478.954, 0.5939046
3480.882, 0.5916872
3482.811, 0.5868437
3484.739, 0.5853707
3486.668, 0.5854588
3488.596, 0.5849351
3490.525, 0.5836761
3492.453, 0.5824451
3494.382, 0.5801383
3496.310, 0.5815032
3498.239, 0.5860804
3500.167, 0.5830523
3502.095, 0.5781384
3504.024, 0.5770273
3505.952, 0.5776775
3507.881, 0.5754399
3509.809, 0.5755487
3511.738, 0.5779446
3513.666, 0.5760667
3515.595, 0.5759420
3517.523, 0.5757928
3519.452, 0.5739408
3521.380, 0.5746541
3523.309, 0.5732136
3525.237, 0.5718194
3527.166, 0.5719588
3529.094, 0.5730776
3531.022, 0.5738617
3532.951, 0.5709731
3534.879, 0.5673866
3536.808, 0.5653632
3538.736, 0.5645636
3540.665, 0.5631496
3542.593, 0.5621232
3544.522, 0.5611149
3546.450, 0.5614275
3548.379, 0.5629061
3550.307, 0.5615144
3552.236, 0.5614801
3554.164, 0.5641651
3556.093, 0.5615720
3558.021, 0.5603437
3559.949, 0.5644737
3561.878, 0.5633254
3563.806, 0.5613325
3565.735, 0.5580953
3567.663, 0.5595965
3569.592, 0.5612811
3571.520, 0.5605916
3573.449, 0.5599126
3575.377, 0.5588916
3577.306, 0.5571085
3579.234, 0.5551686
3581.163, 0.5516679
3583.091, 0.5505469
3585.020, 0.5528720
3586.948, 0.5567959
3588.876, 0.5580703
3590.805, 0.5566584
3592.733, 0.5552837
3594.662, 0.5559629
3596.590, 0.5559336
3598.519, 0.5536240
3600.447, 0.5518051
3602.376, 0.5495737
3604.304, 0.5531126
3606.233, 0.5569653
3608.161, 0.5577344
3610.090, 0.5596060
3612.018, 0.5563328
3613.947, 0.5519927
3615.875, 0.5575225
3617.803, 0.5606592
3619.732, 0.5594182
3621.660, 0.5583080
3623.589, 0.5615712
3625.517, 0.5656182
3627.446, 0.5657175
3629.374, 0.5685312
3631.303, 0.5681723
3633.231, 0.5662948
3635.160, 0.5725079
3637.088, 0.5751649
3639.017, 0.5743488
3640.945, 0.5734551
3642.874, 0.5725963
3644.802, 0.5728703
3646.730, 0.5730081
3648.659, 0.5745109
3650.587, 0.5722842
3652.516, 0.5711138
3654.444, 0.5744505
3656.373, 0.5776856
3658.301, 0.5792477
3660.230, 0.5801564
3662.158, 0.5781310
3664.087, 0.5780457
3666.015, 0.5784730
3667.944, 0.5787092
3669.872, 0.5811670
3671.801, 0.5835848
3673.729, 0.5842008
3675.657, 0.5830206
3677.586, 0.5790672
3679.514, 0.5787713
3681.443, 0.5811189
3683.371, 0.5843344
3685.300, 0.5860829
3687.228, 0.5847571
3689.157, 0.5833694
3691.085, 0.5848143
3693.014, 0.5891524
3694.942, 0.5901951
3696.871, 0.5886652
3698.799, 0.5880737
3700.728, 0.5931380
3702.656, 0.5973263
3704.584, 0.5928702
3706.513, 0.5903797
3708.441, 0.5920219
3710.370, 0.5924358
3712.298, 0.5942937
3714.227, 0.5954525
3716.155, 0.5930114
3718.084, 0.5942393
3720.012, 0.5946686
3721.941, 0.5960190
3723.869, 0.5982019
3725.798, 0.5948645
3727.726, 0.5931114
3729.655, 0.5962409
3731.583, 0.5971952
3733.511, 0.6008135
3735.440, 0.6041413
3737.368, 0.6031179
3739.297, 0.5993950
3741.225, 0.5958161
3743.154, 0.5956357
3745.082, 0.5975657
3747.011, 0.6015162
3748.939, 0.6050830
3750.868, 0.6038116
3752.796, 0.6063980
3754.725, 0.6036730
3756.653, 0.6032981
3758.582, 0.6059294
3760.510, 0.6039332
3762.438, 0.6019189
3764.367, 0.6017953
3766.295, 0.6052081
3768.224, 0.6078948
3770.152, 0.6074782
3772.081, 0.6072770
3774.009, 0.6051099
3775.938, 0.6060559
3777.866, 0.6111627
3779.795, 0.6109349
3781.723, 0.6068565
3783.652, 0.6112735
3785.580, 0.6113108
3787.509, 0.6064669
3789.437, 0.6082031
3791.365, 0.6104947
3793.294, 0.6087397
3795.222, 0.6094806
3797.151, 0.6101713
3799.079, 0.6091183
3801.008, 0.6079865
3802.936, 0.6101401
3804.865, 0.6104685
3806.793, 0.6086864
3808.722, 0.6088204
3810.650, 0.6089901
3812.579, 0.6118287
3814.507, 0.6163197
3816.436, 0.6188367
3818.364, 0.6209627
3820.292, 0.6215698
3822.221, 0.6234321
3824.149, 0.6236413
3826.078, 0.6200022
3828.006, 0.6142401
3829.935, 0.6130264
3831.863, 0.6139168
3833.792, 0.6160261
3835.720, 0.6147776
3837.649, 0.6121888
3839.577, 0.6157783
3841.506, 0.6185322
3843.434, 0.6204849
3845.363, 0.6199443
3847.291, 0.6199079
3849.219, 0.6202335
3851.148, 0.6210793
3853.076, 0.6218610
3855.005, 0.6180009
3856.933, 0.6178757
3858.862, 0.6194105
3860.790, 0.6183035
3862.719, 0.6179858
3864.647, 0.6179320
3866.576, 0.6193706
3868.504, 0.6208311
3870.433, 0.6220945
3872.361, 0.6240608
3874.290, 0.6253625
3876.218, 0.6282167
3878.146, 0.6303392
3880.075, 0.6296856
3882.003, 0.6254808
3883.932, 0.6230960
3885.860, 0.6247787
3887.789, 0.6221643
3889.717, 0.6189705
3891.646, 0.6186647
3893.574, 0.6227082
3895.503, 0.6308447
3897.431, 0.6306891
3899.360, 0.6249799
3901.288, 0.6240236
3903.217, 0.6259421
3905.145, 0.6299220
3907.073, 0.6273664
3909.002, 0.6235837
3910.930, 0.6250032
3912.859, 0.6253752
3914.787, 0.6285228
3916.716, 0.6283169
3918.644, 0.6268532
3920.573, 0.6268083
3922.501, 0.6271042
3924.430, 0.6294072
3926.358, 0.6287528
3928.287, 0.6265779
3930.215, 0.6262110
3932.144, 0.6284454
3934.072, 0.6298405
3936.000, 0.6318799
3937.929, 0.6326344
3939.857, 0.6270860
3941.786, 0.6259956
3943.714, 0.6319590
3945.643, 0.6373655
3947.571, 0.6355364
3949.500, 0.6342281
3951.428, 0.6345685
3953.357, 0.6331893
3955.285, 0.6311476
3957.214, 0.6301512
3959.142, 0.6281149
3961.071, 0.6305229
3962.999, 0.6325695
3964.927, 0.6323763
3966.856, 0.6342481
3968.784, 0.6317345
3970.713, 0.6297859
3972.641, 0.6351739
3974.570, 0.6386371
3976.498, 0.6362767
3978.427, 0.6340339
3980.355, 0.6340888
3982.284, 0.6328735
3984.212, 0.6343121
3986.141, 0.6390514
3988.069, 0.6358050
3989.998, 0.6348640
3991.926, 0.6413960
3993.854, 0.6426489
3995.783, 0.6402385
3997.711, 0.6385574
3999.640, 0.6388654
##END=



