##NAMES=Polylithionite
##RRUFFID=R050132
##IDEAL CHEMISTRY=KLi_2_AlSi_4_O_10_F_2_
##LOCALITY=Brown Derby mine, Ohio City, Gunnison County, Colorado, USA
##OWNER=RRUFF
##SOURCE=Dave Bunk Minerals
##DESCRIPTION=Purple scaly aggregate, polytype 2M1
##STATUS=The identification of this mineral has been confirmed by X-ray diffraction and chemical analysis
##URL=rruff.info/R050132
##MEASURED CHEMISTRY=(K_0.90_Rb_0.10_)(Li_0.62_Al_0.38_)_3_(Si_0.93_Al_0.07_)_4_O_10_(F_0.69_(OH)_0.31_)_2_
3.741225e+002, 2.047008e-001
3.760510e+002, 1.758696e-001
3.779795e+002, 1.819031e-001
3.799079e+002, 2.013408e-001
3.818364e+002, 2.344854e-001
3.837649e+002, 2.227658e-001
3.856933e+002, 2.165996e-001
3.876218e+002, 2.269543e-001
3.895503e+002, 2.298865e-001
3.914787e+002, 2.265923e-001
3.934072e+002, 2.415253e-001
3.953357e+002, 2.538520e-001
3.972641e+002, 2.665653e-001
3.991926e+002, 2.629291e-001
4.011211e+002, 2.789063e-001
4.030495e+002, 2.953898e-001
4.049780e+002, 2.844744e-001
4.069065e+002, 2.917866e-001
4.088349e+002, 3.090057e-001
4.107634e+002, 3.002449e-001
4.126919e+002, 2.936210e-001
4.146203e+002, 2.945166e-001
4.165488e+002, 2.997711e-001
4.184773e+002, 3.015443e-001
4.204057e+002, 3.070320e-001
4.223342e+002, 3.130530e-001
4.242627e+002, 3.230790e-001
4.261911e+002, 3.344542e-001
4.281196e+002, 3.351793e-001
4.300481e+002, 3.341939e-001
4.319765e+002, 3.354507e-001
4.339050e+002, 3.351648e-001
4.358335e+002, 3.323351e-001
4.377619e+002, 3.310172e-001
4.396904e+002, 3.335068e-001
4.416189e+002, 3.304173e-001
4.435473e+002, 3.251396e-001
4.454758e+002, 3.251857e-001
4.474043e+002, 3.266667e-001
4.493327e+002, 3.260826e-001
4.512612e+002, 3.289239e-001
4.531897e+002, 3.327202e-001
4.551181e+002, 3.384022e-001
4.570466e+002, 3.425872e-001
4.589751e+002, 3.513558e-001
4.609035e+002, 3.576911e-001
4.628320e+002, 3.559529e-001
4.647605e+002, 3.528658e-001
4.666889e+002, 3.523093e-001
4.686174e+002, 3.516569e-001
4.705459e+002, 3.467823e-001
4.724743e+002, 3.415038e-001
4.744028e+002, 3.382311e-001
4.763313e+002, 3.325547e-001
4.782597e+002, 3.260554e-001
4.801882e+002, 3.208618e-001
4.821167e+002, 3.131888e-001
4.840451e+002, 3.019825e-001
4.859736e+002, 2.919316e-001
4.879021e+002, 2.831574e-001
4.898305e+002, 2.776963e-001
4.917590e+002, 2.730640e-001
4.936875e+002, 2.670019e-001
4.956159e+002, 2.641480e-001
4.975444e+002, 2.640859e-001
4.994729e+002, 2.629327e-001
5.014013e+002, 2.622838e-001
5.033298e+002, 2.623781e-001
5.052583e+002, 2.636550e-001
5.071867e+002, 2.667027e-001
5.091152e+002, 2.689689e-001
5.110437e+002, 2.714489e-001
5.129721e+002, 2.761434e-001
5.149006e+002, 2.793115e-001
5.168290e+002, 2.818090e-001
5.187575e+002, 2.855599e-001
5.206860e+002, 2.894832e-001
5.226144e+002, 2.921955e-001
5.245429e+002, 2.928330e-001
5.264714e+002, 2.918850e-001
5.283998e+002, 2.885101e-001
5.303283e+002, 2.823638e-001
5.322568e+002, 2.739925e-001
5.341852e+002, 2.656116e-001
5.361137e+002, 2.565989e-001
5.380422e+002, 2.473782e-001
5.399706e+002, 2.386358e-001
5.418991e+002, 2.302990e-001
5.438276e+002, 2.224059e-001
5.457560e+002, 2.142180e-001
5.476845e+002, 2.063467e-001
5.496130e+002, 1.989982e-001
5.515414e+002, 1.906064e-001
5.534699e+002, 1.826764e-001
5.553984e+002, 1.751957e-001
5.573268e+002, 1.672678e-001
5.592553e+002, 1.606911e-001
5.611838e+002, 1.548865e-001
5.631122e+002, 1.491825e-001
5.650407e+002, 1.441766e-001
5.669692e+002, 1.392003e-001
5.688976e+002, 1.349341e-001
5.708261e+002, 1.313163e-001
5.727546e+002, 1.278811e-001
5.746830e+002, 1.242013e-001
5.766115e+002, 1.207040e-001
5.785400e+002, 1.173500e-001
5.804684e+002, 1.139564e-001
5.823969e+002, 1.107981e-001
5.843254e+002, 1.080597e-001
5.862538e+002, 1.051068e-001
5.881823e+002, 1.021646e-001
5.901108e+002, 9.972797e-002
5.920392e+002, 9.734464e-002
5.939677e+002, 9.487431e-002
5.958962e+002, 9.304737e-002
5.978246e+002, 9.248409e-002
5.997531e+002, 9.210128e-002
6.016816e+002, 9.145362e-002
6.036100e+002, 9.160941e-002
6.055385e+002, 9.232196e-002
6.074670e+002, 9.268862e-002
6.093954e+002, 9.307083e-002
6.113239e+002, 9.408012e-002
6.132524e+002, 9.496749e-002
6.151808e+002, 9.530046e-002
6.171093e+002, 9.515520e-002
6.190378e+002, 9.466521e-002
6.209662e+002, 9.348692e-002
6.228947e+002, 9.194944e-002
6.248232e+002, 8.999176e-002
6.267516e+002, 8.792392e-002
6.286801e+002, 8.625962e-002
6.306086e+002, 8.530284e-002
6.325370e+002, 8.514068e-002
6.344655e+002, 8.571289e-002
6.363940e+002, 8.675463e-002
6.383224e+002, 8.814051e-002
6.402509e+002, 8.966002e-002
6.421794e+002, 9.118120e-002
6.441078e+002, 9.238134e-002
6.460363e+002, 9.348429e-002
6.479648e+002, 9.488155e-002
6.498932e+002, 9.636228e-002
6.518217e+002, 9.754649e-002
6.537502e+002, 9.872594e-002
6.556786e+002, 9.996382e-002
6.576071e+002, 1.014761e-001
6.595356e+002, 1.026573e-001
6.614641e+002, 1.038914e-001
6.633925e+002, 1.048708e-001
6.653210e+002, 1.055065e-001
6.672495e+002, 1.063941e-001
6.691779e+002, 1.069424e-001
6.711064e+002, 1.075781e-001
6.730349e+002, 1.085964e-001
6.749633e+002, 1.093770e-001
6.768918e+002, 1.099454e-001
6.788203e+002, 1.105456e-001
6.807487e+002, 1.113312e-001
6.826772e+002, 1.119246e-001
6.846057e+002, 1.123471e-001
6.865341e+002, 1.123329e-001
6.884626e+002, 1.122326e-001
6.903911e+002, 1.119553e-001
6.923195e+002, 1.119502e-001
6.942480e+002, 1.118699e-001
6.961765e+002, 1.113705e-001
6.981049e+002, 1.110636e-001
7.000334e+002, 1.108515e-001
7.019619e+002, 1.106339e-001
7.038903e+002, 1.105880e-001
7.058188e+002, 1.103726e-001
7.077473e+002, 1.105334e-001
7.096757e+002, 1.106107e-001
7.116042e+002, 1.105384e-001
7.135327e+002, 1.109196e-001
7.154611e+002, 1.118708e-001
7.173896e+002, 1.126143e-001
7.193181e+002, 1.134236e-001
7.212465e+002, 1.144890e-001
7.231750e+002, 1.157559e-001
7.251035e+002, 1.167242e-001
7.270319e+002, 1.179599e-001
7.289604e+002, 1.190342e-001
7.308889e+002, 1.202516e-001
7.328173e+002, 1.212780e-001
7.347458e+002, 1.219421e-001
7.366743e+002, 1.226085e-001
7.386027e+002, 1.233335e-001
7.405312e+002, 1.235814e-001
7.424597e+002, 1.240572e-001
7.443881e+002, 1.248727e-001
7.463166e+002, 1.262240e-001
7.482451e+002, 1.273338e-001
7.501735e+002, 1.278748e-001
7.521020e+002, 1.279390e-001
7.540305e+002, 1.271885e-001
7.559589e+002, 1.253206e-001
7.578874e+002, 1.230120e-001
7.598159e+002, 1.201594e-001
7.617443e+002, 1.172139e-001
7.636728e+002, 1.143129e-001
7.656013e+002, 1.118816e-001
7.675297e+002, 1.099851e-001
7.694582e+002, 1.089200e-001
7.713867e+002, 1.084040e-001
7.733151e+002, 1.086543e-001
7.752436e+002, 1.094386e-001
7.771721e+002, 1.104840e-001
7.791005e+002, 1.118239e-001
7.810290e+002, 1.131266e-001
7.829575e+002, 1.142897e-001
7.848859e+002, 1.156685e-001
7.868144e+002, 1.167349e-001
7.887429e+002, 1.173585e-001
7.906713e+002, 1.177677e-001
7.925998e+002, 1.182403e-001
7.945283e+002, 1.184654e-001
7.964567e+002, 1.184367e-001
7.983852e+002, 1.179690e-001
8.003137e+002, 1.170458e-001
8.022421e+002, 1.155048e-001
8.041706e+002, 1.133087e-001
8.060991e+002, 1.100999e-001
8.080275e+002, 1.066744e-001
8.099560e+002, 1.024709e-001
8.118845e+002, 9.796940e-002
8.138129e+002, 9.311733e-002
8.157414e+002, 8.833918e-002
8.176699e+002, 8.392423e-002
8.195983e+002, 8.053701e-002
8.215268e+002, 7.835121e-002
8.234553e+002, 7.723644e-002
8.253837e+002, 7.692213e-002
8.273122e+002, 7.723842e-002
8.292407e+002, 7.803693e-002
8.311691e+002, 7.871553e-002
8.330976e+002, 7.855128e-002
8.350261e+002, 7.757603e-002
8.369545e+002, 7.609259e-002
8.388830e+002, 7.449767e-002
8.408115e+002, 7.336918e-002
8.427399e+002, 7.298703e-002
8.446684e+002, 7.301953e-002
8.465969e+002, 7.367340e-002
8.485253e+002, 7.500267e-002
8.504538e+002, 7.665446e-002
8.523823e+002, 7.827346e-002
8.543107e+002, 8.018283e-002
8.562392e+002, 8.234061e-002
8.581677e+002, 8.455417e-002
8.600961e+002, 8.695924e-002
8.620246e+002, 8.989718e-002
8.639531e+002, 9.286048e-002
8.658815e+002, 9.585273e-002
8.678100e+002, 9.914636e-002
8.697385e+002, 1.025586e-001
8.716669e+002, 1.059641e-001
8.735954e+002, 1.095005e-001
8.755239e+002, 1.126096e-001
8.774523e+002, 1.155006e-001
8.793808e+002, 1.183495e-001
8.813093e+002, 1.212554e-001
8.832377e+002, 1.240314e-001
8.851662e+002, 1.268144e-001
8.870947e+002, 1.296511e-001
8.890231e+002, 1.331819e-001
8.909516e+002, 1.371197e-001
8.928801e+002, 1.414469e-001
8.948085e+002, 1.461793e-001
8.967370e+002, 1.514518e-001
8.986655e+002, 1.572488e-001
9.005939e+002, 1.636864e-001
9.025224e+002, 1.707058e-001
9.044509e+002, 1.784632e-001
9.063793e+002, 1.866508e-001
9.083078e+002, 1.954432e-001
9.102363e+002, 2.044783e-001
9.121647e+002, 2.136500e-001
9.140932e+002, 2.226194e-001
9.160217e+002, 2.312633e-001
9.179501e+002, 2.397391e-001
9.198786e+002, 2.484158e-001
9.218071e+002, 2.567694e-001
9.237355e+002, 2.648934e-001
9.256640e+002, 2.727005e-001
9.275925e+002, 2.811054e-001
9.295209e+002, 2.902008e-001
9.314494e+002, 3.000356e-001
9.333779e+002, 3.103760e-001
9.353063e+002, 3.215871e-001
9.372348e+002, 3.327134e-001
9.391633e+002, 3.444457e-001
9.410917e+002, 3.568923e-001
9.430202e+002, 3.700779e-001
9.449487e+002, 3.831508e-001
9.468771e+002, 3.964469e-001
9.488056e+002, 4.100835e-001
9.507341e+002, 4.239702e-001
9.526625e+002, 4.379618e-001
9.545910e+002, 4.513476e-001
9.565195e+002, 4.638532e-001
9.584479e+002, 4.755966e-001
9.603764e+002, 4.856648e-001
9.623049e+002, 4.937217e-001
9.642333e+002, 4.998637e-001
9.661618e+002, 5.040951e-001
9.680903e+002, 5.064556e-001
9.700187e+002, 5.078181e-001
9.719472e+002, 5.077739e-001
9.738757e+002, 5.063239e-001
9.758041e+002, 5.043269e-001
9.777326e+002, 5.023290e-001
9.796611e+002, 4.998398e-001
9.815895e+002, 4.975721e-001
9.835180e+002, 4.956225e-001
9.854465e+002, 4.937985e-001
9.873749e+002, 4.917230e-001
9.893034e+002, 4.897450e-001
9.912319e+002, 4.866456e-001
9.931603e+002, 4.829719e-001
9.950888e+002, 4.781741e-001
9.970173e+002, 4.720468e-001
9.989457e+002, 4.645684e-001
1.000874e+003, 4.568309e-001
1.002803e+003, 4.481715e-001
1.004731e+003, 4.388217e-001
1.006660e+003, 4.296903e-001
1.008588e+003, 4.220346e-001
1.010517e+003, 4.151385e-001
1.012445e+003, 4.081850e-001
1.014373e+003, 4.012863e-001
1.016302e+003, 3.950800e-001
1.018230e+003, 3.889579e-001
1.020159e+003, 3.822405e-001
1.022087e+003, 3.743332e-001
1.024016e+003, 3.658336e-001
1.025944e+003, 3.562410e-001
1.027873e+003, 3.454826e-001
1.029801e+003, 3.328090e-001
1.031730e+003, 3.188609e-001
1.033658e+003, 3.041536e-001
1.035587e+003, 2.888809e-001
1.037515e+003, 2.732129e-001
1.039443e+003, 2.579708e-001
1.041372e+003, 2.433046e-001
1.043300e+003, 2.297710e-001
1.045229e+003, 2.176547e-001
1.047157e+003, 2.074945e-001
1.049086e+003, 1.989999e-001
1.051014e+003, 1.919162e-001
1.052943e+003, 1.858117e-001
1.054871e+003, 1.808791e-001
1.056800e+003, 1.765717e-001
1.058728e+003, 1.726536e-001
1.060657e+003, 1.687466e-001
1.062585e+003, 1.648412e-001
1.064514e+003, 1.608725e-001
1.066442e+003, 1.568704e-001
1.068370e+003, 1.525666e-001
1.070299e+003, 1.484416e-001
1.072227e+003, 1.444901e-001
1.074156e+003, 1.408971e-001
1.076084e+003, 1.378779e-001
1.078013e+003, 1.354931e-001
1.079941e+003, 1.333728e-001
1.081870e+003, 1.316520e-001
1.083798e+003, 1.300312e-001
1.085727e+003, 1.287014e-001
1.087655e+003, 1.271136e-001
1.089584e+003, 1.253366e-001
1.091512e+003, 1.230257e-001
1.093441e+003, 1.201454e-001
1.095369e+003, 1.166754e-001
1.097297e+003, 1.129312e-001
1.099226e+003, 1.088983e-001
1.101154e+003, 1.045128e-001
1.103083e+003, 1.001277e-001
1.105011e+003, 9.614326e-002
1.106940e+003, 9.201605e-002
1.108868e+003, 8.803219e-002
1.110797e+003, 8.391082e-002
1.112725e+003, 7.999165e-002
1.114654e+003, 7.614520e-002
1.116582e+003, 7.257759e-002
1.118511e+003, 6.907315e-002
1.120439e+003, 6.565470e-002
1.122368e+003, 6.236515e-002
1.124296e+003, 5.908514e-002
1.126224e+003, 5.570614e-002
1.128153e+003, 5.252610e-002
1.130081e+003, 4.934837e-002
1.132010e+003, 4.623038e-002
1.133938e+003, 4.307441e-002
1.135867e+003, 3.990623e-002
1.137795e+003, 3.661034e-002
1.139724e+003, 3.355593e-002
1.141652e+003, 3.060859e-002
1.143581e+003, 2.774447e-002
1.145509e+003, 2.512814e-002
1.147438e+003, 2.295221e-002
1.149366e+003, 2.102543e-002
1.151295e+003, 1.952200e-002
1.153223e+003, 1.803320e-002
1.155151e+003, 1.665676e-002
1.157080e+003, 1.571184e-002
1.159008e+003, 1.498917e-002
1.160937e+003, 1.416356e-002
1.162865e+003, 1.337504e-002
1.164794e+003, 1.268652e-002
1.166722e+003, 1.225112e-002
1.168651e+003, 1.166201e-002
1.170579e+003, 1.106211e-002
1.172508e+003, 1.051482e-002
1.174436e+003, 9.983595e-003
1.176365e+003, 9.557306e-003
1.178293e+003, 9.249873e-003
1.180222e+003, 8.837536e-003
1.182150e+003, 8.502128e-003
1.184078e+003, 8.157565e-003
1.186007e+003, 7.810609e-003
1.187935e+003, 7.419725e-003
1.189864e+003, 7.186413e-003
1.191792e+003, 7.057092e-003
1.193721e+003, 6.833723e-003
1.195649e+003, 6.493315e-003
1.197578e+003, 6.161849e-003
1.199506e+003, 5.828583e-003
1.201435e+003, 5.679328e-003
1.203363e+003, 5.331029e-003
1.205292e+003, 5.060495e-003
1.207220e+003, 4.857725e-003
1.209149e+003, 4.685611e-003
1.211077e+003, 4.368677e-003
1.213005e+003, 4.214239e-003
1.214934e+003, 3.970180e-003
1.216862e+003, 3.915468e-003
1.218791e+003, 3.849912e-003
1.220719e+003, 3.561923e-003
1.222648e+003, 3.244066e-003
1.224576e+003, 3.120276e-003
1.226505e+003, 3.018917e-003
1.228433e+003, 2.873784e-003
1.230362e+003, 2.775592e-003
1.232290e+003, 2.803296e-003
1.234219e+003, 2.591656e-003
1.236147e+003, 2.378152e-003
1.238076e+003, 2.200593e-003
1.240004e+003, 2.175143e-003
1.241932e+003, 2.156049e-003
1.243861e+003, 2.304741e-003
1.245789e+003, 2.248996e-003
1.247718e+003, 2.079931e-003
1.249646e+003, 1.952605e-003
1.251575e+003, 1.861526e-003
1.253503e+003, 1.800842e-003
1.255432e+003, 1.796183e-003
1.257360e+003, 1.747783e-003
1.259289e+003, 1.787719e-003
1.261217e+003, 1.754569e-003
1.263146e+003, 1.634327e-003
1.265074e+003, 1.439890e-003
1.267003e+003, 1.671445e-003
1.268931e+003, 1.856712e-003
1.270859e+003, 1.917504e-003
1.272788e+003, 1.989484e-003
1.274716e+003, 2.188073e-003
1.276645e+003, 2.314638e-003
1.278573e+003, 2.383440e-003
1.280502e+003, 2.460841e-003
1.282430e+003, 2.553927e-003
1.284359e+003, 2.625876e-003
1.286287e+003, 2.688743e-003
1.288216e+003, 2.647356e-003
1.290144e+003, 2.572768e-003
1.292073e+003, 2.502472e-003
1.294001e+003, 2.470075e-003
1.295930e+003, 2.120127e-003
1.297858e+003, 1.674150e-003
1.299786e+003, 1.474736e-003
1.301715e+003, 1.464600e-003
1.303643e+003, 1.405233e-003
1.305572e+003, 1.208902e-003
1.307500e+003, 1.040960e-003
1.309429e+003, 1.136390e-003
1.311357e+003, 1.056393e-003
1.313286e+003, 9.669273e-004
1.315214e+003, 8.249237e-004
1.317143e+003, 7.841339e-004
1.319071e+003, 5.557748e-004
1.321000e+003, 5.330604e-004
1.322928e+003, 5.975922e-004
1.324857e+003, 5.250383e-004
1.326785e+003, 5.012500e-004
1.328714e+003, 5.754819e-004
1.330642e+003, 5.600321e-004
1.332570e+003, 4.521312e-004
1.334499e+003, 2.754068e-004
1.336427e+003, 2.805894e-004
1.338356e+003, 2.895128e-004
1.340284e+003, 3.233876e-004
1.342213e+003, 3.501961e-004
1.344141e+003, 4.432206e-004
1.346070e+003, 5.176421e-004
1.347998e+003, 5.021117e-004
1.349927e+003, 4.883705e-004
1.351855e+003, 4.531158e-004
1.353784e+003, 3.323896e-004
1.355712e+003, 4.173219e-004
1.357641e+003, 3.986040e-004
1.359569e+003, 5.072331e-004
1.361497e+003, 5.575302e-004
1.363426e+003, 5.237288e-004
1.365354e+003, 3.705385e-004
1.367283e+003, 3.046090e-004
1.369211e+003, 4.387294e-004
1.371140e+003, 5.455175e-004
1.373068e+003, 5.468767e-004
1.374997e+003, 6.939506e-004
1.376925e+003, 7.746341e-004
1.378854e+003, 7.837247e-004
1.380782e+003, 7.335606e-004
1.382711e+003, 6.409242e-004
1.384639e+003, 5.398674e-004
1.386568e+003, 6.183370e-004
1.388496e+003, 5.419237e-004
1.390424e+003, 4.776623e-004
1.392353e+003, 6.148672e-004
1.394281e+003, 7.514174e-004
1.396210e+003, 7.214697e-004
1.398138e+003, 7.637469e-004
1.400067e+003, 5.576764e-004
1.401995e+003, 3.706280e-004
1.403924e+003, 3.420938e-004
1.405852e+003, 4.315909e-004
1.407781e+003, 5.387591e-004
1.409709e+003, 6.763980e-004
1.411638e+003, 6.739051e-004
1.413566e+003, 6.506785e-004
1.415495e+003, 5.884207e-004
1.417423e+003, 7.375095e-004
1.419351e+003, 7.996325e-004
1.421280e+003, 4.901474e-004
1.423208e+003, 3.898726e-004
1.425137e+003, 4.617530e-004
1.427065e+003, 2.771488e-004
1.428994e+003, 2.847235e-004
1.430922e+003, 4.718835e-004
1.432851e+003, 4.718542e-004
1.434779e+003, 5.437623e-004
1.436708e+003, 9.323050e-004
1.438636e+003, 7.819078e-004
1.440565e+003, 5.592839e-004
1.442493e+003, 3.671779e-004
1.444422e+003, 4.529624e-004
1.446350e+003, 4.741894e-004
1.448278e+003, 4.223821e-004
1.450207e+003, 3.726032e-004
1.452135e+003, 3.377141e-004
1.454064e+003, 4.038692e-004
1.455992e+003, 8.764570e-004
1.457921e+003, 8.060771e-004
1.459849e+003, 3.418312e-004
1.461778e+003, 1.416386e-004
1.463706e+003, 2.834399e-004
1.465635e+003, 2.339681e-004
1.467563e+003, -5.066658e-005
1.469492e+003, -2.365418e-004
1.471420e+003, -4.660721e-005
1.473349e+003, -1.303427e-005
1.475277e+003, -1.493656e-004
1.477205e+003, -3.809788e-004
1.479134e+003, -5.422593e-004
1.481062e+003, -5.733164e-004
1.482991e+003, -4.911874e-004
1.484919e+003, -4.989057e-004
1.486848e+003, -4.440230e-004
1.488776e+003, -3.440780e-004
1.490705e+003, -4.065254e-004
1.492633e+003, -6.543809e-004
1.494562e+003, -6.901518e-004
1.496490e+003, -3.706892e-004
1.498419e+003, -2.052152e-004
1.500347e+003, -3.368646e-004
1.502276e+003, -5.214488e-004
1.504204e+003, -2.235456e-004
1.506132e+003, 3.683971e-004
1.508061e+003, 1.907062e-004
1.509989e+003, -2.156527e-004
1.511918e+003, -2.710633e-004
1.513846e+003, -2.126935e-004
1.515775e+003, -1.140985e-004
1.517703e+003, -6.059382e-005
1.519632e+003, 4.405907e-005
1.521560e+003, 3.799391e-004
1.523489e+003, 3.068340e-004
1.525417e+003, 3.190046e-004
1.527346e+003, 1.949673e-004
1.529274e+003, 3.876446e-005
1.531203e+003, 5.352750e-005
1.533131e+003, 3.351025e-004
1.535059e+003, 3.242270e-004
1.536988e+003, 5.856074e-004
1.538916e+003, 1.172586e-003
1.540845e+003, 1.145415e-003
1.542773e+003, 7.503256e-004
1.544702e+003, 5.969990e-004
1.546630e+003, 6.197488e-004
1.548559e+003, 7.947996e-004
1.550487e+003, 7.793820e-004
1.552416e+003, 9.127126e-004
1.554344e+003, 9.576320e-004
1.556273e+003, 1.038297e-003
1.558201e+003, 1.604480e-003
1.560130e+003, 1.714511e-003
1.562058e+003, 1.011314e-003
1.563986e+003, 7.550915e-004
1.565915e+003, 7.627751e-004
1.567843e+003, 7.938794e-004
1.569772e+003, 8.426611e-004
1.571700e+003, 7.883769e-004
1.573629e+003, 7.606865e-004
1.575557e+003, 1.242448e-003
1.577486e+003, 1.275597e-003
1.579414e+003, 1.072762e-003
1.581343e+003, 1.035292e-003
1.583271e+003, 9.360015e-004
1.585200e+003, 7.242675e-004
1.587128e+003, 7.586306e-004
1.589057e+003, 7.865403e-004
1.590985e+003, 8.052278e-004
1.592913e+003, 8.649657e-004
1.594842e+003, 8.827326e-004
1.596770e+003, 9.253335e-004
1.598699e+003, 1.109258e-003
1.600627e+003, 9.993187e-004
1.602556e+003, 1.067367e-003
1.604484e+003, 1.052040e-003
1.606413e+003, 1.219963e-003
1.608341e+003, 1.278071e-003
1.610270e+003, 1.422656e-003
1.612198e+003, 1.311855e-003
1.614127e+003, 1.333089e-003
1.616055e+003, 1.807590e-003
1.617984e+003, 1.860703e-003
1.619912e+003, 1.698961e-003
1.621840e+003, 1.915411e-003
1.623769e+003, 1.875556e-003
1.625697e+003, 1.850887e-003
1.627626e+003, 1.984867e-003
1.629554e+003, 2.087557e-003
1.631483e+003, 2.204490e-003
1.633411e+003, 2.552085e-003
1.635340e+003, 2.874765e-003
1.637268e+003, 2.739218e-003
1.639197e+003, 2.460017e-003
1.641125e+003, 2.330275e-003
1.643054e+003, 2.466133e-003
1.644982e+003, 2.850125e-003
1.646911e+003, 3.196570e-003
1.648839e+003, 3.024013e-003
1.650767e+003, 3.138788e-003
1.652696e+003, 3.795061e-003
1.654624e+003, 3.262318e-003
1.656553e+003, 2.626473e-003
1.658481e+003, 2.606421e-003
1.660410e+003, 2.621268e-003
1.662338e+003, 2.526639e-003
1.664267e+003, 2.435226e-003
1.666195e+003, 2.350973e-003
1.668124e+003, 2.513191e-003
1.670052e+003, 2.263766e-003
1.671981e+003, 2.148464e-003
1.673909e+003, 2.410715e-003
1.675838e+003, 2.392377e-003
1.677766e+003, 2.024271e-003
1.679694e+003, 2.010245e-003
1.681623e+003, 2.152751e-003
1.683551e+003, 2.738370e-003
1.685480e+003, 2.550100e-003
1.687408e+003, 2.034896e-003
1.689337e+003, 1.910827e-003
1.691265e+003, 1.907502e-003
1.693194e+003, 2.019875e-003
1.695122e+003, 2.520051e-003
1.697051e+003, 2.560778e-003
1.698979e+003, 2.716905e-003
1.700908e+003, 2.636785e-003
1.702836e+003, 2.093502e-003
1.704765e+003, 2.177787e-003
1.706693e+003, 2.364602e-003
1.708621e+003, 2.258407e-003
1.710550e+003, 2.175970e-003
1.712478e+003, 2.091871e-003
1.714407e+003, 2.299501e-003
1.716335e+003, 2.759215e-003
1.718264e+003, 2.778030e-003
1.720192e+003, 2.348084e-003
1.722121e+003, 2.332628e-003
1.724049e+003, 2.443265e-003
1.725978e+003, 2.706528e-003
1.727906e+003, 2.735237e-003
1.729835e+003, 2.598515e-003
1.731763e+003, 2.812296e-003
1.733692e+003, 3.283652e-003
1.735620e+003, 2.706007e-003
1.737548e+003, 1.962184e-003
1.739477e+003, 1.634419e-003
1.741405e+003, 1.087153e-003
1.743334e+003, 5.336357e-004
1.745262e+003, 1.877894e-004
1.747191e+003, 1.512855e-004
1.749119e+003, 2.054796e-004
1.751048e+003, 3.019343e-004
1.752976e+003, 2.065718e-004
1.754905e+003, -3.744580e-005
1.756833e+003, 7.218502e-005
1.758762e+003, -6.683837e-005
1.760690e+003, 3.576251e-005
1.762619e+003, 2.594687e-004
1.764547e+003, 1.245439e-004
1.766475e+003, -1.734647e-004
1.768404e+003, -1.204606e-004
1.770332e+003, 2.991578e-006
1.772261e+003, 2.096667e-004
1.774189e+003, 1.623842e-004
1.776118e+003, 1.150603e-004
1.778046e+003, -7.564168e-005
1.779975e+003, -5.655759e-005
1.781903e+003, -8.843934e-005
1.783832e+003, 3.640987e-005
1.785760e+003, 8.993808e-006
1.787689e+003, -1.079156e-004
1.789617e+003, -9.967227e-005
1.791546e+003, 9.759584e-005
1.793474e+003, -9.079617e-005
1.795402e+003, -2.962581e-004
1.797331e+003, -3.586044e-004
1.799259e+003, -2.253784e-004
1.801188e+003, -1.412513e-004
1.803116e+003, -3.044587e-004
1.805045e+003, -3.934407e-004
1.806973e+003, -6.069305e-004
1.808902e+003, -7.395046e-004
1.810830e+003, -4.130523e-004
1.812759e+003, -4.834870e-004
1.814687e+003, -6.970552e-004
1.816616e+003, -8.174627e-004
1.818544e+003, -7.093129e-004
1.820473e+003, -4.333379e-004
1.822401e+003, -3.791779e-004
1.824329e+003, -5.077164e-004
1.826258e+003, -5.889193e-004
1.828186e+003, -6.492218e-004
1.830115e+003, -5.734995e-004
1.832043e+003, -7.644903e-004
1.833972e+003, -7.005165e-004
1.835900e+003, -3.487275e-004
1.837829e+003, -4.938249e-004
1.839757e+003, -6.658171e-004
1.841686e+003, -4.081973e-004
1.843614e+003, -4.298106e-004
1.845543e+003, -7.962702e-004
1.847471e+003, -1.199269e-003
1.849400e+003, -1.830128e-003
1.851328e+003, -1.914349e-003
1.853256e+003, -1.089892e-003
1.855185e+003, -9.640066e-004
1.857113e+003, -1.279562e-003
1.859042e+003, -1.483999e-003
1.860970e+003, -1.438514e-003
1.862899e+003, -1.509997e-003
1.864827e+003, -1.012587e-003
1.866756e+003, -9.567366e-004
1.868684e+003, -1.490707e-003
1.870613e+003, -1.802389e-003
1.872541e+003, -1.944888e-003
1.874470e+003, -1.649055e-003
1.876398e+003, -1.411092e-003
1.878327e+003, -1.896134e-003
1.880255e+003, -1.973907e-003
1.882183e+003, -1.771098e-003
1.884112e+003, -1.466249e-003
1.886040e+003, -1.785889e-003
1.887969e+003, -2.202889e-003
1.889897e+003, -2.652860e-003
1.891826e+003, -2.730229e-003
1.893754e+003, -2.547624e-003
1.895683e+003, -2.401113e-003
1.897611e+003, -2.354591e-003
1.899540e+003, -2.307151e-003
1.901468e+003, -2.064053e-003
1.903397e+003, -1.869027e-003
1.905325e+003, -2.890580e-003
1.907254e+003, -2.944892e-003
1.909182e+003, -2.621413e-003
1.911110e+003, -2.760900e-003
1.913039e+003, -2.815552e-003
1.914967e+003, -2.999858e-003
1.916896e+003, -3.681659e-003
1.918824e+003, -3.020090e-003
1.920753e+003, -2.843332e-003
1.922681e+003, -3.326220e-003
1.924610e+003, -3.727393e-003
1.926538e+003, -3.697700e-003
1.928467e+003, -4.272415e-003
1.930395e+003, -4.092122e-003
1.932324e+003, -4.363002e-003
1.934252e+003, -4.730566e-003
1.936181e+003, -4.425573e-003
1.938109e+003, -4.169500e-003
1.940037e+003, -4.240617e-003
1.941966e+003, -4.534802e-003
1.943894e+003, -5.234815e-003
1.945823e+003, -5.351811e-003
1.947751e+003, -5.367312e-003
1.949680e+003, -5.451001e-003
1.951608e+003, -5.934468e-003
1.953537e+003, -6.155826e-003
1.955465e+003, -6.395303e-003
1.957394e+003, -5.673662e-003
1.959322e+003, -5.930332e-003
1.961251e+003, -6.835347e-003
1.963179e+003, -7.484848e-003
1.965108e+003, -6.990491e-003
1.967036e+003, -6.125503e-003
1.968964e+003, -5.657234e-003
1.970893e+003, -7.135616e-003
1.972821e+003, -8.415332e-003
1.974750e+003, -8.321116e-003
1.976678e+003, -7.300028e-003
1.978607e+003, -6.090322e-003
1.980535e+003, -6.049146e-003
1.982464e+003, -7.302116e-003
1.984392e+003, -7.388428e-003
1.986321e+003, -7.413683e-003
1.988249e+003, -6.202681e-003
1.990178e+003, -5.962624e-003
1.992106e+003, -7.113506e-003
1.994035e+003, -8.701678e-003
1.995963e+003, -8.869573e-003
1.997891e+003, -9.062900e-003
1.999820e+003, -8.660929e-003
2.001748e+003, -8.542730e-003
2.003677e+003, -8.975345e-003
2.005605e+003, -9.142019e-003
2.007534e+003, -8.730426e-003
2.009462e+003, -8.347566e-003
2.011391e+003, -8.289893e-003
2.013319e+003, -7.883691e-003
2.015248e+003, -8.158810e-003
2.017176e+003, -1.001596e-002
2.019105e+003, -1.061987e-002
2.021033e+003, -1.046109e-002
2.022962e+003, -9.086673e-003
2.024890e+003, -9.020829e-003
2.026818e+003, -9.525621e-003
2.028747e+003, -1.032279e-002
2.030675e+003, -9.628208e-003
2.032604e+003, -8.074464e-003
2.034532e+003, -7.082990e-003
2.036461e+003, -7.574867e-003
2.038389e+003, -7.545611e-003
2.040318e+003, -7.950486e-003
2.042246e+003, -7.808636e-003
2.044175e+003, -7.494562e-003
2.046103e+003, -7.301480e-003
2.048031e+003, -7.474923e-003
2.049960e+003, -6.536739e-003
2.051888e+003, -6.349778e-003
2.053817e+003, -6.798004e-003
2.055745e+003, -6.337501e-003
2.057674e+003, -5.993791e-003
2.059602e+003, -6.195833e-003
2.061531e+003, -5.857101e-003
2.063459e+003, -5.239287e-003
2.065388e+003, -5.173697e-003
2.067316e+003, -5.727759e-003
2.069245e+003, -6.154297e-003
2.071173e+003, -6.280595e-003
2.073102e+003, -5.404573e-003
2.075030e+003, -5.050114e-003
2.076958e+003, -4.402059e-003
2.078887e+003, -4.241963e-003
2.080815e+003, -4.599441e-003
2.082744e+003, -5.543094e-003
2.084672e+003, -5.851204e-003
2.086601e+003, -5.299971e-003
2.088529e+003, -4.548809e-003
2.090458e+003, -4.623166e-003
2.092386e+003, -5.090701e-003
2.094315e+003, -5.572717e-003
2.096243e+003, -4.956893e-003
2.098172e+003, -4.136130e-003
2.100100e+003, -4.076617e-003
2.102029e+003, -4.772231e-003
2.103957e+003, -4.935474e-003
2.105885e+003, -4.959708e-003
2.107814e+003, -4.711787e-003
2.109742e+003, -4.309724e-003
2.111671e+003, -4.212679e-003
2.113599e+003, -3.972157e-003
2.115528e+003, -4.200418e-003
2.117456e+003, -5.090228e-003
2.119385e+003, -4.975925e-003
2.121313e+003, -4.886700e-003
2.123242e+003, -4.810244e-003
2.125170e+003, -5.314908e-003
2.127099e+003, -5.504289e-003
2.129027e+003, -6.102619e-003
2.130956e+003, -6.432711e-003
2.132884e+003, -6.402458e-003
2.134813e+003, -5.733975e-003
2.136741e+003, -6.075496e-003
2.138669e+003, -5.951856e-003
2.140598e+003, -5.639051e-003
2.142526e+003, -4.774269e-003
2.144455e+003, -4.099333e-003
2.146383e+003, -4.630093e-003
2.148312e+003, -5.253805e-003
2.150240e+003, -3.628277e-003
2.152169e+003, -3.957873e-003
2.154097e+003, -5.218272e-003
2.156026e+003, -6.282409e-003
2.157954e+003, -4.618197e-003
2.159883e+003, -2.684019e-003
2.161811e+003, -2.259912e-003
2.163740e+003, -3.224252e-003
2.165668e+003, -3.704558e-003
2.167596e+003, -4.437199e-003
2.169525e+003, -3.975690e-003
2.171453e+003, -3.626588e-003
2.173382e+003, -4.121075e-003
2.175310e+003, -3.384999e-003
2.177239e+003, -3.329269e-003
2.179167e+003, -4.883430e-003
2.181096e+003, -4.695768e-003
2.183024e+003, -4.033559e-003
2.184953e+003, -3.103905e-003
2.186881e+003, -1.772750e-003
2.188810e+003, -1.637778e-003
2.190738e+003, -1.764864e-003
2.192667e+003, -1.775337e-003
2.194595e+003, -1.863991e-003
2.196523e+003, -1.527151e-003
2.198452e+003, -2.205994e-003
2.200380e+003, -3.519827e-003
2.202309e+003, -4.261798e-003
2.204237e+003, -3.963661e-003
2.206166e+003, -3.879841e-003
2.208094e+003, -4.139837e-003
2.210023e+003, -4.144036e-003
2.211951e+003, -3.112015e-003
2.213880e+003, -2.605403e-003
2.215808e+003, -2.993684e-003
2.217737e+003, -3.155458e-003
2.219665e+003, -2.719073e-003
2.221594e+003, -2.280916e-003
2.223522e+003, -1.768625e-003
2.225450e+003, -1.815129e-003
2.227379e+003, -1.800791e-003
2.229307e+003, -2.771985e-003
2.231236e+003, -2.382121e-003
2.233164e+003, -1.777107e-003
2.235093e+003, -1.848052e-003
2.237021e+003, -2.100260e-003
2.238950e+003, -2.130718e-003
2.240878e+003, -2.009932e-003
2.242807e+003, -1.882615e-003
2.244735e+003, -2.010645e-003
2.246664e+003, -2.083314e-003
2.248592e+003, -2.318447e-003
2.250521e+003, -2.462811e-003
2.252449e+003, -2.441174e-003
2.254377e+003, -1.809049e-003
2.256306e+003, -1.975274e-003
2.258234e+003, -1.998842e-003
2.260163e+003, -1.450114e-003
2.262091e+003, -9.944873e-004
2.264020e+003, -1.511837e-003
2.265948e+003, -1.622118e-003
2.267877e+003, -1.164643e-003
2.269805e+003, -1.732468e-003
2.271734e+003, -2.234768e-003
2.273662e+003, -1.524519e-003
2.275591e+003, -1.164236e-003
2.277519e+003, -1.547072e-003
2.279448e+003, -1.948121e-003
2.281376e+003, -1.829658e-003
2.283304e+003, -1.339627e-003
2.285233e+003, -5.212641e-004
2.287161e+003, -4.120977e-004
2.289090e+003, -7.745490e-004
2.291018e+003, -1.131034e-003
2.292947e+003, -1.160064e-003
2.294875e+003, -1.217165e-003
2.296804e+003, -1.412601e-003
2.298732e+003, -2.022678e-003
2.300661e+003, -2.361562e-003
2.302589e+003, -2.177883e-003
2.304518e+003, -1.601319e-003
2.306446e+003, -1.481488e-003
2.308375e+003, -1.370300e-003
2.310303e+003, -1.327029e-003
2.312231e+003, -1.298832e-003
2.314160e+003, -1.193696e-003
2.316088e+003, -1.062077e-003
2.318017e+003, -1.230283e-003
2.319945e+003, -8.910575e-004
2.321874e+003, -5.750645e-004
2.323802e+003, -2.529803e-004
2.325731e+003, -7.570703e-004
2.327659e+003, -1.048507e-003
2.329588e+003, -8.996967e-004
2.331516e+003, -5.705811e-004
2.333445e+003, -5.739121e-004
2.335373e+003, -6.560505e-004
2.337302e+003, -9.668954e-004
2.339230e+003, -1.056584e-003
2.341158e+003, -8.874246e-004
2.343087e+003, -6.903374e-004
2.345015e+003, -8.470420e-004
2.346944e+003, -1.103259e-003
2.348872e+003, -1.288556e-003
2.350801e+003, -1.117599e-003
2.352729e+003, -7.611071e-004
2.354658e+003, -4.309659e-004
2.356586e+003, -5.518215e-004
2.358515e+003, -4.570587e-004
2.360443e+003, -1.509361e-004
2.362372e+003, 8.054805e-005
2.364300e+003, -6.353081e-005
2.366229e+003, -5.615236e-004
2.368157e+003, -8.989913e-004
2.370085e+003, -6.231865e-004
2.372014e+003, -1.035589e-003
2.373942e+003, -1.415585e-003
2.375871e+003, -1.242433e-003
2.377799e+003, -1.226994e-003
2.379728e+003, -1.374781e-003
2.381656e+003, -1.186815e-003
2.383585e+003, -1.471494e-003
2.385513e+003, -1.718205e-003
2.387442e+003, -1.620556e-003
2.389370e+003, -1.772989e-003
2.391299e+003, -1.795460e-003
2.393227e+003, -1.600414e-003
2.395156e+003, -1.219939e-003
2.397084e+003, -7.582333e-004
2.399012e+003, -1.100579e-003
2.400941e+003, -1.676978e-003
2.402869e+003, -1.420352e-003
2.404798e+003, -1.414012e-003
2.406726e+003, -1.694951e-003
2.408655e+003, -1.274164e-003
2.410583e+003, -1.395877e-003
2.412512e+003, -1.457662e-003
2.414440e+003, -1.395793e-003
2.416369e+003, -1.021600e-003
2.418297e+003, -7.249077e-004
2.420226e+003, -6.692285e-004
2.422154e+003, -1.048099e-003
2.424083e+003, -1.569079e-003
2.426011e+003, -1.659738e-003
2.427939e+003, -1.349045e-003
2.429868e+003, -8.348139e-004
2.431796e+003, -4.971933e-004
2.433725e+003, -9.068012e-004
2.435653e+003, -1.442309e-003
2.437582e+003, -1.728293e-003
2.439510e+003, -1.540485e-003
2.441439e+003, -1.449451e-003
2.443367e+003, -1.276597e-003
2.445296e+003, -9.574976e-004
2.447224e+003, -2.367460e-004
2.449153e+003, -3.316908e-004
2.451081e+003, -9.666599e-004
2.453010e+003, -7.116772e-004
2.454938e+003, -3.269447e-004
2.456866e+003, -4.185071e-004
2.458795e+003, -9.330732e-004
2.460723e+003, -1.176862e-003
2.462652e+003, -7.416283e-004
2.464580e+003, -4.129642e-004
2.466509e+003, -3.240739e-004
2.468437e+003, -8.288594e-004
2.470366e+003, -1.036824e-003
2.472294e+003, -8.688706e-004
2.474223e+003, -8.987096e-004
2.476151e+003, -1.273895e-003
2.478080e+003, -9.198820e-004
2.480008e+003, -8.948995e-004
2.481937e+003, -7.291096e-004
2.483865e+003, -3.869075e-004
2.485793e+003, -4.641059e-004
2.487722e+003, -9.728749e-004
2.489650e+003, -9.517058e-004
2.491579e+003, -8.857942e-004
2.493507e+003, -4.136818e-004
2.495436e+003, -6.358203e-005
2.497364e+003, -2.850286e-004
2.499293e+003, -5.080135e-004
2.501221e+003, -5.870975e-004
2.503150e+003, -5.039892e-004
2.505078e+003, -9.978237e-004
2.507007e+003, -1.811186e-003
2.508935e+003, -1.593622e-003
2.510864e+003, -1.182808e-003
2.512792e+003, -1.104953e-003
2.514720e+003, -9.103392e-004
2.516649e+003, -5.810512e-004
2.518577e+003, -9.277445e-004
2.520506e+003, -1.486218e-003
2.522434e+003, -1.312064e-003
2.524363e+003, -1.300870e-003
2.526291e+003, -1.409544e-003
2.528220e+003, -7.926819e-004
2.530148e+003, -3.745904e-004
2.532077e+003, -7.813155e-004
2.534005e+003, -1.088614e-003
2.535934e+003, -9.490817e-004
2.537862e+003, -8.641865e-004
2.539791e+003, -9.575039e-004
2.541719e+003, -7.929589e-004
2.543647e+003, -1.095367e-003
2.545576e+003, -7.258896e-004
2.547504e+003, -5.677588e-004
2.549433e+003, -1.070600e-003
2.551361e+003, -6.215946e-004
2.553290e+003, -7.630904e-004
2.555218e+003, -1.210468e-003
2.557147e+003, -1.184552e-003
2.559075e+003, -1.367794e-003
2.561004e+003, -1.674483e-003
2.562932e+003, -1.563134e-003
2.564861e+003, -1.260876e-003
2.566789e+003, -7.626205e-004
2.568718e+003, -3.947646e-004
2.570646e+003, -9.982167e-005
2.572574e+003, -5.080841e-004
2.574503e+003, -9.138261e-004
2.576431e+003, -9.884613e-004
2.578360e+003, -1.695726e-003
2.580288e+003, -2.104117e-003
2.582217e+003, -1.640767e-003
2.584145e+003, -1.551618e-003
2.586074e+003, -1.335667e-003
2.588002e+003, -1.405608e-003
2.589931e+003, -1.357715e-003
2.591859e+003, -1.101629e-003
2.593788e+003, -9.624044e-004
2.595716e+003, -1.009093e-003
2.597645e+003, -8.482496e-004
2.599573e+003, -1.019026e-003
2.601501e+003, -9.036858e-004
2.603430e+003, -9.508128e-004
2.605358e+003, -1.129099e-003
2.607287e+003, -1.479411e-003
2.609215e+003, -1.538093e-003
2.611144e+003, -1.569988e-003
2.613072e+003, -1.551348e-003
2.615001e+003, -1.833066e-003
2.616929e+003, -1.941413e-003
2.618858e+003, -1.404080e-003
2.620786e+003, -1.119910e-003
2.622715e+003, -1.275255e-003
2.624643e+003, -1.154572e-003
2.626572e+003, -1.074997e-003
2.628500e+003, -1.367583e-003
2.630428e+003, -1.710129e-003
2.632357e+003, -1.636570e-003
2.634285e+003, -1.631580e-003
2.636214e+003, -1.451945e-003
2.638142e+003, -1.454491e-003
2.640071e+003, -1.615684e-003
2.641999e+003, -1.692127e-003
2.643928e+003, -1.551207e-003
2.645856e+003, -1.845592e-003
2.647785e+003, -1.807871e-003
2.649713e+003, -1.450436e-003
2.651642e+003, -1.359966e-003
2.653570e+003, -2.105075e-003
2.655499e+003, -2.121535e-003
2.657427e+003, -1.479106e-003
2.659355e+003, -1.174771e-003
2.661284e+003, -1.342188e-003
2.663212e+003, -1.323064e-003
2.665141e+003, -1.270215e-003
2.667069e+003, -1.309798e-003
2.668998e+003, -1.663853e-003
2.670926e+003, -1.806000e-003
2.672855e+003, -1.834008e-003
2.674783e+003, -1.760557e-003
2.676712e+003, -1.775907e-003
2.678640e+003, -2.069503e-003
2.680569e+003, -2.287836e-003
2.682497e+003, -1.811339e-003
2.684426e+003, -1.849851e-003
2.686354e+003, -1.992828e-003
2.688282e+003, -2.104249e-003
2.690211e+003, -1.864517e-003
2.692139e+003, -1.737957e-003
2.694068e+003, -1.611112e-003
2.695996e+003, -1.800297e-003
2.697925e+003, -1.579138e-003
2.699853e+003, -1.611087e-003
2.701782e+003, -1.975049e-003
2.703710e+003, -1.729773e-003
2.705639e+003, -1.499673e-003
2.707567e+003, -1.902879e-003
2.709496e+003, -1.912481e-003
2.711424e+003, -1.932050e-003
2.713353e+003, -1.987636e-003
2.715281e+003, -1.749663e-003
2.717209e+003, -1.555270e-003
2.719138e+003, -1.769061e-003
2.721066e+003, -1.581428e-003
2.722995e+003, -1.414585e-003
2.724923e+003, -1.368783e-003
2.726852e+003, -1.236990e-003
2.728780e+003, -1.435471e-003
2.730709e+003, -1.963045e-003
2.732637e+003, -1.879367e-003
2.734566e+003, -1.736124e-003
2.736494e+003, -1.812311e-003
2.738423e+003, -1.734223e-003
2.740351e+003, -1.412537e-003
2.742280e+003, -1.100476e-003
2.744208e+003, -1.086079e-003
2.746136e+003, -1.434332e-003
2.748065e+003, -1.312284e-003
2.749993e+003, -1.335413e-003
2.751922e+003, -1.053785e-003
2.753850e+003, -1.099194e-003
2.755779e+003, -1.262244e-003
2.757707e+003, -1.529081e-003
2.759636e+003, -1.691960e-003
2.761564e+003, -1.250178e-003
2.763493e+003, -1.009362e-003
2.765421e+003, -1.121389e-003
2.767350e+003, -1.142599e-003
2.769278e+003, -1.302249e-003
2.771207e+003, -1.141164e-003
2.773135e+003, -1.130117e-003
2.775063e+003, -1.060074e-003
2.776992e+003, -1.028542e-003
2.778920e+003, -9.373466e-004
2.780849e+003, -1.027485e-003
2.782777e+003, -1.233345e-003
2.784706e+003, -1.283605e-003
2.786634e+003, -1.073350e-003
2.788563e+003, -1.031812e-003
2.790491e+003, -6.860457e-004
2.792420e+003, -5.144177e-004
2.794348e+003, -7.037428e-004
2.796277e+003, -9.947671e-004
2.798205e+003, -8.500923e-004
2.800134e+003, -5.947582e-004
2.802062e+003, -6.863851e-004
2.803990e+003, -8.106271e-004
2.805919e+003, -4.450659e-004
2.807847e+003, -7.600478e-004
2.809776e+003, -1.029894e-003
2.811704e+003, -6.125802e-004
2.813633e+003, -3.722920e-004
2.815561e+003, -3.469930e-004
2.817490e+003, 1.401336e-004
2.819418e+003, 1.756284e-005
2.821347e+003, -4.543171e-005
2.823275e+003, 9.485982e-005
2.825204e+003, -7.703895e-005
2.827132e+003, -5.067676e-005
2.829061e+003, 6.281128e-004
2.830989e+003, 4.825189e-004
2.832917e+003, 7.781738e-005
2.834846e+003, 3.350935e-004
2.836774e+003, 1.003322e-003
2.838703e+003, 1.264219e-003
2.840631e+003, 1.041330e-003
2.842560e+003, 7.187503e-004
2.844488e+003, 1.109342e-003
2.846417e+003, 1.240087e-003
2.848345e+003, 1.155339e-003
2.850274e+003, 1.239404e-003
2.852202e+003, 1.527007e-003
2.854131e+003, 1.539023e-003
2.856059e+003, 1.462276e-003
2.857988e+003, 1.610225e-003
2.859916e+003, 1.457514e-003
2.861844e+003, 1.612588e-003
2.863773e+003, 1.993969e-003
2.865701e+003, 1.642618e-003
2.867630e+003, 1.501685e-003
2.869558e+003, 1.344967e-003
2.871487e+003, 1.299773e-003
2.873415e+003, 1.245941e-003
2.875344e+003, 9.057912e-004
2.877272e+003, 7.503261e-004
2.879201e+003, 8.417072e-004
2.881129e+003, 8.088368e-004
2.883058e+003, 1.180797e-003
2.884986e+003, 1.635582e-003
2.886915e+003, 1.267210e-003
2.888843e+003, 9.825578e-004
2.890771e+003, 1.308023e-003
2.892700e+003, 1.099749e-003
2.894628e+003, 7.951596e-004
2.896557e+003, 7.073400e-004
2.898485e+003, 1.606789e-003
2.900414e+003, 1.971449e-003
2.902342e+003, 2.141615e-003
2.904271e+003, 2.500132e-003
2.906199e+003, 2.205906e-003
2.908128e+003, 2.200420e-003
2.910056e+003, 2.578830e-003
2.911985e+003, 2.538193e-003
2.913913e+003, 2.926133e-003
2.915842e+003, 3.478225e-003
2.917770e+003, 3.550424e-003
2.919698e+003, 3.773494e-003
2.921627e+003, 4.271261e-003
2.923555e+003, 4.127615e-003
2.925484e+003, 3.915144e-003
2.927412e+003, 4.212762e-003
2.929341e+003, 4.090309e-003
2.931269e+003, 3.393689e-003
2.933198e+003, 3.115400e-003
2.935126e+003, 3.216015e-003
2.937055e+003, 2.977757e-003
2.938983e+003, 2.150606e-003
2.940912e+003, 1.877474e-003
2.942840e+003, 1.928606e-003
2.944769e+003, 2.196965e-003
2.946697e+003, 1.475251e-003
2.948625e+003, 1.216550e-003
2.950554e+003, 1.699185e-003
2.952482e+003, 2.125697e-003
2.954411e+003, 2.482973e-003
2.956339e+003, 2.650470e-003
2.958268e+003, 2.364932e-003
2.960196e+003, 2.342989e-003
2.962125e+003, 2.561933e-003
2.964053e+003, 2.717223e-003
2.965982e+003, 2.181585e-003
2.967910e+003, 1.937551e-003
2.969839e+003, 1.698861e-003
2.971767e+003, 1.474001e-003
2.973696e+003, 4.328187e-004
2.975624e+003, -2.336477e-004
2.977552e+003, -2.310372e-004
2.979481e+003, -4.076586e-004
2.981409e+003, -6.033439e-004
2.983338e+003, -5.063099e-004
2.985266e+003, -4.359393e-004
2.987195e+003, -4.131667e-004
2.989123e+003, -5.380812e-004
2.991052e+003, -4.533292e-004
2.992980e+003, -1.668916e-004
2.994909e+003, -2.381384e-004
2.996837e+003, -5.672612e-004
2.998766e+003, -4.301630e-004
3.000694e+003, -9.797644e-004
3.002623e+003, -8.004420e-004
3.004551e+003, -3.251989e-004
3.006479e+003, 5.777787e-006
3.008408e+003, 2.557061e-004
3.010336e+003, -6.812379e-005
3.012265e+003, -4.132418e-004
3.014193e+003, 1.415268e-004
3.016122e+003, 3.782135e-004
3.018050e+003, -9.829651e-005
3.019979e+003, -6.936610e-004
3.021907e+003, -1.309609e-004
3.023836e+003, 5.811259e-005
3.025764e+003, 2.845567e-004
3.027693e+003, -6.931908e-005
3.029621e+003, -1.893098e-004
3.031550e+003, -1.440338e-004
3.033478e+003, -4.502833e-005
3.035406e+003, -6.879170e-005
3.037335e+003, 2.129697e-004
3.039263e+003, 6.072535e-005
3.041192e+003, 1.393681e-004
3.043120e+003, -1.546655e-004
3.045049e+003, 1.717340e-004
3.046977e+003, 6.945760e-004
3.048906e+003, 6.342705e-004
3.050834e+003, 4.902589e-004
3.052763e+003, 9.076293e-004
3.054691e+003, 1.211582e-003
3.056620e+003, 1.265466e-003
3.058548e+003, 3.431886e-004
3.060477e+003, 1.192587e-004
3.062405e+003, 8.117835e-005
3.064333e+003, 5.909396e-005
3.066262e+003, 1.699837e-004
3.068190e+003, 7.585094e-004
3.070119e+003, 7.544058e-004
3.072047e+003, 5.062944e-004
3.073976e+003, 8.663391e-004
3.075904e+003, 1.632997e-003
3.077833e+003, 1.314059e-003
3.079761e+003, 9.120824e-004
3.081690e+003, 1.112836e-003
3.083618e+003, 1.269996e-003
3.085547e+003, 1.087728e-003
3.087475e+003, 1.494727e-003
3.089404e+003, 9.699463e-004
3.091332e+003, 3.952266e-004
3.093260e+003, 4.067507e-004
3.095189e+003, 3.948990e-004
3.097117e+003, 6.683249e-004
3.099046e+003, 9.715350e-004
3.100974e+003, 7.819323e-004
3.102903e+003, 5.465550e-004
3.104831e+003, 4.164019e-004
3.106760e+003, 1.009803e-003
3.108688e+003, 6.120819e-004
3.110617e+003, 5.756504e-004
3.112545e+003, 5.715708e-004
3.114474e+003, 7.123369e-004
3.116402e+003, 1.142423e-003
3.118331e+003, 1.798081e-003
3.120259e+003, 2.138381e-003
3.122188e+003, 2.046764e-003
3.124116e+003, 1.938141e-003
3.126044e+003, 2.205526e-003
3.127973e+003, 1.644764e-003
3.129901e+003, 1.443216e-003
3.131830e+003, 1.571261e-003
3.133758e+003, 1.850542e-003
3.135687e+003, 2.192453e-003
3.137615e+003, 2.614236e-003
3.139544e+003, 2.609589e-003
3.141472e+003, 1.833835e-003
3.143401e+003, 1.912244e-003
3.145329e+003, 2.449847e-003
3.147258e+003, 2.325888e-003
3.149186e+003, 2.850655e-003
3.151115e+003, 2.569623e-003
3.153043e+003, 2.446017e-003
3.154971e+003, 2.796812e-003
3.156900e+003, 2.428890e-003
3.158828e+003, 1.698609e-003
3.160757e+003, 2.524185e-003
3.162685e+003, 3.068082e-003
3.164614e+003, 3.054820e-003
3.166542e+003, 3.046797e-003
3.168471e+003, 3.684942e-003
3.170399e+003, 3.340588e-003
3.172328e+003, 2.777440e-003
3.174256e+003, 2.910238e-003
3.176185e+003, 2.814878e-003
3.178113e+003, 2.574232e-003
3.180042e+003, 2.950070e-003
3.181970e+003, 3.377194e-003
3.183898e+003, 3.305638e-003
3.185827e+003, 2.997963e-003
3.187755e+003, 3.561756e-003
3.189684e+003, 3.275944e-003
3.191612e+003, 3.192808e-003
3.193541e+003, 3.694895e-003
3.195469e+003, 4.294943e-003
3.197398e+003, 4.317195e-003
3.199326e+003, 4.424226e-003
3.201255e+003, 3.641179e-003
3.203183e+003, 2.953351e-003
3.205112e+003, 3.175550e-003
3.207040e+003, 3.089917e-003
3.208969e+003, 3.115219e-003
3.210897e+003, 4.286651e-003
3.212825e+003, 4.943630e-003
3.214754e+003, 4.798234e-003
3.216682e+003, 4.143854e-003
3.218611e+003, 4.476249e-003
3.220539e+003, 4.750547e-003
3.222468e+003, 4.739893e-003
3.224396e+003, 4.615382e-003
3.226325e+003, 4.653430e-003
3.228253e+003, 4.979606e-003
3.230182e+003, 4.391307e-003
3.232110e+003, 3.854419e-003
3.234039e+003, 4.195554e-003
3.235967e+003, 4.644209e-003
3.237896e+003, 4.633951e-003
3.239824e+003, 4.562506e-003
3.241752e+003, 4.870112e-003
3.243681e+003, 4.638565e-003
3.245609e+003, 4.857993e-003
3.247538e+003, 4.954929e-003
3.249466e+003, 4.830814e-003
3.251395e+003, 4.742554e-003
3.253323e+003, 4.587681e-003
3.255252e+003, 4.168551e-003
3.257180e+003, 4.662309e-003
3.259109e+003, 4.761066e-003
3.261037e+003, 4.349905e-003
3.262966e+003, 4.180490e-003
3.264894e+003, 4.789163e-003
3.266823e+003, 4.693161e-003
3.268751e+003, 4.583794e-003
3.270679e+003, 4.504089e-003
3.272608e+003, 4.810924e-003
3.274536e+003, 4.810928e-003
3.276465e+003, 4.611492e-003
3.278393e+003, 4.878069e-003
3.280322e+003, 5.213621e-003
3.282250e+003, 4.851070e-003
3.284179e+003, 4.149061e-003
3.286107e+003, 3.865533e-003
3.288036e+003, 4.456843e-003
3.289964e+003, 4.145000e-003
3.291893e+003, 4.876266e-003
3.293821e+003, 5.638670e-003
3.295750e+003, 5.426120e-003
3.297678e+003, 5.170802e-003
3.299606e+003, 5.385720e-003
3.301535e+003, 5.463867e-003
3.303463e+003, 5.177017e-003
3.305392e+003, 4.363370e-003
3.307320e+003, 4.438353e-003
3.309249e+003, 4.911548e-003
3.311177e+003, 4.439017e-003
3.313106e+003, 4.566259e-003
3.315034e+003, 5.485656e-003
3.316963e+003, 6.043111e-003
3.318891e+003, 5.611483e-003
3.320820e+003, 4.898800e-003
3.322748e+003, 5.821165e-003
3.324677e+003, 6.474052e-003
3.326605e+003, 6.777556e-003
3.328533e+003, 6.732398e-003
3.330462e+003, 6.179301e-003
3.332390e+003, 5.098132e-003
3.334319e+003, 5.144655e-003
3.336247e+003, 5.852473e-003
3.338176e+003, 5.563699e-003
3.340104e+003, 5.348625e-003
3.342033e+003, 5.484314e-003
3.343961e+003, 5.816500e-003
3.345890e+003, 6.064418e-003
3.347818e+003, 5.750039e-003
3.349747e+003, 5.992724e-003
3.351675e+003, 6.044460e-003
3.353604e+003, 6.528372e-003
3.355532e+003, 6.866316e-003
3.357460e+003, 6.725302e-003
3.359389e+003, 6.435767e-003
3.361317e+003, 6.494836e-003
3.363246e+003, 6.035449e-003
3.365174e+003, 5.796417e-003
3.367103e+003, 6.075643e-003
3.369031e+003, 6.394254e-003
3.370960e+003, 6.245466e-003
3.372888e+003, 6.284281e-003
3.374817e+003, 6.171758e-003
3.376745e+003, 6.177083e-003
3.378674e+003, 6.179711e-003
3.380602e+003, 6.707403e-003
3.382531e+003, 6.525693e-003
3.384459e+003, 6.094461e-003
3.386387e+003, 5.660048e-003
3.388316e+003, 6.397704e-003
3.390244e+003, 6.823699e-003
3.392173e+003, 6.658438e-003
3.394101e+003, 5.975189e-003
3.396030e+003, 5.292495e-003
3.397958e+003, 5.415278e-003
3.399887e+003, 6.997938e-003
3.401815e+003, 7.251988e-003
3.403744e+003, 6.347207e-003
3.405672e+003, 5.781546e-003
3.407601e+003, 6.399304e-003
3.409529e+003, 7.045140e-003
3.411458e+003, 6.813022e-003
3.413386e+003, 6.758474e-003
3.415314e+003, 6.695564e-003
3.417243e+003, 6.098695e-003
3.419171e+003, 6.383827e-003
3.421100e+003, 6.644280e-003
3.423028e+003, 6.778705e-003
3.424957e+003, 6.956045e-003
3.426885e+003, 6.520366e-003
3.428814e+003, 6.255675e-003
3.430742e+003, 6.445616e-003
3.432671e+003, 6.629965e-003
3.434599e+003, 7.323821e-003
3.436528e+003, 7.634513e-003
3.438456e+003, 7.041267e-003
3.440385e+003, 6.622994e-003
3.442313e+003, 7.534676e-003
3.444241e+003, 7.540273e-003
3.446170e+003, 7.283663e-003
3.448098e+003, 6.668828e-003
3.450027e+003, 6.647068e-003
3.451955e+003, 6.487424e-003
3.453884e+003, 6.049524e-003
3.455812e+003, 5.928397e-003
3.457741e+003, 6.312477e-003
3.459669e+003, 5.790932e-003
3.461598e+003, 4.750781e-003
3.463526e+003, 4.724302e-003
3.465455e+003, 5.516161e-003
3.467383e+003, 6.276318e-003
3.469312e+003, 6.014453e-003
3.471240e+003, 4.934902e-003
3.473168e+003, 5.415829e-003
3.475097e+003, 6.061592e-003
3.477025e+003, 5.798126e-003
3.478954e+003, 5.767900e-003
3.480882e+003, 5.703948e-003
3.482811e+003, 5.277881e-003
3.484739e+003, 5.624736e-003
3.486668e+003, 5.638517e-003
3.488596e+003, 5.987190e-003
3.490525e+003, 5.796139e-003
3.492453e+003, 5.130162e-003
3.494382e+003, 4.199000e-003
3.496310e+003, 4.363613e-003
3.498239e+003, 4.264541e-003
3.500167e+003, 4.624792e-003
3.502095e+003, 4.742921e-003
3.504024e+003, 4.757646e-003
3.505952e+003, 5.021081e-003
3.507881e+003, 5.515101e-003
3.509809e+003, 5.742711e-003
3.511738e+003, 5.445493e-003
3.513666e+003, 4.527374e-003
3.515595e+003, 4.095189e-003
3.517523e+003, 4.630306e-003
3.519452e+003, 5.645067e-003
3.521380e+003, 6.068991e-003
3.523309e+003, 5.866164e-003
3.525237e+003, 4.930927e-003
3.527166e+003, 4.813921e-003
3.529094e+003, 4.644013e-003
3.531022e+003, 4.325509e-003
3.532951e+003, 4.731399e-003
3.534879e+003, 5.333985e-003
3.536808e+003, 4.529924e-003
3.538736e+003, 4.096281e-003
3.540665e+003, 3.858803e-003
3.542593e+003, 3.913624e-003
3.544522e+003, 4.056229e-003
3.546450e+003, 4.133017e-003
3.548379e+003, 4.847590e-003
3.550307e+003, 5.213964e-003
3.552236e+003, 5.082288e-003
3.554164e+003, 4.860692e-003
3.556093e+003, 5.191131e-003
3.558021e+003, 4.745579e-003
3.559949e+003, 4.492842e-003
3.561878e+003, 4.294900e-003
3.563806e+003, 4.074273e-003
3.565735e+003, 4.477038e-003
3.567663e+003, 4.040044e-003
3.569592e+003, 4.032385e-003
3.571520e+003, 3.202952e-003
3.573449e+003, 2.738585e-003
3.575377e+003, 4.220182e-003
3.577306e+003, 4.663348e-003
3.579234e+003, 4.665029e-003
3.581163e+003, 5.683072e-003
3.583091e+003, 6.518905e-003
3.585020e+003, 6.399554e-003
3.586948e+003, 6.110643e-003
3.588876e+003, 6.031676e-003
3.590805e+003, 5.102018e-003
3.592733e+003, 5.544329e-003
3.594662e+003, 5.887524e-003
3.596590e+003, 6.358944e-003
3.598519e+003, 6.312192e-003
3.600447e+003, 6.439792e-003
3.602376e+003, 6.347721e-003
3.604304e+003, 6.772062e-003
3.606233e+003, 7.664590e-003
3.608161e+003, 9.001481e-003
3.610090e+003, 1.135076e-002
3.612018e+003, 1.301853e-002
3.613947e+003, 1.365830e-002
3.615875e+003, 1.432729e-002
3.617803e+003, 1.595763e-002
3.619732e+003, 1.765263e-002
3.621660e+003, 1.853336e-002
3.623589e+003, 2.041160e-002
3.625517e+003, 2.170590e-002
3.627446e+003, 2.146266e-002
3.629374e+003, 2.101322e-002
3.631303e+003, 2.011708e-002
3.633231e+003, 1.888178e-002
3.635160e+003, 1.793665e-002
3.637088e+003, 1.664262e-002
3.639017e+003, 1.489032e-002
3.640945e+003, 1.370411e-002
3.642874e+003, 1.352266e-002
3.644802e+003, 1.432589e-002
3.646730e+003, 1.472491e-002
3.648659e+003, 1.402109e-002
3.650587e+003, 1.284070e-002
3.652516e+003, 1.075937e-002
3.654444e+003, 9.172969e-003
3.656373e+003, 8.566593e-003
3.658301e+003, 7.725802e-003
3.660230e+003, 6.501053e-003
3.662158e+003, 5.100899e-003
3.664087e+003, 3.815992e-003
3.666015e+003, 3.011656e-003
3.667944e+003, 2.153454e-003
3.669872e+003, 1.415417e-003
3.671801e+003, -9.866450e-005
3.673729e+003, -1.430728e-003
3.675657e+003, -2.423230e-003
3.677586e+003, -2.806494e-003
3.679514e+003, -3.185323e-003
3.681443e+003, -5.275507e-003
3.683371e+003, -6.037385e-003
3.685300e+003, -5.865362e-003
3.687228e+003, -4.433493e-003
3.689157e+003, -3.138040e-003
3.691085e+003, -4.591309e-003
3.693014e+003, -5.678537e-003
3.694942e+003, -6.270755e-003
3.696871e+003, -6.280495e-003
3.698799e+003, -6.762366e-003
3.700728e+003, -6.413214e-003
3.702656e+003, -5.933690e-003
3.704584e+003, -6.578460e-003
3.706513e+003, -8.086947e-003
3.708441e+003, -8.011317e-003
3.710370e+003, -7.107297e-003
3.712298e+003, -5.891665e-003
3.714227e+003, -6.134917e-003
3.716155e+003, -7.627781e-003
3.718084e+003, -8.170416e-003
3.720012e+003, -7.201850e-003
3.721941e+003, -7.094960e-003
3.723869e+003, -7.832846e-003
3.725798e+003, -8.600384e-003
3.727726e+003, -8.029380e-003
3.729655e+003, -8.237154e-003
3.731583e+003, -8.028829e-003
3.733511e+003, -7.058635e-003
3.735440e+003, -6.260702e-003
3.737368e+003, -7.512076e-003
3.739297e+003, -8.388618e-003
3.741225e+003, -7.777198e-003
3.743154e+003, -5.886137e-003
3.745082e+003, -5.322671e-003
3.747011e+003, -6.418111e-003
3.748939e+003, -6.289762e-003
3.750868e+003, -6.385970e-003
3.752796e+003, -6.739364e-003
3.754725e+003, -8.378423e-003
3.756653e+003, -8.387679e-003
3.758582e+003, -8.399172e-003
3.760510e+003, -9.448142e-003
3.762438e+003, -9.169375e-003
3.764367e+003, -8.669191e-003
3.766295e+003, -8.697466e-003
3.768224e+003, -9.085386e-003
3.770152e+003, -8.750483e-003
3.772081e+003, -8.547460e-003
3.774009e+003, -8.864784e-003
3.775938e+003, -9.321705e-003
3.777866e+003, -8.944807e-003
3.779795e+003, -9.081773e-003
3.781723e+003, -9.692161e-003
3.783652e+003, -9.883664e-003
3.785580e+003, -1.009690e-002
3.787509e+003, -8.939429e-003
3.789437e+003, -8.401168e-003
3.791365e+003, -8.276829e-003
3.793294e+003, -7.969868e-003
3.795222e+003, -7.664410e-003
3.797151e+003, -8.121579e-003
3.799079e+003, -9.393729e-003
3.801008e+003, -8.355397e-003
3.802936e+003, -8.945889e-003
3.804865e+003, -9.217986e-003
3.806793e+003, -7.892535e-003
3.808722e+003, -7.957698e-003
3.810650e+003, -8.231364e-003
3.812579e+003, -8.430352e-003
3.814507e+003, -7.199435e-003
3.816436e+003, -7.838398e-003
3.818364e+003, -8.004285e-003
3.820292e+003, -6.661264e-003
3.822221e+003, -6.873120e-003
3.824149e+003, -8.423034e-003
3.826078e+003, -8.741194e-003
3.828006e+003, -8.795816e-003
3.829935e+003, -8.568469e-003
3.831863e+003, -8.564321e-003
3.833792e+003, -9.401753e-003
3.835720e+003, -8.146023e-003
3.837649e+003, -7.499215e-003
3.839577e+003, -7.411413e-003
3.841506e+003, -7.314897e-003
3.843434e+003, -8.054684e-003
3.845363e+003, -8.662814e-003
3.847291e+003, -9.219101e-003
3.849219e+003, -8.958227e-003
3.851148e+003, -7.980304e-003
3.853076e+003, -6.599405e-003
3.855005e+003, -6.986260e-003
3.856933e+003, -9.098076e-003
3.858862e+003, -1.017303e-002
3.860790e+003, -9.085927e-003
3.862719e+003, -7.299603e-003
3.864647e+003, -6.122863e-003
3.866576e+003, -5.874814e-003
3.868504e+003, -6.737158e-003
3.870433e+003, -7.864930e-003
3.872361e+003, -8.080192e-003
3.874290e+003, -8.203663e-003
3.876218e+003, -9.470036e-003
3.878146e+003, -9.541446e-003
3.880075e+003, -1.011714e-002
3.882003e+003, -1.036188e-002
3.883932e+003, -8.269542e-003
3.885860e+003, -7.270007e-003
3.887789e+003, -9.030565e-003
3.889717e+003, -1.048674e-002
3.891646e+003, -9.862868e-003
3.893574e+003, -9.060042e-003
3.895503e+003, -8.895568e-003
3.897431e+003, -9.089055e-003
3.899360e+003, -8.045489e-003
3.901288e+003, -7.501962e-003
3.903217e+003, -8.751975e-003
3.905145e+003, -9.196360e-003
3.907073e+003, -8.956245e-003
3.909002e+003, -8.791491e-003
3.910930e+003, -8.921130e-003
3.912859e+003, -8.615973e-003
3.914787e+003, -9.557300e-003
3.916716e+003, -9.703053e-003
3.918644e+003, -9.770187e-003
3.920573e+003, -1.107941e-002
3.922501e+003, -1.173113e-002
3.924430e+003, -1.019802e-002
3.926358e+003, -8.431076e-003
3.928287e+003, -8.592445e-003
3.930215e+003, -1.012011e-002
3.932144e+003, -9.496542e-003
3.934072e+003, -9.115899e-003
3.936000e+003, -1.023704e-002
3.937929e+003, -1.067208e-002
3.939857e+003, -9.808929e-003
3.941786e+003, -8.704619e-003
3.943714e+003, -9.553724e-003
3.945643e+003, -1.079329e-002
3.947571e+003, -1.052715e-002
3.949500e+003, -9.777764e-003
3.951428e+003, -8.691523e-003
3.953357e+003, -9.702652e-003
3.955285e+003, -1.003197e-002
3.957214e+003, -9.104571e-003
3.959142e+003, -8.625870e-003
3.961071e+003, -9.652935e-003
3.962999e+003, -9.486572e-003
3.964927e+003, -9.591266e-003
3.966856e+003, -9.822432e-003
3.968784e+003, -9.792819e-003
3.970713e+003, -9.369873e-003
3.972641e+003, -9.090181e-003
3.974570e+003, -8.287303e-003
3.976498e+003, -7.933706e-003
3.978427e+003, -8.748285e-003
3.980355e+003, -9.756717e-003
3.982284e+003, -1.058759e-002
3.984212e+003, -1.117294e-002
3.986141e+003, -9.689338e-003
3.988069e+003, -9.095249e-003
3.989998e+003, -9.681754e-003
3.991926e+003, -9.686960e-003
3.993854e+003, -9.762567e-003
3.995783e+003, -1.032843e-002
3.997711e+003, -1.040926e-002
3.999640e+003, -1.032852e-002
##END=



