##NAMES=Polyhalite
##RRUFFID=R070209
##IDEAL CHEMISTRY=K_2_Ca_2_Mg(S^6+^O_4_)_4_&#183;2H_2_O
##LOCALITY=West Texas, Texas, USA
##OWNER=RRUFF
##SOURCE=Michael Scott
##DESCRIPTION=Colorless to brick red massive
##STATUS=The identification of this mineral has been confirmed by X-ray diffraction.
##URL=rruff.info/R070209
3.741225e+002, 1.392876e-002
3.760510e+002, 1.426612e-002
3.779795e+002, 1.205228e-002
3.799079e+002, 1.351899e-002
3.818364e+002, 1.480661e-002
3.837649e+002, 9.725827e-003
3.856933e+002, 8.321514e-003
3.876218e+002, 9.954766e-003
3.895503e+002, 1.059829e-002
3.914787e+002, 9.042043e-003
3.934072e+002, 1.120284e-002
3.953357e+002, 1.194264e-002
3.972641e+002, 1.282158e-002
3.991926e+002, 1.261792e-002
4.011211e+002, 1.301734e-002
4.030495e+002, 1.357425e-002
4.049780e+002, 1.168335e-002
4.069065e+002, 1.086477e-002
4.088349e+002, 1.374306e-002
4.107634e+002, 1.610347e-002
4.126919e+002, 1.729949e-002
4.146203e+002, 1.661034e-002
4.165488e+002, 1.507835e-002
4.184773e+002, 1.539406e-002
4.204057e+002, 1.606039e-002
4.223342e+002, 1.568982e-002
4.242627e+002, 1.690871e-002
4.261911e+002, 1.867927e-002
4.281196e+002, 1.971510e-002
4.300481e+002, 2.158768e-002
4.319765e+002, 2.413675e-002
4.339050e+002, 2.808556e-002
4.358335e+002, 3.350129e-002
4.377619e+002, 3.832833e-002
4.396904e+002, 3.859719e-002
4.416189e+002, 3.409372e-002
4.435473e+002, 3.109224e-002
4.454758e+002, 3.075221e-002
4.474043e+002, 3.228448e-002
4.493327e+002, 3.588708e-002
4.512612e+002, 4.119558e-002
4.531897e+002, 4.293870e-002
4.551181e+002, 3.880051e-002
4.570466e+002, 3.370589e-002
4.589751e+002, 3.137085e-002
4.609035e+002, 3.099561e-002
4.628320e+002, 3.271773e-002
4.647605e+002, 3.537402e-002
4.666889e+002, 3.762764e-002
4.686174e+002, 3.963597e-002
4.705459e+002, 4.321884e-002
4.724743e+002, 4.823704e-002
4.744028e+002, 5.333989e-002
4.763313e+002, 5.882031e-002
4.782597e+002, 6.144862e-002
4.801882e+002, 5.928988e-002
4.821167e+002, 5.638183e-002
4.840451e+002, 5.477115e-002
4.859736e+002, 5.462811e-002
4.879021e+002, 5.522118e-002
4.898305e+002, 5.621234e-002
4.917590e+002, 5.778756e-002
4.936875e+002, 6.079416e-002
4.956159e+002, 6.431757e-002
4.975444e+002, 6.885564e-002
4.994729e+002, 7.342747e-002
5.014013e+002, 7.713950e-002
5.033298e+002, 7.984198e-002
5.052583e+002, 8.195458e-002
5.071867e+002, 8.295710e-002
5.091152e+002, 8.216381e-002
5.110437e+002, 8.109693e-002
5.129721e+002, 8.009633e-002
5.149006e+002, 7.873130e-002
5.168290e+002, 7.786843e-002
5.187575e+002, 7.722104e-002
5.206860e+002, 7.680658e-002
5.226144e+002, 7.677830e-002
5.245429e+002, 7.748581e-002
5.264714e+002, 7.756272e-002
5.283998e+002, 7.751723e-002
5.303283e+002, 7.747770e-002
5.322568e+002, 7.675865e-002
5.341852e+002, 7.540615e-002
5.361137e+002, 7.367210e-002
5.380422e+002, 7.116826e-002
5.399706e+002, 6.825165e-002
5.418991e+002, 6.509302e-002
5.438276e+002, 6.153991e-002
5.457560e+002, 5.784498e-002
5.476845e+002, 5.467341e-002
5.496130e+002, 5.175003e-002
5.515414e+002, 4.902670e-002
5.534699e+002, 4.676433e-002
5.553984e+002, 4.480106e-002
5.573268e+002, 4.335951e-002
5.592553e+002, 4.247423e-002
5.611838e+002, 4.196953e-002
5.631122e+002, 4.165374e-002
5.650407e+002, 4.183377e-002
5.669692e+002, 4.252388e-002
5.688976e+002, 4.297141e-002
5.708261e+002, 4.412906e-002
5.727546e+002, 4.575124e-002
5.746830e+002, 4.785660e-002
5.766115e+002, 4.981291e-002
5.785400e+002, 5.262457e-002
5.804684e+002, 5.671624e-002
5.823969e+002, 6.121653e-002
5.843254e+002, 6.656341e-002
5.862538e+002, 7.349972e-002
5.881823e+002, 8.157998e-002
5.901108e+002, 9.131306e-002
5.920392e+002, 1.037075e-001
5.939677e+002, 1.179408e-001
5.958962e+002, 1.333082e-001
5.978246e+002, 1.479251e-001
5.997531e+002, 1.580670e-001
6.016816e+002, 1.594571e-001
6.036100e+002, 1.513692e-001
6.055385e+002, 1.389679e-001
6.074670e+002, 1.298911e-001
6.093954e+002, 1.284453e-001
6.113239e+002, 1.347392e-001
6.132524e+002, 1.467076e-001
6.151808e+002, 1.625823e-001
6.171093e+002, 1.780320e-001
6.190378e+002, 1.863092e-001
6.209662e+002, 1.789071e-001
6.228947e+002, 1.561591e-001
6.248232e+002, 1.292578e-001
6.267516e+002, 1.073584e-001
6.286801e+002, 9.152792e-002
6.306086e+002, 7.968207e-002
6.325370e+002, 7.040748e-002
6.344655e+002, 6.398945e-002
6.363940e+002, 6.079275e-002
6.383224e+002, 6.054248e-002
6.402509e+002, 5.988377e-002
6.421794e+002, 5.474323e-002
6.441078e+002, 4.541665e-002
6.460363e+002, 3.670209e-002
6.479648e+002, 3.234819e-002
6.498932e+002, 3.298669e-002
6.518217e+002, 3.851426e-002
6.537502e+002, 4.753185e-002
6.556786e+002, 5.492983e-002
6.576071e+002, 5.355211e-002
6.595356e+002, 4.419183e-002
6.614641e+002, 3.417163e-002
6.633925e+002, 2.721976e-002
6.653210e+002, 2.321425e-002
6.672495e+002, 2.133028e-002
6.691779e+002, 2.052828e-002
6.711064e+002, 1.998789e-002
6.730349e+002, 2.017331e-002
6.749633e+002, 2.061953e-002
6.768918e+002, 2.088950e-002
6.788203e+002, 2.130506e-002
6.807487e+002, 2.199988e-002
6.826772e+002, 2.277224e-002
6.846057e+002, 2.356498e-002
6.865341e+002, 2.432257e-002
6.884626e+002, 2.527211e-002
6.903911e+002, 2.648074e-002
6.923195e+002, 2.789522e-002
6.942480e+002, 2.937017e-002
6.961765e+002, 3.117293e-002
6.981049e+002, 3.294881e-002
7.000334e+002, 3.486038e-002
7.019619e+002, 3.682478e-002
7.038903e+002, 3.929798e-002
7.058188e+002, 4.185616e-002
7.077473e+002, 4.447154e-002
7.096757e+002, 4.726955e-002
7.116042e+002, 5.042048e-002
7.135327e+002, 5.370006e-002
7.154611e+002, 5.696738e-002
7.173896e+002, 6.045166e-002
7.193181e+002, 6.426414e-002
7.212465e+002, 6.788327e-002
7.231750e+002, 7.166728e-002
7.251035e+002, 7.585045e-002
7.270319e+002, 7.967129e-002
7.289604e+002, 8.327433e-002
7.308889e+002, 8.688555e-002
7.328173e+002, 9.027933e-002
7.347458e+002, 9.354807e-002
7.366743e+002, 9.628892e-002
7.386027e+002, 9.865855e-002
7.405312e+002, 1.003029e-001
7.424597e+002, 1.014241e-001
7.443881e+002, 1.016972e-001
7.463166e+002, 1.013840e-001
7.482451e+002, 1.006269e-001
7.501735e+002, 9.929223e-002
7.521020e+002, 9.734450e-002
7.540305e+002, 9.493158e-002
7.559589e+002, 9.220841e-002
7.578874e+002, 8.910104e-002
7.598159e+002, 8.564049e-002
7.617443e+002, 8.204389e-002
7.636728e+002, 7.848801e-002
7.656013e+002, 7.485964e-002
7.675297e+002, 7.106067e-002
7.694582e+002, 6.725459e-002
7.713867e+002, 6.339999e-002
7.733151e+002, 5.984183e-002
7.752436e+002, 5.636257e-002
7.771721e+002, 5.308845e-002
7.791005e+002, 5.001947e-002
7.810290e+002, 4.694976e-002
7.829575e+002, 4.427858e-002
7.848859e+002, 4.186846e-002
7.868144e+002, 3.950456e-002
7.887429e+002, 3.726945e-002
7.906713e+002, 3.528494e-002
7.925998e+002, 3.339266e-002
7.945283e+002, 3.156954e-002
7.964567e+002, 3.023251e-002
7.983852e+002, 2.893381e-002
8.003137e+002, 2.758777e-002
8.022421e+002, 2.627419e-002
8.041706e+002, 2.523989e-002
8.060991e+002, 2.437327e-002
8.080275e+002, 2.360674e-002
8.099560e+002, 2.296428e-002
8.118845e+002, 2.230676e-002
8.138129e+002, 2.144074e-002
8.157414e+002, 2.083195e-002
8.176699e+002, 2.041747e-002
8.195983e+002, 1.998786e-002
8.215268e+002, 1.953080e-002
8.234553e+002, 1.923245e-002
8.253837e+002, 1.891248e-002
8.273122e+002, 1.866594e-002
8.292407e+002, 1.842013e-002
8.311691e+002, 1.830379e-002
8.330976e+002, 1.802921e-002
8.350261e+002, 1.788305e-002
8.369545e+002, 1.787127e-002
8.388830e+002, 1.779496e-002
8.408115e+002, 1.769319e-002
8.427399e+002, 1.772485e-002
8.446684e+002, 1.773832e-002
8.465969e+002, 1.761826e-002
8.485253e+002, 1.754012e-002
8.504538e+002, 1.757830e-002
8.523823e+002, 1.761326e-002
8.543107e+002, 1.773628e-002
8.562392e+002, 1.773531e-002
8.581677e+002, 1.783716e-002
8.600961e+002, 1.787631e-002
8.620246e+002, 1.793287e-002
8.639531e+002, 1.793410e-002
8.658815e+002, 1.800711e-002
8.678100e+002, 1.810255e-002
8.697385e+002, 1.812535e-002
8.716669e+002, 1.824289e-002
8.735954e+002, 1.837201e-002
8.755239e+002, 1.848909e-002
8.774523e+002, 1.867579e-002
8.793808e+002, 1.867129e-002
8.813093e+002, 1.868052e-002
8.832377e+002, 1.897194e-002
8.851662e+002, 1.939971e-002
8.870947e+002, 1.965941e-002
8.890231e+002, 1.986094e-002
8.909516e+002, 2.018491e-002
8.928801e+002, 2.047042e-002
8.948085e+002, 2.052017e-002
8.967370e+002, 2.065198e-002
8.986655e+002, 2.102357e-002
9.005939e+002, 2.147431e-002
9.025224e+002, 2.182012e-002
9.044509e+002, 2.213115e-002
9.063793e+002, 2.243821e-002
9.083078e+002, 2.271081e-002
9.102363e+002, 2.306787e-002
9.121647e+002, 2.357558e-002
9.140932e+002, 2.392626e-002
9.160217e+002, 2.433563e-002
9.179501e+002, 2.479433e-002
9.198786e+002, 2.539736e-002
9.218071e+002, 2.604424e-002
9.237355e+002, 2.669334e-002
9.256640e+002, 2.730505e-002
9.275925e+002, 2.807086e-002
9.295209e+002, 2.884351e-002
9.314494e+002, 2.975018e-002
9.333779e+002, 3.054612e-002
9.353063e+002, 3.146289e-002
9.372348e+002, 3.256124e-002
9.391633e+002, 3.363134e-002
9.410917e+002, 3.486389e-002
9.430202e+002, 3.612857e-002
9.449487e+002, 3.733975e-002
9.468771e+002, 3.868688e-002
9.488056e+002, 4.024582e-002
9.507341e+002, 4.181740e-002
9.526625e+002, 4.340088e-002
9.545910e+002, 4.529580e-002
9.565195e+002, 4.746848e-002
9.584479e+002, 4.987081e-002
9.603764e+002, 5.246037e-002
9.623049e+002, 5.531466e-002
9.642333e+002, 5.796811e-002
9.661618e+002, 6.101833e-002
9.680903e+002, 6.486937e-002
9.700187e+002, 6.942111e-002
9.719472e+002, 7.494560e-002
9.738757e+002, 8.199640e-002
9.758041e+002, 9.057943e-002
9.777326e+002, 1.009332e-001
9.796611e+002, 1.134210e-001
9.815895e+002, 1.294362e-001
9.835180e+002, 1.509762e-001
9.854465e+002, 1.769194e-001
9.873749e+002, 1.952922e-001
9.893034e+002, 1.847224e-001
9.912319e+002, 1.438338e-001
9.931603e+002, 1.002070e-001
9.950888e+002, 7.359924e-002
9.970173e+002, 6.254244e-002
9.989457e+002, 5.940680e-002
1.000874e+003, 5.982580e-002
1.002803e+003, 6.208840e-002
1.004731e+003, 6.559484e-002
1.006660e+003, 7.022135e-002
1.008588e+003, 7.616010e-002
1.010517e+003, 8.323394e-002
1.012445e+003, 9.187756e-002
1.014373e+003, 1.016632e-001
1.016302e+003, 1.087028e-001
1.018230e+003, 1.078857e-001
1.020159e+003, 1.039138e-001
1.022087e+003, 1.044076e-001
1.024016e+003, 1.093514e-001
1.025944e+003, 1.162985e-001
1.027873e+003, 1.242420e-001
1.029801e+003, 1.326107e-001
1.031730e+003, 1.412610e-001
1.033658e+003, 1.503135e-001
1.035587e+003, 1.595140e-001
1.037515e+003, 1.690596e-001
1.039443e+003, 1.792350e-001
1.041372e+003, 1.895108e-001
1.043300e+003, 2.000663e-001
1.045229e+003, 2.109515e-001
1.047157e+003, 2.219454e-001
1.049086e+003, 2.328995e-001
1.051014e+003, 2.440947e-001
1.052943e+003, 2.555144e-001
1.054871e+003, 2.669303e-001
1.056800e+003, 2.783438e-001
1.058728e+003, 2.896429e-001
1.060657e+003, 3.004744e-001
1.062585e+003, 3.100711e-001
1.064514e+003, 3.183195e-001
1.066442e+003, 3.264848e-001
1.068370e+003, 3.342188e-001
1.070299e+003, 3.408295e-001
1.072227e+003, 3.452344e-001
1.074156e+003, 3.460181e-001
1.076084e+003, 3.432423e-001
1.078013e+003, 3.381199e-001
1.079941e+003, 3.316185e-001
1.081870e+003, 3.243328e-001
1.083798e+003, 3.165969e-001
1.085727e+003, 3.088631e-001
1.087655e+003, 3.009009e-001
1.089584e+003, 2.924125e-001
1.091512e+003, 2.838373e-001
1.093441e+003, 2.754220e-001
1.095369e+003, 2.666481e-001
1.097297e+003, 2.576397e-001
1.099226e+003, 2.482259e-001
1.101154e+003, 2.387637e-001
1.103083e+003, 2.296760e-001
1.105011e+003, 2.206084e-001
1.106940e+003, 2.116762e-001
1.108868e+003, 2.030684e-001
1.110797e+003, 1.945574e-001
1.112725e+003, 1.865978e-001
1.114654e+003, 1.796789e-001
1.116582e+003, 1.743956e-001
1.118511e+003, 1.714340e-001
1.120439e+003, 1.718865e-001
1.122368e+003, 1.760325e-001
1.124296e+003, 1.837588e-001
1.126224e+003, 1.959425e-001
1.128153e+003, 2.133446e-001
1.130081e+003, 2.342428e-001
1.132010e+003, 2.540762e-001
1.133938e+003, 2.675502e-001
1.135867e+003, 2.723254e-001
1.137795e+003, 2.706763e-001
1.139724e+003, 2.662035e-001
1.141652e+003, 2.607584e-001
1.143581e+003, 2.553931e-001
1.145509e+003, 2.506594e-001
1.147438e+003, 2.467331e-001
1.149366e+003, 2.432311e-001
1.151295e+003, 2.397603e-001
1.153223e+003, 2.360094e-001
1.155151e+003, 2.316429e-001
1.157080e+003, 2.267465e-001
1.159008e+003, 2.215976e-001
1.160937e+003, 2.157099e-001
1.162865e+003, 2.087844e-001
1.164794e+003, 2.004895e-001
1.166722e+003, 1.905147e-001
1.168651e+003, 1.787231e-001
1.170579e+003, 1.659229e-001
1.172508e+003, 1.528426e-001
1.174436e+003, 1.402500e-001
1.176365e+003, 1.283708e-001
1.178293e+003, 1.170848e-001
1.180222e+003, 1.064408e-001
1.182150e+003, 9.770250e-002
1.184078e+003, 9.252498e-002
1.186007e+003, 9.209029e-002
1.187935e+003, 9.468975e-002
1.189864e+003, 9.603741e-002
1.191792e+003, 9.426358e-002
1.193721e+003, 9.071530e-002
1.195649e+003, 8.653796e-002
1.197578e+003, 8.239776e-002
1.199506e+003, 7.868829e-002
1.201435e+003, 7.520603e-002
1.203363e+003, 7.189380e-002
1.205292e+003, 6.855596e-002
1.207220e+003, 6.507390e-002
1.209149e+003, 6.151284e-002
1.211077e+003, 5.787909e-002
1.213005e+003, 5.421519e-002
1.214934e+003, 5.055477e-002
1.216862e+003, 4.705975e-002
1.218791e+003, 4.367016e-002
1.220719e+003, 4.022780e-002
1.222648e+003, 3.675611e-002
1.224576e+003, 3.333112e-002
1.226505e+003, 2.990393e-002
1.228433e+003, 2.646642e-002
1.230362e+003, 2.297384e-002
1.232290e+003, 1.953834e-002
1.234219e+003, 1.659746e-002
1.236147e+003, 1.418680e-002
1.238076e+003, 1.222406e-002
1.240004e+003, 1.063965e-002
1.241932e+003, 9.551141e-003
1.243861e+003, 8.845015e-003
1.245789e+003, 8.239608e-003
1.247718e+003, 7.564494e-003
1.249646e+003, 7.054660e-003
1.251575e+003, 6.741056e-003
1.253503e+003, 6.347016e-003
1.255432e+003, 6.016376e-003
1.257360e+003, 5.738618e-003
1.259289e+003, 5.521655e-003
1.261217e+003, 5.376338e-003
1.263146e+003, 5.232407e-003
1.265074e+003, 5.086790e-003
1.267003e+003, 4.955489e-003
1.268931e+003, 4.825962e-003
1.270859e+003, 4.770708e-003
1.272788e+003, 4.699754e-003
1.274716e+003, 4.656130e-003
1.276645e+003, 4.530089e-003
1.278573e+003, 4.435014e-003
1.280502e+003, 4.331185e-003
1.282430e+003, 4.149822e-003
1.284359e+003, 4.028433e-003
1.286287e+003, 3.993387e-003
1.288216e+003, 3.913557e-003
1.290144e+003, 3.910792e-003
1.292073e+003, 3.821097e-003
1.294001e+003, 3.815261e-003
1.295930e+003, 3.776879e-003
1.297858e+003, 3.670245e-003
1.299786e+003, 3.535913e-003
1.301715e+003, 3.534463e-003
1.303643e+003, 3.436950e-003
1.305572e+003, 3.363469e-003
1.307500e+003, 3.519531e-003
1.309429e+003, 3.504799e-003
1.311357e+003, 3.366841e-003
1.313286e+003, 3.430525e-003
1.315214e+003, 3.403157e-003
1.317143e+003, 3.324381e-003
1.319071e+003, 3.291080e-003
1.321000e+003, 3.316660e-003
1.322928e+003, 3.502274e-003
1.324857e+003, 3.495927e-003
1.326785e+003, 3.301087e-003
1.328714e+003, 3.372745e-003
1.330642e+003, 3.375328e-003
1.332570e+003, 3.222131e-003
1.334499e+003, 3.272802e-003
1.336427e+003, 3.351049e-003
1.338356e+003, 3.328179e-003
1.340284e+003, 3.250620e-003
1.342213e+003, 3.063478e-003
1.344141e+003, 3.025834e-003
1.346070e+003, 2.978350e-003
1.347998e+003, 3.074512e-003
1.349927e+003, 3.108358e-003
1.351855e+003, 3.065694e-003
1.353784e+003, 3.046033e-003
1.355712e+003, 3.018941e-003
1.357641e+003, 3.004065e-003
1.359569e+003, 3.003170e-003
1.361497e+003, 2.958647e-003
1.363426e+003, 2.927835e-003
1.365354e+003, 2.756288e-003
1.367283e+003, 2.575795e-003
1.369211e+003, 2.646910e-003
1.371140e+003, 2.850717e-003
1.373068e+003, 2.844398e-003
1.374997e+003, 2.798183e-003
1.376925e+003, 2.710126e-003
1.378854e+003, 2.767570e-003
1.380782e+003, 2.821630e-003
1.382711e+003, 2.633850e-003
1.384639e+003, 2.401603e-003
1.386568e+003, 2.457536e-003
1.388496e+003, 2.565409e-003
1.390424e+003, 2.585581e-003
1.392353e+003, 2.552110e-003
1.394281e+003, 2.522343e-003
1.396210e+003, 2.526953e-003
1.398138e+003, 2.536120e-003
1.400067e+003, 2.521599e-003
1.401995e+003, 2.525873e-003
1.403924e+003, 2.508144e-003
1.405852e+003, 2.384206e-003
1.407781e+003, 2.329049e-003
1.409709e+003, 2.326154e-003
1.411638e+003, 2.337368e-003
1.413566e+003, 2.287871e-003
1.415495e+003, 2.353002e-003
1.417423e+003, 2.467338e-003
1.419351e+003, 2.457911e-003
1.421280e+003, 2.273783e-003
1.423208e+003, 2.237126e-003
1.425137e+003, 2.281536e-003
1.427065e+003, 2.288047e-003
1.428994e+003, 2.225291e-003
1.430922e+003, 2.175679e-003
1.432851e+003, 2.212070e-003
1.434779e+003, 2.254039e-003
1.436708e+003, 2.323493e-003
1.438636e+003, 2.086445e-003
1.440565e+003, 1.897824e-003
1.442493e+003, 1.841802e-003
1.444422e+003, 1.892514e-003
1.446350e+003, 1.831084e-003
1.448278e+003, 1.640878e-003
1.450207e+003, 1.630163e-003
1.452135e+003, 1.821854e-003
1.454064e+003, 1.878649e-003
1.455992e+003, 2.137214e-003
1.457921e+003, 2.127262e-003
1.459849e+003, 1.777223e-003
1.461778e+003, 1.596999e-003
1.463706e+003, 1.685666e-003
1.465635e+003, 1.835355e-003
1.467563e+003, 1.808386e-003
1.469492e+003, 1.800968e-003
1.471420e+003, 1.872676e-003
1.473349e+003, 1.996822e-003
1.475277e+003, 2.031334e-003
1.477205e+003, 1.900661e-003
1.479134e+003, 1.912454e-003
1.481062e+003, 1.886523e-003
1.482991e+003, 1.888510e-003
1.484919e+003, 1.902826e-003
1.486848e+003, 1.995152e-003
1.488776e+003, 2.028689e-003
1.490705e+003, 1.982634e-003
1.492633e+003, 1.933337e-003
1.494562e+003, 1.978326e-003
1.496490e+003, 2.163505e-003
1.498419e+003, 2.319006e-003
1.500347e+003, 2.299168e-003
1.502276e+003, 2.205153e-003
1.504204e+003, 2.322087e-003
1.506132e+003, 2.580751e-003
1.508061e+003, 2.455915e-003
1.509989e+003, 2.227870e-003
1.511918e+003, 2.039464e-003
1.513846e+003, 1.906713e-003
1.515775e+003, 2.125083e-003
1.517703e+003, 2.336958e-003
1.519632e+003, 2.448905e-003
1.521560e+003, 2.595147e-003
1.523489e+003, 2.436982e-003
1.525417e+003, 2.299646e-003
1.527346e+003, 2.340621e-003
1.529274e+003, 2.482438e-003
1.531203e+003, 2.417367e-003
1.533131e+003, 2.476424e-003
1.535059e+003, 2.491201e-003
1.536988e+003, 2.473610e-003
1.538916e+003, 2.830379e-003
1.540845e+003, 2.937070e-003
1.542773e+003, 2.614368e-003
1.544702e+003, 2.590656e-003
1.546630e+003, 2.682761e-003
1.548559e+003, 2.751401e-003
1.550487e+003, 2.910506e-003
1.552416e+003, 2.983337e-003
1.554344e+003, 3.056708e-003
1.556273e+003, 3.170048e-003
1.558201e+003, 3.536996e-003
1.560130e+003, 3.646165e-003
1.562058e+003, 3.341432e-003
1.563986e+003, 3.253167e-003
1.565915e+003, 3.408105e-003
1.567843e+003, 3.648834e-003
1.569772e+003, 3.860202e-003
1.571700e+003, 3.871059e-003
1.573629e+003, 3.920462e-003
1.575557e+003, 4.380872e-003
1.577486e+003, 4.647022e-003
1.579414e+003, 4.493016e-003
1.581343e+003, 4.552761e-003
1.583271e+003, 4.734755e-003
1.585200e+003, 4.968960e-003
1.587128e+003, 5.148484e-003
1.589057e+003, 5.480120e-003
1.590985e+003, 5.936053e-003
1.592913e+003, 6.288756e-003
1.594842e+003, 6.699453e-003
1.596770e+003, 6.998211e-003
1.598699e+003, 7.453047e-003
1.600627e+003, 8.099429e-003
1.602556e+003, 8.862999e-003
1.604484e+003, 9.587494e-003
1.606413e+003, 1.037478e-002
1.608341e+003, 1.123324e-002
1.610270e+003, 1.222244e-002
1.612198e+003, 1.319635e-002
1.614127e+003, 1.434575e-002
1.616055e+003, 1.574781e-002
1.617984e+003, 1.692958e-002
1.619912e+003, 1.809315e-002
1.621840e+003, 1.953008e-002
1.623769e+003, 2.081906e-002
1.625697e+003, 2.188383e-002
1.627626e+003, 2.301855e-002
1.629554e+003, 2.397695e-002
1.631483e+003, 2.435647e-002
1.633411e+003, 2.459954e-002
1.635340e+003, 2.471890e-002
1.637268e+003, 2.403388e-002
1.639197e+003, 2.303530e-002
1.641125e+003, 2.188146e-002
1.643054e+003, 2.028014e-002
1.644982e+003, 1.869988e-002
1.646911e+003, 1.715958e-002
1.648839e+003, 1.538310e-002
1.650767e+003, 1.390996e-002
1.652696e+003, 1.299202e-002
1.654624e+003, 1.163013e-002
1.656553e+003, 1.022057e-002
1.658481e+003, 9.161106e-003
1.660410e+003, 8.285590e-003
1.662338e+003, 7.515511e-003
1.664267e+003, 6.787991e-003
1.666195e+003, 6.285964e-003
1.668124e+003, 5.991502e-003
1.670052e+003, 5.494953e-003
1.671981e+003, 4.934227e-003
1.673909e+003, 4.676289e-003
1.675838e+003, 4.569806e-003
1.677766e+003, 4.166595e-003
1.679694e+003, 3.781526e-003
1.681623e+003, 3.450955e-003
1.683551e+003, 3.400048e-003
1.685480e+003, 3.164918e-003
1.687408e+003, 2.637707e-003
1.689337e+003, 2.412239e-003
1.691265e+003, 2.318975e-003
1.693194e+003, 2.328770e-003
1.695122e+003, 2.486488e-003
1.697051e+003, 2.213877e-003
1.698979e+003, 2.126176e-003
1.700908e+003, 2.086431e-003
1.702836e+003, 1.777845e-003
1.704765e+003, 1.693409e-003
1.706693e+003, 1.488654e-003
1.708621e+003, 1.118639e-003
1.710550e+003, 9.217777e-004
1.712478e+003, 1.021850e-003
1.714407e+003, 1.147647e-003
1.716335e+003, 1.099963e-003
1.718264e+003, 1.039517e-003
1.720192e+003, 8.238357e-004
1.722121e+003, 7.078338e-004
1.724049e+003, 6.255589e-004
1.725978e+003, 5.480867e-004
1.727906e+003, 4.778382e-004
1.729835e+003, 3.143709e-004
1.731763e+003, 2.535975e-004
1.733692e+003, 4.647480e-004
1.735620e+003, 2.749928e-004
1.737548e+003, 3.281469e-005
1.739477e+003, -1.627359e-004
1.741405e+003, -2.607944e-004
1.743334e+003, -2.684069e-004
1.745262e+003, -3.108914e-004
1.747191e+003, -2.677656e-004
1.749119e+003, -1.905427e-004
1.751048e+003, -1.564032e-004
1.752976e+003, -5.102198e-006
1.754905e+003, 9.172212e-005
1.756833e+003, 7.937591e-005
1.758762e+003, -1.593196e-004
1.760690e+003, -1.695145e-004
1.762619e+003, -8.824282e-005
1.764547e+003, -1.107750e-004
1.766475e+003, -8.449001e-005
1.768404e+003, -7.865215e-005
1.770332e+003, -1.681631e-004
1.772261e+003, -1.755489e-005
1.774189e+003, 2.139064e-004
1.776118e+003, 2.886096e-004
1.778046e+003, 4.209748e-005
1.779975e+003, -8.463948e-005
1.781903e+003, 1.009829e-005
1.783832e+003, 2.010583e-004
1.785760e+003, 1.792153e-004
1.787689e+003, 2.177459e-004
1.789617e+003, 3.192503e-004
1.791546e+003, 3.789971e-004
1.793474e+003, 2.555304e-004
1.795402e+003, 1.192632e-004
1.797331e+003, 1.263169e-004
1.799259e+003, 4.373593e-004
1.801188e+003, 4.892484e-004
1.803116e+003, 2.997682e-004
1.805045e+003, 3.331933e-004
1.806973e+003, 3.491403e-004
1.808902e+003, 3.067789e-004
1.810830e+003, 2.851560e-004
1.812759e+003, 3.403377e-004
1.814687e+003, 4.376197e-004
1.816616e+003, 3.787847e-004
1.818544e+003, 2.345377e-004
1.820473e+003, 1.841847e-004
1.822401e+003, 4.675906e-004
1.824329e+003, 2.816598e-004
1.826258e+003, -1.055756e-004
1.828186e+003, 1.842458e-004
1.830115e+003, 5.050132e-004
1.832043e+003, 3.508132e-004
1.833972e+003, 2.750828e-004
1.835900e+003, 1.450607e-004
1.837829e+003, 1.467572e-004
1.839757e+003, 1.558344e-004
1.841686e+003, 2.141755e-004
1.843614e+003, 3.549692e-004
1.845543e+003, 5.211080e-004
1.847471e+003, 6.225659e-004
1.849400e+003, 5.620999e-004
1.851328e+003, 1.073049e-004
1.853256e+003, -1.685136e-005
1.855185e+003, 1.011702e-004
1.857113e+003, 8.689874e-005
1.859042e+003, 2.345056e-004
1.860970e+003, 4.952232e-004
1.862899e+003, 5.329429e-004
1.864827e+003, 5.019869e-004
1.866756e+003, 4.797555e-004
1.868684e+003, 3.112122e-004
1.870613e+003, -1.338195e-004
1.872541e+003, -2.813117e-004
1.874470e+003, -2.233361e-004
1.876398e+003, -3.406664e-005
1.878327e+003, -3.637596e-005
1.880255e+003, 1.245010e-004
1.882183e+003, 3.515572e-004
1.884112e+003, 2.720693e-005
1.886040e+003, -2.679929e-004
1.887969e+003, -1.134361e-004
1.889897e+003, -5.208470e-005
1.891826e+003, 1.791409e-004
1.893754e+003, 4.594660e-004
1.895683e+003, 4.068572e-004
1.897611e+003, -6.940623e-005
1.899540e+003, -1.430064e-004
1.901468e+003, 1.854988e-005
1.903397e+003, 1.137448e-004
1.905325e+003, 1.857719e-004
1.907254e+003, 3.293313e-004
1.909182e+003, 2.469895e-004
1.911110e+003, 4.924003e-004
1.913039e+003, 9.031579e-004
1.914967e+003, 9.565261e-004
1.916896e+003, 1.112398e-003
1.918824e+003, 7.771475e-004
1.920753e+003, 7.518951e-005
1.922681e+003, -3.992086e-004
1.924610e+003, -2.894574e-004
1.926538e+003, 9.803084e-005
1.928467e+003, 5.646469e-005
1.930395e+003, 4.274281e-004
1.932324e+003, 8.795420e-004
1.934252e+003, 1.260256e-003
1.936181e+003, 8.157264e-004
1.938109e+003, -1.209497e-004
1.940037e+003, -5.195136e-004
1.941966e+003, 2.851534e-004
1.943894e+003, 5.648189e-004
1.945823e+003, 1.837763e-004
1.947751e+003, 2.257733e-004
1.949680e+003, 7.221446e-004
1.951608e+003, -2.998207e-005
1.953537e+003, -6.098750e-004
1.955465e+003, -9.063343e-004
1.957394e+003, -8.879357e-004
1.959322e+003, -4.008417e-004
1.961251e+003, 1.950061e-004
1.963179e+003, 2.234601e-004
1.965108e+003, 1.399859e-004
1.967036e+003, -4.846347e-005
1.968964e+003, 6.050924e-004
1.970893e+003, 1.034491e-003
1.972821e+003, -8.910196e-005
1.974750e+003, -5.480247e-004
1.976678e+003, -7.818895e-004
1.978607e+003, -2.287445e-005
1.980535e+003, 6.887550e-005
1.982464e+003, 1.041957e-004
1.984392e+003, 1.359767e-003
1.986321e+003, 1.621506e-003
1.988249e+003, 1.249512e-003
1.990178e+003, 1.432169e-003
1.992106e+003, 1.949960e-003
1.994035e+003, 1.995095e-003
1.995963e+003, 1.755102e-003
1.997891e+003, 1.605463e-003
1.999820e+003, 1.615837e-003
2.001748e+003, 1.395097e-003
2.003677e+003, 1.631508e-003
2.005605e+003, 1.541259e-003
2.007534e+003, 2.302909e-003
2.009462e+003, 2.957941e-003
2.011391e+003, 2.771778e-003
2.013319e+003, 1.764724e-003
2.015248e+003, 5.373000e-004
2.017176e+003, 4.630024e-005
2.019105e+003, -1.860224e-004
2.021033e+003, 7.957681e-004
2.022962e+003, 1.592375e-003
2.024890e+003, 8.269825e-004
2.026818e+003, 1.021451e-004
2.028747e+003, 1.590285e-003
2.030675e+003, 2.671337e-003
2.032604e+003, 2.476341e-003
2.034532e+003, 2.809259e-003
2.036461e+003, 1.805383e-003
2.038389e+003, 1.068417e-003
2.040318e+003, 1.077861e-003
2.042246e+003, 2.155062e-003
2.044175e+003, 1.956635e-003
2.046103e+003, 1.633447e-003
2.048031e+003, 1.800462e-003
2.049960e+003, 2.333929e-003
2.051888e+003, 1.569790e-003
2.053817e+003, 5.116393e-004
2.055745e+003, 9.963664e-004
2.057674e+003, 1.644077e-003
2.059602e+003, 1.239366e-003
2.061531e+003, 9.547515e-004
2.063459e+003, 2.939011e-004
2.065388e+003, -4.162942e-005
2.067316e+003, 4.541103e-004
2.069245e+003, 1.323521e-003
2.071173e+003, 1.480308e-003
2.073102e+003, 8.473375e-004
2.075030e+003, 3.998413e-004
2.076958e+003, -1.622108e-005
2.078887e+003, -5.189434e-005
2.080815e+003, 2.290847e-004
2.082744e+003, 4.683814e-004
2.084672e+003, 7.079088e-004
2.086601e+003, 7.034554e-004
2.088529e+003, 2.286908e-004
2.090458e+003, -4.963251e-006
2.092386e+003, 2.095150e-004
2.094315e+003, 1.388175e-004
2.096243e+003, 4.482041e-004
2.098172e+003, 2.842661e-004
2.100100e+003, 6.460242e-004
2.102029e+003, 7.406401e-004
2.103957e+003, 5.378292e-004
2.105885e+003, 1.484429e-003
2.107814e+003, 1.694708e-003
2.109742e+003, 1.311903e-003
2.111671e+003, 1.470355e-003
2.113599e+003, 1.021971e-003
2.115528e+003, 5.636410e-004
2.117456e+003, 1.005182e-003
2.119385e+003, 9.195809e-004
2.121313e+003, 5.505739e-004
2.123242e+003, 7.854472e-004
2.125170e+003, 1.122701e-003
2.127099e+003, 8.811180e-004
2.129027e+003, 8.520259e-004
2.130956e+003, 8.572685e-004
2.132884e+003, 2.737904e-004
2.134813e+003, -2.308562e-005
2.136741e+003, -8.233506e-004
2.138669e+003, -1.444017e-003
2.140598e+003, -5.323989e-004
2.142526e+003, -6.306125e-005
2.144455e+003, -2.342279e-004
2.146383e+003, -7.497910e-004
2.148312e+003, -7.068310e-004
2.150240e+003, -2.014916e-005
2.152169e+003, -7.220367e-004
2.154097e+003, -1.164198e-003
2.156026e+003, -1.573745e-003
2.157954e+003, -1.406667e-003
2.159883e+003, 4.319474e-005
2.161811e+003, 6.096754e-004
2.163740e+003, 5.262084e-004
2.165668e+003, 1.969002e-004
2.167596e+003, -7.201331e-004
2.169525e+003, -4.279711e-004
2.171453e+003, 4.103784e-004
2.173382e+003, 1.099705e-003
2.175310e+003, 2.464671e-004
2.177239e+003, -1.188274e-005
2.179167e+003, -2.429928e-004
2.181096e+003, -5.569048e-004
2.183024e+003, -8.726167e-005
2.184953e+003, 3.362056e-004
2.186881e+003, -6.276264e-004
2.188810e+003, -7.309858e-004
2.190738e+003, 4.767962e-004
2.192667e+003, 1.628224e-003
2.194595e+003, 9.657289e-004
2.196523e+003, 9.316292e-004
2.198452e+003, 1.168839e-003
2.200380e+003, 1.339797e-003
2.202309e+003, 1.675580e-003
2.204237e+003, 1.817642e-003
2.206166e+003, 2.337844e-003
2.208094e+003, 1.848100e-003
2.210023e+003, 1.340354e-003
2.211951e+003, 1.182922e-003
2.213880e+003, 2.021503e-004
2.215808e+003, 7.651048e-004
2.217737e+003, 1.886501e-003
2.219665e+003, 2.675469e-003
2.221594e+003, 2.031622e-003
2.223522e+003, 1.558175e-003
2.225450e+003, 2.563144e-003
2.227379e+003, 2.555523e-003
2.229307e+003, 2.175015e-003
2.231236e+003, 2.105537e-003
2.233164e+003, 2.226112e-003
2.235093e+003, 2.929873e-003
2.237021e+003, 3.366961e-003
2.238950e+003, 3.734721e-003
2.240878e+003, 3.397056e-003
2.242807e+003, 3.086220e-003
2.244735e+003, 2.718718e-003
2.246664e+003, 2.708183e-003
2.248592e+003, 2.850938e-003
2.250521e+003, 2.883038e-003
2.252449e+003, 2.220488e-003
2.254377e+003, 1.309329e-003
2.256306e+003, 7.616880e-004
2.258234e+003, 8.181415e-004
2.260163e+003, 9.400065e-004
2.262091e+003, 8.356087e-004
2.264020e+003, 7.906486e-004
2.265948e+003, 5.014038e-004
2.267877e+003, 7.400314e-004
2.269805e+003, 1.298733e-003
2.271734e+003, 8.794247e-004
2.273662e+003, 1.228638e-003
2.275591e+003, 1.397731e-003
2.277519e+003, 9.234113e-004
2.279448e+003, 6.860013e-004
2.281376e+003, 9.874282e-004
2.283304e+003, 1.221777e-003
2.285233e+003, 1.014755e-003
2.287161e+003, 7.299828e-004
2.289090e+003, 9.770484e-004
2.291018e+003, 1.722145e-003
2.292947e+003, 2.020347e-003
2.294875e+003, 1.496407e-003
2.296804e+003, 8.920376e-004
2.298732e+003, 5.622735e-004
2.300661e+003, 1.021339e-003
2.302589e+003, 1.445374e-003
2.304518e+003, 1.455142e-003
2.306446e+003, 1.226358e-003
2.308375e+003, 1.230698e-003
2.310303e+003, 1.270007e-003
2.312231e+003, 1.332190e-003
2.314160e+003, 1.671194e-003
2.316088e+003, 1.838994e-003
2.318017e+003, 1.976394e-003
2.319945e+003, 2.293844e-003
2.321874e+003, 2.491046e-003
2.323802e+003, 2.578917e-003
2.325731e+003, 2.229934e-003
2.327659e+003, 2.164825e-003
2.329588e+003, 2.303408e-003
2.331516e+003, 2.171605e-003
2.333445e+003, 2.233047e-003
2.335373e+003, 2.317093e-003
2.337302e+003, 2.540438e-003
2.339230e+003, 2.607191e-003
2.341158e+003, 2.238571e-003
2.343087e+003, 2.194241e-003
2.345015e+003, 2.313781e-003
2.346944e+003, 2.329195e-003
2.348872e+003, 2.152361e-003
2.350801e+003, 2.211742e-003
2.352729e+003, 2.387896e-003
2.354658e+003, 2.559548e-003
2.356586e+003, 2.777953e-003
2.358515e+003, 3.083625e-003
2.360443e+003, 3.195747e-003
2.362372e+003, 3.176441e-003
2.364300e+003, 3.235757e-003
2.366229e+003, 3.181074e-003
2.368157e+003, 3.065138e-003
2.370085e+003, 2.961901e-003
2.372014e+003, 3.090563e-003
2.373942e+003, 3.350673e-003
2.375871e+003, 3.037094e-003
2.377799e+003, 2.655121e-003
2.379728e+003, 2.440952e-003
2.381656e+003, 2.575466e-003
2.383585e+003, 2.850209e-003
2.385513e+003, 2.873332e-003
2.387442e+003, 2.780761e-003
2.389370e+003, 2.838364e-003
2.391299e+003, 2.942269e-003
2.393227e+003, 3.128585e-003
2.395156e+003, 3.087000e-003
2.397084e+003, 2.945921e-003
2.399012e+003, 2.943706e-003
2.400941e+003, 2.885658e-003
2.402869e+003, 2.512136e-003
2.404798e+003, 2.153939e-003
2.406726e+003, 2.868265e-003
2.408655e+003, 3.541687e-003
2.410583e+003, 3.440728e-003
2.412512e+003, 3.128386e-003
2.414440e+003, 3.228966e-003
2.416369e+003, 3.210392e-003
2.418297e+003, 3.035944e-003
2.420226e+003, 2.861406e-003
2.422154e+003, 2.967977e-003
2.424083e+003, 3.164659e-003
2.426011e+003, 2.860707e-003
2.427939e+003, 2.941662e-003
2.429868e+003, 3.353482e-003
2.431796e+003, 3.498439e-003
2.433725e+003, 3.595584e-003
2.435653e+003, 4.016435e-003
2.437582e+003, 3.710084e-003
2.439510e+003, 3.783204e-003
2.441439e+003, 4.087915e-003
2.443367e+003, 4.421164e-003
2.445296e+003, 4.697979e-003
2.447224e+003, 4.572627e-003
2.449153e+003, 4.254960e-003
2.451081e+003, 4.436819e-003
2.453010e+003, 4.429151e-003
2.454938e+003, 3.756896e-003
2.456866e+003, 3.677122e-003
2.458795e+003, 4.346469e-003
2.460723e+003, 4.492516e-003
2.462652e+003, 4.398651e-003
2.464580e+003, 4.827333e-003
2.466509e+003, 4.956413e-003
2.468437e+003, 4.802390e-003
2.470366e+003, 4.655636e-003
2.472294e+003, 4.356079e-003
2.474223e+003, 4.545457e-003
2.476151e+003, 4.571433e-003
2.478080e+003, 4.410603e-003
2.480008e+003, 4.245677e-003
2.481937e+003, 4.083144e-003
2.483865e+003, 4.400964e-003
2.485793e+003, 4.480313e-003
2.487722e+003, 4.114732e-003
2.489650e+003, 4.306849e-003
2.491579e+003, 4.105333e-003
2.493507e+003, 3.775621e-003
2.495436e+003, 3.941102e-003
2.497364e+003, 4.399027e-003
2.499293e+003, 4.204156e-003
2.501221e+003, 3.788209e-003
2.503150e+003, 3.221874e-003
2.505078e+003, 3.207305e-003
2.507007e+003, 3.431924e-003
2.508935e+003, 3.414814e-003
2.510864e+003, 3.338689e-003
2.512792e+003, 3.475477e-003
2.514720e+003, 3.899282e-003
2.516649e+003, 4.164325e-003
2.518577e+003, 4.133199e-003
2.520506e+003, 3.961624e-003
2.522434e+003, 3.841544e-003
2.524363e+003, 3.910984e-003
2.526291e+003, 3.961869e-003
2.528220e+003, 3.872363e-003
2.530148e+003, 3.578153e-003
2.532077e+003, 3.487568e-003
2.534005e+003, 3.764775e-003
2.535934e+003, 3.955431e-003
2.537862e+003, 3.752071e-003
2.539791e+003, 3.658273e-003
2.541719e+003, 3.870643e-003
2.543647e+003, 3.923918e-003
2.545576e+003, 4.277563e-003
2.547504e+003, 4.414802e-003
2.549433e+003, 4.226004e-003
2.551361e+003, 3.969174e-003
2.553290e+003, 4.040028e-003
2.555218e+003, 4.323206e-003
2.557147e+003, 4.249172e-003
2.559075e+003, 4.196146e-003
2.561004e+003, 4.122598e-003
2.562932e+003, 4.130492e-003
2.564861e+003, 4.233858e-003
2.566789e+003, 3.933370e-003
2.568718e+003, 3.567361e-003
2.570646e+003, 3.757369e-003
2.572574e+003, 4.096204e-003
2.574503e+003, 4.080115e-003
2.576431e+003, 3.759820e-003
2.578360e+003, 4.031586e-003
2.580288e+003, 4.290935e-003
2.582217e+003, 4.277081e-003
2.584145e+003, 4.435697e-003
2.586074e+003, 4.307772e-003
2.588002e+003, 4.191203e-003
2.589931e+003, 4.056123e-003
2.591859e+003, 4.020046e-003
2.593788e+003, 4.018226e-003
2.595716e+003, 3.986807e-003
2.597645e+003, 4.094130e-003
2.599573e+003, 4.112241e-003
2.601501e+003, 4.305216e-003
2.603430e+003, 4.621498e-003
2.605358e+003, 4.563327e-003
2.607287e+003, 4.302471e-003
2.609215e+003, 4.020043e-003
2.611144e+003, 3.728410e-003
2.613072e+003, 3.852550e-003
2.615001e+003, 4.112689e-003
2.616929e+003, 4.262828e-003
2.618858e+003, 4.185266e-003
2.620786e+003, 4.258879e-003
2.622715e+003, 4.225934e-003
2.624643e+003, 4.302995e-003
2.626572e+003, 4.310643e-003
2.628500e+003, 4.218820e-003
2.630428e+003, 4.305480e-003
2.632357e+003, 4.295275e-003
2.634285e+003, 4.122886e-003
2.636214e+003, 4.154252e-003
2.638142e+003, 4.417550e-003
2.640071e+003, 4.518287e-003
2.641999e+003, 4.368715e-003
2.643928e+003, 4.511311e-003
2.645856e+003, 4.649198e-003
2.647785e+003, 4.291268e-003
2.649713e+003, 4.396123e-003
2.651642e+003, 4.347312e-003
2.653570e+003, 4.061692e-003
2.655499e+003, 4.263700e-003
2.657427e+003, 4.489555e-003
2.659355e+003, 4.213274e-003
2.661284e+003, 4.035299e-003
2.663212e+003, 4.288622e-003
2.665141e+003, 4.529928e-003
2.667069e+003, 4.463336e-003
2.668998e+003, 4.301570e-003
2.670926e+003, 4.166333e-003
2.672855e+003, 4.265279e-003
2.674783e+003, 4.488016e-003
2.676712e+003, 4.451135e-003
2.678640e+003, 4.387727e-003
2.680569e+003, 4.384235e-003
2.682497e+003, 4.225322e-003
2.684426e+003, 4.227235e-003
2.686354e+003, 4.266666e-003
2.688282e+003, 4.353085e-003
2.690211e+003, 4.543155e-003
2.692139e+003, 4.548944e-003
2.694068e+003, 4.551343e-003
2.695996e+003, 4.687530e-003
2.697925e+003, 4.655200e-003
2.699853e+003, 4.576480e-003
2.701782e+003, 4.599455e-003
2.703710e+003, 4.727879e-003
2.705639e+003, 4.816966e-003
2.707567e+003, 4.667494e-003
2.709496e+003, 4.679226e-003
2.711424e+003, 4.775137e-003
2.713353e+003, 4.893486e-003
2.715281e+003, 4.803051e-003
2.717209e+003, 4.521153e-003
2.719138e+003, 4.518419e-003
2.721066e+003, 4.777992e-003
2.722995e+003, 5.096233e-003
2.724923e+003, 5.172421e-003
2.726852e+003, 5.039728e-003
2.728780e+003, 5.055406e-003
2.730709e+003, 5.074191e-003
2.732637e+003, 4.918233e-003
2.734566e+003, 4.714598e-003
2.736494e+003, 4.994253e-003
2.738423e+003, 4.879460e-003
2.740351e+003, 4.352542e-003
2.742280e+003, 4.448024e-003
2.744208e+003, 4.944117e-003
2.746136e+003, 5.254281e-003
2.748065e+003, 5.233958e-003
2.749993e+003, 5.017127e-003
2.751922e+003, 4.694398e-003
2.753850e+003, 4.859405e-003
2.755779e+003, 5.117649e-003
2.757707e+003, 5.043091e-003
2.759636e+003, 5.344549e-003
2.761564e+003, 5.513216e-003
2.763493e+003, 5.660507e-003
2.765421e+003, 5.727479e-003
2.767350e+003, 5.497518e-003
2.769278e+003, 5.538536e-003
2.771207e+003, 5.876118e-003
2.773135e+003, 5.855676e-003
2.775063e+003, 5.762410e-003
2.776992e+003, 5.768015e-003
2.778920e+003, 5.518320e-003
2.780849e+003, 5.500705e-003
2.782777e+003, 5.689449e-003
2.784706e+003, 5.605740e-003
2.786634e+003, 5.601211e-003
2.788563e+003, 5.794871e-003
2.790491e+003, 5.843421e-003
2.792420e+003, 5.661671e-003
2.794348e+003, 5.855011e-003
2.796277e+003, 5.956104e-003
2.798205e+003, 5.532301e-003
2.800134e+003, 5.503816e-003
2.802062e+003, 5.761719e-003
2.803990e+003, 5.918624e-003
2.805919e+003, 5.899195e-003
2.807847e+003, 5.927493e-003
2.809776e+003, 6.137340e-003
2.811704e+003, 5.941700e-003
2.813633e+003, 6.062640e-003
2.815561e+003, 6.159000e-003
2.817490e+003, 6.221340e-003
2.819418e+003, 6.227049e-003
2.821347e+003, 6.032263e-003
2.823275e+003, 6.022704e-003
2.825204e+003, 6.287646e-003
2.827132e+003, 6.317580e-003
2.829061e+003, 6.080191e-003
2.830989e+003, 6.286110e-003
2.832917e+003, 6.573217e-003
2.834846e+003, 6.512569e-003
2.836774e+003, 6.518556e-003
2.838703e+003, 6.563500e-003
2.840631e+003, 6.541309e-003
2.842560e+003, 6.512667e-003
2.844488e+003, 6.392156e-003
2.846417e+003, 6.398619e-003
2.848345e+003, 6.437140e-003
2.850274e+003, 6.425023e-003
2.852202e+003, 6.320368e-003
2.854131e+003, 6.216893e-003
2.856059e+003, 6.755936e-003
2.857988e+003, 7.006010e-003
2.859916e+003, 6.949890e-003
2.861844e+003, 6.877758e-003
2.863773e+003, 6.784645e-003
2.865701e+003, 6.317054e-003
2.867630e+003, 6.426413e-003
2.869558e+003, 6.535623e-003
2.871487e+003, 6.332717e-003
2.873415e+003, 6.607369e-003
2.875344e+003, 6.692386e-003
2.877272e+003, 6.249214e-003
2.879201e+003, 6.621074e-003
2.881129e+003, 7.245657e-003
2.883058e+003, 7.246325e-003
2.884986e+003, 7.167950e-003
2.886915e+003, 7.215118e-003
2.888843e+003, 6.939574e-003
2.890771e+003, 6.583716e-003
2.892700e+003, 6.936488e-003
2.894628e+003, 7.296501e-003
2.896557e+003, 7.495643e-003
2.898485e+003, 7.599119e-003
2.900414e+003, 7.516245e-003
2.902342e+003, 7.197632e-003
2.904271e+003, 7.134912e-003
2.906199e+003, 7.496194e-003
2.908128e+003, 7.691115e-003
2.910056e+003, 7.624091e-003
2.911985e+003, 7.813813e-003
2.913913e+003, 7.947468e-003
2.915842e+003, 7.929724e-003
2.917770e+003, 7.959447e-003
2.919698e+003, 8.248642e-003
2.921627e+003, 8.449509e-003
2.923555e+003, 8.560062e-003
2.925484e+003, 8.698762e-003
2.927412e+003, 8.500452e-003
2.929341e+003, 8.302284e-003
2.931269e+003, 8.427852e-003
2.933198e+003, 8.298433e-003
2.935126e+003, 8.042906e-003
2.937055e+003, 7.997306e-003
2.938983e+003, 7.808612e-003
2.940912e+003, 8.094307e-003
2.942840e+003, 8.437639e-003
2.944769e+003, 8.622768e-003
2.946697e+003, 8.266293e-003
2.948625e+003, 8.102932e-003
2.950554e+003, 8.203310e-003
2.952482e+003, 8.186175e-003
2.954411e+003, 8.404285e-003
2.956339e+003, 8.700898e-003
2.958268e+003, 8.347765e-003
2.960196e+003, 8.414848e-003
2.962125e+003, 8.572524e-003
2.964053e+003, 8.349985e-003
2.965982e+003, 8.218692e-003
2.967910e+003, 8.648322e-003
2.969839e+003, 9.241751e-003
2.971767e+003, 9.236499e-003
2.973696e+003, 9.381370e-003
2.975624e+003, 9.714475e-003
2.977552e+003, 9.577186e-003
2.979481e+003, 9.486675e-003
2.981409e+003, 9.675283e-003
2.983338e+003, 9.256409e-003
2.985266e+003, 9.436790e-003
2.987195e+003, 9.706854e-003
2.989123e+003, 9.633748e-003
2.991052e+003, 9.917404e-003
2.992980e+003, 1.030602e-002
2.994909e+003, 1.045866e-002
2.996837e+003, 9.988961e-003
2.998766e+003, 9.948784e-003
3.000694e+003, 1.009068e-002
3.002623e+003, 1.037637e-002
3.004551e+003, 1.056673e-002
3.006479e+003, 1.049623e-002
3.008408e+003, 1.056360e-002
3.010336e+003, 1.141553e-002
3.012265e+003, 1.155097e-002
3.014193e+003, 1.092400e-002
3.016122e+003, 1.021296e-002
3.018050e+003, 1.036577e-002
3.019979e+003, 1.113756e-002
3.021907e+003, 1.152718e-002
3.023836e+003, 1.224128e-002
3.025764e+003, 1.244526e-002
3.027693e+003, 1.207778e-002
3.029621e+003, 1.229291e-002
3.031550e+003, 1.233860e-002
3.033478e+003, 1.208133e-002
3.035406e+003, 1.218133e-002
3.037335e+003, 1.256345e-002
3.039263e+003, 1.263258e-002
3.041192e+003, 1.326421e-002
3.043120e+003, 1.367443e-002
3.045049e+003, 1.355531e-002
3.046977e+003, 1.358812e-002
3.048906e+003, 1.350135e-002
3.050834e+003, 1.354067e-002
3.052763e+003, 1.409334e-002
3.054691e+003, 1.412070e-002
3.056620e+003, 1.367128e-002
3.058548e+003, 1.384040e-002
3.060477e+003, 1.434234e-002
3.062405e+003, 1.466902e-002
3.064333e+003, 1.466372e-002
3.066262e+003, 1.455530e-002
3.068190e+003, 1.523786e-002
3.070119e+003, 1.573931e-002
3.072047e+003, 1.536224e-002
3.073976e+003, 1.556081e-002
3.075904e+003, 1.587102e-002
3.077833e+003, 1.586512e-002
3.079761e+003, 1.599377e-002
3.081690e+003, 1.602915e-002
3.083618e+003, 1.626581e-002
3.085547e+003, 1.635995e-002
3.087475e+003, 1.642564e-002
3.089404e+003, 1.617722e-002
3.091332e+003, 1.646804e-002
3.093260e+003, 1.704147e-002
3.095189e+003, 1.772752e-002
3.097117e+003, 1.843546e-002
3.099046e+003, 1.854349e-002
3.100974e+003, 1.830010e-002
3.102903e+003, 1.842888e-002
3.104831e+003, 1.884812e-002
3.106760e+003, 1.944656e-002
3.108688e+003, 1.970688e-002
3.110617e+003, 1.953699e-002
3.112545e+003, 2.002164e-002
3.114474e+003, 2.074165e-002
3.116402e+003, 2.069834e-002
3.118331e+003, 2.092715e-002
3.120259e+003, 2.147772e-002
3.122188e+003, 2.166279e-002
3.124116e+003, 2.205914e-002
3.126044e+003, 2.246900e-002
3.127973e+003, 2.272266e-002
3.129901e+003, 2.276930e-002
3.131830e+003, 2.318348e-002
3.133758e+003, 2.377724e-002
3.135687e+003, 2.412373e-002
3.137615e+003, 2.442330e-002
3.139544e+003, 2.474351e-002
3.141472e+003, 2.525915e-002
3.143401e+003, 2.581369e-002
3.145329e+003, 2.620613e-002
3.147258e+003, 2.661497e-002
3.149186e+003, 2.733872e-002
3.151115e+003, 2.739568e-002
3.153043e+003, 2.765265e-002
3.154971e+003, 2.802594e-002
3.156900e+003, 2.863149e-002
3.158828e+003, 2.936527e-002
3.160757e+003, 2.908177e-002
3.162685e+003, 2.906469e-002
3.164614e+003, 2.922995e-002
3.166542e+003, 2.954761e-002
3.168471e+003, 2.979320e-002
3.170399e+003, 2.981900e-002
3.172328e+003, 3.007653e-002
3.174256e+003, 3.055631e-002
3.176185e+003, 3.042141e-002
3.178113e+003, 3.081870e-002
3.180042e+003, 3.130751e-002
3.181970e+003, 3.176180e-002
3.183898e+003, 3.212364e-002
3.185827e+003, 3.217385e-002
3.187755e+003, 3.271595e-002
3.189684e+003, 3.299629e-002
3.191612e+003, 3.368629e-002
3.193541e+003, 3.423315e-002
3.195469e+003, 3.424413e-002
3.197398e+003, 3.442894e-002
3.199326e+003, 3.512767e-002
3.201255e+003, 3.595750e-002
3.203183e+003, 3.620404e-002
3.205112e+003, 3.585504e-002
3.207040e+003, 3.647615e-002
3.208969e+003, 3.655753e-002
3.210897e+003, 3.652265e-002
3.212825e+003, 3.810620e-002
3.214754e+003, 3.917732e-002
3.216682e+003, 3.945696e-002
3.218611e+003, 3.949329e-002
3.220539e+003, 3.982846e-002
3.222468e+003, 4.024703e-002
3.224396e+003, 4.094698e-002
3.226325e+003, 4.193796e-002
3.228253e+003, 4.292611e-002
3.230182e+003, 4.401968e-002
3.232110e+003, 4.492503e-002
3.234039e+003, 4.545174e-002
3.235967e+003, 4.630774e-002
3.237896e+003, 4.753281e-002
3.239824e+003, 4.840754e-002
3.241752e+003, 4.987723e-002
3.243681e+003, 5.152794e-002
3.245609e+003, 5.292973e-002
3.247538e+003, 5.403537e-002
3.249466e+003, 5.483002e-002
3.251395e+003, 5.635712e-002
3.253323e+003, 5.853188e-002
3.255252e+003, 5.971423e-002
3.257180e+003, 6.166680e-002
3.259109e+003, 6.388452e-002
3.261037e+003, 6.526838e-002
3.262966e+003, 6.678648e-002
3.264894e+003, 6.887112e-002
3.266823e+003, 7.007488e-002
3.268751e+003, 7.069561e-002
3.270679e+003, 7.214180e-002
3.272608e+003, 7.316983e-002
3.274536e+003, 7.373616e-002
3.276465e+003, 7.448392e-002
3.278393e+003, 7.468007e-002
3.280322e+003, 7.466634e-002
3.282250e+003, 7.469769e-002
3.284179e+003, 7.396405e-002
3.286107e+003, 7.264495e-002
3.288036e+003, 7.138201e-002
3.289964e+003, 7.056314e-002
3.291893e+003, 6.961139e-002
3.293821e+003, 6.822598e-002
3.295750e+003, 6.709228e-002
3.297678e+003, 6.594478e-002
3.299606e+003, 6.500277e-002
3.301535e+003, 6.472871e-002
3.303463e+003, 6.455638e-002
3.305392e+003, 6.407114e-002
3.307320e+003, 6.330947e-002
3.309249e+003, 6.267147e-002
3.311177e+003, 6.251497e-002
3.313106e+003, 6.269682e-002
3.315034e+003, 6.251003e-002
3.316963e+003, 6.218851e-002
3.318891e+003, 6.241729e-002
3.320820e+003, 6.259348e-002
3.322748e+003, 6.204811e-002
3.324677e+003, 6.194299e-002
3.326605e+003, 6.201947e-002
3.328533e+003, 6.220241e-002
3.330462e+003, 6.206930e-002
3.332390e+003, 6.127904e-002
3.334319e+003, 6.114297e-002
3.336247e+003, 6.124309e-002
3.338176e+003, 6.074445e-002
3.340104e+003, 6.000972e-002
3.342033e+003, 5.973276e-002
3.343961e+003, 5.862674e-002
3.345890e+003, 5.763138e-002
3.347818e+003, 5.694052e-002
3.349747e+003, 5.640193e-002
3.351675e+003, 5.613043e-002
3.353604e+003, 5.626245e-002
3.355532e+003, 5.570334e-002
3.357460e+003, 5.497824e-002
3.359389e+003, 5.471286e-002
3.361317e+003, 5.470398e-002
3.363246e+003, 5.438204e-002
3.365174e+003, 5.459720e-002
3.367103e+003, 5.405900e-002
3.369031e+003, 5.351215e-002
3.370960e+003, 5.405791e-002
3.372888e+003, 5.427445e-002
3.374817e+003, 5.460148e-002
3.376745e+003, 5.533294e-002
3.378674e+003, 5.548738e-002
3.380602e+003, 5.578006e-002
3.382531e+003, 5.659063e-002
3.384459e+003, 5.748971e-002
3.386387e+003, 5.838889e-002
3.388316e+003, 5.949951e-002
3.390244e+003, 6.116483e-002
3.392173e+003, 6.223272e-002
3.394101e+003, 6.330990e-002
3.396030e+003, 6.459554e-002
3.397958e+003, 6.538270e-002
3.399887e+003, 6.736656e-002
3.401815e+003, 6.984954e-002
3.403744e+003, 7.205442e-002
3.405672e+003, 7.418497e-002
3.407601e+003, 7.698100e-002
3.409529e+003, 8.034587e-002
3.411458e+003, 8.337432e-002
3.413386e+003, 8.609822e-002
3.415314e+003, 8.977545e-002
3.417243e+003, 9.345508e-002
3.419171e+003, 9.738275e-002
3.421100e+003, 1.015852e-001
3.423028e+003, 1.061088e-001
3.424957e+003, 1.108955e-001
3.426885e+003, 1.158417e-001
3.428814e+003, 1.196084e-001
3.430742e+003, 1.229861e-001
3.432671e+003, 1.253572e-001
3.434599e+003, 1.268648e-001
3.436528e+003, 1.280390e-001
3.438456e+003, 1.282717e-001
3.440385e+003, 1.272535e-001
3.442313e+003, 1.252688e-001
3.444241e+003, 1.221488e-001
3.446170e+003, 1.181517e-001
3.448098e+003, 1.129985e-001
3.450027e+003, 1.080768e-001
3.451955e+003, 1.039952e-001
3.453884e+003, 9.985637e-002
3.455812e+003, 9.540178e-002
3.457741e+003, 9.073779e-002
3.459669e+003, 8.635042e-002
3.461598e+003, 8.201985e-002
3.463526e+003, 7.815545e-002
3.465455e+003, 7.512459e-002
3.467383e+003, 7.252378e-002
3.469312e+003, 6.891668e-002
3.471240e+003, 6.542676e-002
3.473168e+003, 6.352398e-002
3.475097e+003, 6.115095e-002
3.477025e+003, 5.816512e-002
3.478954e+003, 5.532842e-002
3.480882e+003, 5.330476e-002
3.482811e+003, 5.146676e-002
3.484739e+003, 4.935594e-002
3.486668e+003, 4.723873e-002
3.488596e+003, 4.572975e-002
3.490525e+003, 4.436936e-002
3.492453e+003, 4.252747e-002
3.494382e+003, 4.123085e-002
3.496310e+003, 4.002277e-002
3.498239e+003, 3.900530e-002
3.500167e+003, 3.823391e-002
3.502095e+003, 3.728141e-002
3.504024e+003, 3.582392e-002
3.505952e+003, 3.434971e-002
3.507881e+003, 3.350266e-002
3.509809e+003, 3.277704e-002
3.511738e+003, 3.147132e-002
3.513666e+003, 3.051587e-002
3.515595e+003, 2.975201e-002
3.517523e+003, 2.867380e-002
3.519452e+003, 2.840065e-002
3.521380e+003, 2.789601e-002
3.523309e+003, 2.684719e-002
3.525237e+003, 2.609105e-002
3.527166e+003, 2.546931e-002
3.529094e+003, 2.473863e-002
3.531022e+003, 2.321743e-002
3.532951e+003, 2.196631e-002
3.534879e+003, 2.138456e-002
3.536808e+003, 2.093411e-002
3.538736e+003, 2.056043e-002
3.540665e+003, 2.068146e-002
3.542593e+003, 2.035852e-002
3.544522e+003, 1.909887e-002
3.546450e+003, 1.802253e-002
3.548379e+003, 1.676776e-002
3.550307e+003, 1.618994e-002
3.552236e+003, 1.606715e-002
3.554164e+003, 1.585559e-002
3.556093e+003, 1.524905e-002
3.558021e+003, 1.468246e-002
3.559949e+003, 1.433245e-002
3.561878e+003, 1.370673e-002
3.563806e+003, 1.303817e-002
3.565735e+003, 1.318221e-002
3.567663e+003, 1.321350e-002
3.569592e+003, 1.190603e-002
3.571520e+003, 1.154291e-002
3.573449e+003, 1.158584e-002
3.575377e+003, 1.080692e-002
3.577306e+003, 1.054882e-002
3.579234e+003, 1.042278e-002
3.581163e+003, 9.599562e-003
3.583091e+003, 8.920115e-003
3.585020e+003, 9.317135e-003
3.586948e+003, 9.200507e-003
3.588876e+003, 8.641408e-003
3.590805e+003, 8.320024e-003
3.592733e+003, 8.041922e-003
3.594662e+003, 7.878233e-003
3.596590e+003, 7.236154e-003
3.598519e+003, 7.110404e-003
3.600447e+003, 6.913927e-003
3.602376e+003, 6.245763e-003
3.604304e+003, 6.114534e-003
3.606233e+003, 6.645174e-003
3.608161e+003, 6.850750e-003
3.610090e+003, 6.669851e-003
3.612018e+003, 6.819651e-003
3.613947e+003, 6.464415e-003
3.615875e+003, 5.531323e-003
3.617803e+003, 5.716478e-003
3.619732e+003, 6.155531e-003
3.621660e+003, 6.141051e-003
3.623589e+003, 5.270442e-003
3.625517e+003, 4.769478e-003
3.627446e+003, 5.146331e-003
3.629374e+003, 5.185222e-003
3.631303e+003, 3.805635e-003
3.633231e+003, 4.211800e-003
3.635160e+003, 4.762847e-003
3.637088e+003, 3.787048e-003
3.639017e+003, 4.114534e-003
3.640945e+003, 5.100064e-003
3.642874e+003, 5.420015e-003
3.644802e+003, 5.557107e-003
3.646730e+003, 5.650103e-003
3.648659e+003, 5.244847e-003
3.650587e+003, 4.794619e-003
3.652516e+003, 4.590283e-003
3.654444e+003, 4.652040e-003
3.656373e+003, 4.264477e-003
3.658301e+003, 4.265096e-003
3.660230e+003, 4.251741e-003
3.662158e+003, 3.773671e-003
3.664087e+003, 3.840362e-003
3.666015e+003, 3.941949e-003
3.667944e+003, 4.159022e-003
3.669872e+003, 4.223347e-003
3.671801e+003, 4.276995e-003
3.673729e+003, 4.397851e-003
3.675657e+003, 4.633138e-003
3.677586e+003, 4.570886e-003
3.679514e+003, 3.642350e-003
3.681443e+003, 3.542984e-003
3.683371e+003, 3.970264e-003
3.685300e+003, 3.991390e-003
3.687228e+003, 4.563421e-003
3.689157e+003, 5.525996e-003
3.691085e+003, 5.058649e-003
3.693014e+003, 4.285423e-003
3.694942e+003, 3.971551e-003
3.696871e+003, 3.473894e-003
3.698799e+003, 2.940019e-003
3.700728e+003, 3.378770e-003
3.702656e+003, 3.629946e-003
3.704584e+003, 3.112233e-003
3.706513e+003, 3.268851e-003
3.708441e+003, 3.728105e-003
3.710370e+003, 4.026999e-003
3.712298e+003, 4.037181e-003
3.714227e+003, 3.309157e-003
3.716155e+003, 3.076047e-003
3.718084e+003, 3.330036e-003
3.720012e+003, 3.581855e-003
3.721941e+003, 2.614849e-003
3.723869e+003, 2.229775e-003
3.725798e+003, 3.784898e-003
3.727726e+003, 4.245942e-003
3.729655e+003, 3.517239e-003
3.731583e+003, 3.367734e-003
3.733511e+003, 3.211630e-003
3.735440e+003, 3.328464e-003
3.737368e+003, 3.760539e-003
3.739297e+003, 3.602247e-003
3.741225e+003, 3.596247e-003
3.743154e+003, 3.899758e-003
3.745082e+003, 4.780636e-003
3.747011e+003, 5.152291e-003
3.748939e+003, 5.402032e-003
3.750868e+003, 4.671506e-003
3.752796e+003, 4.224271e-003
3.754725e+003, 3.784180e-003
3.756653e+003, 3.870923e-003
3.758582e+003, 4.061637e-003
3.760510e+003, 4.047819e-003
3.762438e+003, 3.650130e-003
3.764367e+003, 4.084803e-003
3.766295e+003, 4.390136e-003
3.768224e+003, 4.494517e-003
3.770152e+003, 4.384549e-003
3.772081e+003, 4.144295e-003
3.774009e+003, 3.301772e-003
3.775938e+003, 2.960853e-003
3.777866e+003, 3.413721e-003
3.779795e+003, 3.952904e-003
3.781723e+003, 3.438494e-003
3.783652e+003, 3.421745e-003
3.785580e+003, 4.092169e-003
3.787509e+003, 3.981249e-003
3.789437e+003, 3.336324e-003
3.791365e+003, 3.578821e-003
3.793294e+003, 4.456386e-003
3.795222e+003, 4.849432e-003
3.797151e+003, 4.124824e-003
3.799079e+003, 3.620313e-003
3.801008e+003, 3.923431e-003
3.802936e+003, 4.040344e-003
3.804865e+003, 4.753659e-003
3.806793e+003, 5.563032e-003
3.808722e+003, 5.265639e-003
3.810650e+003, 4.991919e-003
3.812579e+003, 3.894472e-003
3.814507e+003, 4.185285e-003
3.816436e+003, 4.551644e-003
3.818364e+003, 4.375324e-003
3.820292e+003, 4.957738e-003
3.822221e+003, 5.258379e-003
3.824149e+003, 5.064250e-003
3.826078e+003, 4.003947e-003
3.828006e+003, 3.629260e-003
3.829935e+003, 4.446994e-003
3.831863e+003, 5.855254e-003
3.833792e+003, 6.344315e-003
3.835720e+003, 5.986873e-003
3.837649e+003, 6.166104e-003
3.839577e+003, 6.041378e-003
3.841506e+003, 4.892902e-003
3.843434e+003, 3.762199e-003
3.845363e+003, 3.252452e-003
3.847291e+003, 4.009095e-003
3.849219e+003, 4.951796e-003
3.851148e+003, 5.648845e-003
3.853076e+003, 6.526303e-003
3.855005e+003, 6.144004e-003
3.856933e+003, 4.952833e-003
3.858862e+003, 3.836018e-003
3.860790e+003, 3.880368e-003
3.862719e+003, 4.494069e-003
3.864647e+003, 4.816799e-003
3.866576e+003, 4.736456e-003
3.868504e+003, 5.374430e-003
3.870433e+003, 5.863100e-003
3.872361e+003, 5.533464e-003
3.874290e+003, 5.344582e-003
3.876218e+003, 5.326881e-003
3.878146e+003, 5.426845e-003
3.880075e+003, 5.052452e-003
3.882003e+003, 4.552519e-003
3.883932e+003, 5.095536e-003
3.885860e+003, 5.719621e-003
3.887789e+003, 5.300879e-003
3.889717e+003, 5.196719e-003
3.891646e+003, 5.524614e-003
3.893574e+003, 5.409184e-003
3.895503e+003, 4.223444e-003
3.897431e+003, 3.380367e-003
3.899360e+003, 3.653399e-003
3.901288e+003, 4.592466e-003
3.903217e+003, 5.115876e-003
3.905145e+003, 5.186403e-003
3.907073e+003, 5.252337e-003
3.909002e+003, 4.575300e-003
3.910930e+003, 3.810725e-003
3.912859e+003, 3.795314e-003
3.914787e+003, 4.705375e-003
3.916716e+003, 4.878836e-003
3.918644e+003, 5.058084e-003
3.920573e+003, 5.197911e-003
3.922501e+003, 5.065147e-003
3.924430e+003, 5.324852e-003
3.926358e+003, 5.469589e-003
3.928287e+003, 5.208925e-003
3.930215e+003, 5.045475e-003
3.932144e+003, 4.859002e-003
3.934072e+003, 4.684663e-003
3.936000e+003, 4.557757e-003
3.937929e+003, 4.797469e-003
3.939857e+003, 4.828224e-003
3.941786e+003, 4.438234e-003
3.943714e+003, 3.831843e-003
3.945643e+003, 4.210466e-003
3.947571e+003, 4.953271e-003
3.949500e+003, 5.145740e-003
3.951428e+003, 5.318083e-003
3.953357e+003, 5.940072e-003
3.955285e+003, 5.711540e-003
3.957214e+003, 4.947786e-003
3.959142e+003, 4.217303e-003
3.961071e+003, 4.892614e-003
3.962999e+003, 5.466345e-003
3.964927e+003, 5.111896e-003
3.966856e+003, 5.204428e-003
3.968784e+003, 5.429241e-003
3.970713e+003, 5.236692e-003
3.972641e+003, 4.817990e-003
3.974570e+003, 5.165990e-003
3.976498e+003, 5.834421e-003
3.978427e+003, 5.688207e-003
3.980355e+003, 5.703673e-003
3.982284e+003, 5.988726e-003
3.984212e+003, 5.390588e-003
3.986141e+003, 4.842009e-003
3.988069e+003, 5.941261e-003
3.989998e+003, 6.168352e-003
3.991926e+003, 5.001891e-003
3.993854e+003, 4.758410e-003
3.995783e+003, 5.168620e-003
3.997711e+003, 5.185871e-003
3.999640e+003, 5.266820e-003
4.001568e+003, 0.000000e+000
##END=



