##NAMES=Portlandite
##RRUFFID=R070210
##IDEAL CHEMISTRY=Ca(OH)_2_
##LOCALITY=N'Chwaning II mine, Kalahari Manganese Field, northern Cape Province, South Africa
##OWNER=RRUFF
##SOURCE=Michael Scott
##DESCRIPTION=White flexible platy crystals associated with calcite
##STATUS=The identification of this mineral has been confirmed by X-ray diffraction and chemical analysis
##URL=rruff.info/R070210
##MEASURED CHEMISTRY=Ca_1.00_(OH)_2_
3.741225e+002, 5.662172e-002
3.760510e+002, 5.595078e-002
3.779795e+002, 5.812730e-002
3.799079e+002, 5.749277e-002
3.818364e+002, 5.629432e-002
3.837649e+002, 5.603203e-002
3.856933e+002, 5.482712e-002
3.876218e+002, 5.082541e-002
3.895503e+002, 4.744197e-002
3.914787e+002, 4.900738e-002
3.934072e+002, 5.380166e-002
3.953357e+002, 5.645539e-002
3.972641e+002, 5.509728e-002
3.991926e+002, 5.175755e-002
4.011211e+002, 5.085719e-002
4.030495e+002, 5.148629e-002
4.049780e+002, 4.929721e-002
4.069065e+002, 4.752710e-002
4.088349e+002, 4.705317e-002
4.107634e+002, 4.625470e-002
4.126919e+002, 4.560964e-002
4.146203e+002, 4.468944e-002
4.165488e+002, 4.256239e-002
4.184773e+002, 4.271788e-002
4.204057e+002, 4.394785e-002
4.223342e+002, 4.317320e-002
4.242627e+002, 4.161408e-002
4.261911e+002, 4.078214e-002
4.281196e+002, 4.047388e-002
4.300481e+002, 3.961167e-002
4.319765e+002, 3.872764e-002
4.339050e+002, 3.742623e-002
4.358335e+002, 3.602910e-002
4.377619e+002, 3.456841e-002
4.396904e+002, 3.401712e-002
4.416189e+002, 3.374607e-002
4.435473e+002, 3.321330e-002
4.454758e+002, 3.291697e-002
4.474043e+002, 3.281824e-002
4.493327e+002, 3.297536e-002
4.512612e+002, 3.221364e-002
4.531897e+002, 3.088619e-002
4.551181e+002, 3.016487e-002
4.570466e+002, 3.001726e-002
4.589751e+002, 2.962121e-002
4.609035e+002, 2.966634e-002
4.628320e+002, 2.950014e-002
4.647605e+002, 2.928771e-002
4.666889e+002, 2.956718e-002
4.686174e+002, 2.951631e-002
4.705459e+002, 2.891189e-002
4.724743e+002, 2.844917e-002
4.744028e+002, 2.783423e-002
4.763313e+002, 2.731805e-002
4.782597e+002, 2.693903e-002
4.801882e+002, 2.615107e-002
4.821167e+002, 2.570966e-002
4.840451e+002, 2.543504e-002
4.859736e+002, 2.491861e-002
4.879021e+002, 2.472284e-002
4.898305e+002, 2.447478e-002
4.917590e+002, 2.418705e-002
4.936875e+002, 2.355646e-002
4.956159e+002, 2.297482e-002
4.975444e+002, 2.262566e-002
4.994729e+002, 2.192040e-002
5.014013e+002, 2.140777e-002
5.033298e+002, 2.143464e-002
5.052583e+002, 2.147281e-002
5.071867e+002, 2.066492e-002
5.091152e+002, 2.001712e-002
5.110437e+002, 1.983844e-002
5.129721e+002, 1.978372e-002
5.149006e+002, 1.947884e-002
5.168290e+002, 1.902000e-002
5.187575e+002, 1.866729e-002
5.206860e+002, 1.845231e-002
5.226144e+002, 1.868508e-002
5.245429e+002, 1.846043e-002
5.264714e+002, 1.792222e-002
5.283998e+002, 1.754004e-002
5.303283e+002, 1.734728e-002
5.322568e+002, 1.731556e-002
5.341852e+002, 1.695941e-002
5.361137e+002, 1.677257e-002
5.380422e+002, 1.709043e-002
5.399706e+002, 1.733065e-002
5.418991e+002, 1.745856e-002
5.438276e+002, 1.748771e-002
5.457560e+002, 1.711494e-002
5.476845e+002, 1.681629e-002
5.496130e+002, 1.652487e-002
5.515414e+002, 1.629127e-002
5.534699e+002, 1.623902e-002
5.553984e+002, 1.579574e-002
5.573268e+002, 1.523623e-002
5.592553e+002, 1.474500e-002
5.611838e+002, 1.430993e-002
5.631122e+002, 1.411640e-002
5.650407e+002, 1.416693e-002
5.669692e+002, 1.394105e-002
5.688976e+002, 1.361155e-002
5.708261e+002, 1.323415e-002
5.727546e+002, 1.289075e-002
5.746830e+002, 1.253107e-002
5.766115e+002, 1.243070e-002
5.785400e+002, 1.240266e-002
5.804684e+002, 1.216864e-002
5.823969e+002, 1.173859e-002
5.843254e+002, 1.147536e-002
5.862538e+002, 1.123052e-002
5.881823e+002, 1.083515e-002
5.901108e+002, 1.054393e-002
5.920392e+002, 1.022450e-002
5.939677e+002, 9.897346e-003
5.958962e+002, 9.428443e-003
5.978246e+002, 8.968082e-003
5.997531e+002, 8.732855e-003
6.016816e+002, 8.220457e-003
6.036100e+002, 7.788124e-003
6.055385e+002, 7.453773e-003
6.074670e+002, 7.306166e-003
6.093954e+002, 7.224279e-003
6.113239e+002, 6.926544e-003
6.132524e+002, 6.781182e-003
6.151808e+002, 6.624327e-003
6.171093e+002, 6.467853e-003
6.190378e+002, 6.342400e-003
6.209662e+002, 6.168332e-003
6.228947e+002, 5.958484e-003
6.248232e+002, 5.792934e-003
6.267516e+002, 5.578272e-003
6.286801e+002, 5.539893e-003
6.306086e+002, 5.423413e-003
6.325370e+002, 5.369115e-003
6.344655e+002, 5.384357e-003
6.363940e+002, 5.185350e-003
6.383224e+002, 4.976870e-003
6.402509e+002, 4.872833e-003
6.421794e+002, 4.973036e-003
6.441078e+002, 5.087583e-003
6.460363e+002, 5.106732e-003
6.479648e+002, 4.986802e-003
6.498932e+002, 4.821146e-003
6.518217e+002, 4.663695e-003
6.537502e+002, 4.747549e-003
6.556786e+002, 4.778686e-003
6.576071e+002, 4.475901e-003
6.595356e+002, 4.147218e-003
6.614641e+002, 3.930903e-003
6.633925e+002, 3.997912e-003
6.653210e+002, 4.010724e-003
6.672495e+002, 3.743024e-003
6.691779e+002, 3.664910e-003
6.711064e+002, 3.702074e-003
6.730349e+002, 3.792844e-003
6.749633e+002, 3.817057e-003
6.768918e+002, 3.693512e-003
6.788203e+002, 3.367691e-003
6.807487e+002, 3.320937e-003
6.826772e+002, 3.306418e-003
6.846057e+002, 3.199453e-003
6.865341e+002, 3.107511e-003
6.884626e+002, 3.113081e-003
6.903911e+002, 3.107618e-003
6.923195e+002, 2.807642e-003
6.942480e+002, 2.656187e-003
6.961765e+002, 2.730036e-003
6.981049e+002, 2.791465e-003
7.000334e+002, 2.717090e-003
7.019619e+002, 2.688828e-003
7.038903e+002, 2.595727e-003
7.058188e+002, 2.505600e-003
7.077473e+002, 2.479479e-003
7.096757e+002, 2.449088e-003
7.116042e+002, 2.478356e-003
7.135327e+002, 2.551515e-003
7.154611e+002, 2.530018e-003
7.173896e+002, 2.304261e-003
7.193181e+002, 2.044918e-003
7.212465e+002, 2.088859e-003
7.231750e+002, 2.243675e-003
7.251035e+002, 2.144080e-003
7.270319e+002, 2.129781e-003
7.289604e+002, 2.175245e-003
7.308889e+002, 2.150956e-003
7.328173e+002, 2.077554e-003
7.347458e+002, 2.126864e-003
7.366743e+002, 2.184042e-003
7.386027e+002, 2.166995e-003
7.405312e+002, 2.133261e-003
7.424597e+002, 2.141133e-003
7.443881e+002, 2.174067e-003
7.463166e+002, 2.137479e-003
7.482451e+002, 2.032253e-003
7.501735e+002, 1.963089e-003
7.521020e+002, 1.891302e-003
7.540305e+002, 1.859581e-003
7.559589e+002, 1.835066e-003
7.578874e+002, 1.901401e-003
7.598159e+002, 1.869124e-003
7.617443e+002, 1.789789e-003
7.636728e+002, 1.812803e-003
7.656013e+002, 1.911292e-003
7.675297e+002, 1.937577e-003
7.694582e+002, 1.991710e-003
7.713867e+002, 1.946879e-003
7.733151e+002, 1.877743e-003
7.752436e+002, 1.901534e-003
7.771721e+002, 2.026030e-003
7.791005e+002, 2.023913e-003
7.810290e+002, 1.972515e-003
7.829575e+002, 2.009640e-003
7.848859e+002, 2.089412e-003
7.868144e+002, 2.089900e-003
7.887429e+002, 2.113505e-003
7.906713e+002, 2.207376e-003
7.925998e+002, 2.178151e-003
7.945283e+002, 2.067141e-003
7.964567e+002, 1.915713e-003
7.983852e+002, 1.835480e-003
8.003137e+002, 1.895129e-003
8.022421e+002, 1.909069e-003
8.041706e+002, 1.786537e-003
8.060991e+002, 1.653607e-003
8.080275e+002, 1.663740e-003
8.099560e+002, 1.696310e-003
8.118845e+002, 1.657706e-003
8.138129e+002, 1.675162e-003
8.157414e+002, 1.715770e-003
8.176699e+002, 1.779846e-003
8.195983e+002, 1.743384e-003
8.215268e+002, 1.731354e-003
8.234553e+002, 1.719760e-003
8.253837e+002, 1.730591e-003
8.273122e+002, 1.777073e-003
8.292407e+002, 1.865425e-003
8.311691e+002, 1.870653e-003
8.330976e+002, 1.877546e-003
8.350261e+002, 1.818951e-003
8.369545e+002, 1.844212e-003
8.388830e+002, 1.818271e-003
8.408115e+002, 1.846231e-003
8.427399e+002, 1.858778e-003
8.446684e+002, 1.865678e-003
8.465969e+002, 2.047519e-003
8.485253e+002, 2.267772e-003
8.504538e+002, 2.407205e-003
8.523823e+002, 2.590197e-003
8.543107e+002, 2.815542e-003
8.562392e+002, 3.064409e-003
8.581677e+002, 3.227386e-003
8.600961e+002, 3.462502e-003
8.620246e+002, 3.621528e-003
8.639531e+002, 3.677712e-003
8.658815e+002, 3.773302e-003
8.678100e+002, 3.800751e-003
8.697385e+002, 3.872852e-003
8.716669e+002, 4.171036e-003
8.735954e+002, 4.425561e-003
8.755239e+002, 4.270136e-003
8.774523e+002, 3.812470e-003
8.793808e+002, 3.411849e-003
8.813093e+002, 2.996601e-003
8.832377e+002, 2.545268e-003
8.851662e+002, 2.218933e-003
8.870947e+002, 2.031336e-003
8.890231e+002, 2.018467e-003
8.909516e+002, 1.905498e-003
8.928801e+002, 1.791353e-003
8.948085e+002, 1.937027e-003
8.967370e+002, 2.018400e-003
8.986655e+002, 1.948010e-003
9.005939e+002, 1.852458e-003
9.025224e+002, 1.835999e-003
9.044509e+002, 1.786002e-003
9.063793e+002, 1.669455e-003
9.083078e+002, 1.744529e-003
9.102363e+002, 1.860403e-003
9.121647e+002, 1.804771e-003
9.140932e+002, 1.704024e-003
9.160217e+002, 1.626456e-003
9.179501e+002, 1.629025e-003
9.198786e+002, 1.690971e-003
9.218071e+002, 1.870903e-003
9.237355e+002, 1.916336e-003
9.256640e+002, 1.839076e-003
9.275925e+002, 1.835346e-003
9.295209e+002, 1.915066e-003
9.314494e+002, 1.820995e-003
9.333779e+002, 1.724275e-003
9.353063e+002, 1.676239e-003
9.372348e+002, 1.695723e-003
9.391633e+002, 1.760809e-003
9.410917e+002, 1.860396e-003
9.430202e+002, 1.818631e-003
9.449487e+002, 1.777659e-003
9.468771e+002, 1.841571e-003
9.488056e+002, 1.841752e-003
9.507341e+002, 1.842360e-003
9.526625e+002, 1.828150e-003
9.545910e+002, 1.732767e-003
9.565195e+002, 1.735150e-003
9.584479e+002, 1.888976e-003
9.603764e+002, 1.923111e-003
9.623049e+002, 1.879853e-003
9.642333e+002, 1.867440e-003
9.661618e+002, 1.947229e-003
9.680903e+002, 2.023501e-003
9.700187e+002, 2.095454e-003
9.719472e+002, 1.970590e-003
9.738757e+002, 1.893418e-003
9.758041e+002, 1.879203e-003
9.777326e+002, 1.918676e-003
9.796611e+002, 1.893792e-003
9.815895e+002, 1.928128e-003
9.835180e+002, 2.081904e-003
9.854465e+002, 2.014978e-003
9.873749e+002, 1.947129e-003
9.893034e+002, 1.993276e-003
9.912319e+002, 2.089689e-003
9.931603e+002, 2.098806e-003
9.950888e+002, 2.054039e-003
9.970173e+002, 2.138979e-003
9.989457e+002, 2.185555e-003
1.000874e+003, 2.145705e-003
1.002803e+003, 2.097874e-003
1.004731e+003, 2.150040e-003
1.006660e+003, 2.211615e-003
1.008588e+003, 2.165664e-003
1.010517e+003, 2.300914e-003
1.012445e+003, 2.408569e-003
1.014373e+003, 2.315623e-003
1.016302e+003, 2.279565e-003
1.018230e+003, 2.304872e-003
1.020159e+003, 2.269132e-003
1.022087e+003, 2.182157e-003
1.024016e+003, 2.069492e-003
1.025944e+003, 2.190675e-003
1.027873e+003, 2.185334e-003
1.029801e+003, 2.150060e-003
1.031730e+003, 2.256933e-003
1.033658e+003, 2.233394e-003
1.035587e+003, 2.253687e-003
1.037515e+003, 2.338556e-003
1.039443e+003, 2.371106e-003
1.041372e+003, 2.400537e-003
1.043300e+003, 2.462769e-003
1.045229e+003, 2.391574e-003
1.047157e+003, 2.396741e-003
1.049086e+003, 2.496936e-003
1.051014e+003, 2.584475e-003
1.052943e+003, 2.634221e-003
1.054871e+003, 2.585035e-003
1.056800e+003, 2.662331e-003
1.058728e+003, 2.713787e-003
1.060657e+003, 2.796992e-003
1.062585e+003, 2.816941e-003
1.064514e+003, 2.830731e-003
1.066442e+003, 2.825532e-003
1.068370e+003, 2.780264e-003
1.070299e+003, 2.862801e-003
1.072227e+003, 2.861900e-003
1.074156e+003, 2.821300e-003
1.076084e+003, 2.830187e-003
1.078013e+003, 2.843902e-003
1.079941e+003, 2.822042e-003
1.081870e+003, 2.840875e-003
1.083798e+003, 2.957937e-003
1.085727e+003, 2.933242e-003
1.087655e+003, 2.786039e-003
1.089584e+003, 2.722908e-003
1.091512e+003, 2.718504e-003
1.093441e+003, 2.726350e-003
1.095369e+003, 2.786627e-003
1.097297e+003, 2.864848e-003
1.099226e+003, 2.953084e-003
1.101154e+003, 2.952517e-003
1.103083e+003, 2.722464e-003
1.105011e+003, 2.668619e-003
1.106940e+003, 2.818780e-003
1.108868e+003, 2.864177e-003
1.110797e+003, 2.869286e-003
1.112725e+003, 2.779971e-003
1.114654e+003, 2.814671e-003
1.116582e+003, 2.807016e-003
1.118511e+003, 2.821235e-003
1.120439e+003, 2.776675e-003
1.122368e+003, 2.789734e-003
1.124296e+003, 2.752844e-003
1.126224e+003, 2.833881e-003
1.128153e+003, 2.864240e-003
1.130081e+003, 2.896497e-003
1.132010e+003, 2.801513e-003
1.133938e+003, 2.672850e-003
1.135867e+003, 2.600712e-003
1.137795e+003, 2.697170e-003
1.139724e+003, 2.692111e-003
1.141652e+003, 2.670625e-003
1.143581e+003, 2.765944e-003
1.145509e+003, 2.697990e-003
1.147438e+003, 2.606643e-003
1.149366e+003, 2.534629e-003
1.151295e+003, 2.452823e-003
1.153223e+003, 2.445385e-003
1.155151e+003, 2.464756e-003
1.157080e+003, 2.561900e-003
1.159008e+003, 2.587257e-003
1.160937e+003, 2.483553e-003
1.162865e+003, 2.322880e-003
1.164794e+003, 2.274285e-003
1.166722e+003, 2.284314e-003
1.168651e+003, 2.257332e-003
1.170579e+003, 2.274121e-003
1.172508e+003, 2.331540e-003
1.174436e+003, 2.369358e-003
1.176365e+003, 2.398010e-003
1.178293e+003, 2.511051e-003
1.180222e+003, 2.439171e-003
1.182150e+003, 2.307953e-003
1.184078e+003, 2.322330e-003
1.186007e+003, 2.318979e-003
1.187935e+003, 2.358108e-003
1.189864e+003, 2.401832e-003
1.191792e+003, 2.431480e-003
1.193721e+003, 2.519601e-003
1.195649e+003, 2.543665e-003
1.197578e+003, 2.484976e-003
1.199506e+003, 2.480760e-003
1.201435e+003, 2.495756e-003
1.203363e+003, 2.470005e-003
1.205292e+003, 2.498489e-003
1.207220e+003, 2.544175e-003
1.209149e+003, 2.538103e-003
1.211077e+003, 2.546755e-003
1.213005e+003, 2.576101e-003
1.214934e+003, 2.526038e-003
1.216862e+003, 2.495985e-003
1.218791e+003, 2.465865e-003
1.220719e+003, 2.512485e-003
1.222648e+003, 2.574836e-003
1.224576e+003, 2.550567e-003
1.226505e+003, 2.574599e-003
1.228433e+003, 2.586383e-003
1.230362e+003, 2.625519e-003
1.232290e+003, 2.644699e-003
1.234219e+003, 2.506912e-003
1.236147e+003, 2.426400e-003
1.238076e+003, 2.441851e-003
1.240004e+003, 2.518472e-003
1.241932e+003, 2.538975e-003
1.243861e+003, 2.608851e-003
1.245789e+003, 2.659112e-003
1.247718e+003, 2.636892e-003
1.249646e+003, 2.565002e-003
1.251575e+003, 2.503676e-003
1.253503e+003, 2.534410e-003
1.255432e+003, 2.565772e-003
1.257360e+003, 2.612791e-003
1.259289e+003, 2.678314e-003
1.261217e+003, 2.690020e-003
1.263146e+003, 2.733761e-003
1.265074e+003, 2.820092e-003
1.267003e+003, 2.817263e-003
1.268931e+003, 2.807185e-003
1.270859e+003, 2.902673e-003
1.272788e+003, 3.032714e-003
1.274716e+003, 2.998071e-003
1.276645e+003, 2.872395e-003
1.278573e+003, 2.889983e-003
1.280502e+003, 2.878992e-003
1.282430e+003, 2.803675e-003
1.284359e+003, 2.883860e-003
1.286287e+003, 2.895390e-003
1.288216e+003, 2.887120e-003
1.290144e+003, 2.949842e-003
1.292073e+003, 2.971299e-003
1.294001e+003, 2.960519e-003
1.295930e+003, 3.009959e-003
1.297858e+003, 3.002766e-003
1.299786e+003, 2.988178e-003
1.301715e+003, 3.043997e-003
1.303643e+003, 3.170947e-003
1.305572e+003, 3.172465e-003
1.307500e+003, 3.031744e-003
1.309429e+003, 3.005510e-003
1.311357e+003, 3.130031e-003
1.313286e+003, 3.213048e-003
1.315214e+003, 3.242879e-003
1.317143e+003, 3.248643e-003
1.319071e+003, 3.212435e-003
1.321000e+003, 3.264144e-003
1.322928e+003, 3.300298e-003
1.324857e+003, 3.355489e-003
1.326785e+003, 3.419277e-003
1.328714e+003, 3.504058e-003
1.330642e+003, 3.582117e-003
1.332570e+003, 3.580201e-003
1.334499e+003, 3.595260e-003
1.336427e+003, 3.728749e-003
1.338356e+003, 3.960769e-003
1.340284e+003, 4.089405e-003
1.342213e+003, 4.183972e-003
1.344141e+003, 4.369310e-003
1.346070e+003, 4.608529e-003
1.347998e+003, 4.849320e-003
1.349927e+003, 5.159820e-003
1.351855e+003, 5.380477e-003
1.353784e+003, 5.610331e-003
1.355712e+003, 5.895532e-003
1.357641e+003, 6.265209e-003
1.359569e+003, 6.589712e-003
1.361497e+003, 6.846727e-003
1.363426e+003, 7.095084e-003
1.365354e+003, 7.313708e-003
1.367283e+003, 7.598334e-003
1.369211e+003, 7.888963e-003
1.371140e+003, 8.233257e-003
1.373068e+003, 8.653587e-003
1.374997e+003, 9.147605e-003
1.376925e+003, 9.666177e-003
1.378854e+003, 1.009635e-002
1.380782e+003, 1.049605e-002
1.382711e+003, 1.101912e-002
1.384639e+003, 1.153255e-002
1.386568e+003, 1.186438e-002
1.388496e+003, 1.222478e-002
1.390424e+003, 1.260764e-002
1.392353e+003, 1.289539e-002
1.394281e+003, 1.311863e-002
1.396210e+003, 1.339977e-002
1.398138e+003, 1.364011e-002
1.400067e+003, 1.392932e-002
1.401995e+003, 1.420474e-002
1.403924e+003, 1.440425e-002
1.405852e+003, 1.463574e-002
1.407781e+003, 1.477555e-002
1.409709e+003, 1.480291e-002
1.411638e+003, 1.484276e-002
1.413566e+003, 1.488596e-002
1.415495e+003, 1.481040e-002
1.417423e+003, 1.476568e-002
1.419351e+003, 1.480994e-002
1.421280e+003, 1.485471e-002
1.423208e+003, 1.474353e-002
1.425137e+003, 1.469647e-002
1.427065e+003, 1.464450e-002
1.428994e+003, 1.455967e-002
1.430922e+003, 1.453412e-002
1.432851e+003, 1.448280e-002
1.434779e+003, 1.435899e-002
1.436708e+003, 1.415098e-002
1.438636e+003, 1.412038e-002
1.440565e+003, 1.417049e-002
1.442493e+003, 1.418471e-002
1.444422e+003, 1.415883e-002
1.446350e+003, 1.396614e-002
1.448278e+003, 1.380181e-002
1.450207e+003, 1.369971e-002
1.452135e+003, 1.362946e-002
1.454064e+003, 1.362377e-002
1.455992e+003, 1.336613e-002
1.457921e+003, 1.339808e-002
1.459849e+003, 1.368294e-002
1.461778e+003, 1.383163e-002
1.463706e+003, 1.376417e-002
1.465635e+003, 1.375213e-002
1.467563e+003, 1.383441e-002
1.469492e+003, 1.384775e-002
1.471420e+003, 1.366914e-002
1.473349e+003, 1.371144e-002
1.475277e+003, 1.378616e-002
1.477205e+003, 1.373496e-002
1.479134e+003, 1.368654e-002
1.481062e+003, 1.361314e-002
1.482991e+003, 1.361319e-002
1.484919e+003, 1.349832e-002
1.486848e+003, 1.327728e-002
1.488776e+003, 1.315572e-002
1.490705e+003, 1.310778e-002
1.492633e+003, 1.304988e-002
1.494562e+003, 1.273242e-002
1.496490e+003, 1.239521e-002
1.498419e+003, 1.230406e-002
1.500347e+003, 1.221451e-002
1.502276e+003, 1.204561e-002
1.504204e+003, 1.164376e-002
1.506132e+003, 1.116643e-002
1.508061e+003, 1.119673e-002
1.509989e+003, 1.139256e-002
1.511918e+003, 1.121240e-002
1.513846e+003, 1.101446e-002
1.515775e+003, 1.076770e-002
1.517703e+003, 1.056050e-002
1.519632e+003, 1.026309e-002
1.521560e+003, 9.961419e-003
1.523489e+003, 9.891682e-003
1.525417e+003, 9.794560e-003
1.527346e+003, 9.721366e-003
1.529274e+003, 9.539546e-003
1.531203e+003, 9.211126e-003
1.533131e+003, 8.880635e-003
1.535059e+003, 8.946436e-003
1.536988e+003, 8.754535e-003
1.538916e+003, 8.204357e-003
1.540845e+003, 7.933927e-003
1.542773e+003, 7.953933e-003
1.544702e+003, 7.920921e-003
1.546630e+003, 7.785412e-003
1.548559e+003, 7.676715e-003
1.550487e+003, 7.541502e-003
1.552416e+003, 7.364410e-003
1.554344e+003, 7.145525e-003
1.556273e+003, 6.893851e-003
1.558201e+003, 6.337937e-003
1.560130e+003, 6.182204e-003
1.562058e+003, 6.456162e-003
1.563986e+003, 6.454177e-003
1.565915e+003, 6.414245e-003
1.567843e+003, 6.221829e-003
1.569772e+003, 6.026935e-003
1.571700e+003, 6.156962e-003
1.573629e+003, 6.059706e-003
1.575557e+003, 5.793550e-003
1.577486e+003, 6.077110e-003
1.579414e+003, 6.457016e-003
1.581343e+003, 6.586018e-003
1.583271e+003, 6.734142e-003
1.585200e+003, 6.815475e-003
1.587128e+003, 6.894604e-003
1.589057e+003, 7.107322e-003
1.590985e+003, 7.218946e-003
1.592913e+003, 7.014107e-003
1.594842e+003, 6.897358e-003
1.596770e+003, 6.856467e-003
1.598699e+003, 6.759561e-003
1.600627e+003, 6.741134e-003
1.602556e+003, 6.760555e-003
1.604484e+003, 6.684933e-003
1.606413e+003, 6.541955e-003
1.608341e+003, 6.324003e-003
1.610270e+003, 6.221957e-003
1.612198e+003, 6.134054e-003
1.614127e+003, 5.945549e-003
1.616055e+003, 5.518102e-003
1.617984e+003, 5.437787e-003
1.619912e+003, 5.450740e-003
1.621840e+003, 5.282686e-003
1.623769e+003, 5.124068e-003
1.625697e+003, 5.027213e-003
1.627626e+003, 5.002364e-003
1.629554e+003, 4.824064e-003
1.631483e+003, 4.540693e-003
1.633411e+003, 4.221420e-003
1.635340e+003, 3.965769e-003
1.637268e+003, 4.115117e-003
1.639197e+003, 4.146221e-003
1.641125e+003, 3.978376e-003
1.643054e+003, 3.828394e-003
1.644982e+003, 3.487282e-003
1.646911e+003, 3.209712e-003
1.648839e+003, 3.278265e-003
1.650767e+003, 2.999648e-003
1.652696e+003, 2.427117e-003
1.654624e+003, 2.633555e-003
1.656553e+003, 3.066050e-003
1.658481e+003, 3.118441e-003
1.660410e+003, 2.944092e-003
1.662338e+003, 2.724698e-003
1.664267e+003, 2.738244e-003
1.666195e+003, 2.692242e-003
1.668124e+003, 2.528538e-003
1.670052e+003, 2.540713e-003
1.671981e+003, 2.476860e-003
1.673909e+003, 2.231246e-003
1.675838e+003, 2.139058e-003
1.677766e+003, 2.305492e-003
1.679694e+003, 2.398462e-003
1.681623e+003, 2.265534e-003
1.683551e+003, 1.972216e-003
1.685480e+003, 2.070664e-003
1.687408e+003, 2.207702e-003
1.689337e+003, 2.153051e-003
1.691265e+003, 2.261831e-003
1.693194e+003, 2.259605e-003
1.695122e+003, 1.902125e-003
1.697051e+003, 1.834984e-003
1.698979e+003, 1.685140e-003
1.700908e+003, 1.624783e-003
1.702836e+003, 2.025928e-003
1.704765e+003, 2.182392e-003
1.706693e+003, 2.304010e-003
1.708621e+003, 2.253156e-003
1.710550e+003, 2.208947e-003
1.712478e+003, 2.077970e-003
1.714407e+003, 1.942160e-003
1.716335e+003, 1.727342e-003
1.718264e+003, 1.762415e-003
1.720192e+003, 2.084149e-003
1.722121e+003, 2.238802e-003
1.724049e+003, 2.155345e-003
1.725978e+003, 2.069871e-003
1.727906e+003, 1.913032e-003
1.729835e+003, 1.775291e-003
1.731763e+003, 1.699718e-003
1.733692e+003, 1.524968e-003
1.735620e+003, 1.674120e-003
1.737548e+003, 1.873436e-003
1.739477e+003, 1.933503e-003
1.741405e+003, 1.964893e-003
1.743334e+003, 1.923378e-003
1.745262e+003, 1.873363e-003
1.747191e+003, 1.813777e-003
1.749119e+003, 1.864209e-003
1.751048e+003, 1.964249e-003
1.752976e+003, 2.119964e-003
1.754905e+003, 2.138539e-003
1.756833e+003, 2.069241e-003
1.758762e+003, 2.100119e-003
1.760690e+003, 2.055364e-003
1.762619e+003, 2.076098e-003
1.764547e+003, 2.140313e-003
1.766475e+003, 2.039037e-003
1.768404e+003, 2.167326e-003
1.770332e+003, 2.266611e-003
1.772261e+003, 2.171352e-003
1.774189e+003, 2.083143e-003
1.776118e+003, 2.141976e-003
1.778046e+003, 2.199219e-003
1.779975e+003, 2.148880e-003
1.781903e+003, 2.080847e-003
1.783832e+003, 2.135345e-003
1.785760e+003, 2.165098e-003
1.787689e+003, 2.290675e-003
1.789617e+003, 2.174599e-003
1.791546e+003, 1.920869e-003
1.793474e+003, 2.090861e-003
1.795402e+003, 2.349257e-003
1.797331e+003, 2.341419e-003
1.799259e+003, 2.263481e-003
1.801188e+003, 2.221293e-003
1.803116e+003, 2.052605e-003
1.805045e+003, 2.107604e-003
1.806973e+003, 2.272595e-003
1.808902e+003, 2.293026e-003
1.810830e+003, 2.138338e-003
1.812759e+003, 1.986780e-003
1.814687e+003, 2.005084e-003
1.816616e+003, 2.125412e-003
1.818544e+003, 2.383915e-003
1.820473e+003, 2.322829e-003
1.822401e+003, 2.220072e-003
1.824329e+003, 2.097348e-003
1.826258e+003, 2.162334e-003
1.828186e+003, 2.325389e-003
1.830115e+003, 2.292721e-003
1.832043e+003, 2.218100e-003
1.833972e+003, 2.339671e-003
1.835900e+003, 2.254740e-003
1.837829e+003, 2.090260e-003
1.839757e+003, 2.044080e-003
1.841686e+003, 2.230549e-003
1.843614e+003, 2.323459e-003
1.845543e+003, 2.357996e-003
1.847471e+003, 2.243235e-003
1.849400e+003, 2.112703e-003
1.851328e+003, 2.079942e-003
1.853256e+003, 2.040769e-003
1.855185e+003, 1.830407e-003
1.857113e+003, 1.830552e-003
1.859042e+003, 2.127396e-003
1.860970e+003, 2.189235e-003
1.862899e+003, 2.067324e-003
1.864827e+003, 2.379726e-003
1.866756e+003, 2.346796e-003
1.868684e+003, 2.049693e-003
1.870613e+003, 2.225160e-003
1.872541e+003, 2.466675e-003
1.874470e+003, 2.484073e-003
1.876398e+003, 2.393143e-003
1.878327e+003, 2.390799e-003
1.880255e+003, 2.465000e-003
1.882183e+003, 2.487207e-003
1.884112e+003, 2.422523e-003
1.886040e+003, 2.297092e-003
1.887969e+003, 2.309491e-003
1.889897e+003, 2.334365e-003
1.891826e+003, 2.267804e-003
1.893754e+003, 2.390788e-003
1.895683e+003, 2.388213e-003
1.897611e+003, 2.361967e-003
1.899540e+003, 2.401589e-003
1.901468e+003, 2.256204e-003
1.903397e+003, 2.308605e-003
1.905325e+003, 2.097602e-003
1.907254e+003, 1.918905e-003
1.909182e+003, 2.076760e-003
1.911110e+003, 2.146446e-003
1.913039e+003, 1.755881e-003
1.914967e+003, 1.893187e-003
1.916896e+003, 2.227010e-003
1.918824e+003, 2.198364e-003
1.920753e+003, 2.296389e-003
1.922681e+003, 2.089565e-003
1.924610e+003, 1.565328e-003
1.926538e+003, 1.754245e-003
1.928467e+003, 1.756842e-003
1.930395e+003, 1.744547e-003
1.932324e+003, 2.142302e-003
1.934252e+003, 2.320131e-003
1.936181e+003, 2.019331e-003
1.938109e+003, 1.770797e-003
1.940037e+003, 2.127039e-003
1.941966e+003, 2.588003e-003
1.943894e+003, 2.298100e-003
1.945823e+003, 1.536543e-003
1.947751e+003, 1.408475e-003
1.949680e+003, 1.866720e-003
1.951608e+003, 1.967196e-003
1.953537e+003, 1.982250e-003
1.955465e+003, 2.153051e-003
1.957394e+003, 1.795555e-003
1.959322e+003, 1.698372e-003
1.961251e+003, 1.562134e-003
1.963179e+003, 1.377300e-003
1.965108e+003, 1.303248e-003
1.967036e+003, 7.915290e-004
1.968964e+003, 1.157255e-003
1.970893e+003, 1.455946e-003
1.972821e+003, 1.519728e-003
1.974750e+003, 2.207309e-003
1.976678e+003, 2.119030e-003
1.978607e+003, 2.731699e-003
1.980535e+003, 2.808979e-003
1.982464e+003, 2.041940e-003
1.984392e+003, 2.414678e-003
1.986321e+003, 2.443805e-003
1.988249e+003, 1.950503e-003
1.990178e+003, 1.478300e-003
1.992106e+003, 1.299922e-003
1.994035e+003, 1.377199e-003
1.995963e+003, 1.900307e-003
1.997891e+003, 1.951552e-003
1.999820e+003, 1.289003e-003
2.001748e+003, 1.050088e-003
2.003677e+003, 1.524771e-003
2.005605e+003, 2.732662e-003
2.007534e+003, 2.049067e-003
2.009462e+003, 1.173634e-003
2.011391e+003, 1.380918e-003
2.013319e+003, 1.372916e-003
2.015248e+003, 1.440204e-003
2.017176e+003, 1.491503e-003
2.019105e+003, 2.182037e-003
2.021033e+003, 2.394766e-003
2.022962e+003, 1.836747e-003
2.024890e+003, 1.612906e-003
2.026818e+003, 2.105158e-003
2.028747e+003, 2.500537e-003
2.030675e+003, 2.465463e-003
2.032604e+003, 2.301617e-003
2.034532e+003, 2.048396e-003
2.036461e+003, 2.041460e-003
2.038389e+003, 2.336805e-003
2.040318e+003, 2.578407e-003
2.042246e+003, 2.620061e-003
2.044175e+003, 2.528459e-003
2.046103e+003, 2.775893e-003
2.048031e+003, 2.913746e-003
2.049960e+003, 2.823420e-003
2.051888e+003, 2.829402e-003
2.053817e+003, 2.417638e-003
2.055745e+003, 2.319827e-003
2.057674e+003, 1.964589e-003
2.059602e+003, 2.142044e-003
2.061531e+003, 2.681397e-003
2.063459e+003, 2.731446e-003
2.065388e+003, 2.730995e-003
2.067316e+003, 2.769938e-003
2.069245e+003, 3.126202e-003
2.071173e+003, 3.334064e-003
2.073102e+003, 3.376300e-003
2.075030e+003, 3.329296e-003
2.076958e+003, 3.467486e-003
2.078887e+003, 3.166867e-003
2.080815e+003, 2.653175e-003
2.082744e+003, 2.220198e-003
2.084672e+003, 2.116393e-003
2.086601e+003, 2.540392e-003
2.088529e+003, 2.445243e-003
2.090458e+003, 2.162365e-003
2.092386e+003, 2.430841e-003
2.094315e+003, 2.852457e-003
2.096243e+003, 2.932454e-003
2.098172e+003, 2.923044e-003
2.100100e+003, 2.699415e-003
2.102029e+003, 2.815598e-003
2.103957e+003, 2.761256e-003
2.105885e+003, 2.439453e-003
2.107814e+003, 2.227458e-003
2.109742e+003, 2.661027e-003
2.111671e+003, 3.075438e-003
2.113599e+003, 2.244086e-003
2.115528e+003, 1.624026e-003
2.117456e+003, 2.206827e-003
2.119385e+003, 2.931511e-003
2.121313e+003, 2.788521e-003
2.123242e+003, 2.604334e-003
2.125170e+003, 2.827086e-003
2.127099e+003, 3.191345e-003
2.129027e+003, 2.951718e-003
2.130956e+003, 2.542171e-003
2.132884e+003, 2.308953e-003
2.134813e+003, 2.289482e-003
2.136741e+003, 2.396433e-003
2.138669e+003, 2.818234e-003
2.140598e+003, 3.223453e-003
2.142526e+003, 2.922013e-003
2.144455e+003, 2.328160e-003
2.146383e+003, 2.632761e-003
2.148312e+003, 3.084098e-003
2.150240e+003, 3.256061e-003
2.152169e+003, 3.058633e-003
2.154097e+003, 1.519251e-003
2.156026e+003, 1.180056e-003
2.157954e+003, 1.964830e-003
2.159883e+003, 1.659266e-003
2.161811e+003, 2.032642e-003
2.163740e+003, 2.757046e-003
2.165668e+003, 2.815159e-003
2.167596e+003, 3.468397e-003
2.169525e+003, 3.269421e-003
2.171453e+003, 2.301204e-003
2.173382e+003, 2.034688e-003
2.175310e+003, 2.507117e-003
2.177239e+003, 3.174359e-003
2.179167e+003, 3.342798e-003
2.181096e+003, 2.954194e-003
2.183024e+003, 2.496867e-003
2.184953e+003, 2.228084e-003
2.186881e+003, 1.766243e-003
2.188810e+003, 1.442654e-003
2.190738e+003, 1.813283e-003
2.192667e+003, 2.361857e-003
2.194595e+003, 2.340474e-003
2.196523e+003, 2.102611e-003
2.198452e+003, 2.522019e-003
2.200380e+003, 2.584981e-003
2.202309e+003, 2.253023e-003
2.204237e+003, 2.036411e-003
2.206166e+003, 1.762159e-003
2.208094e+003, 1.848399e-003
2.210023e+003, 2.469105e-003
2.211951e+003, 2.504693e-003
2.213880e+003, 2.174450e-003
2.215808e+003, 2.364425e-003
2.217737e+003, 2.463263e-003
2.219665e+003, 2.047349e-003
2.221594e+003, 2.214444e-003
2.223522e+003, 2.520713e-003
2.225450e+003, 2.237793e-003
2.227379e+003, 1.967514e-003
2.229307e+003, 2.315758e-003
2.231236e+003, 2.288023e-003
2.233164e+003, 2.614177e-003
2.235093e+003, 3.534952e-003
2.237021e+003, 3.220837e-003
2.238950e+003, 2.856105e-003
2.240878e+003, 2.961354e-003
2.242807e+003, 2.762449e-003
2.244735e+003, 2.218782e-003
2.246664e+003, 2.196328e-003
2.248592e+003, 2.175865e-003
2.250521e+003, 1.893327e-003
2.252449e+003, 1.920111e-003
2.254377e+003, 2.342296e-003
2.256306e+003, 2.983127e-003
2.258234e+003, 2.977528e-003
2.260163e+003, 2.843425e-003
2.262091e+003, 2.764870e-003
2.264020e+003, 2.991009e-003
2.265948e+003, 3.664860e-003
2.267877e+003, 3.719005e-003
2.269805e+003, 3.192898e-003
2.271734e+003, 2.970306e-003
2.273662e+003, 3.054956e-003
2.275591e+003, 3.233967e-003
2.277519e+003, 3.255482e-003
2.279448e+003, 3.246085e-003
2.281376e+003, 3.207028e-003
2.283304e+003, 3.436115e-003
2.285233e+003, 3.375777e-003
2.287161e+003, 3.078635e-003
2.289090e+003, 3.140765e-003
2.291018e+003, 3.340549e-003
2.292947e+003, 3.402991e-003
2.294875e+003, 3.658074e-003
2.296804e+003, 3.766421e-003
2.298732e+003, 3.559082e-003
2.300661e+003, 3.135657e-003
2.302589e+003, 2.879210e-003
2.304518e+003, 2.845841e-003
2.306446e+003, 3.156035e-003
2.308375e+003, 3.489729e-003
2.310303e+003, 3.371277e-003
2.312231e+003, 3.153678e-003
2.314160e+003, 3.194024e-003
2.316088e+003, 3.176932e-003
2.318017e+003, 2.975753e-003
2.319945e+003, 2.792839e-003
2.321874e+003, 2.809610e-003
2.323802e+003, 2.957345e-003
2.325731e+003, 2.816663e-003
2.327659e+003, 2.558911e-003
2.329588e+003, 2.481538e-003
2.331516e+003, 2.529684e-003
2.333445e+003, 2.554082e-003
2.335373e+003, 2.605797e-003
2.337302e+003, 2.621042e-003
2.339230e+003, 2.557696e-003
2.341158e+003, 2.485466e-003
2.343087e+003, 2.569978e-003
2.345015e+003, 2.915610e-003
2.346944e+003, 3.024454e-003
2.348872e+003, 2.769150e-003
2.350801e+003, 2.686864e-003
2.352729e+003, 2.701598e-003
2.354658e+003, 2.742902e-003
2.356586e+003, 2.702801e-003
2.358515e+003, 2.617051e-003
2.360443e+003, 2.469576e-003
2.362372e+003, 2.493951e-003
2.364300e+003, 2.489633e-003
2.366229e+003, 2.530380e-003
2.368157e+003, 2.292500e-003
2.370085e+003, 2.376474e-003
2.372014e+003, 2.785356e-003
2.373942e+003, 3.072897e-003
2.375871e+003, 2.943071e-003
2.377799e+003, 2.763203e-003
2.379728e+003, 2.935258e-003
2.381656e+003, 3.025596e-003
2.383585e+003, 3.042115e-003
2.385513e+003, 3.135059e-003
2.387442e+003, 3.274584e-003
2.389370e+003, 3.307116e-003
2.391299e+003, 3.273718e-003
2.393227e+003, 3.157899e-003
2.395156e+003, 3.293980e-003
2.397084e+003, 3.536253e-003
2.399012e+003, 3.430007e-003
2.400941e+003, 3.446602e-003
2.402869e+003, 3.432798e-003
2.404798e+003, 3.099048e-003
2.406726e+003, 3.170124e-003
2.408655e+003, 3.568265e-003
2.410583e+003, 3.471494e-003
2.412512e+003, 2.831267e-003
2.414440e+003, 2.835209e-003
2.416369e+003, 3.009642e-003
2.418297e+003, 3.160152e-003
2.420226e+003, 3.286835e-003
2.422154e+003, 3.263459e-003
2.424083e+003, 3.163811e-003
2.426011e+003, 3.253377e-003
2.427939e+003, 3.353512e-003
2.429868e+003, 3.621052e-003
2.431796e+003, 3.648721e-003
2.433725e+003, 3.472559e-003
2.435653e+003, 3.352752e-003
2.437582e+003, 3.084834e-003
2.439510e+003, 3.109668e-003
2.441439e+003, 3.345758e-003
2.443367e+003, 3.367099e-003
2.445296e+003, 3.173259e-003
2.447224e+003, 3.270045e-003
2.449153e+003, 3.515571e-003
2.451081e+003, 3.562200e-003
2.453010e+003, 3.330178e-003
2.454938e+003, 3.212305e-003
2.456866e+003, 3.162754e-003
2.458795e+003, 3.222050e-003
2.460723e+003, 3.397904e-003
2.462652e+003, 3.635951e-003
2.464580e+003, 3.730925e-003
2.466509e+003, 3.410867e-003
2.468437e+003, 3.247906e-003
2.470366e+003, 3.435784e-003
2.472294e+003, 3.442022e-003
2.474223e+003, 3.197606e-003
2.476151e+003, 3.085245e-003
2.478080e+003, 2.997999e-003
2.480008e+003, 2.928827e-003
2.481937e+003, 3.059526e-003
2.483865e+003, 3.496971e-003
2.485793e+003, 3.643912e-003
2.487722e+003, 3.680999e-003
2.489650e+003, 3.672362e-003
2.491579e+003, 3.411586e-003
2.493507e+003, 3.389463e-003
2.495436e+003, 3.698213e-003
2.497364e+003, 3.787944e-003
2.499293e+003, 4.016454e-003
2.501221e+003, 4.058086e-003
2.503150e+003, 3.440691e-003
2.505078e+003, 3.030684e-003
2.507007e+003, 3.260718e-003
2.508935e+003, 3.496241e-003
2.510864e+003, 3.434264e-003
2.512792e+003, 3.591200e-003
2.514720e+003, 3.914953e-003
2.516649e+003, 3.895883e-003
2.518577e+003, 3.505334e-003
2.520506e+003, 3.313255e-003
2.522434e+003, 3.455906e-003
2.524363e+003, 3.591987e-003
2.526291e+003, 3.833707e-003
2.528220e+003, 3.889361e-003
2.530148e+003, 3.808556e-003
2.532077e+003, 3.471485e-003
2.534005e+003, 3.245238e-003
2.535934e+003, 3.055936e-003
2.537862e+003, 3.077166e-003
2.539791e+003, 3.290095e-003
2.541719e+003, 3.581874e-003
2.543647e+003, 3.636278e-003
2.545576e+003, 3.471002e-003
2.547504e+003, 2.837833e-003
2.549433e+003, 2.779196e-003
2.551361e+003, 3.354122e-003
2.553290e+003, 3.388671e-003
2.555218e+003, 3.323735e-003
2.557147e+003, 3.505510e-003
2.559075e+003, 3.617821e-003
2.561004e+003, 3.718899e-003
2.562932e+003, 3.697096e-003
2.564861e+003, 3.542843e-003
2.566789e+003, 3.787945e-003
2.568718e+003, 4.131276e-003
2.570646e+003, 3.907951e-003
2.572574e+003, 3.527662e-003
2.574503e+003, 3.541024e-003
2.576431e+003, 3.665908e-003
2.578360e+003, 3.590502e-003
2.580288e+003, 3.452982e-003
2.582217e+003, 3.427515e-003
2.584145e+003, 3.513581e-003
2.586074e+003, 3.724255e-003
2.588002e+003, 3.447551e-003
2.589931e+003, 3.057339e-003
2.591859e+003, 2.960348e-003
2.593788e+003, 3.173277e-003
2.595716e+003, 3.271740e-003
2.597645e+003, 3.350848e-003
2.599573e+003, 3.544813e-003
2.601501e+003, 3.083818e-003
2.603430e+003, 2.956553e-003
2.605358e+003, 3.467980e-003
2.607287e+003, 3.475854e-003
2.609215e+003, 3.149385e-003
2.611144e+003, 3.301227e-003
2.613072e+003, 3.582196e-003
2.615001e+003, 3.788969e-003
2.616929e+003, 3.681730e-003
2.618858e+003, 3.548922e-003
2.620786e+003, 3.489623e-003
2.622715e+003, 3.382641e-003
2.624643e+003, 3.239755e-003
2.626572e+003, 3.316777e-003
2.628500e+003, 3.617123e-003
2.630428e+003, 3.594704e-003
2.632357e+003, 3.366302e-003
2.634285e+003, 3.332108e-003
2.636214e+003, 3.558153e-003
2.638142e+003, 3.561474e-003
2.640071e+003, 3.348953e-003
2.641999e+003, 3.228594e-003
2.643928e+003, 3.355728e-003
2.645856e+003, 3.348788e-003
2.647785e+003, 3.346230e-003
2.649713e+003, 3.569366e-003
2.651642e+003, 3.418994e-003
2.653570e+003, 3.327495e-003
2.655499e+003, 3.633705e-003
2.657427e+003, 3.635831e-003
2.659355e+003, 3.469224e-003
2.661284e+003, 3.381019e-003
2.663212e+003, 3.297107e-003
2.665141e+003, 3.155879e-003
2.667069e+003, 3.446031e-003
2.668998e+003, 3.621874e-003
2.670926e+003, 3.606042e-003
2.672855e+003, 3.574816e-003
2.674783e+003, 3.431271e-003
2.676712e+003, 3.403696e-003
2.678640e+003, 3.378663e-003
2.680569e+003, 3.291147e-003
2.682497e+003, 3.502040e-003
2.684426e+003, 3.524826e-003
2.686354e+003, 3.433456e-003
2.688282e+003, 3.534659e-003
2.690211e+003, 3.596491e-003
2.692139e+003, 3.560614e-003
2.694068e+003, 3.395398e-003
2.695996e+003, 3.266428e-003
2.697925e+003, 3.396531e-003
2.699853e+003, 3.519741e-003
2.701782e+003, 3.444429e-003
2.703710e+003, 3.396410e-003
2.705639e+003, 3.549641e-003
2.707567e+003, 3.678623e-003
2.709496e+003, 3.528354e-003
2.711424e+003, 3.340221e-003
2.713353e+003, 3.399236e-003
2.715281e+003, 3.668957e-003
2.717209e+003, 3.574767e-003
2.719138e+003, 3.376719e-003
2.721066e+003, 3.482122e-003
2.722995e+003, 3.711583e-003
2.724923e+003, 3.782975e-003
2.726852e+003, 3.741712e-003
2.728780e+003, 3.748728e-003
2.730709e+003, 3.772724e-003
2.732637e+003, 3.654970e-003
2.734566e+003, 3.524968e-003
2.736494e+003, 3.468818e-003
2.738423e+003, 3.388562e-003
2.740351e+003, 3.424292e-003
2.742280e+003, 3.597591e-003
2.744208e+003, 3.599955e-003
2.746136e+003, 3.416061e-003
2.748065e+003, 3.265987e-003
2.749993e+003, 3.349620e-003
2.751922e+003, 3.473514e-003
2.753850e+003, 3.395714e-003
2.755779e+003, 3.075457e-003
2.757707e+003, 2.882328e-003
2.759636e+003, 3.057154e-003
2.761564e+003, 3.301882e-003
2.763493e+003, 3.577676e-003
2.765421e+003, 3.369376e-003
2.767350e+003, 2.855269e-003
2.769278e+003, 3.127165e-003
2.771207e+003, 3.475928e-003
2.773135e+003, 3.604989e-003
2.775063e+003, 3.536777e-003
2.776992e+003, 3.370847e-003
2.778920e+003, 3.552903e-003
2.780849e+003, 3.622297e-003
2.782777e+003, 3.391699e-003
2.784706e+003, 3.143986e-003
2.786634e+003, 3.055001e-003
2.788563e+003, 3.155787e-003
2.790491e+003, 3.389300e-003
2.792420e+003, 3.674405e-003
2.794348e+003, 3.617713e-003
2.796277e+003, 3.487529e-003
2.798205e+003, 3.327244e-003
2.800134e+003, 3.217265e-003
2.802062e+003, 3.306167e-003
2.803990e+003, 3.608199e-003
2.805919e+003, 3.640535e-003
2.807847e+003, 3.705299e-003
2.809776e+003, 3.717385e-003
2.811704e+003, 3.411802e-003
2.813633e+003, 3.247853e-003
2.815561e+003, 3.382929e-003
2.817490e+003, 3.248780e-003
2.819418e+003, 3.624344e-003
2.821347e+003, 3.764584e-003
2.823275e+003, 3.527822e-003
2.825204e+003, 3.467162e-003
2.827132e+003, 3.517270e-003
2.829061e+003, 3.731221e-003
2.830989e+003, 3.851495e-003
2.832917e+003, 3.810444e-003
2.834846e+003, 3.799206e-003
2.836774e+003, 3.747971e-003
2.838703e+003, 3.756290e-003
2.840631e+003, 3.874895e-003
2.842560e+003, 4.151852e-003
2.844488e+003, 4.024475e-003
2.846417e+003, 3.839882e-003
2.848345e+003, 4.007810e-003
2.850274e+003, 4.022762e-003
2.852202e+003, 3.958184e-003
2.854131e+003, 3.999398e-003
2.856059e+003, 4.089843e-003
2.857988e+003, 4.313258e-003
2.859916e+003, 4.450079e-003
2.861844e+003, 4.202173e-003
2.863773e+003, 4.243486e-003
2.865701e+003, 4.203583e-003
2.867630e+003, 3.944652e-003
2.869558e+003, 4.033072e-003
2.871487e+003, 4.082956e-003
2.873415e+003, 3.851614e-003
2.875344e+003, 3.622871e-003
2.877272e+003, 3.763964e-003
2.879201e+003, 4.028336e-003
2.881129e+003, 4.132285e-003
2.883058e+003, 4.301175e-003
2.884986e+003, 4.415633e-003
2.886915e+003, 4.253693e-003
2.888843e+003, 4.197103e-003
2.890771e+003, 4.115447e-003
2.892700e+003, 4.166102e-003
2.894628e+003, 4.091909e-003
2.896557e+003, 3.986619e-003
2.898485e+003, 4.061360e-003
2.900414e+003, 4.107465e-003
2.902342e+003, 3.974569e-003
2.904271e+003, 3.950196e-003
2.906199e+003, 4.045960e-003
2.908128e+003, 4.340826e-003
2.910056e+003, 4.575179e-003
2.911985e+003, 4.425721e-003
2.913913e+003, 4.341761e-003
2.915842e+003, 4.403695e-003
2.917770e+003, 4.439701e-003
2.919698e+003, 4.402366e-003
2.921627e+003, 4.311550e-003
2.923555e+003, 4.210897e-003
2.925484e+003, 4.501604e-003
2.927412e+003, 4.848252e-003
2.929341e+003, 4.941787e-003
2.931269e+003, 5.251547e-003
2.933198e+003, 5.139770e-003
2.935126e+003, 4.818141e-003
2.937055e+003, 4.442652e-003
2.938983e+003, 4.378644e-003
2.940912e+003, 4.644392e-003
2.942840e+003, 4.517988e-003
2.944769e+003, 4.215397e-003
2.946697e+003, 4.096125e-003
2.948625e+003, 4.326625e-003
2.950554e+003, 4.562374e-003
2.952482e+003, 4.523155e-003
2.954411e+003, 4.126651e-003
2.956339e+003, 3.971450e-003
2.958268e+003, 4.198451e-003
2.960196e+003, 4.278358e-003
2.962125e+003, 4.006247e-003
2.964053e+003, 3.951438e-003
2.965982e+003, 4.155825e-003
2.967910e+003, 4.392087e-003
2.969839e+003, 4.437319e-003
2.971767e+003, 4.103426e-003
2.973696e+003, 3.814547e-003
2.975624e+003, 4.264181e-003
2.977552e+003, 4.326949e-003
2.979481e+003, 4.212294e-003
2.981409e+003, 4.233074e-003
2.983338e+003, 4.228392e-003
2.985266e+003, 4.057286e-003
2.987195e+003, 4.145218e-003
2.989123e+003, 4.000666e-003
2.991052e+003, 3.813995e-003
2.992980e+003, 4.157867e-003
2.994909e+003, 4.487034e-003
2.996837e+003, 4.376753e-003
2.998766e+003, 4.252378e-003
3.000694e+003, 4.157578e-003
3.002623e+003, 4.110062e-003
3.004551e+003, 4.148071e-003
3.006479e+003, 4.118073e-003
3.008408e+003, 4.244334e-003
3.010336e+003, 4.464340e-003
3.012265e+003, 4.674143e-003
3.014193e+003, 5.142006e-003
3.016122e+003, 5.916373e-003
3.018050e+003, 5.557486e-003
3.019979e+003, 4.859416e-003
3.021907e+003, 4.823242e-003
3.023836e+003, 4.473512e-003
3.025764e+003, 4.409583e-003
3.027693e+003, 4.494048e-003
3.029621e+003, 4.419870e-003
3.031550e+003, 4.438928e-003
3.033478e+003, 4.233625e-003
3.035406e+003, 4.236836e-003
3.037335e+003, 4.529041e-003
3.039263e+003, 4.506366e-003
3.041192e+003, 4.293285e-003
3.043120e+003, 4.510900e-003
3.045049e+003, 4.536556e-003
3.046977e+003, 4.598000e-003
3.048906e+003, 4.882676e-003
3.050834e+003, 4.633574e-003
3.052763e+003, 4.321178e-003
3.054691e+003, 4.534649e-003
3.056620e+003, 4.801373e-003
3.058548e+003, 4.770755e-003
3.060477e+003, 4.756985e-003
3.062405e+003, 4.764071e-003
3.064333e+003, 4.877450e-003
3.066262e+003, 5.039211e-003
3.068190e+003, 4.710577e-003
3.070119e+003, 4.422535e-003
3.072047e+003, 4.580064e-003
3.073976e+003, 4.561593e-003
3.075904e+003, 4.478363e-003
3.077833e+003, 4.589657e-003
3.079761e+003, 4.693822e-003
3.081690e+003, 4.852335e-003
3.083618e+003, 5.103670e-003
3.085547e+003, 5.336478e-003
3.087475e+003, 5.219457e-003
3.089404e+003, 4.722673e-003
3.091332e+003, 4.428190e-003
3.093260e+003, 4.478990e-003
3.095189e+003, 4.419135e-003
3.097117e+003, 4.343245e-003
3.099046e+003, 4.622596e-003
3.100974e+003, 4.737667e-003
3.102903e+003, 5.052461e-003
3.104831e+003, 5.006154e-003
3.106760e+003, 4.795312e-003
3.108688e+003, 4.811538e-003
3.110617e+003, 4.937838e-003
3.112545e+003, 4.882125e-003
3.114474e+003, 4.714907e-003
3.116402e+003, 4.692975e-003
3.118331e+003, 4.758931e-003
3.120259e+003, 4.722151e-003
3.122188e+003, 4.696228e-003
3.124116e+003, 5.056934e-003
3.126044e+003, 5.048637e-003
3.127973e+003, 4.610130e-003
3.129901e+003, 4.663147e-003
3.131830e+003, 4.912006e-003
3.133758e+003, 4.924632e-003
3.135687e+003, 5.149075e-003
3.137615e+003, 5.017016e-003
3.139544e+003, 4.710263e-003
3.141472e+003, 4.723093e-003
3.143401e+003, 4.880698e-003
3.145329e+003, 4.988930e-003
3.147258e+003, 5.262380e-003
3.149186e+003, 5.220262e-003
3.151115e+003, 5.044995e-003
3.153043e+003, 4.840179e-003
3.154971e+003, 4.815667e-003
3.156900e+003, 5.212848e-003
3.158828e+003, 5.113087e-003
3.160757e+003, 4.798378e-003
3.162685e+003, 4.920051e-003
3.164614e+003, 5.106920e-003
3.166542e+003, 5.376199e-003
3.168471e+003, 5.196000e-003
3.170399e+003, 4.907757e-003
3.172328e+003, 5.089359e-003
3.174256e+003, 5.543100e-003
3.176185e+003, 5.675082e-003
3.178113e+003, 5.327534e-003
3.180042e+003, 5.326658e-003
3.181970e+003, 5.352024e-003
3.183898e+003, 5.064286e-003
3.185827e+003, 5.053912e-003
3.187755e+003, 5.029320e-003
3.189684e+003, 5.164550e-003
3.191612e+003, 5.580765e-003
3.193541e+003, 5.444452e-003
3.195469e+003, 5.121459e-003
3.197398e+003, 4.827817e-003
3.199326e+003, 4.947443e-003
3.201255e+003, 5.659366e-003
3.203183e+003, 5.728756e-003
3.205112e+003, 5.314370e-003
3.207040e+003, 5.440046e-003
3.208969e+003, 5.483360e-003
3.210897e+003, 5.304360e-003
3.212825e+003, 5.192155e-003
3.214754e+003, 5.504092e-003
3.216682e+003, 6.043816e-003
3.218611e+003, 5.827255e-003
3.220539e+003, 5.683321e-003
3.222468e+003, 5.671514e-003
3.224396e+003, 5.282365e-003
3.226325e+003, 4.950247e-003
3.228253e+003, 4.927889e-003
3.230182e+003, 5.384284e-003
3.232110e+003, 5.542651e-003
3.234039e+003, 5.375577e-003
3.235967e+003, 5.890898e-003
3.237896e+003, 6.154309e-003
3.239824e+003, 6.171250e-003
3.241752e+003, 6.186916e-003
3.243681e+003, 6.292191e-003
3.245609e+003, 6.254358e-003
3.247538e+003, 6.145797e-003
3.249466e+003, 5.941740e-003
3.251395e+003, 5.983474e-003
3.253323e+003, 6.202371e-003
3.255252e+003, 5.997968e-003
3.257180e+003, 5.491901e-003
3.259109e+003, 5.607048e-003
3.261037e+003, 5.929135e-003
3.262966e+003, 6.034715e-003
3.264894e+003, 6.349591e-003
3.266823e+003, 6.427619e-003
3.268751e+003, 6.389322e-003
3.270679e+003, 6.238205e-003
3.272608e+003, 6.115567e-003
3.274536e+003, 5.999761e-003
3.276465e+003, 5.911296e-003
3.278393e+003, 6.071984e-003
3.280322e+003, 5.800960e-003
3.282250e+003, 5.676630e-003
3.284179e+003, 6.012912e-003
3.286107e+003, 6.187811e-003
3.288036e+003, 6.103812e-003
3.289964e+003, 6.388900e-003
3.291893e+003, 6.742651e-003
3.293821e+003, 6.651434e-003
3.295750e+003, 6.495724e-003
3.297678e+003, 6.300551e-003
3.299606e+003, 5.976501e-003
3.301535e+003, 5.394510e-003
3.303463e+003, 5.569082e-003
3.305392e+003, 5.963158e-003
3.307320e+003, 6.178936e-003
3.309249e+003, 6.516817e-003
3.311177e+003, 6.378240e-003
3.313106e+003, 5.956190e-003
3.315034e+003, 6.225731e-003
3.316963e+003, 6.222964e-003
3.318891e+003, 6.391834e-003
3.320820e+003, 6.406610e-003
3.322748e+003, 6.536975e-003
3.324677e+003, 6.160048e-003
3.326605e+003, 5.856711e-003
3.328533e+003, 5.922797e-003
3.330462e+003, 6.322537e-003
3.332390e+003, 6.515644e-003
3.334319e+003, 6.630856e-003
3.336247e+003, 6.540095e-003
3.338176e+003, 6.365348e-003
3.340104e+003, 6.027602e-003
3.342033e+003, 5.397300e-003
3.343961e+003, 5.740666e-003
3.345890e+003, 6.066581e-003
3.347818e+003, 6.310828e-003
3.349747e+003, 6.398868e-003
3.351675e+003, 6.208267e-003
3.353604e+003, 5.840406e-003
3.355532e+003, 5.796001e-003
3.357460e+003, 6.317904e-003
3.359389e+003, 6.557678e-003
3.361317e+003, 6.419267e-003
3.363246e+003, 6.226543e-003
3.365174e+003, 6.288133e-003
3.367103e+003, 6.451766e-003
3.369031e+003, 6.374971e-003
3.370960e+003, 5.867729e-003
3.372888e+003, 5.952343e-003
3.374817e+003, 6.228506e-003
3.376745e+003, 6.268151e-003
3.378674e+003, 5.961696e-003
3.380602e+003, 5.924964e-003
3.382531e+003, 6.046070e-003
3.384459e+003, 6.088156e-003
3.386387e+003, 6.330409e-003
3.388316e+003, 6.443401e-003
3.390244e+003, 6.215471e-003
3.392173e+003, 6.440830e-003
3.394101e+003, 6.654731e-003
3.396030e+003, 6.515996e-003
3.397958e+003, 6.082126e-003
3.399887e+003, 5.518865e-003
3.401815e+003, 5.544862e-003
3.403744e+003, 5.796188e-003
3.405672e+003, 5.853863e-003
3.407601e+003, 5.934278e-003
3.409529e+003, 5.992663e-003
3.411458e+003, 6.261553e-003
3.413386e+003, 6.205822e-003
3.415314e+003, 6.269343e-003
3.417243e+003, 6.276197e-003
3.419171e+003, 6.412074e-003
3.421100e+003, 6.094692e-003
3.423028e+003, 5.475430e-003
3.424957e+003, 5.497097e-003
3.426885e+003, 5.945771e-003
3.428814e+003, 5.746335e-003
3.430742e+003, 5.462954e-003
3.432671e+003, 5.754312e-003
3.434599e+003, 6.422490e-003
3.436528e+003, 6.520343e-003
3.438456e+003, 6.689378e-003
3.440385e+003, 6.559405e-003
3.442313e+003, 6.262747e-003
3.444241e+003, 6.078681e-003
3.446170e+003, 6.088973e-003
3.448098e+003, 6.199774e-003
3.450027e+003, 5.981844e-003
3.451955e+003, 6.134268e-003
3.453884e+003, 6.180455e-003
3.455812e+003, 5.871210e-003
3.457741e+003, 5.771794e-003
3.459669e+003, 5.941664e-003
3.461598e+003, 6.162529e-003
3.463526e+003, 5.602593e-003
3.465455e+003, 5.222674e-003
3.467383e+003, 5.495738e-003
3.469312e+003, 5.791884e-003
3.471240e+003, 5.884485e-003
3.473168e+003, 6.560653e-003
3.475097e+003, 6.591836e-003
3.477025e+003, 5.704086e-003
3.478954e+003, 5.970989e-003
3.480882e+003, 6.760520e-003
3.482811e+003, 6.525974e-003
3.484739e+003, 6.085873e-003
3.486668e+003, 6.072898e-003
3.488596e+003, 6.287859e-003
3.490525e+003, 5.798194e-003
3.492453e+003, 5.542275e-003
3.494382e+003, 5.775689e-003
3.496310e+003, 6.258426e-003
3.498239e+003, 6.495852e-003
3.500167e+003, 6.179297e-003
3.502095e+003, 5.881331e-003
3.504024e+003, 5.490335e-003
3.505952e+003, 6.057758e-003
3.507881e+003, 6.766917e-003
3.509809e+003, 6.482850e-003
3.511738e+003, 5.949224e-003
3.513666e+003, 6.485911e-003
3.515595e+003, 6.821051e-003
3.517523e+003, 6.465084e-003
3.519452e+003, 6.554957e-003
3.521380e+003, 7.209864e-003
3.523309e+003, 7.376875e-003
3.525237e+003, 6.806739e-003
3.527166e+003, 6.297446e-003
3.529094e+003, 6.367129e-003
3.531022e+003, 6.011277e-003
3.532951e+003, 6.180760e-003
3.534879e+003, 6.698137e-003
3.536808e+003, 6.812451e-003
3.538736e+003, 6.929245e-003
3.540665e+003, 6.555497e-003
3.542593e+003, 6.327226e-003
3.544522e+003, 6.566912e-003
3.546450e+003, 7.319819e-003
3.548379e+003, 7.517795e-003
3.550307e+003, 6.851898e-003
3.552236e+003, 6.932953e-003
3.554164e+003, 6.507142e-003
3.556093e+003, 6.230990e-003
3.558021e+003, 6.495763e-003
3.559949e+003, 7.079473e-003
3.561878e+003, 7.374535e-003
3.563806e+003, 7.457447e-003
3.565735e+003, 7.241881e-003
3.567663e+003, 6.640341e-003
3.569592e+003, 5.825980e-003
3.571520e+003, 5.845175e-003
3.573449e+003, 6.706682e-003
3.575377e+003, 6.995893e-003
3.577306e+003, 6.835379e-003
3.579234e+003, 6.712697e-003
3.581163e+003, 6.640295e-003
3.583091e+003, 7.220953e-003
3.585020e+003, 7.569303e-003
3.586948e+003, 7.651619e-003
3.588876e+003, 8.056361e-003
3.590805e+003, 8.473603e-003
3.592733e+003, 8.113988e-003
3.594662e+003, 8.292572e-003
3.596590e+003, 8.442004e-003
3.598519e+003, 8.753223e-003
3.600447e+003, 9.280118e-003
3.602376e+003, 9.544238e-003
3.604304e+003, 9.431374e-003
3.606233e+003, 9.436192e-003
3.608161e+003, 9.332287e-003
3.610090e+003, 9.871773e-003
3.612018e+003, 1.170383e-002
3.613947e+003, 1.322368e-002
3.615875e+003, 1.387015e-002
3.617803e+003, 1.453209e-002
3.619732e+003, 1.519996e-002
3.621660e+003, 1.697240e-002
3.623589e+003, 1.939536e-002
3.625517e+003, 2.218250e-002
3.627446e+003, 2.533705e-002
3.629374e+003, 2.887070e-002
3.631303e+003, 3.370758e-002
3.633231e+003, 3.906679e-002
3.635160e+003, 4.475684e-002
3.637088e+003, 5.009851e-002
3.639017e+003, 5.412611e-002
3.640945e+003, 5.582072e-002
3.642874e+003, 5.311339e-002
3.644802e+003, 4.376879e-002
3.646730e+003, 2.977601e-002
3.648659e+003, 1.711964e-002
3.650587e+003, 9.665857e-003
3.652516e+003, 7.103967e-003
3.654444e+003, 5.461950e-003
3.656373e+003, 4.199332e-003
3.658301e+003, 3.874664e-003
3.660230e+003, 3.379069e-003
3.662158e+003, 3.200419e-003
3.664087e+003, 3.239220e-003
3.666015e+003, 3.234729e-003
3.667944e+003, 2.985961e-003
3.669872e+003, 2.547322e-003
3.671801e+003, 2.958656e-003
3.673729e+003, 2.709748e-003
3.675657e+003, 1.917304e-003
3.677586e+003, 2.781098e-003
3.679514e+003, 2.912519e-003
3.681443e+003, 1.941001e-003
3.683371e+003, 2.864492e-003
3.685300e+003, 3.423066e-003
3.687228e+003, 2.960173e-003
3.689157e+003, 2.983780e-003
3.691085e+003, 2.943692e-003
3.693014e+003, 3.261187e-003
3.694942e+003, 3.665709e-003
3.696871e+003, 3.605389e-003
3.698799e+003, 3.512581e-003
3.700728e+003, 3.566898e-003
3.702656e+003, 3.749284e-003
3.704584e+003, 3.757646e-003
3.706513e+003, 3.526976e-003
3.708441e+003, 3.513922e-003
3.710370e+003, 3.769222e-003
3.712298e+003, 3.709921e-003
3.714227e+003, 3.140104e-003
3.716155e+003, 3.154333e-003
3.718084e+003, 3.407812e-003
3.720012e+003, 3.100944e-003
3.721941e+003, 2.957637e-003
3.723869e+003, 4.150013e-003
3.725798e+003, 4.766063e-003
3.727726e+003, 4.494543e-003
3.729655e+003, 4.332074e-003
3.731583e+003, 3.745308e-003
3.733511e+003, 3.959424e-003
3.735440e+003, 3.492428e-003
3.737368e+003, 3.066014e-003
3.739297e+003, 3.452210e-003
3.741225e+003, 3.415109e-003
3.743154e+003, 2.845376e-003
3.745082e+003, 2.514479e-003
3.747011e+003, 3.366156e-003
3.748939e+003, 3.255616e-003
3.750868e+003, 2.922960e-003
3.752796e+003, 3.088654e-003
3.754725e+003, 3.556234e-003
3.756653e+003, 3.680693e-003
3.758582e+003, 3.513837e-003
3.760510e+003, 3.009499e-003
3.762438e+003, 3.101218e-003
3.764367e+003, 3.495499e-003
3.766295e+003, 3.959079e-003
3.768224e+003, 4.429020e-003
3.770152e+003, 3.859580e-003
3.772081e+003, 4.195958e-003
3.774009e+003, 4.262171e-003
3.775938e+003, 3.763925e-003
3.777866e+003, 3.978020e-003
3.779795e+003, 4.149044e-003
3.781723e+003, 4.404306e-003
3.783652e+003, 5.001621e-003
3.785580e+003, 5.388070e-003
3.787509e+003, 4.726660e-003
3.789437e+003, 4.131804e-003
3.791365e+003, 3.727548e-003
3.793294e+003, 3.784748e-003
3.795222e+003, 4.005365e-003
3.797151e+003, 4.486732e-003
3.799079e+003, 4.886403e-003
3.801008e+003, 4.182546e-003
3.802936e+003, 3.574620e-003
3.804865e+003, 3.634423e-003
3.806793e+003, 3.968257e-003
3.808722e+003, 4.069825e-003
3.810650e+003, 4.113149e-003
3.812579e+003, 4.375114e-003
3.814507e+003, 3.605753e-003
3.816436e+003, 2.688782e-003
3.818364e+003, 3.471568e-003
3.820292e+003, 3.866213e-003
3.822221e+003, 4.057060e-003
3.824149e+003, 4.289028e-003
3.826078e+003, 4.090887e-003
3.828006e+003, 4.288008e-003
3.829935e+003, 4.082411e-003
3.831863e+003, 3.365627e-003
3.833792e+003, 2.811044e-003
3.835720e+003, 2.795903e-003
3.837649e+003, 3.027227e-003
3.839577e+003, 3.627620e-003
3.841506e+003, 3.823346e-003
3.843434e+003, 3.996179e-003
3.845363e+003, 4.337308e-003
3.847291e+003, 4.517395e-003
3.849219e+003, 4.322210e-003
3.851148e+003, 3.976679e-003
3.853076e+003, 3.049206e-003
3.855005e+003, 3.249342e-003
3.856933e+003, 4.201959e-003
3.858862e+003, 4.777380e-003
3.860790e+003, 4.793744e-003
3.862719e+003, 3.989235e-003
3.864647e+003, 3.666001e-003
3.866576e+003, 4.448906e-003
3.868504e+003, 4.110836e-003
3.870433e+003, 3.853212e-003
3.872361e+003, 4.482821e-003
3.874290e+003, 4.936118e-003
3.876218e+003, 4.612961e-003
3.878146e+003, 3.808064e-003
3.880075e+003, 3.928241e-003
3.882003e+003, 3.896669e-003
3.883932e+003, 3.939615e-003
3.885860e+003, 3.957049e-003
3.887789e+003, 4.507468e-003
3.889717e+003, 5.059644e-003
3.891646e+003, 4.811001e-003
3.893574e+003, 4.313536e-003
3.895503e+003, 4.348277e-003
3.897431e+003, 3.981082e-003
3.899360e+003, 3.530355e-003
3.901288e+003, 3.472507e-003
3.903217e+003, 3.515685e-003
3.905145e+003, 3.915395e-003
3.907073e+003, 4.471338e-003
3.909002e+003, 4.532496e-003
3.910930e+003, 4.574482e-003
3.912859e+003, 4.690484e-003
3.914787e+003, 4.551274e-003
3.916716e+003, 4.746490e-003
3.918644e+003, 4.738791e-003
3.920573e+003, 4.242917e-003
3.922501e+003, 3.438417e-003
3.924430e+003, 3.192164e-003
3.926358e+003, 4.559190e-003
3.928287e+003, 5.208601e-003
3.930215e+003, 4.868951e-003
3.932144e+003, 4.292869e-003
3.934072e+003, 4.065244e-003
3.936000e+003, 4.408065e-003
3.937929e+003, 4.729434e-003
3.939857e+003, 4.471262e-003
3.941786e+003, 4.191006e-003
3.943714e+003, 4.261946e-003
3.945643e+003, 4.367562e-003
3.947571e+003, 4.080038e-003
3.949500e+003, 4.103797e-003
3.951428e+003, 4.379574e-003
3.953357e+003, 4.639512e-003
3.955285e+003, 4.685391e-003
3.957214e+003, 4.959974e-003
3.959142e+003, 4.948433e-003
3.961071e+003, 4.506392e-003
3.962999e+003, 4.493174e-003
3.964927e+003, 4.483887e-003
3.966856e+003, 3.964946e-003
3.968784e+003, 4.223765e-003
3.970713e+003, 4.636292e-003
3.972641e+003, 4.691456e-003
3.974570e+003, 4.557315e-003
3.976498e+003, 4.331385e-003
3.978427e+003, 4.435496e-003
3.980355e+003, 4.471087e-003
3.982284e+003, 4.141090e-003
3.984212e+003, 4.703982e-003
3.986141e+003, 4.857625e-003
3.988069e+003, 4.581045e-003
3.989998e+003, 4.546267e-003
3.991926e+003, 4.595131e-003
3.993854e+003, 4.226794e-003
3.995783e+003, 3.908068e-003
3.997711e+003, 4.408122e-003
3.999640e+003, 3.956574e-003
##END=



