##NAMES=Proto-ferro-anthophyllite
##RRUFFID=R060053
##IDEAL CHEMISTRY=Fe^2+^_7_Si_8_O_22_(OH)_2_
##LOCALITY=Nyppio mine, near Utsonomiya, Japan
##OWNER=RRUFF
##SOURCE=Marcus Origlieri
##DESCRIPTION=Sprays of green prismatic crystals
##STATUS=The identification of this mineral has been confirmed by X-ray diffraction and chemical analysis
##URL=rruff.info/R060053
##MEASURED CHEMISTRY=(Fe^2+^_0.51_Mn_0.27_Mg_0.22_)_7_Si_8_O_22_(OH)_2_
3.991926e+002, 2.427446e-001
4.011211e+002, 2.480642e-001
4.030495e+002, 2.498267e-001
4.049780e+002, 2.450620e-001
4.069065e+002, 2.510223e-001
4.088349e+002, 2.584065e-001
4.107634e+002, 2.590158e-001
4.126919e+002, 2.651648e-001
4.146203e+002, 2.748058e-001
4.165488e+002, 2.766688e-001
4.184773e+002, 2.758291e-001
4.204057e+002, 2.853789e-001
4.223342e+002, 2.871543e-001
4.242627e+002, 2.842030e-001
4.261911e+002, 2.806175e-001
4.281196e+002, 2.703139e-001
4.300481e+002, 2.614777e-001
4.319765e+002, 2.486579e-001
4.339050e+002, 2.420790e-001
4.358335e+002, 2.380883e-001
4.377619e+002, 2.348250e-001
4.396904e+002, 2.392554e-001
4.416189e+002, 2.469361e-001
4.435473e+002, 2.557310e-001
4.454758e+002, 2.676675e-001
4.474043e+002, 2.784385e-001
4.493327e+002, 2.882002e-001
4.512612e+002, 2.969432e-001
4.531897e+002, 3.070233e-001
4.551181e+002, 3.155813e-001
4.570466e+002, 3.248284e-001
4.589751e+002, 3.327517e-001
4.609035e+002, 3.380053e-001
4.628320e+002, 3.410226e-001
4.647605e+002, 3.415287e-001
4.666889e+002, 3.406394e-001
4.686174e+002, 3.362738e-001
4.705459e+002, 3.297400e-001
4.724743e+002, 3.239290e-001
4.744028e+002, 3.182388e-001
4.763313e+002, 3.123037e-001
4.782597e+002, 3.041533e-001
4.801882e+002, 2.964846e-001
4.821167e+002, 2.903671e-001
4.840451e+002, 2.857841e-001
4.859736e+002, 2.843614e-001
4.879021e+002, 2.836234e-001
4.898305e+002, 2.786850e-001
4.917590e+002, 2.725671e-001
4.936875e+002, 2.642609e-001
4.956159e+002, 2.542147e-001
4.975444e+002, 2.455300e-001
4.994729e+002, 2.362399e-001
5.014013e+002, 2.281554e-001
5.033298e+002, 2.202264e-001
5.052583e+002, 2.117389e-001
5.071867e+002, 2.029960e-001
5.091152e+002, 1.948045e-001
5.110437e+002, 1.865546e-001
5.129721e+002, 1.787802e-001
5.149006e+002, 1.709177e-001
5.168290e+002, 1.631422e-001
5.187575e+002, 1.548360e-001
5.206860e+002, 1.467981e-001
5.226144e+002, 1.397381e-001
5.245429e+002, 1.337675e-001
5.264714e+002, 1.271662e-001
5.283998e+002, 1.207684e-001
5.303283e+002, 1.149670e-001
5.322568e+002, 1.092140e-001
5.341852e+002, 1.036793e-001
5.361137e+002, 9.921553e-002
5.380422e+002, 9.628060e-002
5.399706e+002, 9.382563e-002
5.418991e+002, 9.160340e-002
5.438276e+002, 8.910906e-002
5.457560e+002, 8.577248e-002
5.476845e+002, 8.282334e-002
5.496130e+002, 7.985503e-002
5.515414e+002, 7.649319e-002
5.534699e+002, 7.334525e-002
5.553984e+002, 7.069267e-002
5.573268e+002, 6.826892e-002
5.592553e+002, 6.499148e-002
5.611838e+002, 6.138354e-002
5.631122e+002, 5.784943e-002
5.650407e+002, 5.417022e-002
5.669692e+002, 5.127518e-002
5.688976e+002, 4.878361e-002
5.708261e+002, 4.610062e-002
5.727546e+002, 4.349861e-002
5.746830e+002, 4.172626e-002
5.766115e+002, 4.030731e-002
5.785400e+002, 3.858295e-002
5.804684e+002, 3.719094e-002
5.823969e+002, 3.617378e-002
5.843254e+002, 3.533975e-002
5.862538e+002, 3.479019e-002
5.881823e+002, 3.433404e-002
5.901108e+002, 3.406579e-002
5.920392e+002, 3.458452e-002
5.939677e+002, 3.511603e-002
5.958962e+002, 3.519038e-002
5.978246e+002, 3.552569e-002
5.997531e+002, 3.667780e-002
6.016816e+002, 3.812489e-002
6.036100e+002, 3.913317e-002
6.055385e+002, 4.039747e-002
6.074670e+002, 4.242429e-002
6.093954e+002, 4.501930e-002
6.113239e+002, 4.806150e-002
6.132524e+002, 5.164865e-002
6.151808e+002, 5.620618e-002
6.171093e+002, 6.164655e-002
6.190378e+002, 6.730448e-002
6.209662e+002, 7.385881e-002
6.228947e+002, 8.113820e-002
6.248232e+002, 8.873536e-002
6.267516e+002, 9.628868e-002
6.286801e+002, 1.031155e-001
6.306086e+002, 1.076027e-001
6.325370e+002, 1.094269e-001
6.344655e+002, 1.083597e-001
6.363940e+002, 1.041767e-001
6.383224e+002, 9.793427e-002
6.402509e+002, 9.132731e-002
6.421794e+002, 8.536656e-002
6.441078e+002, 8.062585e-002
6.460363e+002, 7.671517e-002
6.479648e+002, 7.310081e-002
6.498932e+002, 6.951022e-002
6.518217e+002, 6.539777e-002
6.537502e+002, 6.149763e-002
6.556786e+002, 5.748162e-002
6.576071e+002, 5.420753e-002
6.595356e+002, 5.208771e-002
6.614641e+002, 5.049011e-002
6.633925e+002, 4.937086e-002
6.653210e+002, 4.858603e-002
6.672495e+002, 4.848153e-002
6.691779e+002, 4.909999e-002
6.711064e+002, 5.033947e-002
6.730349e+002, 5.153275e-002
6.749633e+002, 5.277636e-002
6.768918e+002, 5.516591e-002
6.788203e+002, 5.830871e-002
6.807487e+002, 6.126593e-002
6.826772e+002, 6.434658e-002
6.846057e+002, 6.797278e-002
6.865341e+002, 7.160753e-002
6.884626e+002, 7.502056e-002
6.903911e+002, 7.801756e-002
6.923195e+002, 8.076385e-002
6.942480e+002, 8.321702e-002
6.961765e+002, 8.443815e-002
6.981049e+002, 8.374541e-002
7.000334e+002, 8.123749e-002
7.019619e+002, 7.714817e-002
7.038903e+002, 7.179956e-002
7.058188e+002, 6.552523e-002
7.077473e+002, 5.958152e-002
7.096757e+002, 5.473855e-002
7.116042e+002, 5.097736e-002
7.135327e+002, 4.872322e-002
7.154611e+002, 4.786339e-002
7.173896e+002, 4.819233e-002
7.193181e+002, 4.910463e-002
7.212465e+002, 5.002018e-002
7.231750e+002, 5.063271e-002
7.251035e+002, 4.991880e-002
7.270319e+002, 4.805259e-002
7.289604e+002, 4.515795e-002
7.308889e+002, 4.218814e-002
7.328173e+002, 4.008849e-002
7.347458e+002, 3.863259e-002
7.366743e+002, 3.773381e-002
7.386027e+002, 3.785665e-002
7.405312e+002, 3.862782e-002
7.424597e+002, 3.929654e-002
7.443881e+002, 4.025410e-002
7.463166e+002, 4.171964e-002
7.482451e+002, 4.330572e-002
7.501735e+002, 4.597153e-002
7.521020e+002, 5.016250e-002
7.540305e+002, 5.555075e-002
7.559589e+002, 6.251693e-002
7.578874e+002, 7.174165e-002
7.598159e+002, 8.291408e-002
7.617443e+002, 9.437109e-002
7.636728e+002, 1.023801e-001
7.656013e+002, 1.031649e-001
7.675297e+002, 9.655984e-002
7.694582e+002, 8.618132e-002
7.713867e+002, 7.568596e-002
7.733151e+002, 6.694304e-002
7.752436e+002, 5.994559e-002
7.771721e+002, 5.485151e-002
7.791005e+002, 5.128023e-002
7.810290e+002, 4.864068e-002
7.829575e+002, 4.659477e-002
7.848859e+002, 4.502618e-002
7.868144e+002, 4.420352e-002
7.887429e+002, 4.417852e-002
7.906713e+002, 4.426057e-002
7.925998e+002, 4.443109e-002
7.945283e+002, 4.506195e-002
7.964567e+002, 4.594242e-002
7.983852e+002, 4.691691e-002
8.003137e+002, 4.761098e-002
8.022421e+002, 4.795560e-002
8.041706e+002, 4.821555e-002
8.060991e+002, 4.859568e-002
8.080275e+002, 4.900997e-002
8.099560e+002, 4.942912e-002
8.118845e+002, 5.044007e-002
8.138129e+002, 5.195915e-002
8.157414e+002, 5.326083e-002
8.176699e+002, 5.456413e-002
8.195983e+002, 5.631609e-002
8.215268e+002, 5.799257e-002
8.234553e+002, 5.980130e-002
8.253837e+002, 6.171432e-002
8.273122e+002, 6.382409e-002
8.292407e+002, 6.628498e-002
8.311691e+002, 6.876728e-002
8.330976e+002, 7.137035e-002
8.350261e+002, 7.419987e-002
8.369545e+002, 7.740595e-002
8.388830e+002, 8.071823e-002
8.408115e+002, 8.429195e-002
8.427399e+002, 8.825660e-002
8.446684e+002, 9.260194e-002
8.465969e+002, 9.703317e-002
8.485253e+002, 1.019763e-001
8.504538e+002, 1.072474e-001
8.523823e+002, 1.127405e-001
8.543107e+002, 1.189763e-001
8.562392e+002, 1.258497e-001
8.581677e+002, 1.333147e-001
8.600961e+002, 1.414756e-001
8.620246e+002, 1.500603e-001
8.639531e+002, 1.589053e-001
8.658815e+002, 1.681918e-001
8.678100e+002, 1.776683e-001
8.697385e+002, 1.868617e-001
8.716669e+002, 1.964733e-001
8.735954e+002, 2.068913e-001
8.755239e+002, 2.179945e-001
8.774523e+002, 2.289215e-001
8.793808e+002, 2.396768e-001
8.813093e+002, 2.495715e-001
8.832377e+002, 2.582915e-001
8.851662e+002, 2.652254e-001
8.870947e+002, 2.702011e-001
8.890231e+002, 2.734765e-001
8.909516e+002, 2.744818e-001
8.928801e+002, 2.738274e-001
8.948085e+002, 2.719690e-001
8.967370e+002, 2.692957e-001
8.986655e+002, 2.659628e-001
9.005939e+002, 2.622460e-001
9.025224e+002, 2.581168e-001
9.044509e+002, 2.543773e-001
9.063793e+002, 2.520690e-001
9.083078e+002, 2.518873e-001
9.102363e+002, 2.541187e-001
9.121647e+002, 2.591906e-001
9.140932e+002, 2.668975e-001
9.160217e+002, 2.771478e-001
9.179501e+002, 2.896569e-001
9.198786e+002, 3.036840e-001
9.218071e+002, 3.186387e-001
9.237355e+002, 3.348180e-001
9.256640e+002, 3.518926e-001
9.275925e+002, 3.697781e-001
9.295209e+002, 3.881520e-001
9.314494e+002, 4.066528e-001
9.333779e+002, 4.247429e-001
9.353063e+002, 4.424480e-001
9.372348e+002, 4.593582e-001
9.391633e+002, 4.749970e-001
9.410917e+002, 4.897092e-001
9.430202e+002, 5.024346e-001
9.449487e+002, 5.135891e-001
9.468771e+002, 5.235318e-001
9.488056e+002, 5.315624e-001
9.507341e+002, 5.378367e-001
9.526625e+002, 5.420837e-001
9.545910e+002, 5.440090e-001
9.565195e+002, 5.426590e-001
9.584479e+002, 5.377072e-001
9.603764e+002, 5.295762e-001
9.623049e+002, 5.194401e-001
9.642333e+002, 5.083790e-001
9.661618e+002, 4.965632e-001
9.680903e+002, 4.845763e-001
9.700187e+002, 4.735005e-001
9.719472e+002, 4.629137e-001
9.738757e+002, 4.523298e-001
9.758041e+002, 4.410537e-001
9.777326e+002, 4.283690e-001
9.796611e+002, 4.151301e-001
9.815895e+002, 4.016660e-001
9.835180e+002, 3.884714e-001
9.854465e+002, 3.765652e-001
9.873749e+002, 3.664304e-001
9.893034e+002, 3.580084e-001
9.912319e+002, 3.507765e-001
9.931603e+002, 3.454681e-001
9.950888e+002, 3.419389e-001
9.970173e+002, 3.392479e-001
9.989457e+002, 3.359443e-001
1.000874e+003, 3.314970e-001
1.002803e+003, 3.258615e-001
1.004731e+003, 3.191401e-001
1.006660e+003, 3.114548e-001
1.008588e+003, 3.027342e-001
1.010517e+003, 2.935408e-001
1.012445e+003, 2.843282e-001
1.014373e+003, 2.748125e-001
1.016302e+003, 2.654166e-001
1.018230e+003, 2.567588e-001
1.020159e+003, 2.487335e-001
1.022087e+003, 2.412242e-001
1.024016e+003, 2.339491e-001
1.025944e+003, 2.268865e-001
1.027873e+003, 2.205231e-001
1.029801e+003, 2.142735e-001
1.031730e+003, 2.077986e-001
1.033658e+003, 2.015776e-001
1.035587e+003, 1.953922e-001
1.037515e+003, 1.890604e-001
1.039443e+003, 1.829637e-001
1.041372e+003, 1.773959e-001
1.043300e+003, 1.721310e-001
1.045229e+003, 1.669185e-001
1.047157e+003, 1.616676e-001
1.049086e+003, 1.561539e-001
1.051014e+003, 1.501833e-001
1.052943e+003, 1.440532e-001
1.054871e+003, 1.381578e-001
1.056800e+003, 1.337032e-001
1.058728e+003, 1.314920e-001
1.060657e+003, 1.315517e-001
1.062585e+003, 1.337159e-001
1.064514e+003, 1.379105e-001
1.066442e+003, 1.443370e-001
1.068370e+003, 1.528611e-001
1.070299e+003, 1.632389e-001
1.072227e+003, 1.747661e-001
1.074156e+003, 1.868336e-001
1.076084e+003, 1.980642e-001
1.078013e+003, 2.071140e-001
1.079941e+003, 2.126727e-001
1.081870e+003, 2.133772e-001
1.083798e+003, 2.092818e-001
1.085727e+003, 2.013239e-001
1.087655e+003, 1.912992e-001
1.089584e+003, 1.804629e-001
1.091512e+003, 1.695251e-001
1.093441e+003, 1.589053e-001
1.095369e+003, 1.482040e-001
1.097297e+003, 1.375038e-001
1.099226e+003, 1.270791e-001
1.101154e+003, 1.169648e-001
1.103083e+003, 1.070940e-001
1.105011e+003, 9.798931e-002
1.106940e+003, 9.010620e-002
1.108868e+003, 8.368532e-002
1.110797e+003, 7.896880e-002
1.112725e+003, 7.632575e-002
1.114654e+003, 7.602800e-002
1.116582e+003, 7.842112e-002
1.118511e+003, 8.276535e-002
1.120439e+003, 8.847689e-002
1.122368e+003, 9.454618e-002
1.124296e+003, 9.965871e-002
1.126224e+003, 1.027827e-001
1.128153e+003, 1.034324e-001
1.130081e+003, 1.017061e-001
1.132010e+003, 9.789674e-002
1.133938e+003, 9.236443e-002
1.135867e+003, 8.562267e-002
1.137795e+003, 7.811762e-002
1.139724e+003, 7.064835e-002
1.141652e+003, 6.314787e-002
1.143581e+003, 5.589697e-002
1.145509e+003, 4.924798e-002
1.147438e+003, 4.347891e-002
1.149366e+003, 3.842799e-002
1.151295e+003, 3.392334e-002
1.153223e+003, 3.007603e-002
1.155151e+003, 2.694008e-002
1.157080e+003, 2.449789e-002
1.159008e+003, 2.252621e-002
1.160937e+003, 2.109461e-002
1.162865e+003, 2.001200e-002
1.164794e+003, 1.909539e-002
1.166722e+003, 1.819420e-002
1.168651e+003, 1.726264e-002
1.170579e+003, 1.653829e-002
1.172508e+003, 1.603266e-002
1.174436e+003, 1.544401e-002
1.176365e+003, 1.470965e-002
1.178293e+003, 1.421848e-002
1.180222e+003, 1.388669e-002
1.182150e+003, 1.354718e-002
1.184078e+003, 1.297300e-002
1.186007e+003, 1.235857e-002
1.187935e+003, 1.198303e-002
1.189864e+003, 1.179366e-002
1.191792e+003, 1.146162e-002
1.193721e+003, 1.098301e-002
1.195649e+003, 1.045100e-002
1.197578e+003, 1.007892e-002
1.199506e+003, 9.749611e-003
1.201435e+003, 9.359475e-003
1.203363e+003, 9.147951e-003
1.205292e+003, 8.849563e-003
1.207220e+003, 8.347518e-003
1.209149e+003, 7.726532e-003
1.211077e+003, 7.464416e-003
1.213005e+003, 7.192034e-003
1.214934e+003, 6.988082e-003
1.216862e+003, 7.018173e-003
1.218791e+003, 6.742295e-003
1.220719e+003, 6.390539e-003
1.222648e+003, 6.198942e-003
1.224576e+003, 5.853577e-003
1.226505e+003, 5.495916e-003
1.228433e+003, 5.332271e-003
1.230362e+003, 5.279992e-003
1.232290e+003, 5.133820e-003
1.234219e+003, 5.150442e-003
1.236147e+003, 5.184791e-003
1.238076e+003, 4.992400e-003
1.240004e+003, 4.856006e-003
1.241932e+003, 4.809457e-003
1.243861e+003, 4.767900e-003
1.245789e+003, 4.612239e-003
1.247718e+003, 4.393892e-003
1.249646e+003, 4.361071e-003
1.251575e+003, 4.250428e-003
1.253503e+003, 4.126516e-003
1.255432e+003, 4.088772e-003
1.257360e+003, 4.039271e-003
1.259289e+003, 4.102805e-003
1.261217e+003, 3.963470e-003
1.263146e+003, 3.818545e-003
1.265074e+003, 3.825303e-003
1.267003e+003, 4.011633e-003
1.268931e+003, 3.987246e-003
1.270859e+003, 4.017100e-003
1.272788e+003, 4.145809e-003
1.274716e+003, 4.156091e-003
1.276645e+003, 4.154536e-003
1.278573e+003, 4.326318e-003
1.280502e+003, 4.359826e-003
1.282430e+003, 4.322711e-003
1.284359e+003, 4.335301e-003
1.286287e+003, 4.317844e-003
1.288216e+003, 4.214769e-003
1.290144e+003, 4.266778e-003
1.292073e+003, 4.490964e-003
1.294001e+003, 4.454492e-003
1.295930e+003, 4.192678e-003
1.297858e+003, 4.022873e-003
1.299786e+003, 4.018744e-003
1.301715e+003, 4.180718e-003
1.303643e+003, 4.128952e-003
1.305572e+003, 4.012103e-003
1.307500e+003, 3.952849e-003
1.309429e+003, 3.934126e-003
1.311357e+003, 4.025987e-003
1.313286e+003, 4.073980e-003
1.315214e+003, 4.004343e-003
1.317143e+003, 3.978572e-003
1.319071e+003, 3.950510e-003
1.321000e+003, 3.859245e-003
1.322928e+003, 3.821104e-003
1.324857e+003, 3.991043e-003
1.326785e+003, 3.985918e-003
1.328714e+003, 3.897604e-003
1.330642e+003, 3.818041e-003
1.332570e+003, 3.674966e-003
1.334499e+003, 3.674500e-003
1.336427e+003, 3.614395e-003
1.338356e+003, 3.765008e-003
1.340284e+003, 4.077273e-003
1.342213e+003, 4.161878e-003
1.344141e+003, 4.076180e-003
1.346070e+003, 4.123440e-003
1.347998e+003, 4.257466e-003
1.349927e+003, 4.299422e-003
1.351855e+003, 4.165747e-003
1.353784e+003, 4.177788e-003
1.355712e+003, 4.274680e-003
1.357641e+003, 4.458274e-003
1.359569e+003, 4.605832e-003
1.361497e+003, 4.486167e-003
1.363426e+003, 4.414551e-003
1.365354e+003, 4.823570e-003
1.367283e+003, 5.046779e-003
1.369211e+003, 4.883668e-003
1.371140e+003, 4.699978e-003
1.373068e+003, 4.699985e-003
1.374997e+003, 4.660898e-003
1.376925e+003, 4.649733e-003
1.378854e+003, 4.881072e-003
1.380782e+003, 5.173943e-003
1.382711e+003, 5.069209e-003
1.384639e+003, 4.950168e-003
1.386568e+003, 4.952476e-003
1.388496e+003, 5.136493e-003
1.390424e+003, 5.509041e-003
1.392353e+003, 5.496011e-003
1.394281e+003, 5.189253e-003
1.396210e+003, 5.174547e-003
1.398138e+003, 5.315383e-003
1.400067e+003, 5.642334e-003
1.401995e+003, 6.036247e-003
1.403924e+003, 5.995364e-003
1.405852e+003, 6.053512e-003
1.407781e+003, 6.356467e-003
1.409709e+003, 6.595873e-003
1.411638e+003, 6.680548e-003
1.413566e+003, 6.837283e-003
1.415495e+003, 7.019789e-003
1.417423e+003, 6.508973e-003
1.419351e+003, 6.084044e-003
1.421280e+003, 6.846547e-003
1.423208e+003, 7.279307e-003
1.425137e+003, 7.352723e-003
1.427065e+003, 7.541512e-003
1.428994e+003, 7.477610e-003
1.430922e+003, 7.503297e-003
1.432851e+003, 7.588616e-003
1.434779e+003, 7.255710e-003
1.436708e+003, 7.062157e-003
1.438636e+003, 7.684113e-003
1.440565e+003, 7.989683e-003
1.442493e+003, 7.909907e-003
1.444422e+003, 7.796806e-003
1.446350e+003, 7.611602e-003
1.448278e+003, 7.510578e-003
1.450207e+003, 7.767319e-003
1.452135e+003, 7.688268e-003
1.454064e+003, 7.133730e-003
1.455992e+003, 5.643965e-003
1.457921e+003, 5.714416e-003
1.459849e+003, 6.875115e-003
1.461778e+003, 7.267299e-003
1.463706e+003, 6.997569e-003
1.465635e+003, 6.733900e-003
1.467563e+003, 7.033806e-003
1.469492e+003, 6.927663e-003
1.471420e+003, 5.934468e-003
1.473349e+003, 5.404356e-003
1.475277e+003, 5.902612e-003
1.477205e+003, 6.153168e-003
1.479134e+003, 6.226669e-003
1.481062e+003, 6.076142e-003
1.482991e+003, 6.169626e-003
1.484919e+003, 6.111586e-003
1.486848e+003, 5.570638e-003
1.488776e+003, 5.202311e-003
1.490705e+003, 5.183954e-003
1.492633e+003, 5.344929e-003
1.494562e+003, 4.722811e-003
1.496490e+003, 4.028977e-003
1.498419e+003, 4.297748e-003
1.500347e+003, 4.713251e-003
1.502276e+003, 4.832179e-003
1.504204e+003, 3.850227e-003
1.506132e+003, 2.235534e-003
1.508061e+003, 2.784590e-003
1.509989e+003, 3.905601e-003
1.511918e+003, 3.962901e-003
1.513846e+003, 3.829146e-003
1.515775e+003, 3.410221e-003
1.517703e+003, 3.227303e-003
1.519632e+003, 2.534673e-003
1.521560e+003, 1.965998e-003
1.523489e+003, 2.898807e-003
1.525417e+003, 3.308265e-003
1.527346e+003, 3.518973e-003
1.529274e+003, 3.712178e-003
1.531203e+003, 3.544232e-003
1.533131e+003, 3.028237e-003
1.535059e+003, 3.337560e-003
1.536988e+003, 3.129329e-003
1.538916e+003, 1.446534e-003
1.540845e+003, 1.341829e-003
1.542773e+003, 2.615044e-003
1.544702e+003, 3.423392e-003
1.546630e+003, 3.739003e-003
1.548559e+003, 3.870862e-003
1.550487e+003, 3.972572e-003
1.552416e+003, 3.820959e-003
1.554344e+003, 3.269611e-003
1.556273e+003, 2.804119e-003
1.558201e+003, 1.436203e-003
1.560130e+003, 1.754054e-003
1.562058e+003, 3.678928e-003
1.563986e+003, 4.291367e-003
1.565915e+003, 4.444231e-003
1.567843e+003, 4.220140e-003
1.569772e+003, 4.007803e-003
1.571700e+003, 4.413948e-003
1.573629e+003, 4.178475e-003
1.575557e+003, 3.259102e-003
1.577486e+003, 3.952317e-003
1.579414e+003, 5.127120e-003
1.581343e+003, 5.256707e-003
1.583271e+003, 5.428441e-003
1.585200e+003, 5.434311e-003
1.587128e+003, 5.469229e-003
1.589057e+003, 5.526665e-003
1.590985e+003, 5.795985e-003
1.592913e+003, 5.971326e-003
1.594842e+003, 6.134586e-003
1.596770e+003, 6.259233e-003
1.598699e+003, 6.486246e-003
1.600627e+003, 6.519177e-003
1.602556e+003, 6.507521e-003
1.604484e+003, 6.539769e-003
1.606413e+003, 6.644779e-003
1.608341e+003, 6.745568e-003
1.610270e+003, 6.956407e-003
1.612198e+003, 7.074649e-003
1.614127e+003, 6.616269e-003
1.616055e+003, 5.670171e-003
1.617984e+003, 6.357750e-003
1.619912e+003, 7.329043e-003
1.621840e+003, 6.864424e-003
1.623769e+003, 6.567053e-003
1.625697e+003, 6.875581e-003
1.627626e+003, 6.961779e-003
1.629554e+003, 7.142249e-003
1.631483e+003, 7.368831e-003
1.633411e+003, 6.748369e-003
1.635340e+003, 5.627009e-003
1.637268e+003, 6.051091e-003
1.639197e+003, 7.000629e-003
1.641125e+003, 7.292061e-003
1.643054e+003, 6.974934e-003
1.644982e+003, 5.762049e-003
1.646911e+003, 5.361018e-003
1.648839e+003, 6.228091e-003
1.650767e+003, 5.368006e-003
1.652696e+003, 3.004141e-003
1.654624e+003, 4.290842e-003
1.656553e+003, 6.294823e-003
1.658481e+003, 6.641660e-003
1.660410e+003, 6.323354e-003
1.662338e+003, 5.628142e-003
1.664267e+003, 5.665461e-003
1.666195e+003, 5.874369e-003
1.668124e+003, 5.305842e-003
1.670052e+003, 4.921884e-003
1.671981e+003, 5.092128e-003
1.673909e+003, 4.793997e-003
1.675838e+003, 4.473224e-003
1.677766e+003, 4.941652e-003
1.679694e+003, 5.033517e-003
1.681623e+003, 4.743460e-003
1.683551e+003, 2.796324e-003
1.685480e+003, 2.962402e-003
1.687408e+003, 4.764562e-003
1.689337e+003, 5.206770e-003
1.691265e+003, 5.391812e-003
1.693194e+003, 4.609480e-003
1.695122e+003, 2.657241e-003
1.697051e+003, 2.885411e-003
1.698979e+003, 2.807992e-003
1.700908e+003, 2.566598e-003
1.702836e+003, 4.085031e-003
1.704765e+003, 4.021048e-003
1.706693e+003, 4.225250e-003
1.708621e+003, 4.443343e-003
1.710550e+003, 4.674468e-003
1.712478e+003, 4.488250e-003
1.714407e+003, 3.792644e-003
1.716335e+003, 2.740722e-003
1.718264e+003, 2.823405e-003
1.720192e+003, 3.924439e-003
1.722121e+003, 4.243532e-003
1.724049e+003, 4.149362e-003
1.725978e+003, 4.008526e-003
1.727906e+003, 3.703226e-003
1.729835e+003, 3.621598e-003
1.731763e+003, 2.833491e-003
1.733692e+003, 1.514142e-003
1.735620e+003, 2.239238e-003
1.737548e+003, 3.279161e-003
1.739477e+003, 2.615718e-003
1.741405e+003, 2.706746e-003
1.743334e+003, 2.899912e-003
1.745262e+003, 3.003784e-003
1.747191e+003, 2.663626e-003
1.749119e+003, 2.350943e-003
1.751048e+003, 2.305173e-003
1.752976e+003, 2.901142e-003
1.754905e+003, 3.006836e-003
1.756833e+003, 2.861598e-003
1.758762e+003, 2.882755e-003
1.760690e+003, 2.673375e-003
1.762619e+003, 2.601348e-003
1.764547e+003, 2.920819e-003
1.766475e+003, 2.901920e-003
1.768404e+003, 2.819280e-003
1.770332e+003, 2.285729e-003
1.772261e+003, 1.907014e-003
1.774189e+003, 2.651399e-003
1.776118e+003, 3.348700e-003
1.778046e+003, 3.313758e-003
1.779975e+003, 2.993306e-003
1.781903e+003, 2.937755e-003
1.783832e+003, 3.108620e-003
1.785760e+003, 3.234904e-003
1.787689e+003, 3.115281e-003
1.789617e+003, 2.757940e-003
1.791546e+003, 2.408146e-003
1.793474e+003, 2.523229e-003
1.795402e+003, 3.019548e-003
1.797331e+003, 3.210596e-003
1.799259e+003, 2.947639e-003
1.801188e+003, 2.737441e-003
1.803116e+003, 3.014289e-003
1.805045e+003, 2.959578e-003
1.806973e+003, 2.761254e-003
1.808902e+003, 2.576744e-003
1.810830e+003, 2.576240e-003
1.812759e+003, 2.595255e-003
1.814687e+003, 2.393716e-003
1.816616e+003, 2.579459e-003
1.818544e+003, 2.952982e-003
1.820473e+003, 2.854525e-003
1.822401e+003, 2.540179e-003
1.824329e+003, 2.314402e-003
1.826258e+003, 2.568745e-003
1.828186e+003, 2.243115e-003
1.830115e+003, 2.030241e-003
1.832043e+003, 2.112535e-003
1.833972e+003, 2.202379e-003
1.835900e+003, 2.350130e-003
1.837829e+003, 2.641044e-003
1.839757e+003, 2.664060e-003
1.841686e+003, 2.368246e-003
1.843614e+003, 1.345397e-003
1.845543e+003, 1.555030e-003
1.847471e+003, 2.205760e-003
1.849400e+003, 2.324574e-003
1.851328e+003, 2.324230e-003
1.853256e+003, 2.874439e-003
1.855185e+003, 2.612886e-003
1.857113e+003, 2.049334e-003
1.859042e+003, 1.936175e-003
1.860970e+003, 1.712858e-003
1.862899e+003, 1.589012e-003
1.864827e+003, 1.695727e-003
1.866756e+003, 1.397911e-003
1.868684e+003, 1.209460e-003
1.870613e+003, 1.284765e-003
1.872541e+003, 1.542097e-003
1.874470e+003, 1.446431e-003
1.876398e+003, 1.535431e-003
1.878327e+003, 1.484447e-003
1.880255e+003, 1.085933e-003
1.882183e+003, 8.912981e-004
1.884112e+003, 6.023420e-004
1.886040e+003, 2.077502e-004
1.887969e+003, 2.989472e-004
1.889897e+003, 3.654060e-004
1.891826e+003, 2.569185e-004
1.893754e+003, 3.789581e-004
1.895683e+003, 1.943621e-004
1.897611e+003, -3.181440e-005
1.899540e+003, -1.391473e-004
1.901468e+003, -6.085897e-005
1.903397e+003, -3.217063e-004
1.905325e+003, -9.571452e-004
1.907254e+003, -6.236263e-004
1.909182e+003, -9.881478e-004
1.911110e+003, -1.169634e-003
1.913039e+003, -1.041741e-003
1.914967e+003, -1.605906e-003
1.916896e+003, -1.978030e-003
1.918824e+003, -1.582172e-003
1.920753e+003, -1.740518e-003
1.922681e+003, -1.654339e-003
1.924610e+003, -1.326958e-003
1.926538e+003, -2.047267e-003
1.928467e+003, -2.945300e-003
1.930395e+003, -2.167292e-003
1.932324e+003, -1.583717e-003
1.934252e+003, -1.979316e-003
1.936181e+003, -2.592100e-003
1.938109e+003, -2.953052e-003
1.940037e+003, -3.249060e-003
1.941966e+003, -3.625255e-003
1.943894e+003, -3.103957e-003
1.945823e+003, -2.384583e-003
1.947751e+003, -3.601675e-003
1.949680e+003, -4.269535e-003
1.951608e+003, -3.671843e-003
1.953537e+003, -2.790579e-003
1.955465e+003, -3.200799e-003
1.957394e+003, -4.993513e-003
1.959322e+003, -6.298630e-003
1.961251e+003, -4.986233e-003
1.963179e+003, -2.733421e-003
1.965108e+003, -2.782771e-003
1.967036e+003, -3.926541e-003
1.968964e+003, -4.705364e-003
1.970893e+003, -6.247340e-003
1.972821e+003, -6.444539e-003
1.974750e+003, -6.648886e-003
1.976678e+003, -6.967468e-003
1.978607e+003, -5.069138e-003
1.980535e+003, -3.591396e-003
1.982464e+003, -5.079607e-003
1.984392e+003, -5.396605e-003
1.986321e+003, -4.242112e-003
1.988249e+003, -4.691303e-003
1.990178e+003, -4.862424e-003
1.992106e+003, -4.307143e-003
1.994035e+003, -4.323541e-003
1.995963e+003, -4.238223e-003
1.997891e+003, -4.644986e-003
1.999820e+003, -5.140085e-003
2.001748e+003, -6.674895e-003
2.003677e+003, -7.136715e-003
2.005605e+003, -6.562319e-003
2.007534e+003, -4.700684e-003
2.009462e+003, -3.806015e-003
2.011391e+003, -4.190996e-003
2.013319e+003, -4.863241e-003
2.015248e+003, -5.827493e-003
2.017176e+003, -5.403464e-003
2.019105e+003, -4.497979e-003
2.021033e+003, -5.450333e-003
2.022962e+003, -5.620054e-003
2.024890e+003, -3.808783e-003
2.026818e+003, -3.969933e-003
2.028747e+003, -5.776979e-003
2.030675e+003, -5.785947e-003
2.032604e+003, -6.094885e-003
2.034532e+003, -6.049517e-003
2.036461e+003, -5.519029e-003
2.038389e+003, -4.104807e-003
2.040318e+003, -4.000614e-003
2.042246e+003, -4.047305e-003
2.044175e+003, -4.783784e-003
2.046103e+003, -4.786611e-003
2.048031e+003, -2.879230e-003
2.049960e+003, -2.382282e-003
2.051888e+003, -3.286018e-003
2.053817e+003, -2.797008e-003
2.055745e+003, -2.343081e-003
2.057674e+003, -2.155674e-003
2.059602e+003, -2.831146e-003
2.061531e+003, -2.815820e-003
2.063459e+003, -2.648866e-003
2.065388e+003, -2.335164e-003
2.067316e+003, -1.877498e-003
2.069245e+003, -2.492419e-003
2.071173e+003, -2.063490e-003
2.073102e+003, -8.026995e-004
2.075030e+003, -9.328543e-004
2.076958e+003, -9.781993e-004
2.078887e+003, -7.083793e-004
2.080815e+003, -9.041168e-004
2.082744e+003, -1.523279e-003
2.084672e+003, -4.135184e-004
2.086601e+003, 1.139342e-003
2.088529e+003, 4.578136e-004
2.090458e+003, -1.218252e-003
2.092386e+003, -5.120599e-004
2.094315e+003, 2.210439e-004
2.096243e+003, -6.069213e-004
2.098172e+003, -1.300989e-003
2.100100e+003, -9.645615e-004
2.102029e+003, -3.808293e-004
2.103957e+003, -2.141320e-004
2.105885e+003, 4.766278e-004
2.107814e+003, 1.201274e-003
2.109742e+003, 1.106204e-003
2.111671e+003, 6.776823e-004
2.113599e+003, 5.134788e-004
2.115528e+003, -2.834945e-004
2.117456e+003, -1.269438e-003
2.119385e+003, -1.480180e-003
2.121313e+003, -1.539910e-003
2.123242e+003, -1.213610e-003
2.125170e+003, -1.556418e-003
2.127099e+003, -2.896104e-003
2.129027e+003, -3.878225e-003
2.130956e+003, -4.268090e-003
2.132884e+003, -4.747931e-003
2.134813e+003, -5.277131e-003
2.136741e+003, -4.652828e-003
2.138669e+003, -4.107040e-003
2.140598e+003, -4.357718e-003
2.142526e+003, -4.591962e-003
2.144455e+003, -5.468959e-003
2.146383e+003, -5.745616e-003
2.148312e+003, -5.914608e-003
2.150240e+003, -6.608156e-003
2.152169e+003, -7.775024e-003
2.154097e+003, -8.400710e-003
2.156026e+003, -1.019802e-002
2.157954e+003, -9.807590e-003
2.159883e+003, -6.192415e-003
2.161811e+003, -3.482322e-003
2.163740e+003, -3.201173e-003
2.165668e+003, -3.921389e-003
2.167596e+003, -5.296038e-003
2.169525e+003, -3.863442e-003
2.171453e+003, -2.526412e-003
2.173382e+003, -3.527578e-003
2.175310e+003, -4.350829e-003
2.177239e+003, -4.605771e-003
2.179167e+003, -5.288409e-003
2.181096e+003, -4.833037e-003
2.183024e+003, -3.953392e-003
2.184953e+003, -2.322308e-003
2.186881e+003, -4.895599e-004
2.188810e+003, -2.187564e-003
2.190738e+003, -3.441119e-003
2.192667e+003, -2.829072e-003
2.194595e+003, -1.975022e-003
2.196523e+003, -1.012265e-003
2.198452e+003, -1.115021e-003
2.200380e+003, -8.813366e-004
2.202309e+003, -1.164644e-003
2.204237e+003, -8.419456e-004
2.206166e+003, -7.919946e-004
2.208094e+003, -4.859724e-004
2.210023e+003, -1.487844e-003
2.211951e+003, 2.723875e-004
2.213880e+003, 7.640735e-004
2.215808e+003, 2.498027e-004
2.217737e+003, 1.318367e-004
2.219665e+003, -2.192171e-004
2.221594e+003, -5.002000e-004
2.223522e+003, 9.420902e-004
2.225450e+003, 2.045595e-003
2.227379e+003, 1.534602e-003
2.229307e+003, 1.540962e-003
2.231236e+003, 2.148860e-003
2.233164e+003, 9.487679e-004
2.235093e+003, -8.730433e-004
2.237021e+003, -4.119543e-004
2.238950e+003, 1.722627e-003
2.240878e+003, 1.222318e-003
2.242807e+003, 5.474709e-004
2.244735e+003, 2.322331e-004
2.246664e+003, 8.932966e-006
2.248592e+003, 1.663837e-004
2.250521e+003, 5.846372e-005
2.252449e+003, -1.011968e-004
2.254377e+003, 3.099654e-004
2.256306e+003, 2.073208e-003
2.258234e+003, 2.397384e-003
2.260163e+003, 1.579167e-003
2.262091e+003, 1.276366e-003
2.264020e+003, 1.577654e-003
2.265948e+003, 1.837270e-003
2.267877e+003, 1.405593e-003
2.269805e+003, 1.204903e-004
2.271734e+003, 8.263025e-004
2.273662e+003, 2.020910e-003
2.275591e+003, 1.878931e-003
2.277519e+003, 2.012542e-003
2.279448e+003, 2.844892e-003
2.281376e+003, 3.426875e-003
2.283304e+003, 3.842088e-003
2.285233e+003, 4.024283e-003
2.287161e+003, 3.851088e-003
2.289090e+003, 3.907027e-003
2.291018e+003, 3.954140e-003
2.292947e+003, 3.509212e-003
2.294875e+003, 3.498505e-003
2.296804e+003, 3.442870e-003
2.298732e+003, 3.649467e-003
2.300661e+003, 4.386906e-003
2.302589e+003, 4.134672e-003
2.304518e+003, 3.770166e-003
2.306446e+003, 3.589080e-003
2.308375e+003, 3.701547e-003
2.310303e+003, 4.103481e-003
2.312231e+003, 4.017828e-003
2.314160e+003, 3.764390e-003
2.316088e+003, 4.184342e-003
2.318017e+003, 5.015259e-003
2.319945e+003, 5.418832e-003
2.321874e+003, 5.499682e-003
2.323802e+003, 5.688366e-003
2.325731e+003, 4.931430e-003
2.327659e+003, 4.054238e-003
2.329588e+003, 3.330299e-003
2.331516e+003, 1.579733e-003
2.333445e+003, -4.614741e-004
2.335373e+003, 1.181667e-003
2.337302e+003, 2.479693e-003
2.339230e+003, 3.385221e-003
2.341158e+003, 3.811890e-003
2.343087e+003, 4.084383e-003
2.345015e+003, 3.972527e-003
2.346944e+003, 3.877433e-003
2.348872e+003, 4.005939e-003
2.350801e+003, 4.171110e-003
2.352729e+003, 4.235275e-003
2.354658e+003, 4.214382e-003
2.356586e+003, 3.825567e-003
2.358515e+003, 3.316065e-003
2.360443e+003, 2.844410e-003
2.362372e+003, 2.561532e-003
2.364300e+003, 2.287219e-003
2.366229e+003, 2.410179e-003
2.368157e+003, 2.608868e-003
2.370085e+003, 2.855557e-003
2.372014e+003, 3.186503e-003
2.373942e+003, 3.229572e-003
2.375871e+003, 3.079401e-003
2.377799e+003, 3.185187e-003
2.379728e+003, 4.139071e-003
2.381656e+003, 4.608009e-003
2.383585e+003, 3.870188e-003
2.385513e+003, 3.760189e-003
2.387442e+003, 4.016286e-003
2.389370e+003, 4.289230e-003
2.391299e+003, 3.900846e-003
2.393227e+003, 3.396772e-003
2.395156e+003, 3.563063e-003
2.397084e+003, 3.744629e-003
2.399012e+003, 3.977740e-003
2.400941e+003, 4.244898e-003
2.402869e+003, 4.241673e-003
2.404798e+003, 4.068361e-003
2.406726e+003, 3.268092e-003
2.408655e+003, 3.525888e-003
2.410583e+003, 3.630256e-003
2.412512e+003, 3.484614e-003
2.414440e+003, 3.772867e-003
2.416369e+003, 4.031513e-003
2.418297e+003, 3.807925e-003
2.420226e+003, 4.083110e-003
2.422154e+003, 4.653233e-003
2.424083e+003, 5.524720e-003
2.426011e+003, 4.939877e-003
2.427939e+003, 4.344088e-003
2.429868e+003, 3.960691e-003
2.431796e+003, 4.133288e-003
2.433725e+003, 4.436467e-003
2.435653e+003, 4.960484e-003
2.437582e+003, 4.817952e-003
2.439510e+003, 4.545235e-003
2.441439e+003, 4.586444e-003
2.443367e+003, 5.090808e-003
2.445296e+003, 5.432658e-003
2.447224e+003, 4.823489e-003
2.449153e+003, 4.268458e-003
2.451081e+003, 4.543466e-003
2.453010e+003, 4.373763e-003
2.454938e+003, 4.647831e-003
2.456866e+003, 5.546329e-003
2.458795e+003, 5.662392e-003
2.460723e+003, 4.761889e-003
2.462652e+003, 4.142235e-003
2.464580e+003, 3.728618e-003
2.466509e+003, 4.128787e-003
2.468437e+003, 4.532598e-003
2.470366e+003, 4.508357e-003
2.472294e+003, 3.780651e-003
2.474223e+003, 3.432528e-003
2.476151e+003, 3.914092e-003
2.478080e+003, 4.361989e-003
2.480008e+003, 4.754059e-003
2.481937e+003, 4.332861e-003
2.483865e+003, 3.405367e-003
2.485793e+003, 3.286724e-003
2.487722e+003, 4.221558e-003
2.489650e+003, 3.960351e-003
2.491579e+003, 4.038658e-003
2.493507e+003, 4.835373e-003
2.495436e+003, 4.830973e-003
2.497364e+003, 4.924726e-003
2.499293e+003, 4.601730e-003
2.501221e+003, 4.069843e-003
2.503150e+003, 4.592174e-003
2.505078e+003, 4.914090e-003
2.507007e+003, 5.258208e-003
2.508935e+003, 5.197182e-003
2.510864e+003, 4.713772e-003
2.512792e+003, 4.942018e-003
2.514720e+003, 4.564033e-003
2.516649e+003, 4.055106e-003
2.518577e+003, 5.134567e-003
2.520506e+003, 5.891576e-003
2.522434e+003, 5.169217e-003
2.524363e+003, 4.520893e-003
2.526291e+003, 4.364323e-003
2.528220e+003, 4.779168e-003
2.530148e+003, 4.459871e-003
2.532077e+003, 4.783594e-003
2.534005e+003, 5.235953e-003
2.535934e+003, 5.165729e-003
2.537862e+003, 4.979921e-003
2.539791e+003, 5.390984e-003
2.541719e+003, 5.260523e-003
2.543647e+003, 5.281367e-003
2.545576e+003, 5.183337e-003
2.547504e+003, 5.162501e-003
2.549433e+003, 4.617703e-003
2.551361e+003, 4.699722e-003
2.553290e+003, 5.549038e-003
2.555218e+003, 5.819166e-003
2.557147e+003, 5.502668e-003
2.559075e+003, 5.322856e-003
2.561004e+003, 5.303250e-003
2.562932e+003, 5.173204e-003
2.564861e+003, 5.336854e-003
2.566789e+003, 6.202345e-003
2.568718e+003, 5.776843e-003
2.570646e+003, 4.869377e-003
2.572574e+003, 4.797950e-003
2.574503e+003, 5.173077e-003
2.576431e+003, 5.077900e-003
2.578360e+003, 5.354985e-003
2.580288e+003, 5.849788e-003
2.582217e+003, 5.572781e-003
2.584145e+003, 4.771892e-003
2.586074e+003, 4.972530e-003
2.588002e+003, 5.725401e-003
2.589931e+003, 6.056441e-003
2.591859e+003, 5.948107e-003
2.593788e+003, 5.876333e-003
2.595716e+003, 5.642453e-003
2.597645e+003, 5.916391e-003
2.599573e+003, 6.244753e-003
2.601501e+003, 5.741490e-003
2.603430e+003, 5.612927e-003
2.605358e+003, 6.352751e-003
2.607287e+003, 6.900127e-003
2.609215e+003, 6.409714e-003
2.611144e+003, 5.914958e-003
2.613072e+003, 6.172973e-003
2.615001e+003, 6.733043e-003
2.616929e+003, 6.529996e-003
2.618858e+003, 6.050282e-003
2.620786e+003, 5.832492e-003
2.622715e+003, 5.843684e-003
2.624643e+003, 6.206777e-003
2.626572e+003, 6.299021e-003
2.628500e+003, 6.808277e-003
2.630428e+003, 7.027403e-003
2.632357e+003, 6.261063e-003
2.634285e+003, 5.684713e-003
2.636214e+003, 5.429504e-003
2.638142e+003, 5.282598e-003
2.640071e+003, 5.431559e-003
2.641999e+003, 6.118002e-003
2.643928e+003, 6.341261e-003
2.645856e+003, 6.166684e-003
2.647785e+003, 6.527842e-003
2.649713e+003, 6.332714e-003
2.651642e+003, 5.754396e-003
2.653570e+003, 5.572944e-003
2.655499e+003, 6.316459e-003
2.657427e+003, 6.013872e-003
2.659355e+003, 5.873779e-003
2.661284e+003, 5.838155e-003
2.663212e+003, 5.825446e-003
2.665141e+003, 5.860285e-003
2.667069e+003, 6.032850e-003
2.668998e+003, 5.917653e-003
2.670926e+003, 5.582006e-003
2.672855e+003, 5.728695e-003
2.674783e+003, 6.006467e-003
2.676712e+003, 5.761027e-003
2.678640e+003, 5.293698e-003
2.680569e+003, 5.382899e-003
2.682497e+003, 5.637357e-003
2.684426e+003, 5.586623e-003
2.686354e+003, 5.661741e-003
2.688282e+003, 5.499693e-003
2.690211e+003, 5.869273e-003
2.692139e+003, 6.054050e-003
2.694068e+003, 5.370997e-003
2.695996e+003, 5.331498e-003
2.697925e+003, 5.733468e-003
2.699853e+003, 5.760939e-003
2.701782e+003, 5.565986e-003
2.703710e+003, 5.956979e-003
2.705639e+003, 6.150824e-003
2.707567e+003, 6.218428e-003
2.709496e+003, 6.555304e-003
2.711424e+003, 6.485892e-003
2.713353e+003, 6.675931e-003
2.715281e+003, 6.561249e-003
2.717209e+003, 6.087351e-003
2.719138e+003, 5.675973e-003
2.721066e+003, 5.816985e-003
2.722995e+003, 6.137132e-003
2.724923e+003, 5.931394e-003
2.726852e+003, 5.922697e-003
2.728780e+003, 6.139447e-003
2.730709e+003, 6.292225e-003
2.732637e+003, 6.436490e-003
2.734566e+003, 6.295282e-003
2.736494e+003, 6.054546e-003
2.738423e+003, 5.895304e-003
2.740351e+003, 6.136913e-003
2.742280e+003, 6.576967e-003
2.744208e+003, 6.850245e-003
2.746136e+003, 6.541112e-003
2.748065e+003, 6.384488e-003
2.749993e+003, 5.793303e-003
2.751922e+003, 5.641063e-003
2.753850e+003, 6.279045e-003
2.755779e+003, 7.124724e-003
2.757707e+003, 6.865378e-003
2.759636e+003, 6.131020e-003
2.761564e+003, 5.871010e-003
2.763493e+003, 6.323399e-003
2.765421e+003, 6.745619e-003
2.767350e+003, 7.036484e-003
2.769278e+003, 6.794428e-003
2.771207e+003, 6.192260e-003
2.773135e+003, 6.266764e-003
2.775063e+003, 6.888150e-003
2.776992e+003, 6.431896e-003
2.778920e+003, 5.956117e-003
2.780849e+003, 5.981177e-003
2.782777e+003, 6.514635e-003
2.784706e+003, 6.855386e-003
2.786634e+003, 6.947794e-003
2.788563e+003, 7.292396e-003
2.790491e+003, 7.967451e-003
2.792420e+003, 8.156073e-003
2.794348e+003, 8.301441e-003
2.796277e+003, 8.659010e-003
2.798205e+003, 7.996289e-003
2.800134e+003, 7.334602e-003
2.802062e+003, 7.777149e-003
2.803990e+003, 7.713966e-003
2.805919e+003, 7.566588e-003
2.807847e+003, 7.689280e-003
2.809776e+003, 7.777758e-003
2.811704e+003, 7.889048e-003
2.813633e+003, 7.485424e-003
2.815561e+003, 7.139083e-003
2.817490e+003, 7.120686e-003
2.819418e+003, 7.221594e-003
2.821347e+003, 7.805084e-003
2.823275e+003, 8.279347e-003
2.825204e+003, 7.661826e-003
2.827132e+003, 7.339826e-003
2.829061e+003, 8.317830e-003
2.830989e+003, 8.538368e-003
2.832917e+003, 8.255175e-003
2.834846e+003, 8.272238e-003
2.836774e+003, 8.517201e-003
2.838703e+003, 8.263228e-003
2.840631e+003, 8.386438e-003
2.842560e+003, 8.696377e-003
2.844488e+003, 8.878168e-003
2.846417e+003, 9.304225e-003
2.848345e+003, 9.261368e-003
2.850274e+003, 8.742707e-003
2.852202e+003, 8.880448e-003
2.854131e+003, 9.013806e-003
2.856059e+003, 9.010173e-003
2.857988e+003, 9.571916e-003
2.859916e+003, 9.035514e-003
2.861844e+003, 8.173949e-003
2.863773e+003, 8.134948e-003
2.865701e+003, 8.969531e-003
2.867630e+003, 9.882017e-003
2.869558e+003, 9.507095e-003
2.871487e+003, 9.632565e-003
2.873415e+003, 1.008910e-002
2.875344e+003, 9.726346e-003
2.877272e+003, 9.077769e-003
2.879201e+003, 8.910509e-003
2.881129e+003, 8.984263e-003
2.883058e+003, 8.948326e-003
2.884986e+003, 9.604927e-003
2.886915e+003, 9.718346e-003
2.888843e+003, 9.209923e-003
2.890771e+003, 9.070382e-003
2.892700e+003, 9.858665e-003
2.894628e+003, 9.987334e-003
2.896557e+003, 9.494809e-003
2.898485e+003, 9.374665e-003
2.900414e+003, 9.296864e-003
2.902342e+003, 9.862063e-003
2.904271e+003, 1.024488e-002
2.906199e+003, 9.473346e-003
2.908128e+003, 8.971889e-003
2.910056e+003, 9.718319e-003
2.911985e+003, 9.848248e-003
2.913913e+003, 9.950425e-003
2.915842e+003, 1.050341e-002
2.917770e+003, 1.113342e-002
2.919698e+003, 1.120744e-002
2.921627e+003, 1.137952e-002
2.923555e+003, 1.188981e-002
2.925484e+003, 1.232766e-002
2.927412e+003, 1.306047e-002
2.929341e+003, 1.305692e-002
2.931269e+003, 1.230644e-002
2.933198e+003, 1.210563e-002
2.935126e+003, 1.187984e-002
2.937055e+003, 1.123764e-002
2.938983e+003, 1.099678e-002
2.940912e+003, 1.044595e-002
2.942840e+003, 1.046843e-002
2.944769e+003, 1.127188e-002
2.946697e+003, 1.141727e-002
2.948625e+003, 1.110993e-002
2.950554e+003, 1.065585e-002
2.952482e+003, 1.098632e-002
2.954411e+003, 1.122830e-002
2.956339e+003, 1.118632e-002
2.958268e+003, 1.084127e-002
2.960196e+003, 1.070551e-002
2.962125e+003, 1.047439e-002
2.964053e+003, 1.039596e-002
2.965982e+003, 1.087588e-002
2.967910e+003, 1.081780e-002
2.969839e+003, 1.025576e-002
2.971767e+003, 1.053718e-002
2.973696e+003, 1.101377e-002
2.975624e+003, 1.069748e-002
2.977552e+003, 1.062613e-002
2.979481e+003, 1.080004e-002
2.981409e+003, 1.015522e-002
2.983338e+003, 9.701591e-003
2.985266e+003, 9.680357e-003
2.987195e+003, 9.678232e-003
2.989123e+003, 1.024738e-002
2.991052e+003, 1.086817e-002
2.992980e+003, 1.101069e-002
2.994909e+003, 1.009789e-002
2.996837e+003, 1.073960e-002
2.998766e+003, 1.147596e-002
3.000694e+003, 1.069869e-002
3.002623e+003, 1.035503e-002
3.004551e+003, 1.000801e-002
3.006479e+003, 9.573320e-003
3.008408e+003, 9.394912e-003
3.010336e+003, 9.549329e-003
3.012265e+003, 1.033144e-002
3.014193e+003, 1.094108e-002
3.016122e+003, 1.112061e-002
3.018050e+003, 1.096506e-002
3.019979e+003, 1.111021e-002
3.021907e+003, 1.147351e-002
3.023836e+003, 1.195656e-002
3.025764e+003, 1.178057e-002
3.027693e+003, 1.086393e-002
3.029621e+003, 1.081599e-002
3.031550e+003, 1.158521e-002
3.033478e+003, 1.279228e-002
3.035406e+003, 1.223993e-002
3.037335e+003, 1.085368e-002
3.039263e+003, 1.133208e-002
3.041192e+003, 1.258256e-002
3.043120e+003, 1.260754e-002
3.045049e+003, 1.235122e-002
3.046977e+003, 1.172524e-002
3.048906e+003, 1.155146e-002
3.050834e+003, 1.180372e-002
3.052763e+003, 1.043211e-002
3.054691e+003, 1.069417e-002
3.056620e+003, 1.181476e-002
3.058548e+003, 1.161559e-002
3.060477e+003, 1.082473e-002
3.062405e+003, 1.085621e-002
3.064333e+003, 1.199333e-002
3.066262e+003, 1.301650e-002
3.068190e+003, 1.305343e-002
3.070119e+003, 1.259749e-002
3.072047e+003, 1.173966e-002
3.073976e+003, 1.152120e-002
3.075904e+003, 1.243821e-002
3.077833e+003, 1.218366e-002
3.079761e+003, 1.189649e-002
3.081690e+003, 1.253066e-002
3.083618e+003, 1.307842e-002
3.085547e+003, 1.340637e-002
3.087475e+003, 1.305820e-002
3.089404e+003, 1.246707e-002
3.091332e+003, 1.257452e-002
3.093260e+003, 1.282065e-002
3.095189e+003, 1.348483e-002
3.097117e+003, 1.374762e-002
3.099046e+003, 1.289646e-002
3.100974e+003, 1.210626e-002
3.102903e+003, 1.265106e-002
3.104831e+003, 1.248811e-002
3.106760e+003, 1.248922e-002
3.108688e+003, 1.336085e-002
3.110617e+003, 1.353622e-002
3.112545e+003, 1.358576e-002
3.114474e+003, 1.319105e-002
3.116402e+003, 1.284922e-002
3.118331e+003, 1.287199e-002
3.120259e+003, 1.336589e-002
3.122188e+003, 1.347414e-002
3.124116e+003, 1.280338e-002
3.126044e+003, 1.323409e-002
3.127973e+003, 1.373602e-002
3.129901e+003, 1.391588e-002
3.131830e+003, 1.456747e-002
3.133758e+003, 1.491727e-002
3.135687e+003, 1.440028e-002
3.137615e+003, 1.431195e-002
3.139544e+003, 1.449958e-002
3.141472e+003, 1.452837e-002
3.143401e+003, 1.430487e-002
3.145329e+003, 1.445425e-002
3.147258e+003, 1.429197e-002
3.149186e+003, 1.370690e-002
3.151115e+003, 1.359128e-002
3.153043e+003, 1.474239e-002
3.154971e+003, 1.484387e-002
3.156900e+003, 1.456039e-002
3.158828e+003, 1.497237e-002
3.160757e+003, 1.492328e-002
3.162685e+003, 1.500655e-002
3.164614e+003, 1.587516e-002
3.166542e+003, 1.540804e-002
3.168471e+003, 1.478163e-002
3.170399e+003, 1.443060e-002
3.172328e+003, 1.397167e-002
3.174256e+003, 1.407260e-002
3.176185e+003, 1.387586e-002
3.178113e+003, 1.392226e-002
3.180042e+003, 1.508347e-002
3.181970e+003, 1.530069e-002
3.183898e+003, 1.434334e-002
3.185827e+003, 1.369527e-002
3.187755e+003, 1.432496e-002
3.189684e+003, 1.433886e-002
3.191612e+003, 1.404923e-002
3.193541e+003, 1.470115e-002
3.195469e+003, 1.550939e-002
3.197398e+003, 1.663006e-002
3.199326e+003, 1.606302e-002
3.201255e+003, 1.592624e-002
3.203183e+003, 1.632871e-002
3.205112e+003, 1.530309e-002
3.207040e+003, 1.476040e-002
3.208969e+003, 1.543503e-002
3.210897e+003, 1.559987e-002
3.212825e+003, 1.489871e-002
3.214754e+003, 1.485608e-002
3.216682e+003, 1.540327e-002
3.218611e+003, 1.548885e-002
3.220539e+003, 1.512971e-002
3.222468e+003, 1.567336e-002
3.224396e+003, 1.650204e-002
3.226325e+003, 1.665394e-002
3.228253e+003, 1.699884e-002
3.230182e+003, 1.729286e-002
3.232110e+003, 1.577268e-002
3.234039e+003, 1.544695e-002
3.235967e+003, 1.610219e-002
3.237896e+003, 1.630030e-002
3.239824e+003, 1.608555e-002
3.241752e+003, 1.565734e-002
3.243681e+003, 1.529231e-002
3.245609e+003, 1.538914e-002
3.247538e+003, 1.525817e-002
3.249466e+003, 1.468169e-002
3.251395e+003, 1.524101e-002
3.253323e+003, 1.616893e-002
3.255252e+003, 1.677095e-002
3.257180e+003, 1.641835e-002
3.259109e+003, 1.604597e-002
3.261037e+003, 1.652819e-002
3.262966e+003, 1.678192e-002
3.264894e+003, 1.607456e-002
3.266823e+003, 1.625890e-002
3.268751e+003, 1.661573e-002
3.270679e+003, 1.622746e-002
3.272608e+003, 1.667724e-002
3.274536e+003, 1.600561e-002
3.276465e+003, 1.588033e-002
3.278393e+003, 1.595218e-002
3.280322e+003, 1.591881e-002
3.282250e+003, 1.569416e-002
3.284179e+003, 1.587216e-002
3.286107e+003, 1.556432e-002
3.288036e+003, 1.555671e-002
3.289964e+003, 1.677716e-002
3.291893e+003, 1.673005e-002
3.293821e+003, 1.631700e-002
3.295750e+003, 1.637382e-002
3.297678e+003, 1.621255e-002
3.299606e+003, 1.546767e-002
3.301535e+003, 1.556219e-002
3.303463e+003, 1.685707e-002
3.305392e+003, 1.755824e-002
3.307320e+003, 1.651023e-002
3.309249e+003, 1.602193e-002
3.311177e+003, 1.592166e-002
3.313106e+003, 1.655866e-002
3.315034e+003, 1.733706e-002
3.316963e+003, 1.694019e-002
3.318891e+003, 1.651816e-002
3.320820e+003, 1.713013e-002
3.322748e+003, 1.764676e-002
3.324677e+003, 1.793681e-002
3.326605e+003, 1.798092e-002
3.328533e+003, 1.808671e-002
3.330462e+003, 1.820022e-002
3.332390e+003, 1.721440e-002
3.334319e+003, 1.680852e-002
3.336247e+003, 1.772673e-002
3.338176e+003, 1.783406e-002
3.340104e+003, 1.610943e-002
3.342033e+003, 1.529911e-002
3.343961e+003, 1.609510e-002
3.345890e+003, 1.669840e-002
3.347818e+003, 1.778484e-002
3.349747e+003, 1.911902e-002
3.351675e+003, 1.847630e-002
3.353604e+003, 1.759197e-002
3.355532e+003, 1.743993e-002
3.357460e+003, 1.846381e-002
3.359389e+003, 1.821234e-002
3.361317e+003, 1.786242e-002
3.363246e+003, 1.743300e-002
3.365174e+003, 1.646623e-002
3.367103e+003, 1.723307e-002
3.369031e+003, 1.843123e-002
3.370960e+003, 1.742924e-002
3.372888e+003, 1.669455e-002
3.374817e+003, 1.750531e-002
3.376745e+003, 1.692992e-002
3.378674e+003, 1.654655e-002
3.380602e+003, 1.694223e-002
3.382531e+003, 1.712129e-002
3.384459e+003, 1.777301e-002
3.386387e+003, 1.915195e-002
3.388316e+003, 1.879359e-002
3.390244e+003, 1.786570e-002
3.392173e+003, 1.837698e-002
3.394101e+003, 1.795979e-002
3.396030e+003, 1.700259e-002
3.397958e+003, 1.704037e-002
3.399887e+003, 1.711330e-002
3.401815e+003, 1.678597e-002
3.403744e+003, 1.588413e-002
3.405672e+003, 1.587602e-002
3.407601e+003, 1.778449e-002
3.409529e+003, 1.848462e-002
3.411458e+003, 1.827328e-002
3.413386e+003, 1.739980e-002
3.415314e+003, 1.652127e-002
3.417243e+003, 1.670383e-002
3.419171e+003, 1.652354e-002
3.421100e+003, 1.664405e-002
3.423028e+003, 1.707190e-002
3.424957e+003, 1.652499e-002
3.426885e+003, 1.664395e-002
3.428814e+003, 1.800501e-002
3.430742e+003, 1.776997e-002
3.432671e+003, 1.706097e-002
3.434599e+003, 1.721549e-002
3.436528e+003, 1.680133e-002
3.438456e+003, 1.727309e-002
3.440385e+003, 1.888808e-002
3.442313e+003, 1.817334e-002
3.444241e+003, 1.746136e-002
3.446170e+003, 1.827287e-002
3.448098e+003, 1.800012e-002
3.450027e+003, 1.731132e-002
3.451955e+003, 1.711448e-002
3.453884e+003, 1.663285e-002
3.455812e+003, 1.618580e-002
3.457741e+003, 1.682787e-002
3.459669e+003, 1.730242e-002
3.461598e+003, 1.692958e-002
3.463526e+003, 1.628828e-002
3.465455e+003, 1.675290e-002
3.467383e+003, 1.615568e-002
3.469312e+003, 1.640915e-002
3.471240e+003, 1.717100e-002
3.473168e+003, 1.730125e-002
3.475097e+003, 1.675143e-002
3.477025e+003, 1.689411e-002
3.478954e+003, 1.654228e-002
3.480882e+003, 1.647204e-002
3.482811e+003, 1.737566e-002
3.484739e+003, 1.774366e-002
3.486668e+003, 1.694867e-002
3.488596e+003, 1.582695e-002
3.490525e+003, 1.664267e-002
3.492453e+003, 1.670545e-002
3.494382e+003, 1.550002e-002
3.496310e+003, 1.545228e-002
3.498239e+003, 1.629734e-002
3.500167e+003, 1.647666e-002
3.502095e+003, 1.718221e-002
3.504024e+003, 1.613912e-002
3.505952e+003, 1.465886e-002
3.507881e+003, 1.628528e-002
3.509809e+003, 1.740155e-002
3.511738e+003, 1.801723e-002
3.513666e+003, 1.764443e-002
3.515595e+003, 1.692791e-002
3.517523e+003, 1.689501e-002
3.519452e+003, 1.644225e-002
3.521380e+003, 1.679368e-002
3.523309e+003, 1.675850e-002
3.525237e+003, 1.806853e-002
3.527166e+003, 1.886419e-002
3.529094e+003, 1.733253e-002
3.531022e+003, 1.590712e-002
3.532951e+003, 1.702309e-002
3.534879e+003, 1.663284e-002
3.536808e+003, 1.557681e-002
3.538736e+003, 1.612291e-002
3.540665e+003, 1.631132e-002
3.542593e+003, 1.650030e-002
3.544522e+003, 1.638333e-002
3.546450e+003, 1.487315e-002
3.548379e+003, 1.532482e-002
3.550307e+003, 1.502248e-002
3.552236e+003, 1.410138e-002
3.554164e+003, 1.421315e-002
3.556093e+003, 1.426521e-002
3.558021e+003, 1.630061e-002
3.559949e+003, 1.672481e-002
3.561878e+003, 1.697250e-002
3.563806e+003, 1.571277e-002
3.565735e+003, 1.383439e-002
3.567663e+003, 1.405144e-002
3.569592e+003, 1.440221e-002
3.571520e+003, 1.469382e-002
3.573449e+003, 1.599800e-002
3.575377e+003, 1.609150e-002
3.577306e+003, 1.650060e-002
3.579234e+003, 1.591762e-002
3.581163e+003, 1.470043e-002
3.583091e+003, 1.409975e-002
3.585020e+003, 1.368450e-002
3.586948e+003, 1.222510e-002
3.588876e+003, 1.411567e-002
3.590805e+003, 1.616574e-002
3.592733e+003, 1.605234e-002
3.594662e+003, 1.445949e-002
3.596590e+003, 1.447266e-002
3.598519e+003, 1.280746e-002
3.600447e+003, 1.125652e-002
3.602376e+003, 1.277629e-002
3.604304e+003, 1.431651e-002
3.606233e+003, 1.451785e-002
3.608161e+003, 1.448265e-002
3.610090e+003, 1.355588e-002
3.612018e+003, 1.481815e-002
3.613947e+003, 1.799198e-002
3.615875e+003, 2.138290e-002
3.617803e+003, 2.775284e-002
3.619732e+003, 3.604424e-002
3.621660e+003, 3.234493e-002
3.623589e+003, 2.192384e-002
3.625517e+003, 1.535940e-002
3.627446e+003, 1.058255e-002
3.629374e+003, 8.391744e-003
3.631303e+003, 1.027114e-002
3.633231e+003, 1.378874e-002
3.635160e+003, 1.849483e-002
3.637088e+003, 2.498455e-002
3.639017e+003, 3.103866e-002
3.640945e+003, 2.749685e-002
3.642874e+003, 1.809216e-002
3.644802e+003, 1.199985e-002
3.646730e+003, 8.804728e-003
3.648659e+003, 7.467469e-003
3.650587e+003, 9.128980e-003
3.652516e+003, 1.385229e-002
3.654444e+003, 1.488231e-002
3.656373e+003, 1.246392e-002
3.658301e+003, 1.205431e-002
3.660230e+003, 1.108201e-002
3.662158e+003, 9.352097e-003
3.664087e+003, 8.320299e-003
3.666015e+003, 8.689453e-003
3.667944e+003, 8.686326e-003
3.669872e+003, 7.266558e-003
3.671801e+003, 7.129956e-003
3.673729e+003, 5.184547e-003
3.675657e+003, 4.009710e-003
3.677586e+003, 5.205516e-003
3.679514e+003, 5.314664e-003
3.681443e+003, 6.105206e-003
3.683371e+003, 7.145804e-003
3.685300e+003, 8.794711e-003
3.687228e+003, 8.170588e-003
3.689157e+003, 7.028355e-003
3.691085e+003, 7.703358e-003
3.693014e+003, 9.594237e-003
3.694942e+003, 1.083936e-002
3.696871e+003, 9.618674e-003
3.698799e+003, 9.212193e-003
3.700728e+003, 8.169443e-003
3.702656e+003, 7.820829e-003
3.704584e+003, 7.538394e-003
3.706513e+003, 7.542688e-003
3.708441e+003, 8.916780e-003
3.710370e+003, 6.922946e-003
3.712298e+003, 6.026363e-003
3.714227e+003, 8.070111e-003
3.716155e+003, 7.821626e-003
3.718084e+003, 6.774524e-003
3.720012e+003, 7.147431e-003
3.721941e+003, 6.796413e-003
3.723869e+003, 6.468642e-003
3.725798e+003, 7.099277e-003
3.727726e+003, 7.860253e-003
3.729655e+003, 7.853019e-003
3.731583e+003, 6.722887e-003
3.733511e+003, 4.917973e-003
3.735440e+003, 3.671339e-003
3.737368e+003, 4.963671e-003
3.739297e+003, 6.795508e-003
3.741225e+003, 7.473720e-003
3.743154e+003, 2.653837e-003
3.745082e+003, 1.866635e-003
3.747011e+003, 4.476551e-003
3.748939e+003, 3.257309e-004
3.750868e+003, 1.214682e-003
3.752796e+003, 4.513013e-003
3.754725e+003, 7.521184e-003
3.756653e+003, 7.886351e-003
3.758582e+003, 7.728601e-003
3.760510e+003, 8.084771e-003
3.762438e+003, 9.030567e-003
3.764367e+003, 8.715282e-003
3.766295e+003, 9.345785e-003
3.768224e+003, 8.850116e-003
3.770152e+003, 6.983430e-003
3.772081e+003, 9.018020e-003
3.774009e+003, 1.140194e-002
3.775938e+003, 1.123707e-002
3.777866e+003, 9.384191e-003
3.779795e+003, 8.549809e-003
3.781723e+003, 9.442794e-003
3.783652e+003, 1.004072e-002
3.785580e+003, 1.068491e-002
3.787509e+003, 1.084219e-002
3.789437e+003, 9.078325e-003
3.791365e+003, 8.365741e-003
3.793294e+003, 9.176035e-003
3.795222e+003, 9.620185e-003
3.797151e+003, 8.391658e-003
3.799079e+003, 7.586384e-003
3.801008e+003, 5.549034e-003
3.802936e+003, 7.702068e-003
3.804865e+003, 9.519344e-003
3.806793e+003, 6.720461e-003
3.808722e+003, 7.547574e-003
3.810650e+003, 9.574076e-003
3.812579e+003, 9.440813e-003
3.814507e+003, 7.448200e-003
3.816436e+003, 6.578906e-003
3.818364e+003, 7.714248e-003
3.820292e+003, 6.206504e-003
3.822221e+003, 6.707006e-003
3.824149e+003, 9.995978e-003
3.826078e+003, 1.121691e-002
3.828006e+003, 1.072947e-002
3.829935e+003, 1.004366e-002
3.831863e+003, 1.033908e-002
3.833792e+003, 9.029399e-003
3.835720e+003, 5.885508e-003
3.837649e+003, 5.273261e-003
3.839577e+003, 7.069352e-003
3.841506e+003, 7.894383e-003
3.843434e+003, 9.013313e-003
3.845363e+003, 9.183095e-003
3.847291e+003, 7.996188e-003
3.849219e+003, 7.760568e-003
3.851148e+003, 4.981034e-003
3.853076e+003, 2.165245e-003
3.855005e+003, 5.432941e-003
3.856933e+003, 9.199548e-003
3.858862e+003, 9.133053e-003
3.860790e+003, 8.023988e-003
3.862719e+003, 6.932154e-003
3.864647e+003, 6.595809e-003
3.866576e+003, 9.490773e-003
3.868504e+003, 7.433251e-003
3.870433e+003, 5.188893e-003
3.872361e+003, 6.020663e-003
3.874290e+003, 6.912574e-003
3.876218e+003, 9.316704e-003
3.878146e+003, 9.799362e-003
3.880075e+003, 7.602572e-003
3.882003e+003, 6.649449e-003
3.883932e+003, 8.008723e-003
3.885860e+003, 7.531264e-003
3.887789e+003, 8.064697e-003
3.889717e+003, 7.021114e-003
3.891646e+003, 6.835691e-003
3.893574e+003, 9.477643e-003
3.895503e+003, 1.044118e-002
3.897431e+003, 9.188372e-003
3.899360e+003, 9.640240e-003
3.901288e+003, 8.625568e-003
3.903217e+003, 7.307445e-003
3.905145e+003, 8.453071e-003
3.907073e+003, 1.014566e-002
3.909002e+003, 9.134262e-003
3.910930e+003, 8.360759e-003
3.912859e+003, 9.983577e-003
3.914787e+003, 1.232394e-002
3.916716e+003, 1.264495e-002
3.918644e+003, 1.195463e-002
3.920573e+003, 1.058039e-002
3.922501e+003, 1.003472e-002
3.924430e+003, 8.561594e-003
3.926358e+003, 7.223644e-003
3.928287e+003, 9.118997e-003
3.930215e+003, 9.955555e-003
3.932144e+003, 9.671892e-003
3.934072e+003, 9.966373e-003
3.936000e+003, 9.981492e-003
3.937929e+003, 8.766514e-003
3.939857e+003, 7.796294e-003
3.941786e+003, 8.188648e-003
3.943714e+003, 1.000999e-002
3.945643e+003, 1.088328e-002
3.947571e+003, 1.004030e-002
3.949500e+003, 8.988271e-003
3.951428e+003, 1.169025e-002
3.953357e+003, 1.338902e-002
3.955285e+003, 1.116220e-002
3.957214e+003, 1.064392e-002
3.959142e+003, 1.028219e-002
3.961071e+003, 1.136176e-002
3.962999e+003, 1.131746e-002
3.964927e+003, 9.665070e-003
3.966856e+003, 7.067042e-003
3.968784e+003, 7.828171e-003
3.970713e+003, 8.981397e-003
3.972641e+003, 8.920926e-003
3.974570e+003, 9.412337e-003
3.976498e+003, 9.165214e-003
3.978427e+003, 8.481474e-003
3.980355e+003, 1.082215e-002
3.982284e+003, 1.088489e-002
3.984212e+003, 9.874049e-003
3.986141e+003, 1.034009e-002
3.988069e+003, 1.056338e-002
3.989998e+003, 1.019888e-002
3.991926e+003, 1.079305e-002
3.993854e+003, 1.078162e-002
3.995783e+003, 8.829302e-003
3.997711e+003, 8.405849e-003
3.999640e+003, 1.041043e-002
4.001568e+003, 0.000000e+000
##END=



