##NAMES=Pyromorphite
##RRUFFID=R050027
##IDEAL CHEMISTRY=Pb^2+^_5_(PO_4_)_3_Cl
##LOCALITY=Yangshuo, Guangxi Autonomous Region, China
##OWNER=RRUFF
##SOURCE=Eugene Schlepp
##DESCRIPTION=Light green hexagonal prismatic hoppered single crystals
##STATUS=The identification of this mineral has been confirmed by X-ray diffraction and chemical analysis
##URL=rruff.info/R050027
##MEASURED CHEMISTRY=Pb_5.00_(P_1.00_O_4_)_3_Cl_1.00_
3.991926e+002, 4.767736e-002
4.011211e+002, 5.516705e-002
4.030496e+002, 5.543227e-002
4.049780e+002, 6.058063e-002
4.069065e+002, 6.634820e-002
4.088350e+002, 6.850466e-002
4.107634e+002, 7.173420e-002
4.126919e+002, 7.954783e-002
4.146204e+002, 8.862890e-002
4.165488e+002, 9.591605e-002
4.184773e+002, 1.051358e-001
4.204058e+002, 1.161545e-001
4.223342e+002, 1.224782e-001
4.242627e+002, 1.225873e-001
4.261912e+002, 1.211930e-001
4.281196e+002, 1.236395e-001
4.300481e+002, 1.289862e-001
4.319766e+002, 1.325260e-001
4.339050e+002, 1.335624e-001
4.358335e+002, 1.339121e-001
4.377620e+002, 1.311928e-001
4.396904e+002, 1.291232e-001
4.416189e+002, 1.299137e-001
4.435474e+002, 1.316689e-001
4.454758e+002, 1.338937e-001
4.474043e+002, 1.369424e-001
4.493328e+002, 1.405348e-001
4.512612e+002, 1.469751e-001
4.531897e+002, 1.541939e-001
4.551182e+002, 1.603392e-001
4.570466e+002, 1.643333e-001
4.589751e+002, 1.697055e-001
4.609036e+002, 1.766291e-001
4.628320e+002, 1.832743e-001
4.647605e+002, 1.897295e-001
4.666890e+002, 1.963991e-001
4.686174e+002, 2.041318e-001
4.705459e+002, 2.123527e-001
4.724744e+002, 2.197488e-001
4.744028e+002, 2.280106e-001
4.763313e+002, 2.365159e-001
4.782598e+002, 2.458678e-001
4.801882e+002, 2.544528e-001
4.821167e+002, 2.627617e-001
4.840452e+002, 2.721350e-001
4.859736e+002, 2.823943e-001
4.879021e+002, 2.948117e-001
4.898306e+002, 3.057367e-001
4.917590e+002, 3.172089e-001
4.936875e+002, 3.289056e-001
4.956160e+002, 3.415027e-001
4.975444e+002, 3.556536e-001
4.994729e+002, 3.697337e-001
5.014014e+002, 3.850092e-001
5.033298e+002, 4.013470e-001
5.052583e+002, 4.179922e-001
5.071868e+002, 4.318782e-001
5.091152e+002, 4.438155e-001
5.110437e+002, 4.588259e-001
5.129722e+002, 4.761033e-001
5.149006e+002, 4.893763e-001
5.168291e+002, 5.017437e-001
5.187576e+002, 5.161941e-001
5.206860e+002, 5.307693e-001
5.226145e+002, 5.442211e-001
5.245430e+002, 5.558772e-001
5.264714e+002, 5.695225e-001
5.283999e+002, 5.750456e-001
5.303284e+002, 5.708138e-001
5.322568e+002, 5.559376e-001
5.341853e+002, 5.339018e-001
5.361138e+002, 5.027862e-001
5.380422e+002, 4.600808e-001
5.399707e+002, 4.053413e-001
5.418992e+002, 3.441004e-001
5.438276e+002, 2.851143e-001
5.457561e+002, 2.347892e-001
5.476846e+002, 1.987507e-001
5.496130e+002, 1.765984e-001
5.515415e+002, 1.656265e-001
5.534700e+002, 1.638386e-001
5.553984e+002, 1.722704e-001
5.573269e+002, 1.942158e-001
5.592554e+002, 2.306501e-001
5.611838e+002, 2.783623e-001
5.631123e+002, 3.323703e-001
5.650408e+002, 3.806274e-001
5.669692e+002, 4.007744e-001
5.688977e+002, 3.779905e-001
5.708262e+002, 3.280788e-001
5.727546e+002, 2.744653e-001
5.746831e+002, 2.274213e-001
5.766116e+002, 1.862224e-001
5.785400e+002, 1.513772e-001
5.804685e+002, 1.206738e-001
5.823970e+002, 9.428994e-002
5.843254e+002, 7.400019e-002
5.862539e+002, 5.980789e-002
5.881824e+002, 5.083887e-002
5.901108e+002, 4.486402e-002
5.920393e+002, 4.090048e-002
5.939678e+002, 3.818386e-002
5.958962e+002, 3.643863e-002
5.978247e+002, 3.538025e-002
5.997532e+002, 3.424996e-002
6.016816e+002, 3.344458e-002
6.036101e+002, 3.334839e-002
6.055386e+002, 3.344249e-002
6.074670e+002, 3.343016e-002
6.093955e+002, 3.342346e-002
6.113240e+002, 3.338030e-002
6.132524e+002, 3.314291e-002
6.151809e+002, 3.320197e-002
6.171094e+002, 3.362008e-002
6.190378e+002, 3.390611e-002
6.209663e+002, 3.398013e-002
6.228948e+002, 3.426823e-002
6.248232e+002, 3.445578e-002
6.267517e+002, 3.501818e-002
6.286802e+002, 3.570588e-002
6.306086e+002, 3.649136e-002
6.325371e+002, 3.747601e-002
6.344656e+002, 3.844840e-002
6.363940e+002, 3.961436e-002
6.383225e+002, 4.098926e-002
6.402510e+002, 4.245520e-002
6.421794e+002, 4.406245e-002
6.441079e+002, 4.565344e-002
6.460364e+002, 4.735423e-002
6.479648e+002, 4.937683e-002
6.498933e+002, 5.150773e-002
6.518218e+002, 5.341559e-002
6.537502e+002, 5.530468e-002
6.556787e+002, 5.738315e-002
6.576072e+002, 5.969531e-002
6.595356e+002, 6.213566e-002
6.614641e+002, 6.442805e-002
6.633926e+002, 6.680399e-002
6.653210e+002, 6.936387e-002
6.672495e+002, 7.201307e-002
6.691780e+002, 7.397468e-002
6.711064e+002, 7.586715e-002
6.730349e+002, 7.761780e-002
6.749634e+002, 7.991253e-002
6.768918e+002, 8.265769e-002
6.788203e+002, 8.520135e-002
6.807488e+002, 8.772691e-002
6.826772e+002, 9.025427e-002
6.846057e+002, 9.293663e-002
6.865342e+002, 9.561899e-002
6.884626e+002, 9.806927e-002
6.903911e+002, 1.004693e-001
6.923196e+002, 1.034549e-001
6.942480e+002, 1.063185e-001
6.961765e+002, 1.089101e-001
6.981050e+002, 1.118521e-001
7.000334e+002, 1.147796e-001
7.019619e+002, 1.176929e-001
7.038904e+002, 1.211092e-001
7.058188e+002, 1.245750e-001
7.077473e+002, 1.278206e-001
7.096758e+002, 1.310653e-001
7.116042e+002, 1.341414e-001
7.135327e+002, 1.374342e-001
7.154612e+002, 1.412857e-001
7.173896e+002, 1.452212e-001
7.193181e+002, 1.489892e-001
7.212466e+002, 1.525669e-001
7.231750e+002, 1.563968e-001
7.251035e+002, 1.600498e-001
7.270320e+002, 1.638687e-001
7.289604e+002, 1.676622e-001
7.308889e+002, 1.713524e-001
7.328174e+002, 1.753152e-001
7.347458e+002, 1.799011e-001
7.366743e+002, 1.843175e-001
7.386028e+002, 1.885861e-001
7.405313e+002, 1.929277e-001
7.424597e+002, 1.974709e-001
7.443882e+002, 2.020329e-001
7.463167e+002, 2.066921e-001
7.482451e+002, 2.110156e-001
7.501736e+002, 2.152517e-001
7.521021e+002, 2.200932e-001
7.540305e+002, 2.251114e-001
7.559590e+002, 2.299737e-001
7.578875e+002, 2.346948e-001
7.598159e+002, 2.392671e-001
7.617444e+002, 2.440589e-001
7.636729e+002, 2.491166e-001
7.656013e+002, 2.541710e-001
7.675298e+002, 2.588570e-001
7.694583e+002, 2.637780e-001
7.713867e+002, 2.693000e-001
7.733152e+002, 2.748396e-001
7.752437e+002, 2.800474e-001
7.771721e+002, 2.854309e-001
7.791006e+002, 2.911224e-001
7.810291e+002, 2.969214e-001
7.829575e+002, 3.028938e-001
7.848860e+002, 3.089824e-001
7.868145e+002, 3.147869e-001
7.887429e+002, 3.196023e-001
7.906714e+002, 3.235865e-001
7.925999e+002, 3.275668e-001
7.945283e+002, 3.328769e-001
7.964568e+002, 3.389085e-001
7.983853e+002, 3.450403e-001
8.003137e+002, 3.512662e-001
8.022422e+002, 3.573716e-001
8.041707e+002, 3.629444e-001
8.060991e+002, 3.675123e-001
8.080276e+002, 3.723862e-001
8.099561e+002, 3.782428e-001
8.118845e+002, 3.849006e-001
8.138130e+002, 3.919809e-001
8.157415e+002, 3.991166e-001
8.176699e+002, 4.054420e-001
8.195984e+002, 4.111922e-001
8.215269e+002, 4.158711e-001
8.234553e+002, 4.208115e-001
8.253838e+002, 4.271886e-001
8.273123e+002, 4.343955e-001
8.292407e+002, 4.416448e-001
8.311692e+002, 4.489725e-001
8.330977e+002, 4.559180e-001
8.350261e+002, 4.628597e-001
8.369546e+002, 4.703344e-001
8.388831e+002, 4.780104e-001
8.408115e+002, 4.852709e-001
8.427400e+002, 4.916715e-001
8.446685e+002, 4.983689e-001
8.465969e+002, 5.060070e-001
8.485254e+002, 5.138274e-001
8.504539e+002, 5.216925e-001
8.523823e+002, 5.292932e-001
8.543108e+002, 5.360688e-001
8.562393e+002, 5.430439e-001
8.581677e+002, 5.503100e-001
8.600962e+002, 5.579273e-001
8.620247e+002, 5.649253e-001
8.639531e+002, 5.714940e-001
8.658816e+002, 5.783679e-001
8.678101e+002, 5.855715e-001
8.697385e+002, 5.938389e-001
8.716670e+002, 6.020917e-001
8.735955e+002, 6.100083e-001
8.755239e+002, 6.181716e-001
8.774524e+002, 6.272082e-001
8.793809e+002, 6.355092e-001
8.813093e+002, 6.425956e-001
8.832378e+002, 6.504393e-001
8.851663e+002, 6.592188e-001
8.870947e+002, 6.675484e-001
8.890232e+002, 6.755473e-001
8.909517e+002, 6.832977e-001
8.928801e+002, 6.912094e-001
8.948085e+002, 6.995076e-001
8.967370e+002, 7.082796e-001
8.986655e+002, 7.179322e-001
9.005939e+002, 7.270288e-001
9.025224e+002, 7.355648e-001
9.044509e+002, 7.450405e-001
9.063793e+002, 7.546481e-001
9.083078e+002, 7.638146e-001
9.102363e+002, 7.727926e-001
9.121647e+002, 7.820480e-001
9.140932e+002, 7.914634e-001
9.160217e+002, 7.997645e-001
9.179501e+002, 8.082047e-001
9.198786e+002, 8.152651e-001
9.218071e+002, 8.171873e-001
9.237355e+002, 8.081294e-001
9.256640e+002, 7.876410e-001
9.275925e+002, 7.736318e-001
9.295209e+002, 7.799188e-001
9.314494e+002, 7.976067e-001
9.333779e+002, 8.136694e-001
9.353063e+002, 8.263252e-001
9.372348e+002, 8.349643e-001
9.391633e+002, 8.404076e-001
9.410917e+002, 8.432990e-001
9.430202e+002, 8.445072e-001
9.449487e+002, 8.409851e-001
9.468771e+002, 8.349512e-001
9.488056e+002, 8.274267e-001
9.507341e+002, 8.150007e-001
9.526625e+002, 7.981362e-001
9.545910e+002, 7.761825e-001
9.565195e+002, 7.487922e-001
9.584479e+002, 7.192278e-001
9.603764e+002, 6.875232e-001
9.623049e+002, 6.541209e-001
9.642333e+002, 6.222313e-001
9.661618e+002, 5.920703e-001
9.680903e+002, 5.620220e-001
9.700187e+002, 5.339676e-001
9.719472e+002, 5.097192e-001
9.738757e+002, 4.889627e-001
9.758041e+002, 4.718182e-001
9.777326e+002, 4.578277e-001
9.796611e+002, 4.460708e-001
9.815895e+002, 4.361178e-001
9.835180e+002, 4.278929e-001
9.854465e+002, 4.221892e-001
9.873749e+002, 4.197560e-001
9.893034e+002, 4.203947e-001
9.912319e+002, 4.236682e-001
9.931603e+002, 4.286290e-001
9.950888e+002, 4.348708e-001
9.970173e+002, 4.414623e-001
9.989457e+002, 4.466896e-001
1.000874e+003, 4.502378e-001
1.002803e+003, 4.530936e-001
1.004731e+003, 4.555637e-001
1.006660e+003, 4.575732e-001
1.008588e+003, 4.597282e-001
1.010517e+003, 4.614084e-001
1.012445e+003, 4.611560e-001
1.014373e+003, 4.580298e-001
1.016302e+003, 4.519054e-001
1.018230e+003, 4.424686e-001
1.020159e+003, 4.292151e-001
1.022087e+003, 4.127289e-001
1.024016e+003, 3.947934e-001
1.025944e+003, 3.757870e-001
1.027873e+003, 3.564961e-001
1.029801e+003, 3.375362e-001
1.031730e+003, 3.189612e-001
1.033658e+003, 3.015271e-001
1.035587e+003, 2.849748e-001
1.037515e+003, 2.694243e-001
1.039444e+003, 2.557424e-001
1.041372e+003, 2.429019e-001
1.043301e+003, 2.303443e-001
1.045229e+003, 2.186323e-001
1.047157e+003, 2.076419e-001
1.049086e+003, 1.972924e-001
1.051014e+003, 1.872240e-001
1.052943e+003, 1.773832e-001
1.054871e+003, 1.681650e-001
1.056800e+003, 1.591686e-001
1.058728e+003, 1.503808e-001
1.060657e+003, 1.417377e-001
1.062585e+003, 1.332787e-001
1.064514e+003, 1.251050e-001
1.066442e+003, 1.170596e-001
1.068371e+003, 1.094161e-001
1.070299e+003, 1.019915e-001
1.072228e+003, 9.482491e-002
1.074156e+003, 8.805852e-002
1.076084e+003, 8.218243e-002
1.078013e+003, 7.733309e-002
1.079941e+003, 7.264374e-002
1.081870e+003, 6.809852e-002
1.083798e+003, 6.403506e-002
1.085727e+003, 6.024908e-002
1.087655e+003, 5.661640e-002
1.089584e+003, 5.349427e-002
1.091512e+003, 5.058248e-002
1.093441e+003, 4.761175e-002
1.095369e+003, 4.494762e-002
1.097298e+003, 4.264823e-002
1.099226e+003, 4.050848e-002
1.101155e+003, 3.864611e-002
1.103083e+003, 3.695707e-002
1.105011e+003, 3.537580e-002
1.106940e+003, 3.400510e-002
1.108868e+003, 3.294875e-002
1.110797e+003, 3.173380e-002
1.112725e+003, 3.037892e-002
1.114654e+003, 2.923270e-002
1.116582e+003, 2.814158e-002
1.118511e+003, 2.686742e-002
1.120439e+003, 2.564678e-002
1.122368e+003, 2.468935e-002
1.124296e+003, 2.393831e-002
1.126225e+003, 2.300121e-002
1.128153e+003, 2.202323e-002
1.130082e+003, 2.110699e-002
1.132010e+003, 2.026314e-002
1.133938e+003, 1.957209e-002
1.135867e+003, 1.883548e-002
1.137795e+003, 1.824257e-002
1.139724e+003, 1.761941e-002
1.141652e+003, 1.717747e-002
1.143581e+003, 1.696761e-002
1.145509e+003, 1.662301e-002
1.147438e+003, 1.606870e-002
1.149366e+003, 1.572959e-002
1.151295e+003, 1.528923e-002
1.153223e+003, 1.473003e-002
1.155152e+003, 1.435739e-002
1.157080e+003, 1.395475e-002
1.159009e+003, 1.353487e-002
1.160937e+003, 1.341239e-002
1.162865e+003, 1.329566e-002
1.164794e+003, 1.303679e-002
1.166722e+003, 1.281239e-002
1.168651e+003, 1.256379e-002
1.170579e+003, 1.248068e-002
1.172508e+003, 1.256474e-002
1.174436e+003, 1.244423e-002
1.176365e+003, 1.225303e-002
1.178293e+003, 1.228105e-002
1.180222e+003, 1.227163e-002
1.182150e+003, 1.202708e-002
1.184079e+003, 1.173543e-002
1.186007e+003, 1.160335e-002
1.187936e+003, 1.153094e-002
1.189864e+003, 1.140475e-002
1.191792e+003, 1.139286e-002
1.193721e+003, 1.148915e-002
1.195649e+003, 1.174213e-002
1.197578e+003, 1.188354e-002
1.199506e+003, 1.184484e-002
1.201435e+003, 1.184782e-002
1.203363e+003, 1.181716e-002
1.205292e+003, 1.193291e-002
1.207220e+003, 1.214363e-002
1.209149e+003, 1.213583e-002
1.211077e+003, 1.196854e-002
1.213006e+003, 1.193751e-002
1.214934e+003, 1.209580e-002
1.216863e+003, 1.217376e-002
1.218791e+003, 1.220183e-002
1.220719e+003, 1.214343e-002
1.222648e+003, 1.223424e-002
1.224576e+003, 1.246186e-002
1.226505e+003, 1.253665e-002
1.228433e+003, 1.268336e-002
1.230362e+003, 1.288756e-002
1.232290e+003, 1.301356e-002
1.234219e+003, 1.318800e-002
1.236147e+003, 1.327717e-002
1.238076e+003, 1.331546e-002
1.240004e+003, 1.357816e-002
1.241933e+003, 1.387332e-002
1.243861e+003, 1.397437e-002
1.245790e+003, 1.415998e-002
1.247718e+003, 1.444613e-002
1.249646e+003, 1.461016e-002
1.251575e+003, 1.475988e-002
1.253503e+003, 1.481345e-002
1.255432e+003, 1.487428e-002
1.257360e+003, 1.513511e-002
1.259289e+003, 1.548473e-002
1.261217e+003, 1.560818e-002
1.263146e+003, 1.565198e-002
1.265074e+003, 1.583884e-002
1.267003e+003, 1.608239e-002
1.268931e+003, 1.643992e-002
1.270860e+003, 1.684957e-002
1.272788e+003, 1.729063e-002
1.274717e+003, 1.770702e-002
1.276645e+003, 1.806636e-002
1.278573e+003, 1.822056e-002
1.280502e+003, 1.846201e-002
1.282430e+003, 1.886457e-002
1.284359e+003, 1.902413e-002
1.286287e+003, 1.910494e-002
1.288216e+003, 1.932403e-002
1.290144e+003, 1.992078e-002
1.292073e+003, 2.062184e-002
1.294001e+003, 2.106023e-002
1.295930e+003, 2.147385e-002
1.297858e+003, 2.196286e-002
1.299787e+003, 2.254928e-002
1.301715e+003, 2.321278e-002
1.303644e+003, 2.376049e-002
1.305572e+003, 2.448145e-002
1.307500e+003, 2.526194e-002
1.309429e+003, 2.565969e-002
1.311357e+003, 2.596895e-002
1.313286e+003, 2.650639e-002
1.315214e+003, 2.716438e-002
1.317143e+003, 2.740512e-002
1.319071e+003, 2.731154e-002
1.321000e+003, 2.732667e-002
1.322928e+003, 2.764670e-002
1.324857e+003, 2.791514e-002
1.326785e+003, 2.799941e-002
1.328714e+003, 2.793535e-002
1.330642e+003, 2.815170e-002
1.332571e+003, 2.861064e-002
1.334499e+003, 2.895277e-002
1.336427e+003, 2.908369e-002
1.338356e+003, 2.925972e-002
1.340284e+003, 2.931029e-002
1.342213e+003, 2.942620e-002
1.344141e+003, 2.966170e-002
1.346070e+003, 2.971522e-002
1.347998e+003, 2.981433e-002
1.349927e+003, 2.990776e-002
1.351855e+003, 2.994576e-002
1.353784e+003, 3.012942e-002
1.355712e+003, 3.040301e-002
1.357641e+003, 3.076044e-002
1.359569e+003, 3.096068e-002
1.361498e+003, 3.116758e-002
1.363426e+003, 3.154256e-002
1.365354e+003, 3.202489e-002
1.367283e+003, 3.229938e-002
1.369211e+003, 3.239802e-002
1.371140e+003, 3.257115e-002
1.373068e+003, 3.315328e-002
1.374997e+003, 3.365253e-002
1.376925e+003, 3.383478e-002
1.378854e+003, 3.398174e-002
1.380782e+003, 3.410074e-002
1.382711e+003, 3.434021e-002
1.384639e+003, 3.457995e-002
1.386568e+003, 3.492122e-002
1.388496e+003, 3.539939e-002
1.390424e+003, 3.576696e-002
1.392353e+003, 3.616512e-002
1.394281e+003, 3.635017e-002
1.396210e+003, 3.663149e-002
1.398138e+003, 3.704032e-002
1.400067e+003, 3.727225e-002
1.401995e+003, 3.760378e-002
1.403924e+003, 3.819915e-002
1.405852e+003, 3.868074e-002
1.407781e+003, 3.900933e-002
1.409709e+003, 3.918368e-002
1.411638e+003, 3.943123e-002
1.413566e+003, 3.962900e-002
1.415495e+003, 3.952820e-002
1.417423e+003, 3.958851e-002
1.419351e+003, 3.997945e-002
1.421280e+003, 4.008420e-002
1.423208e+003, 4.009163e-002
1.425137e+003, 4.034196e-002
1.427065e+003, 4.041489e-002
1.428994e+003, 4.041044e-002
1.430922e+003, 4.072858e-002
1.432851e+003, 4.127004e-002
1.434779e+003, 4.131630e-002
1.436708e+003, 4.130038e-002
1.438636e+003, 4.171245e-002
1.440565e+003, 4.197541e-002
1.442493e+003, 4.189113e-002
1.444422e+003, 4.184716e-002
1.446350e+003, 4.212911e-002
1.448278e+003, 4.214634e-002
1.450207e+003, 4.211532e-002
1.452135e+003, 4.226398e-002
1.454064e+003, 4.226026e-002
1.455992e+003, 4.213528e-002
1.457921e+003, 4.233669e-002
1.459849e+003, 4.275942e-002
1.461778e+003, 4.286614e-002
1.463706e+003, 4.284701e-002
1.465635e+003, 4.295518e-002
1.467563e+003, 4.294573e-002
1.469492e+003, 4.273457e-002
1.471420e+003, 4.253276e-002
1.473349e+003, 4.243711e-002
1.475277e+003, 4.242117e-002
1.477205e+003, 4.255837e-002
1.479134e+003, 4.280230e-002
1.481062e+003, 4.308918e-002
1.482991e+003, 4.318932e-002
1.484919e+003, 4.317949e-002
1.486848e+003, 4.338946e-002
1.488776e+003, 4.360631e-002
1.490705e+003, 4.402638e-002
1.492633e+003, 4.453880e-002
1.494562e+003, 4.477168e-002
1.496490e+003, 4.488478e-002
1.498419e+003, 4.498276e-002
1.500347e+003, 4.532225e-002
1.502276e+003, 4.561455e-002
1.504204e+003, 4.542322e-002
1.506132e+003, 4.518149e-002
1.508061e+003, 4.553007e-002
1.509989e+003, 4.596026e-002
1.511918e+003, 4.631883e-002
1.513846e+003, 4.687183e-002
1.515775e+003, 4.730017e-002
1.517703e+003, 4.757997e-002
1.519632e+003, 4.793515e-002
1.521560e+003, 4.795361e-002
1.523489e+003, 4.842130e-002
1.525417e+003, 4.901588e-002
1.527346e+003, 4.929604e-002
1.529274e+003, 4.956402e-002
1.531203e+003, 4.972764e-002
1.533131e+003, 4.975563e-002
1.535059e+003, 5.023091e-002
1.536988e+003, 5.041748e-002
1.538916e+003, 5.010722e-002
1.540845e+003, 5.013001e-002
1.542773e+003, 5.069557e-002
1.544702e+003, 5.132591e-002
1.546630e+003, 5.177806e-002
1.548559e+003, 5.193626e-002
1.550487e+003, 5.185058e-002
1.552416e+003, 5.195147e-002
1.554344e+003, 5.215146e-002
1.556273e+003, 5.235124e-002
1.558201e+003, 5.241202e-002
1.560130e+003, 5.266310e-002
1.562058e+003, 5.318337e-002
1.563986e+003, 5.347060e-002
1.565915e+003, 5.386654e-002
1.567843e+003, 5.414529e-002
1.569772e+003, 5.407311e-002
1.571700e+003, 5.386186e-002
1.573629e+003, 5.363921e-002
1.575557e+003, 5.355489e-002
1.577486e+003, 5.395344e-002
1.579414e+003, 5.429349e-002
1.581343e+003, 5.436019e-002
1.583271e+003, 5.462770e-002
1.585200e+003, 5.495455e-002
1.587128e+003, 5.504363e-002
1.589057e+003, 5.540832e-002
1.590985e+003, 5.570718e-002
1.592913e+003, 5.569201e-002
1.594842e+003, 5.567952e-002
1.596770e+003, 5.579405e-002
1.598699e+003, 5.613597e-002
1.600627e+003, 5.647852e-002
1.602556e+003, 5.654650e-002
1.604484e+003, 5.681825e-002
1.606413e+003, 5.717591e-002
1.608341e+003, 5.737553e-002
1.610270e+003, 5.752604e-002
1.612198e+003, 5.780441e-002
1.614127e+003, 5.794183e-002
1.616055e+003, 5.810819e-002
1.617984e+003, 5.849590e-002
1.619912e+003, 5.877142e-002
1.621840e+003, 5.894336e-002
1.623769e+003, 5.927811e-002
1.625697e+003, 5.934230e-002
1.627626e+003, 5.953460e-002
1.629554e+003, 5.990379e-002
1.631483e+003, 6.027774e-002
1.633411e+003, 6.034991e-002
1.635340e+003, 6.003312e-002
1.637268e+003, 6.022066e-002
1.639197e+003, 6.086939e-002
1.641125e+003, 6.149933e-002
1.643054e+003, 6.177755e-002
1.644982e+003, 6.174630e-002
1.646911e+003, 6.203078e-002
1.648839e+003, 6.232297e-002
1.650767e+003, 6.226593e-002
1.652696e+003, 6.207043e-002
1.654624e+003, 6.240678e-002
1.656553e+003, 6.301779e-002
1.658481e+003, 6.331436e-002
1.660410e+003, 6.358048e-002
1.662338e+003, 6.394700e-002
1.664267e+003, 6.419796e-002
1.666195e+003, 6.427027e-002
1.668124e+003, 6.431569e-002
1.670052e+003, 6.434587e-002
1.671981e+003, 6.459831e-002
1.673909e+003, 6.491601e-002
1.675838e+003, 6.503861e-002
1.677766e+003, 6.531058e-002
1.679694e+003, 6.524339e-002
1.681623e+003, 6.520392e-002
1.683551e+003, 6.509134e-002
1.685480e+003, 6.559583e-002
1.687408e+003, 6.639903e-002
1.689337e+003, 6.669655e-002
1.691265e+003, 6.680007e-002
1.693194e+003, 6.717193e-002
1.695122e+003, 6.693124e-002
1.697051e+003, 6.678732e-002
1.698979e+003, 6.712647e-002
1.700908e+003, 6.712450e-002
1.702836e+003, 6.743109e-002
1.704765e+003, 6.754722e-002
1.706693e+003, 6.764732e-002
1.708621e+003, 6.807046e-002
1.710550e+003, 6.829071e-002
1.712478e+003, 6.830886e-002
1.714407e+003, 6.847406e-002
1.716335e+003, 6.841744e-002
1.718264e+003, 6.916260e-002
1.720192e+003, 6.990518e-002
1.722121e+003, 6.990212e-002
1.724049e+003, 7.030053e-002
1.725978e+003, 7.083435e-002
1.727906e+003, 7.051915e-002
1.729835e+003, 7.040205e-002
1.731763e+003, 7.044262e-002
1.733692e+003, 7.013063e-002
1.735620e+003, 7.037194e-002
1.737548e+003, 7.054192e-002
1.739477e+003, 7.020041e-002
1.741405e+003, 6.981946e-002
1.743334e+003, 7.017545e-002
1.745262e+003, 7.055157e-002
1.747191e+003, 7.073920e-002
1.749119e+003, 7.086933e-002
1.751048e+003, 7.116490e-002
1.752976e+003, 7.139134e-002
1.754905e+003, 7.147470e-002
1.756833e+003, 7.170904e-002
1.758762e+003, 7.241388e-002
1.760690e+003, 7.271417e-002
1.762619e+003, 7.287411e-002
1.764547e+003, 7.310567e-002
1.766475e+003, 7.327713e-002
1.768404e+003, 7.379283e-002
1.770332e+003, 7.423592e-002
1.772261e+003, 7.415749e-002
1.774189e+003, 7.453382e-002
1.776118e+003, 7.503645e-002
1.778046e+003, 7.532603e-002
1.779975e+003, 7.563706e-002
1.781903e+003, 7.617868e-002
1.783832e+003, 7.643752e-002
1.785760e+003, 7.640533e-002
1.787689e+003, 7.630797e-002
1.789617e+003, 7.700516e-002
1.791546e+003, 7.751177e-002
1.793474e+003, 7.724023e-002
1.795402e+003, 7.764520e-002
1.797331e+003, 7.810825e-002
1.799259e+003, 7.867922e-002
1.801188e+003, 7.889278e-002
1.803116e+003, 7.908668e-002
1.805045e+003, 7.942053e-002
1.806973e+003, 7.950991e-002
1.808902e+003, 7.963590e-002
1.810830e+003, 8.003567e-002
1.812759e+003, 8.032601e-002
1.814687e+003, 8.041466e-002
1.816616e+003, 8.096883e-002
1.818544e+003, 8.197583e-002
1.820473e+003, 8.294275e-002
1.822401e+003, 8.335745e-002
1.824329e+003, 8.333166e-002
1.826258e+003, 8.385879e-002
1.828186e+003, 8.464593e-002
1.830115e+003, 8.567471e-002
1.832043e+003, 8.692283e-002
1.833972e+003, 8.807779e-002
1.835900e+003, 8.918018e-002
1.837829e+003, 8.950897e-002
1.839757e+003, 8.961795e-002
1.841686e+003, 8.951631e-002
1.843614e+003, 8.820710e-002
1.845543e+003, 8.699255e-002
1.847471e+003, 8.722582e-002
1.849400e+003, 8.770251e-002
1.851328e+003, 8.779413e-002
1.853256e+003, 8.750531e-002
1.855185e+003, 8.873142e-002
1.857113e+003, 8.949683e-002
1.859042e+003, 8.944421e-002
1.860970e+003, 9.027179e-002
1.862899e+003, 9.048558e-002
1.864827e+003, 9.068037e-002
1.866756e+003, 9.085671e-002
1.868684e+003, 9.065051e-002
1.870613e+003, 9.149979e-002
1.872541e+003, 9.189915e-002
1.874470e+003, 9.116923e-002
1.876398e+003, 9.012505e-002
1.878327e+003, 8.931018e-002
1.880255e+003, 8.972669e-002
1.882183e+003, 9.050815e-002
1.884112e+003, 9.082457e-002
1.886040e+003, 9.057917e-002
1.887969e+003, 9.074648e-002
1.889897e+003, 9.175918e-002
1.891826e+003, 9.228007e-002
1.893754e+003, 9.235018e-002
1.895683e+003, 9.287176e-002
1.897611e+003, 9.331685e-002
1.899540e+003, 9.352554e-002
1.901468e+003, 9.373958e-002
1.903397e+003, 9.413391e-002
1.905325e+003, 9.476462e-002
1.907254e+003, 9.556215e-002
1.909182e+003, 9.523932e-002
1.911110e+003, 9.525090e-002
1.913039e+003, 9.581438e-002
1.914967e+003, 9.603155e-002
1.916896e+003, 9.612400e-002
1.918824e+003, 9.611192e-002
1.920753e+003, 9.649686e-002
1.922681e+003, 9.596221e-002
1.924610e+003, 9.528489e-002
1.926538e+003, 9.507779e-002
1.928467e+003, 9.429467e-002
1.930395e+003, 9.489657e-002
1.932324e+003, 9.538422e-002
1.934252e+003, 9.592777e-002
1.936181e+003, 9.591074e-002
1.938109e+003, 9.429526e-002
1.940037e+003, 9.371974e-002
1.941966e+003, 9.411990e-002
1.943894e+003, 9.517275e-002
1.945823e+003, 9.469625e-002
1.947751e+003, 9.351279e-002
1.949680e+003, 9.373884e-002
1.951608e+003, 9.465326e-002
1.953537e+003, 9.529332e-002
1.955465e+003, 9.414580e-002
1.957394e+003, 9.256585e-002
1.959322e+003, 9.363656e-002
1.961251e+003, 9.514361e-002
1.963179e+003, 9.404281e-002
1.965108e+003, 9.383333e-002
1.967036e+003, 9.516720e-002
1.968964e+003, 9.345832e-002
1.970893e+003, 9.148041e-002
1.972821e+003, 9.154949e-002
1.974750e+003, 9.287009e-002
1.976678e+003, 9.392923e-002
1.978607e+003, 9.597395e-002
1.980535e+003, 9.583491e-002
1.982464e+003, 9.608650e-002
1.984392e+003, 9.709179e-002
1.986321e+003, 9.671780e-002
1.988249e+003, 9.556809e-002
1.990178e+003, 9.563214e-002
1.992106e+003, 9.741133e-002
1.994035e+003, 9.710846e-002
1.995963e+003, 9.641436e-002
1.997891e+003, 9.621716e-002
1.999820e+003, 9.493245e-002
2.001748e+003, 9.511713e-002
2.003677e+003, 9.481434e-002
2.005605e+003, 9.245005e-002
2.007534e+003, 9.248332e-002
2.009462e+003, 9.475363e-002
2.011391e+003, 9.633096e-002
2.013319e+003, 9.551951e-002
2.015248e+003, 9.453303e-002
2.017176e+003, 9.281597e-002
2.019105e+003, 9.314859e-002
2.021033e+003, 9.370827e-002
2.022962e+003, 9.253345e-002
2.024890e+003, 9.244742e-002
2.026818e+003, 9.603343e-002
2.028747e+003, 9.820054e-002
2.030675e+003, 9.736083e-002
2.032604e+003, 9.611985e-002
2.034532e+003, 9.718192e-002
2.036461e+003, 9.782007e-002
2.038389e+003, 9.572430e-002
2.040318e+003, 9.612945e-002
2.042246e+003, 9.816202e-002
2.044175e+003, 9.748757e-002
2.046103e+003, 9.937776e-002
2.048032e+003, 1.012728e-001
2.049960e+003, 1.026349e-001
2.051889e+003, 1.016083e-001
2.053817e+003, 1.006631e-001
2.055746e+003, 1.020212e-001
2.057674e+003, 1.026321e-001
2.059603e+003, 1.034699e-001
2.061531e+003, 1.040663e-001
2.063459e+003, 1.026067e-001
2.065388e+003, 1.016140e-001
2.067316e+003, 1.020016e-001
2.069245e+003, 1.023259e-001
2.071173e+003, 1.034495e-001
2.073102e+003, 1.053513e-001
2.075030e+003, 1.071031e-001
2.076959e+003, 1.076538e-001
2.078887e+003, 1.070409e-001
2.080816e+003, 1.063709e-001
2.082744e+003, 1.079886e-001
2.084673e+003, 1.088141e-001
2.086601e+003, 1.073791e-001
2.088530e+003, 1.059229e-001
2.090458e+003, 1.054051e-001
2.092386e+003, 1.059530e-001
2.094315e+003, 1.065021e-001
2.096243e+003, 1.074438e-001
2.098172e+003, 1.081539e-001
2.100100e+003, 1.077034e-001
2.102029e+003, 1.081267e-001
2.103957e+003, 1.094260e-001
2.105886e+003, 1.094275e-001
2.107814e+003, 1.084441e-001
2.109743e+003, 1.086595e-001
2.111671e+003, 1.088765e-001
2.113600e+003, 1.085608e-001
2.115528e+003, 1.085809e-001
2.117457e+003, 1.085848e-001
2.119385e+003, 1.087181e-001
2.121313e+003, 1.099541e-001
2.123242e+003, 1.111499e-001
2.125170e+003, 1.115133e-001
2.127099e+003, 1.113918e-001
2.129027e+003, 1.100713e-001
2.130956e+003, 1.087093e-001
2.132884e+003, 1.086368e-001
2.134813e+003, 1.092844e-001
2.136741e+003, 1.108550e-001
2.138670e+003, 1.115376e-001
2.140598e+003, 1.125096e-001
2.142527e+003, 1.126716e-001
2.144455e+003, 1.124147e-001
2.146384e+003, 1.108194e-001
2.148312e+003, 1.095828e-001
2.150240e+003, 1.105383e-001
2.152169e+003, 1.103382e-001
2.154097e+003, 1.100496e-001
2.156026e+003, 1.080289e-001
2.157954e+003, 1.119060e-001
2.159883e+003, 1.182108e-001
2.161811e+003, 1.192111e-001
2.163740e+003, 1.222673e-001
2.165668e+003, 1.237338e-001
2.167597e+003, 1.230015e-001
2.169525e+003, 1.197954e-001
2.171454e+003, 1.168436e-001
2.173382e+003, 1.179572e-001
2.175311e+003, 1.218978e-001
2.177239e+003, 1.226338e-001
2.179167e+003, 1.209880e-001
2.181096e+003, 1.209507e-001
2.183024e+003, 1.219492e-001
2.184953e+003, 1.222245e-001
2.186881e+003, 1.240112e-001
2.188810e+003, 1.229567e-001
2.190738e+003, 1.218103e-001
2.192667e+003, 1.242802e-001
2.194595e+003, 1.240384e-001
2.196524e+003, 1.227423e-001
2.198452e+003, 1.219068e-001
2.200381e+003, 1.235648e-001
2.202309e+003, 1.244022e-001
2.204238e+003, 1.238145e-001
2.206166e+003, 1.246088e-001
2.208094e+003, 1.252484e-001
2.210023e+003, 1.256572e-001
2.211951e+003, 1.252607e-001
2.213880e+003, 1.255696e-001
2.215808e+003, 1.256561e-001
2.217737e+003, 1.252770e-001
2.219665e+003, 1.265113e-001
2.221594e+003, 1.274589e-001
2.223522e+003, 1.259906e-001
2.225451e+003, 1.261897e-001
2.227379e+003, 1.263249e-001
2.229308e+003, 1.252934e-001
2.231236e+003, 1.264282e-001
2.233165e+003, 1.285466e-001
2.235093e+003, 1.294590e-001
2.237021e+003, 1.295217e-001
2.238950e+003, 1.301984e-001
2.240878e+003, 1.299334e-001
2.242807e+003, 1.289730e-001
2.244735e+003, 1.290762e-001
2.246664e+003, 1.291689e-001
2.248592e+003, 1.296084e-001
2.250521e+003, 1.295948e-001
2.252449e+003, 1.289350e-001
2.254378e+003, 1.296527e-001
2.256306e+003, 1.303669e-001
2.258235e+003, 1.299138e-001
2.260163e+003, 1.308418e-001
2.262092e+003, 1.312254e-001
2.264020e+003, 1.308767e-001
2.265948e+003, 1.321817e-001
2.267877e+003, 1.326796e-001
2.269805e+003, 1.316830e-001
2.271734e+003, 1.315621e-001
2.273662e+003, 1.325872e-001
2.275591e+003, 1.332433e-001
2.277519e+003, 1.328498e-001
2.279448e+003, 1.332275e-001
2.281376e+003, 1.350808e-001
2.283305e+003, 1.349222e-001
2.285233e+003, 1.341219e-001
2.287162e+003, 1.342609e-001
2.289090e+003, 1.340081e-001
2.291019e+003, 1.335832e-001
2.292947e+003, 1.337347e-001
2.294875e+003, 1.337150e-001
2.296804e+003, 1.337287e-001
2.298732e+003, 1.337542e-001
2.300661e+003, 1.340054e-001
2.302589e+003, 1.349701e-001
2.304518e+003, 1.348585e-001
2.306446e+003, 1.352346e-001
2.308375e+003, 1.358723e-001
2.310303e+003, 1.359189e-001
2.312232e+003, 1.359892e-001
2.314160e+003, 1.361214e-001
2.316089e+003, 1.364877e-001
2.318017e+003, 1.370688e-001
2.319946e+003, 1.378815e-001
2.321874e+003, 1.384649e-001
2.323802e+003, 1.386438e-001
2.325731e+003, 1.378760e-001
2.327659e+003, 1.376996e-001
2.329588e+003, 1.379626e-001
2.331516e+003, 1.372720e-001
2.333445e+003, 1.374823e-001
2.335373e+003, 1.379582e-001
2.337302e+003, 1.378074e-001
2.339230e+003, 1.378084e-001
2.341159e+003, 1.377298e-001
2.343087e+003, 1.380414e-001
2.345016e+003, 1.386689e-001
2.346944e+003, 1.384025e-001
2.348873e+003, 1.378789e-001
2.350801e+003, 1.379045e-001
2.352729e+003, 1.381035e-001
2.354658e+003, 1.389661e-001
2.356586e+003, 1.398097e-001
2.358515e+003, 1.404852e-001
2.360443e+003, 1.415775e-001
2.362372e+003, 1.414655e-001
2.364300e+003, 1.404780e-001
2.366229e+003, 1.399896e-001
2.368157e+003, 1.400870e-001
2.370086e+003, 1.401786e-001
2.372014e+003, 1.400227e-001
2.373942e+003, 1.398881e-001
2.375871e+003, 1.403873e-001
2.377799e+003, 1.408394e-001
2.379728e+003, 1.404358e-001
2.381656e+003, 1.411163e-001
2.383585e+003, 1.421171e-001
2.385513e+003, 1.419575e-001
2.387442e+003, 1.424727e-001
2.389370e+003, 1.427000e-001
2.391299e+003, 1.427405e-001
2.393227e+003, 1.426301e-001
2.395156e+003, 1.425513e-001
2.397084e+003, 1.428332e-001
2.399012e+003, 1.432367e-001
2.400941e+003, 1.435416e-001
2.402869e+003, 1.436599e-001
2.404798e+003, 1.440520e-001
2.406726e+003, 1.445085e-001
2.408655e+003, 1.444290e-001
2.410583e+003, 1.443221e-001
2.412512e+003, 1.440401e-001
2.414440e+003, 1.447127e-001
2.416369e+003, 1.458029e-001
2.418297e+003, 1.459878e-001
2.420226e+003, 1.458038e-001
2.422154e+003, 1.457577e-001
2.424083e+003, 1.459726e-001
2.426011e+003, 1.463714e-001
2.427939e+003, 1.455181e-001
2.429868e+003, 1.456814e-001
2.431796e+003, 1.463867e-001
2.433725e+003, 1.470500e-001
2.435653e+003, 1.472218e-001
2.437582e+003, 1.472965e-001
2.439510e+003, 1.474483e-001
2.441439e+003, 1.485325e-001
2.443367e+003, 1.494414e-001
2.445296e+003, 1.490226e-001
2.447224e+003, 1.483900e-001
2.449153e+003, 1.480103e-001
2.451081e+003, 1.495606e-001
2.453010e+003, 1.501996e-001
2.454938e+003, 1.505503e-001
2.456866e+003, 1.505368e-001
2.458795e+003, 1.499537e-001
2.460723e+003, 1.504335e-001
2.462652e+003, 1.502990e-001
2.464580e+003, 1.494800e-001
2.466509e+003, 1.494459e-001
2.468437e+003, 1.501464e-001
2.470366e+003, 1.498605e-001
2.472294e+003, 1.502166e-001
2.474223e+003, 1.510087e-001
2.476151e+003, 1.519267e-001
2.478080e+003, 1.521004e-001
2.480008e+003, 1.519913e-001
2.481937e+003, 1.522852e-001
2.483865e+003, 1.521487e-001
2.485793e+003, 1.522851e-001
2.487722e+003, 1.527931e-001
2.489650e+003, 1.519470e-001
2.491579e+003, 1.520863e-001
2.493507e+003, 1.525111e-001
2.495436e+003, 1.529566e-001
2.497364e+003, 1.538628e-001
2.499293e+003, 1.549974e-001
2.501221e+003, 1.551116e-001
2.503150e+003, 1.544577e-001
2.505078e+003, 1.536561e-001
2.507007e+003, 1.535344e-001
2.508935e+003, 1.548523e-001
2.510864e+003, 1.548759e-001
2.512792e+003, 1.542216e-001
2.514720e+003, 1.548048e-001
2.516649e+003, 1.554909e-001
2.518577e+003, 1.557147e-001
2.520506e+003, 1.549557e-001
2.522434e+003, 1.561166e-001
2.524363e+003, 1.574792e-001
2.526291e+003, 1.573171e-001
2.528220e+003, 1.569014e-001
2.530148e+003, 1.580719e-001
2.532077e+003, 1.591367e-001
2.534005e+003, 1.583615e-001
2.535934e+003, 1.575623e-001
2.537862e+003, 1.585866e-001
2.539791e+003, 1.593200e-001
2.541719e+003, 1.585683e-001
2.543647e+003, 1.590372e-001
2.545576e+003, 1.588537e-001
2.547504e+003, 1.585606e-001
2.549433e+003, 1.598368e-001
2.551361e+003, 1.602247e-001
2.553290e+003, 1.598561e-001
2.555218e+003, 1.593582e-001
2.557147e+003, 1.603078e-001
2.559075e+003, 1.607082e-001
2.561004e+003, 1.610986e-001
2.562932e+003, 1.614668e-001
2.564861e+003, 1.612447e-001
2.566789e+003, 1.612253e-001
2.568718e+003, 1.619133e-001
2.570646e+003, 1.618122e-001
2.572574e+003, 1.609815e-001
2.574503e+003, 1.602304e-001
2.576431e+003, 1.610042e-001
2.578360e+003, 1.622403e-001
2.580288e+003, 1.620452e-001
2.582217e+003, 1.619612e-001
2.584145e+003, 1.624565e-001
2.586074e+003, 1.630141e-001
2.588002e+003, 1.622692e-001
2.589931e+003, 1.618731e-001
2.591859e+003, 1.635837e-001
2.593788e+003, 1.646558e-001
2.595716e+003, 1.633606e-001
2.597645e+003, 1.630768e-001
2.599573e+003, 1.644043e-001
2.601501e+003, 1.649152e-001
2.603430e+003, 1.637519e-001
2.605358e+003, 1.636792e-001
2.607287e+003, 1.647433e-001
2.609215e+003, 1.653524e-001
2.611144e+003, 1.656424e-001
2.613072e+003, 1.653980e-001
2.615001e+003, 1.662506e-001
2.616929e+003, 1.666239e-001
2.618858e+003, 1.659745e-001
2.620786e+003, 1.657792e-001
2.622715e+003, 1.659256e-001
2.624643e+003, 1.651513e-001
2.626572e+003, 1.654301e-001
2.628500e+003, 1.656426e-001
2.630428e+003, 1.661678e-001
2.632357e+003, 1.661328e-001
2.634285e+003, 1.663157e-001
2.636214e+003, 1.675598e-001
2.638142e+003, 1.675838e-001
2.640071e+003, 1.675654e-001
2.641999e+003, 1.677303e-001
2.643928e+003, 1.681409e-001
2.645856e+003, 1.687154e-001
2.647785e+003, 1.684140e-001
2.649713e+003, 1.680664e-001
2.651642e+003, 1.677007e-001
2.653570e+003, 1.674729e-001
2.655499e+003, 1.677425e-001
2.657427e+003, 1.684108e-001
2.659355e+003, 1.689145e-001
2.661284e+003, 1.689251e-001
2.663212e+003, 1.687486e-001
2.665141e+003, 1.686503e-001
2.667069e+003, 1.687966e-001
2.668998e+003, 1.683481e-001
2.670926e+003, 1.684234e-001
2.672855e+003, 1.695765e-001
2.674783e+003, 1.705919e-001
2.676712e+003, 1.704618e-001
2.678640e+003, 1.704918e-001
2.680569e+003, 1.714389e-001
2.682497e+003, 1.707675e-001
2.684426e+003, 1.696245e-001
2.686354e+003, 1.694841e-001
2.688282e+003, 1.699342e-001
2.690211e+003, 1.706984e-001
2.692139e+003, 1.707250e-001
2.694068e+003, 1.707038e-001
2.695996e+003, 1.711071e-001
2.697925e+003, 1.715890e-001
2.699853e+003, 1.722228e-001
2.701782e+003, 1.725638e-001
2.703710e+003, 1.720639e-001
2.705639e+003, 1.718736e-001
2.707567e+003, 1.722618e-001
2.709496e+003, 1.733449e-001
2.711424e+003, 1.730753e-001
2.713353e+003, 1.726068e-001
2.715281e+003, 1.730932e-001
2.717209e+003, 1.743225e-001
2.719138e+003, 1.745899e-001
2.721066e+003, 1.746659e-001
2.722995e+003, 1.746274e-001
2.724923e+003, 1.742643e-001
2.726852e+003, 1.746987e-001
2.728780e+003, 1.750519e-001
2.730709e+003, 1.752899e-001
2.732637e+003, 1.759572e-001
2.734566e+003, 1.764612e-001
2.736494e+003, 1.762884e-001
2.738423e+003, 1.762334e-001
2.740351e+003, 1.757797e-001
2.742280e+003, 1.755828e-001
2.744208e+003, 1.759934e-001
2.746136e+003, 1.763524e-001
2.748065e+003, 1.762912e-001
2.749993e+003, 1.763688e-001
2.751922e+003, 1.774398e-001
2.753850e+003, 1.782228e-001
2.755779e+003, 1.778070e-001
2.757707e+003, 1.776489e-001
2.759636e+003, 1.784507e-001
2.761564e+003, 1.788011e-001
2.763493e+003, 1.785282e-001
2.765421e+003, 1.786840e-001
2.767350e+003, 1.797713e-001
2.769278e+003, 1.802698e-001
2.771207e+003, 1.802872e-001
2.773135e+003, 1.801412e-001
2.775063e+003, 1.801902e-001
2.776992e+003, 1.803239e-001
2.778920e+003, 1.811187e-001
2.780849e+003, 1.821712e-001
2.782777e+003, 1.821988e-001
2.784706e+003, 1.818009e-001
2.786634e+003, 1.814609e-001
2.788563e+003, 1.810980e-001
2.790491e+003, 1.809046e-001
2.792420e+003, 1.814973e-001
2.794348e+003, 1.823571e-001
2.796277e+003, 1.829672e-001
2.798205e+003, 1.832238e-001
2.800134e+003, 1.837279e-001
2.802062e+003, 1.841157e-001
2.803990e+003, 1.837944e-001
2.805919e+003, 1.835919e-001
2.807847e+003, 1.841659e-001
2.809776e+003, 1.845418e-001
2.811704e+003, 1.846201e-001
2.813633e+003, 1.851237e-001
2.815561e+003, 1.858280e-001
2.817490e+003, 1.853777e-001
2.819418e+003, 1.848834e-001
2.821347e+003, 1.853222e-001
2.823275e+003, 1.860996e-001
2.825204e+003, 1.868541e-001
2.827132e+003, 1.872056e-001
2.829061e+003, 1.870185e-001
2.830989e+003, 1.871682e-001
2.832917e+003, 1.877982e-001
2.834846e+003, 1.878264e-001
2.836774e+003, 1.877807e-001
2.838703e+003, 1.889732e-001
2.840631e+003, 1.896025e-001
2.842560e+003, 1.893122e-001
2.844488e+003, 1.885703e-001
2.846417e+003, 1.880140e-001
2.848345e+003, 1.893017e-001
2.850274e+003, 1.904266e-001
2.852202e+003, 1.896154e-001
2.854131e+003, 1.893331e-001
2.856059e+003, 1.899581e-001
2.857988e+003, 1.903941e-001
2.859916e+003, 1.905719e-001
2.861844e+003, 1.907396e-001
2.863773e+003, 1.895905e-001
2.865701e+003, 1.896621e-001
2.867630e+003, 1.906540e-001
2.869558e+003, 1.912576e-001
2.871487e+003, 1.912276e-001
2.873415e+003, 1.906441e-001
2.875344e+003, 1.912870e-001
2.877272e+003, 1.930878e-001
2.879201e+003, 1.941177e-001
2.881129e+003, 1.934187e-001
2.883058e+003, 1.933550e-001
2.884986e+003, 1.944386e-001
2.886915e+003, 1.945669e-001
2.888843e+003, 1.946463e-001
2.890771e+003, 1.952956e-001
2.892700e+003, 1.960080e-001
2.894628e+003, 1.965508e-001
2.896557e+003, 1.960878e-001
2.898485e+003, 1.957174e-001
2.900414e+003, 1.959502e-001
2.902342e+003, 1.966214e-001
2.904271e+003, 1.971411e-001
2.906199e+003, 1.976643e-001
2.908128e+003, 1.979134e-001
2.910056e+003, 1.981233e-001
2.911985e+003, 1.982748e-001
2.913913e+003, 1.968881e-001
2.915842e+003, 1.967322e-001
2.917770e+003, 1.979995e-001
2.919698e+003, 1.986441e-001
2.921627e+003, 1.988734e-001
2.923555e+003, 1.998389e-001
2.925484e+003, 1.993640e-001
2.927412e+003, 1.981551e-001
2.929341e+003, 1.984479e-001
2.931269e+003, 1.990334e-001
2.933198e+003, 1.987718e-001
2.935126e+003, 1.991745e-001
2.937055e+003, 2.001928e-001
2.938983e+003, 2.001668e-001
2.940912e+003, 1.996043e-001
2.942840e+003, 1.991188e-001
2.944769e+003, 1.989924e-001
2.946697e+003, 2.001677e-001
2.948625e+003, 2.000383e-001
2.950554e+003, 1.991163e-001
2.952482e+003, 1.997343e-001
2.954411e+003, 2.008298e-001
2.956339e+003, 2.008274e-001
2.958268e+003, 2.003393e-001
2.960196e+003, 1.991500e-001
2.962125e+003, 1.998200e-001
2.964053e+003, 2.015403e-001
2.965982e+003, 2.024822e-001
2.967910e+003, 2.020675e-001
2.969839e+003, 2.019399e-001
2.971767e+003, 2.018867e-001
2.973696e+003, 2.013092e-001
2.975624e+003, 1.995246e-001
2.977552e+003, 1.994533e-001
2.979481e+003, 2.014536e-001
2.981409e+003, 2.024001e-001
2.983338e+003, 2.028570e-001
2.985266e+003, 2.029412e-001
2.987195e+003, 2.023762e-001
2.989123e+003, 2.027060e-001
2.991052e+003, 2.026992e-001
2.992980e+003, 2.024133e-001
2.994909e+003, 2.025750e-001
2.996837e+003, 2.025765e-001
2.998766e+003, 2.020600e-001
3.000694e+003, 2.024909e-001
3.002623e+003, 2.032516e-001
3.004551e+003, 2.025275e-001
3.006479e+003, 2.017527e-001
3.008408e+003, 2.036022e-001
3.010336e+003, 2.043851e-001
3.012265e+003, 2.029411e-001
3.014193e+003, 2.030227e-001
3.016122e+003, 2.034008e-001
3.018050e+003, 2.037550e-001
3.019979e+003, 2.050370e-001
3.021907e+003, 2.054481e-001
3.023836e+003, 2.057669e-001
3.025764e+003, 2.053984e-001
3.027693e+003, 2.042517e-001
3.029621e+003, 2.042256e-001
3.031550e+003, 2.048145e-001
3.033478e+003, 2.044181e-001
3.035406e+003, 2.042860e-001
3.037335e+003, 2.053295e-001
3.039263e+003, 2.059466e-001
3.041192e+003, 2.066470e-001
3.043120e+003, 2.072630e-001
3.045049e+003, 2.075991e-001
3.046977e+003, 2.080760e-001
3.048906e+003, 2.088351e-001
3.050834e+003, 2.077903e-001
3.052763e+003, 2.071149e-001
3.054691e+003, 2.071679e-001
3.056620e+003, 2.067338e-001
3.058548e+003, 2.075586e-001
3.060477e+003, 2.086776e-001
3.062405e+003, 2.082320e-001
3.064333e+003, 2.083908e-001
3.066262e+003, 2.095307e-001
3.068190e+003, 2.107547e-001
3.070119e+003, 2.113519e-001
3.072047e+003, 2.119242e-001
3.073976e+003, 2.114260e-001
3.075904e+003, 2.109948e-001
3.077833e+003, 2.113084e-001
3.079761e+003, 2.110368e-001
3.081690e+003, 2.113380e-001
3.083618e+003, 2.132474e-001
3.085547e+003, 2.139543e-001
3.087475e+003, 2.133121e-001
3.089404e+003, 2.122882e-001
3.091332e+003, 2.115780e-001
3.093260e+003, 2.124119e-001
3.095189e+003, 2.130810e-001
3.097117e+003, 2.136349e-001
3.099046e+003, 2.140346e-001
3.100974e+003, 2.136511e-001
3.102903e+003, 2.141743e-001
3.104831e+003, 2.146998e-001
3.106760e+003, 2.142016e-001
3.108688e+003, 2.140733e-001
3.110617e+003, 2.147905e-001
3.112545e+003, 2.138909e-001
3.114474e+003, 2.140554e-001
3.116402e+003, 2.148570e-001
3.118331e+003, 2.160718e-001
3.120259e+003, 2.174534e-001
3.122188e+003, 2.173033e-001
3.124116e+003, 2.179047e-001
3.126044e+003, 2.174788e-001
3.127973e+003, 2.169626e-001
3.129901e+003, 2.168825e-001
3.131830e+003, 2.163052e-001
3.133758e+003, 2.170081e-001
3.135687e+003, 2.184378e-001
3.137615e+003, 2.190426e-001
3.139544e+003, 2.190140e-001
3.141472e+003, 2.194757e-001
3.143401e+003, 2.198997e-001
3.145329e+003, 2.195039e-001
3.147258e+003, 2.198898e-001
3.149186e+003, 2.199188e-001
3.151115e+003, 2.204506e-001
3.153043e+003, 2.212382e-001
3.154971e+003, 2.223088e-001
3.156900e+003, 2.224444e-001
3.158828e+003, 2.204139e-001
3.160757e+003, 2.194650e-001
3.162685e+003, 2.199322e-001
3.164614e+003, 2.217375e-001
3.166542e+003, 2.237875e-001
3.168471e+003, 2.249386e-001
3.170399e+003, 2.267660e-001
3.172328e+003, 2.267120e-001
3.174256e+003, 2.241024e-001
3.176185e+003, 2.211998e-001
3.178113e+003, 2.209138e-001
3.180042e+003, 2.220555e-001
3.181970e+003, 2.235644e-001
3.183898e+003, 2.233257e-001
3.185827e+003, 2.237717e-001
3.187755e+003, 2.249875e-001
3.189684e+003, 2.256996e-001
3.191612e+003, 2.260917e-001
3.193541e+003, 2.262790e-001
3.195469e+003, 2.262145e-001
3.197398e+003, 2.256546e-001
3.199326e+003, 2.245781e-001
3.201255e+003, 2.241441e-001
3.203183e+003, 2.235977e-001
3.205112e+003, 2.249618e-001
3.207040e+003, 2.276161e-001
3.208969e+003, 2.275923e-001
3.210897e+003, 2.273695e-001
3.212825e+003, 2.282298e-001
3.214754e+003, 2.268528e-001
3.216682e+003, 2.257770e-001
3.218611e+003, 2.270167e-001
3.220539e+003, 2.285899e-001
3.222468e+003, 2.288043e-001
3.224396e+003, 2.289239e-001
3.226325e+003, 2.285849e-001
3.228253e+003, 2.292845e-001
3.230182e+003, 2.303035e-001
3.232110e+003, 2.302220e-001
3.234039e+003, 2.292516e-001
3.235967e+003, 2.296645e-001
3.237896e+003, 2.299357e-001
3.239824e+003, 2.303292e-001
3.241752e+003, 2.300345e-001
3.243681e+003, 2.296263e-001
3.245609e+003, 2.311997e-001
3.247538e+003, 2.318334e-001
3.249466e+003, 2.313490e-001
3.251395e+003, 2.312801e-001
3.253323e+003, 2.317046e-001
3.255252e+003, 2.312040e-001
3.257180e+003, 2.316863e-001
3.259109e+003, 2.334898e-001
3.261037e+003, 2.340221e-001
3.262966e+003, 2.342434e-001
3.264894e+003, 2.349328e-001
3.266823e+003, 2.342767e-001
3.268751e+003, 2.341717e-001
3.270679e+003, 2.342876e-001
3.272608e+003, 2.347834e-001
3.274536e+003, 2.359734e-001
3.276465e+003, 2.362384e-001
3.278393e+003, 2.357191e-001
3.280322e+003, 2.354844e-001
3.282250e+003, 2.364891e-001
3.284179e+003, 2.364053e-001
3.286107e+003, 2.358029e-001
3.288036e+003, 2.352350e-001
3.289964e+003, 2.361300e-001
3.291893e+003, 2.356169e-001
3.293821e+003, 2.369581e-001
3.295750e+003, 2.377549e-001
3.297678e+003, 2.366292e-001
3.299606e+003, 2.374070e-001
3.301535e+003, 2.382253e-001
3.303463e+003, 2.365347e-001
3.305392e+003, 2.351949e-001
3.307320e+003, 2.367434e-001
3.309249e+003, 2.377520e-001
3.311177e+003, 2.376458e-001
3.313106e+003, 2.390615e-001
3.315034e+003, 2.394488e-001
3.316963e+003, 2.402453e-001
3.318891e+003, 2.411398e-001
3.320820e+003, 2.410385e-001
3.322748e+003, 2.404352e-001
3.324677e+003, 2.408977e-001
3.326605e+003, 2.418150e-001
3.328533e+003, 2.416742e-001
3.330462e+003, 2.408203e-001
3.332390e+003, 2.394416e-001
3.334319e+003, 2.400732e-001
3.336247e+003, 2.415296e-001
3.338176e+003, 2.415422e-001
3.340104e+003, 2.412912e-001
3.342033e+003, 2.403779e-001
3.343961e+003, 2.420964e-001
3.345890e+003, 2.440991e-001
3.347818e+003, 2.424153e-001
3.349747e+003, 2.415558e-001
3.351675e+003, 2.426177e-001
3.353604e+003, 2.432630e-001
3.355532e+003, 2.434137e-001
3.357460e+003, 2.431985e-001
3.359389e+003, 2.444569e-001
3.361317e+003, 2.449666e-001
3.363246e+003, 2.437862e-001
3.365174e+003, 2.452391e-001
3.367103e+003, 2.470580e-001
3.369031e+003, 2.465775e-001
3.370960e+003, 2.467069e-001
3.372888e+003, 2.457896e-001
3.374817e+003, 2.457887e-001
3.376745e+003, 2.467118e-001
3.378674e+003, 2.458710e-001
3.380602e+003, 2.439801e-001
3.382531e+003, 2.450632e-001
3.384459e+003, 2.490176e-001
3.386387e+003, 2.492436e-001
3.388316e+003, 2.477984e-001
3.390244e+003, 2.486222e-001
3.392173e+003, 2.492636e-001
3.394101e+003, 2.479384e-001
3.396030e+003, 2.466636e-001
3.397958e+003, 2.465274e-001
3.399887e+003, 2.467110e-001
3.401815e+003, 2.481591e-001
3.403744e+003, 2.492711e-001
3.405672e+003, 2.475725e-001
3.407601e+003, 2.465926e-001
3.409529e+003, 2.470526e-001
3.411458e+003, 2.474854e-001
3.413386e+003, 2.474220e-001
3.415314e+003, 2.487000e-001
3.417243e+003, 2.498523e-001
3.419171e+003, 2.496455e-001
3.421100e+003, 2.494454e-001
3.423028e+003, 2.500354e-001
3.424957e+003, 2.502987e-001
3.426885e+003, 2.509813e-001
3.428814e+003, 2.515301e-001
3.430742e+003, 2.482318e-001
3.432671e+003, 2.476980e-001
3.434599e+003, 2.505276e-001
3.436528e+003, 2.515527e-001
3.438456e+003, 2.514324e-001
3.440385e+003, 2.525155e-001
3.442313e+003, 2.533785e-001
3.444241e+003, 2.531123e-001
3.446170e+003, 2.506417e-001
3.448098e+003, 2.500488e-001
3.450027e+003, 2.513331e-001
3.451955e+003, 2.515226e-001
3.453884e+003, 2.515787e-001
3.455812e+003, 2.521842e-001
3.457741e+003, 2.508402e-001
3.459669e+003, 2.509103e-001
3.461598e+003, 2.516523e-001
3.463526e+003, 2.515510e-001
3.465455e+003, 2.529905e-001
3.467383e+003, 2.550288e-001
3.469312e+003, 2.545485e-001
3.471240e+003, 2.560836e-001
3.473168e+003, 2.546659e-001
3.475097e+003, 2.538112e-001
3.477025e+003, 2.545133e-001
3.478954e+003, 2.533368e-001
3.480882e+003, 2.530072e-001
3.482811e+003, 2.545587e-001
3.484739e+003, 2.554749e-001
3.486668e+003, 2.531991e-001
3.488596e+003, 2.526345e-001
3.490525e+003, 2.532913e-001
3.492453e+003, 2.542001e-001
3.494382e+003, 2.573363e-001
3.496310e+003, 2.564484e-001
3.498239e+003, 2.558512e-001
3.500167e+003, 2.563563e-001
3.502095e+003, 2.568381e-001
3.504024e+003, 2.578319e-001
3.505952e+003, 2.577542e-001
3.507881e+003, 2.583597e-001
3.509809e+003, 2.604632e-001
3.511738e+003, 2.601761e-001
3.513666e+003, 2.587051e-001
3.515595e+003, 2.600883e-001
3.517523e+003, 2.588822e-001
3.519452e+003, 2.566530e-001
3.521380e+003, 2.560561e-001
3.523309e+003, 2.546852e-001
3.525237e+003, 2.565216e-001
3.527166e+003, 2.580968e-001
3.529094e+003, 2.577216e-001
3.531022e+003, 2.584564e-001
3.532951e+003, 2.572723e-001
3.534879e+003, 2.580886e-001
3.536808e+003, 2.606513e-001
3.538736e+003, 2.590587e-001
3.540665e+003, 2.600856e-001
3.542593e+003, 2.608615e-001
3.544522e+003, 2.585628e-001
3.546450e+003, 2.603008e-001
3.548379e+003, 2.620082e-001
3.550307e+003, 2.607747e-001
3.552236e+003, 2.592860e-001
3.554164e+003, 2.582576e-001
3.556093e+003, 2.571780e-001
3.558021e+003, 2.600430e-001
3.559949e+003, 2.621025e-001
3.561878e+003, 2.597322e-001
3.563806e+003, 2.583169e-001
3.565735e+003, 2.594882e-001
3.567663e+003, 2.612984e-001
3.569592e+003, 2.630670e-001
3.571520e+003, 2.637964e-001
3.573449e+003, 2.631799e-001
3.575377e+003, 2.639507e-001
3.577306e+003, 2.640516e-001
3.579234e+003, 2.630995e-001
3.581163e+003, 2.624250e-001
3.583091e+003, 2.643495e-001
3.585020e+003, 2.653108e-001
3.586948e+003, 2.650363e-001
3.588876e+003, 2.643354e-001
3.590805e+003, 2.634361e-001
3.592733e+003, 2.618441e-001
3.594662e+003, 2.629854e-001
3.596590e+003, 2.658892e-001
3.598519e+003, 2.663702e-001
3.600447e+003, 2.658238e-001
3.602376e+003, 2.685928e-001
3.604304e+003, 2.688130e-001
3.606233e+003, 2.661032e-001
3.608161e+003, 2.661154e-001
3.610090e+003, 2.656615e-001
3.612018e+003, 2.650696e-001
3.613947e+003, 2.661107e-001
3.615875e+003, 2.675725e-001
3.617803e+003, 2.671137e-001
3.619732e+003, 2.667890e-001
3.621660e+003, 2.682489e-001
3.623589e+003, 2.696447e-001
3.625517e+003, 2.666709e-001
3.627446e+003, 2.637986e-001
3.629374e+003, 2.650094e-001
3.631303e+003, 2.680883e-001
3.633231e+003, 2.677012e-001
3.635160e+003, 2.690358e-001
3.637088e+003, 2.667183e-001
3.639017e+003, 2.659301e-001
3.640945e+003, 2.678784e-001
3.642874e+003, 2.697444e-001
3.644802e+003, 2.711504e-001
3.646730e+003, 2.705995e-001
3.648659e+003, 2.698762e-001
3.650587e+003, 2.671057e-001
3.652516e+003, 2.678994e-001
3.654444e+003, 2.693457e-001
3.656373e+003, 2.683871e-001
3.658301e+003, 2.700674e-001
3.660230e+003, 2.709577e-001
3.662158e+003, 2.669894e-001
3.664087e+003, 2.669854e-001
3.666015e+003, 2.671838e-001
3.667944e+003, 2.670141e-001
3.669872e+003, 2.698408e-001
3.671801e+003, 2.702556e-001
3.673729e+003, 2.705690e-001
3.675657e+003, 2.722731e-001
3.677586e+003, 2.731127e-001
3.679514e+003, 2.727381e-001
3.681443e+003, 2.753725e-001
3.683371e+003, 2.745091e-001
3.685300e+003, 2.739154e-001
3.687228e+003, 2.746559e-001
3.689157e+003, 2.732557e-001
3.691085e+003, 2.738300e-001
3.693014e+003, 2.752795e-001
3.694942e+003, 2.767244e-001
3.696871e+003, 2.779467e-001
3.698799e+003, 2.763803e-001
3.700728e+003, 2.755062e-001
3.702656e+003, 2.755212e-001
3.704584e+003, 2.733941e-001
3.706513e+003, 2.723513e-001
3.708441e+003, 2.731578e-001
3.710370e+003, 2.746791e-001
3.712298e+003, 2.747149e-001
3.714227e+003, 2.766173e-001
3.716155e+003, 2.805994e-001
3.718084e+003, 2.810944e-001
3.720012e+003, 2.800759e-001
3.721941e+003, 2.812836e-001
3.723869e+003, 2.822305e-001
3.725798e+003, 2.797956e-001
3.727726e+003, 2.781599e-001
3.729655e+003, 2.801152e-001
3.731583e+003, 2.784880e-001
3.733511e+003, 2.763779e-001
3.735440e+003, 2.759314e-001
3.737368e+003, 2.796753e-001
3.739297e+003, 2.823006e-001
3.741225e+003, 2.809938e-001
3.743154e+003, 2.831036e-001
3.745082e+003, 2.853904e-001
3.747011e+003, 2.853692e-001
3.748939e+003, 2.811863e-001
3.750868e+003, 2.780403e-001
3.752796e+003, 2.800264e-001
3.754725e+003, 2.819411e-001
3.756653e+003, 2.831910e-001
3.758582e+003, 2.841251e-001
3.760510e+003, 2.832991e-001
3.762438e+003, 2.852026e-001
3.764367e+003, 2.848563e-001
3.766295e+003, 2.831972e-001
3.768224e+003, 2.834331e-001
3.770152e+003, 2.870544e-001
3.772081e+003, 2.886372e-001
3.774009e+003, 2.849516e-001
3.775938e+003, 2.850383e-001
3.777866e+003, 2.869802e-001
3.779795e+003, 2.854480e-001
3.781723e+003, 2.883644e-001
3.783652e+003, 2.915704e-001
3.785580e+003, 2.892672e-001
3.787509e+003, 2.869753e-001
3.789437e+003, 2.857080e-001
3.791365e+003, 2.869110e-001
3.793294e+003, 2.900440e-001
3.795222e+003, 2.892087e-001
3.797151e+003, 2.901803e-001
3.799079e+003, 2.897203e-001
3.801008e+003, 2.899704e-001
3.802936e+003, 2.918780e-001
3.804865e+003, 2.949242e-001
3.806793e+003, 2.954122e-001
3.808722e+003, 2.936315e-001
3.810650e+003, 2.927226e-001
3.812579e+003, 2.907317e-001
3.814507e+003, 2.900693e-001
3.816436e+003, 2.903033e-001
3.818364e+003, 2.911783e-001
3.820292e+003, 2.911693e-001
3.822221e+003, 2.939471e-001
3.824149e+003, 2.970911e-001
3.826078e+003, 2.949505e-001
3.828006e+003, 2.932256e-001
3.829935e+003, 2.937562e-001
3.831863e+003, 2.918460e-001
3.833792e+003, 2.909280e-001
3.835720e+003, 2.926995e-001
3.837649e+003, 2.928838e-001
3.839577e+003, 2.941720e-001
3.841506e+003, 2.970461e-001
3.843434e+003, 2.952035e-001
3.845363e+003, 2.928196e-001
3.847291e+003, 2.955614e-001
3.849219e+003, 2.963217e-001
3.851148e+003, 2.930301e-001
3.853076e+003, 2.902986e-001
3.855005e+003, 2.939513e-001
3.856933e+003, 2.971357e-001
3.858862e+003, 2.967800e-001
3.860790e+003, 2.945166e-001
3.862719e+003, 2.931615e-001
3.864647e+003, 2.935687e-001
3.866576e+003, 2.941287e-001
3.868504e+003, 2.955807e-001
3.870433e+003, 2.934293e-001
3.872361e+003, 2.907089e-001
3.874290e+003, 2.924203e-001
3.876218e+003, 2.968348e-001
3.878146e+003, 2.998073e-001
3.880075e+003, 3.009791e-001
3.882003e+003, 3.004802e-001
3.883932e+003, 3.016382e-001
3.885860e+003, 3.022061e-001
3.887789e+003, 3.053882e-001
3.889717e+003, 3.069862e-001
3.891646e+003, 3.019173e-001
3.893574e+003, 2.973744e-001
3.895503e+003, 2.959082e-001
3.897431e+003, 2.965376e-001
3.899360e+003, 3.004757e-001
3.901288e+003, 3.012202e-001
3.903217e+003, 3.007462e-001
3.905145e+003, 3.019345e-001
3.907073e+003, 3.010983e-001
3.909002e+003, 2.996874e-001
3.910930e+003, 3.006232e-001
3.912859e+003, 3.039339e-001
3.914787e+003, 3.055356e-001
3.916716e+003, 3.042103e-001
3.918644e+003, 3.044104e-001
3.920573e+003, 3.045606e-001
3.922501e+003, 3.045313e-001
3.924430e+003, 3.043530e-001
3.926358e+003, 3.034934e-001
3.928287e+003, 3.046144e-001
3.930215e+003, 3.037647e-001
3.932144e+003, 3.019731e-001
3.934072e+003, 3.018670e-001
3.936000e+003, 3.012399e-001
3.937929e+003, 3.037692e-001
3.939857e+003, 3.028388e-001
3.941786e+003, 2.996081e-001
3.943714e+003, 3.029870e-001
3.945643e+003, 3.061393e-001
3.947571e+003, 3.070837e-001
3.949500e+003, 3.098959e-001
3.951428e+003, 3.090853e-001
3.953357e+003, 3.082198e-001
3.955285e+003, 3.089312e-001
3.957214e+003, 3.103732e-001
3.959142e+003, 3.118024e-001
3.961071e+003, 3.114406e-001
3.962999e+003, 3.092469e-001
3.964927e+003, 3.103872e-001
3.966856e+003, 3.127277e-001
3.968784e+003, 3.154601e-001
3.970713e+003, 3.137665e-001
3.972641e+003, 3.134133e-001
3.974570e+003, 3.152339e-001
3.976498e+003, 3.142610e-001
3.978427e+003, 3.150656e-001
3.980355e+003, 3.142467e-001
3.982284e+003, 3.105364e-001
3.984212e+003, 3.118668e-001
3.986141e+003, 3.143093e-001
3.988069e+003, 3.125559e-001
3.989998e+003, 3.130205e-001
3.991926e+003, 3.137055e-001
3.993854e+003, 3.142877e-001
3.995783e+003, 3.150165e-001
3.997711e+003, 3.168883e-001
3.999640e+003, 3.170412e-001
##END=



