##NAMES=Pyrope
##RRUFFID=R050113
##IDEAL CHEMISTRY=Mg_3_Al_2_(SiO_4_)_3_
##LOCALITY=Warsik, Pakistan
##OWNER=RRUFF
##SOURCE=Farooq and Nazia Sawal
##DESCRIPTION=Reddish-purple fragment
##STATUS=The identification of this mineral has been confirmed by X-ray diffraction and chemical analysis
##URL=rruff.info/R050113
##MEASURED CHEMISTRY=(Mg_1.83_Fe^2+^_1.12_Ca_0.03_Mn_0.02_)_Σ=3_(Al_1.82_Fe^3+^_0.18_)_Σ=2_((Si_0.99_Al_0.01_)_Σ=1_O_4_)_3_
5.014013e+001, 1.413652e-002
5.206860e+001, 1.541268e-002
5.399707e+001, 1.527627e-002
5.592553e+001, 1.541249e-002
5.785400e+001, 2.141809e-002
5.978246e+001, 2.697888e-002
6.171093e+001, 2.389042e-002
6.363940e+001, 2.485790e-002
6.556786e+001, 2.398022e-002
6.749633e+001, 2.396693e-002
6.942480e+001, 2.724379e-002
7.135326e+001, 3.154298e-002
7.328172e+001, 3.165018e-002
7.521019e+001, 3.125980e-002
7.713866e+001, 3.340146e-002
7.906712e+001, 3.672859e-002
8.099559e+001, 3.634597e-002
8.292406e+001, 3.727390e-002
8.485252e+001, 3.930869e-002
8.678099e+001, 3.891905e-002
8.870946e+001, 3.858348e-002
9.063792e+001, 3.968057e-002
9.256638e+001, 4.097168e-002
9.449485e+001, 4.270565e-002
9.642332e+001, 4.451347e-002
9.835178e+001, 4.597133e-002
1.002803e+002, 4.585572e-002
1.022087e+002, 4.764249e-002
1.041372e+002, 4.867063e-002
1.060657e+002, 5.025465e-002
1.079941e+002, 4.966700e-002
1.099226e+002, 4.856435e-002
1.118510e+002, 4.737971e-002
1.137795e+002, 4.591889e-002
1.157080e+002, 4.481569e-002
1.176364e+002, 4.548614e-002
1.195649e+002, 4.793857e-002
1.214934e+002, 5.094548e-002
1.234218e+002, 5.177504e-002
1.253503e+002, 5.357459e-002
1.272788e+002, 5.541481e-002
1.292072e+002, 5.614749e-002
1.311357e+002, 5.506616e-002
1.330642e+002, 5.457972e-002
1.349926e+002, 5.400664e-002
1.369211e+002, 5.230785e-002
1.388496e+002, 4.949400e-002
1.407780e+002, 4.557338e-002
1.427065e+002, 4.110656e-002
1.446350e+002, 3.630045e-002
1.465634e+002, 3.095059e-002
1.484919e+002, 2.794732e-002
1.504204e+002, 2.915897e-002
1.523488e+002, 3.410398e-002
1.542773e+002, 3.959775e-002
1.562058e+002, 4.426435e-002
1.581342e+002, 4.596987e-002
1.600627e+002, 4.315755e-002
1.619912e+002, 3.797378e-002
1.639196e+002, 3.428314e-002
1.658481e+002, 3.428778e-002
1.677766e+002, 3.723314e-002
1.697050e+002, 4.111384e-002
1.716335e+002, 4.477281e-002
1.735620e+002, 4.797643e-002
1.754904e+002, 5.116682e-002
1.774189e+002, 5.395909e-002
1.793474e+002, 5.615480e-002
1.812758e+002, 5.823317e-002
1.832043e+002, 6.060516e-002
1.851328e+002, 6.249823e-002
1.870612e+002, 6.389868e-002
1.889897e+002, 6.535557e-002
1.909182e+002, 6.699189e-002
1.928466e+002, 6.811232e-002
1.947751e+002, 6.914411e-002
1.967036e+002, 6.917462e-002
1.986320e+002, 6.769049e-002
2.005605e+002, 6.426837e-002
2.024890e+002, 5.813533e-002
2.044174e+002, 5.041495e-002
2.063459e+002, 4.394029e-002
2.082744e+002, 3.863597e-002
2.102028e+002, 3.577077e-002
2.121313e+002, 3.555925e-002
2.140598e+002, 3.782368e-002
2.159882e+002, 4.096189e-002
2.179167e+002, 4.454323e-002
2.198452e+002, 4.800583e-002
2.217736e+002, 5.129556e-002
2.237021e+002, 5.437943e-002
2.256305e+002, 5.681443e-002
2.275590e+002, 5.927654e-002
2.294875e+002, 6.172379e-002
2.314159e+002, 6.364738e-002
2.333444e+002, 6.502221e-002
2.352729e+002, 6.563828e-002
2.372013e+002, 6.576714e-002
2.391298e+002, 6.396271e-002
2.410583e+002, 5.983521e-002
2.429867e+002, 5.436444e-002
2.449152e+002, 5.004808e-002
2.468437e+002, 4.852860e-002
2.487721e+002, 4.971487e-002
2.507006e+002, 5.187470e-002
2.526291e+002, 5.422878e-002
2.545575e+002, 5.669961e-002
2.564860e+002, 5.911424e-002
2.584145e+002, 6.153117e-002
2.603429e+002, 6.359297e-002
2.622714e+002, 6.497857e-002
2.641999e+002, 6.643820e-002
2.661283e+002, 6.753250e-002
2.680568e+002, 6.864385e-002
2.699853e+002, 7.005388e-002
2.719137e+002, 7.136247e-002
2.738422e+002, 7.190555e-002
2.757707e+002, 7.283463e-002
2.776991e+002, 7.403649e-002
2.796276e+002, 7.498803e-002
2.815561e+002, 7.592237e-002
2.834845e+002, 7.695173e-002
2.854130e+002, 7.776244e-002
2.873415e+002, 7.861633e-002
2.892699e+002, 7.976082e-002
2.911984e+002, 8.099521e-002
2.931269e+002, 8.220383e-002
2.950553e+002, 8.338437e-002
2.969838e+002, 8.422921e-002
2.989123e+002, 8.496442e-002
3.008407e+002, 8.601779e-002
3.027692e+002, 8.733214e-002
3.046977e+002, 8.831956e-002
3.066261e+002, 8.900651e-002
3.085546e+002, 8.941583e-002
3.104831e+002, 8.991466e-002
3.124115e+002, 8.946638e-002
3.143400e+002, 8.800959e-002
3.162685e+002, 8.529484e-002
3.181969e+002, 8.118519e-002
3.201254e+002, 7.705259e-002
3.220539e+002, 7.508311e-002
3.239823e+002, 7.587396e-002
3.259108e+002, 7.850050e-002
3.278392e+002, 8.124347e-002
3.297677e+002, 8.404738e-002
3.316962e+002, 8.629040e-002
3.336246e+002, 8.810537e-002
3.355531e+002, 8.950233e-002
3.374816e+002, 9.105449e-002
3.394100e+002, 9.197652e-002
3.413385e+002, 9.162227e-002
3.432670e+002, 9.030287e-002
3.451954e+002, 8.814896e-002
3.471239e+002, 8.594406e-002
3.490524e+002, 8.524782e-002
3.509808e+002, 8.671398e-002
3.529093e+002, 8.874577e-002
3.548378e+002, 9.096754e-002
3.567662e+002, 9.341969e-002
3.586947e+002, 9.544893e-002
3.606232e+002, 9.732112e-002
3.625516e+002, 9.901237e-002
3.644801e+002, 1.003064e-001
3.664086e+002, 1.013053e-001
3.683370e+002, 1.015936e-001
3.702655e+002, 1.015820e-001
3.721940e+002, 1.010256e-001
3.741224e+002, 9.994308e-002
3.760509e+002, 9.926261e-002
3.779794e+002, 9.813619e-002
3.799078e+002, 9.545110e-002
3.818363e+002, 9.168444e-002
3.837648e+002, 8.704820e-002
3.856932e+002, 8.187162e-002
3.876217e+002, 7.656681e-002
3.895502e+002, 7.148330e-002
3.914786e+002, 6.740867e-002
3.934071e+002, 6.493577e-002
3.953356e+002, 6.448652e-002
3.972640e+002, 6.601401e-002
3.991925e+002, 6.903328e-002
4.011210e+002, 7.281126e-002
4.030494e+002, 7.661811e-002
4.049779e+002, 8.030780e-002
4.069064e+002, 8.388348e-002
4.088348e+002, 8.691475e-002
4.107633e+002, 8.929915e-002
4.126917e+002, 9.130407e-002
4.146202e+002, 9.358837e-002
4.165487e+002, 9.603278e-002
4.184771e+002, 9.805971e-002
4.204056e+002, 9.995613e-002
4.223341e+002, 1.020851e-001
4.242625e+002, 1.038847e-001
4.261910e+002, 1.055701e-001
4.281195e+002, 1.071016e-001
4.300479e+002, 1.082582e-001
4.319764e+002, 1.092356e-001
4.339049e+002, 1.101721e-001
4.358333e+002, 1.106485e-001
4.377618e+002, 1.105804e-001
4.396903e+002, 1.102855e-001
4.416187e+002, 1.098122e-001
4.435472e+002, 1.094952e-001
4.454757e+002, 1.094017e-001
4.474041e+002, 1.090710e-001
4.493326e+002, 1.082119e-001
4.512611e+002, 1.067406e-001
4.531895e+002, 1.041617e-001
4.551180e+002, 1.011588e-001
4.570465e+002, 1.000948e-001
4.589749e+002, 1.018440e-001
4.609034e+002, 1.045913e-001
4.628319e+002, 1.064176e-001
4.647603e+002, 1.074534e-001
4.666888e+002, 1.075383e-001
4.686173e+002, 1.070727e-001
4.705457e+002, 1.059308e-001
4.724742e+002, 1.042035e-001
4.744027e+002, 1.020643e-001
4.763311e+002, 1.003512e-001
4.782596e+002, 9.869114e-002
4.801881e+002, 9.696234e-002
4.821165e+002, 9.525798e-002
4.840450e+002, 9.346124e-002
4.859735e+002, 9.141828e-002
4.879019e+002, 8.954139e-002
4.898304e+002, 8.764973e-002
4.917589e+002, 8.606306e-002
4.936873e+002, 8.444240e-002
4.956158e+002, 8.263056e-002
4.975443e+002, 8.088905e-002
4.994727e+002, 7.857513e-002
5.014012e+002, 7.579877e-002
5.033297e+002, 7.343110e-002
5.052581e+002, 7.095920e-002
5.071866e+002, 6.802978e-002
5.091151e+002, 6.464752e-002
5.110435e+002, 6.144945e-002
5.129720e+002, 5.847639e-002
5.149005e+002, 5.614107e-002
5.168289e+002, 5.518509e-002
5.187574e+002, 5.586189e-002
5.206859e+002, 5.707391e-002
5.226143e+002, 5.801629e-002
5.245428e+002, 5.777815e-002
5.264713e+002, 5.604070e-002
5.283997e+002, 5.305605e-002
5.303282e+002, 4.945746e-002
5.322567e+002, 4.566620e-002
5.341851e+002, 4.235819e-002
5.361136e+002, 4.055654e-002
5.380421e+002, 4.016664e-002
5.399705e+002, 4.077865e-002
5.418990e+002, 4.253226e-002
5.438275e+002, 4.587857e-002
5.457559e+002, 5.067044e-002
5.476844e+002, 5.667764e-002
5.496129e+002, 6.395712e-002
5.515413e+002, 7.267977e-002
5.534698e+002, 8.052970e-002
5.553983e+002, 8.684781e-002
5.573267e+002, 9.164929e-002
5.592552e+002, 9.457614e-002
5.611837e+002, 9.550187e-002
5.631121e+002, 9.455366e-002
5.650406e+002, 9.191561e-002
5.669691e+002, 8.866500e-002
5.688975e+002, 8.488484e-002
5.708260e+002, 8.110752e-002
5.727545e+002, 7.697491e-002
5.746829e+002, 7.264887e-002
5.766114e+002, 6.857333e-002
5.785399e+002, 6.450465e-002
5.804683e+002, 6.059716e-002
5.823968e+002, 5.657486e-002
5.843253e+002, 5.233623e-002
5.862537e+002, 4.873029e-002
5.881822e+002, 4.546849e-002
5.901107e+002, 4.220947e-002
5.920391e+002, 3.923938e-002
5.939676e+002, 3.666526e-002
5.958961e+002, 3.430545e-002
5.978245e+002, 3.262226e-002
5.997530e+002, 3.149408e-002
6.016815e+002, 3.017261e-002
6.036099e+002, 2.934313e-002
6.055384e+002, 2.923721e-002
6.074669e+002, 2.855686e-002
6.093953e+002, 2.782455e-002
6.113238e+002, 2.782342e-002
6.132523e+002, 2.823677e-002
6.151807e+002, 2.886757e-002
6.171091e+002, 2.974127e-002
6.190376e+002, 3.121174e-002
6.209661e+002, 3.312216e-002
6.228945e+002, 3.543682e-002
6.248230e+002, 3.817570e-002
6.267515e+002, 4.231611e-002
6.286799e+002, 4.772384e-002
6.306084e+002, 5.124559e-002
6.325369e+002, 5.160161e-002
6.344653e+002, 4.950880e-002
6.363938e+002, 4.583639e-002
6.383223e+002, 4.223410e-002
6.402507e+002, 3.938681e-002
6.421792e+002, 3.736089e-002
6.441077e+002, 3.655613e-002
6.460361e+002, 3.615849e-002
6.479646e+002, 3.541848e-002
6.498931e+002, 3.498595e-002
6.518215e+002, 3.493183e-002
6.537500e+002, 3.500251e-002
6.556785e+002, 3.563523e-002
6.576069e+002, 3.586867e-002
6.595354e+002, 3.580079e-002
6.614639e+002, 3.547220e-002
6.633923e+002, 3.532273e-002
6.653208e+002, 3.586155e-002
6.672493e+002, 3.670869e-002
6.691777e+002, 3.696930e-002
6.711062e+002, 3.706155e-002
6.730347e+002, 3.739757e-002
6.749631e+002, 3.795966e-002
6.768916e+002, 3.862822e-002
6.788201e+002, 3.949802e-002
6.807485e+002, 3.991256e-002
6.826770e+002, 3.986793e-002
6.846055e+002, 4.011614e-002
6.865339e+002, 4.083879e-002
6.884624e+002, 4.196864e-002
6.903909e+002, 4.271043e-002
6.923193e+002, 4.325533e-002
6.942478e+002, 4.355139e-002
6.961763e+002, 4.406525e-002
6.981047e+002, 4.380823e-002
7.000332e+002, 4.336783e-002
##END=



