##NAMES=Pyrope
##RRUFFID=R050112
##IDEAL CHEMISTRY=Mg_3_Al_2_(SiO_4_)_3_
##LOCALITY=Cruzeiro mine, San Jose, Minas Gerais, Brazil
##OWNER=RRUFF
##SOURCE=Carlos and Paulo Vasconcelos
##DESCRIPTION=Dark red crystal fragment
##STATUS=The identification of this mineral has been confirmed by X-ray diffraction and chemical analysis
##URL=rruff.info/R050112
##MEASURED CHEMISTRY=(Mg_1.49_Fe^2+^_1.18_Ca_0.29_Mn_0.04_)_Σ=3_(Al_1.99_Fe^3+^_0.01_)_Σ=2_(Si_1.00_O_4_)_3_
5.014013e+001, 1.758380e-002
5.206860e+001, 1.751638e-002
5.399707e+001, 1.758318e-002
5.592553e+001, 1.944285e-002
5.785400e+001, 1.998813e-002
5.978246e+001, 2.556284e-002
6.171093e+001, 2.234501e-002
6.363940e+001, 2.455449e-002
6.556786e+001, 2.457872e-002
6.749633e+001, 2.476305e-002
6.942480e+001, 2.400125e-002
7.135326e+001, 2.678626e-002
7.328172e+001, 2.835326e-002
7.521019e+001, 3.083217e-002
7.713866e+001, 3.265767e-002
7.906712e+001, 3.459317e-002
8.099559e+001, 3.598880e-002
8.292406e+001, 3.836122e-002
8.485252e+001, 3.976110e-002
8.678099e+001, 4.276052e-002
8.870946e+001, 4.299841e-002
9.063792e+001, 4.161939e-002
9.256638e+001, 4.257044e-002
9.449485e+001, 4.516609e-002
9.642332e+001, 4.579710e-002
9.835178e+001, 4.681211e-002
1.002803e+002, 4.779500e-002
1.022087e+002, 4.835327e-002
1.041372e+002, 4.761477e-002
1.060657e+002, 4.875375e-002
1.079941e+002, 4.910474e-002
1.099226e+002, 5.127310e-002
1.118510e+002, 5.167246e-002
1.137795e+002, 5.189528e-002
1.157080e+002, 5.214566e-002
1.176364e+002, 5.298159e-002
1.195649e+002, 5.266460e-002
1.214934e+002, 5.280210e-002
1.234218e+002, 5.256378e-002
1.253503e+002, 5.338382e-002
1.272788e+002, 5.342740e-002
1.292072e+002, 5.365016e-002
1.311357e+002, 5.455358e-002
1.330642e+002, 5.515296e-002
1.349926e+002, 5.584735e-002
1.369211e+002, 5.697259e-002
1.388496e+002, 5.678761e-002
1.407780e+002, 5.564422e-002
1.427065e+002, 5.361518e-002
1.446350e+002, 5.217410e-002
1.465634e+002, 4.950549e-002
1.484919e+002, 4.710385e-002
1.504204e+002, 4.567954e-002
1.523488e+002, 4.651103e-002
1.542773e+002, 4.803988e-002
1.562058e+002, 4.950241e-002
1.581342e+002, 4.951514e-002
1.600627e+002, 4.937381e-002
1.619912e+002, 4.930475e-002
1.639196e+002, 4.909422e-002
1.658481e+002, 4.938037e-002
1.677766e+002, 5.068326e-002
1.697050e+002, 5.225022e-002
1.716335e+002, 5.456617e-002
1.735620e+002, 5.648306e-002
1.754904e+002, 5.756306e-002
1.774189e+002, 5.838359e-002
1.793474e+002, 5.930711e-002
1.812758e+002, 5.979756e-002
1.832043e+002, 6.059393e-002
1.851328e+002, 6.156777e-002
1.870612e+002, 6.208993e-002
1.889897e+002, 6.182645e-002
1.909182e+002, 6.202985e-002
1.928466e+002, 6.203557e-002
1.947751e+002, 6.219484e-002
1.967036e+002, 6.185174e-002
1.986320e+002, 6.162927e-002
2.005605e+002, 6.148813e-002
2.024890e+002, 6.137628e-002
2.044174e+002, 5.970408e-002
2.063459e+002, 5.871152e-002
2.082744e+002, 5.781661e-002
2.102028e+002, 5.676153e-002
2.121313e+002, 5.583601e-002
2.140598e+002, 5.505243e-002
2.159882e+002, 5.370508e-002
2.179167e+002, 5.279890e-002
2.198452e+002, 5.271313e-002
2.217736e+002, 5.280330e-002
2.237021e+002, 5.286662e-002
2.256305e+002, 5.370028e-002
2.275590e+002, 5.460713e-002
2.294875e+002, 5.536087e-002
2.314159e+002, 5.623234e-002
2.333444e+002, 5.711988e-002
2.352729e+002, 5.777624e-002
2.372013e+002, 5.863771e-002
2.391298e+002, 5.861335e-002
2.410583e+002, 5.836220e-002
2.429867e+002, 5.816878e-002
2.449152e+002, 5.764017e-002
2.468437e+002, 5.698716e-002
2.487721e+002, 5.648786e-002
2.507006e+002, 5.543457e-002
2.526291e+002, 5.502632e-002
2.545575e+002, 5.459079e-002
2.564860e+002, 5.431704e-002
2.584145e+002, 5.497617e-002
2.603429e+002, 5.607755e-002
2.622714e+002, 5.719482e-002
2.641999e+002, 5.848772e-002
2.661283e+002, 5.945140e-002
2.680568e+002, 6.065580e-002
2.699853e+002, 6.221038e-002
2.719137e+002, 6.379869e-002
2.738422e+002, 6.501898e-002
2.757707e+002, 6.664524e-002
2.776991e+002, 6.852344e-002
2.796276e+002, 6.978021e-002
2.815561e+002, 7.088768e-002
2.834845e+002, 7.217954e-002
2.854130e+002, 7.327119e-002
2.873415e+002, 7.470917e-002
2.892699e+002, 7.598220e-002
2.911984e+002, 7.713290e-002
2.931269e+002, 7.844196e-002
2.950553e+002, 7.951239e-002
2.969838e+002, 8.021501e-002
2.989123e+002, 8.076735e-002
3.008407e+002, 8.169462e-002
3.027692e+002, 8.315668e-002
3.046977e+002, 8.397714e-002
3.066261e+002, 8.458902e-002
3.085546e+002, 8.519536e-002
3.104831e+002, 8.598464e-002
3.124115e+002, 8.693666e-002
3.143400e+002, 8.821980e-002
3.162685e+002, 8.883721e-002
3.181969e+002, 8.917592e-002
3.201254e+002, 8.965225e-002
3.220539e+002, 9.037445e-002
3.239823e+002, 9.034698e-002
3.259108e+002, 9.006999e-002
3.278392e+002, 9.006930e-002
3.297677e+002, 8.962254e-002
3.316962e+002, 8.855104e-002
3.336246e+002, 8.727104e-002
3.355531e+002, 8.603749e-002
3.374816e+002, 8.525185e-002
3.394100e+002, 8.465488e-002
3.413385e+002, 8.416593e-002
3.432670e+002, 8.389189e-002
3.451954e+002, 8.373803e-002
3.471239e+002, 8.295159e-002
3.490524e+002, 8.223512e-002
3.509808e+002, 8.201411e-002
3.529093e+002, 8.222392e-002
3.548378e+002, 8.316104e-002
3.567662e+002, 8.468644e-002
3.586947e+002, 8.648309e-002
3.606232e+002, 8.850148e-002
3.625516e+002, 9.038923e-002
3.644801e+002, 9.194025e-002
3.664086e+002, 9.364298e-002
3.683370e+002, 9.527876e-002
3.702655e+002, 9.640782e-002
3.721940e+002, 9.703282e-002
3.741224e+002, 9.771767e-002
3.760509e+002, 9.826770e-002
3.779794e+002, 9.778792e-002
3.799078e+002, 9.721241e-002
3.818363e+002, 9.669553e-002
3.837648e+002, 9.561430e-002
3.856932e+002, 9.365132e-002
3.876217e+002, 9.125187e-002
3.895502e+002, 8.852653e-002
3.914786e+002, 8.556288e-002
3.934071e+002, 8.238579e-002
3.953356e+002, 7.928021e-002
3.972640e+002, 7.632092e-002
3.991925e+002, 7.444952e-002
4.011210e+002, 7.348323e-002
4.030494e+002, 7.371600e-002
4.049779e+002, 7.514114e-002
4.069064e+002, 7.717071e-002
4.088348e+002, 7.997648e-002
4.107633e+002, 8.306251e-002
4.126917e+002, 8.528174e-002
4.146202e+002, 8.724105e-002
4.165487e+002, 8.863288e-002
4.184771e+002, 8.977133e-002
4.204056e+002, 9.121913e-002
4.223341e+002, 9.366172e-002
4.242625e+002, 9.628673e-002
4.261910e+002, 9.846426e-002
4.281195e+002, 1.005171e-001
4.300479e+002, 1.023198e-001
4.319764e+002, 1.035548e-001
4.339049e+002, 1.047244e-001
4.358333e+002, 1.056785e-001
4.377618e+002, 1.064432e-001
4.396903e+002, 1.067699e-001
4.416187e+002, 1.066147e-001
4.435472e+002, 1.063195e-001
4.454757e+002, 1.064800e-001
4.474041e+002, 1.065145e-001
4.493326e+002, 1.068702e-001
4.512611e+002, 1.075203e-001
4.531895e+002, 1.077742e-001
4.551180e+002, 1.076763e-001
4.570465e+002, 1.078576e-001
4.589749e+002, 1.078026e-001
4.609034e+002, 1.066134e-001
4.628319e+002, 1.049823e-001
4.647603e+002, 1.033725e-001
4.666888e+002, 1.020687e-001
4.686173e+002, 1.022977e-001
4.705457e+002, 1.034586e-001
4.724742e+002, 1.048674e-001
4.744027e+002, 1.056426e-001
4.763311e+002, 1.059786e-001
4.782596e+002, 1.054883e-001
4.801881e+002, 1.047775e-001
4.821165e+002, 1.037132e-001
4.840450e+002, 1.025539e-001
4.859735e+002, 1.010188e-001
4.879019e+002, 9.913040e-002
4.898304e+002, 9.735801e-002
4.917589e+002, 9.587110e-002
4.936873e+002, 9.446695e-002
4.956158e+002, 9.305096e-002
4.975443e+002, 9.168054e-002
4.994727e+002, 9.027668e-002
5.014012e+002, 8.861858e-002
5.033297e+002, 8.724631e-002
5.052581e+002, 8.546246e-002
5.071866e+002, 8.309770e-002
5.091151e+002, 8.034701e-002
5.110435e+002, 7.776515e-002
5.129720e+002, 7.488962e-002
5.149005e+002, 7.235234e-002
5.168289e+002, 7.030939e-002
5.187574e+002, 6.843825e-002
5.206859e+002, 6.687418e-002
5.226143e+002, 6.668328e-002
5.245428e+002, 6.718943e-002
5.264713e+002, 6.826686e-002
5.283997e+002, 6.929478e-002
5.303282e+002, 6.859946e-002
5.322567e+002, 6.682533e-002
5.341851e+002, 6.460198e-002
5.361136e+002, 6.173686e-002
5.380421e+002, 5.850529e-002
5.399705e+002, 5.522281e-002
5.418990e+002, 5.227583e-002
5.438275e+002, 4.997420e-002
5.457559e+002, 4.780755e-002
5.476844e+002, 4.587029e-002
5.496129e+002, 4.527090e-002
5.515413e+002, 4.628739e-002
5.534698e+002, 4.832979e-002
5.553983e+002, 5.146210e-002
5.573267e+002, 5.633587e-002
5.592552e+002, 6.276058e-002
5.611837e+002, 7.002427e-002
5.631121e+002, 7.722186e-002
5.650406e+002, 8.322418e-002
5.669691e+002, 8.762744e-002
5.688975e+002, 9.030645e-002
5.708260e+002, 9.126106e-002
5.727545e+002, 9.049265e-002
5.746829e+002, 8.820648e-002
5.766114e+002, 8.551936e-002
5.785399e+002, 8.227396e-002
5.804683e+002, 7.853802e-002
5.823968e+002, 7.444065e-002
5.843253e+002, 7.048135e-002
5.862537e+002, 6.678364e-002
5.881822e+002, 6.268486e-002
5.901107e+002, 5.862251e-002
5.920391e+002, 5.505597e-002
5.939676e+002, 5.159929e-002
5.958961e+002, 4.860616e-002
5.978245e+002, 4.591307e-002
5.997530e+002, 4.327575e-002
6.016815e+002, 4.065149e-002
6.036099e+002, 3.880351e-002
6.055384e+002, 3.731556e-002
6.074669e+002, 3.558454e-002
6.093953e+002, 3.373893e-002
6.113238e+002, 3.226845e-002
6.132523e+002, 3.140233e-002
6.151807e+002, 3.078436e-002
6.171091e+002, 3.101310e-002
6.190376e+002, 3.148466e-002
6.209661e+002, 3.144477e-002
6.228945e+002, 3.127799e-002
6.248230e+002, 3.160524e-002
6.267515e+002, 3.290001e-002
6.286799e+002, 3.472189e-002
6.306084e+002, 3.582320e-002
6.325369e+002, 3.659216e-002
6.344653e+002, 3.746819e-002
6.363938e+002, 3.794243e-002
6.383223e+002, 3.809960e-002
6.402507e+002, 3.821789e-002
6.421792e+002, 3.831206e-002
6.441077e+002, 3.868128e-002
6.460361e+002, 3.885429e-002
6.479646e+002, 3.863436e-002
6.498931e+002, 3.852180e-002
6.518215e+002, 3.815225e-002
6.537500e+002, 3.767136e-002
6.556785e+002, 3.759709e-002
6.576069e+002, 3.769891e-002
6.595354e+002, 3.752857e-002
6.614639e+002, 3.700580e-002
6.633923e+002, 3.654720e-002
6.653208e+002, 3.658466e-002
6.672493e+002, 3.710312e-002
6.691777e+002, 3.691185e-002
6.711062e+002, 3.664792e-002
6.730347e+002, 3.668862e-002
6.749631e+002, 3.669713e-002
6.768916e+002, 3.665916e-002
6.788201e+002, 3.693026e-002
6.807485e+002, 3.709025e-002
6.826770e+002, 3.696467e-002
6.846055e+002, 3.731199e-002
6.865339e+002, 3.801634e-002
6.884624e+002, 3.980707e-002
6.903909e+002, 4.067563e-002
6.923193e+002, 4.048478e-002
6.942478e+002, 4.085959e-002
6.961763e+002, 4.227412e-002
6.981047e+002, 4.245409e-002
7.000332e+002, 4.127447e-002
##END=



