##NAMES=Pyrophyllite
##RRUFFID=R050051
##IDEAL CHEMISTRY=Al_2_Si_4_O_10_(OH)_2_
##LOCALITY=Cottonstone Mountain, Mecklenburg County, North Carolina, USA
##OWNER=RRUFF
##SOURCE=University of Arizona Mineral Museum
##DESCRIPTION=Radiating lamellar aggregates
##STATUS=The identification of this mineral has been confirmed by X-ray diffraction and chemical analysis
##URL=rruff.info/R050051
##MEASURED CHEMISTRY=(Al_.991_Fe_.008_Mg_.001_)_2_Si_4_O_10_(OH)_2_
3.991926e+002, 4.595666e-001
4.011211e+002, 4.974118e-001
4.030496e+002, 4.998031e-001
4.049780e+002, 5.159584e-001
4.069065e+002, 5.012213e-001
4.088350e+002, 4.820509e-001
4.107634e+002, 4.865488e-001
4.126919e+002, 4.764211e-001
4.146204e+002, 4.575823e-001
4.165488e+002, 4.796898e-001
4.184773e+002, 4.977311e-001
4.204058e+002, 4.844280e-001
4.223342e+002, 4.829512e-001
4.242627e+002, 4.872807e-001
4.261912e+002, 4.844414e-001
4.281196e+002, 4.784464e-001
4.300481e+002, 4.727432e-001
4.319766e+002, 4.774297e-001
4.339050e+002, 4.803837e-001
4.358335e+002, 4.713142e-001
4.377620e+002, 4.626184e-001
4.396904e+002, 4.592690e-001
4.416189e+002, 4.542052e-001
4.435474e+002, 4.494752e-001
4.454758e+002, 4.382834e-001
4.474043e+002, 4.255278e-001
4.493328e+002, 4.170663e-001
4.512612e+002, 4.094832e-001
4.531897e+002, 4.022330e-001
4.551182e+002, 3.923867e-001
4.570466e+002, 3.781258e-001
4.589751e+002, 3.674915e-001
4.609036e+002, 3.585357e-001
4.628320e+002, 3.482889e-001
4.647605e+002, 3.416676e-001
4.666890e+002, 3.379602e-001
4.686174e+002, 3.353922e-001
4.705459e+002, 3.326076e-001
4.724744e+002, 3.320228e-001
4.744028e+002, 3.335808e-001
4.763313e+002, 3.318227e-001
4.782598e+002, 3.253631e-001
4.801882e+002, 3.130820e-001
4.821167e+002, 2.953037e-001
4.840452e+002, 2.776321e-001
4.859736e+002, 2.631773e-001
4.879021e+002, 2.523012e-001
4.898306e+002, 2.424798e-001
4.917590e+002, 2.340388e-001
4.936875e+002, 2.259550e-001
4.956160e+002, 2.192884e-001
4.975444e+002, 2.145048e-001
4.994729e+002, 2.114848e-001
5.014014e+002, 2.125131e-001
5.033298e+002, 2.205228e-001
5.052583e+002, 2.364830e-001
5.071868e+002, 2.598586e-001
5.091152e+002, 2.869585e-001
5.110437e+002, 3.144774e-001
5.129722e+002, 3.378941e-001
5.149006e+002, 3.545880e-001
5.168291e+002, 3.646494e-001
5.187576e+002, 3.697937e-001
5.206860e+002, 3.771850e-001
5.226145e+002, 3.875928e-001
5.245430e+002, 4.001143e-001
5.264714e+002, 4.159713e-001
5.283999e+002, 4.325839e-001
5.303284e+002, 4.464526e-001
5.322568e+002, 4.556132e-001
5.341853e+002, 4.585461e-001
5.361138e+002, 4.529610e-001
5.380422e+002, 4.427508e-001
5.399707e+002, 4.287271e-001
5.418992e+002, 4.147855e-001
5.438276e+002, 4.054588e-001
5.457561e+002, 3.993903e-001
5.476846e+002, 3.946234e-001
5.496130e+002, 3.906321e-001
5.515415e+002, 3.876010e-001
5.534700e+002, 3.859161e-001
5.553984e+002, 3.862356e-001
5.573269e+002, 3.867460e-001
5.592554e+002, 3.844398e-001
5.611838e+002, 3.818713e-001
5.631123e+002, 3.801447e-001
5.650408e+002, 3.770598e-001
5.669692e+002, 3.727167e-001
5.688977e+002, 3.679998e-001
5.708262e+002, 3.623297e-001
5.727546e+002, 3.557404e-001
5.746831e+002, 3.508597e-001
5.766116e+002, 3.476090e-001
5.785400e+002, 3.444668e-001
5.804685e+002, 3.429453e-001
5.823970e+002, 3.428214e-001
5.843254e+002, 3.441336e-001
5.862539e+002, 3.455704e-001
5.881824e+002, 3.475618e-001
5.901108e+002, 3.486707e-001
5.920393e+002, 3.491012e-001
5.939678e+002, 3.498553e-001
5.958962e+002, 3.503622e-001
5.978247e+002, 3.500234e-001
5.997532e+002, 3.490769e-001
6.016816e+002, 3.483905e-001
6.036101e+002, 3.473494e-001
6.055386e+002, 3.444319e-001
6.074670e+002, 3.417218e-001
6.093955e+002, 3.390818e-001
6.113240e+002, 3.356380e-001
6.132524e+002, 3.317289e-001
6.151809e+002, 3.273094e-001
6.171094e+002, 3.228163e-001
6.190378e+002, 3.183077e-001
6.209663e+002, 3.136064e-001
6.228948e+002, 3.095259e-001
6.248232e+002, 3.072572e-001
6.267517e+002, 3.070562e-001
6.286802e+002, 3.093400e-001
6.306086e+002, 3.151706e-001
6.325371e+002, 3.222828e-001
6.344656e+002, 3.270034e-001
6.363940e+002, 3.293066e-001
6.383225e+002, 3.291990e-001
6.402510e+002, 3.276564e-001
6.421794e+002, 3.252758e-001
6.441079e+002, 3.213077e-001
6.460364e+002, 3.160453e-001
6.479648e+002, 3.115252e-001
6.498933e+002, 3.076756e-001
6.518218e+002, 3.032121e-001
6.537502e+002, 2.978453e-001
6.556787e+002, 2.927512e-001
6.576072e+002, 2.888027e-001
6.595356e+002, 2.849894e-001
6.614641e+002, 2.807505e-001
6.633926e+002, 2.761736e-001
6.653210e+002, 2.719087e-001
6.672495e+002, 2.683374e-001
6.691780e+002, 2.646278e-001
6.711064e+002, 2.608333e-001
6.730349e+002, 2.569846e-001
6.749634e+002, 2.536486e-001
6.768918e+002, 2.507682e-001
6.788203e+002, 2.473578e-001
6.807488e+002, 2.438701e-001
6.826772e+002, 2.411317e-001
6.846057e+002, 2.383888e-001
6.865342e+002, 2.355319e-001
6.884626e+002, 2.326284e-001
6.903911e+002, 2.296659e-001
6.923196e+002, 2.270358e-001
6.942480e+002, 2.248012e-001
6.961765e+002, 2.224460e-001
6.981050e+002, 2.198986e-001
7.000334e+002, 2.174726e-001
7.019619e+002, 2.150128e-001
7.038904e+002, 2.127715e-001
7.058188e+002, 2.105720e-001
7.077473e+002, 2.079190e-001
7.096758e+002, 2.057482e-001
7.116042e+002, 2.036309e-001
7.135327e+002, 2.012226e-001
7.154612e+002, 1.988235e-001
7.173896e+002, 1.969415e-001
7.193181e+002, 1.949126e-001
7.212466e+002, 1.928543e-001
7.231750e+002, 1.909208e-001
7.251035e+002, 1.890179e-001
7.270320e+002, 1.870500e-001
7.289604e+002, 1.850465e-001
7.308889e+002, 1.834377e-001
7.328174e+002, 1.818746e-001
7.347458e+002, 1.801872e-001
7.366743e+002, 1.782842e-001
7.386028e+002, 1.763346e-001
7.405313e+002, 1.743550e-001
7.424597e+002, 1.724850e-001
7.443882e+002, 1.709546e-001
7.463167e+002, 1.693353e-001
7.482451e+002, 1.674473e-001
7.501736e+002, 1.661382e-001
7.521021e+002, 1.652030e-001
7.540305e+002, 1.637659e-001
7.559590e+002, 1.623311e-001
7.578875e+002, 1.610339e-001
7.598159e+002, 1.598391e-001
7.617444e+002, 1.587469e-001
7.636729e+002, 1.576263e-001
7.656013e+002, 1.565272e-001
7.675298e+002, 1.551198e-001
7.694583e+002, 1.538258e-001
7.713867e+002, 1.526608e-001
7.733152e+002, 1.515338e-001
7.752437e+002, 1.504257e-001
7.771721e+002, 1.491149e-001
7.791006e+002, 1.479725e-001
7.810291e+002, 1.470923e-001
7.829575e+002, 1.462417e-001
7.848860e+002, 1.453725e-001
7.868145e+002, 1.446015e-001
7.887429e+002, 1.435636e-001
7.906714e+002, 1.425570e-001
7.925999e+002, 1.417713e-001
7.945283e+002, 1.411155e-001
7.964568e+002, 1.406900e-001
7.983853e+002, 1.402541e-001
8.003137e+002, 1.396884e-001
8.022422e+002, 1.392662e-001
8.041707e+002, 1.392902e-001
8.060991e+002, 1.397785e-001
8.080276e+002, 1.405105e-001
8.099561e+002, 1.412656e-001
8.118845e+002, 1.407880e-001
8.138130e+002, 1.387196e-001
8.157415e+002, 1.354587e-001
8.176699e+002, 1.322816e-001
8.195984e+002, 1.299446e-001
8.215269e+002, 1.285638e-001
8.234553e+002, 1.280524e-001
8.253838e+002, 1.285953e-001
8.273123e+002, 1.299813e-001
8.292407e+002, 1.321465e-001
8.311692e+002, 1.350101e-001
8.330977e+002, 1.368683e-001
8.350261e+002, 1.352086e-001
8.369546e+002, 1.298421e-001
8.388831e+002, 1.227988e-001
8.408115e+002, 1.167190e-001
8.427400e+002, 1.120928e-001
8.446685e+002, 1.093528e-001
8.465969e+002, 1.083979e-001
8.485254e+002, 1.087141e-001
8.504539e+002, 1.092486e-001
8.523823e+002, 1.085226e-001
8.543108e+002, 1.056704e-001
8.562393e+002, 1.014737e-001
8.581677e+002, 9.702982e-002
8.600962e+002, 9.314504e-002
8.620247e+002, 8.986215e-002
8.639531e+002, 8.722259e-002
8.658816e+002, 8.483978e-002
8.678101e+002, 8.250681e-002
8.697385e+002, 8.051921e-002
8.716670e+002, 7.884970e-002
8.735955e+002, 7.726727e-002
8.755239e+002, 7.575624e-002
8.774524e+002, 7.452837e-002
8.793809e+002, 7.345829e-002
8.813093e+002, 7.208724e-002
8.832378e+002, 7.114407e-002
8.851663e+002, 7.062533e-002
8.870947e+002, 7.021588e-002
8.890232e+002, 6.981188e-002
8.909517e+002, 6.999659e-002
8.928801e+002, 7.050980e-002
8.948085e+002, 7.092343e-002
8.967370e+002, 7.150534e-002
8.986655e+002, 7.269570e-002
9.005939e+002, 7.416858e-002
9.025224e+002, 7.542012e-002
9.044509e+002, 7.656758e-002
9.063793e+002, 7.761948e-002
9.083078e+002, 7.867493e-002
9.102363e+002, 7.990228e-002
9.121647e+002, 8.157139e-002
9.140932e+002, 8.377425e-002
9.160217e+002, 8.648016e-002
9.179501e+002, 8.960467e-002
9.198786e+002, 9.269115e-002
9.218071e+002, 9.602489e-002
9.237355e+002, 1.001122e-001
9.256640e+002, 1.049230e-001
9.275925e+002, 1.100363e-001
9.295209e+002, 1.160376e-001
9.314494e+002, 1.227745e-001
9.333779e+002, 1.303418e-001
9.353063e+002, 1.389470e-001
9.372348e+002, 1.489178e-001
9.391633e+002, 1.608028e-001
9.410917e+002, 1.739783e-001
9.430202e+002, 1.872005e-001
9.449487e+002, 1.988809e-001
9.468771e+002, 2.056016e-001
9.488056e+002, 2.034056e-001
9.507341e+002, 1.902363e-001
9.526625e+002, 1.692230e-001
9.545910e+002, 1.480412e-001
9.565195e+002, 1.314500e-001
9.584479e+002, 1.200668e-001
9.603764e+002, 1.135376e-001
9.623049e+002, 1.105111e-001
9.642333e+002, 1.096670e-001
9.661618e+002, 1.102288e-001
9.680903e+002, 1.117807e-001
9.700187e+002, 1.142101e-001
9.719472e+002, 1.172398e-001
9.738757e+002, 1.201041e-001
9.758041e+002, 1.233221e-001
9.777326e+002, 1.270945e-001
9.796611e+002, 1.309885e-001
9.815895e+002, 1.347729e-001
9.835180e+002, 1.388462e-001
9.854465e+002, 1.431418e-001
9.873749e+002, 1.477166e-001
9.893034e+002, 1.524065e-001
9.912319e+002, 1.574431e-001
9.931603e+002, 1.625920e-001
9.950888e+002, 1.682137e-001
9.970173e+002, 1.739989e-001
9.989457e+002, 1.795812e-001
1.000874e+003, 1.850506e-001
1.002803e+003, 1.911551e-001
1.004731e+003, 1.974543e-001
1.006660e+003, 2.038240e-001
1.008588e+003, 2.104254e-001
1.010517e+003, 2.168466e-001
1.012445e+003, 2.234850e-001
1.014373e+003, 2.304178e-001
1.016302e+003, 2.372672e-001
1.018230e+003, 2.445155e-001
1.020159e+003, 2.520666e-001
1.022087e+003, 2.595172e-001
1.024016e+003, 2.667782e-001
1.025944e+003, 2.738330e-001
1.027873e+003, 2.809470e-001
1.029801e+003, 2.876217e-001
1.031730e+003, 2.935815e-001
1.033658e+003, 2.997206e-001
1.035587e+003, 3.062300e-001
1.037515e+003, 3.120783e-001
1.039444e+003, 3.173448e-001
1.041372e+003, 3.217284e-001
1.043301e+003, 3.245439e-001
1.045229e+003, 3.248527e-001
1.047157e+003, 3.204189e-001
1.049086e+003, 3.105502e-001
1.051014e+003, 2.961950e-001
1.052943e+003, 2.800178e-001
1.054871e+003, 2.655740e-001
1.056800e+003, 2.548222e-001
1.058728e+003, 2.484729e-001
1.060657e+003, 2.473210e-001
1.062585e+003, 2.514181e-001
1.064514e+003, 2.576267e-001
1.066442e+003, 2.594277e-001
1.068371e+003, 2.527023e-001
1.070299e+003, 2.389098e-001
1.072228e+003, 2.223919e-001
1.074156e+003, 2.058417e-001
1.076084e+003, 1.907250e-001
1.078013e+003, 1.771448e-001
1.079941e+003, 1.649112e-001
1.081870e+003, 1.537212e-001
1.083798e+003, 1.436342e-001
1.085727e+003, 1.346092e-001
1.087655e+003, 1.265403e-001
1.089584e+003, 1.194689e-001
1.091512e+003, 1.128824e-001
1.093441e+003, 1.064183e-001
1.095369e+003, 1.002479e-001
1.097298e+003, 9.460062e-002
1.099226e+003, 8.921394e-002
1.101155e+003, 8.398917e-002
1.103083e+003, 7.921831e-002
1.105011e+003, 7.488007e-002
1.106940e+003, 7.113691e-002
1.108868e+003, 6.907806e-002
1.110797e+003, 7.005335e-002
1.112725e+003, 7.670515e-002
1.114654e+003, 9.291656e-002
1.116582e+003, 1.183499e-001
1.118511e+003, 1.404257e-001
1.120439e+003, 1.445604e-001
1.122368e+003, 1.335098e-001
1.124296e+003, 1.193932e-001
1.126225e+003, 1.077335e-001
1.128153e+003, 9.864855e-002
1.130082e+003, 9.121566e-002
1.132010e+003, 8.484752e-002
1.133938e+003, 7.917584e-002
1.135867e+003, 7.399121e-002
1.137795e+003, 6.963170e-002
1.139724e+003, 6.555261e-002
1.141652e+003, 6.197779e-002
1.143581e+003, 5.895037e-002
1.145509e+003, 5.615491e-002
1.147438e+003, 5.342264e-002
1.149366e+003, 5.100727e-002
1.151295e+003, 4.855955e-002
1.153223e+003, 4.630200e-002
1.155152e+003, 4.453062e-002
1.157080e+003, 4.268764e-002
1.159009e+003, 4.072184e-002
1.160937e+003, 3.927426e-002
1.162865e+003, 3.803831e-002
1.164794e+003, 3.675995e-002
1.166722e+003, 3.547283e-002
1.168651e+003, 3.401367e-002
1.170579e+003, 3.272370e-002
1.172508e+003, 3.164737e-002
1.174436e+003, 3.046422e-002
1.176365e+003, 2.933802e-002
1.178293e+003, 2.844177e-002
1.180222e+003, 2.752267e-002
1.182150e+003, 2.655783e-002
1.184079e+003, 2.547637e-002
1.186007e+003, 2.464448e-002
1.187936e+003, 2.388375e-002
1.189864e+003, 2.302198e-002
1.191792e+003, 2.233320e-002
1.193721e+003, 2.172224e-002
1.195649e+003, 2.120274e-002
1.197578e+003, 2.068926e-002
1.199506e+003, 2.011519e-002
1.201435e+003, 1.943372e-002
1.203363e+003, 1.870649e-002
1.205292e+003, 1.813714e-002
1.207220e+003, 1.761219e-002
1.209149e+003, 1.719357e-002
1.211077e+003, 1.681099e-002
1.213006e+003, 1.605077e-002
1.214934e+003, 1.549467e-002
1.216863e+003, 1.510684e-002
1.218791e+003, 1.452419e-002
1.220719e+003, 1.403133e-002
1.222648e+003, 1.378773e-002
1.224576e+003, 1.336115e-002
1.226505e+003, 1.275490e-002
1.228433e+003, 1.233649e-002
1.230362e+003, 1.202735e-002
1.232290e+003, 1.154859e-002
1.234219e+003, 1.123883e-002
1.236147e+003, 1.073168e-002
1.238076e+003, 1.017572e-002
1.240004e+003, 9.904571e-003
1.241933e+003, 9.670682e-003
1.243861e+003, 9.356450e-003
1.245790e+003, 9.239111e-003
1.247718e+003, 8.947095e-003
1.249646e+003, 8.639070e-003
1.251575e+003, 8.524967e-003
1.253503e+003, 8.321813e-003
1.255432e+003, 8.103525e-003
1.257360e+003, 7.976358e-003
1.259289e+003, 7.723307e-003
1.261217e+003, 7.483512e-003
1.263146e+003, 7.382196e-003
1.265074e+003, 7.271462e-003
1.267003e+003, 7.098457e-003
1.268931e+003, 7.142360e-003
1.270860e+003, 7.274899e-003
1.272788e+003, 7.234690e-003
1.274717e+003, 7.272771e-003
1.276645e+003, 7.397189e-003
1.278573e+003, 7.174970e-003
1.280502e+003, 7.076940e-003
1.282430e+003, 7.188790e-003
1.284359e+003, 7.200870e-003
1.286287e+003, 7.144635e-003
1.288216e+003, 6.886408e-003
1.290144e+003, 6.807278e-003
1.292073e+003, 6.975139e-003
1.294001e+003, 7.144573e-003
1.295930e+003, 7.070019e-003
1.297858e+003, 6.734746e-003
1.299787e+003, 6.673646e-003
1.301715e+003, 6.645458e-003
1.303644e+003, 6.609811e-003
1.305572e+003, 6.619715e-003
1.307500e+003, 6.489922e-003
1.309429e+003, 6.403307e-003
1.311357e+003, 6.316915e-003
1.313286e+003, 6.299069e-003
1.315214e+003, 6.495795e-003
1.317143e+003, 6.415850e-003
1.319071e+003, 6.218837e-003
1.321000e+003, 6.121550e-003
1.322928e+003, 6.185652e-003
1.324857e+003, 6.094291e-003
1.326785e+003, 5.920824e-003
1.328714e+003, 5.721285e-003
1.330642e+003, 5.620893e-003
1.332571e+003, 5.642635e-003
1.334499e+003, 5.740085e-003
1.336427e+003, 5.784342e-003
1.338356e+003, 5.714865e-003
1.340284e+003, 5.492634e-003
1.342213e+003, 5.415139e-003
1.344141e+003, 5.437585e-003
1.346070e+003, 5.393841e-003
1.347998e+003, 5.403873e-003
1.349927e+003, 5.517587e-003
1.351855e+003, 5.519763e-003
1.353784e+003, 5.634915e-003
1.355712e+003, 5.782346e-003
1.357641e+003, 5.784681e-003
1.359569e+003, 5.527787e-003
1.361498e+003, 5.323689e-003
1.363426e+003, 5.256802e-003
1.365354e+003, 5.453514e-003
1.367283e+003, 5.653354e-003
1.369211e+003, 5.842980e-003
1.371140e+003, 6.184808e-003
1.373068e+003, 7.108280e-003
1.374997e+003, 8.036811e-003
1.376925e+003, 8.255919e-003
1.378854e+003, 7.574922e-003
1.380782e+003, 6.648907e-003
1.382711e+003, 5.877031e-003
1.384639e+003, 5.235046e-003
1.386568e+003, 4.942419e-003
1.388496e+003, 5.140149e-003
1.390424e+003, 5.337638e-003
1.392353e+003, 5.397854e-003
1.394281e+003, 5.286881e-003
1.396210e+003, 5.300888e-003
1.398138e+003, 5.332813e-003
1.400067e+003, 5.327067e-003
1.401995e+003, 5.369702e-003
1.403924e+003, 5.667919e-003
1.405852e+003, 5.978958e-003
1.407781e+003, 5.965435e-003
1.409709e+003, 5.771207e-003
1.411638e+003, 5.883981e-003
1.413566e+003, 5.885965e-003
1.415495e+003, 5.628603e-003
1.417423e+003, 5.485560e-003
1.419351e+003, 5.590464e-003
1.421280e+003, 5.628692e-003
1.423208e+003, 5.537582e-003
1.425137e+003, 5.683094e-003
1.427065e+003, 5.770947e-003
1.428994e+003, 5.646937e-003
1.430922e+003, 5.831920e-003
1.432851e+003, 6.080223e-003
1.434779e+003, 5.789079e-003
1.436708e+003, 5.698129e-003
1.438636e+003, 6.191359e-003
1.440565e+003, 6.207392e-003
1.442493e+003, 6.132326e-003
1.444422e+003, 6.223219e-003
1.446350e+003, 6.396322e-003
1.448278e+003, 6.594658e-003
1.450207e+003, 7.080381e-003
1.452135e+003, 7.326925e-003
1.454064e+003, 6.960253e-003
1.455992e+003, 6.360170e-003
1.457921e+003, 6.510487e-003
1.459849e+003, 7.061344e-003
1.461778e+003, 7.087402e-003
1.463706e+003, 6.705396e-003
1.465635e+003, 6.377899e-003
1.467563e+003, 6.084467e-003
1.469492e+003, 5.652612e-003
1.471420e+003, 5.201769e-003
1.473349e+003, 4.831599e-003
1.475277e+003, 4.607398e-003
1.477205e+003, 4.465829e-003
1.479134e+003, 4.453899e-003
1.481062e+003, 4.470841e-003
1.482991e+003, 4.373729e-003
1.484919e+003, 4.144924e-003
1.486848e+003, 3.958492e-003
1.488776e+003, 3.761938e-003
1.490705e+003, 3.729511e-003
1.492633e+003, 3.976712e-003
1.494562e+003, 3.860109e-003
1.496490e+003, 3.679185e-003
1.498419e+003, 3.710219e-003
1.500347e+003, 3.887595e-003
1.502276e+003, 4.054506e-003
1.504204e+003, 3.489918e-003
1.506132e+003, 2.869296e-003
1.508061e+003, 3.277638e-003
1.509989e+003, 3.911389e-003
1.511918e+003, 4.156644e-003
1.513846e+003, 4.159295e-003
1.515775e+003, 3.918372e-003
1.517703e+003, 3.931121e-003
1.519632e+003, 4.035113e-003
1.521560e+003, 3.833709e-003
1.523489e+003, 4.143424e-003
1.525417e+003, 4.439961e-003
1.527346e+003, 4.707130e-003
1.529274e+003, 4.816345e-003
1.531203e+003, 4.694859e-003
1.533131e+003, 4.601094e-003
1.535059e+003, 5.011690e-003
1.536988e+003, 4.880299e-003
1.538916e+003, 4.111564e-003
1.540845e+003, 4.045099e-003
1.542773e+003, 4.652232e-003
1.544702e+003, 5.147330e-003
1.546630e+003, 5.519721e-003
1.548559e+003, 5.718047e-003
1.550487e+003, 5.748650e-003
1.552416e+003, 5.757158e-003
1.554344e+003, 5.848046e-003
1.556273e+003, 5.824995e-003
1.558201e+003, 5.188616e-003
1.560130e+003, 5.339831e-003
1.562058e+003, 6.380969e-003
1.563986e+003, 6.768878e-003
1.565915e+003, 6.985476e-003
1.567843e+003, 7.093490e-003
1.569772e+003, 6.914869e-003
1.571700e+003, 6.871189e-003
1.573629e+003, 6.722478e-003
1.575557e+003, 6.439740e-003
1.577486e+003, 6.879794e-003
1.579414e+003, 7.367245e-003
1.581343e+003, 7.328041e-003
1.583271e+003, 7.260162e-003
1.585200e+003, 7.177971e-003
1.587128e+003, 7.362992e-003
1.589057e+003, 7.609530e-003
1.590985e+003, 7.486471e-003
1.592913e+003, 7.419037e-003
1.594842e+003, 7.280199e-003
1.596770e+003, 7.182748e-003
1.598699e+003, 7.389151e-003
1.600627e+003, 7.401223e-003
1.602556e+003, 7.218475e-003
1.604484e+003, 7.387744e-003
1.606413e+003, 7.801943e-003
1.608341e+003, 7.837008e-003
1.610270e+003, 7.767945e-003
1.612198e+003, 7.759709e-003
1.614127e+003, 7.581442e-003
1.616055e+003, 7.325681e-003
1.617984e+003, 7.497415e-003
1.619912e+003, 7.771429e-003
1.621840e+003, 7.628911e-003
1.623769e+003, 7.729521e-003
1.625697e+003, 7.944181e-003
1.627626e+003, 7.897163e-003
1.629554e+003, 7.665206e-003
1.631483e+003, 7.715210e-003
1.633411e+003, 7.292463e-003
1.635340e+003, 6.812274e-003
1.637268e+003, 7.053596e-003
1.639197e+003, 7.218712e-003
1.641125e+003, 7.525449e-003
1.643054e+003, 7.481117e-003
1.644982e+003, 6.864424e-003
1.646911e+003, 6.782465e-003
1.648839e+003, 7.056332e-003
1.650767e+003, 6.700003e-003
1.652696e+003, 5.704602e-003
1.654624e+003, 6.192213e-003
1.656553e+003, 6.985145e-003
1.658481e+003, 6.843394e-003
1.660410e+003, 6.418108e-003
1.662338e+003, 6.395332e-003
1.664267e+003, 6.422995e-003
1.666195e+003, 6.293363e-003
1.668124e+003, 5.943214e-003
1.670052e+003, 5.679385e-003
1.671981e+003, 5.692507e-003
1.673909e+003, 5.550558e-003
1.675838e+003, 5.436616e-003
1.677766e+003, 5.578111e-003
1.679694e+003, 5.229099e-003
1.681623e+003, 4.847493e-003
1.683551e+003, 4.322964e-003
1.685480e+003, 4.519684e-003
1.687408e+003, 5.130081e-003
1.689337e+003, 5.278603e-003
1.691265e+003, 5.353121e-003
1.693194e+003, 5.414506e-003
1.695122e+003, 4.643560e-003
1.697051e+003, 4.154428e-003
1.698979e+003, 3.935148e-003
1.700908e+003, 3.512459e-003
1.702836e+003, 3.882404e-003
1.704765e+003, 3.833579e-003
1.706693e+003, 3.830324e-003
1.708621e+003, 4.127127e-003
1.710550e+003, 4.082678e-003
1.712478e+003, 3.765028e-003
1.714407e+003, 3.427167e-003
1.716335e+003, 2.872456e-003
1.718264e+003, 2.984705e-003
1.720192e+003, 3.718192e-003
1.722121e+003, 4.014679e-003
1.724049e+003, 4.036872e-003
1.725978e+003, 3.849607e-003
1.727906e+003, 3.117050e-003
1.729835e+003, 2.553792e-003
1.731763e+003, 2.092007e-003
1.733692e+003, 1.268406e-003
1.735620e+003, 1.208734e-003
1.737548e+003, 1.305132e-003
1.739477e+003, 7.524055e-004
1.741405e+003, 4.277668e-004
1.743334e+003, 6.910450e-004
1.745262e+003, 7.802275e-004
1.747191e+003, 5.849145e-004
1.749119e+003, 6.189633e-004
1.751048e+003, 9.936604e-004
1.752976e+003, 1.552939e-003
1.754905e+003, 2.261818e-003
1.756833e+003, 2.606284e-003
1.758762e+003, 2.864205e-003
1.760690e+003, 2.932017e-003
1.762619e+003, 3.023281e-003
1.764547e+003, 3.231984e-003
1.766475e+003, 3.169413e-003
1.768404e+003, 3.319095e-003
1.770332e+003, 3.337908e-003
1.772261e+003, 2.824062e-003
1.774189e+003, 3.137440e-003
1.776118e+003, 3.672129e-003
1.778046e+003, 3.690761e-003
1.779975e+003, 3.437838e-003
1.781903e+003, 3.713477e-003
1.783832e+003, 3.869426e-003
1.785760e+003, 3.693735e-003
1.787689e+003, 3.608119e-003
1.789617e+003, 3.941328e-003
1.791546e+003, 3.654286e-003
1.793474e+003, 3.146901e-003
1.795402e+003, 3.302607e-003
1.797331e+003, 3.606317e-003
1.799259e+003, 3.655696e-003
1.801188e+003, 3.667255e-003
1.803116e+003, 3.860795e-003
1.805045e+003, 3.806495e-003
1.806973e+003, 3.771906e-003
1.808902e+003, 3.904486e-003
1.810830e+003, 3.922380e-003
1.812759e+003, 3.424451e-003
1.814687e+003, 2.949877e-003
1.816616e+003, 3.028162e-003
1.818544e+003, 3.775164e-003
1.820473e+003, 4.177176e-003
1.822401e+003, 4.028287e-003
1.824329e+003, 3.661555e-003
1.826258e+003, 3.437927e-003
1.828186e+003, 3.295858e-003
1.830115e+003, 3.539697e-003
1.832043e+003, 3.826003e-003
1.833972e+003, 3.924566e-003
1.835900e+003, 4.039499e-003
1.837829e+003, 3.890620e-003
1.839757e+003, 3.921658e-003
1.841686e+003, 4.314303e-003
1.843614e+003, 3.728422e-003
1.845543e+003, 3.320388e-003
1.847471e+003, 4.105744e-003
1.849400e+003, 4.542011e-003
1.851328e+003, 3.951282e-003
1.853256e+003, 3.629456e-003
1.855185e+003, 3.975197e-003
1.857113e+003, 3.785154e-003
1.859042e+003, 3.565258e-003
1.860970e+003, 4.116719e-003
1.862899e+003, 4.182033e-003
1.864827e+003, 4.225789e-003
1.866756e+003, 4.342839e-003
1.868684e+003, 4.165101e-003
1.870613e+003, 4.560747e-003
1.872541e+003, 5.126984e-003
1.874470e+003, 4.674137e-003
1.876398e+003, 4.032425e-003
1.878327e+003, 4.108969e-003
1.880255e+003, 4.157734e-003
1.882183e+003, 4.177796e-003
1.884112e+003, 3.942696e-003
1.886040e+003, 3.610300e-003
1.887969e+003, 3.664644e-003
1.889897e+003, 4.132704e-003
1.891826e+003, 4.167376e-003
1.893754e+003, 3.964513e-003
1.895683e+003, 3.942269e-003
1.897611e+003, 3.448249e-003
1.899540e+003, 2.571313e-003
1.901468e+003, 1.914656e-003
1.903397e+003, 1.801656e-003
1.905325e+003, 2.584705e-003
1.907254e+003, 3.525125e-003
1.909182e+003, 3.394065e-003
1.911110e+003, 2.992306e-003
1.913039e+003, 3.749597e-003
1.914967e+003, 4.211836e-003
1.916896e+003, 3.999608e-003
1.918824e+003, 3.349764e-003
1.920753e+003, 3.920071e-003
1.922681e+003, 3.888952e-003
1.924610e+003, 2.908042e-003
1.926538e+003, 2.299706e-003
1.928467e+003, 1.536303e-003
1.930395e+003, 1.656178e-003
1.932324e+003, 1.891379e-003
1.934252e+003, 2.133347e-003
1.936181e+003, 2.474272e-003
1.938109e+003, 1.809390e-003
1.940037e+003, 1.757593e-003
1.941966e+003, 2.003799e-003
1.943894e+003, 1.580326e-003
1.945823e+003, 1.248418e-003
1.947751e+003, 1.389395e-003
1.949680e+003, 1.635805e-003
1.951608e+003, 1.841329e-003
1.953537e+003, 2.110094e-003
1.955465e+003, 6.456234e-004
1.957394e+003, -7.066712e-004
1.959322e+003, -2.106014e-005
1.961251e+003, 1.209998e-003
1.963179e+003, 2.240572e-003
1.965108e+003, 8.731702e-004
1.967036e+003, -1.163913e-003
1.968964e+003, -1.988312e-003
1.970893e+003, -2.087218e-003
1.972821e+003, -1.733992e-003
1.974750e+003, -8.600403e-004
1.976678e+003, 1.487445e-003
1.978607e+003, 1.742933e-003
1.980535e+003, -7.754823e-005
1.982464e+003, 3.485483e-004
1.984392e+003, 6.092300e-004
1.986321e+003, 3.844093e-004
1.988249e+003, -6.660359e-005
1.990178e+003, -8.192958e-004
1.992106e+003, 4.224735e-004
1.994035e+003, 8.621670e-004
1.995963e+003, 9.865791e-005
1.997891e+003, -8.915853e-004
1.999820e+003, -2.188073e-003
2.001748e+003, -2.621958e-003
2.003677e+003, -2.999423e-003
2.005605e+003, -4.526761e-003
2.007534e+003, -3.324805e-003
2.009462e+003, -1.703547e-003
2.011391e+003, -1.285551e-003
2.013319e+003, -3.692796e-003
2.015248e+003, -5.499600e-003
2.017176e+003, -6.261142e-003
2.019105e+003, -6.907414e-003
2.021033e+003, -5.751507e-003
2.022962e+003, -4.415046e-003
2.024890e+003, -3.886773e-003
2.026818e+003, -4.066437e-003
2.028747e+003, -3.006146e-003
2.030675e+003, -1.621850e-003
2.032604e+003, -1.598856e-003
2.034532e+003, -9.796441e-004
2.036461e+003, -2.977494e-003
2.038389e+003, -5.061842e-003
2.040318e+003, -4.241132e-003
2.042246e+003, -3.509826e-003
2.044175e+003, -2.185789e-003
2.046103e+003, -1.408356e-003
2.048032e+003, -1.003276e-003
2.049960e+003, -1.184119e-003
2.051889e+003, -3.142244e-003
2.053817e+003, -2.639124e-003
2.055746e+003, -9.178775e-004
2.057674e+003, -1.269751e-003
2.059603e+003, -2.838782e-004
2.061531e+003, -3.785737e-004
2.063459e+003, -2.000184e-003
2.065388e+003, -2.888190e-003
2.067316e+003, -1.994806e-003
2.069245e+003, -1.838787e-003
2.071173e+003, -1.431071e-003
2.073102e+003, -3.815352e-004
2.075030e+003, 6.545315e-004
2.076959e+003, 2.655255e-004
2.078887e+003, 1.004809e-004
2.080816e+003, 1.035219e-003
2.082744e+003, 1.954231e-003
2.084673e+003, 1.557606e-003
2.086601e+003, -3.692490e-004
2.088530e+003, -1.291278e-003
2.090458e+003, -1.433742e-003
2.092386e+003, -1.547567e-003
2.094315e+003, -1.332120e-003
2.096243e+003, -6.642420e-004
2.098172e+003, -5.635911e-005
2.100100e+003, -8.401606e-005
2.102029e+003, 2.157041e-004
2.103957e+003, 1.775819e-004
2.105886e+003, -6.065419e-004
2.107814e+003, -2.537108e-004
2.109743e+003, 1.083577e-003
2.111671e+003, 8.593990e-004
2.113600e+003, -6.117605e-004
2.115528e+003, -3.805774e-004
2.117457e+003, 4.027907e-004
2.119385e+003, -4.390719e-004
2.121313e+003, -4.585929e-004
2.123242e+003, -2.808807e-004
2.125170e+003, -1.021613e-003
2.127099e+003, -9.439155e-004
2.129027e+003, -1.140584e-003
2.130956e+003, -2.851894e-003
2.132884e+003, -4.156205e-003
2.134813e+003, -3.866219e-003
2.136741e+003, -2.446637e-003
2.138670e+003, -1.554811e-003
2.140598e+003, -1.666318e-003
2.142527e+003, -2.576025e-003
2.144455e+003, -3.474177e-003
2.146384e+003, -4.194287e-003
2.148312e+003, -4.618760e-003
2.150240e+003, -5.453869e-003
2.152169e+003, -7.216876e-003
2.154097e+003, -6.697312e-003
2.156026e+003, -8.400444e-003
2.157954e+003, -9.064768e-003
2.159883e+003, -4.159484e-003
2.161811e+003, -8.857041e-004
2.163740e+003, 2.478249e-003
2.165668e+003, 2.723856e-003
2.167597e+003, 8.434057e-004
2.169525e+003, 6.452308e-005
2.171454e+003, -1.236849e-003
2.173382e+003, -1.594219e-003
2.175311e+003, 4.835395e-005
2.177239e+003, 2.783113e-004
2.179167e+003, -1.056275e-003
2.181096e+003, 3.170362e-004
2.183024e+003, 1.317038e-003
2.184953e+003, 1.120051e-003
2.186881e+003, 2.870879e-003
2.188810e+003, 2.637990e-003
2.190738e+003, 1.373734e-003
2.192667e+003, 2.045868e-003
2.194595e+003, 2.357038e-003
2.196524e+003, 1.475897e-003
2.198452e+003, 1.628093e-003
2.200381e+003, 2.922883e-003
2.202309e+003, 3.172972e-003
2.204238e+003, 3.584804e-003
2.206166e+003, 3.525026e-003
2.208094e+003, 4.804846e-003
2.210023e+003, 4.708702e-003
2.211951e+003, 2.757207e-003
2.213880e+003, 4.479537e-003
2.215808e+003, 4.938477e-003
2.217737e+003, 4.389056e-003
2.219665e+003, 5.933245e-003
2.221594e+003, 6.429588e-003
2.223522e+003, 4.834065e-003
2.225451e+003, 4.839523e-003
2.227379e+003, 5.195458e-003
2.229308e+003, 3.721501e-003
2.231236e+003, 2.256579e-003
2.233165e+003, 3.693783e-003
2.235093e+003, 4.258469e-003
2.237021e+003, 2.347684e-003
2.238950e+003, 1.227200e-003
2.240878e+003, 1.438560e-003
2.242807e+003, 2.018721e-003
2.244735e+003, 2.810319e-003
2.246664e+003, 2.517253e-003
2.248592e+003, 1.983704e-003
2.250521e+003, 2.084180e-003
2.252449e+003, 2.269290e-003
2.254378e+003, 3.209193e-003
2.256306e+003, 3.901483e-003
2.258235e+003, 3.645477e-003
2.260163e+003, 3.855300e-003
2.262092e+003, 3.282629e-003
2.264020e+003, 2.647536e-003
2.265948e+003, 3.459573e-003
2.267877e+003, 4.014002e-003
2.269805e+003, 3.894800e-003
2.271734e+003, 4.741014e-003
2.273662e+003, 6.020863e-003
2.275591e+003, 6.560040e-003
2.277519e+003, 5.393197e-003
2.279448e+003, 5.591620e-003
2.281376e+003, 6.453108e-003
2.283305e+003, 6.407352e-003
2.285233e+003, 6.802389e-003
2.287162e+003, 6.837805e-003
2.289090e+003, 6.449747e-003
2.291019e+003, 6.371415e-003
2.292947e+003, 6.197643e-003
2.294875e+003, 5.685418e-003
2.296804e+003, 5.208971e-003
2.298732e+003, 4.670207e-003
2.300661e+003, 5.380783e-003
2.302589e+003, 6.565712e-003
2.304518e+003, 6.332995e-003
2.306446e+003, 6.052062e-003
2.308375e+003, 6.730516e-003
2.310303e+003, 7.159533e-003
2.312232e+003, 6.919563e-003
2.314160e+003, 6.989012e-003
2.316089e+003, 6.969960e-003
2.318017e+003, 7.193989e-003
2.319946e+003, 8.081968e-003
2.321874e+003, 8.944293e-003
2.323802e+003, 9.057913e-003
2.325731e+003, 8.135315e-003
2.327659e+003, 7.564542e-003
2.329588e+003, 7.871893e-003
2.331516e+003, 7.257590e-003
2.333445e+003, 6.648136e-003
2.335373e+003, 6.724366e-003
2.337302e+003, 6.851370e-003
2.339230e+003, 7.181103e-003
2.341159e+003, 7.003015e-003
2.343087e+003, 6.853067e-003
2.345016e+003, 6.685278e-003
2.346944e+003, 6.690064e-003
2.348873e+003, 6.275831e-003
2.350801e+003, 6.062268e-003
2.352729e+003, 6.042735e-003
2.354658e+003, 6.902086e-003
2.356586e+003, 7.657005e-003
2.358515e+003, 7.698397e-003
2.360443e+003, 7.493548e-003
2.362372e+003, 7.205531e-003
2.364300e+003, 7.079799e-003
2.366229e+003, 6.776166e-003
2.368157e+003, 6.389951e-003
2.370086e+003, 6.221633e-003
2.372014e+003, 6.177343e-003
2.373942e+003, 6.294890e-003
2.375871e+003, 6.980515e-003
2.377799e+003, 7.227637e-003
2.379728e+003, 6.415173e-003
2.381656e+003, 6.542184e-003
2.383585e+003, 6.894472e-003
2.385513e+003, 6.587342e-003
2.387442e+003, 6.298484e-003
2.389370e+003, 5.688256e-003
2.391299e+003, 6.084120e-003
2.393227e+003, 6.675067e-003
2.395156e+003, 6.328465e-003
2.397084e+003, 6.117362e-003
2.399012e+003, 6.606025e-003
2.400941e+003, 7.233000e-003
2.402869e+003, 6.848717e-003
2.404798e+003, 6.622480e-003
2.406726e+003, 6.830561e-003
2.408655e+003, 6.813033e-003
2.410583e+003, 6.861956e-003
2.412512e+003, 6.756937e-003
2.414440e+003, 6.505155e-003
2.416369e+003, 6.291684e-003
2.418297e+003, 5.955616e-003
2.420226e+003, 5.298056e-003
2.422154e+003, 5.528849e-003
2.424083e+003, 5.597071e-003
2.426011e+003, 5.891283e-003
2.427939e+003, 5.612158e-003
2.429868e+003, 6.020807e-003
2.431796e+003, 6.566423e-003
2.433725e+003, 6.876693e-003
2.435653e+003, 7.292583e-003
2.437582e+003, 7.435957e-003
2.439510e+003, 7.205723e-003
2.441439e+003, 7.665558e-003
2.443367e+003, 7.704477e-003
2.445296e+003, 7.396840e-003
2.447224e+003, 6.564655e-003
2.449153e+003, 5.988114e-003
2.451081e+003, 7.100843e-003
2.453010e+003, 7.229054e-003
2.454938e+003, 6.811329e-003
2.456866e+003, 6.706248e-003
2.458795e+003, 6.775647e-003
2.460723e+003, 7.143613e-003
2.462652e+003, 7.143835e-003
2.464580e+003, 6.767147e-003
2.466509e+003, 6.687553e-003
2.468437e+003, 6.872850e-003
2.470366e+003, 5.799581e-003
2.472294e+003, 6.322332e-003
2.474223e+003, 7.128822e-003
2.476151e+003, 6.510335e-003
2.478080e+003, 6.114428e-003
2.480008e+003, 6.878771e-003
2.481937e+003, 7.426373e-003
2.483865e+003, 7.102769e-003
2.485793e+003, 7.539240e-003
2.487722e+003, 8.258211e-003
2.489650e+003, 6.851104e-003
2.491579e+003, 6.763626e-003
2.493507e+003, 6.787976e-003
2.495436e+003, 6.518985e-003
2.497364e+003, 7.396389e-003
2.499293e+003, 8.052949e-003
2.501221e+003, 7.584202e-003
2.503150e+003, 8.155430e-003
2.505078e+003, 7.695305e-003
2.507007e+003, 7.172191e-003
2.508935e+003, 7.174526e-003
2.510864e+003, 7.385375e-003
2.512792e+003, 7.475859e-003
2.514720e+003, 6.977213e-003
2.516649e+003, 6.456126e-003
2.518577e+003, 6.389171e-003
2.520506e+003, 6.363622e-003
2.522434e+003, 6.714714e-003
2.524363e+003, 7.173088e-003
2.526291e+003, 7.289888e-003
2.528220e+003, 7.517439e-003
2.530148e+003, 7.839389e-003
2.532077e+003, 8.281852e-003
2.534005e+003, 8.007618e-003
2.535934e+003, 6.908504e-003
2.537862e+003, 7.363919e-003
2.539791e+003, 7.268482e-003
2.541719e+003, 6.568013e-003
2.543647e+003, 7.896189e-003
2.545576e+003, 8.264651e-003
2.547504e+003, 7.946980e-003
2.549433e+003, 8.710804e-003
2.551361e+003, 8.628706e-003
2.553290e+003, 7.813113e-003
2.555218e+003, 7.024904e-003
2.557147e+003, 7.326449e-003
2.559075e+003, 7.364786e-003
2.561004e+003, 7.365922e-003
2.562932e+003, 7.367538e-003
2.564861e+003, 7.545264e-003
2.566789e+003, 7.739082e-003
2.568718e+003, 7.641880e-003
2.570646e+003, 7.177932e-003
2.572574e+003, 6.949678e-003
2.574503e+003, 6.749966e-003
2.576431e+003, 7.313527e-003
2.578360e+003, 7.612378e-003
2.580288e+003, 7.162306e-003
2.582217e+003, 7.076463e-003
2.584145e+003, 7.228617e-003
2.586074e+003, 7.191194e-003
2.588002e+003, 7.329832e-003
2.589931e+003, 7.448498e-003
2.591859e+003, 7.395289e-003
2.593788e+003, 7.700770e-003
2.595716e+003, 7.934703e-003
2.597645e+003, 7.553881e-003
2.599573e+003, 7.236911e-003
2.601501e+003, 7.131287e-003
2.603430e+003, 6.606345e-003
2.605358e+003, 6.682375e-003
2.607287e+003, 7.762801e-003
2.609215e+003, 8.334413e-003
2.611144e+003, 7.763702e-003
2.613072e+003, 7.513104e-003
2.615001e+003, 8.160782e-003
2.616929e+003, 8.692098e-003
2.618858e+003, 8.205762e-003
2.620786e+003, 7.439681e-003
2.622715e+003, 7.544952e-003
2.624643e+003, 7.827224e-003
2.626572e+003, 7.970510e-003
2.628500e+003, 7.758096e-003
2.630428e+003, 7.740544e-003
2.632357e+003, 7.634238e-003
2.634285e+003, 7.966678e-003
2.636214e+003, 9.206984e-003
2.638142e+003, 9.029258e-003
2.640071e+003, 8.646530e-003
2.641999e+003, 9.214680e-003
2.643928e+003, 9.316957e-003
2.645856e+003, 8.712421e-003
2.647785e+003, 8.285591e-003
2.649713e+003, 8.397021e-003
2.651642e+003, 8.095184e-003
2.653570e+003, 7.839858e-003
2.655499e+003, 7.813660e-003
2.657427e+003, 8.096717e-003
2.659355e+003, 8.031314e-003
2.661284e+003, 7.907887e-003
2.663212e+003, 8.615545e-003
2.665141e+003, 8.156055e-003
2.667069e+003, 7.542056e-003
2.668998e+003, 7.642139e-003
2.670926e+003, 7.904408e-003
2.672855e+003, 8.107994e-003
2.674783e+003, 8.527924e-003
2.676712e+003, 8.281844e-003
2.678640e+003, 8.641716e-003
2.680569e+003, 9.053063e-003
2.682497e+003, 8.598884e-003
2.684426e+003, 8.179599e-003
2.686354e+003, 7.403738e-003
2.688282e+003, 6.810753e-003
2.690211e+003, 7.111730e-003
2.692139e+003, 7.446147e-003
2.694068e+003, 7.956718e-003
2.695996e+003, 8.607551e-003
2.697925e+003, 9.150194e-003
2.699853e+003, 9.178152e-003
2.701782e+003, 9.076877e-003
2.703710e+003, 8.990757e-003
2.705639e+003, 8.864944e-003
2.707567e+003, 8.779120e-003
2.709496e+003, 8.987893e-003
2.711424e+003, 8.512112e-003
2.713353e+003, 8.103665e-003
2.715281e+003, 8.618937e-003
2.717209e+003, 9.644813e-003
2.719138e+003, 9.163518e-003
2.721066e+003, 8.421525e-003
2.722995e+003, 8.200520e-003
2.724923e+003, 8.225421e-003
2.726852e+003, 8.422933e-003
2.728780e+003, 8.545844e-003
2.730709e+003, 8.681535e-003
2.732637e+003, 9.041642e-003
2.734566e+003, 9.518584e-003
2.736494e+003, 9.218803e-003
2.738423e+003, 9.171980e-003
2.740351e+003, 8.666224e-003
2.742280e+003, 7.921829e-003
2.744208e+003, 8.022199e-003
2.746136e+003, 8.708943e-003
2.748065e+003, 8.700584e-003
2.749993e+003, 8.243253e-003
2.751922e+003, 8.691967e-003
2.753850e+003, 9.027034e-003
2.755779e+003, 8.631989e-003
2.757707e+003, 8.509260e-003
2.759636e+003, 9.347953e-003
2.761564e+003, 9.494473e-003
2.763493e+003, 9.244635e-003
2.765421e+003, 9.439859e-003
2.767350e+003, 9.897694e-003
2.769278e+003, 1.001589e-002
2.771207e+003, 1.017590e-002
2.773135e+003, 1.018649e-002
2.775063e+003, 9.974709e-003
2.776992e+003, 9.826474e-003
2.778920e+003, 9.772382e-003
2.780849e+003, 1.041398e-002
2.782777e+003, 1.094861e-002
2.784706e+003, 1.052182e-002
2.786634e+003, 9.783691e-003
2.788563e+003, 9.223022e-003
2.790491e+003, 9.063803e-003
2.792420e+003, 9.650921e-003
2.794348e+003, 1.067613e-002
2.796277e+003, 1.077266e-002
2.798205e+003, 1.048982e-002
2.800134e+003, 1.056810e-002
2.802062e+003, 1.035967e-002
2.803990e+003, 9.877581e-003
2.805919e+003, 1.013419e-002
2.807847e+003, 1.035011e-002
2.809776e+003, 1.035033e-002
2.811704e+003, 1.127583e-002
2.813633e+003, 1.197770e-002
2.815561e+003, 1.204296e-002
2.817490e+003, 1.147115e-002
2.819418e+003, 1.062714e-002
2.821347e+003, 1.088209e-002
2.823275e+003, 1.235378e-002
2.825204e+003, 1.257355e-002
2.827132e+003, 1.240808e-002
2.829061e+003, 1.189789e-002
2.830989e+003, 1.188520e-002
2.832917e+003, 1.329650e-002
2.834846e+003, 1.373234e-002
2.836774e+003, 1.365301e-002
2.838703e+003, 1.438386e-002
2.840631e+003, 1.411349e-002
2.842560e+003, 1.311347e-002
2.844488e+003, 1.189691e-002
2.846417e+003, 1.054967e-002
2.848345e+003, 1.023488e-002
2.850274e+003, 9.292488e-003
2.852202e+003, 8.563536e-003
2.854131e+003, 8.707241e-003
2.856059e+003, 9.526959e-003
2.857988e+003, 1.044098e-002
2.859916e+003, 1.124394e-002
2.861844e+003, 1.200228e-002
2.863773e+003, 1.230525e-002
2.865701e+003, 1.358248e-002
2.867630e+003, 1.430869e-002
2.869558e+003, 1.373586e-002
2.871487e+003, 1.338465e-002
2.873415e+003, 1.298933e-002
2.875344e+003, 1.431266e-002
2.877272e+003, 1.545937e-002
2.879201e+003, 1.554786e-002
2.881129e+003, 1.477530e-002
2.883058e+003, 1.439975e-002
2.884986e+003, 1.457861e-002
2.886915e+003, 1.479929e-002
2.888843e+003, 1.345169e-002
2.890771e+003, 1.305773e-002
2.892700e+003, 1.404324e-002
2.894628e+003, 1.435373e-002
2.896557e+003, 1.440187e-002
2.898485e+003, 1.460383e-002
2.900414e+003, 1.412047e-002
2.902342e+003, 1.508745e-002
2.904271e+003, 1.575740e-002
2.906199e+003, 1.612789e-002
2.908128e+003, 1.661766e-002
2.910056e+003, 1.705516e-002
2.911985e+003, 1.782220e-002
2.913913e+003, 1.737705e-002
2.915842e+003, 1.726208e-002
2.917770e+003, 1.769127e-002
2.919698e+003, 1.791405e-002
2.921627e+003, 1.735306e-002
2.923555e+003, 1.723444e-002
2.925484e+003, 1.611779e-002
2.927412e+003, 1.488797e-002
2.929341e+003, 1.425930e-002
2.931269e+003, 1.352406e-002
2.933198e+003, 1.301268e-002
2.935126e+003, 1.348813e-002
2.937055e+003, 1.463269e-002
2.938983e+003, 1.474448e-002
2.940912e+003, 1.511677e-002
2.942840e+003, 1.628238e-002
2.944769e+003, 1.738240e-002
2.946697e+003, 1.907328e-002
2.948625e+003, 1.950605e-002
2.950554e+003, 1.950812e-002
2.952482e+003, 1.916265e-002
2.954411e+003, 1.958524e-002
2.956339e+003, 1.976756e-002
2.958268e+003, 1.896687e-002
2.960196e+003, 1.832565e-002
2.962125e+003, 1.883588e-002
2.964053e+003, 1.848122e-002
2.965982e+003, 1.772008e-002
2.967910e+003, 1.746651e-002
2.969839e+003, 1.770835e-002
2.971767e+003, 1.704128e-002
2.973696e+003, 1.522947e-002
2.975624e+003, 1.326453e-002
2.977552e+003, 1.302401e-002
2.979481e+003, 1.464794e-002
2.981409e+003, 1.538786e-002
2.983338e+003, 1.509356e-002
2.985266e+003, 1.480088e-002
2.987195e+003, 1.413261e-002
2.989123e+003, 1.290248e-002
2.991052e+003, 1.271745e-002
2.992980e+003, 1.445890e-002
2.994909e+003, 1.545442e-002
2.996837e+003, 1.485735e-002
2.998766e+003, 1.420708e-002
3.000694e+003, 1.413541e-002
3.002623e+003, 1.426945e-002
3.004551e+003, 1.426600e-002
3.006479e+003, 1.389881e-002
3.008408e+003, 1.410257e-002
3.010336e+003, 1.434106e-002
3.012265e+003, 1.363993e-002
3.014193e+003, 1.410533e-002
3.016122e+003, 1.420344e-002
3.018050e+003, 1.499740e-002
3.019979e+003, 1.600522e-002
3.021907e+003, 1.462221e-002
3.023836e+003, 1.418527e-002
3.025764e+003, 1.481337e-002
3.027693e+003, 1.473477e-002
3.029621e+003, 1.565068e-002
3.031550e+003, 1.545267e-002
3.033478e+003, 1.471951e-002
3.035406e+003, 1.404244e-002
3.037335e+003, 1.558947e-002
3.039263e+003, 1.632973e-002
3.041192e+003, 1.590787e-002
3.043120e+003, 1.612068e-002
3.045049e+003, 1.598374e-002
3.046977e+003, 1.696033e-002
3.048906e+003, 1.772146e-002
3.050834e+003, 1.692084e-002
3.052763e+003, 1.649944e-002
3.054691e+003, 1.646520e-002
3.056620e+003, 1.620482e-002
3.058548e+003, 1.667692e-002
3.060477e+003, 1.788036e-002
3.062405e+003, 1.706375e-002
3.064333e+003, 1.649377e-002
3.066262e+003, 1.754689e-002
3.068190e+003, 1.844563e-002
3.070119e+003, 1.891000e-002
3.072047e+003, 1.889972e-002
3.073976e+003, 1.766080e-002
3.075904e+003, 1.809955e-002
3.077833e+003, 1.922084e-002
3.079761e+003, 1.897358e-002
3.081690e+003, 1.798356e-002
3.083618e+003, 1.914891e-002
3.085547e+003, 2.006591e-002
3.087475e+003, 1.936905e-002
3.089404e+003, 1.870863e-002
3.091332e+003, 1.811907e-002
3.093260e+003, 1.774993e-002
3.095189e+003, 1.766080e-002
3.097117e+003, 1.738983e-002
3.099046e+003, 1.797416e-002
3.100974e+003, 1.870776e-002
3.102903e+003, 2.019184e-002
3.104831e+003, 2.071283e-002
3.106760e+003, 1.952629e-002
3.108688e+003, 1.888558e-002
3.110617e+003, 1.899680e-002
3.112545e+003, 1.874441e-002
3.114474e+003, 1.903045e-002
3.116402e+003, 1.874422e-002
3.118331e+003, 1.885526e-002
3.120259e+003, 2.003842e-002
3.122188e+003, 1.975914e-002
3.124116e+003, 1.961983e-002
3.126044e+003, 1.929812e-002
3.127973e+003, 1.909607e-002
3.129901e+003, 1.973939e-002
3.131830e+003, 1.953629e-002
3.133758e+003, 1.949081e-002
3.135687e+003, 1.960701e-002
3.137615e+003, 2.144090e-002
3.139544e+003, 2.216519e-002
3.141472e+003, 2.124356e-002
3.143401e+003, 2.030598e-002
3.145329e+003, 2.035996e-002
3.147258e+003, 2.036405e-002
3.149186e+003, 2.037880e-002
3.151115e+003, 2.175545e-002
3.153043e+003, 2.257169e-002
3.154971e+003, 2.305046e-002
3.156900e+003, 2.317270e-002
3.158828e+003, 2.184479e-002
3.160757e+003, 2.108645e-002
3.162685e+003, 2.128419e-002
3.164614e+003, 2.239404e-002
3.166542e+003, 2.390401e-002
3.168471e+003, 2.486176e-002
3.170399e+003, 2.468951e-002
3.172328e+003, 2.418025e-002
3.174256e+003, 2.327999e-002
3.176185e+003, 2.201059e-002
3.178113e+003, 2.140653e-002
3.180042e+003, 2.184785e-002
3.181970e+003, 2.148965e-002
3.183898e+003, 2.219661e-002
3.185827e+003, 2.367810e-002
3.187755e+003, 2.418133e-002
3.189684e+003, 2.438786e-002
3.191612e+003, 2.454860e-002
3.193541e+003, 2.511973e-002
3.195469e+003, 2.516328e-002
3.197398e+003, 2.460268e-002
3.199326e+003, 2.337105e-002
3.201255e+003, 2.380215e-002
3.203183e+003, 2.370040e-002
3.205112e+003, 2.311386e-002
3.207040e+003, 2.472702e-002
3.208969e+003, 2.534429e-002
3.210897e+003, 2.448721e-002
3.212825e+003, 2.477162e-002
3.214754e+003, 2.506641e-002
3.216682e+003, 2.433009e-002
3.218611e+003, 2.440618e-002
3.220539e+003, 2.477432e-002
3.222468e+003, 2.539747e-002
3.224396e+003, 2.594177e-002
3.226325e+003, 2.529552e-002
3.228253e+003, 2.578892e-002
3.230182e+003, 2.620536e-002
3.232110e+003, 2.682216e-002
3.234039e+003, 2.555473e-002
3.235967e+003, 2.567681e-002
3.237896e+003, 2.587995e-002
3.239824e+003, 2.563372e-002
3.241752e+003, 2.619338e-002
3.243681e+003, 2.611899e-002
3.245609e+003, 2.581431e-002
3.247538e+003, 2.572416e-002
3.249466e+003, 2.600636e-002
3.251395e+003, 2.708883e-002
3.253323e+003, 2.695631e-002
3.255252e+003, 2.549130e-002
3.257180e+003, 2.433584e-002
3.259109e+003, 2.580446e-002
3.261037e+003, 2.730274e-002
3.262966e+003, 2.788342e-002
3.264894e+003, 2.806753e-002
3.266823e+003, 2.675593e-002
3.268751e+003, 2.698991e-002
3.270679e+003, 2.744941e-002
3.272608e+003, 2.778680e-002
3.274536e+003, 2.893807e-002
3.276465e+003, 3.008271e-002
3.278393e+003, 2.865640e-002
3.280322e+003, 2.826141e-002
3.282250e+003, 2.931863e-002
3.284179e+003, 2.842833e-002
3.286107e+003, 2.850743e-002
3.288036e+003, 2.875612e-002
3.289964e+003, 2.927566e-002
3.291893e+003, 2.973003e-002
3.293821e+003, 2.991214e-002
3.295750e+003, 2.912445e-002
3.297678e+003, 2.909485e-002
3.299606e+003, 3.011521e-002
3.301535e+003, 3.123779e-002
3.303463e+003, 2.942864e-002
3.305392e+003, 2.675024e-002
3.307320e+003, 2.659920e-002
3.309249e+003, 2.832371e-002
3.311177e+003, 2.897839e-002
3.313106e+003, 3.041581e-002
3.315034e+003, 3.039365e-002
3.316963e+003, 3.134280e-002
3.318891e+003, 3.254344e-002
3.320820e+003, 3.217711e-002
3.322748e+003, 3.228742e-002
3.324677e+003, 3.227115e-002
3.326605e+003, 3.016225e-002
3.328533e+003, 3.009189e-002
3.330462e+003, 3.121609e-002
3.332390e+003, 3.074176e-002
3.334319e+003, 3.037937e-002
3.336247e+003, 3.153252e-002
3.338176e+003, 3.132503e-002
3.340104e+003, 2.987648e-002
3.342033e+003, 2.920450e-002
3.343961e+003, 3.167119e-002
3.345890e+003, 3.350616e-002
3.347818e+003, 3.120868e-002
3.349747e+003, 3.046978e-002
3.351675e+003, 3.191585e-002
3.353604e+003, 3.404610e-002
3.355532e+003, 3.374661e-002
3.357460e+003, 3.311898e-002
3.359389e+003, 3.270170e-002
3.361317e+003, 3.224057e-002
3.363246e+003, 3.105776e-002
3.365174e+003, 3.240284e-002
3.367103e+003, 3.434499e-002
3.369031e+003, 3.416394e-002
3.370960e+003, 3.284041e-002
3.372888e+003, 3.112669e-002
3.374817e+003, 3.198855e-002
3.376745e+003, 3.460733e-002
3.378674e+003, 3.337447e-002
3.380602e+003, 3.140041e-002
3.382531e+003, 3.286325e-002
3.384459e+003, 3.642296e-002
3.386387e+003, 3.638767e-002
3.388316e+003, 3.486470e-002
3.390244e+003, 3.427570e-002
3.392173e+003, 3.340140e-002
3.394101e+003, 3.120016e-002
3.396030e+003, 3.174767e-002
3.397958e+003, 3.438105e-002
3.399887e+003, 3.494041e-002
3.401815e+003, 3.435194e-002
3.403744e+003, 3.459529e-002
3.405672e+003, 3.381610e-002
3.407601e+003, 3.433395e-002
3.409529e+003, 3.458744e-002
3.411458e+003, 3.423714e-002
3.413386e+003, 3.384856e-002
3.415314e+003, 3.337524e-002
3.417243e+003, 3.222126e-002
3.419171e+003, 3.150156e-002
3.421100e+003, 3.196509e-002
3.423028e+003, 3.331410e-002
3.424957e+003, 3.338275e-002
3.426885e+003, 3.316842e-002
3.428814e+003, 3.363800e-002
3.430742e+003, 3.216957e-002
3.432671e+003, 3.252038e-002
3.434599e+003, 3.429932e-002
3.436528e+003, 3.352678e-002
3.438456e+003, 3.318885e-002
3.440385e+003, 3.319192e-002
3.442313e+003, 3.406175e-002
3.444241e+003, 3.473501e-002
3.446170e+003, 3.224118e-002
3.448098e+003, 3.120617e-002
3.450027e+003, 3.291066e-002
3.451955e+003, 3.343888e-002
3.453884e+003, 3.371954e-002
3.455812e+003, 3.358261e-002
3.457741e+003, 3.282334e-002
3.459669e+003, 3.290837e-002
3.461598e+003, 3.497112e-002
3.463526e+003, 3.643231e-002
3.465455e+003, 3.612314e-002
3.467383e+003, 3.430906e-002
3.469312e+003, 3.219293e-002
3.471240e+003, 3.257797e-002
3.473168e+003, 3.365772e-002
3.475097e+003, 3.495422e-002
3.477025e+003, 3.511301e-002
3.478954e+003, 3.342445e-002
3.480882e+003, 3.372357e-002
3.482811e+003, 3.416514e-002
3.484739e+003, 3.417476e-002
3.486668e+003, 3.310798e-002
3.488596e+003, 3.304571e-002
3.490525e+003, 3.289890e-002
3.492453e+003, 3.222814e-002
3.494382e+003, 3.282344e-002
3.496310e+003, 3.237534e-002
3.498239e+003, 3.298446e-002
3.500167e+003, 3.431837e-002
3.502095e+003, 3.417403e-002
3.504024e+003, 3.459449e-002
3.505952e+003, 3.433001e-002
3.507881e+003, 3.385831e-002
3.509809e+003, 3.370580e-002
3.511738e+003, 3.283237e-002
3.513666e+003, 3.212408e-002
3.515595e+003, 3.292580e-002
3.517523e+003, 3.276704e-002
3.519452e+003, 3.076997e-002
3.521380e+003, 3.000250e-002
3.523309e+003, 3.057888e-002
3.525237e+003, 3.181751e-002
3.527166e+003, 3.233721e-002
3.529094e+003, 3.198543e-002
3.531022e+003, 3.159555e-002
3.532951e+003, 3.206413e-002
3.534879e+003, 3.302037e-002
3.536808e+003, 3.311129e-002
3.538736e+003, 3.245164e-002
3.540665e+003, 3.074743e-002
3.542593e+003, 2.954451e-002
3.544522e+003, 3.006561e-002
3.546450e+003, 3.203540e-002
3.548379e+003, 3.079350e-002
3.550307e+003, 2.790513e-002
3.552236e+003, 2.825457e-002
3.554164e+003, 2.901862e-002
3.556093e+003, 2.782601e-002
3.558021e+003, 2.941668e-002
3.559949e+003, 2.956256e-002
3.561878e+003, 2.663736e-002
3.563806e+003, 2.606704e-002
3.565735e+003, 2.774030e-002
3.567663e+003, 3.123244e-002
3.569592e+003, 3.171404e-002
3.571520e+003, 2.990546e-002
3.573449e+003, 2.859414e-002
3.575377e+003, 2.950669e-002
3.577306e+003, 2.955268e-002
3.579234e+003, 2.791751e-002
3.581163e+003, 2.631882e-002
3.583091e+003, 2.686178e-002
3.585020e+003, 2.765707e-002
3.586948e+003, 2.776664e-002
3.588876e+003, 2.855480e-002
3.590805e+003, 2.999767e-002
3.592733e+003, 2.976274e-002
3.594662e+003, 2.942977e-002
3.596590e+003, 3.053559e-002
3.598519e+003, 2.969858e-002
3.600447e+003, 2.667084e-002
3.602376e+003, 2.608945e-002
3.604304e+003, 2.648817e-002
3.606233e+003, 2.599707e-002
3.608161e+003, 2.830125e-002
3.610090e+003, 2.906626e-002
3.612018e+003, 2.684194e-002
3.613947e+003, 2.503269e-002
3.615875e+003, 2.528978e-002
3.617803e+003, 2.480809e-002
3.619732e+003, 2.277452e-002
3.621660e+003, 2.526214e-002
3.623589e+003, 2.656362e-002
3.625517e+003, 2.500152e-002
3.627446e+003, 2.328024e-002
3.629374e+003, 2.331687e-002
3.631303e+003, 2.406454e-002
3.633231e+003, 2.327022e-002
3.635160e+003, 2.632374e-002
3.637088e+003, 2.383586e-002
3.639017e+003, 1.978239e-002
3.640945e+003, 2.220821e-002
3.642874e+003, 2.792844e-002
3.644802e+003, 2.956112e-002
3.646730e+003, 2.875292e-002
3.648659e+003, 2.580641e-002
3.650587e+003, 2.233370e-002
3.652516e+003, 2.450800e-002
3.654444e+003, 2.759266e-002
3.656373e+003, 3.049051e-002
3.658301e+003, 3.279036e-002
3.660230e+003, 3.568779e-002
3.662158e+003, 3.960366e-002
3.664087e+003, 4.794924e-002
3.666015e+003, 6.292693e-002
3.667944e+003, 8.517282e-002
3.669872e+003, 1.219150e-001
3.671801e+003, 1.747102e-001
3.673729e+003, 2.063158e-001
3.675657e+003, 1.740135e-001
3.677586e+003, 1.121396e-001
3.679514e+003, 6.805400e-002
3.681443e+003, 4.591762e-002
3.683371e+003, 3.392667e-002
3.685300e+003, 2.826826e-002
3.687228e+003, 2.145111e-002
3.689157e+003, 1.680517e-002
3.691085e+003, 1.878165e-002
3.693014e+003, 1.873068e-002
3.694942e+003, 1.650096e-002
3.696871e+003, 1.733249e-002
3.698799e+003, 1.640021e-002
3.700728e+003, 1.459655e-002
3.702656e+003, 1.268567e-002
3.704584e+003, 1.084770e-002
3.706513e+003, 9.737823e-003
3.708441e+003, 1.110388e-002
3.710370e+003, 1.290077e-002
3.712298e+003, 1.281001e-002
3.714227e+003, 1.406891e-002
3.716155e+003, 1.804707e-002
3.718084e+003, 1.670764e-002
3.720012e+003, 1.407697e-002
3.721941e+003, 1.461939e-002
3.723869e+003, 1.716398e-002
3.725798e+003, 1.658893e-002
3.727726e+003, 1.409768e-002
3.729655e+003, 1.228092e-002
3.731583e+003, 9.809815e-003
3.733511e+003, 9.587268e-003
3.735440e+003, 1.002508e-002
3.737368e+003, 1.133713e-002
3.739297e+003, 1.208223e-002
3.741225e+003, 1.344990e-002
3.743154e+003, 1.441398e-002
3.745082e+003, 1.391895e-002
3.747011e+003, 1.504459e-002
3.748939e+003, 1.249675e-002
3.750868e+003, 9.506959e-003
3.752796e+003, 1.083053e-002
3.754725e+003, 1.595882e-002
3.756653e+003, 1.640026e-002
3.758582e+003, 1.392717e-002
3.760510e+003, 1.281771e-002
3.762438e+003, 1.350418e-002
3.764367e+003, 1.227676e-002
3.766295e+003, 1.243932e-002
3.768224e+003, 1.168719e-002
3.770152e+003, 1.422856e-002
3.772081e+003, 1.591627e-002
3.774009e+003, 1.365024e-002
3.775938e+003, 1.460767e-002
3.777866e+003, 1.543234e-002
3.779795e+003, 1.417385e-002
3.781723e+003, 1.694706e-002
3.783652e+003, 1.797449e-002
3.785580e+003, 1.670112e-002
3.787509e+003, 1.299384e-002
3.789437e+003, 1.009132e-002
3.791365e+003, 1.407593e-002
3.793294e+003, 1.924588e-002
3.795222e+003, 1.824427e-002
3.797151e+003, 1.669378e-002
3.799079e+003, 1.889096e-002
3.801008e+003, 1.903294e-002
3.802936e+003, 1.841917e-002
3.804865e+003, 1.797176e-002
3.806793e+003, 1.696101e-002
3.808722e+003, 1.854839e-002
3.810650e+003, 1.769892e-002
3.812579e+003, 1.531890e-002
3.814507e+003, 1.449532e-002
3.816436e+003, 1.494507e-002
3.818364e+003, 1.534931e-002
3.820292e+003, 1.522549e-002
3.822221e+003, 1.446882e-002
3.824149e+003, 1.558838e-002
3.826078e+003, 1.389486e-002
3.828006e+003, 1.299876e-002
3.829935e+003, 1.441585e-002
3.831863e+003, 1.522216e-002
3.833792e+003, 1.471312e-002
3.835720e+003, 1.458629e-002
3.837649e+003, 1.507291e-002
3.839577e+003, 1.658500e-002
3.841506e+003, 1.939540e-002
3.843434e+003, 1.804195e-002
3.845363e+003, 1.425718e-002
3.847291e+003, 1.220676e-002
3.849219e+003, 1.232223e-002
3.851148e+003, 1.218879e-002
3.853076e+003, 9.233363e-003
3.855005e+003, 1.148088e-002
3.856933e+003, 1.496482e-002
3.858862e+003, 1.491138e-002
3.860790e+003, 1.211167e-002
3.862719e+003, 1.355779e-002
3.864647e+003, 1.432671e-002
3.866576e+003, 1.090719e-002
3.868504e+003, 1.027363e-002
3.870433e+003, 1.154240e-002
3.872361e+003, 1.363735e-002
3.874290e+003, 1.506826e-002
3.876218e+003, 1.497246e-002
3.878146e+003, 1.694293e-002
3.880075e+003, 1.796307e-002
3.882003e+003, 1.744316e-002
3.883932e+003, 1.570400e-002
3.885860e+003, 1.383803e-002
3.887789e+003, 1.962266e-002
3.889717e+003, 2.367723e-002
3.891646e+003, 1.901914e-002
3.893574e+003, 1.429200e-002
3.895503e+003, 1.298049e-002
3.897431e+003, 1.230957e-002
3.899360e+003, 1.427080e-002
3.901288e+003, 1.718616e-002
3.903217e+003, 1.688299e-002
3.905145e+003, 1.624808e-002
3.907073e+003, 1.613576e-002
3.909002e+003, 1.564266e-002
3.910930e+003, 1.577689e-002
3.912859e+003, 1.664982e-002
3.914787e+003, 1.536065e-002
3.916716e+003, 1.549760e-002
3.918644e+003, 1.761925e-002
3.920573e+003, 1.723486e-002
3.922501e+003, 1.744619e-002
3.924430e+003, 1.714445e-002
3.926358e+003, 1.747753e-002
3.928287e+003, 2.079714e-002
3.930215e+003, 2.026258e-002
3.932144e+003, 1.606339e-002
3.934072e+003, 1.354287e-002
3.936000e+003, 1.427648e-002
3.937929e+003, 1.601005e-002
3.939857e+003, 1.584322e-002
3.941786e+003, 1.358714e-002
3.943714e+003, 1.748825e-002
3.945643e+003, 1.949308e-002
3.947571e+003, 1.914677e-002
3.949500e+003, 1.839269e-002
3.951428e+003, 1.746431e-002
3.953357e+003, 1.825090e-002
3.955285e+003, 1.975001e-002
3.957214e+003, 1.950130e-002
3.959142e+003, 1.939270e-002
3.961071e+003, 1.627361e-002
3.962999e+003, 1.360947e-002
3.964927e+003, 1.422358e-002
3.966856e+003, 1.541164e-002
3.968784e+003, 1.951519e-002
3.970713e+003, 2.274125e-002
3.972641e+003, 2.229036e-002
3.974570e+003, 2.220067e-002
3.976498e+003, 1.985148e-002
3.978427e+003, 1.693407e-002
3.980355e+003, 1.483066e-002
3.982284e+003, 1.635725e-002
3.984212e+003, 1.883530e-002
3.986141e+003, 1.784720e-002
3.988069e+003, 1.644779e-002
3.989998e+003, 1.661366e-002
3.991926e+003, 1.677264e-002
3.993854e+003, 1.717651e-002
3.995783e+003, 1.634644e-002
3.997711e+003, 1.895357e-002
3.999640e+003, 1.896271e-002
##END=



