##NAMES=Renierite
##RRUFFID=R050433
##IDEAL CHEMISTRY=(Cu^1+^,Cu^2+^Zn^2+^)_11_(Fe^2+^,Fe^3+^)_4_(Ge^4+^,As^5+^)_2_S^2-^_16_
##LOCALITY=Tsumeb mine, Tsumeb, Otavi District, Oshikoto, Namibia
##OWNER=RRUFF
##SOURCE=University of Arizona Mineral Museum
##DESCRIPTION=Bronze metallic massive
##STATUS=The identification of this mineral has been confirmed by X-ray diffraction and chemical analysis
##URL=rruff.info/R050433
##MEASURED CHEMISTRY=(Cu_10.51_Zn_0.49_)_Σ=11_Fe_4.00_(Ge_1.67_As_0.33_)_Σ=2_S_16_
399.1926, 0.2961697
401.1211, 0.2602885
403.0496, 0.2615399
404.9780, 0.2494212
406.9065, 0.2554698
408.8350, 0.2694806
410.7634, 0.2781628
412.6919, 0.2873825
414.6204, 0.2966255
416.5488, 0.2941785
418.4773, 0.2954192
420.4058, 0.3011162
422.3342, 0.3076564
424.2627, 0.3095222
426.1912, 0.3136222
428.1196, 0.3121488
430.0481, 0.3124649
431.9766, 0.3160840
433.9050, 0.3184887
435.8335, 0.3243557
437.7620, 0.3255484
439.6904, 0.3268107
441.6189, 0.3296026
443.5474, 0.3296219
445.4758, 0.3306793
447.4043, 0.3299766
449.3328, 0.3286363
451.2612, 0.3300802
453.1897, 0.3304323
455.1182, 0.3267373
457.0466, 0.3315743
458.9751, 0.3382354
460.9036, 0.3384924
462.8320, 0.3376357
464.7605, 0.3344663
466.6890, 0.3339154
468.6174, 0.3357741
470.5459, 0.3357435
472.4744, 0.3351851
474.4028, 0.3394490
476.3313, 0.3395655
478.2598, 0.3381853
480.1882, 0.3390849
482.1167, 0.3413999
484.0452, 0.3419433
485.9736, 0.3430958
487.9021, 0.3455987
489.8306, 0.3453711
491.7590, 0.3467155
493.6875, 0.3486563
495.6160, 0.3490153
497.5444, 0.3486114
499.4729, 0.3495592
501.4014, 0.3494246
503.3298, 0.3513766
505.2583, 0.3555856
507.1868, 0.3553258
509.1152, 0.3534573
511.0437, 0.3559754
512.9722, 0.3573298
514.9006, 0.3567363
516.8291, 0.3578961
518.7576, 0.3594187
520.6860, 0.3611187
522.6145, 0.3619441
524.5430, 0.3623339
526.4714, 0.3625041
528.3999, 0.3631116
530.3284, 0.3644534
532.2568, 0.3652615
534.1853, 0.3653557
536.1138, 0.3639243
538.0422, 0.3624409
539.9707, 0.3648174
541.8992, 0.3674096
543.8276, 0.3694299
545.7561, 0.3704067
547.6846, 0.3707167
549.6130, 0.3708696
551.5415, 0.3713562
553.4700, 0.3728056
555.3984, 0.3728990
557.3269, 0.3720364
559.2554, 0.3739042
561.1838, 0.3759866
563.1123, 0.3763031
565.0408, 0.3783701
566.9692, 0.3784099
568.8977, 0.3781487
570.8262, 0.3789709
572.7546, 0.3794482
574.6831, 0.3783940
576.6116, 0.3789421
578.5400, 0.3811167
580.4685, 0.3820888
582.3970, 0.3827568
584.3254, 0.3845108
586.2539, 0.3857195
588.1824, 0.3856210
590.1108, 0.3857087
592.0393, 0.3863436
593.9678, 0.3873261
595.8962, 0.3857291
597.8247, 0.3856950
599.7532, 0.3887053
601.6816, 0.3893030
603.6101, 0.3900293
605.5386, 0.3924099
607.4670, 0.3937835
609.3955, 0.3928628
611.3240, 0.3921734
613.2524, 0.3928119
615.1809, 0.3934885
617.1094, 0.3948786
619.0378, 0.3957120
620.9663, 0.3962153
622.8948, 0.3960972
624.8232, 0.3969349
626.7517, 0.3983095
628.6802, 0.3993031
630.6086, 0.4006919
632.5371, 0.4016998
634.4656, 0.4023513
636.3940, 0.4024649
638.3225, 0.4031196
640.2510, 0.4028549
642.1794, 0.4029180
644.1079, 0.4038752
646.0364, 0.4040391
647.9648, 0.4039008
649.8933, 0.4047075
651.8218, 0.4057521
653.7502, 0.4064538
655.6787, 0.4072367
657.6072, 0.4071972
659.5356, 0.4072430
661.4641, 0.4070706
663.3926, 0.4084361
665.3210, 0.4104561
667.2495, 0.4111437
669.1780, 0.4110089
671.1064, 0.4120192
673.0349, 0.4135315
674.9634, 0.4135748
676.8918, 0.4139118
678.8203, 0.4153180
680.7488, 0.4160536
682.6772, 0.4158570
684.6057, 0.4163437
686.5342, 0.4169602
688.4626, 0.4178593
690.3911, 0.4189624
692.3196, 0.4195337
694.2480, 0.4198838
696.1765, 0.4207718
698.1050, 0.4209750
700.0334, 0.4211175
701.9619, 0.4221693
703.8904, 0.4228370
705.8188, 0.4229563
707.7473, 0.4230399
709.6758, 0.4238024
711.6042, 0.4238160
713.5327, 0.4245430
715.4612, 0.4256108
717.3896, 0.4261736
719.3181, 0.4269446
721.2466, 0.4281488
723.1750, 0.4290287
725.1035, 0.4291702
727.0320, 0.4295977
728.9604, 0.4305901
730.8889, 0.4315675
732.8174, 0.4315213
734.7458, 0.4307337
736.6743, 0.4315620
738.6028, 0.4326499
740.5313, 0.4336585
742.4597, 0.4349712
744.3882, 0.4358937
746.3167, 0.4357782
748.2451, 0.4366946
750.1736, 0.4375277
752.1021, 0.4380149
754.0305, 0.4382282
755.9590, 0.4391410
757.8875, 0.4398322
759.8159, 0.4406336
761.7444, 0.4411933
763.6729, 0.4416856
765.6013, 0.4428796
767.5298, 0.4442344
769.4583, 0.4438182
771.3867, 0.4431663
773.3152, 0.4439418
775.2437, 0.4450339
777.1721, 0.4462184
779.1006, 0.4473031
781.0291, 0.4469475
782.9575, 0.4470751
784.8860, 0.4476567
786.8145, 0.4483883
788.7429, 0.4488205
790.6714, 0.4496816
792.5999, 0.4499423
794.5283, 0.4493682
796.4568, 0.4496807
798.3853, 0.4503711
800.3137, 0.4509002
802.2422, 0.4512874
804.1707, 0.4516027
806.0991, 0.4516923
808.0276, 0.4517864
809.9561, 0.4525859
811.8845, 0.4537990
813.8130, 0.4543133
815.7415, 0.4542908
817.6699, 0.4545336
819.5984, 0.4554123
821.5269, 0.4560733
823.4553, 0.4556288
825.3838, 0.4562902
827.3123, 0.4579353
829.2407, 0.4590219
831.1692, 0.4593541
833.0977, 0.4597619
835.0261, 0.4605667
836.9546, 0.4610489
838.8831, 0.4614604
840.8115, 0.4618583
842.7400, 0.4619603
844.6685, 0.4629109
846.5969, 0.4642827
848.5254, 0.4648038
850.4539, 0.4656669
852.3823, 0.4670995
854.3108, 0.4678631
856.2393, 0.4683631
858.1677, 0.4685422
860.0962, 0.4690347
862.0247, 0.4701581
863.9531, 0.4713082
865.8816, 0.4713977
867.8101, 0.4719976
869.7385, 0.4722538
871.6670, 0.4720451
873.5955, 0.4734864
875.5239, 0.4746998
877.4524, 0.4751664
879.3809, 0.4758624
881.3093, 0.4765030
883.2378, 0.4767258
885.1663, 0.4761218
887.0947, 0.4765057
889.0232, 0.4776877
890.9517, 0.4784434
892.8801, 0.4788135
894.8085, 0.4794666
896.7370, 0.4803289
898.6655, 0.4810473
900.5939, 0.4815713
902.5224, 0.4825603
904.4509, 0.4828497
906.3793, 0.4832395
908.3078, 0.4833834
910.2363, 0.4842323
912.1647, 0.4855109
914.0932, 0.4858724
916.0217, 0.4864334
917.9501, 0.4871764
919.8786, 0.4873046
921.8071, 0.4878325
923.7355, 0.4884979
925.6640, 0.4886665
927.5925, 0.4889829
929.5209, 0.4897777
931.4494, 0.4899505
933.3779, 0.4899557
935.3063, 0.4910697
937.2348, 0.4920791
939.1633, 0.4927704
941.0917, 0.4932451
943.0202, 0.4937343
944.9487, 0.4941106
946.8771, 0.4949182
948.8056, 0.4961462
950.7341, 0.4963672
952.6625, 0.4967366
954.5910, 0.4974771
956.5195, 0.4981616
958.4479, 0.4993377
960.3764, 0.5001001
962.3049, 0.5000528
964.2333, 0.5004446
966.1618, 0.5012334
968.0903, 0.5018634
970.0187, 0.5022692
971.9472, 0.5022269
973.8757, 0.5026472
975.8041, 0.5036015
977.7326, 0.5039114
979.6611, 0.5038682
981.5895, 0.5042870
983.5180, 0.5048640
985.4465, 0.5054861
987.3749, 0.5057316
989.3034, 0.5062473
991.2319, 0.5071679
993.1603, 0.5076103
995.0888, 0.5078335
997.0173, 0.5079640
998.9457, 0.5086330
1000.874, 0.5093020
1002.803, 0.5096630
1004.731, 0.5101376
1006.660, 0.5104101
1008.588, 0.5108556
1010.517, 0.5120721
1012.445, 0.5131400
1014.373, 0.5135863
1016.302, 0.5144558
1018.230, 0.5152023
1020.159, 0.5150935
1022.087, 0.5154008
1024.016, 0.5164664
1025.944, 0.5170125
1027.873, 0.5172930
1029.801, 0.5183037
1031.730, 0.5194705
1033.658, 0.5196266
1035.587, 0.5198033
1037.515, 0.5200868
1039.444, 0.5202841
1041.372, 0.5203032
1043.301, 0.5211599
1045.229, 0.5221106
1047.157, 0.5225595
1049.086, 0.5224203
1051.014, 0.5224352
1052.943, 0.5231453
1054.871, 0.5235019
1056.800, 0.5237743
1058.728, 0.5238538
1060.657, 0.5236403
1062.585, 0.5237564
1064.514, 0.5235271
1066.442, 0.5232917
1068.371, 0.5240006
1070.299, 0.5249379
1072.228, 0.5253139
1074.156, 0.5249888
1076.084, 0.5254369
1078.013, 0.5258308
1079.941, 0.5260404
1081.870, 0.5263361
1083.798, 0.5261102
1085.727, 0.5261837
1087.655, 0.5264541
1089.584, 0.5266280
1091.512, 0.5266088
1093.441, 0.5271773
1095.369, 0.5279905
1097.298, 0.5285287
1099.226, 0.5289573
1101.155, 0.5286055
1103.083, 0.5279856
1105.011, 0.5279368
1106.940, 0.5281492
1108.868, 0.5285358
1110.797, 0.5292400
1112.725, 0.5298921
1114.654, 0.5300277
1116.582, 0.5296252
1118.511, 0.5295196
1120.439, 0.5297228
1122.368, 0.5302298
1124.296, 0.5298015
1126.225, 0.5300805
1128.153, 0.5310243
1130.082, 0.5315202
1132.010, 0.5322132
1133.938, 0.5330740
1135.867, 0.5342194
1137.795, 0.5349259
1139.724, 0.5352136
1141.652, 0.5359612
1143.581, 0.5364037
1145.509, 0.5366812
1147.438, 0.5365875
1149.366, 0.5363204
1151.295, 0.5359839
1153.223, 0.5358850
1155.152, 0.5361479
1157.080, 0.5358282
1159.009, 0.5353416
1160.937, 0.5354993
1162.865, 0.5358005
1164.794, 0.5355831
1166.722, 0.5351430
1168.651, 0.5344633
1170.579, 0.5346805
1172.508, 0.5353843
1174.436, 0.5356287
1176.365, 0.5353558
1178.293, 0.5348256
1180.222, 0.5351064
1182.150, 0.5351824
1184.079, 0.5349005
1186.007, 0.5352072
1187.936, 0.5363683
1189.864, 0.5377707
1191.792, 0.5386001
1193.721, 0.5385879
1195.649, 0.5386792
1197.578, 0.5393586
1199.506, 0.5401075
1201.435, 0.5407224
1203.363, 0.5407272
1205.292, 0.5411808
1207.220, 0.5419679
1209.149, 0.5421647
1211.077, 0.5420077
1213.006, 0.5421129
1214.934, 0.5423787
1216.863, 0.5426490
1218.791, 0.5429752
1220.719, 0.5431556
1222.648, 0.5435367
1224.576, 0.5444627
1226.505, 0.5449916
1228.433, 0.5450430
1230.362, 0.5454508
1232.290, 0.5456594
1234.219, 0.5459605
1236.147, 0.5464455
1238.076, 0.5477042
1240.004, 0.5488629
1241.933, 0.5487419
1243.861, 0.5484626
1245.790, 0.5491753
1247.718, 0.5501093
1249.646, 0.5506904
1251.575, 0.5509658
1253.503, 0.5510197
1255.432, 0.5510050
1257.360, 0.5512451
1259.289, 0.5513498
1261.217, 0.5517732
1263.146, 0.5522956
1265.074, 0.5527237
1267.003, 0.5528602
1268.931, 0.5529881
1270.860, 0.5535726
1272.788, 0.5545944
1274.717, 0.5554609
1276.645, 0.5553945
1278.573, 0.5552511
1280.502, 0.5558700
1282.430, 0.5565078
1284.359, 0.5569470
1286.287, 0.5575655
1288.216, 0.5581114
1290.144, 0.5583905
1292.073, 0.5586389
1294.001, 0.5592986
1295.930, 0.5599772
1297.858, 0.5601057
1299.787, 0.5603119
1301.715, 0.5608411
1303.644, 0.5615160
1305.572, 0.5618062
1307.500, 0.5618125
1309.429, 0.5621934
1311.357, 0.5626662
1313.286, 0.5627505
1315.214, 0.5632418
1317.143, 0.5638518
1319.071, 0.5644456
1321.000, 0.5648559
1322.928, 0.5652003
1324.857, 0.5655301
1326.785, 0.5660520
1328.714, 0.5667179
1330.642, 0.5671462
1332.571, 0.5673301
1334.499, 0.5676562
1336.427, 0.5682372
1338.356, 0.5689280
1340.284, 0.5693648
1342.213, 0.5699466
1344.141, 0.5699597
1346.070, 0.5700107
1347.998, 0.5708605
1349.927, 0.5718104
1351.855, 0.5726408
1353.784, 0.5729861
1355.712, 0.5729240
1357.641, 0.5732648
1359.569, 0.5735372
1361.498, 0.5738521
1363.426, 0.5739584
1365.354, 0.5741061
1367.283, 0.5747805
1369.211, 0.5750594
1371.140, 0.5750299
1373.068, 0.5756651
1374.997, 0.5764906
1376.925, 0.5771032
1378.854, 0.5771536
1380.782, 0.5775103
1382.711, 0.5784005
1384.639, 0.5786192
1386.568, 0.5785341
1388.496, 0.5786387
1390.424, 0.5790403
1392.353, 0.5795922
1394.281, 0.5801236
1396.210, 0.5805250
1398.138, 0.5812759
1400.067, 0.5812276
1401.995, 0.5816431
1403.924, 0.5823945
1405.852, 0.5828394
1407.781, 0.5834067
1409.709, 0.5832312
1411.638, 0.5831727
1413.566, 0.5839681
1415.495, 0.5846469
1417.423, 0.5843539
1419.351, 0.5840394
1421.280, 0.5842167
1423.208, 0.5845466
1425.137, 0.5847390
1427.065, 0.5850990
1428.994, 0.5852795
1430.922, 0.5854754
1432.851, 0.5859506
1434.779, 0.5864268
1436.708, 0.5866546
1438.636, 0.5872031
1440.565, 0.5872029
1442.493, 0.5872691
1444.422, 0.5879092
1446.350, 0.5881038
1448.278, 0.5881043
1450.207, 0.5887362
1452.135, 0.5897374
1454.064, 0.5903582
1455.992, 0.5901369
1457.921, 0.5898678
1459.849, 0.5899674
1461.778, 0.5905182
1463.706, 0.5904874
1465.635, 0.5903949
1467.563, 0.5901205
1469.492, 0.5901424
1471.420, 0.5902836
1473.349, 0.5904485
1475.277, 0.5907962
1477.205, 0.5913348
1479.134, 0.5920221
1481.062, 0.5916163
1482.991, 0.5914556
1484.919, 0.5923584
1486.848, 0.5931254
1488.776, 0.5935240
1490.705, 0.5940690
1492.633, 0.5947751
1494.562, 0.5956328
1496.490, 0.5961407
1498.419, 0.5964852
1500.347, 0.5970951
1502.276, 0.5974765
1504.204, 0.5981170
1506.132, 0.5986707
1508.061, 0.5986111
1509.989, 0.5987381
1511.918, 0.5996962
1513.846, 0.6003263
1515.775, 0.6001799
1517.703, 0.6005592
1519.632, 0.6012498
1521.560, 0.6012403
1523.489, 0.6013418
1525.417, 0.6020349
1527.346, 0.6022978
1529.274, 0.6028054
1531.203, 0.6033099
1533.131, 0.6036035
1535.059, 0.6040981
1536.988, 0.6046458
1538.916, 0.6049773
1540.845, 0.6054886
1542.773, 0.6060330
1544.702, 0.6058536
1546.630, 0.6059349
1548.559, 0.6066606
1550.487, 0.6068125
1552.416, 0.6069835
1554.344, 0.6071692
1556.273, 0.6070380
1558.201, 0.6073661
1560.130, 0.6075333
1562.058, 0.6076478
1563.986, 0.6081741
1565.915, 0.6088288
1567.843, 0.6090478
1569.772, 0.6092144
1571.700, 0.6096133
1573.629, 0.6097621
1575.557, 0.6103215
1577.486, 0.6106171
1579.414, 0.6105371
1581.343, 0.6108181
1583.271, 0.6111457
1585.200, 0.6115565
1587.128, 0.6121063
1589.057, 0.6124355
1590.985, 0.6130766
1592.913, 0.6134961
1594.842, 0.6137697
1596.770, 0.6142917
1598.699, 0.6145040
1600.627, 0.6147932
1602.556, 0.6151158
1604.484, 0.6148959
1606.413, 0.6152855
1608.341, 0.6155392
1610.270, 0.6156430
1612.198, 0.6163878
1614.127, 0.6173979
1616.055, 0.6177781
1617.984, 0.6179358
1619.912, 0.6183457
1621.840, 0.6183972
1623.769, 0.6185408
1625.697, 0.6188688
1627.626, 0.6190417
1629.554, 0.6196279
1631.483, 0.6208148
1633.411, 0.6212347
1635.340, 0.6204801
1637.268, 0.6203780
1639.197, 0.6213570
1641.125, 0.6219917
1643.054, 0.6226844
1644.982, 0.6229233
1646.911, 0.6229980
1648.839, 0.6230384
1650.767, 0.6228880
1652.696, 0.6234296
1654.624, 0.6236897
1656.553, 0.6230654
1658.481, 0.6226432
1660.410, 0.6233244
1662.338, 0.6235506
1664.267, 0.6235884
1666.195, 0.6237327
1668.124, 0.6238995
1670.052, 0.6238757
1671.981, 0.6244756
1673.909, 0.6244864
1675.838, 0.6247257
1677.766, 0.6253107
1679.694, 0.6250174
1681.623, 0.6250160
1683.551, 0.6252679
1685.480, 0.6256526
1687.408, 0.6258240
1689.337, 0.6258736
1691.265, 0.6259820
1693.194, 0.6263233
1695.122, 0.6263045
1697.051, 0.6263801
1698.979, 0.6268957
1700.908, 0.6273499
1702.836, 0.6273975
1704.765, 0.6274183
1706.693, 0.6278393
1708.621, 0.6280996
1710.550, 0.6288735
1712.478, 0.6299791
1714.407, 0.6296433
1716.335, 0.6299011
1718.264, 0.6311121
1720.192, 0.6317188
1722.121, 0.6316869
1724.049, 0.6320080
1725.978, 0.6325455
1727.906, 0.6334856
1729.835, 0.6342134
1731.763, 0.6345298
1733.692, 0.6344147
1735.620, 0.6343356
1737.548, 0.6348667
1739.477, 0.6349738
1741.405, 0.6347430
1743.334, 0.6346816
1745.262, 0.6344095
1747.191, 0.6342715
1749.119, 0.6343287
1751.048, 0.6337411
1752.976, 0.6320655
1754.905, 0.6311067
1756.833, 0.6316574
1758.762, 0.6327918
1760.690, 0.6335286
1762.619, 0.6335936
1764.547, 0.6334134
1766.475, 0.6335796
1768.404, 0.6341376
1770.332, 0.6348845
1772.261, 0.6355308
1774.189, 0.6351780
1776.118, 0.6353098
1778.046, 0.6355401
1779.975, 0.6352720
1781.903, 0.6367748
1783.832, 0.6377859
1785.760, 0.6363445
1787.689, 0.6360112
1789.617, 0.6372557
1791.546, 0.6375872
1793.474, 0.6379097
1795.402, 0.6380964
1797.331, 0.6378474
1799.259, 0.6378208
1801.188, 0.6377622
1803.116, 0.6376731
1805.045, 0.6379472
1806.973, 0.6380842
1808.902, 0.6385055
1810.830, 0.6394434
1812.759, 0.6389624
1814.687, 0.6388836
1816.616, 0.6392775
1818.544, 0.6386603
1820.473, 0.6394191
1822.401, 0.6394147
1824.329, 0.6382470
1826.258, 0.6386131
1828.186, 0.6386468
1830.115, 0.6388249
1832.043, 0.6398526
1833.972, 0.6393935
1835.900, 0.6379564
1837.829, 0.6393355
1839.757, 0.6408457
1841.686, 0.6413298
1843.614, 0.6417544
1845.543, 0.6406769
1847.471, 0.6398292
1849.400, 0.6403441
1851.328, 0.6404836
1853.256, 0.6409228
1855.185, 0.6403691
1857.113, 0.6402208
1859.042, 0.6402943
1860.970, 0.6406117
1862.899, 0.6407250
1864.827, 0.6402538
1866.756, 0.6409967
1868.684, 0.6425222
1870.613, 0.6428601
1872.541, 0.6428776
1874.470, 0.6428068
1876.398, 0.6430702
1878.327, 0.6437694
1880.255, 0.6429659
1882.183, 0.6426741
1884.112, 0.6433134
1886.040, 0.6421459
1887.969, 0.6406988
1889.897, 0.6421989
1891.826, 0.6444108
1893.754, 0.6440162
1895.683, 0.6422279
1897.611, 0.6428699
1899.540, 0.6438901
1901.468, 0.6432077
1903.397, 0.6416637
1905.325, 0.6400722
1907.254, 0.6426814
1909.182, 0.6449239
1911.110, 0.6436183
1913.039, 0.6431693
1914.967, 0.6432186
1916.896, 0.6427355
1918.824, 0.6429365
1920.753, 0.6421139
1922.681, 0.6419241
1924.610, 0.6413016
1926.538, 0.6413674
1928.467, 0.6413337
1930.395, 0.6413321
1932.324, 0.6409515
1934.252, 0.6412527
1936.181, 0.6400440
1938.109, 0.6371086
1940.037, 0.6374465
1941.966, 0.6370077
1943.894, 0.6365896
1945.823, 0.6383103
1947.751, 0.6373793
1949.680, 0.6362001
1951.608, 0.6347619
1953.537, 0.6330663
1955.465, 0.6328602
1957.394, 0.6288863
1959.322, 0.6256360
1961.251, 0.6273330
1963.179, 0.6278386
1965.108, 0.6289483
1967.036, 0.6254735
1968.964, 0.6191412
1970.893, 0.6182886
1972.821, 0.6183385
1974.750, 0.6184474
1976.678, 0.6218727
1978.607, 0.6228721
1980.535, 0.6259025
1982.464, 0.6326675
1984.392, 0.6332662
1986.321, 0.6297863
1988.249, 0.6290337
1990.178, 0.6317713
1992.106, 0.6297977
1994.035, 0.6299952
1995.963, 0.6306707
1997.891, 0.6319770
1999.820, 0.6319805
2001.748, 0.6279402
2003.677, 0.6227664
2005.605, 0.6243317
2007.534, 0.6285955
2009.462, 0.6275020
2011.391, 0.6281669
2013.319, 0.6295984
2015.248, 0.6280724
2017.176, 0.6253809
2019.105, 0.6250150
2021.033, 0.6269426
2022.962, 0.6286254
2024.890, 0.6268024
2026.818, 0.6249532
2028.747, 0.6234156
2030.675, 0.6254172
2032.604, 0.6269873
2034.532, 0.6325151
2036.461, 0.6359953
2038.389, 0.6328460
2040.318, 0.6349389
2042.246, 0.6358122
2044.175, 0.6378945
2046.103, 0.6428429
2048.032, 0.6443888
2049.960, 0.6454052
2051.889, 0.6488761
2053.817, 0.6498215
2055.746, 0.6516622
2057.674, 0.6536782
2059.603, 0.6518544
2061.531, 0.6501898
2063.459, 0.6523684
2065.388, 0.6539567
2067.316, 0.6547498
2069.245, 0.6566429
2071.173, 0.6557851
2073.102, 0.6576571
2075.030, 0.6592646
2076.959, 0.6587198
2078.887, 0.6602845
2080.816, 0.6612856
2082.744, 0.6609070
2084.673, 0.6606812
2086.601, 0.6615066
2088.530, 0.6638467
2090.458, 0.6644856
2092.386, 0.6612476
2094.315, 0.6602272
2096.243, 0.6614877
2098.172, 0.6629433
2100.100, 0.6649870
2102.029, 0.6642625
2103.957, 0.6646280
2105.886, 0.6659885
2107.814, 0.6649658
2109.743, 0.6651602
2111.671, 0.6666757
2113.600, 0.6661322
2115.528, 0.6671481
2117.457, 0.6688930
2119.385, 0.6668155
2121.313, 0.6635808
2123.242, 0.6634328
2125.170, 0.6623396
2127.099, 0.6624001
2129.027, 0.6616738
2130.956, 0.6594201
2132.884, 0.6590616
2134.813, 0.6597039
2136.741, 0.6598383
2138.670, 0.6582448
2140.598, 0.6563061
2142.527, 0.6542161
2144.455, 0.6567135
2146.384, 0.6572083
2148.312, 0.6511227
2150.240, 0.6465878
2152.169, 0.6437649
2154.097, 0.6408764
2156.026, 0.6395767
2157.954, 0.6338302
2159.883, 0.6337454
2161.811, 0.6409641
2163.740, 0.6420001
2165.668, 0.6485065
2167.597, 0.6517249
2169.525, 0.6499889
2171.454, 0.6515833
2173.382, 0.6506869
2175.311, 0.6481233
2177.239, 0.6511551
2179.167, 0.6543832
2181.096, 0.6528182
2183.024, 0.6527324
2184.953, 0.6579131
2186.881, 0.6584252
2188.810, 0.6575654
2190.738, 0.6591020
2192.667, 0.6602761
2194.595, 0.6620917
2196.524, 0.6637335
2198.452, 0.6678233
2200.381, 0.6697394
2202.309, 0.6652792
2204.238, 0.6635522
2206.166, 0.6659621
2208.094, 0.6655759
2210.023, 0.6670687
2211.951, 0.6681584
2213.880, 0.6679071
2215.808, 0.6700484
2217.737, 0.6726392
2219.665, 0.6719170
2221.594, 0.6708377
2223.522, 0.6729674
2225.451, 0.6755430
2227.379, 0.6762933
2229.308, 0.6780500
2231.236, 0.6787513
2233.165, 0.6784031
2235.093, 0.6780784
2237.021, 0.6805653
2238.950, 0.6806271
2240.878, 0.6812168
2242.807, 0.6824145
2244.735, 0.6847224
2246.664, 0.6854970
2248.592, 0.6830878
2250.521, 0.6835635
2252.449, 0.6853559
2254.378, 0.6858202
2256.306, 0.6873741
2258.235, 0.6886820
2260.163, 0.6876019
2262.092, 0.6857544
2264.020, 0.6849177
2265.948, 0.6882632
2267.877, 0.6911910
2269.805, 0.6914773
2271.734, 0.6909475
2273.662, 0.6939754
2275.591, 0.6943607
2277.519, 0.6949107
2279.448, 0.6976253
2281.376, 0.6972227
2283.305, 0.6973877
2285.233, 0.6983090
2287.162, 0.7010875
2289.090, 0.7028850
2291.019, 0.7024834
2292.947, 0.7024549
2294.875, 0.7033639
2296.804, 0.7042738
2298.732, 0.7059157
2300.661, 0.7068148
2302.589, 0.7064254
2304.518, 0.7071297
2306.446, 0.7074163
2308.375, 0.7086957
2310.303, 0.7109525
2312.232, 0.7114763
2314.160, 0.7113706
2316.089, 0.7115362
2318.017, 0.7124704
2319.946, 0.7147589
2321.874, 0.7165291
2323.802, 0.7167861
2325.731, 0.7168669
2327.659, 0.7163638
2329.588, 0.7153164
2331.516, 0.7168743
2333.445, 0.7176391
2335.373, 0.7174708
2337.302, 0.7182567
2339.230, 0.7188267
2341.159, 0.7186329
2343.087, 0.7190156
2345.016, 0.7182423
2346.944, 0.7178279
2348.873, 0.7189135
2350.801, 0.7201321
2352.729, 0.7206023
2354.658, 0.7210854
2356.586, 0.7212634
2358.515, 0.7215216
2360.443, 0.7211699
2362.372, 0.7215934
2364.300, 0.7217587
2366.229, 0.7210326
2368.157, 0.7217891
2370.086, 0.7212933
2372.014, 0.7197979
2373.942, 0.7189527
2375.871, 0.7198710
2377.799, 0.7198916
2379.728, 0.7180879
2381.656, 0.7169266
2383.585, 0.7175006
2385.513, 0.7182325
2387.442, 0.7195374
2389.370, 0.7194943
2391.299, 0.7188968
2393.227, 0.7188018
2395.156, 0.7193114
2397.084, 0.7189885
2399.012, 0.7204550
2400.941, 0.7221683
2402.869, 0.7215580
2404.798, 0.7207860
2406.726, 0.7205069
2408.655, 0.7196924
2410.583, 0.7187372
2412.512, 0.7193419
2414.440, 0.7214303
2416.369, 0.7224023
2418.297, 0.7233424
2420.226, 0.7235845
2422.154, 0.7210030
2424.083, 0.7198526
2426.011, 0.7194653
2427.939, 0.7207526
2429.868, 0.7228446
2431.796, 0.7225490
2433.725, 0.7226003
2435.653, 0.7236282
2437.582, 0.7244343
2439.510, 0.7230936
2441.439, 0.7230005
2443.367, 0.7263082
2445.296, 0.7269966
2447.224, 0.7256829
2449.153, 0.7243797
2451.081, 0.7251627
2453.010, 0.7279409
2454.938, 0.7269529
2456.866, 0.7257046
2458.795, 0.7268417
2460.723, 0.7278044
2462.652, 0.7284272
2464.580, 0.7273634
2466.509, 0.7266774
2468.437, 0.7265269
2470.366, 0.7252953
2472.294, 0.7267659
2474.223, 0.7283370
2476.151, 0.7288316
2478.080, 0.7285630
2480.008, 0.7271655
2481.937, 0.7291533
2483.865, 0.7311082
2485.793, 0.7306194
2487.722, 0.7308479
2489.650, 0.7310942
2491.579, 0.7320613
2493.507, 0.7323064
2495.436, 0.7311755
2497.364, 0.7302511
2499.293, 0.7308849
2501.221, 0.7308779
2503.150, 0.7321449
2505.078, 0.7333925
2507.007, 0.7343909
2508.935, 0.7348352
2510.864, 0.7358056
2512.792, 0.7352330
2514.720, 0.7346997
2516.649, 0.7351146
2518.577, 0.7357976
2520.506, 0.7345300
2522.434, 0.7343079
2524.363, 0.7347393
2526.291, 0.7353469
2528.220, 0.7367247
2530.148, 0.7378486
2532.077, 0.7383789
2534.005, 0.7385772
2535.934, 0.7372583
2537.862, 0.7376521
2539.791, 0.7393186
2541.719, 0.7384895
2543.647, 0.7370442
2545.576, 0.7381061
2547.504, 0.7388250
2549.433, 0.7380199
2551.361, 0.7373536
2553.290, 0.7382825
2555.218, 0.7381614
2557.147, 0.7381910
2559.075, 0.7382140
2561.004, 0.7397505
2562.932, 0.7426425
2564.861, 0.7418328
2566.789, 0.7409251
2568.718, 0.7418762
2570.646, 0.7435030
2572.574, 0.7439708
2574.503, 0.7428820
2576.431, 0.7422237
2578.360, 0.7429813
2580.288, 0.7436196
2582.217, 0.7441342
2584.145, 0.7437778
2586.074, 0.7445270
2588.002, 0.7458098
2589.931, 0.7448890
2591.859, 0.7452580
2593.788, 0.7465859
2595.716, 0.7475098
2597.645, 0.7477209
2599.573, 0.7470140
2601.501, 0.7468799
2603.430, 0.7487488
2605.358, 0.7502107
2607.287, 0.7500817
2609.215, 0.7492315
2611.144, 0.7499324
2613.072, 0.7511920
2615.001, 0.7512620
2616.929, 0.7522314
2618.858, 0.7524549
2620.786, 0.7524443
2622.715, 0.7538142
2624.643, 0.7538064
2626.572, 0.7548518
2628.500, 0.7558997
2630.428, 0.7555580
2632.357, 0.7562092
2634.285, 0.7578245
2636.214, 0.7586405
2638.142, 0.7582331
2640.071, 0.7585093
2641.999, 0.7597887
2643.928, 0.7599721
2645.856, 0.7601159
2647.785, 0.7609855
2649.713, 0.7633220
2651.642, 0.7626306
2653.570, 0.7621561
2655.499, 0.7630839
2657.427, 0.7637995
2659.355, 0.7646919
2661.284, 0.7646813
2663.212, 0.7653353
2665.141, 0.7657371
2667.069, 0.7651425
2668.998, 0.7651551
2670.926, 0.7668237
2672.855, 0.7672127
2674.783, 0.7658827
2676.712, 0.7661909
2678.640, 0.7657794
2680.569, 0.7659205
2682.497, 0.7672707
2684.426, 0.7674093
2686.354, 0.7665627
2688.282, 0.7663369
2690.211, 0.7668185
2692.139, 0.7670103
2694.068, 0.7677991
2695.996, 0.7689179
2697.925, 0.7689281
2699.853, 0.7688940
2701.782, 0.7684637
2703.710, 0.7678109
2705.639, 0.7678977
2707.567, 0.7691269
2709.496, 0.7690117
2711.424, 0.7695845
2713.353, 0.7710881
2715.281, 0.7703824
2717.209, 0.7711179
2719.138, 0.7735825
2721.066, 0.7740849
2722.995, 0.7726565
2724.923, 0.7728289
2726.852, 0.7734707
2728.780, 0.7722327
2730.709, 0.7722578
2732.637, 0.7734019
2734.566, 0.7739647
2736.494, 0.7749572
2738.423, 0.7749892
2740.351, 0.7745990
2742.280, 0.7748789
2744.208, 0.7752595
2746.136, 0.7767273
2748.065, 0.7773634
2749.993, 0.7771494
2751.922, 0.7763500
2753.850, 0.7755901
2755.779, 0.7746154
2757.707, 0.7743331
2759.636, 0.7759616
2761.564, 0.7768510
2763.493, 0.7773269
2765.421, 0.7770886
2767.350, 0.7762920
2769.278, 0.7766247
2771.207, 0.7781297
2773.135, 0.7793021
2775.063, 0.7796813
2776.992, 0.7789329
2778.920, 0.7788015
2780.849, 0.7801692
2782.777, 0.7798448
2784.706, 0.7780072
2786.634, 0.7779094
2788.563, 0.7794104
2790.491, 0.7807976
2792.420, 0.7823917
2794.348, 0.7816296
2796.277, 0.7810619
2798.205, 0.7819219
2800.134, 0.7814272
2802.062, 0.7821149
2803.990, 0.7846743
2805.919, 0.7833526
2807.847, 0.7817692
2809.776, 0.7829470
2811.704, 0.7843575
2813.633, 0.7849841
2815.561, 0.7841297
2817.490, 0.7833405
2819.418, 0.7835611
2821.347, 0.7845570
2823.275, 0.7843304
2825.204, 0.7845236
2827.132, 0.7852111
2829.061, 0.7867760
2830.989, 0.7883611
2832.917, 0.7888772
2834.846, 0.7895819
2836.774, 0.7891900
2838.703, 0.7888349
2840.631, 0.7900603
2842.560, 0.7927293
2844.488, 0.7931903
2846.417, 0.7921178
2848.345, 0.7922324
2850.274, 0.7930464
2852.202, 0.7916784
2854.131, 0.7888307
2856.059, 0.7875941
2857.988, 0.7893713
2859.916, 0.7903541
2861.844, 0.7884278
2863.773, 0.7882054
2865.701, 0.7898542
2867.630, 0.7899652
2869.558, 0.7894013
2871.487, 0.7897996
2873.415, 0.7913060
2875.344, 0.7921204
2877.272, 0.7919031
2879.201, 0.7933828
2881.129, 0.7951082
2883.058, 0.7949497
2884.986, 0.7940311
2886.915, 0.7939290
2888.843, 0.7941096
2890.771, 0.7932324
2892.700, 0.7936586
2894.628, 0.7963213
2896.557, 0.7971921
2898.485, 0.7973686
2900.414, 0.7977723
2902.342, 0.7987711
2904.271, 0.8008695
2906.199, 0.8011048
2908.128, 0.7993600
2910.056, 0.7991613
2911.985, 0.8017175
2913.913, 0.8031166
2915.842, 0.8026805
2917.770, 0.8014007
2919.698, 0.7997459
2921.627, 0.8001114
2923.555, 0.7982692
2925.484, 0.7967002
2927.412, 0.7955655
2929.341, 0.7928081
2931.269, 0.7915660
2933.198, 0.7920456
2935.126, 0.7917447
2937.055, 0.7910039
2938.983, 0.7901311
2940.912, 0.7903530
2942.840, 0.7912109
2944.769, 0.7909752
2946.697, 0.7908767
2948.625, 0.7907503
2950.554, 0.7902852
2952.482, 0.7909617
2954.411, 0.7920380
2956.339, 0.7916568
2958.268, 0.7923211
2960.196, 0.7943968
2962.125, 0.7941534
2964.053, 0.7945929
2965.982, 0.7945449
2967.910, 0.7918993
2969.839, 0.7909603
2971.767, 0.7917222
2973.696, 0.7954366
2975.624, 0.7968695
2977.552, 0.7952389
2979.481, 0.7951133
2981.409, 0.7959018
2983.338, 0.7972856
2985.266, 0.7988319
2987.195, 0.7980480
2989.123, 0.7984002
2991.052, 0.7975429
2992.980, 0.7969945
2994.909, 0.7967476
2996.837, 0.7970954
2998.766, 0.7973583
3000.694, 0.7979689
3002.623, 0.7996467
3004.551, 0.7998179
3006.479, 0.7987220
3008.408, 0.7978461
3010.336, 0.7972169
3012.265, 0.7974015
3014.193, 0.7978497
3016.122, 0.7982958
3018.050, 0.7980095
3019.979, 0.7976929
3021.907, 0.7982359
3023.836, 0.7968284
3025.764, 0.7971247
3027.693, 0.7993056
3029.621, 0.7988724
3031.550, 0.7989585
3033.478, 0.8012340
3035.406, 0.8024608
3037.335, 0.8014622
3039.263, 0.8005794
3041.192, 0.8007733
3043.120, 0.8008512
3045.049, 0.8018901
3046.977, 0.8019614
3048.906, 0.8015572
3050.834, 0.8009363
3052.763, 0.8013442
3054.691, 0.8019788
3056.620, 0.8006953
3058.548, 0.8002192
3060.477, 0.8022001
3062.405, 0.8035135
3064.333, 0.8033842
3066.262, 0.8021193
3068.190, 0.8033410
3070.119, 0.8049127
3072.047, 0.8059570
3073.976, 0.8069577
3075.904, 0.8052113
3077.833, 0.8033336
3079.761, 0.8031868
3081.690, 0.8030537
3083.618, 0.8042840
3085.547, 0.8049524
3087.475, 0.8044953
3089.404, 0.8073794
3091.332, 0.8094369
3093.260, 0.8069715
3095.189, 0.8042554
3097.117, 0.8057572
3099.046, 0.8071991
3100.974, 0.8081205
3102.903, 0.8073863
3104.831, 0.8081666
3106.760, 0.8082775
3108.688, 0.8082655
3110.617, 0.8084912
3112.545, 0.8099738
3114.474, 0.8119805
3116.402, 0.8139097
3118.331, 0.8132856
3120.259, 0.8143150
3122.188, 0.8140928
3124.116, 0.8123749
3126.044, 0.8126221
3127.973, 0.8109967
3129.901, 0.8093353
3131.830, 0.8104317
3133.758, 0.8117996
3135.687, 0.8126627
3137.615, 0.8138636
3139.544, 0.8137379
3141.472, 0.8143708
3143.401, 0.8163072
3145.329, 0.8167129
3147.258, 0.8165987
3149.186, 0.8150732
3151.115, 0.8163126
3153.043, 0.8177314
3154.971, 0.8158275
3156.900, 0.8127729
3158.828, 0.8148485
3160.757, 0.8183761
3162.685, 0.8195795
3164.614, 0.8184782
3166.542, 0.8180107
3168.471, 0.8209276
3170.399, 0.8207297
3172.328, 0.8166946
3174.256, 0.8179296
3176.185, 0.8189994
3178.113, 0.8158756
3180.042, 0.8163165
3181.970, 0.8177993
3183.898, 0.8165362
3185.827, 0.8185350
3187.755, 0.8196163
3189.684, 0.8212134
3191.612, 0.8238840
3193.541, 0.8238481
3195.469, 0.8218171
3197.398, 0.8211447
3199.326, 0.8232287
3201.255, 0.8234760
3203.183, 0.8227478
3205.112, 0.8210948
3207.040, 0.8197819
3208.969, 0.8201530
3210.897, 0.8231120
3212.825, 0.8267344
3214.754, 0.8237451
3216.682, 0.8216473
3218.611, 0.8245255
3220.539, 0.8271084
3222.468, 0.8264858
3224.396, 0.8236604
3226.325, 0.8224687
3228.253, 0.8238842
3230.182, 0.8226897
3232.110, 0.8216712
3234.039, 0.8244292
3235.967, 0.8272426
3237.896, 0.8286110
3239.824, 0.8269849
3241.752, 0.8274675
3243.681, 0.8276841
3245.609, 0.8269746
3247.538, 0.8279575
3249.466, 0.8287307
3251.395, 0.8289148
3253.323, 0.8276336
3255.252, 0.8298178
3257.180, 0.8302462
3259.109, 0.8300238
3261.037, 0.8301370
3262.966, 0.8312450
3264.894, 0.8334447
3266.823, 0.8356491
3268.751, 0.8369666
3270.679, 0.8338085
3272.608, 0.8320086
3274.536, 0.8323826
3276.465, 0.8316491
3278.393, 0.8313898
3280.322, 0.8329336
3282.250, 0.8331827
3284.179, 0.8316492
3286.107, 0.8319896
3288.036, 0.8331220
3289.964, 0.8332942
3291.893, 0.8362942
3293.821, 0.8349980
3295.750, 0.8313174
3297.678, 0.8342435
3299.606, 0.8354720
3301.535, 0.8347893
3303.463, 0.8357750
3305.392, 0.8381388
3307.320, 0.8390759
3309.249, 0.8367066
3311.177, 0.8346861
3313.106, 0.8373184
3315.034, 0.8379273
3316.963, 0.8369458
3318.891, 0.8370094
3320.820, 0.8363494
3322.748, 0.8382885
3324.677, 0.8416857
3326.605, 0.8410490
3328.533, 0.8403164
3330.462, 0.8391468
3332.390, 0.8381473
3334.319, 0.8368443
3336.247, 0.8374630
3338.176, 0.8426639
3340.104, 0.8437030
3342.033, 0.8397741
3343.961, 0.8379216
3345.890, 0.8389431
3347.818, 0.8414204
3349.747, 0.8427111
3351.675, 0.8415159
3353.604, 0.8386695
3355.532, 0.8383207
3357.460, 0.8398896
3359.389, 0.8405917
3361.317, 0.8416791
3363.246, 0.8413766
3365.174, 0.8402741
3367.103, 0.8387810
3369.031, 0.8388501
3370.960, 0.8412845
3372.888, 0.8397954
3374.817, 0.8405554
3376.745, 0.8432558
3378.674, 0.8440045
3380.602, 0.8434828
3382.531, 0.8406951
3384.459, 0.8381829
3386.387, 0.8403401
3388.316, 0.8408142
3390.244, 0.8416494
3392.173, 0.8423424
3394.101, 0.8417994
3396.030, 0.8410894
3397.958, 0.8414168
3399.887, 0.8415327
3401.815, 0.8447140
3403.744, 0.8474822
3405.672, 0.8455845
3407.601, 0.8436490
3409.529, 0.8415674
3411.458, 0.8402398
3413.386, 0.8436173
3415.314, 0.8435180
3417.243, 0.8428037
3419.171, 0.8436942
3421.100, 0.8451703
3423.028, 0.8452011
3424.957, 0.8418841
3426.885, 0.8391696
3428.814, 0.8413033
3430.742, 0.8436660
3432.671, 0.8444504
3434.599, 0.8452355
3436.528, 0.8459582
3438.456, 0.8450661
3440.385, 0.8448889
3442.313, 0.8457124
3444.241, 0.8434125
3446.170, 0.8429841
3448.098, 0.8478942
3450.027, 0.8478578
3451.955, 0.8439277
3453.884, 0.8465782
3455.812, 0.8491459
3457.741, 0.8498855
3459.669, 0.8518265
3461.598, 0.8490948
3463.526, 0.8477459
3465.455, 0.8492855
3467.383, 0.8482042
3469.312, 0.8489923
3471.240, 0.8505933
3473.168, 0.8502033
3475.097, 0.8489094
3477.025, 0.8509620
3478.954, 0.8509402
3480.882, 0.8505573
3482.811, 0.8511426
3484.739, 0.8496176
3486.668, 0.8486884
3488.596, 0.8493132
3490.525, 0.8479712
3492.453, 0.8482218
3494.382, 0.8521170
3496.310, 0.8508586
3498.239, 0.8488023
3500.167, 0.8523852
3502.095, 0.8560297
3504.024, 0.8548741
3505.952, 0.8533019
3507.881, 0.8511060
3509.809, 0.8512969
3511.738, 0.8508322
3513.666, 0.8482627
3515.595, 0.8471308
3517.523, 0.8500058
3519.452, 0.8523048
3521.380, 0.8537868
3523.309, 0.8536804
3525.237, 0.8539294
3527.166, 0.8548772
3529.094, 0.8519372
3531.022, 0.8464491
3532.951, 0.8429150
3534.879, 0.8458097
3536.808, 0.8522601
3538.736, 0.8538842
3540.665, 0.8529925
3542.593, 0.8531503
3544.522, 0.8540430
3546.450, 0.8514245
3548.379, 0.8515776
3550.307, 0.8525768
3552.236, 0.8545926
3554.164, 0.8542435
3556.093, 0.8521737
3558.021, 0.8567850
3559.949, 0.8574265
3561.878, 0.8547168
3563.806, 0.8537377
3565.735, 0.8520712
3567.663, 0.8528886
3569.592, 0.8552179
3571.520, 0.8564872
3573.449, 0.8548921
3575.377, 0.8517084
3577.306, 0.8540072
3579.234, 0.8555790
3581.163, 0.8561631
3583.091, 0.8573732
3585.020, 0.8605268
3586.948, 0.8633163
3588.876, 0.8610533
3590.805, 0.8573320
3592.733, 0.8567414
3594.662, 0.8585505
3596.590, 0.8592656
3598.519, 0.8572690
3600.447, 0.8574899
3602.376, 0.8558633
3604.304, 0.8542969
3606.233, 0.8571622
3608.161, 0.8572354
3610.090, 0.8554244
3612.018, 0.8563697
3613.947, 0.8628129
3615.875, 0.8604073
3617.803, 0.8565481
3619.732, 0.8586901
3621.660, 0.8624657
3623.589, 0.8649873
3625.517, 0.8658945
3627.446, 0.8657718
3629.374, 0.8632724
3631.303, 0.8658817
3633.231, 0.8649867
3635.160, 0.8596043
3637.088, 0.8603309
3639.017, 0.8601484
3640.945, 0.8598117
3642.874, 0.8626215
3644.802, 0.8639435
3646.730, 0.8623234
3648.659, 0.8598049
3650.587, 0.8625094
3652.516, 0.8656907
3654.444, 0.8621033
3656.373, 0.8653815
3658.301, 0.8684812
3660.230, 0.8689084
3662.158, 0.8703535
3664.087, 0.8695709
3666.015, 0.8671945
3667.944, 0.8653820
3669.872, 0.8643970
3671.801, 0.8676803
3673.729, 0.8666440
3675.657, 0.8696123
3677.586, 0.8723438
3679.514, 0.8716859
3681.443, 0.8706190
3683.371, 0.8691135
3685.300, 0.8692092
3687.228, 0.8717328
3689.157, 0.8699482
3691.085, 0.8711502
3693.014, 0.8723468
3694.942, 0.8726600
3696.871, 0.8722880
3698.799, 0.8738353
3700.728, 0.8766379
3702.656, 0.8748875
3704.584, 0.8705283
3706.513, 0.8702731
3708.441, 0.8724528
3710.370, 0.8735975
3712.298, 0.8735553
3714.227, 0.8716921
3716.155, 0.8721625
3718.084, 0.8747486
3720.012, 0.8787053
3721.941, 0.8784747
3723.869, 0.8778543
3725.798, 0.8794125
3727.726, 0.8773572
3729.655, 0.8771099
3731.583, 0.8801303
3733.511, 0.8790503
3735.440, 0.8789153
3737.368, 0.8786153
3739.297, 0.8780214
3741.225, 0.8803158
3743.154, 0.8811999
3745.082, 0.8809811
3747.011, 0.8822550
3748.939, 0.8844361
3750.868, 0.8805643
3752.796, 0.8783793
3754.725, 0.8816921
3756.653, 0.8810797
3758.582, 0.8791324
3760.510, 0.8786752
3762.438, 0.8838357
3764.367, 0.8913437
3766.295, 0.8907677
3768.224, 0.8831982
3770.152, 0.8788661
3772.081, 0.8846958
3774.009, 0.8896387
3775.938, 0.8894605
3777.866, 0.8852989
3779.795, 0.8841213
3781.723, 0.8870242
3783.652, 0.8876700
3785.580, 0.8847342
3787.509, 0.8839899
3789.437, 0.8824667
3791.365, 0.8822953
3793.294, 0.8852974
3795.222, 0.8864520
3797.151, 0.8851705
3799.079, 0.8848171
3801.008, 0.8849882
3802.936, 0.8846039
3804.865, 0.8844861
3806.793, 0.8856660
3808.722, 0.8869218
3810.650, 0.8857965
3812.579, 0.8896508
3814.507, 0.8935959
3816.436, 0.8933188
3818.364, 0.8885401
3820.292, 0.8897370
3822.221, 0.8954679
3824.149, 0.8964190
3826.078, 0.8931241
3828.006, 0.8906297
3829.935, 0.8895344
3831.863, 0.8900658
3833.792, 0.8921573
3835.720, 0.8926404
3837.649, 0.8912523
3839.577, 0.8882350
3841.506, 0.8901092
3843.434, 0.8925481
3845.363, 0.8934496
3847.291, 0.8916088
3849.219, 0.8913850
3851.148, 0.8918866
3853.076, 0.8904009
3855.005, 0.8903072
3856.933, 0.8918431
3858.862, 0.8918718
3860.790, 0.8930092
3862.719, 0.8971812
3864.647, 0.8986742
3866.576, 0.8983790
3868.504, 0.8993552
3870.433, 0.8966779
3872.361, 0.8962706
3874.290, 0.8974941
3876.218, 0.8961870
3878.146, 0.8916082
3880.075, 0.8920006
3882.003, 0.8951614
3883.932, 0.8988257
3885.860, 0.8977869
3887.789, 0.8971909
3889.717, 0.9020400
3891.646, 0.9008703
3893.574, 0.8975577
3895.503, 0.8995494
3897.431, 0.8993809
3899.360, 0.9015905
3901.288, 0.9022265
3903.217, 0.9010219
3905.145, 0.9030728
3907.073, 0.9030973
3909.002, 0.8981380
3910.930, 0.9006825
3912.859, 0.9052706
3914.787, 0.9058359
3916.716, 0.9058709
3918.644, 0.9040784
3920.573, 0.9066427
3922.501, 0.9089763
3924.430, 0.9063112
3926.358, 0.9036393
3928.287, 0.9038892
3930.215, 0.9054231
3932.144, 0.9035261
3934.072, 0.9027998
3936.000, 0.9026201
3937.929, 0.9028289
3939.857, 0.9113955
3941.786, 0.9152185
3943.714, 0.9111459
3945.643, 0.9119527
3947.571, 0.9118488
3949.500, 0.9099082
3951.428, 0.9079097
3953.357, 0.9091949
3955.285, 0.9046850
3957.214, 0.9042074
3959.142, 0.9060965
3961.071, 0.9052177
3962.999, 0.9103480
3964.927, 0.9147220
3966.856, 0.9128730
3968.784, 0.9107401
3970.713, 0.9055190
3972.641, 0.9046457
3974.570, 0.9119691
3976.498, 0.9170369
3978.427, 0.9127256
3980.355, 0.9119341
3982.284, 0.9100690
3984.212, 0.9083903
3986.141, 0.9115668
3988.069, 0.9148940
3989.998, 0.9164283
3991.926, 0.9127187
3993.854, 0.9105851
3995.783, 0.9114429
3997.711, 0.9111998
3999.640, 0.9116394
##END=



