##NAMES=Rhodizite
##RRUFFID=R050099
##IDEAL CHEMISTRY=KAl_4_Be_5_B_11_O_28_
##LOCALITY=Mont Ibity, Antsirabe, Madagascar
##OWNER=RRUFF
##SOURCE=Rock Currier
##DESCRIPTION=Pale green single crystals
##STATUS=The identification of this mineral has been confirmed by X-ray diffraction and chemical analysis
##URL=rruff.info/R050099
##MEASURED CHEMISTRY=([box]_0.49_K_0.32_Rb_0.17_Na_0.02_)(Al_3.96_Si_0.04_)_Σ=4_Be_4.00_(B_11.45_Be_0.55_)_Σ=12_O_28_
3.991926e+002, 0.000000e+000
4.011211e+002, 7.601955e-002
4.030496e+002, 7.641567e-002
4.049780e+002, 7.615930e-002
4.069065e+002, 7.853144e-002
4.088350e+002, 7.967795e-002
4.107634e+002, 8.272101e-002
4.126919e+002, 8.773027e-002
4.146204e+002, 8.989286e-002
4.165488e+002, 9.146030e-002
4.184773e+002, 9.177637e-002
4.204058e+002, 9.132252e-002
4.223342e+002, 9.213811e-002
4.242627e+002, 9.373410e-002
4.261912e+002, 9.609521e-002
4.281196e+002, 9.770768e-002
4.300481e+002, 9.890249e-002
4.319766e+002, 1.024141e-001
4.339050e+002, 1.043738e-001
4.358335e+002, 1.043975e-001
4.377620e+002, 1.054127e-001
4.396904e+002, 1.071015e-001
4.416189e+002, 1.075350e-001
4.435474e+002, 1.069904e-001
4.454758e+002, 1.041763e-001
4.474043e+002, 1.009873e-001
4.493328e+002, 1.005843e-001
4.512612e+002, 1.005182e-001
4.531897e+002, 9.836759e-002
4.551182e+002, 9.355671e-002
4.570466e+002, 8.739755e-002
4.589751e+002, 8.081548e-002
4.609036e+002, 7.497529e-002
4.628320e+002, 7.169589e-002
4.647605e+002, 7.100482e-002
4.666890e+002, 7.156622e-002
4.686174e+002, 7.318700e-002
4.705459e+002, 7.547864e-002
4.724744e+002, 7.776790e-002
4.744028e+002, 7.943558e-002
4.763313e+002, 8.027309e-002
4.782598e+002, 7.986259e-002
4.801882e+002, 7.882259e-002
4.821167e+002, 7.763472e-002
4.840452e+002, 7.740761e-002
4.859736e+002, 7.824353e-002
4.879021e+002, 8.012579e-002
4.898306e+002, 8.235750e-002
4.917590e+002, 8.381782e-002
4.936875e+002, 8.538000e-002
4.956160e+002, 8.690939e-002
4.975444e+002, 8.813276e-002
4.994729e+002, 8.977653e-002
5.014014e+002, 9.188031e-002
5.033298e+002, 9.320612e-002
5.052583e+002, 9.345262e-002
5.071868e+002, 9.433103e-002
5.091152e+002, 9.589129e-002
5.110437e+002, 9.723458e-002
5.129722e+002, 9.792062e-002
5.149006e+002, 9.850581e-002
5.168291e+002, 9.873183e-002
5.187576e+002, 9.911218e-002
5.206860e+002, 9.908257e-002
5.226145e+002, 9.852128e-002
5.245430e+002, 9.829450e-002
5.264714e+002, 9.894005e-002
5.283999e+002, 9.981615e-002
5.303284e+002, 1.009949e-001
5.322568e+002, 1.020713e-001
5.341853e+002, 1.025912e-001
5.361138e+002, 1.032997e-001
5.380422e+002, 1.042671e-001
5.399707e+002, 1.050679e-001
5.418992e+002, 1.063930e-001
5.438276e+002, 1.075758e-001
5.457561e+002, 1.081674e-001
5.476846e+002, 1.089752e-001
5.496130e+002, 1.105418e-001
5.515415e+002, 1.115427e-001
5.534700e+002, 1.121298e-001
5.553984e+002, 1.125288e-001
5.573269e+002, 1.130906e-001
5.592554e+002, 1.136700e-001
5.611838e+002, 1.140238e-001
5.631123e+002, 1.144088e-001
5.650408e+002, 1.148275e-001
5.669692e+002, 1.157335e-001
5.688977e+002, 1.171058e-001
5.708262e+002, 1.179343e-001
5.727546e+002, 1.181398e-001
5.746831e+002, 1.190246e-001
5.766116e+002, 1.200910e-001
5.785400e+002, 1.207931e-001
5.804685e+002, 1.210626e-001
5.823970e+002, 1.216471e-001
5.843254e+002, 1.227575e-001
5.862539e+002, 1.233795e-001
5.881824e+002, 1.240689e-001
5.901108e+002, 1.247007e-001
5.920393e+002, 1.247083e-001
5.939678e+002, 1.250247e-001
5.958962e+002, 1.253257e-001
5.978247e+002, 1.252388e-001
5.997532e+002, 1.254571e-001
6.016816e+002, 1.260988e-001
6.036101e+002, 1.264378e-001
6.055386e+002, 1.261305e-001
6.074670e+002, 1.250527e-001
6.093955e+002, 1.229882e-001
6.113240e+002, 1.196695e-001
6.132524e+002, 1.145656e-001
6.151809e+002, 1.081048e-001
6.171094e+002, 1.011717e-001
6.190378e+002, 9.260167e-002
6.209663e+002, 8.265403e-002
6.228948e+002, 7.255627e-002
6.248232e+002, 6.349048e-002
6.267517e+002, 5.712046e-002
6.286802e+002, 5.423263e-002
6.306086e+002, 5.449722e-002
6.325371e+002, 5.718628e-002
6.344656e+002, 6.202046e-002
6.363940e+002, 6.813044e-002
6.383225e+002, 7.290797e-002
6.402510e+002, 7.443575e-002
6.421794e+002, 7.413442e-002
6.441079e+002, 7.339369e-002
6.460364e+002, 7.326090e-002
6.479648e+002, 7.422571e-002
6.498933e+002, 7.620468e-002
6.518218e+002, 7.835696e-002
6.537502e+002, 8.114111e-002
6.556787e+002, 8.424707e-002
6.576072e+002, 8.715720e-002
6.595356e+002, 8.993202e-002
6.614641e+002, 9.260807e-002
6.633926e+002, 9.523052e-002
6.653210e+002, 9.754453e-002
6.672495e+002, 9.964583e-002
6.691780e+002, 1.012550e-001
6.711064e+002, 1.016268e-001
6.730349e+002, 1.009653e-001
6.749634e+002, 9.910364e-002
6.768918e+002, 9.586323e-002
6.788203e+002, 9.171090e-002
6.807488e+002, 8.771758e-002
6.826772e+002, 8.421601e-002
6.846057e+002, 8.147455e-002
6.865342e+002, 7.939156e-002
6.884626e+002, 7.821179e-002
6.903911e+002, 7.796882e-002
6.923196e+002, 7.886787e-002
6.942480e+002, 8.126543e-002
6.961765e+002, 8.446547e-002
6.981050e+002, 8.751147e-002
7.000334e+002, 8.954225e-002
7.019619e+002, 9.047470e-002
7.038904e+002, 9.059536e-002
7.058188e+002, 9.015636e-002
7.077473e+002, 8.968438e-002
7.096758e+002, 8.960118e-002
7.116042e+002, 8.963659e-002
7.135327e+002, 9.026784e-002
7.154612e+002, 9.179360e-002
7.173896e+002, 9.368856e-002
7.193181e+002, 9.576701e-002
7.212466e+002, 9.776776e-002
7.231750e+002, 9.949315e-002
7.251035e+002, 1.010143e-001
7.270320e+002, 1.025567e-001
7.289604e+002, 1.039332e-001
7.308889e+002, 1.054763e-001
7.328174e+002, 1.065838e-001
7.347458e+002, 1.074176e-001
7.366743e+002, 1.085474e-001
7.386028e+002, 1.095430e-001
7.405313e+002, 1.102151e-001
7.424597e+002, 1.110727e-001
7.443882e+002, 1.116718e-001
7.463167e+002, 1.121261e-001
7.482451e+002, 1.125509e-001
7.501736e+002, 1.128526e-001
7.521021e+002, 1.135585e-001
7.540305e+002, 1.137542e-001
7.559590e+002, 1.135483e-001
7.578875e+002, 1.132794e-001
7.598159e+002, 1.127797e-001
7.617444e+002, 1.122379e-001
7.636729e+002, 1.120037e-001
7.656013e+002, 1.115884e-001
7.675298e+002, 1.106950e-001
7.694583e+002, 1.097121e-001
7.713867e+002, 1.087714e-001
7.733152e+002, 1.081875e-001
7.752437e+002, 1.079215e-001
7.771721e+002, 1.076778e-001
7.791006e+002, 1.076291e-001
7.810291e+002, 1.078739e-001
7.829575e+002, 1.084442e-001
7.848860e+002, 1.092214e-001
7.868145e+002, 1.099825e-001
7.887429e+002, 1.105717e-001
7.906714e+002, 1.112605e-001
7.925999e+002, 1.117812e-001
7.945283e+002, 1.123743e-001
7.964568e+002, 1.131115e-001
7.983853e+002, 1.139983e-001
8.003137e+002, 1.147790e-001
8.022422e+002, 1.152131e-001
8.041707e+002, 1.158603e-001
8.060991e+002, 1.162998e-001
8.080276e+002, 1.167874e-001
8.099561e+002, 1.175901e-001
8.118845e+002, 1.182392e-001
8.138130e+002, 1.188259e-001
8.157415e+002, 1.195227e-001
8.176699e+002, 1.200856e-001
8.195984e+002, 1.205779e-001
8.215269e+002, 1.211011e-001
8.234553e+002, 1.216276e-001
8.253838e+002, 1.219802e-001
8.273123e+002, 1.224482e-001
8.292407e+002, 1.227773e-001
8.311692e+002, 1.231288e-001
8.330977e+002, 1.231752e-001
8.350261e+002, 1.234930e-001
8.369546e+002, 1.239768e-001
8.388831e+002, 1.240805e-001
8.408115e+002, 1.238703e-001
8.427400e+002, 1.240376e-001
8.446685e+002, 1.239771e-001
8.465969e+002, 1.234495e-001
8.485254e+002, 1.230756e-001
8.504539e+002, 1.227591e-001
8.523823e+002, 1.223252e-001
8.543108e+002, 1.221382e-001
8.562393e+002, 1.218954e-001
8.581677e+002, 1.216686e-001
8.600962e+002, 1.213222e-001
8.620247e+002, 1.209325e-001
8.639531e+002, 1.209277e-001
8.658816e+002, 1.209435e-001
8.678101e+002, 1.208794e-001
8.697385e+002, 1.207493e-001
8.716670e+002, 1.207087e-001
8.735955e+002, 1.208557e-001
8.755239e+002, 1.210855e-001
8.774524e+002, 1.211298e-001
8.793809e+002, 1.208785e-001
8.813093e+002, 1.208171e-001
8.832378e+002, 1.211311e-001
8.851663e+002, 1.212583e-001
8.870947e+002, 1.211552e-001
8.890232e+002, 1.211205e-001
8.909517e+002, 1.212952e-001
8.928801e+002, 1.218001e-001
8.948085e+002, 1.221627e-001
8.967370e+002, 1.223071e-001
8.986655e+002, 1.224221e-001
9.005939e+002, 1.225269e-001
9.025224e+002, 1.225219e-001
9.044509e+002, 1.225196e-001
9.063793e+002, 1.228548e-001
9.083078e+002, 1.232271e-001
9.102363e+002, 1.233538e-001
9.121647e+002, 1.229594e-001
9.140932e+002, 1.223388e-001
9.160217e+002, 1.220887e-001
9.179501e+002, 1.217407e-001
9.198786e+002, 1.211005e-001
9.218071e+002, 1.203147e-001
9.237355e+002, 1.196781e-001
9.256640e+002, 1.189759e-001
9.275925e+002, 1.182188e-001
9.295209e+002, 1.172461e-001
9.314494e+002, 1.159566e-001
9.333779e+002, 1.145531e-001
9.353063e+002, 1.130051e-001
9.372348e+002, 1.116161e-001
9.391633e+002, 1.100823e-001
9.410917e+002, 1.083842e-001
9.430202e+002, 1.067796e-001
9.449487e+002, 1.050838e-001
9.468771e+002, 1.033877e-001
9.488056e+002, 1.019424e-001
9.507341e+002, 1.003781e-001
9.526625e+002, 9.869546e-002
9.545910e+002, 9.700719e-002
9.565195e+002, 9.533561e-002
9.584479e+002, 9.406441e-002
9.603764e+002, 9.298287e-002
9.623049e+002, 9.179776e-002
9.642333e+002, 9.070756e-002
9.661618e+002, 8.958354e-002
9.680903e+002, 8.851112e-002
9.700187e+002, 8.757863e-002
9.719472e+002, 8.655371e-002
9.738757e+002, 8.544169e-002
9.758041e+002, 8.442785e-002
9.777326e+002, 8.339620e-002
9.796611e+002, 8.233186e-002
9.815895e+002, 8.121777e-002
9.835180e+002, 7.990847e-002
9.854465e+002, 7.881540e-002
9.873749e+002, 7.774704e-002
9.893034e+002, 7.676422e-002
9.912319e+002, 7.588823e-002
9.931603e+002, 7.506225e-002
9.950888e+002, 7.401352e-002
9.970173e+002, 7.327361e-002
9.989457e+002, 7.281771e-002
1.000874e+003, 7.214753e-002
1.002803e+003, 7.177383e-002
1.004731e+003, 7.199142e-002
1.006660e+003, 7.245059e-002
1.008588e+003, 7.309140e-002
1.010517e+003, 7.396045e-002
1.012445e+003, 7.464666e-002
1.014373e+003, 7.515246e-002
1.016302e+003, 7.533883e-002
1.018230e+003, 7.522757e-002
1.020159e+003, 7.505251e-002
1.022087e+003, 7.455750e-002
1.024016e+003, 7.412949e-002
1.025944e+003, 7.367676e-002
1.027873e+003, 7.297147e-002
1.029801e+003, 7.237104e-002
1.031730e+003, 7.154324e-002
1.033658e+003, 7.059053e-002
1.035587e+003, 6.993031e-002
1.037515e+003, 6.909074e-002
1.039444e+003, 6.804570e-002
1.041372e+003, 6.706105e-002
1.043301e+003, 6.625900e-002
1.045229e+003, 6.547771e-002
1.047157e+003, 6.468520e-002
1.049086e+003, 6.392566e-002
1.051014e+003, 6.343883e-002
1.052943e+003, 6.285305e-002
1.054871e+003, 6.228098e-002
1.056800e+003, 6.168666e-002
1.058728e+003, 6.102783e-002
1.060657e+003, 6.024406e-002
1.062585e+003, 5.902293e-002
1.064514e+003, 5.746320e-002
1.066442e+003, 5.592515e-002
1.068371e+003, 5.407216e-002
1.070299e+003, 5.184036e-002
1.072228e+003, 4.978718e-002
1.074156e+003, 4.815079e-002
1.076084e+003, 4.675433e-002
1.078013e+003, 4.582071e-002
1.079941e+003, 4.488246e-002
1.081870e+003, 4.424573e-002
1.083798e+003, 4.400554e-002
1.085727e+003, 4.398149e-002
1.087655e+003, 4.408551e-002
1.089584e+003, 4.434348e-002
1.091512e+003, 4.489313e-002
1.093441e+003, 4.564319e-002
1.095369e+003, 4.654416e-002
1.097298e+003, 4.761542e-002
1.099226e+003, 4.891144e-002
1.101155e+003, 5.033869e-002
1.103083e+003, 5.173379e-002
1.105011e+003, 5.332487e-002
1.106940e+003, 5.497917e-002
1.108868e+003, 5.671709e-002
1.110797e+003, 5.835177e-002
1.112725e+003, 5.961815e-002
1.114654e+003, 6.079233e-002
1.116582e+003, 6.190103e-002
1.118511e+003, 6.294570e-002
1.120439e+003, 6.410917e-002
1.122368e+003, 6.514326e-002
1.124296e+003, 6.597792e-002
1.126225e+003, 6.663302e-002
1.128153e+003, 6.718574e-002
1.130082e+003, 6.768055e-002
1.132010e+003, 6.787211e-002
1.133938e+003, 6.812660e-002
1.135867e+003, 6.834169e-002
1.137795e+003, 6.830622e-002
1.139724e+003, 6.832404e-002
1.141652e+003, 6.811161e-002
1.143581e+003, 6.740234e-002
1.145509e+003, 6.681585e-002
1.147438e+003, 6.631584e-002
1.149366e+003, 6.560473e-002
1.151295e+003, 6.468749e-002
1.153223e+003, 6.393220e-002
1.155152e+003, 6.299951e-002
1.157080e+003, 6.183622e-002
1.159009e+003, 6.066279e-002
1.160937e+003, 5.939591e-002
1.162865e+003, 5.804649e-002
1.164794e+003, 5.668473e-002
1.166722e+003, 5.523695e-002
1.168651e+003, 5.376246e-002
1.170579e+003, 5.226769e-002
1.172508e+003, 5.062138e-002
1.174436e+003, 4.891581e-002
1.176365e+003, 4.720452e-002
1.178293e+003, 4.548473e-002
1.180222e+003, 4.359908e-002
1.182150e+003, 4.180007e-002
1.184079e+003, 4.011165e-002
1.186007e+003, 3.816351e-002
1.187936e+003, 3.631902e-002
1.189864e+003, 3.477474e-002
1.191792e+003, 3.306696e-002
1.193721e+003, 3.141667e-002
1.195649e+003, 2.982763e-002
1.197578e+003, 2.823106e-002
1.199506e+003, 2.669002e-002
1.201435e+003, 2.525256e-002
1.203363e+003, 2.407464e-002
1.205292e+003, 2.297735e-002
1.207220e+003, 2.193861e-002
1.209149e+003, 2.111656e-002
1.211077e+003, 2.052728e-002
1.213006e+003, 1.984214e-002
1.214934e+003, 1.911053e-002
1.216863e+003, 1.835314e-002
1.218791e+003, 1.761350e-002
1.220719e+003, 1.707042e-002
1.222648e+003, 1.649920e-002
1.224576e+003, 1.569507e-002
1.226505e+003, 1.504983e-002
1.228433e+003, 1.443218e-002
1.230362e+003, 1.369064e-002
1.232290e+003, 1.288242e-002
1.234219e+003, 1.218274e-002
1.236147e+003, 1.162587e-002
1.238076e+003, 1.116694e-002
1.240004e+003, 1.070021e-002
1.241933e+003, 1.027933e-002
1.243861e+003, 9.893091e-003
1.245790e+003, 9.432815e-003
1.247718e+003, 8.938629e-003
1.249646e+003, 8.535931e-003
1.251575e+003, 8.212400e-003
1.253503e+003, 7.821452e-003
1.255432e+003, 7.373282e-003
1.257360e+003, 6.980428e-003
1.259289e+003, 6.578684e-003
1.261217e+003, 6.042376e-003
1.263146e+003, 5.517981e-003
1.265074e+003, 5.193320e-003
1.267003e+003, 4.960582e-003
1.268931e+003, 4.500042e-003
1.270860e+003, 3.940143e-003
1.272788e+003, 3.518289e-003
1.274717e+003, 3.126580e-003
1.276645e+003, 2.794059e-003
1.278573e+003, 2.574129e-003
1.280502e+003, 2.294139e-003
1.282430e+003, 2.132530e-003
1.284359e+003, 2.078518e-003
1.286287e+003, 1.882795e-003
1.288216e+003, 1.831313e-003
1.290144e+003, 1.802067e-003
1.292073e+003, 1.644375e-003
1.294001e+003, 1.435093e-003
1.295930e+003, 1.276926e-003
1.297858e+003, 1.088413e-003
1.299787e+003, 9.823858e-004
1.301715e+003, 1.054334e-003
1.303644e+003, 9.990789e-004
1.305572e+003, 9.383345e-004
1.307500e+003, 1.026203e-003
1.309429e+003, 9.427854e-004
1.311357e+003, 9.022473e-004
1.313286e+003, 9.310844e-004
1.315214e+003, 8.263635e-004
1.317143e+003, 7.713378e-004
1.319071e+003, 8.196681e-004
1.321000e+003, 8.143350e-004
1.322928e+003, 7.228198e-004
1.324857e+003, 6.778052e-004
1.326785e+003, 6.680595e-004
1.328714e+003, 6.281983e-004
1.330642e+003, 6.318022e-004
1.332571e+003, 5.778884e-004
1.334499e+003, 4.482418e-004
1.336427e+003, 3.933287e-004
1.338356e+003, 3.785772e-004
1.340284e+003, 3.959780e-004
1.342213e+003, 4.505867e-004
1.344141e+003, 3.833185e-004
1.346070e+003, 3.474616e-004
1.347998e+003, 3.303150e-004
1.349927e+003, 1.554039e-004
1.351855e+003, 9.001537e-005
1.353784e+003, 1.333350e-004
1.355712e+003, 1.584406e-004
1.357641e+003, 2.298045e-004
1.359569e+003, 3.394170e-004
1.361498e+003, 3.707301e-004
1.363426e+003, 1.442792e-004
1.365354e+003, 7.416319e-005
1.367283e+003, 1.873240e-005
1.369211e+003, -5.553829e-007
1.371140e+003, 1.291347e-004
1.373068e+003, 2.685365e-004
1.374997e+003, 3.729643e-004
1.376925e+003, 2.831202e-004
1.378854e+003, 9.781171e-005
1.380782e+003, -1.216950e-004
1.382711e+003, -3.606997e-005
1.384639e+003, 1.204672e-004
1.386568e+003, 3.138583e-005
1.388496e+003, -5.482506e-005
1.390424e+003, 2.186775e-004
1.392353e+003, 2.172116e-004
1.394281e+003, 1.679494e-004
1.396210e+003, 2.015159e-005
1.398138e+003, -3.136151e-005
1.400067e+003, 6.835644e-005
1.401995e+003, 2.637835e-004
1.403924e+003, 2.564868e-004
1.405852e+003, 2.054079e-004
1.407781e+003, 3.179262e-004
1.409709e+003, 2.970019e-004
1.411638e+003, 2.265803e-004
1.413566e+003, 1.222701e-004
1.415495e+003, 1.065403e-004
1.417423e+003, 2.858657e-004
1.419351e+003, 2.769327e-004
1.421280e+003, 2.404377e-004
1.423208e+003, 1.999049e-004
1.425137e+003, 2.249330e-004
1.427065e+003, 2.274327e-004
1.428994e+003, 1.753323e-004
1.430922e+003, 1.814180e-004
1.432851e+003, 1.766204e-004
1.434779e+003, 6.326732e-005
1.436708e+003, -1.060563e-004
1.438636e+003, 6.586837e-005
1.440565e+003, 2.437708e-004
1.442493e+003, 9.169774e-005
1.444422e+003, -5.546954e-005
1.446350e+003, 1.435476e-006
1.448278e+003, 1.925841e-004
1.450207e+003, 1.405369e-004
1.452135e+003, -6.150698e-005
1.454064e+003, -8.131292e-005
1.455992e+003, -2.249112e-004
1.457921e+003, -4.371832e-004
1.459849e+003, -2.215872e-004
1.461778e+003, -1.057861e-004
1.463706e+003, 5.828397e-005
1.465635e+003, -7.363878e-005
1.467563e+003, -8.671841e-005
1.469492e+003, -1.300123e-004
1.471420e+003, -1.328064e-004
1.473349e+003, -1.860789e-004
1.475277e+003, -4.054809e-005
1.477205e+003, 7.143673e-005
1.479134e+003, 2.775670e-004
1.481062e+003, 3.129508e-004
1.482991e+003, 3.700219e-004
1.484919e+003, 2.450112e-004
1.486848e+003, 4.658747e-005
1.488776e+003, -9.674568e-005
1.490705e+003, -2.250049e-004
1.492633e+003, -4.963054e-006
1.494562e+003, 9.439093e-005
1.496490e+003, -1.129725e-004
1.498419e+003, -1.723800e-004
1.500347e+003, -1.686481e-004
1.502276e+003, -5.803951e-005
1.504204e+003, -3.347567e-005
1.506132e+003, -1.156150e-004
1.508061e+003, -1.291053e-004
1.509989e+003, -4.969725e-005
1.511918e+003, -2.159417e-004
1.513846e+003, -4.216523e-004
1.515775e+003, -3.007904e-004
1.517703e+003, -2.418988e-004
1.519632e+003, -2.177079e-006
1.521560e+003, -2.270487e-004
1.523489e+003, -2.942982e-004
1.525417e+003, -3.129381e-004
1.527346e+003, -2.744979e-004
1.529274e+003, -1.898178e-004
1.531203e+003, -2.148823e-004
1.533131e+003, -1.351220e-004
1.535059e+003, -8.016807e-005
1.536988e+003, 5.348492e-005
1.538916e+003, -1.409967e-004
1.540845e+003, -4.977806e-004
1.542773e+003, -3.732027e-004
1.544702e+003, -2.038251e-004
1.546630e+003, -1.697536e-004
1.548559e+003, -7.718120e-005
1.550487e+003, -1.487194e-004
1.552416e+003, -6.255240e-005
1.554344e+003, -1.161050e-004
1.556273e+003, 1.148476e-004
1.558201e+003, 2.810942e-005
1.560130e+003, -2.276671e-004
1.562058e+003, 1.120739e-004
1.563986e+003, 2.475926e-004
1.565915e+003, 2.024120e-004
1.567843e+003, 2.619419e-004
1.569772e+003, 1.647987e-004
1.571700e+003, 1.682625e-004
1.573629e+003, 1.044133e-004
1.575557e+003, -2.659493e-006
1.577486e+003, 1.290696e-004
1.579414e+003, 4.287834e-004
1.581343e+003, 4.218649e-004
1.583271e+003, 3.648143e-004
1.585200e+003, 3.420241e-004
1.587128e+003, 3.395968e-004
1.589057e+003, 4.592889e-004
1.590985e+003, 7.519432e-004
1.592913e+003, 6.359753e-004
1.594842e+003, 4.387086e-004
1.596770e+003, 5.371979e-004
1.598699e+003, 6.743027e-004
1.600627e+003, 7.389749e-004
1.602556e+003, 7.885229e-004
1.604484e+003, 6.588874e-004
1.606413e+003, 5.935389e-004
1.608341e+003, 6.060489e-004
1.610270e+003, 6.567896e-004
1.612198e+003, 6.699053e-004
1.614127e+003, 6.379765e-004
1.616055e+003, 7.218068e-004
1.617984e+003, 8.433464e-004
1.619912e+003, 1.052436e-003
1.621840e+003, 9.106260e-004
1.623769e+003, 8.819081e-004
1.625697e+003, 1.289614e-003
1.627626e+003, 1.232608e-003
1.629554e+003, 9.702497e-004
1.631483e+003, 1.189804e-003
1.633411e+003, 1.431085e-003
1.635340e+003, 1.233900e-003
1.637268e+003, 1.183861e-003
1.639197e+003, 1.327613e-003
1.641125e+003, 1.328221e-003
1.643054e+003, 1.322077e-003
1.644982e+003, 1.378789e-003
1.646911e+003, 1.063624e-003
1.648839e+003, 9.877388e-004
1.650767e+003, 1.113129e-003
1.652696e+003, 9.882733e-004
1.654624e+003, 8.409118e-004
1.656553e+003, 8.696237e-004
1.658481e+003, 6.507522e-004
1.660410e+003, 6.142043e-004
1.662338e+003, 5.331746e-004
1.664267e+003, 4.190467e-004
1.666195e+003, 5.525895e-004
1.668124e+003, 5.567896e-004
1.670052e+003, 3.359485e-004
1.671981e+003, 2.214937e-004
1.673909e+003, 2.174236e-004
1.675838e+003, 2.217647e-004
1.677766e+003, 3.715407e-004
1.679694e+003, 3.264104e-004
1.681623e+003, 4.679941e-004
1.683551e+003, 6.828301e-004
1.685480e+003, 3.223371e-004
1.687408e+003, 3.431419e-004
1.689337e+003, 2.079000e-004
1.691265e+003, 3.147864e-004
1.693194e+003, 4.137911e-004
1.695122e+003, 5.464216e-004
1.697051e+003, 1.552962e-004
1.698979e+003, 1.544604e-004
1.700908e+003, -2.705205e-004
1.702836e+003, 1.056793e-004
1.704765e+003, 9.798606e-005
1.706693e+003, 2.763968e-004
1.708621e+003, 4.182629e-004
1.710550e+003, -1.166546e-004
1.712478e+003, -3.321292e-004
1.714407e+003, -2.097277e-004
1.716335e+003, -1.758353e-004
1.718264e+003, -3.821731e-004
1.720192e+003, -3.393644e-004
1.722121e+003, -6.238699e-004
1.724049e+003, -6.028716e-004
1.725978e+003, 3.585691e-005
1.727906e+003, 8.924044e-006
1.729835e+003, -3.871597e-004
1.731763e+003, -7.362443e-004
1.733692e+003, -1.234225e-003
1.735620e+003, -1.419378e-003
1.737548e+003, -9.091545e-004
1.739477e+003, -1.247858e-003
1.741405e+003, -1.702249e-003
1.743334e+003, -1.712800e-003
1.745262e+003, -1.618993e-003
1.747191e+003, -1.380777e-003
1.749119e+003, -1.150198e-003
1.751048e+003, -1.039925e-003
1.752976e+003, -1.057489e-003
1.754905e+003, -9.421950e-004
1.756833e+003, -9.179521e-004
1.758762e+003, -7.230327e-004
1.760690e+003, -7.784544e-004
1.762619e+003, -9.304443e-004
1.764547e+003, -7.992302e-004
1.766475e+003, -1.027276e-003
1.768404e+003, -1.102576e-003
1.770332e+003, -8.414711e-004
1.772261e+003, -7.137284e-004
1.774189e+003, -6.337825e-004
1.776118e+003, -4.809092e-004
1.778046e+003, -4.862261e-004
1.779975e+003, -4.042704e-004
1.781903e+003, -3.623902e-004
1.783832e+003, -4.341361e-004
1.785760e+003, -5.683377e-004
1.787689e+003, -4.813251e-004
1.789617e+003, -7.120339e-004
1.791546e+003, -7.925899e-004
1.793474e+003, -5.947007e-004
1.795402e+003, -4.771808e-004
1.797331e+003, -6.766932e-004
1.799259e+003, -7.324230e-004
1.801188e+003, -5.696648e-004
1.803116e+003, -4.542485e-004
1.805045e+003, -5.497251e-004
1.806973e+003, -8.364604e-004
1.808902e+003, -1.047844e-003
1.810830e+003, -9.841707e-004
1.812759e+003, -8.436208e-004
1.814687e+003, -7.660550e-004
1.816616e+003, -8.631656e-004
1.818544e+003, -4.854563e-004
1.820473e+003, 5.472159e-005
1.822401e+003, -6.712469e-005
1.824329e+003, -1.773754e-004
1.826258e+003, -2.618882e-004
1.828186e+003, -4.854113e-004
1.830115e+003, -6.278326e-004
1.832043e+003, -4.559548e-004
1.833972e+003, -8.222926e-004
1.835900e+003, -8.369249e-004
1.837829e+003, -6.604774e-004
1.839757e+003, -5.027057e-004
1.841686e+003, -2.830189e-004
1.843614e+003, -1.283912e-004
1.845543e+003, -2.567479e-004
1.847471e+003, -5.102695e-004
1.849400e+003, -8.516143e-004
1.851328e+003, -8.848200e-004
1.853256e+003, -9.471884e-004
1.855185e+003, -1.035049e-003
1.857113e+003, -1.011227e-003
1.859042e+003, -8.479654e-004
1.860970e+003, -5.924103e-004
1.862899e+003, -2.455438e-004
1.864827e+003, -1.769574e-004
1.866756e+003, -3.549626e-004
1.868684e+003, -2.873512e-004
1.870613e+003, -2.708178e-004
1.872541e+003, -3.586838e-004
1.874470e+003, -3.328864e-004
1.876398e+003, -6.355309e-004
1.878327e+003, -6.471183e-004
1.880255e+003, -3.613089e-004
1.882183e+003, -6.691620e-004
1.884112e+003, -8.047986e-004
1.886040e+003, -8.049724e-004
1.887969e+003, -1.389709e-003
1.889897e+003, -1.431349e-003
1.891826e+003, -1.182657e-003
1.893754e+003, -9.047099e-004
1.895683e+003, -1.258054e-003
1.897611e+003, -1.240159e-003
1.899540e+003, -9.760892e-004
1.901468e+003, -5.062151e-004
1.903397e+003, -2.077136e-004
1.905325e+003, -8.103959e-004
1.907254e+003, -1.442188e-003
1.909182e+003, -1.626742e-003
1.911110e+003, -1.583953e-003
1.913039e+003, -1.293721e-003
1.914967e+003, -1.196773e-003
1.916896e+003, -1.292403e-003
1.918824e+003, -1.085503e-003
1.920753e+003, -6.384444e-004
1.922681e+003, -7.004545e-004
1.924610e+003, -1.642523e-003
1.926538e+003, -2.203903e-003
1.928467e+003, -1.864724e-003
1.930395e+003, -1.548899e-003
1.932324e+003, -1.899681e-003
1.934252e+003, -2.171942e-003
1.936181e+003, -1.495476e-003
1.938109e+003, -2.013516e-003
1.940037e+003, -2.454331e-003
1.941966e+003, -2.946197e-003
1.943894e+003, -3.060250e-003
1.945823e+003, -2.469745e-003
1.947751e+003, -1.694354e-003
1.949680e+003, -2.124272e-003
1.951608e+003, -2.208442e-003
1.953537e+003, -1.433966e-003
1.955465e+003, -2.321239e-003
1.957394e+003, -2.474310e-003
1.959322e+003, -1.551870e-003
1.961251e+003, -1.485359e-003
1.963179e+003, -2.377491e-003
1.965108e+003, -2.035415e-003
1.967036e+003, -1.498703e-003
1.968964e+003, -1.991723e-003
1.970893e+003, -1.454441e-003
1.972821e+003, -1.300176e-003
1.974750e+003, -1.035069e-003
1.976678e+003, 3.621975e-004
1.978607e+003, 1.974504e-003
1.980535e+003, 1.991554e-003
1.982464e+003, 1.420656e-003
1.984392e+003, 1.368031e-004
1.986321e+003, -7.485113e-004
1.988249e+003, -5.171507e-004
1.990178e+003, -8.232489e-004
1.992106e+003, -1.843770e-003
1.994035e+003, -1.517872e-003
1.995963e+003, -1.541246e-003
1.997891e+003, -1.314493e-003
1.999820e+003, -1.513659e-003
2.001748e+003, -2.430498e-003
2.003677e+003, -3.011164e-003
2.005605e+003, -1.694151e-003
2.007534e+003, -9.794576e-004
2.009462e+003, -1.101489e-003
2.011391e+003, -3.313879e-004
2.013319e+003, -1.989693e-003
2.015248e+003, -3.755318e-003
2.017176e+003, -3.134459e-003
2.019105e+003, -2.429058e-003
2.021033e+003, -1.984240e-003
2.022962e+003, -1.319000e-003
2.024890e+003, -1.198229e-003
2.026818e+003, -1.131444e-003
2.028747e+003, -4.709659e-004
2.030675e+003, -7.720501e-004
2.032604e+003, -1.766315e-003
2.034532e+003, -8.953296e-004
2.036461e+003, 2.058952e-003
2.038389e+003, 1.289197e-003
2.040318e+003, -1.063444e-004
2.042246e+003, -7.512632e-004
2.044175e+003, -2.356763e-003
2.046103e+003, -1.167645e-003
2.048032e+003, 1.460679e-004
2.049960e+003, 5.862184e-004
2.051889e+003, 2.538911e-004
2.053817e+003, 7.449200e-005
2.055746e+003, -1.195018e-003
2.057674e+003, -2.236916e-003
2.059603e+003, -1.594819e-003
2.061531e+003, -1.052694e-003
2.063459e+003, -2.853153e-004
2.065388e+003, 1.911295e-004
2.067316e+003, -9.084040e-004
2.069245e+003, -1.904242e-003
2.071173e+003, -1.640958e-003
2.073102e+003, -1.095585e-003
2.075030e+003, -6.050663e-004
2.076959e+003, -4.659443e-004
2.078887e+003, -8.268549e-004
2.080816e+003, -5.075386e-004
2.082744e+003, 1.645676e-004
2.084673e+003, 1.533189e-004
2.086601e+003, -5.198039e-004
2.088530e+003, -1.175149e-003
2.090458e+003, -4.057778e-004
2.092386e+003, -6.122234e-004
2.094315e+003, -9.948768e-004
2.096243e+003, -5.365849e-004
2.098172e+003, -5.807129e-004
2.100100e+003, -9.698966e-004
2.102029e+003, -9.659190e-004
2.103957e+003, -8.365731e-004
2.105886e+003, 1.212900e-004
2.107814e+003, -1.971294e-004
2.109743e+003, -7.156729e-004
2.111671e+003, -5.890077e-004
2.113600e+003, -4.389930e-004
2.115528e+003, -9.515490e-004
2.117457e+003, -1.925484e-003
2.119385e+003, -1.659999e-003
2.121313e+003, -8.831671e-004
2.123242e+003, -9.546047e-004
2.125170e+003, -1.554598e-003
2.127099e+003, -1.939397e-003
2.129027e+003, -2.806121e-003
2.130956e+003, -3.823951e-003
2.132884e+003, -3.119899e-003
2.134813e+003, -2.055064e-003
2.136741e+003, -2.648643e-003
2.138670e+003, -3.587877e-003
2.140598e+003, -3.644810e-003
2.142527e+003, -3.208228e-003
2.144455e+003, -1.476079e-003
2.146384e+003, -1.050282e-003
2.148312e+003, -2.667540e-003
2.150240e+003, -4.076729e-003
2.152169e+003, -4.665026e-003
2.154097e+003, -6.068434e-003
2.156026e+003, -5.940140e-003
2.157954e+003, -4.181341e-003
2.159883e+003, -2.690125e-003
2.161811e+003, -2.623459e-003
2.163740e+003, -2.015121e-003
2.165668e+003, -1.887881e-003
2.167597e+003, -6.724161e-004
2.169525e+003, -3.866435e-004
2.171454e+003, -1.486643e-003
2.173382e+003, -1.078265e-003
2.175311e+003, -1.829253e-003
2.177239e+003, -2.114302e-003
2.179167e+003, -2.150181e-003
2.181096e+003, -6.891827e-004
2.183024e+003, 1.265509e-003
2.184953e+003, 4.284693e-004
2.186881e+003, -1.535286e-004
2.188810e+003, -9.427863e-006
2.190738e+003, -2.138943e-004
2.192667e+003, -1.239654e-003
2.194595e+003, -8.959511e-004
2.196524e+003, -1.034809e-003
2.198452e+003, -1.276467e-003
2.200381e+003, -2.064850e-003
2.202309e+003, -3.796685e-003
2.204238e+003, -3.087950e-003
2.206166e+003, -9.597464e-004
2.208094e+003, -6.304223e-004
2.210023e+003, -8.961288e-004
2.211951e+003, -1.394935e-003
2.213880e+003, -7.164432e-004
2.215808e+003, -7.115759e-004
2.217737e+003, -1.445758e-003
2.219665e+003, -1.023907e-003
2.221594e+003, -5.810757e-004
2.223522e+003, -1.319790e-006
2.225451e+003, -7.028794e-004
2.227379e+003, -1.710095e-003
2.229308e+003, -2.083623e-003
2.231236e+003, -2.087534e-003
2.233165e+003, -6.277714e-004
2.235093e+003, 2.218495e-004
2.237021e+003, -1.765248e-004
2.238950e+003, -8.486400e-004
2.240878e+003, -1.035857e-003
2.242807e+003, -1.459934e-003
2.244735e+003, -2.001180e-003
2.246664e+003, -1.693919e-003
2.248592e+003, -1.015664e-003
2.250521e+003, -1.673824e-003
2.252449e+003, -2.398003e-003
2.254378e+003, -1.619757e-003
2.256306e+003, -1.256840e-003
2.258235e+003, -6.922439e-004
2.260163e+003, -3.764923e-004
2.262092e+003, -7.475659e-004
2.264020e+003, -1.036553e-003
2.265948e+003, -9.079587e-004
2.267877e+003, -1.159103e-003
2.269805e+003, -1.075026e-003
2.271734e+003, -1.054976e-003
2.273662e+003, -8.630434e-004
2.275591e+003, -6.917445e-004
2.277519e+003, -4.623144e-004
2.279448e+003, -3.528188e-004
2.281376e+003, -2.729756e-004
2.283305e+003, -2.357987e-004
2.285233e+003, -6.598433e-004
2.287162e+003, -1.145773e-003
2.289090e+003, -7.443969e-004
2.291019e+003, -3.599526e-005
2.292947e+003, -4.149048e-004
2.294875e+003, -8.666833e-004
2.296804e+003, -4.509927e-004
2.298732e+003, -3.431596e-004
2.300661e+003, -8.573308e-004
2.302589e+003, -1.185357e-003
2.304518e+003, -8.261172e-004
2.306446e+003, -2.569730e-004
2.308375e+003, 3.506031e-004
2.310303e+003, 6.754764e-004
2.312232e+003, 2.748518e-004
2.314160e+003, -3.091772e-004
2.316089e+003, -4.323659e-004
2.318017e+003, 4.591479e-004
2.319946e+003, 1.149124e-003
2.321874e+003, 1.385471e-003
2.323802e+003, 1.437611e-003
2.325731e+003, 6.764113e-004
2.327659e+003, 1.247462e-004
2.329588e+003, -3.862733e-004
2.331516e+003, -7.236371e-004
2.333445e+003, -4.628900e-004
2.335373e+003, -1.285451e-004
2.337302e+003, -1.624545e-004
2.339230e+003, -5.963081e-004
2.341159e+003, -8.456868e-004
2.343087e+003, -7.952704e-004
2.345016e+003, -7.078841e-004
2.346944e+003, -1.190103e-003
2.348873e+003, -1.205059e-003
2.350801e+003, -8.370260e-004
2.352729e+003, -4.700302e-004
2.354658e+003, -2.175817e-004
2.356586e+003, -1.646145e-004
2.358515e+003, 6.299371e-006
2.360443e+003, -2.833292e-004
2.362372e+003, -6.591060e-004
2.364300e+003, -5.157217e-004
2.366229e+003, -1.002978e-003
2.368157e+003, -1.172735e-003
2.370086e+003, -1.149635e-003
2.372014e+003, -8.680876e-004
2.373942e+003, -6.474170e-004
2.375871e+003, -8.540781e-004
2.377799e+003, -1.365381e-003
2.379728e+003, -9.251155e-004
2.381656e+003, -5.998284e-004
2.383585e+003, -1.037536e-003
2.385513e+003, -1.122831e-003
2.387442e+003, -6.035313e-004
2.389370e+003, -6.748022e-004
2.391299e+003, -1.147973e-003
2.393227e+003, -1.390049e-003
2.395156e+003, -1.172848e-003
2.397084e+003, -1.025689e-003
2.399012e+003, -8.532522e-004
2.400941e+003, -1.752153e-004
2.402869e+003, -6.668494e-005
2.404798e+003, -4.291379e-004
2.406726e+003, -9.866769e-004
2.408655e+003, -3.486902e-004
2.410583e+003, 4.937675e-005
2.412512e+003, -5.470844e-004
2.414440e+003, -8.594717e-004
2.416369e+003, -3.404400e-004
2.418297e+003, -9.124441e-005
2.420226e+003, -2.394875e-004
2.422154e+003, -5.596154e-004
2.424083e+003, -6.880940e-004
2.426011e+003, -6.207590e-004
2.427939e+003, -3.001661e-004
2.429868e+003, -2.290084e-004
2.431796e+003, -4.676936e-004
2.433725e+003, -3.040235e-004
2.435653e+003, 2.947995e-005
2.437582e+003, 4.419909e-004
2.439510e+003, 5.941345e-004
2.441439e+003, 1.884451e-004
2.443367e+003, 1.542627e-004
2.445296e+003, 7.232348e-004
2.447224e+003, 8.688156e-004
2.449153e+003, 6.766292e-004
2.451081e+003, 1.000649e-003
2.453010e+003, 2.955152e-004
2.454938e+003, -1.800461e-004
2.456866e+003, 1.100964e-004
2.458795e+003, -1.160572e-004
2.460723e+003, 2.379728e-004
2.462652e+003, 7.834912e-004
2.464580e+003, 6.854876e-005
2.466509e+003, -5.844695e-004
2.468437e+003, -8.183379e-005
2.470366e+003, -7.624965e-005
2.472294e+003, -1.089644e-003
2.474223e+003, -7.676042e-004
2.476151e+003, 5.632075e-005
2.478080e+003, -1.416744e-005
2.480008e+003, -3.512745e-004
2.481937e+003, -5.129946e-004
2.483865e+003, -6.293745e-004
2.485793e+003, -5.230933e-004
2.487722e+003, -7.549020e-004
2.489650e+003, -1.187274e-003
2.491579e+003, -1.169638e-003
2.493507e+003, -9.424045e-004
2.495436e+003, -1.555565e-004
2.497364e+003, 3.694979e-005
2.499293e+003, 3.612454e-004
2.501221e+003, 2.762209e-004
2.503150e+003, -2.508167e-004
2.505078e+003, 2.269177e-004
2.507007e+003, 6.450046e-004
2.508935e+003, -1.732662e-005
2.510864e+003, -8.647098e-005
2.512792e+003, 6.404135e-004
2.514720e+003, 8.481870e-004
2.516649e+003, 4.656133e-004
2.518577e+003, 4.120400e-004
2.520506e+003, 4.119384e-004
2.522434e+003, -2.100435e-004
2.524363e+003, -1.019907e-003
2.526291e+003, -1.005131e-003
2.528220e+003, 2.626205e-004
2.530148e+003, 4.726440e-004
2.532077e+003, -4.765483e-004
2.534005e+003, -3.999485e-004
2.535934e+003, 9.366514e-005
2.537862e+003, 2.344396e-004
2.539791e+003, 3.841166e-004
2.541719e+003, -2.404396e-004
2.543647e+003, -5.070283e-004
2.545576e+003, -5.653414e-005
2.547504e+003, 6.942886e-004
2.549433e+003, 3.424826e-004
2.551361e+003, -2.345027e-004
2.553290e+003, -9.722393e-005
2.555218e+003, 5.495873e-004
2.557147e+003, 5.181295e-004
2.559075e+003, 6.798520e-005
2.561004e+003, -1.513929e-004
2.562932e+003, -8.654939e-005
2.564861e+003, 2.168817e-004
2.566789e+003, -1.912743e-004
2.568718e+003, -2.711507e-004
2.570646e+003, -1.538335e-004
2.572574e+003, -6.246479e-004
2.574503e+003, -2.912039e-004
2.576431e+003, 9.066979e-004
2.578360e+003, 9.536339e-004
2.580288e+003, 3.454399e-004
2.582217e+003, -2.466530e-004
2.584145e+003, -1.029585e-003
2.586074e+003, -4.108056e-004
2.588002e+003, 5.472974e-004
2.589931e+003, 7.260439e-004
2.591859e+003, 4.795518e-004
2.593788e+003, 6.959094e-004
2.595716e+003, 6.442767e-004
2.597645e+003, 1.891897e-004
2.599573e+003, 2.548918e-004
2.601501e+003, 2.696523e-004
2.603430e+003, -2.086553e-004
2.605358e+003, -2.218420e-004
2.607287e+003, 1.031484e-004
2.609215e+003, 5.724627e-004
2.611144e+003, 1.938114e-004
2.613072e+003, -1.247162e-005
2.615001e+003, -1.213004e-004
2.616929e+003, 3.205454e-006
2.618858e+003, 1.846661e-004
2.620786e+003, 5.171436e-004
2.622715e+003, 1.088345e-003
2.624643e+003, 1.150516e-003
2.626572e+003, 8.493686e-004
2.628500e+003, 3.367506e-004
2.630428e+003, 4.270610e-004
2.632357e+003, 1.002604e-003
2.634285e+003, 9.448089e-004
2.636214e+003, 2.437347e-005
2.638142e+003, -2.816036e-004
2.640071e+003, 3.053376e-005
2.641999e+003, 2.227280e-004
2.643928e+003, 8.112939e-005
2.645856e+003, 1.966615e-004
2.647785e+003, 2.699007e-004
2.649713e+003, 2.438411e-004
2.651642e+003, 2.530706e-004
2.653570e+003, 4.398846e-004
2.655499e+003, 3.886259e-004
2.657427e+003, -1.110176e-004
2.659355e+003, -5.964226e-005
2.661284e+003, -1.961707e-004
2.663212e+003, -5.369098e-004
2.665141e+003, -1.055037e-003
2.667069e+003, -1.100386e-003
2.668998e+003, -7.159968e-004
2.670926e+003, -5.500505e-004
2.672855e+003, -2.233184e-004
2.674783e+003, -2.107192e-004
2.676712e+003, -8.753809e-004
2.678640e+003, -1.086269e-003
2.680569e+003, -1.037891e-003
2.682497e+003, -1.247304e-003
2.684426e+003, -1.164322e-003
2.686354e+003, -7.896744e-004
2.688282e+003, -5.261087e-004
2.690211e+003, -9.302935e-004
2.692139e+003, -8.854132e-004
2.694068e+003, -9.204767e-004
2.695996e+003, -7.248385e-004
2.697925e+003, -4.977020e-004
2.699853e+003, -3.349458e-004
2.701782e+003, -3.977399e-004
2.703710e+003, -9.224507e-005
2.705639e+003, -1.953935e-004
2.707567e+003, -2.549105e-004
2.709496e+003, -4.988934e-005
2.711424e+003, -2.666796e-004
2.713353e+003, -6.276969e-004
2.715281e+003, -5.848900e-004
2.717209e+003, -6.560328e-004
2.719138e+003, -6.750471e-004
2.721066e+003, -8.194194e-004
2.722995e+003, -1.136513e-003
2.724923e+003, -1.348909e-003
2.726852e+003, -6.663948e-004
2.728780e+003, -1.001448e-004
2.730709e+003, 8.680442e-005
2.732637e+003, -2.041249e-004
2.734566e+003, -1.023838e-003
2.736494e+003, -9.118567e-004
2.738423e+003, -5.686465e-004
2.740351e+003, -8.069831e-004
2.742280e+003, -8.110916e-004
2.744208e+003, -7.415119e-004
2.746136e+003, -7.289380e-004
2.748065e+003, -5.638202e-004
2.749993e+003, -3.628311e-004
2.751922e+003, -2.525096e-004
2.753850e+003, -7.800426e-004
2.755779e+003, -1.013345e-003
2.757707e+003, -9.674005e-004
2.759636e+003, -6.532866e-004
2.761564e+003, -7.370522e-004
2.763493e+003, -1.113427e-003
2.765421e+003, -1.044811e-003
2.767350e+003, -7.067962e-004
2.769278e+003, -9.979522e-004
2.771207e+003, -1.302101e-003
2.773135e+003, -1.016417e-003
2.775063e+003, -6.441603e-004
2.776992e+003, -6.542636e-004
2.778920e+003, -7.674449e-004
2.780849e+003, -8.099655e-004
2.782777e+003, -7.885965e-004
2.784706e+003, -6.629952e-004
2.786634e+003, -6.094678e-004
2.788563e+003, -6.857980e-004
2.790491e+003, -9.275242e-004
2.792420e+003, -1.154192e-003
2.794348e+003, -1.246652e-003
2.796277e+003, -1.228723e-003
2.798205e+003, -1.269952e-003
2.800134e+003, -1.017220e-003
2.802062e+003, -1.012818e-003
2.803990e+003, -9.549378e-004
2.805919e+003, -5.761380e-004
2.807847e+003, -3.480327e-004
2.809776e+003, -2.641308e-004
2.811704e+003, -4.692084e-004
2.813633e+003, -5.232066e-004
2.815561e+003, -3.153179e-004
2.817490e+003, -3.515584e-004
2.819418e+003, -1.239015e-004
2.821347e+003, 1.145804e-004
2.823275e+003, -7.124626e-004
2.825204e+003, -9.348431e-004
2.827132e+003, -8.718291e-004
2.829061e+003, -6.273543e-004
2.830989e+003, -1.029171e-003
2.832917e+003, -1.146162e-003
2.834846e+003, -1.921959e-004
2.836774e+003, 1.579832e-004
2.838703e+003, -6.011926e-004
2.840631e+003, -1.181346e-003
2.842560e+003, -1.362232e-003
2.844488e+003, -1.444777e-003
2.846417e+003, -1.766004e-003
2.848345e+003, -1.718193e-003
2.850274e+003, -1.861567e-003
2.852202e+003, -1.780822e-003
2.854131e+003, -1.213220e-003
2.856059e+003, -1.408399e-003
2.857988e+003, -1.901776e-003
2.859916e+003, -1.549810e-003
2.861844e+003, -1.217824e-003
2.863773e+003, -1.134273e-003
2.865701e+003, -1.137313e-003
2.867630e+003, -1.038303e-003
2.869558e+003, -1.267552e-003
2.871487e+003, -1.180386e-003
2.873415e+003, -8.373763e-004
2.875344e+003, -1.409624e-003
2.877272e+003, -1.622528e-003
2.879201e+003, -8.995970e-004
2.881129e+003, -8.707219e-004
2.883058e+003, -1.678260e-003
2.884986e+003, -1.108287e-003
2.886915e+003, -4.639529e-004
2.888843e+003, -7.037350e-004
2.890771e+003, -9.808308e-004
2.892700e+003, -1.036935e-003
2.894628e+003, -1.451262e-003
2.896557e+003, -1.595824e-003
2.898485e+003, -1.591610e-003
2.900414e+003, -1.709376e-003
2.902342e+003, -1.474146e-003
2.904271e+003, -1.176549e-003
2.906199e+003, -1.173674e-003
2.908128e+003, -1.766844e-003
2.910056e+003, -2.384293e-003
2.911985e+003, -2.301315e-003
2.913913e+003, -2.061207e-003
2.915842e+003, -2.193454e-003
2.917770e+003, -2.779620e-003
2.919698e+003, -2.499464e-003
2.921627e+003, -1.884564e-003
2.923555e+003, -2.035529e-003
2.925484e+003, -3.027391e-003
2.927412e+003, -3.104571e-003
2.929341e+003, -2.973186e-003
2.931269e+003, -3.295737e-003
2.933198e+003, -3.448052e-003
2.935126e+003, -3.103242e-003
2.937055e+003, -2.816436e-003
2.938983e+003, -3.100907e-003
2.940912e+003, -3.214726e-003
2.942840e+003, -2.675353e-003
2.944769e+003, -2.062957e-003
2.946697e+003, -2.062748e-003
2.948625e+003, -2.590912e-003
2.950554e+003, -2.496988e-003
2.952482e+003, -2.014835e-003
2.954411e+003, -1.868460e-003
2.956339e+003, -1.981181e-003
2.958268e+003, -1.873149e-003
2.960196e+003, -1.614019e-003
2.962125e+003, -1.292041e-003
2.964053e+003, -1.394522e-003
2.965982e+003, -1.735635e-003
2.967910e+003, -2.015638e-003
2.969839e+003, -1.913684e-003
2.971767e+003, -1.983749e-003
2.973696e+003, -1.992217e-003
2.975624e+003, -1.366673e-003
2.977552e+003, -1.626926e-003
2.979481e+003, -2.337788e-003
2.981409e+003, -2.155976e-003
2.983338e+003, -1.681126e-003
2.985266e+003, -1.336911e-003
2.987195e+003, -1.484200e-003
2.989123e+003, -1.834427e-003
2.991052e+003, -1.742678e-003
2.992980e+003, -1.809758e-003
2.994909e+003, -2.134131e-003
2.996837e+003, -2.066010e-003
2.998766e+003, -2.266722e-003
3.000694e+003, -2.407522e-003
3.002623e+003, -2.057581e-003
3.004551e+003, -2.185426e-003
3.006479e+003, -1.991693e-003
3.008408e+003, -1.719935e-003
3.010336e+003, -1.591732e-003
3.012265e+003, -1.067596e-003
3.014193e+003, -1.870295e-004
3.016122e+003, -3.202377e-004
3.018050e+003, -9.139625e-004
3.019979e+003, -8.435480e-004
3.021907e+003, -1.182557e-003
3.023836e+003, -1.954666e-003
3.025764e+003, -1.699515e-003
3.027693e+003, -1.311703e-003
3.029621e+003, -1.481405e-003
3.031550e+003, -1.898869e-003
3.033478e+003, -1.582579e-003
3.035406e+003, -7.466355e-004
3.037335e+003, -6.448135e-004
3.039263e+003, -1.348000e-003
3.041192e+003, -1.923320e-003
3.043120e+003, -1.505930e-003
3.045049e+003, -6.730720e-004
3.046977e+003, -8.610706e-004
3.048906e+003, -1.322099e-003
3.050834e+003, -2.062345e-003
3.052763e+003, -2.385676e-003
3.054691e+003, -1.279914e-003
3.056620e+003, -4.561496e-004
3.058548e+003, -4.451917e-004
3.060477e+003, -5.942774e-004
3.062405e+003, -7.546892e-004
3.064333e+003, -1.269852e-003
3.066262e+003, -1.143464e-003
3.068190e+003, -1.035596e-003
3.070119e+003, -1.249381e-003
3.072047e+003, -1.313418e-003
3.073976e+003, -1.396150e-003
3.075904e+003, -1.237479e-003
3.077833e+003, -1.125461e-003
3.079761e+003, -1.379000e-003
3.081690e+003, -2.154049e-003
3.083618e+003, -2.308706e-003
3.085547e+003, -1.457368e-003
3.087475e+003, -8.302815e-004
3.089404e+003, -1.270314e-003
3.091332e+003, -1.790235e-003
3.093260e+003, -1.211792e-003
3.095189e+003, -7.115100e-004
3.097117e+003, -1.377028e-003
3.099046e+003, -1.657793e-003
3.100974e+003, -1.319413e-003
3.102903e+003, -9.787793e-004
3.104831e+003, -1.248595e-003
3.106760e+003, -1.083370e-003
3.108688e+003, -8.318631e-004
3.110617e+003, -8.658544e-004
3.112545e+003, -7.884714e-004
3.114474e+003, -7.088215e-004
3.116402e+003, -1.158126e-003
3.118331e+003, -6.124158e-004
3.120259e+003, -2.683394e-005
3.122188e+003, -4.460616e-004
3.124116e+003, -1.085384e-003
3.126044e+003, -1.378500e-003
3.127973e+003, -4.609773e-004
3.129901e+003, 5.464822e-004
3.131830e+003, 4.257804e-004
3.133758e+003, -5.186051e-004
3.135687e+003, -7.160322e-004
3.137615e+003, -4.169793e-004
3.139544e+003, -4.540484e-004
3.141472e+003, -1.083089e-003
3.143401e+003, -1.192711e-003
3.145329e+003, -6.744827e-004
3.147258e+003, -1.002033e-003
3.149186e+003, -1.618214e-003
3.151115e+003, -1.284512e-003
3.153043e+003, -7.652034e-004
3.154971e+003, -4.976578e-004
3.156900e+003, -5.047581e-004
3.158828e+003, -2.093610e-004
3.160757e+003, 2.177001e-004
3.162685e+003, 1.876488e-004
3.164614e+003, 1.193898e-004
3.166542e+003, -2.113390e-004
3.168471e+003, -3.618780e-004
3.170399e+003, -6.854172e-004
3.172328e+003, -9.765025e-004
3.174256e+003, -9.659549e-004
3.176185e+003, -8.654732e-004
3.178113e+003, -1.178939e-003
3.180042e+003, -1.253136e-003
3.181970e+003, -1.182686e-003
3.183898e+003, -1.410004e-003
3.185827e+003, -1.348640e-003
3.187755e+003, -1.267570e-003
3.189684e+003, -1.608295e-003
3.191612e+003, -2.433238e-003
3.193541e+003, -2.722200e-003
3.195469e+003, -2.637719e-003
3.197398e+003, -1.820843e-003
3.199326e+003, -1.656037e-003
3.201255e+003, -2.094832e-003
3.203183e+003, -1.287486e-003
3.205112e+003, -1.040707e-003
3.207040e+003, -8.803511e-004
3.208969e+003, -6.647331e-004
3.210897e+003, -7.487120e-004
3.212825e+003, -5.363520e-004
3.214754e+003, -5.228315e-004
3.216682e+003, -3.185699e-004
3.218611e+003, -4.060803e-004
3.220539e+003, -6.512349e-004
3.222468e+003, -4.149985e-004
3.224396e+003, -1.196848e-004
3.226325e+003, -4.029906e-004
3.228253e+003, -2.739417e-004
3.230182e+003, -4.173810e-004
3.232110e+003, -9.094878e-004
3.234039e+003, -7.371808e-004
3.235967e+003, -3.047171e-004
3.237896e+003, -3.791209e-004
3.239824e+003, -1.058513e-003
3.241752e+003, -1.348371e-003
3.243681e+003, -1.300747e-003
3.245609e+003, -7.307868e-004
3.247538e+003, -2.224265e-004
3.249466e+003, -1.133960e-004
3.251395e+003, -4.521032e-004
3.253323e+003, -1.018972e-003
3.255252e+003, -1.492766e-003
3.257180e+003, -1.504538e-003
3.259109e+003, -1.328615e-003
3.261037e+003, -1.211838e-003
3.262966e+003, -1.155842e-003
3.264894e+003, -1.339078e-003
3.266823e+003, -1.270116e-003
3.268751e+003, -1.517021e-003
3.270679e+003, -2.458771e-003
3.272608e+003, -2.332484e-003
3.274536e+003, -1.385521e-003
3.276465e+003, -1.103453e-003
3.278393e+003, -2.148869e-003
3.280322e+003, -2.546198e-003
3.282250e+003, -1.315443e-003
3.284179e+003, -7.530567e-004
3.286107e+003, -1.300236e-003
3.288036e+003, -1.693989e-003
3.289964e+003, -1.729823e-003
3.291893e+003, -2.008937e-003
3.293821e+003, -1.668080e-003
3.295750e+003, -1.267499e-003
3.297678e+003, -1.309505e-003
3.299606e+003, -1.341510e-003
3.301535e+003, -1.234857e-003
3.303463e+003, -1.717567e-003
3.305392e+003, -1.516950e-003
3.307320e+003, -9.184767e-004
3.309249e+003, -9.877159e-004
3.311177e+003, -1.327578e-003
3.313106e+003, -2.144978e-003
3.315034e+003, -2.202270e-003
3.316963e+003, -1.587360e-003
3.318891e+003, -1.188165e-003
3.320820e+003, -2.113823e-003
3.322748e+003, -2.654289e-003
3.324677e+003, -2.589633e-003
3.326605e+003, -2.437420e-003
3.328533e+003, -1.500022e-003
3.330462e+003, -6.301972e-004
3.332390e+003, -1.321296e-003
3.334319e+003, -2.025110e-003
3.336247e+003, -1.404549e-003
3.338176e+003, -4.708936e-004
3.340104e+003, -1.140463e-003
3.342033e+003, -1.784285e-003
3.343961e+003, -1.572937e-003
3.345890e+003, -1.106656e-003
3.347818e+003, -6.118559e-004
3.349747e+003, -9.974643e-004
3.351675e+003, -6.721698e-004
3.353604e+003, -1.017378e-003
3.355532e+003, -1.553721e-003
3.357460e+003, -1.679737e-003
3.359389e+003, -2.414094e-003
3.361317e+003, -2.727111e-003
3.363246e+003, -1.913023e-003
3.365174e+003, -9.967063e-004
3.367103e+003, -7.108326e-004
3.369031e+003, -1.062547e-003
3.370960e+003, -1.587638e-003
3.372888e+003, -1.389262e-003
3.374817e+003, -7.482241e-004
3.376745e+003, -8.177593e-004
3.378674e+003, -9.786622e-004
3.380602e+003, -6.443754e-004
3.382531e+003, -2.226745e-004
3.384459e+003, -5.207951e-004
3.386387e+003, -1.330361e-003
3.388316e+003, -1.544893e-003
3.390244e+003, -1.738095e-003
3.392173e+003, -1.781405e-003
3.394101e+003, -1.967179e-003
3.396030e+003, -1.218797e-003
3.397958e+003, -1.049162e-003
3.399887e+003, -5.494038e-004
3.401815e+003, 3.112502e-004
3.403744e+003, -3.624190e-004
3.405672e+003, -7.364480e-004
3.407601e+003, -6.933034e-004
3.409529e+003, -1.018864e-003
3.411458e+003, -1.917969e-003
3.413386e+003, -2.474451e-003
3.415314e+003, -2.388968e-003
3.417243e+003, -8.659191e-004
3.419171e+003, -1.157650e-004
3.421100e+003, -5.329970e-004
3.423028e+003, -9.868525e-004
3.424957e+003, -1.627227e-003
3.426885e+003, -1.472179e-003
3.428814e+003, -1.290150e-003
3.430742e+003, -8.567262e-004
3.432671e+003, -6.548564e-004
3.434599e+003, -9.938248e-004
3.436528e+003, -9.619519e-004
3.438456e+003, -9.273093e-004
3.440385e+003, -1.531270e-003
3.442313e+003, -2.836976e-003
3.444241e+003, -3.934841e-003
3.446170e+003, -4.423825e-003
3.448098e+003, -3.962036e-003
3.450027e+003, -2.408219e-003
3.451955e+003, -1.146284e-003
3.453884e+003, -8.956682e-004
3.455812e+003, -1.410243e-003
3.457741e+003, -1.025131e-003
3.459669e+003, -5.567586e-004
3.461598e+003, -8.226982e-004
3.463526e+003, -3.311379e-004
3.465455e+003, -3.677125e-004
3.467383e+003, -6.350576e-004
3.469312e+003, -1.547239e-003
3.471240e+003, -2.667248e-003
3.473168e+003, -3.019866e-003
3.475097e+003, -2.388236e-003
3.477025e+003, -2.363220e-003
3.478954e+003, -2.278439e-003
3.480882e+003, -1.738691e-003
3.482811e+003, -1.711875e-003
3.484739e+003, -1.866207e-003
3.486668e+003, -2.561234e-003
3.488596e+003, -3.725854e-003
3.490525e+003, -3.723413e-003
3.492453e+003, -3.269203e-003
3.494382e+003, -3.501710e-003
3.496310e+003, -3.197673e-003
3.498239e+003, -2.914638e-003
3.500167e+003, -2.026660e-003
3.502095e+003, -1.857765e-003
3.504024e+003, -1.986919e-003
3.505952e+003, -2.005762e-003
3.507881e+003, -2.207085e-003
3.509809e+003, -1.812491e-003
3.511738e+003, -2.393194e-003
3.513666e+003, -2.169453e-003
3.515595e+003, -1.224668e-003
3.517523e+003, -1.157910e-003
3.519452e+003, -1.223913e-003
3.521380e+003, -1.331487e-003
3.523309e+003, -1.174044e-003
3.525237e+003, -1.101154e-003
3.527166e+003, -1.143681e-003
3.529094e+003, -1.156224e-003
3.531022e+003, -2.193367e-003
3.532951e+003, -2.149443e-003
3.534879e+003, -1.418502e-003
3.536808e+003, -1.024430e-003
3.538736e+003, -2.573055e-004
3.540665e+003, -9.546157e-004
3.542593e+003, -1.476712e-003
3.544522e+003, -2.309520e-004
3.546450e+003, -1.468106e-003
3.548379e+003, -2.005015e-003
3.550307e+003, -9.813133e-004
3.552236e+003, -4.083188e-004
3.554164e+003, -1.675527e-003
3.556093e+003, -2.902613e-003
3.558021e+003, -2.852647e-003
3.559949e+003, -3.014543e-003
3.561878e+003, -3.331465e-003
3.563806e+003, -3.110910e-003
3.565735e+003, -1.735149e-003
3.567663e+003, -8.498914e-004
3.569592e+003, -9.534255e-004
3.571520e+003, -1.666328e-003
3.573449e+003, -3.239257e-003
3.575377e+003, -2.851423e-003
3.577306e+003, -3.067565e-003
3.579234e+003, -3.501410e-003
3.581163e+003, -2.747067e-003
3.583091e+003, -2.727213e-003
3.585020e+003, -2.241723e-003
3.586948e+003, -2.140388e-003
3.588876e+003, -3.316131e-003
3.590805e+003, -3.062395e-003
3.592733e+003, -3.427668e-003
3.594662e+003, -3.856575e-003
3.596590e+003, -3.777806e-003
3.598519e+003, -3.472684e-003
3.600447e+003, -3.339676e-003
3.602376e+003, -3.275597e-003
3.604304e+003, -3.028492e-003
3.606233e+003, -1.611614e-003
3.608161e+003, -9.308616e-004
3.610090e+003, -2.214275e-003
3.612018e+003, -3.634970e-003
3.613947e+003, -4.193410e-003
3.615875e+003, -4.555386e-003
3.617803e+003, -3.479091e-003
3.619732e+003, -4.121652e-003
3.621660e+003, -5.191082e-003
3.623589e+003, -4.032754e-003
3.625517e+003, -2.672313e-003
3.627446e+003, -2.521583e-003
3.629374e+003, -2.625455e-003
3.631303e+003, -3.426760e-003
3.633231e+003, -3.599382e-003
3.635160e+003, -3.112234e-003
3.637088e+003, -3.196630e-003
3.639017e+003, -2.808163e-003
3.640945e+003, -2.396660e-003
3.642874e+003, -2.454693e-003
3.644802e+003, -3.551680e-003
3.646730e+003, -4.872057e-003
3.648659e+003, -4.938269e-003
3.650587e+003, -4.709464e-003
3.652516e+003, -4.492569e-003
3.654444e+003, -4.997395e-003
3.656373e+003, -4.411779e-003
3.658301e+003, -3.371313e-003
3.660230e+003, -4.324149e-003
3.662158e+003, -4.251761e-003
3.664087e+003, -4.445659e-003
3.666015e+003, -4.162953e-003
3.667944e+003, -3.513230e-003
3.669872e+003, -3.281016e-003
3.671801e+003, -3.984100e-003
3.673729e+003, -4.661757e-003
3.675657e+003, -4.081704e-003
3.677586e+003, -2.314918e-003
3.679514e+003, -3.707016e-003
3.681443e+003, -4.893008e-003
3.683371e+003, -5.108239e-003
3.685300e+003, -5.377577e-003
3.687228e+003, -4.547927e-003
3.689157e+003, -3.583308e-003
3.691085e+003, -3.386873e-003
3.693014e+003, -3.004940e-003
3.694942e+003, -4.214233e-003
3.696871e+003, -5.328778e-003
3.698799e+003, -4.486302e-003
3.700728e+003, -5.124728e-003
3.702656e+003, -6.118522e-003
3.704584e+003, -5.332677e-003
3.706513e+003, -5.397756e-003
3.708441e+003, -4.454619e-003
3.710370e+003, -3.757844e-003
3.712298e+003, -3.904474e-003
3.714227e+003, -2.716058e-003
3.716155e+003, -2.042597e-003
3.718084e+003, -2.833989e-003
3.720012e+003, -3.554114e-003
3.721941e+003, -4.020162e-003
3.723869e+003, -4.452599e-003
3.725798e+003, -4.542681e-003
3.727726e+003, -3.764943e-003
3.729655e+003, -2.753736e-003
3.731583e+003, -2.244688e-003
3.733511e+003, -3.222467e-003
3.735440e+003, -4.745360e-003
3.737368e+003, -4.810285e-003
3.739297e+003, -3.589718e-003
3.741225e+003, -3.945773e-003
3.743154e+003, -4.450545e-003
3.745082e+003, -5.081372e-003
3.747011e+003, -5.832597e-003
3.748939e+003, -5.684960e-003
3.750868e+003, -6.045146e-003
3.752796e+003, -6.464082e-003
3.754725e+003, -5.985171e-003
3.756653e+003, -6.139413e-003
3.758582e+003, -5.503857e-003
3.760510e+003, -5.255443e-003
3.762438e+003, -6.136820e-003
3.764367e+003, -6.226324e-003
3.766295e+003, -5.313034e-003
3.768224e+003, -4.004383e-003
3.770152e+003, -3.806912e-003
3.772081e+003, -3.009751e-003
3.774009e+003, -3.229956e-003
3.775938e+003, -5.636374e-003
3.777866e+003, -6.078924e-003
3.779795e+003, -5.234577e-003
3.781723e+003, -5.437206e-003
3.783652e+003, -5.872758e-003
3.785580e+003, -5.733764e-003
3.787509e+003, -5.740436e-003
3.789437e+003, -5.923274e-003
3.791365e+003, -5.735515e-003
3.793294e+003, -5.039264e-003
3.795222e+003, -4.277664e-003
3.797151e+003, -3.734625e-003
3.799079e+003, -4.407935e-003
3.801008e+003, -5.504721e-003
3.802936e+003, -5.711078e-003
3.804865e+003, -5.724777e-003
3.806793e+003, -5.388008e-003
3.808722e+003, -5.728819e-003
3.810650e+003, -6.003730e-003
3.812579e+003, -5.675576e-003
3.814507e+003, -5.462163e-003
3.816436e+003, -6.017635e-003
3.818364e+003, -6.440270e-003
3.820292e+003, -5.936561e-003
3.822221e+003, -4.644818e-003
3.824149e+003, -3.071648e-003
3.826078e+003, -3.196441e-003
3.828006e+003, -3.900496e-003
3.829935e+003, -4.372725e-003
3.831863e+003, -5.405768e-003
3.833792e+003, -4.746277e-003
3.835720e+003, -4.684539e-003
3.837649e+003, -6.275314e-003
3.839577e+003, -6.302801e-003
3.841506e+003, -5.293255e-003
3.843434e+003, -4.922778e-003
3.845363e+003, -5.245985e-003
3.847291e+003, -5.720256e-003
3.849219e+003, -4.907933e-003
3.851148e+003, -5.496054e-003
3.853076e+003, -6.885755e-003
3.855005e+003, -6.027281e-003
3.856933e+003, -5.114239e-003
3.858862e+003, -5.514326e-003
3.860790e+003, -5.254021e-003
3.862719e+003, -5.258433e-003
3.864647e+003, -5.433632e-003
3.866576e+003, -4.917413e-003
3.868504e+003, -4.436186e-003
3.870433e+003, -4.211992e-003
3.872361e+003, -4.368432e-003
3.874290e+003, -4.728435e-003
3.876218e+003, -4.283493e-003
3.878146e+003, -4.514651e-003
3.880075e+003, -5.619852e-003
3.882003e+003, -5.769938e-003
3.883932e+003, -5.698673e-003
3.885860e+003, -6.387874e-003
3.887789e+003, -6.144500e-003
3.889717e+003, -6.805154e-003
3.891646e+003, -6.281767e-003
3.893574e+003, -4.846262e-003
3.895503e+003, -4.429163e-003
3.897431e+003, -4.641028e-003
3.899360e+003, -5.213508e-003
3.901288e+003, -5.402419e-003
3.903217e+003, -6.912364e-003
3.905145e+003, -6.708937e-003
3.907073e+003, -4.894171e-003
3.909002e+003, -4.917379e-003
3.910930e+003, -4.951848e-003
3.912859e+003, -4.393678e-003
3.914787e+003, -5.303830e-003
3.916716e+003, -5.723487e-003
3.918644e+003, -4.635468e-003
3.920573e+003, -5.397135e-003
3.922501e+003, -5.544238e-003
3.924430e+003, -3.739640e-003
3.926358e+003, -4.186151e-003
3.928287e+003, -5.754792e-003
3.930215e+003, -7.159498e-003
3.932144e+003, -7.554009e-003
3.934072e+003, -6.292577e-003
3.936000e+003, -5.428249e-003
3.937929e+003, -5.385385e-003
3.939857e+003, -4.734892e-003
3.941786e+003, -5.576049e-003
3.943714e+003, -5.510395e-003
3.945643e+003, -5.335070e-003
3.947571e+003, -6.719668e-003
3.949500e+003, -7.480902e-003
3.951428e+003, -7.136206e-003
3.953357e+003, -7.418561e-003
3.955285e+003, -6.346220e-003
3.957214e+003, -5.408094e-003
3.959142e+003, -5.666105e-003
3.961071e+003, -6.054592e-003
3.962999e+003, -6.461028e-003
3.964927e+003, -6.038100e-003
3.966856e+003, -6.523359e-003
3.968784e+003, -7.703729e-003
3.970713e+003, -7.843552e-003
3.972641e+003, -7.536395e-003
3.974570e+003, -6.171150e-003
3.976498e+003, -4.604551e-003
3.978427e+003, -4.446384e-003
3.980355e+003, -4.771322e-003
3.982284e+003, -4.366066e-003
3.984212e+003, -4.602028e-003
3.986141e+003, -4.720697e-003
3.988069e+003, -3.765988e-003
3.989998e+003, -3.699870e-003
3.991926e+003, -5.085113e-003
3.993854e+003, -6.943037e-003
3.995783e+003, -7.095130e-003
3.997711e+003, -5.720767e-003
3.999640e+003, -5.723526e-003
##END=



