##NAMES=Rhodochrosite
##RRUFFID=R050116
##IDEAL CHEMISTRY=Mn^2+^CO_3_
##LOCALITY=Wudong mine, Liubao, Guangxi Autonomous Region, China
##OWNER=RRUFF
##SOURCE=He Xin Jian
##DESCRIPTION=Pink crystal associated with colorless quartz
##STATUS=The identification of this mineral has been confirmed by X-ray diffraction and chemical analysis
##URL=rruff.info/R050116
##MEASURED CHEMISTRY=(Mn_0.81_Fe_0.17_Mg_0.01_Ca_0.01_)CO_3_
3.741225e+002, 6.199346e-002
3.760510e+002, 5.548932e-002
3.779795e+002, 4.327175e-002
3.799079e+002, 4.706231e-002
3.818364e+002, 5.217673e-002
3.837649e+002, 4.436730e-002
3.856933e+002, 3.853691e-002
3.876218e+002, 3.697297e-002
3.895503e+002, 2.978815e-002
3.914787e+002, 2.371843e-002
3.934072e+002, 2.863167e-002
3.953357e+002, 3.408466e-002
3.972641e+002, 3.361200e-002
3.991926e+002, 2.568196e-002
4.011211e+002, 2.588746e-002
4.030495e+002, 2.595582e-002
4.049780e+002, 2.228609e-002
4.069065e+002, 2.004749e-002
4.088349e+002, 1.886793e-002
4.107634e+002, 1.826015e-002
4.126919e+002, 2.083880e-002
4.146203e+002, 2.096263e-002
4.165488e+002, 2.008283e-002
4.184773e+002, 1.931791e-002
4.204057e+002, 1.942817e-002
4.223342e+002, 1.983280e-002
4.242627e+002, 1.960396e-002
4.261911e+002, 1.991803e-002
4.281196e+002, 1.873797e-002
4.300481e+002, 1.699170e-002
4.319765e+002, 1.695238e-002
4.339050e+002, 1.777253e-002
4.358335e+002, 1.837287e-002
4.377619e+002, 1.805785e-002
4.396904e+002, 1.846870e-002
4.416189e+002, 1.900658e-002
4.435473e+002, 1.890057e-002
4.454758e+002, 1.794038e-002
4.474043e+002, 1.785792e-002
4.493327e+002, 1.939308e-002
4.512612e+002, 1.998298e-002
4.531897e+002, 1.983928e-002
4.551181e+002, 2.032752e-002
4.570466e+002, 1.998858e-002
4.589751e+002, 2.013251e-002
4.609035e+002, 1.987474e-002
4.628320e+002, 1.905526e-002
4.647605e+002, 1.863654e-002
4.666889e+002, 1.876396e-002
4.686174e+002, 1.887987e-002
4.705459e+002, 1.840517e-002
4.724743e+002, 1.839773e-002
4.744028e+002, 1.937142e-002
4.763313e+002, 1.946414e-002
4.782597e+002, 1.928701e-002
4.801882e+002, 1.960867e-002
4.821167e+002, 1.968352e-002
4.840451e+002, 1.950899e-002
4.859736e+002, 1.904558e-002
4.879021e+002, 1.832494e-002
4.898305e+002, 1.797955e-002
4.917590e+002, 1.794900e-002
4.936875e+002, 1.760641e-002
4.956159e+002, 1.714758e-002
4.975444e+002, 1.708719e-002
4.994729e+002, 1.720243e-002
5.014013e+002, 1.666545e-002
5.033298e+002, 1.631767e-002
5.052583e+002, 1.614752e-002
5.071867e+002, 1.561079e-002
5.091152e+002, 1.541517e-002
5.110437e+002, 1.558293e-002
5.129721e+002, 1.543425e-002
5.149006e+002, 1.495554e-002
5.168290e+002, 1.436807e-002
5.187575e+002, 1.424866e-002
5.206860e+002, 1.459313e-002
5.226144e+002, 1.461538e-002
5.245429e+002, 1.440441e-002
5.264714e+002, 1.451928e-002
5.283998e+002, 1.462162e-002
5.303283e+002, 1.433256e-002
5.322568e+002, 1.438046e-002
5.341852e+002, 1.468289e-002
5.361137e+002, 1.467116e-002
5.380422e+002, 1.465930e-002
5.399706e+002, 1.434563e-002
5.418991e+002, 1.402957e-002
5.438276e+002, 1.359347e-002
5.457560e+002, 1.339165e-002
5.476845e+002, 1.317196e-002
5.496130e+002, 1.287284e-002
5.515414e+002, 1.311419e-002
5.534699e+002, 1.337764e-002
5.553984e+002, 1.295922e-002
5.573268e+002, 1.261754e-002
5.592553e+002, 1.339951e-002
5.611838e+002, 1.420172e-002
5.631122e+002, 1.452449e-002
5.650407e+002, 1.465002e-002
5.669692e+002, 1.525087e-002
5.688976e+002, 1.633966e-002
5.708261e+002, 1.707874e-002
5.727546e+002, 1.754859e-002
5.746830e+002, 1.757443e-002
5.766115e+002, 1.742290e-002
5.785400e+002, 1.754832e-002
5.804684e+002, 1.744766e-002
5.823969e+002, 1.722459e-002
5.843254e+002, 1.716448e-002
5.862538e+002, 1.701713e-002
5.881823e+002, 1.715465e-002
5.901108e+002, 1.729288e-002
5.920392e+002, 1.747280e-002
5.939677e+002, 1.748483e-002
5.958962e+002, 1.704809e-002
5.978246e+002, 1.728799e-002
5.997531e+002, 1.735952e-002
6.016816e+002, 1.672233e-002
6.036100e+002, 1.641503e-002
6.055385e+002, 1.648644e-002
6.074670e+002, 1.621804e-002
6.093954e+002, 1.610836e-002
6.113239e+002, 1.640119e-002
6.132524e+002, 1.673642e-002
6.151808e+002, 1.656133e-002
6.171093e+002, 1.651767e-002
6.190378e+002, 1.650950e-002
6.209662e+002, 1.653168e-002
6.228947e+002, 1.655643e-002
6.248232e+002, 1.669459e-002
6.267516e+002, 1.690685e-002
6.286801e+002, 1.702995e-002
6.306086e+002, 1.692740e-002
6.325370e+002, 1.692544e-002
6.344655e+002, 1.721920e-002
6.363940e+002, 1.745067e-002
6.383224e+002, 1.764183e-002
6.402509e+002, 1.784316e-002
6.421794e+002, 1.821744e-002
6.441078e+002, 1.854407e-002
6.460363e+002, 1.847762e-002
6.479648e+002, 1.864300e-002
6.498932e+002, 1.917150e-002
6.518217e+002, 1.946868e-002
6.537502e+002, 1.962680e-002
6.556786e+002, 1.956001e-002
6.576071e+002, 1.966550e-002
6.595356e+002, 1.994992e-002
6.614641e+002, 2.010118e-002
6.633925e+002, 1.994864e-002
6.653210e+002, 2.001200e-002
6.672495e+002, 2.065651e-002
6.691779e+002, 2.075228e-002
6.711064e+002, 2.095210e-002
6.730349e+002, 2.131815e-002
6.749633e+002, 2.155382e-002
6.768918e+002, 2.185817e-002
6.788203e+002, 2.206013e-002
6.807487e+002, 2.233618e-002
6.826772e+002, 2.273359e-002
6.846057e+002, 2.320175e-002
6.865341e+002, 2.350210e-002
6.884626e+002, 2.379123e-002
6.903911e+002, 2.448543e-002
6.923195e+002, 2.525012e-002
6.942480e+002, 2.579595e-002
6.961765e+002, 2.643711e-002
6.981049e+002, 2.711029e-002
7.000334e+002, 2.811411e-002
7.019619e+002, 2.935231e-002
7.038903e+002, 3.059254e-002
7.058188e+002, 3.203546e-002
7.077473e+002, 3.400990e-002
7.096757e+002, 3.632532e-002
7.116042e+002, 3.909908e-002
7.135327e+002, 4.275784e-002
7.154611e+002, 4.800518e-002
7.173896e+002, 5.617988e-002
7.193181e+002, 6.894819e-002
7.212465e+002, 8.898865e-002
7.231750e+002, 1.201247e-001
7.251035e+002, 1.599488e-001
7.270319e+002, 1.830800e-001
7.289604e+002, 1.574352e-001
7.308889e+002, 1.019090e-001
7.328173e+002, 5.823960e-002
7.347458e+002, 3.605652e-002
7.366743e+002, 2.644973e-002
7.386027e+002, 2.202554e-002
7.405312e+002, 1.992358e-002
7.424597e+002, 1.897564e-002
7.443881e+002, 1.858070e-002
7.463166e+002, 1.847953e-002
7.482451e+002, 1.854300e-002
7.501735e+002, 1.871476e-002
7.521020e+002, 1.895111e-002
7.540305e+002, 1.919587e-002
7.559589e+002, 1.926595e-002
7.578874e+002, 1.950803e-002
7.598159e+002, 1.988162e-002
7.617443e+002, 2.016637e-002
7.636728e+002, 2.048688e-002
7.656013e+002, 2.098461e-002
7.675297e+002, 2.133375e-002
7.694582e+002, 2.173041e-002
7.713867e+002, 2.194688e-002
7.733151e+002, 2.228734e-002
7.752436e+002, 2.276424e-002
7.771721e+002, 2.328484e-002
7.791005e+002, 2.369719e-002
7.810290e+002, 2.402599e-002
7.829575e+002, 2.430624e-002
7.848859e+002, 2.493279e-002
7.868144e+002, 2.550009e-002
7.887429e+002, 2.579481e-002
7.906713e+002, 2.593958e-002
7.925998e+002, 2.621260e-002
7.945283e+002, 2.686700e-002
7.964567e+002, 2.748447e-002
7.983852e+002, 2.805723e-002
8.003137e+002, 2.888899e-002
8.022421e+002, 2.952313e-002
8.041706e+002, 3.015195e-002
8.060991e+002, 3.080503e-002
8.080275e+002, 3.149568e-002
8.099560e+002, 3.242161e-002
8.118845e+002, 3.375185e-002
8.138129e+002, 3.487704e-002
8.157414e+002, 3.597146e-002
8.176699e+002, 3.737142e-002
8.195983e+002, 3.876180e-002
8.215268e+002, 4.042271e-002
8.234553e+002, 4.272866e-002
8.253837e+002, 4.536354e-002
8.273122e+002, 4.839119e-002
8.292407e+002, 5.220718e-002
8.311691e+002, 5.766206e-002
8.330976e+002, 6.649150e-002
8.350261e+002, 8.096565e-002
8.369545e+002, 8.985192e-002
8.388830e+002, 8.553790e-002
8.408115e+002, 8.625744e-002
8.427399e+002, 9.728387e-002
8.446684e+002, 1.139139e-001
8.465969e+002, 1.344600e-001
8.485253e+002, 1.599744e-001
8.504538e+002, 1.908890e-001
8.523823e+002, 2.282767e-001
8.543107e+002, 2.713965e-001
8.562392e+002, 3.171102e-001
8.581677e+002, 3.537964e-001
8.600961e+002, 3.670328e-001
8.620246e+002, 3.556436e-001
8.639531e+002, 3.286063e-001
8.658815e+002, 2.920766e-001
8.678100e+002, 2.492324e-001
8.697385e+002, 2.039758e-001
8.716669e+002, 1.592763e-001
8.735954e+002, 1.172621e-001
8.755239e+002, 8.160345e-002
8.774523e+002, 5.684181e-002
8.793808e+002, 4.440247e-002
8.813093e+002, 4.002001e-002
8.832377e+002, 3.849656e-002
8.851662e+002, 3.760597e-002
8.870947e+002, 3.705312e-002
8.890231e+002, 3.696079e-002
8.909516e+002, 3.734220e-002
8.928801e+002, 3.804503e-002
8.948085e+002, 3.886639e-002
8.967370e+002, 3.962388e-002
8.986655e+002, 4.016368e-002
9.005939e+002, 4.042047e-002
9.025224e+002, 4.062025e-002
9.044509e+002, 4.083295e-002
9.063793e+002, 4.085854e-002
9.083078e+002, 4.058181e-002
9.102363e+002, 4.042783e-002
9.121647e+002, 4.043769e-002
9.140932e+002, 4.032041e-002
9.160217e+002, 4.005844e-002
9.179501e+002, 3.988630e-002
9.198786e+002, 3.985066e-002
9.218071e+002, 3.994426e-002
9.237355e+002, 3.993257e-002
9.256640e+002, 3.954804e-002
9.275925e+002, 3.928991e-002
9.295209e+002, 3.931326e-002
9.314494e+002, 3.945555e-002
9.333779e+002, 3.950444e-002
9.353063e+002, 3.965798e-002
9.372348e+002, 3.992859e-002
9.391633e+002, 4.021919e-002
9.410917e+002, 4.042954e-002
9.430202e+002, 4.077998e-002
9.449487e+002, 4.122792e-002
9.468771e+002, 4.173476e-002
9.488056e+002, 4.246499e-002
9.507341e+002, 4.329706e-002
9.526625e+002, 4.438151e-002
9.545910e+002, 4.544283e-002
9.565195e+002, 4.672059e-002
9.584479e+002, 4.817140e-002
9.603764e+002, 4.955707e-002
9.623049e+002, 5.086483e-002
9.642333e+002, 5.189758e-002
9.661618e+002, 5.253087e-002
9.680903e+002, 5.314646e-002
9.700187e+002, 5.346318e-002
9.719472e+002, 5.367614e-002
9.738757e+002, 5.383544e-002
9.758041e+002, 5.364001e-002
9.777326e+002, 5.338316e-002
9.796611e+002, 5.349413e-002
9.815895e+002, 5.364425e-002
9.835180e+002, 5.354775e-002
9.854465e+002, 5.372052e-002
9.873749e+002, 5.408762e-002
9.893034e+002, 5.404399e-002
9.912319e+002, 5.405016e-002
9.931603e+002, 5.424513e-002
9.950888e+002, 5.458376e-002
9.970173e+002, 5.485686e-002
9.989457e+002, 5.510628e-002
1.000874e+003, 5.544280e-002
1.002803e+003, 5.591608e-002
1.004731e+003, 5.624995e-002
1.006660e+003, 5.652793e-002
1.008588e+003, 5.693400e-002
1.010517e+003, 5.752417e-002
1.012445e+003, 5.812808e-002
1.014373e+003, 5.855881e-002
1.016302e+003, 5.907047e-002
1.018230e+003, 5.937518e-002
1.020159e+003, 5.930195e-002
1.022087e+003, 5.937061e-002
1.024016e+003, 5.953977e-002
1.025944e+003, 5.953345e-002
1.027873e+003, 5.965260e-002
1.029801e+003, 5.995140e-002
1.031730e+003, 6.011285e-002
1.033658e+003, 6.018862e-002
1.035587e+003, 6.048167e-002
1.037515e+003, 6.110346e-002
1.039443e+003, 6.152862e-002
1.041372e+003, 6.188540e-002
1.043300e+003, 6.222655e-002
1.045229e+003, 6.269059e-002
1.047157e+003, 6.346161e-002
1.049086e+003, 6.438947e-002
1.051014e+003, 6.511709e-002
1.052943e+003, 6.550105e-002
1.054871e+003, 6.601804e-002
1.056800e+003, 6.689943e-002
1.058728e+003, 6.759516e-002
1.060657e+003, 6.811807e-002
1.062585e+003, 6.885251e-002
1.064514e+003, 6.981757e-002
1.066442e+003, 7.071466e-002
1.068370e+003, 7.160674e-002
1.070299e+003, 7.225434e-002
1.072227e+003, 7.308543e-002
1.074156e+003, 7.404491e-002
1.076084e+003, 7.500636e-002
1.078013e+003, 7.603402e-002
1.079941e+003, 7.691642e-002
1.081870e+003, 7.753169e-002
1.083798e+003, 7.811889e-002
1.085727e+003, 7.817848e-002
1.087655e+003, 7.777624e-002
1.089584e+003, 7.739800e-002
1.091512e+003, 7.719241e-002
1.093441e+003, 7.733570e-002
1.095369e+003, 7.761820e-002
1.097297e+003, 7.801922e-002
1.099226e+003, 7.891060e-002
1.101154e+003, 7.973298e-002
1.103083e+003, 8.050364e-002
1.105011e+003, 8.144306e-002
1.106940e+003, 8.240408e-002
1.108868e+003, 8.323357e-002
1.110797e+003, 8.405814e-002
1.112725e+003, 8.495407e-002
1.114654e+003, 8.578664e-002
1.116582e+003, 8.635031e-002
1.118511e+003, 8.711028e-002
1.120439e+003, 8.797824e-002
1.122368e+003, 8.889820e-002
1.124296e+003, 8.999404e-002
1.126224e+003, 9.111371e-002
1.128153e+003, 9.212492e-002
1.130081e+003, 9.332586e-002
1.132010e+003, 9.472656e-002
1.133938e+003, 9.638745e-002
1.135867e+003, 9.795608e-002
1.137795e+003, 9.949129e-002
1.139724e+003, 1.009765e-001
1.141652e+003, 1.024292e-001
1.143581e+003, 1.041112e-001
1.145509e+003, 1.056281e-001
1.147438e+003, 1.070302e-001
1.149366e+003, 1.085172e-001
1.151295e+003, 1.099801e-001
1.153223e+003, 1.112614e-001
1.155151e+003, 1.123744e-001
1.157080e+003, 1.134875e-001
1.159008e+003, 1.146173e-001
1.160937e+003, 1.158162e-001
1.162865e+003, 1.169817e-001
1.164794e+003, 1.181026e-001
1.166722e+003, 1.191748e-001
1.168651e+003, 1.201896e-001
1.170579e+003, 1.211533e-001
1.172508e+003, 1.221397e-001
1.174436e+003, 1.230283e-001
1.176365e+003, 1.240558e-001
1.178293e+003, 1.252339e-001
1.180222e+003, 1.265227e-001
1.182150e+003, 1.280955e-001
1.184078e+003, 1.297318e-001
1.186007e+003, 1.313649e-001
1.187935e+003, 1.330555e-001
1.189864e+003, 1.348670e-001
1.191792e+003, 1.365759e-001
1.193721e+003, 1.380769e-001
1.195649e+003, 1.396761e-001
1.197578e+003, 1.412435e-001
1.199506e+003, 1.428017e-001
1.201435e+003, 1.440345e-001
1.203363e+003, 1.452624e-001
1.205292e+003, 1.469176e-001
1.207220e+003, 1.485201e-001
1.209149e+003, 1.502091e-001
1.211077e+003, 1.518965e-001
1.213005e+003, 1.536721e-001
1.214934e+003, 1.557357e-001
1.216862e+003, 1.578129e-001
1.218791e+003, 1.599293e-001
1.220719e+003, 1.618577e-001
1.222648e+003, 1.639127e-001
1.224576e+003, 1.661588e-001
1.226505e+003, 1.684740e-001
1.228433e+003, 1.705970e-001
1.230362e+003, 1.729267e-001
1.232290e+003, 1.755306e-001
1.234219e+003, 1.780730e-001
1.236147e+003, 1.806461e-001
1.238076e+003, 1.832805e-001
1.240004e+003, 1.859722e-001
1.241932e+003, 1.887429e-001
1.243861e+003, 1.916600e-001
1.245789e+003, 1.945406e-001
1.247718e+003, 1.973688e-001
1.249646e+003, 2.002204e-001
1.251575e+003, 2.029873e-001
1.253503e+003, 2.059017e-001
1.255432e+003, 2.089562e-001
1.257360e+003, 2.118927e-001
1.259289e+003, 2.147744e-001
1.261217e+003, 2.177345e-001
1.263146e+003, 2.207350e-001
1.265074e+003, 2.240596e-001
1.267003e+003, 2.277155e-001
1.268931e+003, 2.314270e-001
1.270859e+003, 2.352096e-001
1.272788e+003, 2.392478e-001
1.274716e+003, 2.430590e-001
1.276645e+003, 2.465404e-001
1.278573e+003, 2.501065e-001
1.280502e+003, 2.536929e-001
1.282430e+003, 2.573005e-001
1.284359e+003, 2.611726e-001
1.286287e+003, 2.650304e-001
1.288216e+003, 2.690072e-001
1.290144e+003, 2.731616e-001
1.292073e+003, 2.775955e-001
1.294001e+003, 2.821938e-001
1.295930e+003, 2.867626e-001
1.297858e+003, 2.913698e-001
1.299786e+003, 2.960311e-001
1.301715e+003, 3.008465e-001
1.303643e+003, 3.058283e-001
1.305572e+003, 3.106298e-001
1.307500e+003, 3.155282e-001
1.309429e+003, 3.205603e-001
1.311357e+003, 3.257970e-001
1.313286e+003, 3.311350e-001
1.315214e+003, 3.366132e-001
1.317143e+003, 3.422252e-001
1.319071e+003, 3.478312e-001
1.321000e+003, 3.539208e-001
1.322928e+003, 3.601104e-001
1.324857e+003, 3.664133e-001
1.326785e+003, 3.729424e-001
1.328714e+003, 3.792887e-001
1.330642e+003, 3.858268e-001
1.332570e+003, 3.924778e-001
1.334499e+003, 3.991650e-001
1.336427e+003, 4.059882e-001
1.338356e+003, 4.129061e-001
1.340284e+003, 4.195497e-001
1.342213e+003, 4.262299e-001
1.344141e+003, 4.334559e-001
1.346070e+003, 4.411222e-001
1.347998e+003, 4.489977e-001
1.349927e+003, 4.573538e-001
1.351855e+003, 4.661467e-001
1.353784e+003, 4.750046e-001
1.355712e+003, 4.839174e-001
1.357641e+003, 4.931091e-001
1.359569e+003, 5.024392e-001
1.361497e+003, 5.116645e-001
1.363426e+003, 5.208251e-001
1.365354e+003, 5.298255e-001
1.367283e+003, 5.389565e-001
1.369211e+003, 5.480060e-001
1.371140e+003, 5.566241e-001
1.373068e+003, 5.650176e-001
1.374997e+003, 5.730509e-001
1.376925e+003, 5.803883e-001
1.378854e+003, 5.868883e-001
1.380782e+003, 5.927542e-001
1.382711e+003, 5.978338e-001
1.384639e+003, 6.013964e-001
1.386568e+003, 6.043486e-001
1.388496e+003, 6.073529e-001
1.390424e+003, 6.102281e-001
1.392353e+003, 6.129147e-001
1.394281e+003, 6.145415e-001
1.396210e+003, 6.151518e-001
1.398138e+003, 6.139607e-001
1.400067e+003, 6.107070e-001
1.401995e+003, 6.050356e-001
1.403924e+003, 5.977972e-001
1.405852e+003, 5.890877e-001
1.407781e+003, 5.792260e-001
1.409709e+003, 5.688738e-001
1.411638e+003, 5.586728e-001
1.413566e+003, 5.481751e-001
1.415495e+003, 5.379400e-001
1.417423e+003, 5.283982e-001
1.419351e+003, 5.192136e-001
1.421280e+003, 5.098588e-001
1.423208e+003, 5.008639e-001
1.425137e+003, 4.917983e-001
1.427065e+003, 4.826333e-001
1.428994e+003, 4.736329e-001
1.430922e+003, 4.647718e-001
1.432851e+003, 4.558382e-001
1.434779e+003, 4.468543e-001
1.436708e+003, 4.380508e-001
1.438636e+003, 4.289029e-001
1.440565e+003, 4.197490e-001
1.442493e+003, 4.106430e-001
1.444422e+003, 4.018612e-001
1.446350e+003, 3.930840e-001
1.448278e+003, 3.838708e-001
1.450207e+003, 3.747008e-001
1.452135e+003, 3.659706e-001
1.454064e+003, 3.575490e-001
1.455992e+003, 3.497789e-001
1.457921e+003, 3.416163e-001
1.459849e+003, 3.331406e-001
1.461778e+003, 3.251264e-001
1.463706e+003, 3.175669e-001
1.465635e+003, 3.100143e-001
1.467563e+003, 3.021733e-001
1.469492e+003, 2.946392e-001
1.471420e+003, 2.878750e-001
1.473349e+003, 2.807720e-001
1.475277e+003, 2.732910e-001
1.477205e+003, 2.663001e-001
1.479134e+003, 2.592877e-001
1.481062e+003, 2.522795e-001
1.482991e+003, 2.454972e-001
1.484919e+003, 2.387815e-001
1.486848e+003, 2.320563e-001
1.488776e+003, 2.251848e-001
1.490705e+003, 2.181100e-001
1.492633e+003, 2.111286e-001
1.494562e+003, 2.046711e-001
1.496490e+003, 1.985276e-001
1.498419e+003, 1.918995e-001
1.500347e+003, 1.851860e-001
1.502276e+003, 1.787443e-001
1.504204e+003, 1.728467e-001
1.506132e+003, 1.670657e-001
1.508061e+003, 1.605614e-001
1.509989e+003, 1.540359e-001
1.511918e+003, 1.479385e-001
1.513846e+003, 1.418954e-001
1.515775e+003, 1.360934e-001
1.517703e+003, 1.302768e-001
1.519632e+003, 1.246027e-001
1.521560e+003, 1.192851e-001
1.523489e+003, 1.137630e-001
1.525417e+003, 1.083583e-001
1.527346e+003, 1.028430e-001
1.529274e+003, 9.732720e-002
1.531203e+003, 9.197281e-002
1.533131e+003, 8.688988e-002
1.535059e+003, 8.163325e-002
1.536988e+003, 7.642940e-002
1.538916e+003, 7.156353e-002
1.540845e+003, 6.583254e-002
1.542773e+003, 5.964305e-002
1.544702e+003, 5.356612e-002
1.546630e+003, 4.742399e-002
1.548559e+003, 4.167713e-002
1.550487e+003, 3.621576e-002
1.552416e+003, 3.134440e-002
1.554344e+003, 2.750564e-002
1.556273e+003, 2.479288e-002
1.558201e+003, 2.333556e-002
1.560130e+003, 2.200955e-002
1.562058e+003, 2.037295e-002
1.563986e+003, 1.936942e-002
1.565915e+003, 1.904323e-002
1.567843e+003, 1.894612e-002
1.569772e+003, 1.898739e-002
1.571700e+003, 1.906454e-002
1.573629e+003, 1.944329e-002
1.575557e+003, 2.014319e-002
1.577486e+003, 2.019460e-002
1.579414e+003, 1.996456e-002
1.581343e+003, 2.008836e-002
1.583271e+003, 2.021128e-002
1.585200e+003, 2.020248e-002
1.587128e+003, 1.988440e-002
1.589057e+003, 1.956381e-002
1.590985e+003, 1.924289e-002
1.592913e+003, 1.890889e-002
1.594842e+003, 1.814699e-002
1.596770e+003, 1.722248e-002
1.598699e+003, 1.625057e-002
1.600627e+003, 1.519197e-002
1.602556e+003, 1.455947e-002
1.604484e+003, 1.395427e-002
1.606413e+003, 1.325748e-002
1.608341e+003, 1.261418e-002
1.610270e+003, 1.233307e-002
1.612198e+003, 1.204909e-002
1.614127e+003, 1.180945e-002
1.616055e+003, 1.193461e-002
1.617984e+003, 1.143074e-002
1.619912e+003, 1.090191e-002
1.621840e+003, 1.071304e-002
1.623769e+003, 1.025314e-002
1.625697e+003, 9.879017e-003
1.627626e+003, 9.559777e-003
1.629554e+003, 9.135923e-003
1.631483e+003, 8.819510e-003
1.633411e+003, 8.701278e-003
1.635340e+003, 8.777873e-003
1.637268e+003, 8.444868e-003
1.639197e+003, 7.972356e-003
1.641125e+003, 7.612026e-003
1.643054e+003, 7.398978e-003
1.644982e+003, 7.462296e-003
1.646911e+003, 7.454503e-003
1.648839e+003, 6.929156e-003
1.650767e+003, 6.894239e-003
1.652696e+003, 7.378606e-003
1.654624e+003, 6.940959e-003
1.656553e+003, 6.184976e-003
1.658481e+003, 5.992557e-003
1.660410e+003, 5.808437e-003
1.662338e+003, 5.625255e-003
1.664267e+003, 5.485633e-003
1.666195e+003, 5.393423e-003
1.668124e+003, 5.560613e-003
1.670052e+003, 5.198103e-003
1.671981e+003, 4.714253e-003
1.673909e+003, 4.837881e-003
1.675838e+003, 4.944413e-003
1.677766e+003, 4.681104e-003
1.679694e+003, 4.357534e-003
1.681623e+003, 4.260584e-003
1.683551e+003, 4.788877e-003
1.685480e+003, 4.646929e-003
1.687408e+003, 4.053643e-003
1.689337e+003, 3.785231e-003
1.691265e+003, 3.664965e-003
1.693194e+003, 3.778478e-003
1.695122e+003, 4.074151e-003
1.697051e+003, 4.043787e-003
1.698979e+003, 4.113875e-003
1.700908e+003, 3.944806e-003
1.702836e+003, 3.451070e-003
1.704765e+003, 3.327585e-003
1.706693e+003, 3.275797e-003
1.708621e+003, 3.274267e-003
1.710550e+003, 3.128997e-003
1.712478e+003, 2.949183e-003
1.714407e+003, 3.109412e-003
1.716335e+003, 3.566421e-003
1.718264e+003, 3.666369e-003
1.720192e+003, 3.277205e-003
1.722121e+003, 3.026172e-003
1.724049e+003, 2.959417e-003
1.725978e+003, 3.001197e-003
1.727906e+003, 3.013517e-003
1.729835e+003, 2.782298e-003
1.731763e+003, 2.718076e-003
1.733692e+003, 3.207037e-003
1.735620e+003, 2.996831e-003
1.737548e+003, 2.673076e-003
1.739477e+003, 2.786757e-003
1.741405e+003, 2.644673e-003
1.743334e+003, 2.593347e-003
1.745262e+003, 2.540977e-003
1.747191e+003, 2.609483e-003
1.749119e+003, 2.807673e-003
1.751048e+003, 3.108636e-003
1.752976e+003, 3.179949e-003
1.754905e+003, 3.222161e-003
1.756833e+003, 3.251482e-003
1.758762e+003, 3.496734e-003
1.760690e+003, 3.777886e-003
1.762619e+003, 3.935401e-003
1.764547e+003, 3.869835e-003
1.766475e+003, 3.850710e-003
1.768404e+003, 3.966163e-003
1.770332e+003, 4.158011e-003
1.772261e+003, 4.474161e-003
1.774189e+003, 4.647564e-003
1.776118e+003, 4.595721e-003
1.778046e+003, 4.673493e-003
1.779975e+003, 5.105779e-003
1.781903e+003, 5.489336e-003
1.783832e+003, 6.182456e-003
1.785760e+003, 6.645547e-003
1.787689e+003, 7.432464e-003
1.789617e+003, 9.081747e-003
1.791546e+003, 1.110786e-002
1.793474e+003, 1.302075e-002
1.795402e+003, 1.472504e-002
1.797331e+003, 1.616134e-002
1.799259e+003, 1.682873e-002
1.801188e+003, 1.700868e-002
1.803116e+003, 1.700974e-002
1.805045e+003, 1.689402e-002
1.806973e+003, 1.590184e-002
1.808902e+003, 1.465809e-002
1.810830e+003, 1.314945e-002
1.812759e+003, 1.115458e-002
1.814687e+003, 9.030928e-003
1.816616e+003, 7.210361e-003
1.818544e+003, 6.219374e-003
1.820473e+003, 5.597948e-003
1.822401e+003, 4.740020e-003
1.824329e+003, 3.894875e-003
1.826258e+003, 3.285844e-003
1.828186e+003, 3.015276e-003
1.830115e+003, 3.100940e-003
1.832043e+003, 3.201657e-003
1.833972e+003, 3.106804e-003
1.835900e+003, 3.288900e-003
1.837829e+003, 3.231822e-003
1.839757e+003, 3.201611e-003
1.841686e+003, 3.343689e-003
1.843614e+003, 3.547191e-003
1.845543e+003, 3.278604e-003
1.847471e+003, 2.993380e-003
1.849400e+003, 2.655274e-003
1.851328e+003, 2.631763e-003
1.853256e+003, 3.056686e-003
1.855185e+003, 3.167053e-003
1.857113e+003, 3.160523e-003
1.859042e+003, 3.028079e-003
1.860970e+003, 2.748789e-003
1.862899e+003, 2.852475e-003
1.864827e+003, 3.271915e-003
1.866756e+003, 3.564256e-003
1.868684e+003, 3.596919e-003
1.870613e+003, 3.356312e-003
1.872541e+003, 3.001119e-003
1.874470e+003, 3.112810e-003
1.876398e+003, 3.246961e-003
1.878327e+003, 3.268106e-003
1.880255e+003, 3.313747e-003
1.882183e+003, 3.512098e-003
1.884112e+003, 3.699106e-003
1.886040e+003, 3.587896e-003
1.887969e+003, 3.086373e-003
1.889897e+003, 2.839648e-003
1.891826e+003, 3.034668e-003
1.893754e+003, 3.398023e-003
1.895683e+003, 3.584159e-003
1.897611e+003, 3.532930e-003
1.899540e+003, 3.344384e-003
1.901468e+003, 3.905851e-003
1.903397e+003, 4.533191e-003
1.905325e+003, 4.205162e-003
1.907254e+003, 3.909608e-003
1.909182e+003, 4.079720e-003
1.911110e+003, 4.326962e-003
1.913039e+003, 4.220276e-003
1.914967e+003, 4.010277e-003
1.916896e+003, 3.965111e-003
1.918824e+003, 4.374210e-003
1.920753e+003, 4.220469e-003
1.922681e+003, 4.121691e-003
1.924610e+003, 4.488564e-003
1.926538e+003, 4.521942e-003
1.928467e+003, 3.933319e-003
1.930395e+003, 3.752388e-003
1.932324e+003, 3.600771e-003
1.934252e+003, 3.416182e-003
1.936181e+003, 4.071204e-003
1.938109e+003, 4.821029e-003
1.940037e+003, 5.877052e-003
1.941966e+003, 6.576103e-003
1.943894e+003, 5.952756e-003
1.945823e+003, 4.917838e-003
1.947751e+003, 4.663423e-003
1.949680e+003, 5.060737e-003
1.951608e+003, 5.249796e-003
1.953537e+003, 4.907777e-003
1.955465e+003, 5.609166e-003
1.957394e+003, 5.879082e-003
1.959322e+003, 4.848463e-003
1.961251e+003, 4.373857e-003
1.963179e+003, 4.946132e-003
1.965108e+003, 4.910453e-003
1.967036e+003, 5.198110e-003
1.968964e+003, 6.239404e-003
1.970893e+003, 5.905292e-003
1.972821e+003, 4.820797e-003
1.974750e+003, 5.270568e-003
1.976678e+003, 6.139032e-003
1.978607e+003, 7.922067e-003
1.980535e+003, 8.232119e-003
1.982464e+003, 7.463231e-003
1.984392e+003, 6.949280e-003
1.986321e+003, 6.586291e-003
1.988249e+003, 7.229274e-003
1.990178e+003, 7.880882e-003
1.992106e+003, 6.616317e-003
1.994035e+003, 5.597567e-003
1.995963e+003, 5.569966e-003
1.997891e+003, 5.748389e-003
1.999820e+003, 5.620476e-003
2.001748e+003, 5.782120e-003
2.003677e+003, 5.400213e-003
2.005605e+003, 5.726635e-003
2.007534e+003, 5.574070e-003
2.009462e+003, 5.196220e-003
2.011391e+003, 5.741610e-003
2.013319e+003, 6.965852e-003
2.015248e+003, 6.896738e-003
2.017176e+003, 5.988650e-003
2.019105e+003, 5.403424e-003
2.021033e+003, 4.760840e-003
2.022962e+003, 5.076122e-003
2.024890e+003, 4.960987e-003
2.026818e+003, 5.081612e-003
2.028747e+003, 4.059715e-003
2.030675e+003, 4.582790e-003
2.032604e+003, 6.937538e-003
2.034532e+003, 7.408368e-003
2.036461e+003, 7.886519e-003
2.038389e+003, 7.183927e-003
2.040318e+003, 6.344986e-003
2.042246e+003, 6.359093e-003
2.044175e+003, 6.346202e-003
2.046103e+003, 6.513212e-003
2.048031e+003, 7.148474e-003
2.049960e+003, 7.506740e-003
2.051888e+003, 6.726496e-003
2.053817e+003, 5.974791e-003
2.055745e+003, 6.182028e-003
2.057674e+003, 5.754048e-003
2.059602e+003, 5.301436e-003
2.061531e+003, 5.816533e-003
2.063459e+003, 6.576312e-003
2.065388e+003, 6.554883e-003
2.067316e+003, 6.074885e-003
2.069245e+003, 5.451100e-003
2.071173e+003, 5.885183e-003
2.073102e+003, 6.235605e-003
2.075030e+003, 6.306832e-003
2.076958e+003, 6.906732e-003
2.078887e+003, 7.340960e-003
2.080815e+003, 7.047195e-003
2.082744e+003, 6.540454e-003
2.084672e+003, 6.284042e-003
2.086601e+003, 6.254629e-003
2.088529e+003, 6.261036e-003
2.090458e+003, 5.873610e-003
2.092386e+003, 5.803809e-003
2.094315e+003, 5.567482e-003
2.096243e+003, 5.928035e-003
2.098172e+003, 6.360017e-003
2.100100e+003, 6.271339e-003
2.102029e+003, 6.304590e-003
2.103957e+003, 6.493603e-003
2.105885e+003, 6.480511e-003
2.107814e+003, 6.345360e-003
2.109742e+003, 6.299360e-003
2.111671e+003, 6.332100e-003
2.113599e+003, 7.047915e-003
2.115528e+003, 7.376715e-003
2.117456e+003, 6.983999e-003
2.119385e+003, 6.905098e-003
2.121313e+003, 7.332839e-003
2.123242e+003, 6.460381e-003
2.125170e+003, 5.803969e-003
2.127099e+003, 6.127242e-003
2.129027e+003, 5.629170e-003
2.130956e+003, 4.834440e-003
2.132884e+003, 4.306158e-003
2.134813e+003, 4.395831e-003
2.136741e+003, 4.719610e-003
2.138669e+003, 4.930015e-003
2.140598e+003, 5.831328e-003
2.142526e+003, 6.591623e-003
2.144455e+003, 6.377464e-003
2.146383e+003, 5.619895e-003
2.148312e+003, 5.647789e-003
2.150240e+003, 6.270575e-003
2.152169e+003, 5.872608e-003
2.154097e+003, 4.501662e-003
2.156026e+003, 3.819345e-003
2.157954e+003, 5.184749e-003
2.159883e+003, 9.388938e-003
2.161811e+003, 1.147208e-002
2.163740e+003, 1.023558e-002
2.165668e+003, 8.919475e-003
2.167596e+003, 8.809821e-003
2.169525e+003, 8.457172e-003
2.171453e+003, 8.492785e-003
2.173382e+003, 8.057687e-003
2.175310e+003, 8.703095e-003
2.177239e+003, 7.716697e-003
2.179167e+003, 5.840420e-003
2.181096e+003, 6.819900e-003
2.183024e+003, 8.190905e-003
2.184953e+003, 8.256561e-003
2.186881e+003, 8.712529e-003
2.188810e+003, 9.469267e-003
2.190738e+003, 1.041797e-002
2.192667e+003, 1.012126e-002
2.194595e+003, 8.894668e-003
2.196523e+003, 7.700301e-003
2.198452e+003, 7.337467e-003
2.200380e+003, 7.748882e-003
2.202309e+003, 8.484102e-003
2.204237e+003, 8.559841e-003
2.206166e+003, 7.905453e-003
2.208094e+003, 8.167418e-003
2.210023e+003, 8.808346e-003
2.211951e+003, 8.563101e-003
2.213880e+003, 8.762201e-003
2.215808e+003, 8.924994e-003
2.217737e+003, 8.357025e-003
2.219665e+003, 7.645312e-003
2.221594e+003, 7.510844e-003
2.223522e+003, 8.147134e-003
2.225450e+003, 8.924461e-003
2.227379e+003, 9.049593e-003
2.229307e+003, 8.775333e-003
2.231236e+003, 8.802171e-003
2.233164e+003, 8.778494e-003
2.235093e+003, 9.037801e-003
2.237021e+003, 9.012906e-003
2.238950e+003, 8.555202e-003
2.240878e+003, 8.401088e-003
2.242807e+003, 8.142705e-003
2.244735e+003, 8.244588e-003
2.246664e+003, 8.422553e-003
2.248592e+003, 7.521856e-003
2.250521e+003, 7.119150e-003
2.252449e+003, 7.773879e-003
2.254377e+003, 8.718980e-003
2.256306e+003, 9.756362e-003
2.258234e+003, 9.931884e-003
2.260163e+003, 9.409517e-003
2.262091e+003, 8.980019e-003
2.264020e+003, 9.026663e-003
2.265948e+003, 9.280720e-003
2.267877e+003, 9.620695e-003
2.269805e+003, 9.188335e-003
2.271734e+003, 8.841926e-003
2.273662e+003, 9.122892e-003
2.275591e+003, 9.226444e-003
2.277519e+003, 8.927493e-003
2.279448e+003, 9.351030e-003
2.281376e+003, 9.535763e-003
2.283304e+003, 9.722432e-003
2.285233e+003, 1.002378e-002
2.287161e+003, 1.022884e-002
2.289090e+003, 1.010054e-002
2.291018e+003, 1.001771e-002
2.292947e+003, 1.016760e-002
2.294875e+003, 1.030598e-002
2.296804e+003, 1.031003e-002
2.298732e+003, 1.003660e-002
2.300661e+003, 9.575732e-003
2.302589e+003, 9.332368e-003
2.304518e+003, 9.677439e-003
2.306446e+003, 1.009899e-002
2.308375e+003, 1.026359e-002
2.310303e+003, 1.068106e-002
2.312231e+003, 1.073752e-002
2.314160e+003, 1.055111e-002
2.316088e+003, 1.088047e-002
2.318017e+003, 1.111285e-002
2.319945e+003, 1.113850e-002
2.321874e+003, 1.174893e-002
2.323802e+003, 1.224287e-002
2.325731e+003, 1.188992e-002
2.327659e+003, 1.154882e-002
2.329588e+003, 1.171752e-002
2.331516e+003, 1.198125e-002
2.333445e+003, 1.190698e-002
2.335373e+003, 1.188629e-002
2.337302e+003, 1.181955e-002
2.339230e+003, 1.178476e-002
2.341158e+003, 1.196008e-002
2.343087e+003, 1.187111e-002
2.345015e+003, 1.126821e-002
2.346944e+003, 1.086712e-002
2.348872e+003, 1.079802e-002
2.350801e+003, 1.069684e-002
2.352729e+003, 1.144465e-002
2.354658e+003, 1.223858e-002
2.356586e+003, 1.232928e-002
2.358515e+003, 1.279427e-002
2.360443e+003, 1.314080e-002
2.362372e+003, 1.299901e-002
2.364300e+003, 1.278543e-002
2.366229e+003, 1.238211e-002
2.368157e+003, 1.178992e-002
2.370085e+003, 1.169173e-002
2.372014e+003, 1.112215e-002
2.373942e+003, 1.076327e-002
2.375871e+003, 1.097075e-002
2.377799e+003, 1.124118e-002
2.379728e+003, 1.103063e-002
2.381656e+003, 1.076930e-002
2.383585e+003, 1.085025e-002
2.385513e+003, 1.064235e-002
2.387442e+003, 1.037374e-002
2.389370e+003, 1.034069e-002
2.391299e+003, 1.086150e-002
2.393227e+003, 1.073701e-002
2.395156e+003, 1.036838e-002
2.397084e+003, 1.087413e-002
2.399012e+003, 1.141966e-002
2.400941e+003, 1.124990e-002
2.402869e+003, 1.160297e-002
2.404798e+003, 1.145067e-002
2.406726e+003, 1.081739e-002
2.408655e+003, 1.087566e-002
2.410583e+003, 1.092819e-002
2.412512e+003, 1.088847e-002
2.414440e+003, 1.106678e-002
2.416369e+003, 1.091550e-002
2.418297e+003, 1.098364e-002
2.420226e+003, 1.131586e-002
2.422154e+003, 1.149955e-002
2.424083e+003, 1.131149e-002
2.426011e+003, 1.127677e-002
2.427939e+003, 1.141373e-002
2.429868e+003, 1.202866e-002
2.431796e+003, 1.204961e-002
2.433725e+003, 1.211651e-002
2.435653e+003, 1.206489e-002
2.437582e+003, 1.176136e-002
2.439510e+003, 1.180017e-002
2.441439e+003, 1.223053e-002
2.443367e+003, 1.236492e-002
2.445296e+003, 1.284760e-002
2.447224e+003, 1.357661e-002
2.449153e+003, 1.405477e-002
2.451081e+003, 1.354167e-002
2.453010e+003, 1.365144e-002
2.454938e+003, 1.438127e-002
2.456866e+003, 1.422839e-002
2.458795e+003, 1.386453e-002
2.460723e+003, 1.394207e-002
2.462652e+003, 1.439826e-002
2.464580e+003, 1.497416e-002
2.466509e+003, 1.565300e-002
2.468437e+003, 1.608443e-002
2.470366e+003, 1.673799e-002
2.472294e+003, 1.709841e-002
2.474223e+003, 1.749356e-002
2.476151e+003, 1.834394e-002
2.478080e+003, 1.980671e-002
2.480008e+003, 2.116667e-002
2.481937e+003, 2.253938e-002
2.483865e+003, 2.375723e-002
2.485793e+003, 2.472324e-002
2.487722e+003, 2.570269e-002
2.489650e+003, 2.617332e-002
2.491579e+003, 2.659448e-002
2.493507e+003, 2.687784e-002
2.495436e+003, 2.662438e-002
2.497364e+003, 2.623703e-002
2.499293e+003, 2.595055e-002
2.501221e+003, 2.475348e-002
2.503150e+003, 2.387572e-002
2.505078e+003, 2.297145e-002
2.507007e+003, 2.196967e-002
2.508935e+003, 2.153929e-002
2.510864e+003, 2.134500e-002
2.512792e+003, 2.119355e-002
2.514720e+003, 2.094844e-002
2.516649e+003, 2.011532e-002
2.518577e+003, 1.885375e-002
2.520506e+003, 1.751042e-002
2.522434e+003, 1.723332e-002
2.524363e+003, 1.714913e-002
2.526291e+003, 1.610204e-002
2.528220e+003, 1.553838e-002
2.530148e+003, 1.561911e-002
2.532077e+003, 1.565790e-002
2.534005e+003, 1.542467e-002
2.535934e+003, 1.503096e-002
2.537862e+003, 1.473018e-002
2.539791e+003, 1.450720e-002
2.541719e+003, 1.427607e-002
2.543647e+003, 1.385710e-002
2.545576e+003, 1.467665e-002
2.547504e+003, 1.476912e-002
2.549433e+003, 1.435962e-002
2.551361e+003, 1.455967e-002
2.553290e+003, 1.441391e-002
2.555218e+003, 1.384564e-002
2.557147e+003, 1.387385e-002
2.559075e+003, 1.429084e-002
2.561004e+003, 1.413358e-002
2.562932e+003, 1.349670e-002
2.564861e+003, 1.314175e-002
2.566789e+003, 1.369324e-002
2.568718e+003, 1.447669e-002
2.570646e+003, 1.460431e-002
2.572574e+003, 1.402160e-002
2.574503e+003, 1.385815e-002
2.576431e+003, 1.424751e-002
2.578360e+003, 1.392164e-002
2.580288e+003, 1.361951e-002
2.582217e+003, 1.368945e-002
2.584145e+003, 1.366899e-002
2.586074e+003, 1.408094e-002
2.588002e+003, 1.384599e-002
2.589931e+003, 1.332187e-002
2.591859e+003, 1.324585e-002
2.593788e+003, 1.339320e-002
2.595716e+003, 1.345660e-002
2.597645e+003, 1.367897e-002
2.599573e+003, 1.345123e-002
2.601501e+003, 1.343687e-002
2.603430e+003, 1.349545e-002
2.605358e+003, 1.285286e-002
2.607287e+003, 1.242418e-002
2.609215e+003, 1.225865e-002
2.611144e+003, 1.261139e-002
2.613072e+003, 1.287384e-002
2.615001e+003, 1.230099e-002
2.616929e+003, 1.169060e-002
2.618858e+003, 1.212204e-002
2.620786e+003, 1.204409e-002
2.622715e+003, 1.191147e-002
2.624643e+003, 1.227848e-002
2.626572e+003, 1.240636e-002
2.628500e+003, 1.226325e-002
2.630428e+003, 1.212804e-002
2.632357e+003, 1.215518e-002
2.634285e+003, 1.213629e-002
2.636214e+003, 1.195230e-002
2.638142e+003, 1.191158e-002
2.640071e+003, 1.181529e-002
2.641999e+003, 1.190715e-002
2.643928e+003, 1.196700e-002
2.645856e+003, 1.167582e-002
2.647785e+003, 1.135982e-002
2.649713e+003, 1.174872e-002
2.651642e+003, 1.176810e-002
2.653570e+003, 1.142931e-002
2.655499e+003, 1.156567e-002
2.657427e+003, 1.185613e-002
2.659355e+003, 1.186616e-002
2.661284e+003, 1.197054e-002
2.663212e+003, 1.205821e-002
2.665141e+003, 1.219259e-002
2.667069e+003, 1.216382e-002
2.668998e+003, 1.209174e-002
2.670926e+003, 1.179682e-002
2.672855e+003, 1.147274e-002
2.674783e+003, 1.154520e-002
2.676712e+003, 1.194459e-002
2.678640e+003, 1.185617e-002
2.680569e+003, 1.180298e-002
2.682497e+003, 1.226373e-002
2.684426e+003, 1.221727e-002
2.686354e+003, 1.190030e-002
2.688282e+003, 1.194736e-002
2.690211e+003, 1.216911e-002
2.692139e+003, 1.224237e-002
2.694068e+003, 1.198434e-002
2.695996e+003, 1.178509e-002
2.697925e+003, 1.194343e-002
2.699853e+003, 1.200971e-002
2.701782e+003, 1.167900e-002
2.703710e+003, 1.195963e-002
2.705639e+003, 1.209287e-002
2.707567e+003, 1.176962e-002
2.709496e+003, 1.190686e-002
2.711424e+003, 1.210784e-002
2.713353e+003, 1.221247e-002
2.715281e+003, 1.247653e-002
2.717209e+003, 1.242843e-002
2.719138e+003, 1.235822e-002
2.721066e+003, 1.252088e-002
2.722995e+003, 1.253140e-002
2.724923e+003, 1.277398e-002
2.726852e+003, 1.289811e-002
2.728780e+003, 1.252878e-002
2.730709e+003, 1.199615e-002
2.732637e+003, 1.206179e-002
2.734566e+003, 1.239227e-002
2.736494e+003, 1.217994e-002
2.738423e+003, 1.220539e-002
2.740351e+003, 1.258401e-002
2.742280e+003, 1.290972e-002
2.744208e+003, 1.268214e-002
2.746136e+003, 1.246327e-002
2.748065e+003, 1.284004e-002
2.749993e+003, 1.320029e-002
2.751922e+003, 1.335781e-002
2.753850e+003, 1.301668e-002
2.755779e+003, 1.277797e-002
2.757707e+003, 1.290338e-002
2.759636e+003, 1.281979e-002
2.761564e+003, 1.322586e-002
2.763493e+003, 1.352741e-002
2.765421e+003, 1.322181e-002
2.767350e+003, 1.296064e-002
2.769278e+003, 1.315583e-002
2.771207e+003, 1.352366e-002
2.773135e+003, 1.350723e-002
2.775063e+003, 1.356693e-002
2.776992e+003, 1.373000e-002
2.778920e+003, 1.390430e-002
2.780849e+003, 1.388235e-002
2.782777e+003, 1.371207e-002
2.784706e+003, 1.343605e-002
2.786634e+003, 1.349782e-002
2.788563e+003, 1.358780e-002
2.790491e+003, 1.351838e-002
2.792420e+003, 1.390801e-002
2.794348e+003, 1.436285e-002
2.796277e+003, 1.426063e-002
2.798205e+003, 1.439637e-002
2.800134e+003, 1.494926e-002
2.802062e+003, 1.519963e-002
2.803990e+003, 1.543844e-002
2.805919e+003, 1.610362e-002
2.807847e+003, 1.649722e-002
2.809776e+003, 1.647580e-002
2.811704e+003, 1.647587e-002
2.813633e+003, 1.692324e-002
2.815561e+003, 1.755666e-002
2.817490e+003, 1.799484e-002
2.819418e+003, 1.827434e-002
2.821347e+003, 1.837271e-002
2.823275e+003, 1.853579e-002
2.825204e+003, 1.862752e-002
2.827132e+003, 1.861646e-002
2.829061e+003, 1.889367e-002
2.830989e+003, 1.938311e-002
2.832917e+003, 1.965867e-002
2.834846e+003, 2.030882e-002
2.836774e+003, 2.095271e-002
2.838703e+003, 2.110674e-002
2.840631e+003, 2.098350e-002
2.842560e+003, 2.100023e-002
2.844488e+003, 2.134143e-002
2.846417e+003, 2.115546e-002
2.848345e+003, 2.101273e-002
2.850274e+003, 2.147987e-002
2.852202e+003, 2.155604e-002
2.854131e+003, 2.099915e-002
2.856059e+003, 2.032582e-002
2.857988e+003, 2.064531e-002
2.859916e+003, 2.080994e-002
2.861844e+003, 2.022569e-002
2.863773e+003, 1.980780e-002
2.865701e+003, 1.939074e-002
2.867630e+003, 1.948689e-002
2.869558e+003, 1.972330e-002
2.871487e+003, 1.973772e-002
2.873415e+003, 1.952494e-002
2.875344e+003, 1.906656e-002
2.877272e+003, 1.885420e-002
2.879201e+003, 1.882887e-002
2.881129e+003, 1.902544e-002
2.883058e+003, 1.947218e-002
2.884986e+003, 2.000805e-002
2.886915e+003, 1.944392e-002
2.888843e+003, 1.918386e-002
2.890771e+003, 1.947759e-002
2.892700e+003, 1.939450e-002
2.894628e+003, 1.900814e-002
2.896557e+003, 1.892250e-002
2.898485e+003, 1.954809e-002
2.900414e+003, 2.010410e-002
2.902342e+003, 2.004644e-002
2.904271e+003, 2.003629e-002
2.906199e+003, 1.984279e-002
2.908128e+003, 1.990039e-002
2.910056e+003, 2.032124e-002
2.911985e+003, 2.064517e-002
2.913913e+003, 2.079801e-002
2.915842e+003, 2.078231e-002
2.917770e+003, 2.102742e-002
2.919698e+003, 2.154827e-002
2.921627e+003, 2.202202e-002
2.923555e+003, 2.199003e-002
2.925484e+003, 2.157864e-002
2.927412e+003, 2.173060e-002
2.929341e+003, 2.197766e-002
2.931269e+003, 2.217940e-002
2.933198e+003, 2.163989e-002
2.935126e+003, 2.148607e-002
2.937055e+003, 2.114147e-002
2.938983e+003, 2.038847e-002
2.940912e+003, 2.024769e-002
2.942840e+003, 2.034190e-002
2.944769e+003, 2.017977e-002
2.946697e+003, 1.961158e-002
2.948625e+003, 1.946589e-002
2.950554e+003, 2.030017e-002
2.952482e+003, 2.089311e-002
2.954411e+003, 2.073414e-002
2.956339e+003, 2.092757e-002
2.958268e+003, 2.069516e-002
2.960196e+003, 2.022561e-002
2.962125e+003, 2.037858e-002
2.964053e+003, 2.041270e-002
2.965982e+003, 2.025117e-002
2.967910e+003, 2.042847e-002
2.969839e+003, 2.099073e-002
2.971767e+003, 2.093841e-002
2.973696e+003, 2.037440e-002
2.975624e+003, 1.993296e-002
2.977552e+003, 1.974721e-002
2.979481e+003, 1.977634e-002
2.981409e+003, 1.988965e-002
2.983338e+003, 1.933941e-002
2.985266e+003, 1.915433e-002
2.987195e+003, 1.913979e-002
2.989123e+003, 1.907565e-002
2.991052e+003, 1.876014e-002
2.992980e+003, 1.851429e-002
2.994909e+003, 1.847357e-002
2.996837e+003, 1.872198e-002
2.998766e+003, 1.820624e-002
3.000694e+003, 1.763017e-002
3.002623e+003, 1.779388e-002
3.004551e+003, 1.773679e-002
3.006479e+003, 1.762912e-002
3.008408e+003, 1.792770e-002
3.010336e+003, 1.814237e-002
3.012265e+003, 1.792954e-002
3.014193e+003, 1.813462e-002
3.016122e+003, 1.851087e-002
3.018050e+003, 1.793265e-002
3.019979e+003, 1.793934e-002
3.021907e+003, 1.868845e-002
3.023836e+003, 1.880760e-002
3.025764e+003, 1.871800e-002
3.027693e+003, 1.847830e-002
3.029621e+003, 1.851043e-002
3.031550e+003, 1.872333e-002
3.033478e+003, 1.905224e-002
3.035406e+003, 1.905986e-002
3.037335e+003, 1.911792e-002
3.039263e+003, 1.936978e-002
3.041192e+003, 1.950846e-002
3.043120e+003, 1.926227e-002
3.045049e+003, 1.942979e-002
3.046977e+003, 2.007602e-002
3.048906e+003, 2.018863e-002
3.050834e+003, 1.988325e-002
3.052763e+003, 1.997386e-002
3.054691e+003, 2.010578e-002
3.056620e+003, 1.956940e-002
3.058548e+003, 1.951788e-002
3.060477e+003, 2.021531e-002
3.062405e+003, 2.032696e-002
3.064333e+003, 2.045874e-002
3.066262e+003, 2.010571e-002
3.068190e+003, 1.991340e-002
3.070119e+003, 2.055118e-002
3.072047e+003, 2.139359e-002
3.073976e+003, 2.178784e-002
3.075904e+003, 2.176495e-002
3.077833e+003, 2.134538e-002
3.079761e+003, 2.115316e-002
3.081690e+003, 2.110790e-002
3.083618e+003, 2.114851e-002
3.085547e+003, 2.141321e-002
3.087475e+003, 2.174430e-002
3.089404e+003, 2.179190e-002
3.091332e+003, 2.178146e-002
3.093260e+003, 2.229984e-002
3.095189e+003, 2.201983e-002
3.097117e+003, 2.204638e-002
3.099046e+003, 2.228788e-002
3.100974e+003, 2.206433e-002
3.102903e+003, 2.209947e-002
3.104831e+003, 2.240731e-002
3.106760e+003, 2.255301e-002
3.108688e+003, 2.294087e-002
3.110617e+003, 2.345714e-002
3.112545e+003, 2.304959e-002
3.114474e+003, 2.290096e-002
3.116402e+003, 2.333257e-002
3.118331e+003, 2.360615e-002
3.120259e+003, 2.340099e-002
3.122188e+003, 2.361345e-002
3.124116e+003, 2.361919e-002
3.126044e+003, 2.384879e-002
3.127973e+003, 2.364592e-002
3.129901e+003, 2.332570e-002
3.131830e+003, 2.391701e-002
3.133758e+003, 2.464555e-002
3.135687e+003, 2.480800e-002
3.137615e+003, 2.491791e-002
3.139544e+003, 2.504490e-002
3.141472e+003, 2.417330e-002
3.143401e+003, 2.374040e-002
3.145329e+003, 2.386706e-002
3.147258e+003, 2.401212e-002
3.149186e+003, 2.500566e-002
3.151115e+003, 2.555764e-002
3.153043e+003, 2.502490e-002
3.154971e+003, 2.463761e-002
3.156900e+003, 2.445087e-002
3.158828e+003, 2.400006e-002
3.160757e+003, 2.444023e-002
3.162685e+003, 2.515340e-002
3.164614e+003, 2.532809e-002
3.166542e+003, 2.525183e-002
3.168471e+003, 2.523267e-002
3.170399e+003, 2.521839e-002
3.172328e+003, 2.494247e-002
3.174256e+003, 2.505316e-002
3.176185e+003, 2.500419e-002
3.178113e+003, 2.465784e-002
3.180042e+003, 2.476977e-002
3.181970e+003, 2.485210e-002
3.183898e+003, 2.489820e-002
3.185827e+003, 2.462753e-002
3.187755e+003, 2.476609e-002
3.189684e+003, 2.479743e-002
3.191612e+003, 2.476344e-002
3.193541e+003, 2.462706e-002
3.195469e+003, 2.461132e-002
3.197398e+003, 2.505263e-002
3.199326e+003, 2.558712e-002
3.201255e+003, 2.549170e-002
3.203183e+003, 2.529455e-002
3.205112e+003, 2.516984e-002
3.207040e+003, 2.460158e-002
3.208969e+003, 2.460187e-002
3.210897e+003, 2.523261e-002
3.212825e+003, 2.639562e-002
3.214754e+003, 2.642395e-002
3.216682e+003, 2.572419e-002
3.218611e+003, 2.604554e-002
3.220539e+003, 2.625805e-002
3.222468e+003, 2.571652e-002
3.224396e+003, 2.588981e-002
3.226325e+003, 2.624139e-002
3.228253e+003, 2.634961e-002
3.230182e+003, 2.590290e-002
3.232110e+003, 2.578070e-002
3.234039e+003, 2.611788e-002
3.235967e+003, 2.617245e-002
3.237896e+003, 2.601492e-002
3.239824e+003, 2.616712e-002
3.241752e+003, 2.624572e-002
3.243681e+003, 2.570465e-002
3.245609e+003, 2.557701e-002
3.247538e+003, 2.625923e-002
3.249466e+003, 2.646373e-002
3.251395e+003, 2.697942e-002
3.253323e+003, 2.720706e-002
3.255252e+003, 2.626820e-002
3.257180e+003, 2.554522e-002
3.259109e+003, 2.567526e-002
3.261037e+003, 2.620195e-002
3.262966e+003, 2.631151e-002
3.264894e+003, 2.650075e-002
3.266823e+003, 2.662284e-002
3.268751e+003, 2.652610e-002
3.270679e+003, 2.638939e-002
3.272608e+003, 2.623936e-002
3.274536e+003, 2.604121e-002
3.276465e+003, 2.652222e-002
3.278393e+003, 2.670064e-002
3.280322e+003, 2.680162e-002
3.282250e+003, 2.725818e-002
3.284179e+003, 2.689701e-002
3.286107e+003, 2.652895e-002
3.288036e+003, 2.656516e-002
3.289964e+003, 2.646525e-002
3.291893e+003, 2.662644e-002
3.293821e+003, 2.696341e-002
3.295750e+003, 2.672217e-002
3.297678e+003, 2.652062e-002
3.299606e+003, 2.679911e-002
3.301535e+003, 2.666152e-002
3.303463e+003, 2.612689e-002
3.305392e+003, 2.632552e-002
3.307320e+003, 2.660308e-002
3.309249e+003, 2.649283e-002
3.311177e+003, 2.605685e-002
3.313106e+003, 2.609326e-002
3.315034e+003, 2.664644e-002
3.316963e+003, 2.698520e-002
3.318891e+003, 2.656431e-002
3.320820e+003, 2.594798e-002
3.322748e+003, 2.672482e-002
3.324677e+003, 2.757200e-002
3.326605e+003, 2.796880e-002
3.328533e+003, 2.824107e-002
3.330462e+003, 2.742687e-002
3.332390e+003, 2.714739e-002
3.334319e+003, 2.738207e-002
3.336247e+003, 2.767979e-002
3.338176e+003, 2.779252e-002
3.340104e+003, 2.730191e-002
3.342033e+003, 2.700086e-002
3.343961e+003, 2.710844e-002
3.345890e+003, 2.697973e-002
3.347818e+003, 2.653745e-002
3.349747e+003, 2.693417e-002
3.351675e+003, 2.770478e-002
3.353604e+003, 2.780975e-002
3.355532e+003, 2.796582e-002
3.357460e+003, 2.827733e-002
3.359389e+003, 2.846813e-002
3.361317e+003, 2.803208e-002
3.363246e+003, 2.764790e-002
3.365174e+003, 2.754047e-002
3.367103e+003, 2.765948e-002
3.369031e+003, 2.746454e-002
3.370960e+003, 2.755754e-002
3.372888e+003, 2.751420e-002
3.374817e+003, 2.770758e-002
3.376745e+003, 2.783767e-002
3.378674e+003, 2.805609e-002
3.380602e+003, 2.836899e-002
3.382531e+003, 2.807361e-002
3.384459e+003, 2.772343e-002
3.386387e+003, 2.722501e-002
3.388316e+003, 2.745863e-002
3.390244e+003, 2.789904e-002
3.392173e+003, 2.783244e-002
3.394101e+003, 2.734110e-002
3.396030e+003, 2.716155e-002
3.397958e+003, 2.736747e-002
3.399887e+003, 2.812638e-002
3.401815e+003, 2.870997e-002
3.403744e+003, 2.858366e-002
3.405672e+003, 2.792135e-002
3.407601e+003, 2.828951e-002
3.409529e+003, 2.869421e-002
3.411458e+003, 2.811991e-002
3.413386e+003, 2.809616e-002
3.415314e+003, 2.870540e-002
3.417243e+003, 2.877875e-002
3.419171e+003, 2.935809e-002
3.421100e+003, 2.917152e-002
3.423028e+003, 2.886818e-002
3.424957e+003, 2.827005e-002
3.426885e+003, 2.798407e-002
3.428814e+003, 2.796752e-002
3.430742e+003, 2.788769e-002
3.432671e+003, 2.808764e-002
3.434599e+003, 2.863511e-002
3.436528e+003, 2.898191e-002
3.438456e+003, 2.856204e-002
3.440385e+003, 2.895761e-002
3.442313e+003, 2.997007e-002
3.444241e+003, 3.008979e-002
3.446170e+003, 2.937773e-002
3.448098e+003, 2.838992e-002
3.450027e+003, 2.816664e-002
3.451955e+003, 2.828798e-002
3.453884e+003, 2.842239e-002
3.455812e+003, 2.852823e-002
3.457741e+003, 2.829207e-002
3.459669e+003, 2.803477e-002
3.461598e+003, 2.727023e-002
3.463526e+003, 2.676069e-002
3.465455e+003, 2.785237e-002
3.467383e+003, 2.814831e-002
3.469312e+003, 2.689760e-002
3.471240e+003, 2.644275e-002
3.473168e+003, 2.729212e-002
3.475097e+003, 2.815943e-002
3.477025e+003, 2.841336e-002
3.478954e+003, 2.852156e-002
3.480882e+003, 2.880737e-002
3.482811e+003, 2.929694e-002
3.484739e+003, 2.903312e-002
3.486668e+003, 2.845578e-002
3.488596e+003, 2.854313e-002
3.490525e+003, 2.889518e-002
3.492453e+003, 2.882222e-002
3.494382e+003, 2.832042e-002
3.496310e+003, 2.843213e-002
3.498239e+003, 2.825059e-002
3.500167e+003, 2.810490e-002
3.502095e+003, 2.745681e-002
3.504024e+003, 2.644119e-002
3.505952e+003, 2.734417e-002
3.507881e+003, 2.818306e-002
3.509809e+003, 2.811859e-002
3.511738e+003, 2.792000e-002
3.513666e+003, 2.830580e-002
3.515595e+003, 2.770985e-002
3.517523e+003, 2.820936e-002
3.519452e+003, 2.930070e-002
3.521380e+003, 2.983647e-002
3.523309e+003, 2.960237e-002
3.525237e+003, 2.904635e-002
3.527166e+003, 2.887989e-002
3.529094e+003, 2.893179e-002
3.531022e+003, 2.840879e-002
3.532951e+003, 2.867928e-002
3.534879e+003, 2.858241e-002
3.536808e+003, 2.774567e-002
3.538736e+003, 2.770743e-002
3.540665e+003, 2.805703e-002
3.542593e+003, 2.810709e-002
3.544522e+003, 2.803999e-002
3.546450e+003, 2.788664e-002
3.548379e+003, 2.824616e-002
3.550307e+003, 2.809558e-002
3.552236e+003, 2.757430e-002
3.554164e+003, 2.785113e-002
3.556093e+003, 2.809528e-002
3.558021e+003, 2.781977e-002
3.559949e+003, 2.780747e-002
3.561878e+003, 2.768135e-002
3.563806e+003, 2.790264e-002
3.565735e+003, 2.851946e-002
3.567663e+003, 2.800409e-002
3.569592e+003, 2.707112e-002
3.571520e+003, 2.695653e-002
3.573449e+003, 2.670329e-002
3.575377e+003, 2.788323e-002
3.577306e+003, 2.816390e-002
3.579234e+003, 2.710212e-002
3.581163e+003, 2.798561e-002
3.583091e+003, 2.873870e-002
3.585020e+003, 2.930760e-002
3.586948e+003, 2.838082e-002
3.588876e+003, 2.683430e-002
3.590805e+003, 2.619643e-002
3.592733e+003, 2.656040e-002
3.594662e+003, 2.658616e-002
3.596590e+003, 2.696933e-002
3.598519e+003, 2.725337e-002
3.600447e+003, 2.738646e-002
3.602376e+003, 2.640515e-002
3.604304e+003, 2.651803e-002
3.606233e+003, 2.718777e-002
3.608161e+003, 2.707069e-002
3.610090e+003, 2.687670e-002
3.612018e+003, 2.713275e-002
3.613947e+003, 2.691845e-002
3.615875e+003, 2.736287e-002
3.617803e+003, 2.772417e-002
3.619732e+003, 2.829996e-002
3.621660e+003, 2.849502e-002
3.623589e+003, 2.859443e-002
3.625517e+003, 2.856598e-002
3.627446e+003, 2.833531e-002
3.629374e+003, 2.899367e-002
3.631303e+003, 2.873336e-002
3.633231e+003, 2.842744e-002
3.635160e+003, 2.826582e-002
3.637088e+003, 2.705772e-002
3.639017e+003, 2.626260e-002
3.640945e+003, 2.622930e-002
3.642874e+003, 2.680523e-002
3.644802e+003, 2.834080e-002
3.646730e+003, 2.897258e-002
3.648659e+003, 2.923319e-002
3.650587e+003, 2.967476e-002
3.652516e+003, 2.805201e-002
3.654444e+003, 2.772559e-002
3.656373e+003, 2.900699e-002
3.658301e+003, 2.896242e-002
3.660230e+003, 2.803028e-002
3.662158e+003, 2.713313e-002
3.664087e+003, 2.748719e-002
3.666015e+003, 2.742739e-002
3.667944e+003, 2.743774e-002
3.669872e+003, 2.912064e-002
3.671801e+003, 2.988798e-002
3.673729e+003, 2.871358e-002
3.675657e+003, 2.840913e-002
3.677586e+003, 2.839092e-002
3.679514e+003, 2.738277e-002
3.681443e+003, 2.603954e-002
3.683371e+003, 2.550237e-002
3.685300e+003, 2.578598e-002
3.687228e+003, 2.777317e-002
3.689157e+003, 2.939281e-002
3.691085e+003, 2.957361e-002
3.693014e+003, 2.840091e-002
3.694942e+003, 2.780138e-002
3.696871e+003, 2.799612e-002
3.698799e+003, 2.772091e-002
3.700728e+003, 2.839096e-002
3.702656e+003, 2.882025e-002
3.704584e+003, 2.878815e-002
3.706513e+003, 2.868674e-002
3.708441e+003, 2.852180e-002
3.710370e+003, 2.872473e-002
3.712298e+003, 2.915655e-002
3.714227e+003, 2.895442e-002
3.716155e+003, 2.852298e-002
3.718084e+003, 2.815500e-002
3.720012e+003, 2.832953e-002
3.721941e+003, 2.924861e-002
3.723869e+003, 2.899391e-002
3.725798e+003, 2.847461e-002
3.727726e+003, 2.851411e-002
3.729655e+003, 2.814152e-002
3.731583e+003, 2.874396e-002
3.733511e+003, 3.071805e-002
3.735440e+003, 3.107983e-002
3.737368e+003, 2.988957e-002
3.739297e+003, 2.937453e-002
3.741225e+003, 2.914154e-002
3.743154e+003, 3.092467e-002
3.745082e+003, 3.176530e-002
3.747011e+003, 2.988461e-002
3.748939e+003, 3.006612e-002
3.750868e+003, 3.048067e-002
3.752796e+003, 2.955250e-002
3.754725e+003, 2.828828e-002
3.756653e+003, 2.832510e-002
3.758582e+003, 2.818251e-002
3.760510e+003, 2.858063e-002
3.762438e+003, 2.903176e-002
3.764367e+003, 2.855993e-002
3.766295e+003, 2.892459e-002
3.768224e+003, 2.909292e-002
3.770152e+003, 2.876363e-002
3.772081e+003, 2.866017e-002
3.774009e+003, 2.896283e-002
3.775938e+003, 2.854740e-002
3.777866e+003, 2.853001e-002
3.779795e+003, 2.943955e-002
3.781723e+003, 2.903874e-002
3.783652e+003, 2.798011e-002
3.785580e+003, 2.708851e-002
3.787509e+003, 2.837605e-002
3.789437e+003, 2.931665e-002
3.791365e+003, 2.987183e-002
3.793294e+003, 2.987691e-002
3.795222e+003, 2.895323e-002
3.797151e+003, 2.833373e-002
3.799079e+003, 2.864384e-002
3.801008e+003, 3.006361e-002
3.802936e+003, 2.895706e-002
3.804865e+003, 2.814391e-002
3.806793e+003, 2.947737e-002
3.808722e+003, 2.949578e-002
3.810650e+003, 2.987797e-002
3.812579e+003, 3.035351e-002
3.814507e+003, 3.113949e-002
3.816436e+003, 3.094121e-002
3.818364e+003, 3.044751e-002
3.820292e+003, 3.127494e-002
3.822221e+003, 3.134893e-002
3.824149e+003, 2.984938e-002
3.826078e+003, 2.900478e-002
3.828006e+003, 2.883922e-002
3.829935e+003, 2.942728e-002
3.831863e+003, 3.014565e-002
3.833792e+003, 2.987434e-002
3.835720e+003, 2.995096e-002
3.837649e+003, 3.091111e-002
3.839577e+003, 3.112935e-002
3.841506e+003, 3.084700e-002
3.843434e+003, 3.013463e-002
3.845363e+003, 2.939383e-002
3.847291e+003, 2.953183e-002
3.849219e+003, 2.948874e-002
3.851148e+003, 3.001114e-002
3.853076e+003, 3.116479e-002
3.855005e+003, 3.109372e-002
3.856933e+003, 2.938981e-002
3.858862e+003, 2.831469e-002
3.860790e+003, 2.933106e-002
3.862719e+003, 3.055705e-002
3.864647e+003, 3.170474e-002
3.866576e+003, 3.221205e-002
3.868504e+003, 3.152687e-002
3.870433e+003, 3.087524e-002
3.872361e+003, 3.164054e-002
3.874290e+003, 3.179574e-002
3.876218e+003, 3.044607e-002
3.878146e+003, 2.963267e-002
3.880075e+003, 2.875384e-002
3.882003e+003, 2.921946e-002
3.883932e+003, 3.103746e-002
3.885860e+003, 3.127399e-002
3.887789e+003, 2.927126e-002
3.889717e+003, 2.901304e-002
3.891646e+003, 3.055649e-002
3.893574e+003, 3.181952e-002
3.895503e+003, 3.191433e-002
3.897431e+003, 3.135791e-002
3.899360e+003, 3.124945e-002
3.901288e+003, 3.146124e-002
3.903217e+003, 3.014305e-002
3.905145e+003, 2.995985e-002
3.907073e+003, 3.151435e-002
3.909002e+003, 3.177812e-002
3.910930e+003, 3.194565e-002
3.912859e+003, 3.210818e-002
3.914787e+003, 3.128906e-002
3.916716e+003, 3.107064e-002
3.918644e+003, 3.209942e-002
3.920573e+003, 3.096022e-002
3.922501e+003, 2.922240e-002
3.924430e+003, 2.988481e-002
3.926358e+003, 3.122146e-002
3.928287e+003, 3.182695e-002
3.930215e+003, 3.220415e-002
3.932144e+003, 3.182130e-002
3.934072e+003, 3.118828e-002
3.936000e+003, 3.020746e-002
3.937929e+003, 3.031005e-002
3.939857e+003, 3.150764e-002
3.941786e+003, 3.242195e-002
3.943714e+003, 3.140153e-002
3.945643e+003, 2.997091e-002
3.947571e+003, 3.018137e-002
3.949500e+003, 3.145880e-002
3.951428e+003, 3.198523e-002
3.953357e+003, 3.175290e-002
3.955285e+003, 3.208815e-002
3.957214e+003, 3.239131e-002
3.959142e+003, 3.240629e-002
3.961071e+003, 3.179654e-002
3.962999e+003, 3.193227e-002
3.964927e+003, 3.172981e-002
3.966856e+003, 3.145581e-002
3.968784e+003, 3.128161e-002
3.970713e+003, 3.228825e-002
3.972641e+003, 3.311647e-002
3.974570e+003, 3.282743e-002
3.976498e+003, 3.221783e-002
3.978427e+003, 3.290671e-002
3.980355e+003, 3.331751e-002
3.982284e+003, 3.200687e-002
3.984212e+003, 3.066548e-002
3.986141e+003, 3.107400e-002
3.988069e+003, 3.196144e-002
3.989998e+003, 3.217648e-002
3.991926e+003, 3.252112e-002
3.993854e+003, 3.254573e-002
3.995783e+003, 3.186278e-002
3.997711e+003, 3.162805e-002
3.999640e+003, 3.157974e-002
##END=



