##NAMES=Rhodochrosite
##RRUFFID=R050019
##IDEAL CHEMISTRY=Mn^2+^CO_3_
##LOCALITY=Home Sweet Home mine, Colorado, USA
##OWNER=RRUFF
##SOURCE=Eugene Schlepp
##DESCRIPTION=Pink single crystal rhombs on quartz
##STATUS=The identification of this mineral has been confirmed by X-ray diffraction and chemical analysis
##URL=rruff.info/R050019
##MEASURED CHEMISTRY=Mn_1.00_CO_3_
3.991926e+002, 1.777971e-002
4.011211e+002, 1.758804e-002
4.030496e+002, 1.767260e-002
4.049780e+002, 1.839851e-002
4.069065e+002, 1.835964e-002
4.088350e+002, 1.691499e-002
4.107634e+002, 1.545311e-002
4.126919e+002, 1.628875e-002
4.146204e+002, 1.607755e-002
4.165488e+002, 1.541695e-002
4.184773e+002, 1.585081e-002
4.204058e+002, 1.654794e-002
4.223342e+002, 1.621615e-002
4.242627e+002, 1.578197e-002
4.261912e+002, 1.604939e-002
4.281196e+002, 1.662240e-002
4.300481e+002, 1.758726e-002
4.319766e+002, 1.743728e-002
4.339050e+002, 1.726545e-002
4.358335e+002, 1.784890e-002
4.377620e+002, 1.803266e-002
4.396904e+002, 1.748874e-002
4.416189e+002, 1.757361e-002
4.435474e+002, 1.780050e-002
4.454758e+002, 1.754086e-002
4.474043e+002, 1.710289e-002
4.493328e+002, 1.731650e-002
4.512612e+002, 1.791769e-002
4.531897e+002, 1.835883e-002
4.551182e+002, 1.841755e-002
4.570466e+002, 1.816978e-002
4.589751e+002, 1.809170e-002
4.609036e+002, 1.856706e-002
4.628320e+002, 1.820157e-002
4.647605e+002, 1.802840e-002
4.666890e+002, 1.855209e-002
4.686174e+002, 1.897641e-002
4.705459e+002, 1.867759e-002
4.724744e+002, 1.828239e-002
4.744028e+002, 1.797190e-002
4.763313e+002, 1.789593e-002
4.782598e+002, 1.786341e-002
4.801882e+002, 1.725317e-002
4.821167e+002, 1.606948e-002
4.840452e+002, 1.591830e-002
4.859736e+002, 1.598346e-002
4.879021e+002, 1.601050e-002
4.898306e+002, 1.580021e-002
4.917590e+002, 1.518236e-002
4.936875e+002, 1.504943e-002
4.956160e+002, 1.510102e-002
4.975444e+002, 1.493306e-002
4.994729e+002, 1.478003e-002
5.014014e+002, 1.443005e-002
5.033298e+002, 1.424568e-002
5.052583e+002, 1.418268e-002
5.071868e+002, 1.429169e-002
5.091152e+002, 1.444930e-002
5.110437e+002, 1.439027e-002
5.129722e+002, 1.406423e-002
5.149006e+002, 1.387117e-002
5.168291e+002, 1.403100e-002
5.187576e+002, 1.430924e-002
5.206860e+002, 1.426970e-002
5.226145e+002, 1.428873e-002
5.245430e+002, 1.489835e-002
5.264714e+002, 1.510202e-002
5.283999e+002, 1.475930e-002
5.303284e+002, 1.454960e-002
5.322568e+002, 1.436100e-002
5.341853e+002, 1.430919e-002
5.361138e+002, 1.416077e-002
5.380422e+002, 1.424265e-002
5.399707e+002, 1.454949e-002
5.418992e+002, 1.478069e-002
5.438276e+002, 1.485650e-002
5.457561e+002, 1.477116e-002
5.476846e+002, 1.492909e-002
5.496130e+002, 1.502407e-002
5.515415e+002, 1.465339e-002
5.534700e+002, 1.429242e-002
5.553984e+002, 1.418904e-002
5.573269e+002, 1.453249e-002
5.592554e+002, 1.529462e-002
5.611838e+002, 1.579033e-002
5.631123e+002, 1.567989e-002
5.650408e+002, 1.572305e-002
5.669692e+002, 1.596341e-002
5.688977e+002, 1.624316e-002
5.708262e+002, 1.682793e-002
5.727546e+002, 1.716693e-002
5.746831e+002, 1.732548e-002
5.766116e+002, 1.742487e-002
5.785400e+002, 1.762563e-002
5.804685e+002, 1.767025e-002
5.823970e+002, 1.775465e-002
5.843254e+002, 1.755808e-002
5.862539e+002, 1.696824e-002
5.881824e+002, 1.697272e-002
5.901108e+002, 1.740981e-002
5.920393e+002, 1.765470e-002
5.939678e+002, 1.761261e-002
5.958962e+002, 1.762922e-002
5.978247e+002, 1.779876e-002
5.997532e+002, 1.783673e-002
6.016816e+002, 1.771764e-002
6.036101e+002, 1.785650e-002
6.055386e+002, 1.793190e-002
6.074670e+002, 1.799425e-002
6.093955e+002, 1.808758e-002
6.113240e+002, 1.820145e-002
6.132524e+002, 1.804606e-002
6.151809e+002, 1.844360e-002
6.171094e+002, 1.892316e-002
6.190378e+002, 1.893228e-002
6.209663e+002, 1.883402e-002
6.228948e+002, 1.891409e-002
6.248232e+002, 1.895926e-002
6.267517e+002, 1.903219e-002
6.286802e+002, 1.947766e-002
6.306086e+002, 1.970453e-002
6.325371e+002, 1.973312e-002
6.344656e+002, 1.982616e-002
6.363940e+002, 2.011178e-002
6.383225e+002, 2.030647e-002
6.402510e+002, 2.037367e-002
6.421794e+002, 2.056223e-002
6.441079e+002, 2.079847e-002
6.460364e+002, 2.099908e-002
6.479648e+002, 2.114797e-002
6.498933e+002, 2.130972e-002
6.518218e+002, 2.152537e-002
6.537502e+002, 2.191772e-002
6.556787e+002, 2.219151e-002
6.576072e+002, 2.216416e-002
6.595356e+002, 2.235023e-002
6.614641e+002, 2.286654e-002
6.633926e+002, 2.321726e-002
6.653210e+002, 2.352706e-002
6.672495e+002, 2.388164e-002
6.691780e+002, 2.400242e-002
6.711064e+002, 2.425346e-002
6.730349e+002, 2.455164e-002
6.749634e+002, 2.500007e-002
6.768918e+002, 2.561727e-002
6.788203e+002, 2.615957e-002
6.807488e+002, 2.639998e-002
6.826772e+002, 2.660868e-002
6.846057e+002, 2.710222e-002
6.865342e+002, 2.767578e-002
6.884626e+002, 2.821666e-002
6.903911e+002, 2.896274e-002
6.923196e+002, 2.969768e-002
6.942480e+002, 3.074330e-002
6.961765e+002, 3.197450e-002
6.981050e+002, 3.302488e-002
7.000334e+002, 3.390220e-002
7.019619e+002, 3.479606e-002
7.038904e+002, 3.607583e-002
7.058188e+002, 3.776958e-002
7.077473e+002, 3.978474e-002
7.096758e+002, 4.235592e-002
7.116042e+002, 4.568399e-002
7.135327e+002, 5.033064e-002
7.154612e+002, 5.704113e-002
7.173896e+002, 6.737789e-002
7.193181e+002, 8.385081e-002
7.212466e+002, 1.113207e-001
7.231750e+002, 1.495124e-001
7.251035e+002, 1.689640e-001
7.270320e+002, 1.327638e-001
7.289604e+002, 7.610263e-002
7.308889e+002, 4.195363e-002
7.328174e+002, 2.814329e-002
7.347458e+002, 2.298161e-002
7.366743e+002, 2.125786e-002
7.386028e+002, 2.083691e-002
7.405313e+002, 2.089179e-002
7.424597e+002, 2.130718e-002
7.443882e+002, 2.181677e-002
7.463167e+002, 2.241092e-002
7.482451e+002, 2.286816e-002
7.501736e+002, 2.303635e-002
7.521021e+002, 2.332139e-002
7.540305e+002, 2.402155e-002
7.559590e+002, 2.466917e-002
7.578875e+002, 2.521978e-002
7.598159e+002, 2.578672e-002
7.617444e+002, 2.645418e-002
7.636729e+002, 2.709330e-002
7.656013e+002, 2.789584e-002
7.675298e+002, 2.843445e-002
7.694583e+002, 2.902384e-002
7.713867e+002, 2.956691e-002
7.733152e+002, 3.017719e-002
7.752437e+002, 3.094062e-002
7.771721e+002, 3.160329e-002
7.791006e+002, 3.211830e-002
7.810291e+002, 3.250932e-002
7.829575e+002, 3.288425e-002
7.848860e+002, 3.313978e-002
7.868145e+002, 3.365096e-002
7.887429e+002, 3.426827e-002
7.906714e+002, 3.459910e-002
7.925999e+002, 3.512197e-002
7.945283e+002, 3.597532e-002
7.964568e+002, 3.676096e-002
7.983853e+002, 3.739033e-002
8.003137e+002, 3.779446e-002
8.022422e+002, 3.811774e-002
8.041707e+002, 3.872814e-002
8.060991e+002, 3.929201e-002
8.080276e+002, 3.993376e-002
8.099561e+002, 4.077594e-002
8.118845e+002, 4.168406e-002
8.138130e+002, 4.267078e-002
8.157415e+002, 4.395415e-002
8.176699e+002, 4.547079e-002
8.195984e+002, 4.715503e-002
8.215269e+002, 4.901911e-002
8.234553e+002, 5.100933e-002
8.253838e+002, 5.359599e-002
8.273123e+002, 5.680872e-002
8.292407e+002, 6.044900e-002
8.311692e+002, 6.551394e-002
8.330977e+002, 7.317840e-002
8.350261e+002, 8.666583e-002
8.369546e+002, 9.362033e-002
8.388831e+002, 8.615565e-002
8.408115e+002, 8.814629e-002
8.427400e+002, 9.975589e-002
8.446685e+002, 1.140402e-001
8.465969e+002, 1.303762e-001
8.485254e+002, 1.495208e-001
8.504539e+002, 1.720002e-001
8.523823e+002, 1.985262e-001
8.543108e+002, 2.273674e-001
8.562393e+002, 2.565520e-001
8.581677e+002, 2.795162e-001
8.600962e+002, 2.864780e-001
8.620247e+002, 2.765540e-001
8.639531e+002, 2.556610e-001
8.658816e+002, 2.268736e-001
8.678101e+002, 1.925395e-001
8.697385e+002, 1.557918e-001
8.716670e+002, 1.198494e-001
8.735955e+002, 8.748040e-002
8.755239e+002, 6.184532e-002
8.774524e+002, 4.553358e-002
8.793809e+002, 3.834394e-002
8.813093e+002, 3.622285e-002
8.832378e+002, 3.606272e-002
8.851663e+002, 3.637126e-002
8.870947e+002, 3.657175e-002
8.890232e+002, 3.671115e-002
8.909517e+002, 3.702050e-002
8.928801e+002, 3.724016e-002
8.948085e+002, 3.753435e-002
8.967370e+002, 3.779875e-002
8.986655e+002, 3.824594e-002
9.005939e+002, 3.895425e-002
9.025224e+002, 3.949181e-002
9.044509e+002, 3.976107e-002
9.063793e+002, 4.027184e-002
9.083078e+002, 4.078499e-002
9.102363e+002, 4.117101e-002
9.121647e+002, 4.149044e-002
9.140932e+002, 4.197846e-002
9.160217e+002, 4.267121e-002
9.179501e+002, 4.324327e-002
9.198786e+002, 4.349209e-002
9.218071e+002, 4.382866e-002
9.237355e+002, 4.436933e-002
9.256640e+002, 4.501995e-002
9.275925e+002, 4.557823e-002
9.295209e+002, 4.608841e-002
9.314494e+002, 4.658743e-002
9.333779e+002, 4.708000e-002
9.353063e+002, 4.765593e-002
9.372348e+002, 4.829166e-002
9.391633e+002, 4.904998e-002
9.410917e+002, 4.988917e-002
9.430202e+002, 5.044417e-002
9.449487e+002, 5.092464e-002
9.468771e+002, 5.148993e-002
9.488056e+002, 5.209857e-002
9.507341e+002, 5.258456e-002
9.526625e+002, 5.306156e-002
9.545910e+002, 5.386997e-002
9.565195e+002, 5.470463e-002
9.584479e+002, 5.551736e-002
9.603764e+002, 5.632004e-002
9.623049e+002, 5.699834e-002
9.642333e+002, 5.795789e-002
9.661618e+002, 5.898255e-002
9.680903e+002, 5.983661e-002
9.700187e+002, 6.050549e-002
9.719472e+002, 6.118913e-002
9.738757e+002, 6.192919e-002
9.758041e+002, 6.286483e-002
9.777326e+002, 6.389058e-002
9.796611e+002, 6.471286e-002
9.815895e+002, 6.564475e-002
9.835180e+002, 6.657817e-002
9.854465e+002, 6.747963e-002
9.873749e+002, 6.846805e-002
9.893034e+002, 6.948688e-002
9.912319e+002, 7.041883e-002
9.931603e+002, 7.128730e-002
9.950888e+002, 7.220971e-002
9.970173e+002, 7.310230e-002
9.989457e+002, 7.403257e-002
1.000874e+003, 7.500318e-002
1.002803e+003, 7.592633e-002
1.004731e+003, 7.686731e-002
1.006660e+003, 7.787841e-002
1.008588e+003, 7.901198e-002
1.010517e+003, 8.004605e-002
1.012445e+003, 8.102190e-002
1.014373e+003, 8.205318e-002
1.016302e+003, 8.308639e-002
1.018230e+003, 8.401633e-002
1.020159e+003, 8.497600e-002
1.022087e+003, 8.559299e-002
1.024016e+003, 8.614459e-002
1.025944e+003, 8.677438e-002
1.027873e+003, 8.749550e-002
1.029801e+003, 8.820745e-002
1.031730e+003, 8.880865e-002
1.033658e+003, 8.950797e-002
1.035587e+003, 8.998547e-002
1.037515e+003, 9.049407e-002
1.039444e+003, 9.119172e-002
1.041372e+003, 9.188634e-002
1.043301e+003, 9.251834e-002
1.045229e+003, 9.319941e-002
1.047157e+003, 9.392565e-002
1.049086e+003, 9.440957e-002
1.051014e+003, 9.502421e-002
1.052943e+003, 9.569727e-002
1.054871e+003, 9.615219e-002
1.056800e+003, 9.644882e-002
1.058728e+003, 9.680878e-002
1.060657e+003, 9.731624e-002
1.062585e+003, 9.788765e-002
1.064514e+003, 9.852660e-002
1.066442e+003, 9.897956e-002
1.068371e+003, 9.945875e-002
1.070299e+003, 9.988821e-002
1.072228e+003, 1.001608e-001
1.074156e+003, 1.004261e-001
1.076084e+003, 1.006010e-001
1.078013e+003, 1.006658e-001
1.079941e+003, 1.008195e-001
1.081870e+003, 1.010023e-001
1.083798e+003, 1.010072e-001
1.085727e+003, 1.008092e-001
1.087655e+003, 1.005031e-001
1.089584e+003, 1.002707e-001
1.091512e+003, 1.002876e-001
1.093441e+003, 1.005124e-001
1.095369e+003, 1.006672e-001
1.097298e+003, 1.008680e-001
1.099226e+003, 1.010655e-001
1.101155e+003, 1.014439e-001
1.103083e+003, 1.020357e-001
1.105011e+003, 1.025413e-001
1.106940e+003, 1.030664e-001
1.108868e+003, 1.033725e-001
1.110797e+003, 1.036341e-001
1.112725e+003, 1.041178e-001
1.114654e+003, 1.046211e-001
1.116582e+003, 1.050845e-001
1.118511e+003, 1.055319e-001
1.120439e+003, 1.060033e-001
1.122368e+003, 1.066924e-001
1.124296e+003, 1.076651e-001
1.126225e+003, 1.085717e-001
1.128153e+003, 1.091622e-001
1.130082e+003, 1.099038e-001
1.132010e+003, 1.108947e-001
1.133938e+003, 1.120026e-001
1.135867e+003, 1.131700e-001
1.137795e+003, 1.142321e-001
1.139724e+003, 1.152028e-001
1.141652e+003, 1.163486e-001
1.143581e+003, 1.174507e-001
1.145509e+003, 1.183464e-001
1.147438e+003, 1.190228e-001
1.149366e+003, 1.199153e-001
1.151295e+003, 1.208531e-001
1.153223e+003, 1.213698e-001
1.155152e+003, 1.218781e-001
1.157080e+003, 1.224772e-001
1.159009e+003, 1.231680e-001
1.160937e+003, 1.238875e-001
1.162865e+003, 1.245281e-001
1.164794e+003, 1.247554e-001
1.166722e+003, 1.251018e-001
1.168651e+003, 1.257606e-001
1.170579e+003, 1.262329e-001
1.172508e+003, 1.266638e-001
1.174436e+003, 1.271795e-001
1.176365e+003, 1.278845e-001
1.178293e+003, 1.288307e-001
1.180222e+003, 1.299765e-001
1.182150e+003, 1.312571e-001
1.184079e+003, 1.324094e-001
1.186007e+003, 1.336035e-001
1.187936e+003, 1.349148e-001
1.189864e+003, 1.361157e-001
1.191792e+003, 1.369749e-001
1.193721e+003, 1.376982e-001
1.195649e+003, 1.385115e-001
1.197578e+003, 1.393147e-001
1.199506e+003, 1.401118e-001
1.201435e+003, 1.407168e-001
1.203363e+003, 1.413052e-001
1.205292e+003, 1.418942e-001
1.207220e+003, 1.427201e-001
1.209149e+003, 1.437020e-001
1.211077e+003, 1.447957e-001
1.213006e+003, 1.459014e-001
1.214934e+003, 1.470511e-001
1.216863e+003, 1.482199e-001
1.218791e+003, 1.492950e-001
1.220719e+003, 1.506654e-001
1.222648e+003, 1.522172e-001
1.224576e+003, 1.534235e-001
1.226505e+003, 1.547053e-001
1.228433e+003, 1.563402e-001
1.230362e+003, 1.580710e-001
1.232290e+003, 1.597705e-001
1.234219e+003, 1.615052e-001
1.236147e+003, 1.632947e-001
1.238076e+003, 1.653290e-001
1.240004e+003, 1.672516e-001
1.241933e+003, 1.691083e-001
1.243861e+003, 1.707850e-001
1.245790e+003, 1.726955e-001
1.247718e+003, 1.747979e-001
1.249646e+003, 1.767496e-001
1.251575e+003, 1.784510e-001
1.253503e+003, 1.803292e-001
1.255432e+003, 1.824113e-001
1.257360e+003, 1.845867e-001
1.259289e+003, 1.865010e-001
1.261217e+003, 1.884526e-001
1.263146e+003, 1.904999e-001
1.265074e+003, 1.926534e-001
1.267003e+003, 1.950229e-001
1.268931e+003, 1.973981e-001
1.270860e+003, 2.001646e-001
1.272788e+003, 2.029485e-001
1.274717e+003, 2.053916e-001
1.276645e+003, 2.077134e-001
1.278573e+003, 2.101821e-001
1.280502e+003, 2.128081e-001
1.282430e+003, 2.154448e-001
1.284359e+003, 2.180405e-001
1.286287e+003, 2.208017e-001
1.288216e+003, 2.239490e-001
1.290144e+003, 2.272612e-001
1.292073e+003, 2.304662e-001
1.294001e+003, 2.336327e-001
1.295930e+003, 2.367860e-001
1.297858e+003, 2.397746e-001
1.299787e+003, 2.428412e-001
1.301715e+003, 2.460399e-001
1.303644e+003, 2.493817e-001
1.305572e+003, 2.527690e-001
1.307500e+003, 2.561024e-001
1.309429e+003, 2.594935e-001
1.311357e+003, 2.630910e-001
1.313286e+003, 2.667900e-001
1.315214e+003, 2.703854e-001
1.317143e+003, 2.740757e-001
1.319071e+003, 2.779881e-001
1.321000e+003, 2.822388e-001
1.322928e+003, 2.869521e-001
1.324857e+003, 2.912894e-001
1.326785e+003, 2.953609e-001
1.328714e+003, 2.994468e-001
1.330642e+003, 3.037350e-001
1.332571e+003, 3.086296e-001
1.334499e+003, 3.134528e-001
1.336427e+003, 3.176065e-001
1.338356e+003, 3.209172e-001
1.340284e+003, 3.239978e-001
1.342213e+003, 3.277158e-001
1.344141e+003, 3.323106e-001
1.346070e+003, 3.371919e-001
1.347998e+003, 3.423936e-001
1.349927e+003, 3.478779e-001
1.351855e+003, 3.536142e-001
1.353784e+003, 3.593572e-001
1.355712e+003, 3.650393e-001
1.357641e+003, 3.709202e-001
1.359569e+003, 3.770333e-001
1.361498e+003, 3.831560e-001
1.363426e+003, 3.888905e-001
1.365354e+003, 3.944567e-001
1.367283e+003, 4.000846e-001
1.369211e+003, 4.060949e-001
1.371140e+003, 4.121763e-001
1.373068e+003, 4.179550e-001
1.374997e+003, 4.236287e-001
1.376925e+003, 4.291681e-001
1.378854e+003, 4.344537e-001
1.380782e+003, 4.387572e-001
1.382711e+003, 4.419281e-001
1.384639e+003, 4.441198e-001
1.386568e+003, 4.461246e-001
1.388496e+003, 4.493434e-001
1.390424e+003, 4.531530e-001
1.392353e+003, 4.558351e-001
1.394281e+003, 4.572833e-001
1.396210e+003, 4.582499e-001
1.398138e+003, 4.582396e-001
1.400067e+003, 4.562374e-001
1.401995e+003, 4.521560e-001
1.403924e+003, 4.468656e-001
1.405852e+003, 4.403878e-001
1.407781e+003, 4.325008e-001
1.409709e+003, 4.239269e-001
1.411638e+003, 4.159389e-001
1.413566e+003, 4.087261e-001
1.415495e+003, 4.022540e-001
1.417423e+003, 3.963969e-001
1.419351e+003, 3.906116e-001
1.421280e+003, 3.847168e-001
1.423208e+003, 3.785934e-001
1.425137e+003, 3.720129e-001
1.427065e+003, 3.649788e-001
1.428994e+003, 3.580924e-001
1.430922e+003, 3.512868e-001
1.432851e+003, 3.443524e-001
1.434779e+003, 3.377421e-001
1.436708e+003, 3.312436e-001
1.438636e+003, 3.243440e-001
1.440565e+003, 3.174106e-001
1.442493e+003, 3.106583e-001
1.444422e+003, 3.038740e-001
1.446350e+003, 2.970856e-001
1.448278e+003, 2.902720e-001
1.450207e+003, 2.837847e-001
1.452135e+003, 2.775056e-001
1.454064e+003, 2.710111e-001
1.455992e+003, 2.646681e-001
1.457921e+003, 2.585275e-001
1.459849e+003, 2.526490e-001
1.461778e+003, 2.468832e-001
1.463706e+003, 2.411730e-001
1.465635e+003, 2.354579e-001
1.467563e+003, 2.300652e-001
1.469492e+003, 2.249631e-001
1.471420e+003, 2.197784e-001
1.473349e+003, 2.144585e-001
1.475277e+003, 2.092005e-001
1.477205e+003, 2.041096e-001
1.479134e+003, 1.991740e-001
1.481062e+003, 1.942180e-001
1.482991e+003, 1.891783e-001
1.484919e+003, 1.840435e-001
1.486848e+003, 1.788559e-001
1.488776e+003, 1.736120e-001
1.490705e+003, 1.684827e-001
1.492633e+003, 1.636356e-001
1.494562e+003, 1.585216e-001
1.496490e+003, 1.534645e-001
1.498419e+003, 1.487291e-001
1.500347e+003, 1.438682e-001
1.502276e+003, 1.390715e-001
1.504204e+003, 1.342817e-001
1.506132e+003, 1.294802e-001
1.508061e+003, 1.248395e-001
1.509989e+003, 1.203213e-001
1.511918e+003, 1.157651e-001
1.513846e+003, 1.112731e-001
1.515775e+003, 1.069573e-001
1.517703e+003, 1.028381e-001
1.519632e+003, 9.902360e-002
1.521560e+003, 9.512604e-002
1.523489e+003, 9.112462e-002
1.525417e+003, 8.726567e-002
1.527346e+003, 8.354119e-002
1.529274e+003, 7.975554e-002
1.531203e+003, 7.581367e-002
1.533131e+003, 7.211006e-002
1.535059e+003, 6.811474e-002
1.536988e+003, 6.384300e-002
1.538916e+003, 5.946827e-002
1.540845e+003, 5.488876e-002
1.542773e+003, 5.016975e-002
1.544702e+003, 4.516682e-002
1.546630e+003, 3.996105e-002
1.548559e+003, 3.494197e-002
1.550487e+003, 3.046004e-002
1.552416e+003, 2.647136e-002
1.554344e+003, 2.331152e-002
1.556273e+003, 2.112339e-002
1.558201e+003, 1.989663e-002
1.560130e+003, 1.904517e-002
1.562058e+003, 1.831533e-002
1.563986e+003, 1.786378e-002
1.565915e+003, 1.789041e-002
1.567843e+003, 1.824509e-002
1.569772e+003, 1.853279e-002
1.571700e+003, 1.886528e-002
1.573629e+003, 1.915434e-002
1.575557e+003, 1.921667e-002
1.577486e+003, 1.942913e-002
1.579414e+003, 2.006375e-002
1.581343e+003, 2.041496e-002
1.583271e+003, 2.032867e-002
1.585200e+003, 2.015274e-002
1.587128e+003, 1.995478e-002
1.589057e+003, 1.984261e-002
1.590985e+003, 1.946531e-002
1.592913e+003, 1.878828e-002
1.594842e+003, 1.785448e-002
1.596770e+003, 1.682241e-002
1.598699e+003, 1.582463e-002
1.600627e+003, 1.506850e-002
1.602556e+003, 1.439917e-002
1.604484e+003, 1.394107e-002
1.606413e+003, 1.364097e-002
1.608341e+003, 1.311969e-002
1.610270e+003, 1.291885e-002
1.612198e+003, 1.306637e-002
1.614127e+003, 1.308592e-002
1.616055e+003, 1.289080e-002
1.617984e+003, 1.260989e-002
1.619912e+003, 1.209569e-002
1.621840e+003, 1.161473e-002
1.623769e+003, 1.134768e-002
1.625697e+003, 1.116549e-002
1.627626e+003, 1.105108e-002
1.629554e+003, 1.093130e-002
1.631483e+003, 1.076144e-002
1.633411e+003, 1.040233e-002
1.635340e+003, 1.004511e-002
1.637268e+003, 1.001979e-002
1.639197e+003, 1.002872e-002
1.641125e+003, 9.778786e-003
1.643054e+003, 9.702023e-003
1.644982e+003, 9.570219e-003
1.646911e+003, 9.284482e-003
1.648839e+003, 9.117291e-003
1.650767e+003, 9.020072e-003
1.652696e+003, 8.881815e-003
1.654624e+003, 8.622181e-003
1.656553e+003, 8.438318e-003
1.658481e+003, 8.366865e-003
1.660410e+003, 8.266294e-003
1.662338e+003, 8.329738e-003
1.664267e+003, 8.345501e-003
1.666195e+003, 8.026388e-003
1.668124e+003, 7.721198e-003
1.670052e+003, 7.454167e-003
1.671981e+003, 7.270449e-003
1.673909e+003, 7.262255e-003
1.675838e+003, 7.039583e-003
1.677766e+003, 6.903495e-003
1.679694e+003, 6.867516e-003
1.681623e+003, 6.601109e-003
1.683551e+003, 6.222154e-003
1.685480e+003, 6.293902e-003
1.687408e+003, 6.543326e-003
1.689337e+003, 6.392354e-003
1.691265e+003, 6.194390e-003
1.693194e+003, 6.349551e-003
1.695122e+003, 6.261663e-003
1.697051e+003, 6.084419e-003
1.698979e+003, 5.984087e-003
1.700908e+003, 5.737253e-003
1.702836e+003, 5.475437e-003
1.704765e+003, 5.379173e-003
1.706693e+003, 5.449288e-003
1.708621e+003, 5.469715e-003
1.710550e+003, 5.204436e-003
1.712478e+003, 5.101240e-003
1.714407e+003, 5.348800e-003
1.716335e+003, 5.452794e-003
1.718264e+003, 5.562294e-003
1.720192e+003, 5.663418e-003
1.722121e+003, 5.535628e-003
1.724049e+003, 5.376876e-003
1.725978e+003, 5.547723e-003
1.727906e+003, 5.764676e-003
1.729835e+003, 5.686555e-003
1.731763e+003, 5.476153e-003
1.733692e+003, 5.360365e-003
1.735620e+003, 5.316557e-003
1.737548e+003, 5.402409e-003
1.739477e+003, 5.395286e-003
1.741405e+003, 5.521353e-003
1.743334e+003, 5.429634e-003
1.745262e+003, 5.535133e-003
1.747191e+003, 5.842144e-003
1.749119e+003, 6.216409e-003
1.751048e+003, 6.332011e-003
1.752976e+003, 6.236954e-003
1.754905e+003, 6.424339e-003
1.756833e+003, 6.564337e-003
1.758762e+003, 6.640635e-003
1.760690e+003, 6.641109e-003
1.762619e+003, 6.655183e-003
1.764547e+003, 6.760782e-003
1.766475e+003, 6.854474e-003
1.768404e+003, 6.958969e-003
1.770332e+003, 7.075381e-003
1.772261e+003, 7.213427e-003
1.774189e+003, 7.236627e-003
1.776118e+003, 7.056739e-003
1.778046e+003, 7.331752e-003
1.779975e+003, 7.810871e-003
1.781903e+003, 8.325587e-003
1.783832e+003, 8.957668e-003
1.785760e+003, 9.339319e-003
1.787689e+003, 1.017001e-002
1.789617e+003, 1.182293e-002
1.791546e+003, 1.409754e-002
1.793474e+003, 1.658863e-002
1.795402e+003, 1.832446e-002
1.797331e+003, 1.899462e-002
1.799259e+003, 1.908817e-002
1.801188e+003, 1.906181e-002
1.803116e+003, 1.908743e-002
1.805045e+003, 1.853963e-002
1.806973e+003, 1.700560e-002
1.808902e+003, 1.510134e-002
1.810830e+003, 1.289438e-002
1.812759e+003, 1.064217e-002
1.814687e+003, 8.722883e-003
1.816616e+003, 7.784169e-003
1.818544e+003, 7.087297e-003
1.820473e+003, 6.711291e-003
1.822401e+003, 6.572914e-003
1.824329e+003, 6.292540e-003
1.826258e+003, 6.236457e-003
1.828186e+003, 6.252126e-003
1.830115e+003, 6.044530e-003
1.832043e+003, 5.895640e-003
1.833972e+003, 5.711257e-003
1.835900e+003, 5.433619e-003
1.837829e+003, 5.270203e-003
1.839757e+003, 5.450303e-003
1.841686e+003, 5.713658e-003
1.843614e+003, 5.810406e-003
1.845543e+003, 5.916058e-003
1.847471e+003, 6.086941e-003
1.849400e+003, 6.004063e-003
1.851328e+003, 5.623727e-003
1.853256e+003, 5.713529e-003
1.855185e+003, 5.992043e-003
1.857113e+003, 5.916412e-003
1.859042e+003, 5.832320e-003
1.860970e+003, 5.936970e-003
1.862899e+003, 5.970893e-003
1.864827e+003, 5.852337e-003
1.866756e+003, 6.331452e-003
1.868684e+003, 6.860562e-003
1.870613e+003, 6.321917e-003
1.872541e+003, 5.676812e-003
1.874470e+003, 5.919222e-003
1.876398e+003, 6.082102e-003
1.878327e+003, 5.945430e-003
1.880255e+003, 6.010375e-003
1.882183e+003, 5.827057e-003
1.884112e+003, 6.027005e-003
1.886040e+003, 5.841020e-003
1.887969e+003, 6.091544e-003
1.889897e+003, 6.634090e-003
1.891826e+003, 6.612605e-003
1.893754e+003, 6.144565e-003
1.895683e+003, 6.158872e-003
1.897611e+003, 6.793484e-003
1.899540e+003, 7.184921e-003
1.901468e+003, 6.958508e-003
1.903397e+003, 6.699829e-003
1.905325e+003, 6.719979e-003
1.907254e+003, 7.192946e-003
1.909182e+003, 6.768867e-003
1.911110e+003, 6.377759e-003
1.913039e+003, 7.108845e-003
1.914967e+003, 7.026370e-003
1.916896e+003, 6.546204e-003
1.918824e+003, 6.647389e-003
1.920753e+003, 6.672604e-003
1.922681e+003, 6.411105e-003
1.924610e+003, 6.049158e-003
1.926538e+003, 6.197363e-003
1.928467e+003, 5.883658e-003
1.930395e+003, 6.049560e-003
1.932324e+003, 6.363514e-003
1.934252e+003, 6.623275e-003
1.936181e+003, 6.716297e-003
1.938109e+003, 6.104993e-003
1.940037e+003, 6.206766e-003
1.941966e+003, 6.419989e-003
1.943894e+003, 6.161771e-003
1.945823e+003, 5.377822e-003
1.947751e+003, 5.378969e-003
1.949680e+003, 5.824144e-003
1.951608e+003, 6.708275e-003
1.953537e+003, 6.564355e-003
1.955465e+003, 5.236025e-003
1.957394e+003, 4.525314e-003
1.959322e+003, 5.659859e-003
1.961251e+003, 6.719778e-003
1.963179e+003, 6.628522e-003
1.965108e+003, 6.186151e-003
1.967036e+003, 5.611850e-003
1.968964e+003, 4.703960e-003
1.970893e+003, 4.946306e-003
1.972821e+003, 5.622719e-003
1.974750e+003, 4.862800e-003
1.976678e+003, 4.268397e-003
1.978607e+003, 6.776128e-003
1.980535e+003, 8.855785e-003
1.982464e+003, 9.507889e-003
1.984392e+003, 9.706424e-003
1.986321e+003, 8.611903e-003
1.988249e+003, 7.433811e-003
1.990178e+003, 6.220798e-003
1.992106e+003, 6.074069e-003
1.994035e+003, 6.867331e-003
1.995963e+003, 7.448088e-003
1.997891e+003, 7.691275e-003
1.999820e+003, 6.814077e-003
2.001748e+003, 5.961227e-003
2.003677e+003, 5.778818e-003
2.005605e+003, 6.491414e-003
2.007534e+003, 7.412959e-003
2.009462e+003, 6.960013e-003
2.011391e+003, 8.183197e-003
2.013319e+003, 7.843678e-003
2.015248e+003, 6.472817e-003
2.017176e+003, 6.799322e-003
2.019105e+003, 5.585902e-003
2.021033e+003, 4.275390e-003
2.022962e+003, 6.107009e-003
2.024890e+003, 7.180749e-003
2.026818e+003, 7.151969e-003
2.028747e+003, 6.391778e-003
2.030675e+003, 6.102121e-003
2.032604e+003, 6.607391e-003
2.034532e+003, 7.440309e-003
2.036461e+003, 8.455236e-003
2.038389e+003, 8.118837e-003
2.040318e+003, 7.283751e-003
2.042246e+003, 6.801782e-003
2.044175e+003, 7.209919e-003
2.046103e+003, 7.721950e-003
2.048032e+003, 9.056645e-003
2.049960e+003, 9.514056e-003
2.051889e+003, 8.937002e-003
2.053817e+003, 9.052582e-003
2.055746e+003, 8.413243e-003
2.057674e+003, 8.327721e-003
2.059603e+003, 9.917459e-003
2.061531e+003, 9.986677e-003
2.063459e+003, 8.857552e-003
2.065388e+003, 8.726752e-003
2.067316e+003, 9.460296e-003
2.069245e+003, 9.861022e-003
2.071173e+003, 1.018741e-002
2.073102e+003, 9.805522e-003
2.075030e+003, 1.012199e-002
2.076959e+003, 1.030430e-002
2.078887e+003, 1.001453e-002
2.080816e+003, 1.019867e-002
2.082744e+003, 1.073560e-002
2.084673e+003, 1.074886e-002
2.086601e+003, 1.037684e-002
2.088530e+003, 1.053242e-002
2.090458e+003, 1.046128e-002
2.092386e+003, 9.495912e-003
2.094315e+003, 9.572317e-003
2.096243e+003, 1.082676e-002
2.098172e+003, 1.185770e-002
2.100100e+003, 1.119235e-002
2.102029e+003, 9.819166e-003
2.103957e+003, 9.806545e-003
2.105886e+003, 1.046321e-002
2.107814e+003, 1.103670e-002
2.109743e+003, 1.154828e-002
2.111671e+003, 1.172278e-002
2.113600e+003, 1.138557e-002
2.115528e+003, 1.033217e-002
2.117457e+003, 1.052325e-002
2.119385e+003, 1.101295e-002
2.121313e+003, 1.064881e-002
2.123242e+003, 1.044395e-002
2.125170e+003, 9.873491e-003
2.127099e+003, 9.908270e-003
2.129027e+003, 9.296974e-003
2.130956e+003, 8.343630e-003
2.132884e+003, 8.753272e-003
2.134813e+003, 8.948151e-003
2.136741e+003, 8.778373e-003
2.138670e+003, 8.581132e-003
2.140598e+003, 7.972467e-003
2.142527e+003, 8.585813e-003
2.144455e+003, 8.843981e-003
2.146384e+003, 8.134758e-003
2.148312e+003, 7.138574e-003
2.150240e+003, 6.859359e-003
2.152169e+003, 6.225788e-003
2.154097e+003, 5.146429e-003
2.156026e+003, 4.308078e-003
2.157954e+003, 5.889479e-003
2.159883e+003, 9.915465e-003
2.161811e+003, 9.749377e-003
2.163740e+003, 1.017503e-002
2.165668e+003, 1.089995e-002
2.167597e+003, 1.057945e-002
2.169525e+003, 9.474483e-003
2.171454e+003, 9.330614e-003
2.173382e+003, 9.594084e-003
2.175311e+003, 1.104044e-002
2.177239e+003, 1.108322e-002
2.179167e+003, 9.004288e-003
2.181096e+003, 8.334729e-003
2.183024e+003, 8.870213e-003
2.184953e+003, 9.876844e-003
2.186881e+003, 1.148606e-002
2.188810e+003, 1.157661e-002
2.190738e+003, 1.127262e-002
2.192667e+003, 1.286179e-002
2.194595e+003, 1.347839e-002
2.196524e+003, 1.175906e-002
2.198452e+003, 1.120386e-002
2.200381e+003, 1.196333e-002
2.202309e+003, 1.168639e-002
2.204238e+003, 1.080691e-002
2.206166e+003, 1.077929e-002
2.208094e+003, 1.217497e-002
2.210023e+003, 1.253455e-002
2.211951e+003, 1.268222e-002
2.213880e+003, 1.224150e-002
2.215808e+003, 1.254061e-002
2.217737e+003, 1.345540e-002
2.219665e+003, 1.376037e-002
2.221594e+003, 1.372041e-002
2.223522e+003, 1.369817e-002
2.225451e+003, 1.410024e-002
2.227379e+003, 1.367625e-002
2.229308e+003, 1.263581e-002
2.231236e+003, 1.279659e-002
2.233165e+003, 1.434680e-002
2.235093e+003, 1.490001e-002
2.237021e+003, 1.377778e-002
2.238950e+003, 1.385701e-002
2.240878e+003, 1.387344e-002
2.242807e+003, 1.384696e-002
2.244735e+003, 1.445920e-002
2.246664e+003, 1.398093e-002
2.248592e+003, 1.322215e-002
2.250521e+003, 1.313224e-002
2.252449e+003, 1.378353e-002
2.254378e+003, 1.431358e-002
2.256306e+003, 1.495560e-002
2.258235e+003, 1.465953e-002
2.260163e+003, 1.396678e-002
2.262092e+003, 1.435784e-002
2.264020e+003, 1.449977e-002
2.265948e+003, 1.439495e-002
2.267877e+003, 1.548011e-002
2.269805e+003, 1.605470e-002
2.271734e+003, 1.567288e-002
2.273662e+003, 1.593812e-002
2.275591e+003, 1.681871e-002
2.277519e+003, 1.681458e-002
2.279448e+003, 1.610571e-002
2.281376e+003, 1.625324e-002
2.283305e+003, 1.650547e-002
2.285233e+003, 1.641083e-002
2.287162e+003, 1.615323e-002
2.289090e+003, 1.685263e-002
2.291019e+003, 1.700998e-002
2.292947e+003, 1.688745e-002
2.294875e+003, 1.685501e-002
2.296804e+003, 1.672224e-002
2.298732e+003, 1.671120e-002
2.300661e+003, 1.687741e-002
2.302589e+003, 1.721753e-002
2.304518e+003, 1.695283e-002
2.306446e+003, 1.686567e-002
2.308375e+003, 1.748397e-002
2.310303e+003, 1.773020e-002
2.312232e+003, 1.743326e-002
2.314160e+003, 1.743293e-002
2.316089e+003, 1.767598e-002
2.318017e+003, 1.770642e-002
2.319946e+003, 1.798413e-002
2.321874e+003, 1.884580e-002
2.323802e+003, 1.911017e-002
2.325731e+003, 1.784320e-002
2.327659e+003, 1.697197e-002
2.329588e+003, 1.674255e-002
2.331516e+003, 1.665814e-002
2.333445e+003, 1.653861e-002
2.335373e+003, 1.668063e-002
2.337302e+003, 1.706481e-002
2.339230e+003, 1.696453e-002
2.341159e+003, 1.644870e-002
2.343087e+003, 1.665443e-002
2.345016e+003, 1.703869e-002
2.346944e+003, 1.743053e-002
2.348873e+003, 1.731277e-002
2.350801e+003, 1.700074e-002
2.352729e+003, 1.706683e-002
2.354658e+003, 1.725488e-002
2.356586e+003, 1.715016e-002
2.358515e+003, 1.680487e-002
2.360443e+003, 1.681317e-002
2.362372e+003, 1.675885e-002
2.364300e+003, 1.658758e-002
2.366229e+003, 1.661016e-002
2.368157e+003, 1.640314e-002
2.370086e+003, 1.608041e-002
2.372014e+003, 1.613251e-002
2.373942e+003, 1.649957e-002
2.375871e+003, 1.630059e-002
2.377799e+003, 1.621700e-002
2.379728e+003, 1.636407e-002
2.381656e+003, 1.653954e-002
2.383585e+003, 1.668895e-002
2.385513e+003, 1.659317e-002
2.387442e+003, 1.636028e-002
2.389370e+003, 1.662878e-002
2.391299e+003, 1.686716e-002
2.393227e+003, 1.670510e-002
2.395156e+003, 1.687003e-002
2.397084e+003, 1.703813e-002
2.399012e+003, 1.723612e-002
2.400941e+003, 1.686240e-002
2.402869e+003, 1.673409e-002
2.404798e+003, 1.701664e-002
2.406726e+003, 1.712603e-002
2.408655e+003, 1.752860e-002
2.410583e+003, 1.756091e-002
2.412512e+003, 1.709178e-002
2.414440e+003, 1.751986e-002
2.416369e+003, 1.818286e-002
2.418297e+003, 1.778196e-002
2.420226e+003, 1.743096e-002
2.422154e+003, 1.772721e-002
2.424083e+003, 1.772563e-002
2.426011e+003, 1.750291e-002
2.427939e+003, 1.793224e-002
2.429868e+003, 1.897253e-002
2.431796e+003, 1.912530e-002
2.433725e+003, 1.849038e-002
2.435653e+003, 1.840669e-002
2.437582e+003, 1.893174e-002
2.439510e+003, 1.886684e-002
2.441439e+003, 1.893651e-002
2.443367e+003, 1.893199e-002
2.445296e+003, 1.890369e-002
2.447224e+003, 1.901350e-002
2.449153e+003, 1.949939e-002
2.451081e+003, 1.978771e-002
2.453010e+003, 1.977805e-002
2.454938e+003, 2.002859e-002
2.456866e+003, 2.012252e-002
2.458795e+003, 2.047021e-002
2.460723e+003, 2.098485e-002
2.462652e+003, 2.128763e-002
2.464580e+003, 2.152337e-002
2.466509e+003, 2.157928e-002
2.468437e+003, 2.171800e-002
2.470366e+003, 2.174808e-002
2.472294e+003, 2.225612e-002
2.474223e+003, 2.337391e-002
2.476151e+003, 2.442988e-002
2.478080e+003, 2.552229e-002
2.480008e+003, 2.737137e-002
2.481937e+003, 2.901441e-002
2.483865e+003, 3.053025e-002
2.485793e+003, 3.141646e-002
2.487722e+003, 3.202510e-002
2.489650e+003, 3.247571e-002
2.491579e+003, 3.238450e-002
2.493507e+003, 3.194544e-002
2.495436e+003, 3.168463e-002
2.497364e+003, 3.101573e-002
2.499293e+003, 2.991198e-002
2.501221e+003, 2.848130e-002
2.503150e+003, 2.764445e-002
2.505078e+003, 2.698965e-002
2.507007e+003, 2.701355e-002
2.508935e+003, 2.714893e-002
2.510864e+003, 2.607847e-002
2.512792e+003, 2.489484e-002
2.514720e+003, 2.453922e-002
2.516649e+003, 2.397894e-002
2.518577e+003, 2.324628e-002
2.520506e+003, 2.255019e-002
2.522434e+003, 2.227720e-002
2.524363e+003, 2.270875e-002
2.526291e+003, 2.162969e-002
2.528220e+003, 2.047749e-002
2.530148e+003, 2.042874e-002
2.532077e+003, 1.989831e-002
2.534005e+003, 1.962442e-002
2.535934e+003, 2.039080e-002
2.537862e+003, 2.064258e-002
2.539791e+003, 1.999895e-002
2.541719e+003, 1.935698e-002
2.543647e+003, 1.985705e-002
2.545576e+003, 2.037394e-002
2.547504e+003, 2.025494e-002
2.549433e+003, 2.016762e-002
2.551361e+003, 2.055859e-002
2.553290e+003, 2.058662e-002
2.555218e+003, 2.051889e-002
2.557147e+003, 2.032946e-002
2.559075e+003, 2.030764e-002
2.561004e+003, 2.070590e-002
2.562932e+003, 2.062638e-002
2.564861e+003, 2.022133e-002
2.566789e+003, 2.063226e-002
2.568718e+003, 2.106129e-002
2.570646e+003, 2.082758e-002
2.572574e+003, 2.034260e-002
2.574503e+003, 2.049408e-002
2.576431e+003, 2.057809e-002
2.578360e+003, 2.003155e-002
2.580288e+003, 1.973929e-002
2.582217e+003, 1.947354e-002
2.584145e+003, 1.955648e-002
2.586074e+003, 2.052754e-002
2.588002e+003, 2.017280e-002
2.589931e+003, 1.961967e-002
2.591859e+003, 2.060518e-002
2.593788e+003, 2.150292e-002
2.595716e+003, 2.087122e-002
2.597645e+003, 2.030890e-002
2.599573e+003, 2.070241e-002
2.601501e+003, 2.105092e-002
2.603430e+003, 2.061213e-002
2.605358e+003, 2.029294e-002
2.607287e+003, 2.020453e-002
2.609215e+003, 2.007628e-002
2.611144e+003, 2.005821e-002
2.613072e+003, 1.987477e-002
2.615001e+003, 2.021901e-002
2.616929e+003, 2.007989e-002
2.618858e+003, 2.027025e-002
2.620786e+003, 2.058689e-002
2.622715e+003, 1.962655e-002
2.624643e+003, 1.936572e-002
2.626572e+003, 1.973123e-002
2.628500e+003, 1.951279e-002
2.630428e+003, 1.959837e-002
2.632357e+003, 1.963617e-002
2.634285e+003, 1.972804e-002
2.636214e+003, 1.958846e-002
2.638142e+003, 1.922569e-002
2.640071e+003, 1.929723e-002
2.641999e+003, 1.988432e-002
2.643928e+003, 1.992086e-002
2.645856e+003, 1.992412e-002
2.647785e+003, 1.974345e-002
2.649713e+003, 1.977526e-002
2.651642e+003, 2.044538e-002
2.653570e+003, 2.050991e-002
2.655499e+003, 1.997437e-002
2.657427e+003, 1.999641e-002
2.659355e+003, 2.033125e-002
2.661284e+003, 2.018213e-002
2.663212e+003, 2.009840e-002
2.665141e+003, 1.990551e-002
2.667069e+003, 1.983100e-002
2.668998e+003, 1.979013e-002
2.670926e+003, 1.925087e-002
2.672855e+003, 1.895881e-002
2.674783e+003, 1.917563e-002
2.676712e+003, 1.962688e-002
2.678640e+003, 1.969383e-002
2.680569e+003, 1.985572e-002
2.682497e+003, 1.978073e-002
2.684426e+003, 1.960433e-002
2.686354e+003, 1.917231e-002
2.688282e+003, 1.930391e-002
2.690211e+003, 1.992199e-002
2.692139e+003, 1.998202e-002
2.694068e+003, 1.971023e-002
2.695996e+003, 1.971815e-002
2.697925e+003, 1.948581e-002
2.699853e+003, 1.973923e-002
2.701782e+003, 2.026591e-002
2.703710e+003, 2.013169e-002
2.705639e+003, 1.954799e-002
2.707567e+003, 1.965932e-002
2.709496e+003, 1.993880e-002
2.711424e+003, 1.968760e-002
2.713353e+003, 1.937312e-002
2.715281e+003, 1.996617e-002
2.717209e+003, 2.017764e-002
2.719138e+003, 1.981509e-002
2.721066e+003, 1.945939e-002
2.722995e+003, 1.957325e-002
2.724923e+003, 2.015681e-002
2.726852e+003, 2.044722e-002
2.728780e+003, 2.030520e-002
2.730709e+003, 2.014563e-002
2.732637e+003, 2.012429e-002
2.734566e+003, 2.022487e-002
2.736494e+003, 2.005822e-002
2.738423e+003, 2.000993e-002
2.740351e+003, 2.031537e-002
2.742280e+003, 2.023833e-002
2.744208e+003, 2.009788e-002
2.746136e+003, 2.013481e-002
2.748065e+003, 2.020633e-002
2.749993e+003, 2.044262e-002
2.751922e+003, 2.019608e-002
2.753850e+003, 2.020624e-002
2.755779e+003, 2.075388e-002
2.757707e+003, 2.076336e-002
2.759636e+003, 2.057944e-002
2.761564e+003, 2.072775e-002
2.763493e+003, 2.120622e-002
2.765421e+003, 2.138459e-002
2.767350e+003, 2.084428e-002
2.769278e+003, 2.055254e-002
2.771207e+003, 2.062344e-002
2.773135e+003, 2.051242e-002
2.775063e+003, 2.083019e-002
2.776992e+003, 2.104809e-002
2.778920e+003, 2.106427e-002
2.780849e+003, 2.146639e-002
2.782777e+003, 2.127191e-002
2.784706e+003, 2.133381e-002
2.786634e+003, 2.176315e-002
2.788563e+003, 2.158775e-002
2.790491e+003, 2.131878e-002
2.792420e+003, 2.127656e-002
2.794348e+003, 2.151371e-002
2.796277e+003, 2.181183e-002
2.798205e+003, 2.258672e-002
2.800134e+003, 2.298350e-002
2.802062e+003, 2.261708e-002
2.803990e+003, 2.271575e-002
2.805919e+003, 2.322496e-002
2.807847e+003, 2.328887e-002
2.809776e+003, 2.304905e-002
2.811704e+003, 2.384983e-002
2.813633e+003, 2.467062e-002
2.815561e+003, 2.461825e-002
2.817490e+003, 2.468473e-002
2.819418e+003, 2.497861e-002
2.821347e+003, 2.518057e-002
2.823275e+003, 2.542387e-002
2.825204e+003, 2.577688e-002
2.827132e+003, 2.623613e-002
2.829061e+003, 2.640032e-002
2.830989e+003, 2.648754e-002
2.832917e+003, 2.679954e-002
2.834846e+003, 2.704033e-002
2.836774e+003, 2.708084e-002
2.838703e+003, 2.715390e-002
2.840631e+003, 2.792702e-002
2.842560e+003, 2.811576e-002
2.844488e+003, 2.786987e-002
2.846417e+003, 2.713548e-002
2.848345e+003, 2.689663e-002
2.850274e+003, 2.683302e-002
2.852202e+003, 2.625443e-002
2.854131e+003, 2.525295e-002
2.856059e+003, 2.507742e-002
2.857988e+003, 2.516450e-002
2.859916e+003, 2.507905e-002
2.861844e+003, 2.486962e-002
2.863773e+003, 2.465802e-002
2.865701e+003, 2.447059e-002
2.867630e+003, 2.425556e-002
2.869558e+003, 2.438595e-002
2.871487e+003, 2.483140e-002
2.873415e+003, 2.477523e-002
2.875344e+003, 2.455787e-002
2.877272e+003, 2.472722e-002
2.879201e+003, 2.521256e-002
2.881129e+003, 2.538384e-002
2.883058e+003, 2.528765e-002
2.884986e+003, 2.542176e-002
2.886915e+003, 2.522895e-002
2.888843e+003, 2.524752e-002
2.890771e+003, 2.623184e-002
2.892700e+003, 2.634360e-002
2.894628e+003, 2.559609e-002
2.896557e+003, 2.538191e-002
2.898485e+003, 2.530878e-002
2.900414e+003, 2.494210e-002
2.902342e+003, 2.485030e-002
2.904271e+003, 2.519978e-002
2.906199e+003, 2.573879e-002
2.908128e+003, 2.609630e-002
2.910056e+003, 2.564619e-002
2.911985e+003, 2.556079e-002
2.913913e+003, 2.633379e-002
2.915842e+003, 2.575533e-002
2.917770e+003, 2.558846e-002
2.919698e+003, 2.587952e-002
2.921627e+003, 2.573258e-002
2.923555e+003, 2.536939e-002
2.925484e+003, 2.466424e-002
2.927412e+003, 2.458132e-002
2.929341e+003, 2.433753e-002
2.931269e+003, 2.435873e-002
2.933198e+003, 2.464204e-002
2.935126e+003, 2.542052e-002
2.937055e+003, 2.591551e-002
2.938983e+003, 2.568185e-002
2.940912e+003, 2.534154e-002
2.942840e+003, 2.597828e-002
2.944769e+003, 2.656195e-002
2.946697e+003, 2.626524e-002
2.948625e+003, 2.552272e-002
2.950554e+003, 2.531525e-002
2.952482e+003, 2.575275e-002
2.954411e+003, 2.575163e-002
2.956339e+003, 2.572259e-002
2.958268e+003, 2.578669e-002
2.960196e+003, 2.543687e-002
2.962125e+003, 2.572581e-002
2.964053e+003, 2.654447e-002
2.965982e+003, 2.699311e-002
2.967910e+003, 2.688575e-002
2.969839e+003, 2.739497e-002
2.971767e+003, 2.805601e-002
2.973696e+003, 2.750262e-002
2.975624e+003, 2.681940e-002
2.977552e+003, 2.682486e-002
2.979481e+003, 2.767712e-002
2.981409e+003, 2.792664e-002
2.983338e+003, 2.708355e-002
2.985266e+003, 2.662271e-002
2.987195e+003, 2.661788e-002
2.989123e+003, 2.630581e-002
2.991052e+003, 2.571444e-002
2.992980e+003, 2.575657e-002
2.994909e+003, 2.635982e-002
2.996837e+003, 2.620565e-002
2.998766e+003, 2.595777e-002
3.000694e+003, 2.601341e-002
3.002623e+003, 2.581547e-002
3.004551e+003, 2.507320e-002
3.006479e+003, 2.540512e-002
3.008408e+003, 2.629652e-002
3.010336e+003, 2.638911e-002
3.012265e+003, 2.668081e-002
3.014193e+003, 2.731429e-002
3.016122e+003, 2.725986e-002
3.018050e+003, 2.730741e-002
3.019979e+003, 2.724919e-002
3.021907e+003, 2.684425e-002
3.023836e+003, 2.672317e-002
3.025764e+003, 2.625570e-002
3.027693e+003, 2.646092e-002
3.029621e+003, 2.701787e-002
3.031550e+003, 2.773878e-002
3.033478e+003, 2.789993e-002
3.035406e+003, 2.722741e-002
3.037335e+003, 2.673393e-002
3.039263e+003, 2.700847e-002
3.041192e+003, 2.699599e-002
3.043120e+003, 2.675289e-002
3.045049e+003, 2.686194e-002
3.046977e+003, 2.773219e-002
3.048906e+003, 2.816316e-002
3.050834e+003, 2.775187e-002
3.052763e+003, 2.766980e-002
3.054691e+003, 2.746442e-002
3.056620e+003, 2.750611e-002
3.058548e+003, 2.815777e-002
3.060477e+003, 2.894000e-002
3.062405e+003, 2.970451e-002
3.064333e+003, 2.928126e-002
3.066262e+003, 2.922855e-002
3.068190e+003, 2.965819e-002
3.070119e+003, 2.916477e-002
3.072047e+003, 2.874369e-002
3.073976e+003, 2.913116e-002
3.075904e+003, 2.925479e-002
3.077833e+003, 2.971178e-002
3.079761e+003, 3.039601e-002
3.081690e+003, 3.046058e-002
3.083618e+003, 3.013874e-002
3.085547e+003, 2.985762e-002
3.087475e+003, 3.006894e-002
3.089404e+003, 3.059315e-002
3.091332e+003, 3.081613e-002
3.093260e+003, 3.021681e-002
3.095189e+003, 3.047343e-002
3.097117e+003, 3.145035e-002
3.099046e+003, 3.129655e-002
3.100974e+003, 3.083585e-002
3.102903e+003, 3.056842e-002
3.104831e+003, 3.111451e-002
3.106760e+003, 3.194220e-002
3.108688e+003, 3.134970e-002
3.110617e+003, 3.067125e-002
3.112545e+003, 3.100061e-002
3.114474e+003, 3.197038e-002
3.116402e+003, 3.175778e-002
3.118331e+003, 3.168409e-002
3.120259e+003, 3.226449e-002
3.122188e+003, 3.252799e-002
3.124116e+003, 3.250784e-002
3.126044e+003, 3.184591e-002
3.127973e+003, 3.125667e-002
3.129901e+003, 3.138797e-002
3.131830e+003, 3.266296e-002
3.133758e+003, 3.334062e-002
3.135687e+003, 3.337322e-002
3.137615e+003, 3.291505e-002
3.139544e+003, 3.262164e-002
3.141472e+003, 3.236132e-002
3.143401e+003, 3.239117e-002
3.145329e+003, 3.269796e-002
3.147258e+003, 3.259411e-002
3.149186e+003, 3.260738e-002
3.151115e+003, 3.335866e-002
3.153043e+003, 3.407552e-002
3.154971e+003, 3.462778e-002
3.156900e+003, 3.389004e-002
3.158828e+003, 3.276371e-002
3.160757e+003, 3.293276e-002
3.162685e+003, 3.381957e-002
3.164614e+003, 3.400626e-002
3.166542e+003, 3.329626e-002
3.168471e+003, 3.364904e-002
3.170399e+003, 3.426711e-002
3.172328e+003, 3.455687e-002
3.174256e+003, 3.441338e-002
3.176185e+003, 3.344180e-002
3.178113e+003, 3.347494e-002
3.180042e+003, 3.426700e-002
3.181970e+003, 3.411724e-002
3.183898e+003, 3.421249e-002
3.185827e+003, 3.477692e-002
3.187755e+003, 3.419290e-002
3.189684e+003, 3.332214e-002
3.191612e+003, 3.353312e-002
3.193541e+003, 3.424905e-002
3.195469e+003, 3.465043e-002
3.197398e+003, 3.451986e-002
3.199326e+003, 3.458004e-002
3.201255e+003, 3.484673e-002
3.203183e+003, 3.447606e-002
3.205112e+003, 3.392205e-002
3.207040e+003, 3.411823e-002
3.208969e+003, 3.476250e-002
3.210897e+003, 3.568668e-002
3.212825e+003, 3.608609e-002
3.214754e+003, 3.557171e-002
3.216682e+003, 3.522100e-002
3.218611e+003, 3.494170e-002
3.220539e+003, 3.519609e-002
3.222468e+003, 3.598375e-002
3.224396e+003, 3.547579e-002
3.226325e+003, 3.537122e-002
3.228253e+003, 3.630303e-002
3.230182e+003, 3.641550e-002
3.232110e+003, 3.623164e-002
3.234039e+003, 3.614444e-002
3.235967e+003, 3.586394e-002
3.237896e+003, 3.631210e-002
3.239824e+003, 3.708523e-002
3.241752e+003, 3.651915e-002
3.243681e+003, 3.585896e-002
3.245609e+003, 3.562117e-002
3.247538e+003, 3.545883e-002
3.249466e+003, 3.585888e-002
3.251395e+003, 3.607024e-002
3.253323e+003, 3.567813e-002
3.255252e+003, 3.671595e-002
3.257180e+003, 3.740720e-002
3.259109e+003, 3.647754e-002
3.261037e+003, 3.605850e-002
3.262966e+003, 3.704306e-002
3.264894e+003, 3.725833e-002
3.266823e+003, 3.741542e-002
3.268751e+003, 3.779452e-002
3.270679e+003, 3.769390e-002
3.272608e+003, 3.768398e-002
3.274536e+003, 3.809623e-002
3.276465e+003, 3.785260e-002
3.278393e+003, 3.719008e-002
3.280322e+003, 3.663122e-002
3.282250e+003, 3.695973e-002
3.284179e+003, 3.717358e-002
3.286107e+003, 3.737247e-002
3.288036e+003, 3.768975e-002
3.289964e+003, 3.784442e-002
3.291893e+003, 3.761062e-002
3.293821e+003, 3.801448e-002
3.295750e+003, 3.849022e-002
3.297678e+003, 3.768039e-002
3.299606e+003, 3.675325e-002
3.301535e+003, 3.740075e-002
3.303463e+003, 3.778728e-002
3.305392e+003, 3.677737e-002
3.307320e+003, 3.646357e-002
3.309249e+003, 3.674119e-002
3.311177e+003, 3.795243e-002
3.313106e+003, 3.918123e-002
3.315034e+003, 3.878125e-002
3.316963e+003, 3.781592e-002
3.318891e+003, 3.718293e-002
3.320820e+003, 3.765591e-002
3.322748e+003, 3.872762e-002
3.324677e+003, 3.935559e-002
3.326605e+003, 3.849094e-002
3.328533e+003, 3.823566e-002
3.330462e+003, 3.863884e-002
3.332390e+003, 3.934047e-002
3.334319e+003, 3.906401e-002
3.336247e+003, 3.758846e-002
3.338176e+003, 3.735363e-002
3.340104e+003, 3.810278e-002
3.342033e+003, 3.814192e-002
3.343961e+003, 3.801500e-002
3.345890e+003, 3.791298e-002
3.347818e+003, 3.789185e-002
3.349747e+003, 3.928204e-002
3.351675e+003, 3.958486e-002
3.353604e+003, 3.830909e-002
3.355532e+003, 3.747117e-002
3.357460e+003, 3.810270e-002
3.359389e+003, 3.951041e-002
3.361317e+003, 4.028868e-002
3.363246e+003, 3.919593e-002
3.365174e+003, 3.825550e-002
3.367103e+003, 3.881821e-002
3.369031e+003, 3.954137e-002
3.370960e+003, 3.934546e-002
3.372888e+003, 3.873921e-002
3.374817e+003, 3.905988e-002
3.376745e+003, 4.007181e-002
3.378674e+003, 4.048241e-002
3.380602e+003, 4.010321e-002
3.382531e+003, 3.953127e-002
3.384459e+003, 3.972961e-002
3.386387e+003, 3.932554e-002
3.388316e+003, 3.886112e-002
3.390244e+003, 3.955979e-002
3.392173e+003, 3.980849e-002
3.394101e+003, 3.838760e-002
3.396030e+003, 3.830090e-002
3.397958e+003, 3.971805e-002
3.399887e+003, 4.000973e-002
3.401815e+003, 3.948047e-002
3.403744e+003, 3.897544e-002
3.405672e+003, 3.887377e-002
3.407601e+003, 3.867146e-002
3.409529e+003, 3.864590e-002
3.411458e+003, 3.883418e-002
3.413386e+003, 3.921698e-002
3.415314e+003, 3.902142e-002
3.417243e+003, 3.823717e-002
3.419171e+003, 3.834597e-002
3.421100e+003, 3.831408e-002
3.423028e+003, 3.898894e-002
3.424957e+003, 3.954976e-002
3.426885e+003, 3.946464e-002
3.428814e+003, 3.921967e-002
3.430742e+003, 3.879035e-002
3.432671e+003, 3.979570e-002
3.434599e+003, 3.968118e-002
3.436528e+003, 3.812825e-002
3.438456e+003, 3.857194e-002
3.440385e+003, 3.963150e-002
3.442313e+003, 3.900373e-002
3.444241e+003, 3.752258e-002
3.446170e+003, 3.663456e-002
3.448098e+003, 3.689353e-002
3.450027e+003, 3.817387e-002
3.451955e+003, 3.882382e-002
3.453884e+003, 3.840583e-002
3.455812e+003, 3.791999e-002
3.457741e+003, 3.672774e-002
3.459669e+003, 3.732560e-002
3.461598e+003, 3.954775e-002
3.463526e+003, 4.005184e-002
3.465455e+003, 3.894302e-002
3.467383e+003, 3.828140e-002
3.469312e+003, 3.863035e-002
3.471240e+003, 3.890651e-002
3.473168e+003, 3.846863e-002
3.475097e+003, 3.886493e-002
3.477025e+003, 3.928996e-002
3.478954e+003, 3.877902e-002
3.480882e+003, 3.867329e-002
3.482811e+003, 3.847899e-002
3.484739e+003, 3.876713e-002
3.486668e+003, 3.850785e-002
3.488596e+003, 3.705808e-002
3.490525e+003, 3.693909e-002
3.492453e+003, 3.671652e-002
3.494382e+003, 3.660598e-002
3.496310e+003, 3.735552e-002
3.498239e+003, 3.922736e-002
3.500167e+003, 3.921552e-002
3.502095e+003, 3.687111e-002
3.504024e+003, 3.599723e-002
3.505952e+003, 3.710540e-002
3.507881e+003, 3.693751e-002
3.509809e+003, 3.693981e-002
3.511738e+003, 3.704554e-002
3.513666e+003, 3.761679e-002
3.515595e+003, 3.773433e-002
3.517523e+003, 3.628424e-002
3.519452e+003, 3.630634e-002
3.521380e+003, 3.718629e-002
3.523309e+003, 3.693259e-002
3.525237e+003, 3.696800e-002
3.527166e+003, 3.560236e-002
3.529094e+003, 3.517486e-002
3.531022e+003, 3.577354e-002
3.532951e+003, 3.646414e-002
3.534879e+003, 3.634040e-002
3.536808e+003, 3.665679e-002
3.538736e+003, 3.645596e-002
3.540665e+003, 3.594443e-002
3.542593e+003, 3.560952e-002
3.544522e+003, 3.568511e-002
3.546450e+003, 3.679789e-002
3.548379e+003, 3.740397e-002
3.550307e+003, 3.671937e-002
3.552236e+003, 3.626312e-002
3.554164e+003, 3.687654e-002
3.556093e+003, 3.710642e-002
3.558021e+003, 3.742770e-002
3.559949e+003, 3.648499e-002
3.561878e+003, 3.605561e-002
3.563806e+003, 3.652825e-002
3.565735e+003, 3.670746e-002
3.567663e+003, 3.656842e-002
3.569592e+003, 3.705889e-002
3.571520e+003, 3.673797e-002
3.573449e+003, 3.703648e-002
3.575377e+003, 3.692752e-002
3.577306e+003, 3.549441e-002
3.579234e+003, 3.554720e-002
3.581163e+003, 3.602182e-002
3.583091e+003, 3.658678e-002
3.585020e+003, 3.624213e-002
3.586948e+003, 3.616362e-002
3.588876e+003, 3.812419e-002
3.590805e+003, 3.769796e-002
3.592733e+003, 3.708107e-002
3.594662e+003, 3.704344e-002
3.596590e+003, 3.603842e-002
3.598519e+003, 3.524720e-002
3.600447e+003, 3.542723e-002
3.602376e+003, 3.699150e-002
3.604304e+003, 3.745102e-002
3.606233e+003, 3.589867e-002
3.608161e+003, 3.556485e-002
3.610090e+003, 3.509230e-002
3.612018e+003, 3.500213e-002
3.613947e+003, 3.406154e-002
3.615875e+003, 3.305673e-002
3.617803e+003, 3.384519e-002
3.619732e+003, 3.388884e-002
3.621660e+003, 3.425914e-002
3.623589e+003, 3.486273e-002
3.625517e+003, 3.444983e-002
3.627446e+003, 3.423595e-002
3.629374e+003, 3.522956e-002
3.631303e+003, 3.619311e-002
3.633231e+003, 3.550664e-002
3.635160e+003, 3.589764e-002
3.637088e+003, 3.604946e-002
3.639017e+003, 3.541821e-002
3.640945e+003, 3.494800e-002
3.642874e+003, 3.368746e-002
3.644802e+003, 3.392874e-002
3.646730e+003, 3.595084e-002
3.648659e+003, 3.644759e-002
3.650587e+003, 3.486031e-002
3.652516e+003, 3.470365e-002
3.654444e+003, 3.532555e-002
3.656373e+003, 3.474449e-002
3.658301e+003, 3.422856e-002
3.660230e+003, 3.460920e-002
3.662158e+003, 3.560568e-002
3.664087e+003, 3.578608e-002
3.666015e+003, 3.544440e-002
3.667944e+003, 3.557130e-002
3.669872e+003, 3.597755e-002
3.671801e+003, 3.580796e-002
3.673729e+003, 3.551907e-002
3.675657e+003, 3.508669e-002
3.677586e+003, 3.419192e-002
3.679514e+003, 3.352335e-002
3.681443e+003, 3.373714e-002
3.683371e+003, 3.533195e-002
3.685300e+003, 3.549923e-002
3.687228e+003, 3.495003e-002
3.689157e+003, 3.484375e-002
3.691085e+003, 3.434353e-002
3.693014e+003, 3.449579e-002
3.694942e+003, 3.503047e-002
3.696871e+003, 3.584647e-002
3.698799e+003, 3.588277e-002
3.700728e+003, 3.420199e-002
3.702656e+003, 3.406754e-002
3.704584e+003, 3.482267e-002
3.706513e+003, 3.413696e-002
3.708441e+003, 3.353307e-002
3.710370e+003, 3.518790e-002
3.712298e+003, 3.650905e-002
3.714227e+003, 3.640728e-002
3.716155e+003, 3.705086e-002
3.718084e+003, 3.616423e-002
3.720012e+003, 3.601823e-002
3.721941e+003, 3.689188e-002
3.723869e+003, 3.761885e-002
3.725798e+003, 3.735203e-002
3.727726e+003, 3.625162e-002
3.729655e+003, 3.583022e-002
3.731583e+003, 3.644041e-002
3.733511e+003, 3.600843e-002
3.735440e+003, 3.529859e-002
3.737368e+003, 3.621112e-002
3.739297e+003, 3.524702e-002
3.741225e+003, 3.455795e-002
3.743154e+003, 3.492439e-002
3.745082e+003, 3.450068e-002
3.747011e+003, 3.459184e-002
3.748939e+003, 3.614524e-002
3.750868e+003, 3.579798e-002
3.752796e+003, 3.442642e-002
3.754725e+003, 3.430179e-002
3.756653e+003, 3.552500e-002
3.758582e+003, 3.645391e-002
3.760510e+003, 3.721986e-002
3.762438e+003, 3.644824e-002
3.764367e+003, 3.539973e-002
3.766295e+003, 3.568381e-002
3.768224e+003, 3.611453e-002
3.770152e+003, 3.639398e-002
3.772081e+003, 3.591254e-002
3.774009e+003, 3.580612e-002
3.775938e+003, 3.590890e-002
3.777866e+003, 3.668050e-002
3.779795e+003, 3.612572e-002
3.781723e+003, 3.561929e-002
3.783652e+003, 3.668583e-002
3.785580e+003, 3.682061e-002
3.787509e+003, 3.582325e-002
3.789437e+003, 3.481670e-002
3.791365e+003, 3.578313e-002
3.793294e+003, 3.695509e-002
3.795222e+003, 3.621070e-002
3.797151e+003, 3.642034e-002
3.799079e+003, 3.718925e-002
3.801008e+003, 3.723938e-002
3.802936e+003, 3.700662e-002
3.804865e+003, 3.624255e-002
3.806793e+003, 3.540296e-002
3.808722e+003, 3.531711e-002
3.810650e+003, 3.701238e-002
3.812579e+003, 3.750451e-002
3.814507e+003, 3.677187e-002
3.816436e+003, 3.562361e-002
3.818364e+003, 3.653286e-002
3.820292e+003, 3.740562e-002
3.822221e+003, 3.656701e-002
3.824149e+003, 3.563431e-002
3.826078e+003, 3.523073e-002
3.828006e+003, 3.587798e-002
3.829935e+003, 3.813146e-002
3.831863e+003, 3.912028e-002
3.833792e+003, 3.778064e-002
3.835720e+003, 3.667544e-002
3.837649e+003, 3.767490e-002
3.839577e+003, 3.849389e-002
3.841506e+003, 3.844446e-002
3.843434e+003, 3.676786e-002
3.845363e+003, 3.522192e-002
3.847291e+003, 3.589474e-002
3.849219e+003, 3.627800e-002
3.851148e+003, 3.590081e-002
3.853076e+003, 3.567133e-002
3.855005e+003, 3.581901e-002
3.856933e+003, 3.648172e-002
3.858862e+003, 3.647882e-002
3.860790e+003, 3.603809e-002
3.862719e+003, 3.579444e-002
3.864647e+003, 3.637736e-002
3.866576e+003, 3.682564e-002
3.868504e+003, 3.610797e-002
3.870433e+003, 3.632942e-002
3.872361e+003, 3.789132e-002
3.874290e+003, 3.730311e-002
3.876218e+003, 3.664043e-002
3.878146e+003, 3.723682e-002
3.880075e+003, 3.730209e-002
3.882003e+003, 3.702496e-002
3.883932e+003, 3.666496e-002
3.885860e+003, 3.711377e-002
3.887789e+003, 3.851699e-002
3.889717e+003, 3.891775e-002
3.891646e+003, 3.850314e-002
3.893574e+003, 3.768040e-002
3.895503e+003, 3.734479e-002
3.897431e+003, 3.639269e-002
3.899360e+003, 3.548328e-002
3.901288e+003, 3.671226e-002
3.903217e+003, 3.776018e-002
3.905145e+003, 3.814458e-002
3.907073e+003, 3.773272e-002
3.909002e+003, 3.585881e-002
3.910930e+003, 3.551811e-002
3.912859e+003, 3.810799e-002
3.914787e+003, 3.834300e-002
3.916716e+003, 3.823810e-002
3.918644e+003, 3.737827e-002
3.920573e+003, 3.654145e-002
3.922501e+003, 3.714840e-002
3.924430e+003, 3.793129e-002
3.926358e+003, 3.736448e-002
3.928287e+003, 3.730847e-002
3.930215e+003, 3.786359e-002
3.932144e+003, 3.851625e-002
3.934072e+003, 3.819960e-002
3.936000e+003, 3.733688e-002
3.937929e+003, 3.672807e-002
3.939857e+003, 3.744134e-002
3.941786e+003, 3.748852e-002
3.943714e+003, 3.677555e-002
3.945643e+003, 3.714968e-002
3.947571e+003, 3.736447e-002
3.949500e+003, 3.716405e-002
3.951428e+003, 3.805368e-002
3.953357e+003, 3.878203e-002
3.955285e+003, 3.888424e-002
3.957214e+003, 3.840189e-002
3.959142e+003, 3.797544e-002
3.961071e+003, 3.677246e-002
3.962999e+003, 3.657930e-002
3.964927e+003, 3.796734e-002
3.966856e+003, 3.903870e-002
3.968784e+003, 3.990599e-002
3.970713e+003, 4.046519e-002
3.972641e+003, 3.930371e-002
3.974570e+003, 3.884180e-002
3.976498e+003, 3.797371e-002
3.978427e+003, 3.683906e-002
3.980355e+003, 3.648990e-002
3.982284e+003, 3.713746e-002
3.984212e+003, 3.976492e-002
3.986141e+003, 4.018098e-002
3.988069e+003, 3.959824e-002
3.989998e+003, 3.916484e-002
3.991926e+003, 3.899969e-002
3.993854e+003, 3.999693e-002
3.995783e+003, 3.941755e-002
3.997711e+003, 3.980395e-002
3.999640e+003, 3.982316e-002
##END=



