##NAMES=Richterite
##RRUFFID=R060043
##IDEAL CHEMISTRY=Na(CaNa)Mg_5_Si_8_O_22_(OH)_2_
##LOCALITY=Langban, Filipstad, Varmland, Sweden
##OWNER=RRUFF
##SOURCE=University of Arizona Mineral Museum
##DESCRIPTION=Brown transparent stubby prismatic single crystal associated with calcite
##STATUS=The identification of this mineral has been confirmed by X-ray diffraction and chemical analysis
##URL=rruff.info/R060043
##MEASURED CHEMISTRY=(Na_0.45_K_0.25_[box]_0.30_)(Ca_0.78_Na_1.18_Mn_0.04_)_&#931;=2_(Mg_4.25_Mn_0.75_)_&#931;=5_(Si_0.97_Fe^3+^_0.02_Al_0.01_)_8_O_22_(OH)_2_
3.991926e+002, 3.605362e-001
4.011211e+002, 3.383687e-001
4.030495e+002, 3.480554e-001
4.049780e+002, 3.729104e-001
4.069065e+002, 3.911906e-001
4.088349e+002, 3.705441e-001
4.107634e+002, 3.595618e-001
4.126919e+002, 3.576914e-001
4.146203e+002, 3.504444e-001
4.165488e+002, 3.352917e-001
4.184773e+002, 3.298200e-001
4.204057e+002, 3.251677e-001
4.223342e+002, 3.209835e-001
4.242627e+002, 3.280452e-001
4.261911e+002, 3.329684e-001
4.281196e+002, 3.459839e-001
4.300481e+002, 3.539234e-001
4.319765e+002, 3.647381e-001
4.339050e+002, 3.767514e-001
4.358335e+002, 3.827280e-001
4.377619e+002, 3.789469e-001
4.396904e+002, 3.702497e-001
4.416189e+002, 3.529416e-001
4.435473e+002, 3.444387e-001
4.454758e+002, 3.435901e-001
4.474043e+002, 3.363170e-001
4.493327e+002, 3.338108e-001
4.512612e+002, 3.333698e-001
4.531897e+002, 3.311732e-001
4.551181e+002, 3.286296e-001
4.570466e+002, 3.212430e-001
4.589751e+002, 3.129381e-001
4.609035e+002, 3.091390e-001
4.628320e+002, 2.981720e-001
4.647605e+002, 2.886361e-001
4.666889e+002, 2.892179e-001
4.686174e+002, 2.831529e-001
4.705459e+002, 2.711537e-001
4.724743e+002, 2.647687e-001
4.744028e+002, 2.553873e-001
4.763313e+002, 2.457636e-001
4.782597e+002, 2.408884e-001
4.801882e+002, 2.364769e-001
4.821167e+002, 2.322940e-001
4.840451e+002, 2.297372e-001
4.859736e+002, 2.257296e-001
4.879021e+002, 2.250373e-001
4.898305e+002, 2.274434e-001
4.917590e+002, 2.283991e-001
4.936875e+002, 2.278288e-001
4.956159e+002, 2.248604e-001
4.975444e+002, 2.235128e-001
4.994729e+002, 2.216649e-001
5.014013e+002, 2.191250e-001
5.033298e+002, 2.157189e-001
5.052583e+002, 2.082351e-001
5.071867e+002, 1.989044e-001
5.091152e+002, 1.898649e-001
5.110437e+002, 1.820820e-001
5.129721e+002, 1.756441e-001
5.149006e+002, 1.684295e-001
5.168290e+002, 1.622572e-001
5.187575e+002, 1.585425e-001
5.206860e+002, 1.570479e-001
5.226144e+002, 1.550962e-001
5.245429e+002, 1.509230e-001
5.264714e+002, 1.452455e-001
5.283998e+002, 1.401594e-001
5.303283e+002, 1.367760e-001
5.322568e+002, 1.333439e-001
5.341852e+002, 1.287729e-001
5.361137e+002, 1.245363e-001
5.380422e+002, 1.209228e-001
5.399706e+002, 1.165598e-001
5.418991e+002, 1.098089e-001
5.438276e+002, 1.029870e-001
5.457560e+002, 9.634955e-002
5.476845e+002, 8.998314e-002
5.496130e+002, 8.271801e-002
5.515414e+002, 7.566054e-002
5.534699e+002, 6.918865e-002
5.553984e+002, 6.336583e-002
5.573268e+002, 5.947617e-002
5.592553e+002, 5.483851e-002
5.611838e+002, 5.045475e-002
5.631122e+002, 4.712595e-002
5.650407e+002, 4.440231e-002
5.669692e+002, 4.117813e-002
5.688976e+002, 3.940858e-002
5.708261e+002, 3.845360e-002
5.727546e+002, 3.706163e-002
5.746830e+002, 3.563239e-002
5.766115e+002, 3.472974e-002
5.785400e+002, 3.510653e-002
5.804684e+002, 3.616629e-002
5.823969e+002, 3.672510e-002
5.843254e+002, 3.693852e-002
5.862538e+002, 3.746111e-002
5.881823e+002, 3.842355e-002
5.901108e+002, 4.005704e-002
5.920392e+002, 4.178641e-002
5.939677e+002, 4.265165e-002
5.958962e+002, 4.228385e-002
5.978246e+002, 4.146200e-002
5.997531e+002, 4.147078e-002
6.016816e+002, 4.169013e-002
6.036100e+002, 4.125424e-002
6.055385e+002, 4.125690e-002
6.074670e+002, 4.131836e-002
6.093954e+002, 4.049926e-002
6.113239e+002, 3.965991e-002
6.132524e+002, 3.920745e-002
6.151808e+002, 3.902973e-002
6.171093e+002, 3.891793e-002
6.190378e+002, 3.859043e-002
6.209662e+002, 3.814610e-002
6.228947e+002, 3.783382e-002
6.248232e+002, 3.804094e-002
6.267516e+002, 3.902513e-002
6.286801e+002, 3.951702e-002
6.306086e+002, 4.023757e-002
6.325370e+002, 4.130701e-002
6.344655e+002, 4.264986e-002
6.363940e+002, 4.416468e-002
6.383224e+002, 4.600476e-002
6.402509e+002, 4.806227e-002
6.421794e+002, 5.116833e-002
6.441078e+002, 5.485645e-002
6.460363e+002, 5.902079e-002
6.479648e+002, 6.405642e-002
6.498932e+002, 6.951502e-002
6.518217e+002, 7.684837e-002
6.537502e+002, 8.564486e-002
6.556786e+002, 9.472538e-002
6.576071e+002, 1.030010e-001
6.595356e+002, 1.091338e-001
6.614641e+002, 1.123269e-001
6.633925e+002, 1.115059e-001
6.653210e+002, 1.066509e-001
6.672495e+002, 9.863849e-002
6.691779e+002, 8.798776e-002
6.711064e+002, 7.720312e-002
6.730349e+002, 6.826822e-002
6.749633e+002, 6.166663e-002
6.768918e+002, 5.697782e-002
6.788203e+002, 5.278084e-002
6.807487e+002, 4.927310e-002
6.826772e+002, 4.740071e-002
6.846057e+002, 4.605559e-002
6.865341e+002, 4.534394e-002
6.884626e+002, 4.509588e-002
6.903911e+002, 4.571586e-002
6.923195e+002, 4.685884e-002
6.942480e+002, 4.813393e-002
6.961765e+002, 5.054098e-002
6.981049e+002, 5.304945e-002
7.000334e+002, 5.483098e-002
7.019619e+002, 5.564878e-002
7.038903e+002, 5.610203e-002
7.058188e+002, 5.578040e-002
7.077473e+002, 5.510619e-002
7.096757e+002, 5.486935e-002
7.116042e+002, 5.465184e-002
7.135327e+002, 5.379732e-002
7.154611e+002, 5.244868e-002
7.173896e+002, 5.192425e-002
7.193181e+002, 5.169833e-002
7.212465e+002, 5.171314e-002
7.231750e+002, 5.296875e-002
7.251035e+002, 5.490016e-002
7.270319e+002, 5.730841e-002
7.289604e+002, 6.094401e-002
7.308889e+002, 6.548885e-002
7.328173e+002, 7.136597e-002
7.347458e+002, 7.829574e-002
7.366743e+002, 8.591773e-002
7.386027e+002, 9.310634e-002
7.405312e+002, 9.941430e-002
7.424597e+002, 1.041602e-001
7.443881e+002, 1.063148e-001
7.463166e+002, 1.060758e-001
7.482451e+002, 1.035316e-001
7.501735e+002, 9.918109e-002
7.521020e+002, 9.326922e-002
7.540305e+002, 8.616769e-002
7.559589e+002, 7.903256e-002
7.578874e+002, 7.116850e-002
7.598159e+002, 6.299853e-002
7.617443e+002, 5.567338e-002
7.636728e+002, 4.930243e-002
7.656013e+002, 4.475465e-002
7.675297e+002, 4.174453e-002
7.694582e+002, 3.964468e-002
7.713867e+002, 3.869696e-002
7.733151e+002, 3.794716e-002
7.752436e+002, 3.747938e-002
7.771721e+002, 3.772464e-002
7.791005e+002, 3.767270e-002
7.810290e+002, 3.715398e-002
7.829575e+002, 3.709640e-002
7.848859e+002, 3.662212e-002
7.868144e+002, 3.605779e-002
7.887429e+002, 3.631719e-002
7.906713e+002, 3.724690e-002
7.925998e+002, 3.806774e-002
7.945283e+002, 3.853072e-002
7.964567e+002, 3.943906e-002
7.983852e+002, 4.068222e-002
8.003137e+002, 4.188672e-002
8.022421e+002, 4.296023e-002
8.041706e+002, 4.435315e-002
8.060991e+002, 4.561293e-002
8.080275e+002, 4.673835e-002
8.099560e+002, 4.814150e-002
8.118845e+002, 4.985996e-002
8.138129e+002, 5.116270e-002
8.157414e+002, 5.196310e-002
8.176699e+002, 5.349916e-002
8.195983e+002, 5.563249e-002
8.215268e+002, 5.773778e-002
8.234553e+002, 5.940950e-002
8.253837e+002, 6.141187e-002
8.273122e+002, 6.405226e-002
8.292407e+002, 6.710061e-002
8.311691e+002, 7.075406e-002
8.330976e+002, 7.420529e-002
8.350261e+002, 7.774725e-002
8.369545e+002, 8.201524e-002
8.388830e+002, 8.731590e-002
8.408115e+002, 9.287179e-002
8.427399e+002, 9.813112e-002
8.446684e+002, 1.036472e-001
8.465969e+002, 1.097193e-001
8.485253e+002, 1.158634e-001
8.504538e+002, 1.224036e-001
8.523823e+002, 1.294607e-001
8.543107e+002, 1.363993e-001
8.562392e+002, 1.442423e-001
8.581677e+002, 1.533509e-001
8.600961e+002, 1.622521e-001
8.620246e+002, 1.715471e-001
8.639531e+002, 1.815598e-001
8.658815e+002, 1.928257e-001
8.678100e+002, 2.055417e-001
8.697385e+002, 2.189417e-001
8.716669e+002, 2.320511e-001
8.735954e+002, 2.444243e-001
8.755239e+002, 2.546721e-001
8.774523e+002, 2.639986e-001
8.793808e+002, 2.726156e-001
8.813093e+002, 2.812833e-001
8.832377e+002, 2.894119e-001
8.851662e+002, 2.980689e-001
8.870947e+002, 3.085455e-001
8.890231e+002, 3.179151e-001
8.909516e+002, 3.276312e-001
8.928801e+002, 3.386924e-001
8.948085e+002, 3.490033e-001
8.967370e+002, 3.592282e-001
8.986655e+002, 3.689520e-001
9.005939e+002, 3.768947e-001
9.025224e+002, 3.831830e-001
9.044509e+002, 3.889901e-001
9.063793e+002, 3.940831e-001
9.083078e+002, 3.978882e-001
9.102363e+002, 4.018846e-001
9.121647e+002, 4.057162e-001
9.140932e+002, 4.077628e-001
9.160217e+002, 4.088793e-001
9.179501e+002, 4.082413e-001
9.198786e+002, 4.069912e-001
9.218071e+002, 4.049642e-001
9.237355e+002, 4.019764e-001
9.256640e+002, 4.006892e-001
9.275925e+002, 4.008584e-001
9.295209e+002, 4.021095e-001
9.314494e+002, 4.045259e-001
9.333779e+002, 4.082316e-001
9.353063e+002, 4.134945e-001
9.372348e+002, 4.207374e-001
9.391633e+002, 4.297808e-001
9.410917e+002, 4.385222e-001
9.430202e+002, 4.473481e-001
9.449487e+002, 4.557454e-001
9.468771e+002, 4.640858e-001
9.488056e+002, 4.715998e-001
9.507341e+002, 4.767520e-001
9.526625e+002, 4.794608e-001
9.545910e+002, 4.804090e-001
9.565195e+002, 4.785127e-001
9.584479e+002, 4.732811e-001
9.603764e+002, 4.661794e-001
9.623049e+002, 4.588997e-001
9.642333e+002, 4.503687e-001
9.661618e+002, 4.399590e-001
9.680903e+002, 4.288689e-001
9.700187e+002, 4.166582e-001
9.719472e+002, 4.049939e-001
9.738757e+002, 3.933837e-001
9.758041e+002, 3.804490e-001
9.777326e+002, 3.667654e-001
9.796611e+002, 3.540712e-001
9.815895e+002, 3.424978e-001
9.835180e+002, 3.309622e-001
9.854465e+002, 3.190674e-001
9.873749e+002, 3.067560e-001
9.893034e+002, 2.953990e-001
9.912319e+002, 2.846626e-001
9.931603e+002, 2.736783e-001
9.950888e+002, 2.631851e-001
9.970173e+002, 2.532451e-001
9.989457e+002, 2.437703e-001
1.000874e+003, 2.347586e-001
1.002803e+003, 2.258234e-001
1.004731e+003, 2.174914e-001
1.006660e+003, 2.101361e-001
1.008588e+003, 2.030147e-001
1.010517e+003, 1.960038e-001
1.012445e+003, 1.900876e-001
1.014373e+003, 1.844628e-001
1.016302e+003, 1.795797e-001
1.018230e+003, 1.755420e-001
1.020159e+003, 1.723382e-001
1.022087e+003, 1.701328e-001
1.024016e+003, 1.678284e-001
1.025944e+003, 1.663571e-001
1.027873e+003, 1.658033e-001
1.029801e+003, 1.656644e-001
1.031730e+003, 1.661208e-001
1.033658e+003, 1.667375e-001
1.035587e+003, 1.674933e-001
1.037515e+003, 1.675576e-001
1.039443e+003, 1.672365e-001
1.041372e+003, 1.670697e-001
1.043300e+003, 1.672638e-001
1.045229e+003, 1.670533e-001
1.047157e+003, 1.661704e-001
1.049086e+003, 1.660399e-001
1.051014e+003, 1.665164e-001
1.052943e+003, 1.662734e-001
1.054871e+003, 1.654939e-001
1.056800e+003, 1.640726e-001
1.058728e+003, 1.619712e-001
1.060657e+003, 1.595179e-001
1.062585e+003, 1.564125e-001
1.064514e+003, 1.535236e-001
1.066442e+003, 1.512823e-001
1.068370e+003, 1.487384e-001
1.070299e+003, 1.455100e-001
1.072227e+003, 1.420522e-001
1.074156e+003, 1.390517e-001
1.076084e+003, 1.360420e-001
1.078013e+003, 1.328890e-001
1.079941e+003, 1.295333e-001
1.081870e+003, 1.265715e-001
1.083798e+003, 1.231978e-001
1.085727e+003, 1.196609e-001
1.087655e+003, 1.166565e-001
1.089584e+003, 1.135772e-001
1.091512e+003, 1.106106e-001
1.093441e+003, 1.075275e-001
1.095369e+003, 1.041517e-001
1.097297e+003, 1.010285e-001
1.099226e+003, 9.780429e-002
1.101154e+003, 9.450538e-002
1.103083e+003, 9.109747e-002
1.105011e+003, 8.689502e-002
1.106940e+003, 8.221292e-002
1.108868e+003, 7.778073e-002
1.110797e+003, 7.332807e-002
1.112725e+003, 6.826173e-002
1.114654e+003, 6.327704e-002
1.116582e+003, 5.837294e-002
1.118511e+003, 5.387188e-002
1.120439e+003, 5.020071e-002
1.122368e+003, 4.776813e-002
1.124296e+003, 4.673283e-002
1.126224e+003, 4.721674e-002
1.128153e+003, 4.937742e-002
1.130081e+003, 5.371706e-002
1.132010e+003, 6.023309e-002
1.133938e+003, 6.806011e-002
1.135867e+003, 7.653452e-002
1.137795e+003, 8.442956e-002
1.139724e+003, 8.960468e-002
1.141652e+003, 9.102055e-002
1.143581e+003, 8.944415e-002
1.145509e+003, 8.437057e-002
1.147438e+003, 7.653828e-002
1.149366e+003, 6.784168e-002
1.151295e+003, 5.912282e-002
1.153223e+003, 5.057235e-002
1.155151e+003, 4.222729e-002
1.157080e+003, 3.559461e-002
1.159008e+003, 3.039834e-002
1.160937e+003, 2.570898e-002
1.162865e+003, 2.142645e-002
1.164794e+003, 1.781803e-002
1.166722e+003, 1.557922e-002
1.168651e+003, 1.388053e-002
1.170579e+003, 1.215518e-002
1.172508e+003, 1.140196e-002
1.174436e+003, 1.083632e-002
1.176365e+003, 1.045766e-002
1.178293e+003, 9.803933e-003
1.180222e+003, 8.999808e-003
1.182150e+003, 8.793097e-003
1.184078e+003, 8.441373e-003
1.186007e+003, 8.029007e-003
1.187935e+003, 7.793110e-003
1.189864e+003, 7.482840e-003
1.191792e+003, 6.985656e-003
1.193721e+003, 6.597564e-003
1.195649e+003, 6.540217e-003
1.197578e+003, 6.744406e-003
1.199506e+003, 6.560968e-003
1.201435e+003, 6.201130e-003
1.203363e+003, 6.143174e-003
1.205292e+003, 5.608254e-003
1.207220e+003, 4.796891e-003
1.209149e+003, 5.014603e-003
1.211077e+003, 5.187654e-003
1.213005e+003, 5.118927e-003
1.214934e+003, 4.807658e-003
1.216862e+003, 4.269746e-003
1.218791e+003, 4.313109e-003
1.220719e+003, 4.340443e-003
1.222648e+003, 4.373431e-003
1.224576e+003, 4.407207e-003
1.226505e+003, 4.340283e-003
1.228433e+003, 4.197408e-003
1.230362e+003, 4.407644e-003
1.232290e+003, 4.412912e-003
1.234219e+003, 4.211775e-003
1.236147e+003, 4.278993e-003
1.238076e+003, 4.359120e-003
1.240004e+003, 4.034691e-003
1.241932e+003, 3.786450e-003
1.243861e+003, 4.006272e-003
1.245789e+003, 4.051447e-003
1.247718e+003, 4.138825e-003
1.249646e+003, 4.213105e-003
1.251575e+003, 4.160827e-003
1.253503e+003, 4.167628e-003
1.255432e+003, 3.996416e-003
1.257360e+003, 3.798413e-003
1.259289e+003, 3.584524e-003
1.261217e+003, 3.624436e-003
1.263146e+003, 3.784317e-003
1.265074e+003, 3.691704e-003
1.267003e+003, 3.657797e-003
1.268931e+003, 3.975546e-003
1.270859e+003, 4.250878e-003
1.272788e+003, 4.350591e-003
1.274716e+003, 4.072469e-003
1.276645e+003, 4.007757e-003
1.278573e+003, 4.157247e-003
1.280502e+003, 4.087199e-003
1.282430e+003, 4.121501e-003
1.284359e+003, 4.082029e-003
1.286287e+003, 3.937955e-003
1.288216e+003, 3.915896e-003
1.290144e+003, 4.211286e-003
1.292073e+003, 4.315990e-003
1.294001e+003, 4.053936e-003
1.295930e+003, 3.897459e-003
1.297858e+003, 4.028392e-003
1.299786e+003, 4.124065e-003
1.301715e+003, 3.974450e-003
1.303643e+003, 3.973499e-003
1.305572e+003, 4.027885e-003
1.307500e+003, 3.965901e-003
1.309429e+003, 4.129987e-003
1.311357e+003, 4.339422e-003
1.313286e+003, 4.201132e-003
1.315214e+003, 4.064429e-003
1.317143e+003, 4.074207e-003
1.319071e+003, 4.201297e-003
1.321000e+003, 4.347519e-003
1.322928e+003, 4.338538e-003
1.324857e+003, 4.584696e-003
1.326785e+003, 4.866319e-003
1.328714e+003, 4.856485e-003
1.330642e+003, 4.693638e-003
1.332570e+003, 4.924802e-003
1.334499e+003, 4.982088e-003
1.336427e+003, 5.063472e-003
1.338356e+003, 5.106913e-003
1.340284e+003, 4.856928e-003
1.342213e+003, 4.951187e-003
1.344141e+003, 5.503836e-003
1.346070e+003, 5.752369e-003
1.347998e+003, 5.778430e-003
1.349927e+003, 5.898866e-003
1.351855e+003, 6.079369e-003
1.353784e+003, 6.352999e-003
1.355712e+003, 6.628677e-003
1.357641e+003, 6.991902e-003
1.359569e+003, 7.185245e-003
1.361497e+003, 7.284446e-003
1.363426e+003, 7.804357e-003
1.365354e+003, 7.921884e-003
1.367283e+003, 7.921196e-003
1.369211e+003, 8.167532e-003
1.371140e+003, 8.737084e-003
1.373068e+003, 9.251168e-003
1.374997e+003, 9.544997e-003
1.376925e+003, 9.132230e-003
1.378854e+003, 9.114088e-003
1.380782e+003, 9.890574e-003
1.382711e+003, 1.049976e-002
1.384639e+003, 1.064515e-002
1.386568e+003, 1.086736e-002
1.388496e+003, 1.178030e-002
1.390424e+003, 1.251728e-002
1.392353e+003, 1.251324e-002
1.394281e+003, 1.282773e-002
1.396210e+003, 1.357744e-002
1.398138e+003, 1.403963e-002
1.400067e+003, 1.434619e-002
1.401995e+003, 1.463498e-002
1.403924e+003, 1.503737e-002
1.405852e+003, 1.558506e-002
1.407781e+003, 1.622880e-002
1.409709e+003, 1.664510e-002
1.411638e+003, 1.689530e-002
1.413566e+003, 1.730487e-002
1.415495e+003, 1.757279e-002
1.417423e+003, 1.779226e-002
1.419351e+003, 1.834627e-002
1.421280e+003, 1.882027e-002
1.423208e+003, 1.910296e-002
1.425137e+003, 1.929345e-002
1.427065e+003, 1.926734e-002
1.428994e+003, 1.907416e-002
1.430922e+003, 1.922280e-002
1.432851e+003, 1.924321e-002
1.434779e+003, 1.945451e-002
1.436708e+003, 1.944500e-002
1.438636e+003, 1.925392e-002
1.440565e+003, 1.921081e-002
1.442493e+003, 1.922296e-002
1.444422e+003, 1.910842e-002
1.446350e+003, 1.939729e-002
1.448278e+003, 1.982993e-002
1.450207e+003, 1.986113e-002
1.452135e+003, 1.993699e-002
1.454064e+003, 1.981023e-002
1.455992e+003, 1.944786e-002
1.457921e+003, 1.929525e-002
1.459849e+003, 1.934556e-002
1.461778e+003, 1.931304e-002
1.463706e+003, 1.936850e-002
1.465635e+003, 1.916228e-002
1.467563e+003, 1.847353e-002
1.469492e+003, 1.796777e-002
1.471420e+003, 1.781937e-002
1.473349e+003, 1.765311e-002
1.475277e+003, 1.734499e-002
1.477205e+003, 1.689412e-002
1.479134e+003, 1.672743e-002
1.481062e+003, 1.640348e-002
1.482991e+003, 1.592694e-002
1.484919e+003, 1.552104e-002
1.486848e+003, 1.532804e-002
1.488776e+003, 1.503397e-002
1.490705e+003, 1.487911e-002
1.492633e+003, 1.441603e-002
1.494562e+003, 1.395182e-002
1.496490e+003, 1.376145e-002
1.498419e+003, 1.324544e-002
1.500347e+003, 1.306664e-002
1.502276e+003, 1.257070e-002
1.504204e+003, 1.205308e-002
1.506132e+003, 1.199825e-002
1.508061e+003, 1.171173e-002
1.509989e+003, 1.105151e-002
1.511918e+003, 1.071482e-002
1.513846e+003, 1.045218e-002
1.515775e+003, 1.015947e-002
1.517703e+003, 1.016873e-002
1.519632e+003, 1.028546e-002
1.521560e+003, 9.813521e-003
1.523489e+003, 9.181431e-003
1.525417e+003, 8.606651e-003
1.527346e+003, 8.534343e-003
1.529274e+003, 8.671605e-003
1.531203e+003, 8.307241e-003
1.533131e+003, 7.631057e-003
1.535059e+003, 7.219593e-003
1.536988e+003, 7.296889e-003
1.538916e+003, 7.085107e-003
1.540845e+003, 6.837359e-003
1.542773e+003, 7.045894e-003
1.544702e+003, 7.149493e-003
1.546630e+003, 6.650371e-003
1.548559e+003, 6.565290e-003
1.550487e+003, 6.553821e-003
1.552416e+003, 6.465444e-003
1.554344e+003, 6.591792e-003
1.556273e+003, 6.819963e-003
1.558201e+003, 6.660789e-003
1.560130e+003, 6.710274e-003
1.562058e+003, 6.653358e-003
1.563986e+003, 6.172280e-003
1.565915e+003, 5.731105e-003
1.567843e+003, 5.939166e-003
1.569772e+003, 6.365246e-003
1.571700e+003, 6.469599e-003
1.573629e+003, 6.203685e-003
1.575557e+003, 6.289278e-003
1.577486e+003, 6.163348e-003
1.579414e+003, 6.057020e-003
1.581343e+003, 6.544985e-003
1.583271e+003, 6.672585e-003
1.585200e+003, 6.391180e-003
1.587128e+003, 6.372604e-003
1.589057e+003, 6.393586e-003
1.590985e+003, 6.361896e-003
1.592913e+003, 6.525345e-003
1.594842e+003, 7.007431e-003
1.596770e+003, 7.334474e-003
1.598699e+003, 6.762458e-003
1.600627e+003, 6.497744e-003
1.602556e+003, 6.690297e-003
1.604484e+003, 6.451842e-003
1.606413e+003, 6.307672e-003
1.608341e+003, 6.320114e-003
1.610270e+003, 6.755645e-003
1.612198e+003, 7.185395e-003
1.614127e+003, 6.584808e-003
1.616055e+003, 6.149029e-003
1.617984e+003, 6.435236e-003
1.619912e+003, 6.698649e-003
1.621840e+003, 6.672319e-003
1.623769e+003, 6.765996e-003
1.625697e+003, 6.783638e-003
1.627626e+003, 6.089615e-003
1.629554e+003, 5.765400e-003
1.631483e+003, 5.998787e-003
1.633411e+003, 6.383432e-003
1.635340e+003, 6.577629e-003
1.637268e+003, 6.846529e-003
1.639197e+003, 6.442764e-003
1.641125e+003, 6.090348e-003
1.643054e+003, 6.375459e-003
1.644982e+003, 6.487913e-003
1.646911e+003, 6.080660e-003
1.648839e+003, 6.004794e-003
1.650767e+003, 5.840236e-003
1.652696e+003, 5.709208e-003
1.654624e+003, 5.534939e-003
1.656553e+003, 5.420313e-003
1.658481e+003, 5.561439e-003
1.660410e+003, 5.846258e-003
1.662338e+003, 5.758481e-003
1.664267e+003, 5.887332e-003
1.666195e+003, 6.223988e-003
1.668124e+003, 5.886115e-003
1.670052e+003, 5.361920e-003
1.671981e+003, 5.326916e-003
1.673909e+003, 5.513924e-003
1.675838e+003, 5.295838e-003
1.677766e+003, 5.121194e-003
1.679694e+003, 5.496282e-003
1.681623e+003, 6.072425e-003
1.683551e+003, 5.912291e-003
1.685480e+003, 5.487151e-003
1.687408e+003, 5.137845e-003
1.689337e+003, 4.933438e-003
1.691265e+003, 5.076390e-003
1.693194e+003, 5.137760e-003
1.695122e+003, 5.084939e-003
1.697051e+003, 4.935886e-003
1.698979e+003, 4.966313e-003
1.700908e+003, 5.488941e-003
1.702836e+003, 5.655356e-003
1.704765e+003, 5.179652e-003
1.706693e+003, 4.473926e-003
1.708621e+003, 4.656168e-003
1.710550e+003, 5.405439e-003
1.712478e+003, 5.603365e-003
1.714407e+003, 5.350968e-003
1.716335e+003, 5.325885e-003
1.718264e+003, 5.375276e-003
1.720192e+003, 4.983812e-003
1.722121e+003, 5.110822e-003
1.724049e+003, 5.409180e-003
1.725978e+003, 5.588287e-003
1.727906e+003, 5.323604e-003
1.729835e+003, 5.245797e-003
1.731763e+003, 4.725622e-003
1.733692e+003, 3.960341e-003
1.735620e+003, 4.565208e-003
1.737548e+003, 5.186498e-003
1.739477e+003, 4.961617e-003
1.741405e+003, 4.387896e-003
1.743334e+003, 4.450220e-003
1.745262e+003, 4.844151e-003
1.747191e+003, 4.869551e-003
1.749119e+003, 4.918019e-003
1.751048e+003, 4.550689e-003
1.752976e+003, 4.584047e-003
1.754905e+003, 5.107261e-003
1.756833e+003, 4.798611e-003
1.758762e+003, 4.664098e-003
1.760690e+003, 4.476022e-003
1.762619e+003, 4.284910e-003
1.764547e+003, 4.665917e-003
1.766475e+003, 4.887994e-003
1.768404e+003, 4.112772e-003
1.770332e+003, 3.786860e-003
1.772261e+003, 3.676227e-003
1.774189e+003, 3.528217e-003
1.776118e+003, 4.243333e-003
1.778046e+003, 4.472849e-003
1.779975e+003, 4.024945e-003
1.781903e+003, 4.098105e-003
1.783832e+003, 4.776706e-003
1.785760e+003, 5.092058e-003
1.787689e+003, 4.648012e-003
1.789617e+003, 3.751504e-003
1.791546e+003, 4.129519e-003
1.793474e+003, 4.882522e-003
1.795402e+003, 4.123067e-003
1.797331e+003, 3.503464e-003
1.799259e+003, 4.228391e-003
1.801188e+003, 4.148501e-003
1.803116e+003, 3.470002e-003
1.805045e+003, 3.372394e-003
1.806973e+003, 3.525088e-003
1.808902e+003, 3.713958e-003
1.810830e+003, 3.876798e-003
1.812759e+003, 4.160520e-003
1.814687e+003, 3.672288e-003
1.816616e+003, 2.801849e-003
1.818544e+003, 2.796860e-003
1.820473e+003, 3.518329e-003
1.822401e+003, 3.107872e-003
1.824329e+003, 2.679834e-003
1.826258e+003, 3.253858e-003
1.828186e+003, 3.756873e-003
1.830115e+003, 4.185561e-003
1.832043e+003, 3.781004e-003
1.833972e+003, 3.664901e-003
1.835900e+003, 3.684665e-003
1.837829e+003, 3.068599e-003
1.839757e+003, 2.616028e-003
1.841686e+003, 3.282202e-003
1.843614e+003, 3.518407e-003
1.845543e+003, 2.951981e-003
1.847471e+003, 2.819689e-003
1.849400e+003, 2.968716e-003
1.851328e+003, 3.535322e-003
1.853256e+003, 3.612489e-003
1.855185e+003, 2.952642e-003
1.857113e+003, 2.061782e-003
1.859042e+003, 2.319159e-003
1.860970e+003, 2.646739e-003
1.862899e+003, 2.519720e-003
1.864827e+003, 2.026472e-003
1.866756e+003, 2.384781e-003
1.868684e+003, 2.880903e-003
1.870613e+003, 2.051155e-003
1.872541e+003, 1.754353e-003
1.874470e+003, 2.618512e-003
1.876398e+003, 2.888495e-003
1.878327e+003, 1.867648e-003
1.880255e+003, 2.056560e-003
1.882183e+003, 3.183366e-003
1.884112e+003, 2.508433e-003
1.886040e+003, 2.316042e-003
1.887969e+003, 2.495694e-003
1.889897e+003, 3.321552e-003
1.891826e+003, 4.263594e-003
1.893754e+003, 3.318939e-003
1.895683e+003, 2.672001e-003
1.897611e+003, 3.372886e-003
1.899540e+003, 2.764734e-003
1.901468e+003, 1.788565e-003
1.903397e+003, 1.638486e-003
1.905325e+003, 3.222177e-003
1.907254e+003, 5.323071e-003
1.909182e+003, 4.257718e-003
1.911110e+003, 3.029712e-003
1.913039e+003, 2.937126e-003
1.914967e+003, 1.811281e-003
1.916896e+003, 1.558274e-003
1.918824e+003, 1.308475e-003
1.920753e+003, 1.175788e-003
1.922681e+003, 2.531978e-003
1.924610e+003, 2.896612e-003
1.926538e+003, 3.655310e-003
1.928467e+003, 5.306287e-003
1.930395e+003, 4.654420e-003
1.932324e+003, 3.570870e-003
1.934252e+003, 3.422063e-003
1.936181e+003, 2.479765e-003
1.938109e+003, 2.148114e-003
1.940037e+003, 2.769472e-003
1.941966e+003, 4.479465e-003
1.943894e+003, 4.959576e-003
1.945823e+003, 3.812795e-003
1.947751e+003, 3.300434e-003
1.949680e+003, 5.382887e-003
1.951608e+003, 7.983175e-003
1.953537e+003, 5.956542e-003
1.955465e+003, 3.450569e-003
1.957394e+003, 3.994134e-003
1.959322e+003, 4.715522e-003
1.961251e+003, 6.145515e-003
1.963179e+003, 3.673886e-003
1.965108e+003, 6.319894e-004
1.967036e+003, 3.898208e-003
1.968964e+003, 5.849983e-003
1.970893e+003, 3.743771e-003
1.972821e+003, 3.406928e-003
1.974750e+003, 4.734974e-003
1.976678e+003, 4.209416e-003
1.978607e+003, 4.193248e-003
1.980535e+003, 5.015970e-003
1.982464e+003, 6.107186e-003
1.984392e+003, 5.360662e-003
1.986321e+003, 4.788030e-003
1.988249e+003, 7.050557e-003
1.990178e+003, 7.771253e-003
1.992106e+003, 5.037243e-003
1.994035e+003, 4.057040e-003
1.995963e+003, 3.106680e-003
1.997891e+003, 5.334878e-003
1.999820e+003, 9.161287e-003
2.001748e+003, 6.267325e-003
2.003677e+003, 5.422849e-003
2.005605e+003, 8.840466e-003
2.007534e+003, 9.700074e-003
2.009462e+003, 8.541314e-003
2.011391e+003, 1.053057e-002
2.013319e+003, 8.995214e-003
2.015248e+003, 6.770395e-003
2.017176e+003, 7.351178e-003
2.019105e+003, 6.219442e-003
2.021033e+003, 4.965221e-003
2.022962e+003, 3.576023e-003
2.024890e+003, 4.591912e-003
2.026818e+003, 4.191671e-003
2.028747e+003, 4.193550e-003
2.030675e+003, 8.206060e-003
2.032604e+003, 6.153604e-003
2.034532e+003, 3.023944e-003
2.036461e+003, 9.486713e-003
2.038389e+003, 1.390832e-002
2.040318e+003, 1.389783e-002
2.042246e+003, 1.186051e-002
2.044175e+003, 1.110985e-002
2.046103e+003, 9.315587e-003
2.048031e+003, 8.046815e-003
2.049960e+003, 1.019598e-002
2.051888e+003, 7.714747e-003
2.053817e+003, 4.607437e-003
2.055745e+003, 4.273478e-003
2.057674e+003, 4.893109e-003
2.059602e+003, 4.996608e-003
2.061531e+003, 4.866073e-003
2.063459e+003, 5.554107e-003
2.065388e+003, 7.119633e-003
2.067316e+003, 9.436874e-003
2.069245e+003, 8.030562e-003
2.071173e+003, 4.078235e-003
2.073102e+003, 3.417771e-003
2.075030e+003, 7.234019e-003
2.076958e+003, 8.170906e-003
2.078887e+003, 6.297523e-003
2.080815e+003, 5.572016e-003
2.082744e+003, 5.608185e-003
2.084672e+003, 7.854056e-003
2.086601e+003, 8.119650e-003
2.088529e+003, 6.244335e-003
2.090458e+003, 4.654902e-003
2.092386e+003, 6.983213e-003
2.094315e+003, 8.465379e-003
2.096243e+003, 6.912793e-003
2.098172e+003, 7.557494e-003
2.100100e+003, 7.676275e-003
2.102029e+003, 7.357870e-003
2.103957e+003, 7.719208e-003
2.105885e+003, 6.522217e-003
2.107814e+003, 5.114000e-003
2.109742e+003, 6.660989e-003
2.111671e+003, 8.088514e-003
2.113599e+003, 7.065037e-003
2.115528e+003, 6.962682e-003
2.117456e+003, 7.561422e-003
2.119385e+003, 7.246972e-003
2.121313e+003, 6.921835e-003
2.123242e+003, 6.695543e-003
2.125170e+003, 4.362779e-003
2.127099e+003, 2.016759e-003
2.129027e+003, 3.271475e-003
2.130956e+003, 4.845650e-003
2.132884e+003, 4.461929e-003
2.134813e+003, 4.482800e-003
2.136741e+003, 5.307390e-003
2.138669e+003, 6.863226e-003
2.140598e+003, 8.202378e-003
2.142526e+003, 8.631391e-003
2.144455e+003, 5.584401e-003
2.146383e+003, 4.580363e-003
2.148312e+003, 6.375997e-003
2.150240e+003, 6.444156e-003
2.152169e+003, 5.024551e-003
2.154097e+003, 6.744598e-003
2.156026e+003, 8.502639e-003
2.157954e+003, 8.154057e-003
2.159883e+003, 1.005512e-002
2.161811e+003, 1.129577e-002
2.163740e+003, 9.761896e-003
2.165668e+003, 8.708834e-003
2.167596e+003, 6.685792e-003
2.169525e+003, 7.139084e-003
2.171453e+003, 9.558355e-003
2.173382e+003, 1.068841e-002
2.175310e+003, 1.168734e-002
2.177239e+003, 1.202817e-002
2.179167e+003, 1.163667e-002
2.181096e+003, 1.172088e-002
2.183024e+003, 1.232945e-002
2.184953e+003, 1.435282e-002
2.186881e+003, 1.123873e-002
2.188810e+003, 8.386523e-003
2.190738e+003, 9.155628e-003
2.192667e+003, 1.090589e-002
2.194595e+003, 1.098947e-002
2.196523e+003, 9.404805e-003
2.198452e+003, 8.261248e-003
2.200380e+003, 7.867790e-003
2.202309e+003, 7.674271e-003
2.204237e+003, 8.629312e-003
2.206166e+003, 1.002102e-002
2.208094e+003, 9.241432e-003
2.210023e+003, 8.829499e-003
2.211951e+003, 8.397680e-003
2.213880e+003, 7.136968e-003
2.215808e+003, 7.725533e-003
2.217737e+003, 8.695398e-003
2.219665e+003, 1.073182e-002
2.221594e+003, 8.066051e-003
2.223522e+003, 7.045617e-003
2.225450e+003, 9.771084e-003
2.227379e+003, 1.069237e-002
2.229307e+003, 1.385107e-002
2.231236e+003, 1.388456e-002
2.233164e+003, 1.011259e-002
2.235093e+003, 8.171449e-003
2.237021e+003, 7.685035e-003
2.238950e+003, 9.563411e-003
2.240878e+003, 1.038930e-002
2.242807e+003, 1.024321e-002
2.244735e+003, 1.062032e-002
2.246664e+003, 9.680570e-003
2.248592e+003, 9.322425e-003
2.250521e+003, 1.085969e-002
2.252449e+003, 1.021948e-002
2.254377e+003, 1.105759e-002
2.256306e+003, 1.372490e-002
2.258234e+003, 1.219319e-002
2.260163e+003, 9.403897e-003
2.262091e+003, 8.841044e-003
2.264020e+003, 8.790179e-003
2.265948e+003, 8.058750e-003
2.267877e+003, 8.111535e-003
2.269805e+003, 7.271904e-003
2.271734e+003, 7.209562e-003
2.273662e+003, 9.207052e-003
2.275591e+003, 9.359132e-003
2.277519e+003, 9.810044e-003
2.279448e+003, 1.055896e-002
2.281376e+003, 1.059618e-002
2.283304e+003, 1.000680e-002
2.285233e+003, 8.441056e-003
2.287161e+003, 8.548712e-003
2.289090e+003, 8.229760e-003
2.291018e+003, 9.011294e-003
2.292947e+003, 9.356936e-003
2.294875e+003, 7.953947e-003
2.296804e+003, 7.304686e-003
2.298732e+003, 8.331457e-003
2.300661e+003, 9.619300e-003
2.302589e+003, 1.055892e-002
2.304518e+003, 9.609364e-003
2.306446e+003, 8.929782e-003
2.308375e+003, 8.905401e-003
2.310303e+003, 8.980231e-003
2.312231e+003, 8.815297e-003
2.314160e+003, 8.531741e-003
2.316088e+003, 9.195348e-003
2.318017e+003, 8.556612e-003
2.319945e+003, 8.250482e-003
2.321874e+003, 9.464291e-003
2.323802e+003, 9.997638e-003
2.325731e+003, 9.244760e-003
2.327659e+003, 8.522925e-003
2.329588e+003, 8.334828e-003
2.331516e+003, 7.613455e-003
2.333445e+003, 7.384084e-003
2.335373e+003, 8.388312e-003
2.337302e+003, 8.965513e-003
2.339230e+003, 8.748780e-003
2.341158e+003, 8.566330e-003
2.343087e+003, 8.431129e-003
2.345015e+003, 7.774393e-003
2.346944e+003, 8.046773e-003
2.348872e+003, 8.863783e-003
2.350801e+003, 8.600502e-003
2.352729e+003, 7.451224e-003
2.354658e+003, 7.064067e-003
2.356586e+003, 7.428057e-003
2.358515e+003, 7.673097e-003
2.360443e+003, 8.740720e-003
2.362372e+003, 9.545187e-003
2.364300e+003, 8.961234e-003
2.366229e+003, 6.922045e-003
2.368157e+003, 7.039642e-003
2.370085e+003, 8.178187e-003
2.372014e+003, 8.561967e-003
2.373942e+003, 8.304734e-003
2.375871e+003, 7.590097e-003
2.377799e+003, 7.725482e-003
2.379728e+003, 8.602589e-003
2.381656e+003, 8.411475e-003
2.383585e+003, 8.610032e-003
2.385513e+003, 9.546799e-003
2.387442e+003, 9.505552e-003
2.389370e+003, 8.881913e-003
2.391299e+003, 8.745662e-003
2.393227e+003, 9.121817e-003
2.395156e+003, 8.253330e-003
2.397084e+003, 7.303487e-003
2.399012e+003, 7.029725e-003
2.400941e+003, 7.385685e-003
2.402869e+003, 8.351621e-003
2.404798e+003, 9.147876e-003
2.406726e+003, 8.506352e-003
2.408655e+003, 8.683871e-003
2.410583e+003, 9.383630e-003
2.412512e+003, 9.284947e-003
2.414440e+003, 9.826769e-003
2.416369e+003, 1.019685e-002
2.418297e+003, 1.020108e-002
2.420226e+003, 9.969206e-003
2.422154e+003, 8.936977e-003
2.424083e+003, 8.206189e-003
2.426011e+003, 8.539681e-003
2.427939e+003, 9.321053e-003
2.429868e+003, 1.049265e-002
2.431796e+003, 1.159078e-002
2.433725e+003, 1.141971e-002
2.435653e+003, 9.980723e-003
2.437582e+003, 9.073152e-003
2.439510e+003, 1.028523e-002
2.441439e+003, 9.982587e-003
2.443367e+003, 9.375785e-003
2.445296e+003, 9.713826e-003
2.447224e+003, 1.013199e-002
2.449153e+003, 1.110987e-002
2.451081e+003, 1.193212e-002
2.453010e+003, 1.052009e-002
2.454938e+003, 9.986648e-003
2.456866e+003, 1.141337e-002
2.458795e+003, 1.188746e-002
2.460723e+003, 1.146725e-002
2.462652e+003, 1.109389e-002
2.464580e+003, 1.067648e-002
2.466509e+003, 1.081500e-002
2.468437e+003, 1.079434e-002
2.470366e+003, 1.086246e-002
2.472294e+003, 1.050863e-002
2.474223e+003, 1.022190e-002
2.476151e+003, 1.158753e-002
2.478080e+003, 1.230377e-002
2.480008e+003, 1.050601e-002
2.481937e+003, 9.446987e-003
2.483865e+003, 9.632490e-003
2.485793e+003, 9.771490e-003
2.487722e+003, 1.022404e-002
2.489650e+003, 1.035164e-002
2.491579e+003, 9.855264e-003
2.493507e+003, 9.895397e-003
2.495436e+003, 9.763774e-003
2.497364e+003, 9.948158e-003
2.499293e+003, 1.017930e-002
2.501221e+003, 1.004444e-002
2.503150e+003, 1.098664e-002
2.505078e+003, 1.226097e-002
2.507007e+003, 9.778781e-003
2.508935e+003, 8.569587e-003
2.510864e+003, 9.808060e-003
2.512792e+003, 1.114206e-002
2.514720e+003, 1.238192e-002
2.516649e+003, 1.128307e-002
2.518577e+003, 1.024355e-002
2.520506e+003, 1.182748e-002
2.522434e+003, 1.290267e-002
2.524363e+003, 1.281850e-002
2.526291e+003, 1.209362e-002
2.528220e+003, 1.196633e-002
2.530148e+003, 1.158558e-002
2.532077e+003, 1.174125e-002
2.534005e+003, 1.108053e-002
2.535934e+003, 1.023682e-002
2.537862e+003, 1.090678e-002
2.539791e+003, 1.175852e-002
2.541719e+003, 1.175536e-002
2.543647e+003, 1.187294e-002
2.545576e+003, 1.114272e-002
2.547504e+003, 9.379279e-003
2.549433e+003, 8.956246e-003
2.551361e+003, 1.107622e-002
2.553290e+003, 1.197441e-002
2.555218e+003, 1.129322e-002
2.557147e+003, 1.082500e-002
2.559075e+003, 9.949678e-003
2.561004e+003, 1.010606e-002
2.562932e+003, 1.140352e-002
2.564861e+003, 1.259579e-002
2.566789e+003, 1.264740e-002
2.568718e+003, 1.322025e-002
2.570646e+003, 1.336564e-002
2.572574e+003, 1.295108e-002
2.574503e+003, 1.299641e-002
2.576431e+003, 1.141781e-002
2.578360e+003, 1.128974e-002
2.580288e+003, 1.313352e-002
2.582217e+003, 1.277257e-002
2.584145e+003, 1.166924e-002
2.586074e+003, 1.178167e-002
2.588002e+003, 1.326299e-002
2.589931e+003, 1.373072e-002
2.591859e+003, 1.386438e-002
2.593788e+003, 1.376158e-002
2.595716e+003, 1.237322e-002
2.597645e+003, 1.278752e-002
2.599573e+003, 1.356036e-002
2.601501e+003, 1.353524e-002
2.603430e+003, 1.274583e-002
2.605358e+003, 1.179635e-002
2.607287e+003, 1.265488e-002
2.609215e+003, 1.308499e-002
2.611144e+003, 1.309921e-002
2.613072e+003, 1.331822e-002
2.615001e+003, 1.298848e-002
2.616929e+003, 1.316242e-002
2.618858e+003, 1.299991e-002
2.620786e+003, 1.223506e-002
2.622715e+003, 1.252236e-002
2.624643e+003, 1.351229e-002
2.626572e+003, 1.339313e-002
2.628500e+003, 1.361067e-002
2.630428e+003, 1.370840e-002
2.632357e+003, 1.393684e-002
2.634285e+003, 1.394536e-002
2.636214e+003, 1.343271e-002
2.638142e+003, 1.203458e-002
2.640071e+003, 1.165142e-002
2.641999e+003, 1.263421e-002
2.643928e+003, 1.293927e-002
2.645856e+003, 1.302795e-002
2.647785e+003, 1.281485e-002
2.649713e+003, 1.263645e-002
2.651642e+003, 1.314857e-002
2.653570e+003, 1.297843e-002
2.655499e+003, 1.345134e-002
2.657427e+003, 1.403688e-002
2.659355e+003, 1.319572e-002
2.661284e+003, 1.210835e-002
2.663212e+003, 1.141927e-002
2.665141e+003, 1.179142e-002
2.667069e+003, 1.225952e-002
2.668998e+003, 1.206614e-002
2.670926e+003, 1.155563e-002
2.672855e+003, 1.177231e-002
2.674783e+003, 1.267065e-002
2.676712e+003, 1.305704e-002
2.678640e+003, 1.384959e-002
2.680569e+003, 1.377680e-002
2.682497e+003, 1.262513e-002
2.684426e+003, 1.238330e-002
2.686354e+003, 1.317579e-002
2.688282e+003, 1.299917e-002
2.690211e+003, 1.243072e-002
2.692139e+003, 1.243917e-002
2.694068e+003, 1.363293e-002
2.695996e+003, 1.387550e-002
2.697925e+003, 1.228531e-002
2.699853e+003, 1.238504e-002
2.701782e+003, 1.337177e-002
2.703710e+003, 1.302520e-002
2.705639e+003, 1.205865e-002
2.707567e+003, 1.224717e-002
2.709496e+003, 1.251598e-002
2.711424e+003, 1.259063e-002
2.713353e+003, 1.297247e-002
2.715281e+003, 1.259937e-002
2.717209e+003, 1.257229e-002
2.719138e+003, 1.346741e-002
2.721066e+003, 1.392005e-002
2.722995e+003, 1.389202e-002
2.724923e+003, 1.365634e-002
2.726852e+003, 1.315658e-002
2.728780e+003, 1.311049e-002
2.730709e+003, 1.357624e-002
2.732637e+003, 1.325398e-002
2.734566e+003, 1.234219e-002
2.736494e+003, 1.324041e-002
2.738423e+003, 1.376208e-002
2.740351e+003, 1.349341e-002
2.742280e+003, 1.310692e-002
2.744208e+003, 1.259760e-002
2.746136e+003, 1.197315e-002
2.748065e+003, 1.196281e-002
2.749993e+003, 1.308998e-002
2.751922e+003, 1.348068e-002
2.753850e+003, 1.345146e-002
2.755779e+003, 1.386687e-002
2.757707e+003, 1.303167e-002
2.759636e+003, 1.286571e-002
2.761564e+003, 1.443020e-002
2.763493e+003, 1.442877e-002
2.765421e+003, 1.316327e-002
2.767350e+003, 1.310848e-002
2.769278e+003, 1.363616e-002
2.771207e+003, 1.436985e-002
2.773135e+003, 1.512580e-002
2.775063e+003, 1.490731e-002
2.776992e+003, 1.441976e-002
2.778920e+003, 1.391834e-002
2.780849e+003, 1.435840e-002
2.782777e+003, 1.390511e-002
2.784706e+003, 1.479818e-002
2.786634e+003, 1.573229e-002
2.788563e+003, 1.487433e-002
2.790491e+003, 1.449691e-002
2.792420e+003, 1.441940e-002
2.794348e+003, 1.350779e-002
2.796277e+003, 1.392612e-002
2.798205e+003, 1.423876e-002
2.800134e+003, 1.494782e-002
2.802062e+003, 1.513888e-002
2.803990e+003, 1.360910e-002
2.805919e+003, 1.395714e-002
2.807847e+003, 1.448468e-002
2.809776e+003, 1.455710e-002
2.811704e+003, 1.443935e-002
2.813633e+003, 1.425072e-002
2.815561e+003, 1.437621e-002
2.817490e+003, 1.461212e-002
2.819418e+003, 1.483987e-002
2.821347e+003, 1.546916e-002
2.823275e+003, 1.461943e-002
2.825204e+003, 1.427235e-002
2.827132e+003, 1.499123e-002
2.829061e+003, 1.529698e-002
2.830989e+003, 1.467989e-002
2.832917e+003, 1.427098e-002
2.834846e+003, 1.478906e-002
2.836774e+003, 1.678465e-002
2.838703e+003, 1.617803e-002
2.840631e+003, 1.555847e-002
2.842560e+003, 1.749515e-002
2.844488e+003, 1.785788e-002
2.846417e+003, 1.698727e-002
2.848345e+003, 1.707064e-002
2.850274e+003, 1.756602e-002
2.852202e+003, 1.776159e-002
2.854131e+003, 1.709939e-002
2.856059e+003, 1.755583e-002
2.857988e+003, 1.727892e-002
2.859916e+003, 1.719220e-002
2.861844e+003, 1.703008e-002
2.863773e+003, 1.668437e-002
2.865701e+003, 1.689866e-002
2.867630e+003, 1.739017e-002
2.869558e+003, 1.876801e-002
2.871487e+003, 1.841965e-002
2.873415e+003, 1.787361e-002
2.875344e+003, 1.836339e-002
2.877272e+003, 1.821553e-002
2.879201e+003, 1.778100e-002
2.881129e+003, 1.760355e-002
2.883058e+003, 1.696926e-002
2.884986e+003, 1.696918e-002
2.886915e+003, 1.748936e-002
2.888843e+003, 1.723571e-002
2.890771e+003, 1.677570e-002
2.892700e+003, 1.726991e-002
2.894628e+003, 1.736120e-002
2.896557e+003, 1.657601e-002
2.898485e+003, 1.699133e-002
2.900414e+003, 1.808245e-002
2.902342e+003, 1.821036e-002
2.904271e+003, 1.805155e-002
2.906199e+003, 1.882311e-002
2.908128e+003, 1.998501e-002
2.910056e+003, 1.908254e-002
2.911985e+003, 1.706849e-002
2.913913e+003, 1.875554e-002
2.915842e+003, 2.119685e-002
2.917770e+003, 2.245173e-002
2.919698e+003, 2.206459e-002
2.921627e+003, 2.211189e-002
2.923555e+003, 2.278018e-002
2.925484e+003, 2.355124e-002
2.927412e+003, 2.457225e-002
2.929341e+003, 2.473093e-002
2.931269e+003, 2.343779e-002
2.933198e+003, 2.160849e-002
2.935126e+003, 2.151540e-002
2.937055e+003, 2.140326e-002
2.938983e+003, 2.147281e-002
2.940912e+003, 2.064194e-002
2.942840e+003, 1.955167e-002
2.944769e+003, 1.959463e-002
2.946697e+003, 2.021711e-002
2.948625e+003, 1.971932e-002
2.950554e+003, 1.894193e-002
2.952482e+003, 1.923572e-002
2.954411e+003, 1.991702e-002
2.956339e+003, 1.967289e-002
2.958268e+003, 1.956213e-002
2.960196e+003, 1.943219e-002
2.962125e+003, 1.942315e-002
2.964053e+003, 1.973454e-002
2.965982e+003, 1.977516e-002
2.967910e+003, 2.128095e-002
2.969839e+003, 2.199312e-002
2.971767e+003, 2.007348e-002
2.973696e+003, 1.979463e-002
2.975624e+003, 1.910149e-002
2.977552e+003, 1.851989e-002
2.979481e+003, 1.937347e-002
2.981409e+003, 1.981747e-002
2.983338e+003, 1.995978e-002
2.985266e+003, 1.977424e-002
2.987195e+003, 1.867512e-002
2.989123e+003, 1.929913e-002
2.991052e+003, 1.996648e-002
2.992980e+003, 1.927093e-002
2.994909e+003, 1.975287e-002
2.996837e+003, 2.007150e-002
2.998766e+003, 1.968372e-002
3.000694e+003, 1.883903e-002
3.002623e+003, 1.841198e-002
3.004551e+003, 2.119965e-002
3.006479e+003, 2.211849e-002
3.008408e+003, 1.983098e-002
3.010336e+003, 1.873381e-002
3.012265e+003, 1.785094e-002
3.014193e+003, 1.947511e-002
3.016122e+003, 2.083793e-002
3.018050e+003, 1.941939e-002
3.019979e+003, 1.832333e-002
3.021907e+003, 1.858362e-002
3.023836e+003, 1.806588e-002
3.025764e+003, 1.770274e-002
3.027693e+003, 1.888687e-002
3.029621e+003, 1.854338e-002
3.031550e+003, 1.692783e-002
3.033478e+003, 1.795689e-002
3.035406e+003, 1.901864e-002
3.037335e+003, 1.875377e-002
3.039263e+003, 1.956223e-002
3.041192e+003, 1.926094e-002
3.043120e+003, 1.710514e-002
3.045049e+003, 1.754961e-002
3.046977e+003, 1.928065e-002
3.048906e+003, 1.884114e-002
3.050834e+003, 1.989539e-002
3.052763e+003, 2.141439e-002
3.054691e+003, 2.310660e-002
3.056620e+003, 2.360255e-002
3.058548e+003, 2.129252e-002
3.060477e+003, 1.936447e-002
3.062405e+003, 1.783472e-002
3.064333e+003, 1.775366e-002
3.066262e+003, 1.972022e-002
3.068190e+003, 1.937159e-002
3.070119e+003, 1.936811e-002
3.072047e+003, 2.083601e-002
3.073976e+003, 2.111905e-002
3.075904e+003, 1.923293e-002
3.077833e+003, 1.807585e-002
3.079761e+003, 1.903982e-002
3.081690e+003, 2.005778e-002
3.083618e+003, 1.991045e-002
3.085547e+003, 2.012983e-002
3.087475e+003, 2.145391e-002
3.089404e+003, 2.159328e-002
3.091332e+003, 2.105142e-002
3.093260e+003, 2.023417e-002
3.095189e+003, 2.249824e-002
3.097117e+003, 2.403443e-002
3.099046e+003, 2.209997e-002
3.100974e+003, 2.241939e-002
3.102903e+003, 2.262444e-002
3.104831e+003, 2.236218e-002
3.106760e+003, 2.377262e-002
3.108688e+003, 2.335284e-002
3.110617e+003, 2.201595e-002
3.112545e+003, 2.068627e-002
3.114474e+003, 2.119493e-002
3.116402e+003, 2.187362e-002
3.118331e+003, 2.040246e-002
3.120259e+003, 2.075047e-002
3.122188e+003, 2.181382e-002
3.124116e+003, 2.027405e-002
3.126044e+003, 2.025662e-002
3.127973e+003, 1.977755e-002
3.129901e+003, 1.818711e-002
3.131830e+003, 1.807363e-002
3.133758e+003, 1.924332e-002
3.135687e+003, 2.097732e-002
3.137615e+003, 2.170938e-002
3.139544e+003, 2.113966e-002
3.141472e+003, 2.134625e-002
3.143401e+003, 2.136605e-002
3.145329e+003, 2.031426e-002
3.147258e+003, 1.915327e-002
3.149186e+003, 2.148155e-002
3.151115e+003, 2.310766e-002
3.153043e+003, 2.329023e-002
3.154971e+003, 2.278202e-002
3.156900e+003, 2.262294e-002
3.158828e+003, 2.247848e-002
3.160757e+003, 2.190099e-002
3.162685e+003, 2.008820e-002
3.164614e+003, 2.112483e-002
3.166542e+003, 2.113377e-002
3.168471e+003, 2.213859e-002
3.170399e+003, 2.216820e-002
3.172328e+003, 2.121625e-002
3.174256e+003, 2.226737e-002
3.176185e+003, 2.139055e-002
3.178113e+003, 2.175814e-002
3.180042e+003, 2.175016e-002
3.181970e+003, 2.244418e-002
3.183898e+003, 2.155221e-002
3.185827e+003, 2.010326e-002
3.187755e+003, 2.221414e-002
3.189684e+003, 2.223105e-002
3.191612e+003, 2.267614e-002
3.193541e+003, 2.379371e-002
3.195469e+003, 2.278165e-002
3.197398e+003, 2.240702e-002
3.199326e+003, 2.218963e-002
3.201255e+003, 2.256616e-002
3.203183e+003, 2.223218e-002
3.205112e+003, 2.291585e-002
3.207040e+003, 2.398251e-002
3.208969e+003, 2.380163e-002
3.210897e+003, 2.172361e-002
3.212825e+003, 2.215248e-002
3.214754e+003, 2.196454e-002
3.216682e+003, 2.120167e-002
3.218611e+003, 2.199073e-002
3.220539e+003, 2.177687e-002
3.222468e+003, 2.261394e-002
3.224396e+003, 2.202591e-002
3.226325e+003, 2.066057e-002
3.228253e+003, 2.056907e-002
3.230182e+003, 2.235040e-002
3.232110e+003, 2.200726e-002
3.234039e+003, 2.337652e-002
3.235967e+003, 2.488809e-002
3.237896e+003, 2.418984e-002
3.239824e+003, 2.387005e-002
3.241752e+003, 2.376138e-002
3.243681e+003, 2.263941e-002
3.245609e+003, 2.240869e-002
3.247538e+003, 2.334623e-002
3.249466e+003, 2.432130e-002
3.251395e+003, 2.516436e-002
3.253323e+003, 2.366937e-002
3.255252e+003, 2.203068e-002
3.257180e+003, 2.432394e-002
3.259109e+003, 2.532798e-002
3.261037e+003, 2.506131e-002
3.262966e+003, 2.512833e-002
3.264894e+003, 2.661890e-002
3.266823e+003, 2.629953e-002
3.268751e+003, 2.424242e-002
3.270679e+003, 2.229355e-002
3.272608e+003, 2.255644e-002
3.274536e+003, 2.556479e-002
3.276465e+003, 2.750016e-002
3.278393e+003, 2.446106e-002
3.280322e+003, 2.327003e-002
3.282250e+003, 2.445838e-002
3.284179e+003, 2.448685e-002
3.286107e+003, 2.310454e-002
3.288036e+003, 2.144648e-002
3.289964e+003, 2.294520e-002
3.291893e+003, 2.372098e-002
3.293821e+003, 2.186682e-002
3.295750e+003, 2.304402e-002
3.297678e+003, 2.381978e-002
3.299606e+003, 2.321760e-002
3.301535e+003, 2.296786e-002
3.303463e+003, 2.276235e-002
3.305392e+003, 2.397663e-002
3.307320e+003, 2.434259e-002
3.309249e+003, 2.494876e-002
3.311177e+003, 2.455037e-002
3.313106e+003, 2.443573e-002
3.315034e+003, 2.293490e-002
3.316963e+003, 2.235882e-002
3.318891e+003, 2.388540e-002
3.320820e+003, 2.543765e-002
3.322748e+003, 2.485164e-002
3.324677e+003, 2.355874e-002
3.326605e+003, 2.392392e-002
3.328533e+003, 2.318578e-002
3.330462e+003, 2.081697e-002
3.332390e+003, 2.103315e-002
3.334319e+003, 2.092588e-002
3.336247e+003, 2.242282e-002
3.338176e+003, 2.204374e-002
3.340104e+003, 2.180888e-002
3.342033e+003, 2.233970e-002
3.343961e+003, 2.238042e-002
3.345890e+003, 2.388256e-002
3.347818e+003, 2.579402e-002
3.349747e+003, 2.625138e-002
3.351675e+003, 2.491549e-002
3.353604e+003, 2.402158e-002
3.355532e+003, 2.502658e-002
3.357460e+003, 2.474600e-002
3.359389e+003, 2.352032e-002
3.361317e+003, 2.513420e-002
3.363246e+003, 2.345261e-002
3.365174e+003, 2.141099e-002
3.367103e+003, 2.176035e-002
3.369031e+003, 2.075783e-002
3.370960e+003, 2.183969e-002
3.372888e+003, 2.303137e-002
3.374817e+003, 2.255135e-002
3.376745e+003, 2.249280e-002
3.378674e+003, 2.230791e-002
3.380602e+003, 2.262776e-002
3.382531e+003, 2.367542e-002
3.384459e+003, 2.345626e-002
3.386387e+003, 2.252100e-002
3.388316e+003, 2.248690e-002
3.390244e+003, 2.270699e-002
3.392173e+003, 2.482721e-002
3.394101e+003, 2.624073e-002
3.396030e+003, 2.540341e-002
3.397958e+003, 2.462639e-002
3.399887e+003, 2.376808e-002
3.401815e+003, 2.407544e-002
3.403744e+003, 2.365279e-002
3.405672e+003, 2.414513e-002
3.407601e+003, 2.392577e-002
3.409529e+003, 2.015872e-002
3.411458e+003, 1.910884e-002
3.413386e+003, 2.119048e-002
3.415314e+003, 2.042077e-002
3.417243e+003, 2.026130e-002
3.419171e+003, 2.166627e-002
3.421100e+003, 2.315632e-002
3.423028e+003, 2.490852e-002
3.424957e+003, 2.402150e-002
3.426885e+003, 2.386649e-002
3.428814e+003, 2.179803e-002
3.430742e+003, 1.985867e-002
3.432671e+003, 2.136013e-002
3.434599e+003, 2.254885e-002
3.436528e+003, 2.301315e-002
3.438456e+003, 2.656736e-002
3.440385e+003, 2.676067e-002
3.442313e+003, 2.534621e-002
3.444241e+003, 2.578973e-002
3.446170e+003, 2.553115e-002
3.448098e+003, 2.489820e-002
3.450027e+003, 2.562981e-002
3.451955e+003, 2.488846e-002
3.453884e+003, 2.357367e-002
3.455812e+003, 2.317693e-002
3.457741e+003, 2.424018e-002
3.459669e+003, 2.298206e-002
3.461598e+003, 2.371375e-002
3.463526e+003, 2.537801e-002
3.465455e+003, 2.503045e-002
3.467383e+003, 2.338733e-002
3.469312e+003, 2.108403e-002
3.471240e+003, 2.109113e-002
3.473168e+003, 2.074632e-002
3.475097e+003, 2.207322e-002
3.477025e+003, 2.424202e-002
3.478954e+003, 2.411448e-002
3.480882e+003, 2.312616e-002
3.482811e+003, 2.453626e-002
3.484739e+003, 2.372528e-002
3.486668e+003, 2.105543e-002
3.488596e+003, 1.977968e-002
3.490525e+003, 2.311118e-002
3.492453e+003, 2.479260e-002
3.494382e+003, 2.393618e-002
3.496310e+003, 2.528045e-002
3.498239e+003, 2.859532e-002
3.500167e+003, 2.885991e-002
3.502095e+003, 2.512930e-002
3.504024e+003, 2.302644e-002
3.505952e+003, 2.376485e-002
3.507881e+003, 2.282782e-002
3.509809e+003, 2.248585e-002
3.511738e+003, 2.172440e-002
3.513666e+003, 2.241507e-002
3.515595e+003, 2.418140e-002
3.517523e+003, 2.421237e-002
3.519452e+003, 2.419890e-002
3.521380e+003, 2.512274e-002
3.523309e+003, 2.409270e-002
3.525237e+003, 2.346261e-002
3.527166e+003, 2.359382e-002
3.529094e+003, 2.368489e-002
3.531022e+003, 2.336168e-002
3.532951e+003, 2.268682e-002
3.534879e+003, 2.019645e-002
3.536808e+003, 2.103211e-002
3.538736e+003, 2.071394e-002
3.540665e+003, 1.606558e-002
3.542593e+003, 1.875656e-002
3.544522e+003, 2.278263e-002
3.546450e+003, 2.297265e-002
3.548379e+003, 2.400814e-002
3.550307e+003, 2.476863e-002
3.552236e+003, 2.612035e-002
3.554164e+003, 2.541265e-002
3.556093e+003, 2.424614e-002
3.558021e+003, 2.333800e-002
3.559949e+003, 2.102217e-002
3.561878e+003, 2.223757e-002
3.563806e+003, 2.405473e-002
3.565735e+003, 2.462144e-002
3.567663e+003, 2.361152e-002
3.569592e+003, 2.218670e-002
3.571520e+003, 2.318904e-002
3.573449e+003, 2.408773e-002
3.575377e+003, 2.131797e-002
3.577306e+003, 2.019376e-002
3.579234e+003, 2.355836e-002
3.581163e+003, 2.627517e-002
3.583091e+003, 2.489627e-002
3.585020e+003, 2.180436e-002
3.586948e+003, 2.049191e-002
3.588876e+003, 2.346273e-002
3.590805e+003, 2.668584e-002
3.592733e+003, 2.472864e-002
3.594662e+003, 2.051892e-002
3.596590e+003, 1.948482e-002
3.598519e+003, 2.100492e-002
3.600447e+003, 2.295411e-002
3.602376e+003, 2.494153e-002
3.604304e+003, 2.609582e-002
3.606233e+003, 2.627046e-002
3.608161e+003, 2.457024e-002
3.610090e+003, 2.172099e-002
3.612018e+003, 2.264994e-002
3.613947e+003, 2.443891e-002
3.615875e+003, 2.170591e-002
3.617803e+003, 2.128637e-002
3.619732e+003, 2.104615e-002
3.621660e+003, 2.204449e-002
3.623589e+003, 2.173004e-002
3.625517e+003, 2.053417e-002
3.627446e+003, 2.038830e-002
3.629374e+003, 2.196486e-002
3.631303e+003, 2.302812e-002
3.633231e+003, 2.451778e-002
3.635160e+003, 2.246688e-002
3.637088e+003, 1.798445e-002
3.639017e+003, 1.984295e-002
3.640945e+003, 2.219704e-002
3.642874e+003, 2.192711e-002
3.644802e+003, 2.364858e-002
3.646730e+003, 2.743910e-002
3.648659e+003, 2.472042e-002
3.650587e+003, 2.042394e-002
3.652516e+003, 1.875659e-002
3.654444e+003, 1.990102e-002
3.656373e+003, 1.937803e-002
3.658301e+003, 1.710173e-002
3.660230e+003, 1.760282e-002
3.662158e+003, 1.854314e-002
3.664087e+003, 2.176824e-002
3.666015e+003, 2.350661e-002
3.667944e+003, 2.115503e-002
3.669872e+003, 1.883759e-002
3.671801e+003, 1.969816e-002
3.673729e+003, 2.269329e-002
3.675657e+003, 2.377006e-002
3.677586e+003, 2.423001e-002
3.679514e+003, 2.565594e-002
3.681443e+003, 2.277419e-002
3.683371e+003, 1.853437e-002
3.685300e+003, 2.042508e-002
3.687228e+003, 2.152077e-002
3.689157e+003, 1.829075e-002
3.691085e+003, 1.924003e-002
3.693014e+003, 2.425297e-002
3.694942e+003, 2.459098e-002
3.696871e+003, 2.067802e-002
3.698799e+003, 1.728554e-002
3.700728e+003, 1.461484e-002
3.702656e+003, 1.873945e-002
3.704584e+003, 2.309534e-002
3.706513e+003, 2.126674e-002
3.708441e+003, 1.906455e-002
3.710370e+003, 2.032673e-002
3.712298e+003, 2.345563e-002
3.714227e+003, 2.272434e-002
3.716155e+003, 2.230605e-002
3.718084e+003, 2.350223e-002
3.720012e+003, 2.361854e-002
3.721941e+003, 2.373244e-002
3.723869e+003, 2.318236e-002
3.725798e+003, 2.171100e-002
3.727726e+003, 2.274434e-002
3.729655e+003, 2.273034e-002
3.731583e+003, 2.166206e-002
3.733511e+003, 1.985950e-002
3.735440e+003, 2.099997e-002
3.737368e+003, 2.391868e-002
3.739297e+003, 2.438570e-002
3.741225e+003, 2.259204e-002
3.743154e+003, 1.774166e-002
3.745082e+003, 1.356995e-002
3.747011e+003, 1.533916e-002
3.748939e+003, 1.493066e-002
3.750868e+003, 1.458016e-002
3.752796e+003, 1.466768e-002
3.754725e+003, 1.793863e-002
3.756653e+003, 2.008092e-002
3.758582e+003, 1.754998e-002
3.760510e+003, 1.518272e-002
3.762438e+003, 1.513474e-002
3.764367e+003, 1.583337e-002
3.766295e+003, 1.491243e-002
3.768224e+003, 1.458972e-002
3.770152e+003, 1.773343e-002
3.772081e+003, 2.087803e-002
3.774009e+003, 2.099152e-002
3.775938e+003, 1.840357e-002
3.777866e+003, 1.925169e-002
3.779795e+003, 2.195133e-002
3.781723e+003, 2.135436e-002
3.783652e+003, 2.096280e-002
3.785580e+003, 1.932357e-002
3.787509e+003, 1.682788e-002
3.789437e+003, 1.302830e-002
3.791365e+003, 1.221995e-002
3.793294e+003, 1.456016e-002
3.795222e+003, 1.715625e-002
3.797151e+003, 2.140737e-002
3.799079e+003, 2.209590e-002
3.801008e+003, 1.747546e-002
3.802936e+003, 1.484719e-002
3.804865e+003, 1.579021e-002
3.806793e+003, 1.356901e-002
3.808722e+003, 1.016615e-002
3.810650e+003, 1.529685e-002
3.812579e+003, 1.973711e-002
3.814507e+003, 1.765103e-002
3.816436e+003, 1.647102e-002
3.818364e+003, 1.849350e-002
3.820292e+003, 1.970941e-002
3.822221e+003, 2.081061e-002
3.824149e+003, 1.739128e-002
3.826078e+003, 1.590355e-002
3.828006e+003, 1.746995e-002
3.829935e+003, 1.952854e-002
3.831863e+003, 1.835257e-002
3.833792e+003, 1.710450e-002
3.835720e+003, 1.810379e-002
3.837649e+003, 1.703152e-002
3.839577e+003, 1.526801e-002
3.841506e+003, 1.829876e-002
3.843434e+003, 1.987265e-002
3.845363e+003, 1.730508e-002
3.847291e+003, 1.797260e-002
3.849219e+003, 2.037633e-002
3.851148e+003, 2.195230e-002
3.853076e+003, 2.340195e-002
3.855005e+003, 1.970647e-002
3.856933e+003, 1.494701e-002
3.858862e+003, 1.571811e-002
3.860790e+003, 1.634126e-002
3.862719e+003, 1.600867e-002
3.864647e+003, 1.740764e-002
3.866576e+003, 1.652686e-002
3.868504e+003, 1.841624e-002
3.870433e+003, 1.847731e-002
3.872361e+003, 1.452640e-002
3.874290e+003, 1.381284e-002
3.876218e+003, 1.657593e-002
3.878146e+003, 1.810929e-002
3.880075e+003, 2.008799e-002
3.882003e+003, 2.046874e-002
3.883932e+003, 1.792668e-002
3.885860e+003, 1.873310e-002
3.887789e+003, 1.876236e-002
3.889717e+003, 1.544120e-002
3.891646e+003, 1.448227e-002
3.893574e+003, 1.674792e-002
3.895503e+003, 1.576162e-002
3.897431e+003, 1.292611e-002
3.899360e+003, 1.710851e-002
3.901288e+003, 1.601593e-002
3.903217e+003, 1.414905e-002
3.905145e+003, 1.622972e-002
3.907073e+003, 1.594567e-002
3.909002e+003, 1.838126e-002
3.910930e+003, 2.062821e-002
3.912859e+003, 1.631607e-002
3.914787e+003, 1.300049e-002
3.916716e+003, 1.483796e-002
3.918644e+003, 1.764073e-002
3.920573e+003, 1.940135e-002
3.922501e+003, 2.086942e-002
3.924430e+003, 1.756728e-002
3.926358e+003, 1.120277e-002
3.928287e+003, 1.183339e-002
3.930215e+003, 1.625044e-002
3.932144e+003, 2.031375e-002
3.934072e+003, 2.155878e-002
3.936000e+003, 2.149423e-002
3.937929e+003, 1.957795e-002
3.939857e+003, 2.018307e-002
3.941786e+003, 1.697360e-002
3.943714e+003, 1.743943e-002
3.945643e+003, 1.867792e-002
3.947571e+003, 1.593645e-002
3.949500e+003, 1.630225e-002
3.951428e+003, 1.630896e-002
3.953357e+003, 1.650554e-002
3.955285e+003, 1.770310e-002
3.957214e+003, 1.643408e-002
3.959142e+003, 1.538622e-002
3.961071e+003, 1.419531e-002
3.962999e+003, 1.271326e-002
3.964927e+003, 1.464203e-002
3.966856e+003, 1.971854e-002
3.968784e+003, 1.985150e-002
3.970713e+003, 1.526697e-002
3.972641e+003, 1.413364e-002
3.974570e+003, 1.624347e-002
3.976498e+003, 1.769417e-002
3.978427e+003, 1.414493e-002
3.980355e+003, 1.356632e-002
3.982284e+003, 1.454765e-002
3.984212e+003, 1.403110e-002
3.986141e+003, 1.469040e-002
3.988069e+003, 1.772089e-002
3.989998e+003, 1.459978e-002
3.991926e+003, 1.085121e-002
3.993854e+003, 1.214683e-002
3.995783e+003, 1.786774e-002
3.997711e+003, 1.919371e-002
3.999640e+003, 1.587042e-002
4.001568e+003, 0.000000e+000
##END=



