##NAMES=Rinkite-(Ce)
##RRUFFID=R050229
##IDEAL CHEMISTRY=(Ca_3_Ce^3+^)Na(NaCa)Ti^4+^(Si_2_O_7_)_2_(OF)F_2_
##LOCALITY=Kipawa alkaline complex, near Sheffield Lake, Villedieu Township, Temiscamingue County, Quebec, Canada
##OWNER=RRUFF
##SOURCE=Marcus Origlieri
##DESCRIPTION=Aggregate of coarsely crystalline yellowish-gray crystals associated with red eudialyte R050230
##STATUS=The identification of this mineral has been confirmed by X-ray diffraction.
##URL=rruff.info/R050229
5.014013e+001, 1.104054e-002
5.206860e+001, 8.145921e-003
5.399707e+001, 5.383724e-003
5.592553e+001, 3.333619e-003
5.785400e+001, 4.264531e-003
5.978246e+001, 6.167695e-003
6.171093e+001, 7.459855e-003
6.363940e+001, 7.178497e-003
6.556786e+001, 6.300421e-003
6.749633e+001, 8.091667e-003
6.942480e+001, 9.412029e-003
7.135326e+001, 8.896041e-003
7.328172e+001, 9.850839e-003
7.521019e+001, 9.362133e-003
7.713866e+001, 7.963332e-003
7.906712e+001, 8.380395e-003
8.099559e+001, 9.888188e-003
8.292406e+001, 1.059092e-002
8.485252e+001, 1.048194e-002
8.678099e+001, 1.002891e-002
8.870946e+001, 1.074819e-002
9.063792e+001, 1.140376e-002
9.256638e+001, 1.129332e-002
9.449485e+001, 1.125267e-002
9.642332e+001, 1.138587e-002
9.835178e+001, 1.190913e-002
1.002803e+002, 1.260317e-002
1.022087e+002, 1.313080e-002
1.041372e+002, 1.317421e-002
1.060657e+002, 1.363188e-002
1.079941e+002, 1.356117e-002
1.099226e+002, 1.370612e-002
1.118510e+002, 1.413725e-002
1.137795e+002, 1.384902e-002
1.157080e+002, 1.453508e-002
1.176364e+002, 1.523609e-002
1.195649e+002, 1.528262e-002
1.214934e+002, 1.503595e-002
1.234218e+002, 1.566627e-002
1.253503e+002, 1.627672e-002
1.272788e+002, 1.650538e-002
1.292072e+002, 1.682749e-002
1.311357e+002, 1.742740e-002
1.330642e+002, 1.772799e-002
1.349926e+002, 1.858973e-002
1.369211e+002, 1.900120e-002
1.388496e+002, 1.887804e-002
1.407780e+002, 1.902545e-002
1.427065e+002, 1.940223e-002
1.446350e+002, 1.921163e-002
1.465634e+002, 1.897692e-002
1.484919e+002, 1.882245e-002
1.504204e+002, 1.934746e-002
1.523488e+002, 2.067551e-002
1.542773e+002, 2.133076e-002
1.562058e+002, 2.132777e-002
1.581342e+002, 2.095320e-002
1.600627e+002, 2.134773e-002
1.619912e+002, 2.187167e-002
1.639196e+002, 2.208968e-002
1.658481e+002, 2.208854e-002
1.677766e+002, 2.281069e-002
1.697050e+002, 2.342062e-002
1.716335e+002, 2.322914e-002
1.735620e+002, 2.347739e-002
1.754904e+002, 2.287392e-002
1.774189e+002, 2.312758e-002
1.793474e+002, 2.368758e-002
1.812758e+002, 2.344581e-002
1.832043e+002, 2.413921e-002
1.851328e+002, 2.488006e-002
1.870612e+002, 2.496092e-002
1.889897e+002, 2.514707e-002
1.909182e+002, 2.532345e-002
1.928466e+002, 2.539148e-002
1.947751e+002, 2.547688e-002
1.967036e+002, 2.589678e-002
1.986320e+002, 2.625144e-002
2.005605e+002, 2.626048e-002
2.024890e+002, 2.629648e-002
2.044174e+002, 2.694656e-002
2.063459e+002, 2.716448e-002
2.082744e+002, 2.696848e-002
2.102028e+002, 2.749446e-002
2.121313e+002, 2.766523e-002
2.140598e+002, 2.791090e-002
2.159882e+002, 2.825067e-002
2.179167e+002, 2.830548e-002
2.198452e+002, 2.844189e-002
2.217736e+002, 2.836180e-002
2.237021e+002, 2.860895e-002
2.256305e+002, 2.880791e-002
2.275590e+002, 2.871950e-002
2.294875e+002, 2.933448e-002
2.314159e+002, 2.988656e-002
2.333444e+002, 3.010016e-002
2.352729e+002, 3.043674e-002
2.372013e+002, 3.065326e-002
2.391298e+002, 3.082304e-002
2.410583e+002, 3.080259e-002
2.429867e+002, 3.073754e-002
2.449152e+002, 3.056502e-002
2.468437e+002, 3.052951e-002
2.487721e+002, 3.081698e-002
2.507006e+002, 3.137396e-002
2.526291e+002, 3.127732e-002
2.545575e+002, 3.124902e-002
2.564860e+002, 3.180822e-002
2.584145e+002, 3.206149e-002
2.603429e+002, 3.219857e-002
2.622714e+002, 3.242906e-002
2.641999e+002, 3.228750e-002
2.661283e+002, 3.220408e-002
2.680568e+002, 3.247939e-002
2.699853e+002, 3.275182e-002
2.719137e+002, 3.289847e-002
2.738422e+002, 3.311622e-002
2.757707e+002, 3.309986e-002
2.776991e+002, 3.250608e-002
2.796276e+002, 3.236037e-002
2.815561e+002, 3.270569e-002
2.834845e+002, 3.318876e-002
2.854130e+002, 3.373066e-002
2.873415e+002, 3.377648e-002
2.892699e+002, 3.372490e-002
2.911984e+002, 3.408199e-002
2.931269e+002, 3.429258e-002
2.950553e+002, 3.438052e-002
2.969838e+002, 3.453512e-002
2.989123e+002, 3.426732e-002
3.008407e+002, 3.401751e-002
3.027692e+002, 3.392980e-002
3.046977e+002, 3.469599e-002
3.066261e+002, 3.514345e-002
3.085546e+002, 3.500754e-002
3.104831e+002, 3.493931e-002
3.124115e+002, 3.518796e-002
3.143400e+002, 3.538092e-002
3.162685e+002, 3.535799e-002
3.181969e+002, 3.525266e-002
3.201254e+002, 3.566461e-002
3.220539e+002, 3.563088e-002
3.239823e+002, 3.533350e-002
3.259108e+002, 3.550570e-002
3.278392e+002, 3.535214e-002
3.297677e+002, 3.544170e-002
3.316962e+002, 3.570911e-002
3.336246e+002, 3.586116e-002
3.355531e+002, 3.559322e-002
3.374816e+002, 3.567792e-002
3.394100e+002, 3.589761e-002
3.413385e+002, 3.562563e-002
3.432670e+002, 3.548319e-002
3.451954e+002, 3.560587e-002
3.471239e+002, 3.566103e-002
3.490524e+002, 3.555126e-002
3.509808e+002, 3.557150e-002
3.529093e+002, 3.562065e-002
3.548378e+002, 3.590173e-002
3.567662e+002, 3.605170e-002
3.586947e+002, 3.616323e-002
3.606232e+002, 3.645867e-002
3.625516e+002, 3.704334e-002
3.644801e+002, 3.723724e-002
3.664086e+002, 3.712417e-002
3.683370e+002, 3.703629e-002
3.702655e+002, 3.707651e-002
3.721940e+002, 3.716573e-002
3.741224e+002, 3.712134e-002
3.760509e+002, 3.718452e-002
3.779794e+002, 3.725389e-002
3.799078e+002, 3.720115e-002
3.818363e+002, 3.710999e-002
3.837648e+002, 3.696540e-002
3.856932e+002, 3.681363e-002
3.876217e+002, 3.659198e-002
3.895502e+002, 3.670297e-002
3.914786e+002, 3.668571e-002
3.934071e+002, 3.657585e-002
3.953356e+002, 3.648072e-002
3.972640e+002, 3.614287e-002
3.991925e+002, 3.599658e-002
4.011210e+002, 3.612275e-002
4.030494e+002, 3.605154e-002
4.049779e+002, 3.620321e-002
4.069064e+002, 3.642680e-002
4.088348e+002, 3.640163e-002
4.107633e+002, 3.635819e-002
4.126917e+002, 3.630225e-002
4.146202e+002, 3.631575e-002
4.165487e+002, 3.666255e-002
4.184771e+002, 3.668766e-002
4.204056e+002, 3.682144e-002
4.223341e+002, 3.716870e-002
4.242625e+002, 3.760752e-002
4.261910e+002, 3.787883e-002
4.281195e+002, 3.798721e-002
4.300479e+002, 3.814983e-002
4.319764e+002, 3.843725e-002
4.339049e+002, 3.857003e-002
4.358333e+002, 3.863833e-002
4.377618e+002, 3.874272e-002
4.396903e+002, 3.912328e-002
4.416187e+002, 3.924301e-002
4.435472e+002, 3.921748e-002
4.454757e+002, 3.922348e-002
4.474041e+002, 3.961764e-002
4.493326e+002, 4.006938e-002
4.512611e+002, 4.029122e-002
4.531895e+002, 4.018303e-002
4.551180e+002, 4.039324e-002
4.570465e+002, 4.101649e-002
4.589749e+002, 4.119963e-002
4.609034e+002, 4.120864e-002
4.628319e+002, 4.163125e-002
4.647603e+002, 4.181953e-002
4.666888e+002, 4.179994e-002
4.686173e+002, 4.171064e-002
4.705457e+002, 4.168503e-002
4.724742e+002, 4.189210e-002
4.744027e+002, 4.216632e-002
4.763311e+002, 4.211075e-002
4.782596e+002, 4.213526e-002
4.801881e+002, 4.215659e-002
4.821165e+002, 4.203391e-002
4.840450e+002, 4.216037e-002
4.859735e+002, 4.224695e-002
4.879019e+002, 4.202809e-002
4.898304e+002, 4.210547e-002
4.917589e+002, 4.209130e-002
4.936873e+002, 4.185371e-002
4.956158e+002, 4.166997e-002
4.975443e+002, 4.167927e-002
4.994727e+002, 4.148564e-002
5.014012e+002, 4.130889e-002
5.033297e+002, 4.140885e-002
5.052581e+002, 4.132127e-002
5.071866e+002, 4.073175e-002
5.091151e+002, 4.041053e-002
5.110435e+002, 3.971995e-002
5.129720e+002, 3.919350e-002
5.149005e+002, 3.905877e-002
5.168289e+002, 3.914980e-002
5.187574e+002, 3.891376e-002
5.206859e+002, 3.856781e-002
5.226143e+002, 3.809912e-002
5.245428e+002, 3.795299e-002
5.264713e+002, 3.786453e-002
5.283997e+002, 3.743531e-002
5.303282e+002, 3.698103e-002
5.322567e+002, 3.695965e-002
5.341851e+002, 3.668105e-002
5.361136e+002, 3.601313e-002
5.380421e+002, 3.562748e-002
5.399705e+002, 3.573186e-002
5.418990e+002, 3.533576e-002
5.438275e+002, 3.506427e-002
5.457559e+002, 3.481132e-002
5.476844e+002, 3.464822e-002
5.496129e+002, 3.448956e-002
5.515413e+002, 3.426502e-002
5.534698e+002, 3.420388e-002
5.553983e+002, 3.436999e-002
5.573267e+002, 3.449010e-002
5.592552e+002, 3.453894e-002
5.611837e+002, 3.453274e-002
5.631121e+002, 3.433582e-002
5.650406e+002, 3.416211e-002
5.669691e+002, 3.406914e-002
5.688975e+002, 3.407618e-002
5.708260e+002, 3.432114e-002
5.727545e+002, 3.455170e-002
5.746829e+002, 3.467086e-002
5.766114e+002, 3.472300e-002
5.785399e+002, 3.468774e-002
5.804683e+002, 3.450980e-002
5.823968e+002, 3.421168e-002
5.843253e+002, 3.422663e-002
5.862537e+002, 3.450176e-002
5.881822e+002, 3.439332e-002
5.901107e+002, 3.400630e-002
5.920391e+002, 3.389737e-002
5.939676e+002, 3.346858e-002
5.958961e+002, 3.284513e-002
5.978245e+002, 3.227617e-002
5.997530e+002, 3.122833e-002
6.016815e+002, 3.105707e-002
6.036099e+002, 3.099102e-002
6.055384e+002, 3.006231e-002
6.074669e+002, 2.974446e-002
6.093953e+002, 2.990001e-002
6.113238e+002, 2.996885e-002
6.132523e+002, 3.013628e-002
6.151807e+002, 3.031424e-002
6.171091e+002, 2.993886e-002
6.190376e+002, 3.036236e-002
6.209661e+002, 3.064309e-002
6.228945e+002, 3.126207e-002
6.248230e+002, 3.276142e-002
6.267515e+002, 3.421179e-002
6.286799e+002, 3.548044e-002
6.306084e+002, 3.649684e-002
6.325369e+002, 3.720878e-002
6.344653e+002, 3.782960e-002
6.363938e+002, 3.804503e-002
6.383223e+002, 3.823132e-002
6.402507e+002, 3.843482e-002
6.421792e+002, 3.884285e-002
6.441077e+002, 3.951833e-002
6.460361e+002, 3.982894e-002
6.479646e+002, 3.979340e-002
6.498931e+002, 3.995505e-002
6.518215e+002, 4.047274e-002
6.537500e+002, 4.073280e-002
6.556785e+002, 4.091006e-002
6.576069e+002, 4.104593e-002
6.595354e+002, 4.126406e-002
6.614639e+002, 4.195219e-002
6.633923e+002, 4.210906e-002
6.653208e+002, 4.194632e-002
6.672493e+002, 4.193043e-002
6.691777e+002, 4.211251e-002
6.711062e+002, 4.224114e-002
6.730347e+002, 4.249415e-002
6.749631e+002, 4.306836e-002
6.768916e+002, 4.368879e-002
6.788201e+002, 4.374539e-002
6.807485e+002, 4.306692e-002
6.826770e+002, 4.284626e-002
6.846055e+002, 4.321485e-002
6.865339e+002, 4.293471e-002
6.884624e+002, 4.277334e-002
6.903909e+002, 4.400536e-002
6.923193e+002, 4.555489e-002
6.942478e+002, 4.560829e-002
6.961763e+002, 4.582497e-002
6.981047e+002, 4.629809e-002
7.000332e+002, 4.550580e-002
##END=



