##NAMES=Rinkite-(Ce)
##RRUFFID=R050229
##IDEAL CHEMISTRY=(Ca_3_Ce^3+^)Na(NaCa)Ti^4+^(Si_2_O_7_)_2_(OF)F_2_
##LOCALITY=Kipawa alkaline complex, near Sheffield Lake, Villedieu Township, Temiscamingue County, Quebec, Canada
##OWNER=RRUFF
##SOURCE=Marcus Origlieri
##DESCRIPTION=Aggregate of coarsely crystalline yellowish-gray crystals associated with red eudialyte R050230
##STATUS=The identification of this mineral has been confirmed by X-ray diffraction.
##URL=rruff.info/R050229
3.721941e+002, 0.000000e+000
3.741225e+002, 1.455199e-001
3.760510e+002, 1.392346e-001
3.779795e+002, 1.530835e-001
3.799079e+002, 1.545548e-001
3.818364e+002, 1.489532e-001
3.837649e+002, 1.494413e-001
3.856933e+002, 1.438242e-001
3.876218e+002, 1.368118e-001
3.895503e+002, 1.342911e-001
3.914787e+002, 1.342104e-001
3.934072e+002, 1.337415e-001
3.953357e+002, 1.312509e-001
3.972641e+002, 1.345137e-001
3.991926e+002, 1.334796e-001
4.011211e+002, 1.298385e-001
4.030495e+002, 1.278335e-001
4.049780e+002, 1.283142e-001
4.069065e+002, 1.280099e-001
4.088349e+002, 1.243967e-001
4.107634e+002, 1.227024e-001
4.126919e+002, 1.248758e-001
4.146203e+002, 1.257833e-001
4.165488e+002, 1.264188e-001
4.184773e+002, 1.261858e-001
4.204057e+002, 1.260004e-001
4.223342e+002, 1.261877e-001
4.242627e+002, 1.272960e-001
4.261911e+002, 1.272247e-001
4.281196e+002, 1.265178e-001
4.300481e+002, 1.262659e-001
4.319765e+002, 1.265510e-001
4.339050e+002, 1.268339e-001
4.358335e+002, 1.281205e-001
4.377619e+002, 1.284968e-001
4.396904e+002, 1.284730e-001
4.416189e+002, 1.294535e-001
4.435473e+002, 1.308737e-001
4.454758e+002, 1.308233e-001
4.474043e+002, 1.307757e-001
4.493327e+002, 1.309143e-001
4.512612e+002, 1.312842e-001
4.531897e+002, 1.312287e-001
4.551181e+002, 1.322424e-001
4.570466e+002, 1.334572e-001
4.589751e+002, 1.335654e-001
4.609035e+002, 1.333150e-001
4.628320e+002, 1.339928e-001
4.647605e+002, 1.345320e-001
4.666889e+002, 1.345785e-001
4.686174e+002, 1.348287e-001
4.705459e+002, 1.355764e-001
4.724743e+002, 1.353699e-001
4.744028e+002, 1.341750e-001
4.763313e+002, 1.332621e-001
4.782597e+002, 1.323176e-001
4.801882e+002, 1.314784e-001
4.821167e+002, 1.311043e-001
4.840451e+002, 1.300143e-001
4.859736e+002, 1.290324e-001
4.879021e+002, 1.280429e-001
4.898305e+002, 1.259193e-001
4.917590e+002, 1.237401e-001
4.936875e+002, 1.221766e-001
4.956159e+002, 1.212254e-001
4.975444e+002, 1.204059e-001
4.994729e+002, 1.184845e-001
5.014013e+002, 1.160544e-001
5.033298e+002, 1.144444e-001
5.052583e+002, 1.133728e-001
5.071867e+002, 1.119734e-001
5.091152e+002, 1.105767e-001
5.110437e+002, 1.088243e-001
5.129721e+002, 1.067907e-001
5.149006e+002, 1.052607e-001
5.168290e+002, 1.032380e-001
5.187575e+002, 1.003337e-001
5.206860e+002, 9.714819e-002
5.226144e+002, 9.415214e-002
5.245429e+002, 9.133440e-002
5.264714e+002, 8.872736e-002
5.283998e+002, 8.590199e-002
5.303283e+002, 8.270910e-002
5.322568e+002, 8.029182e-002
5.341852e+002, 7.835618e-002
5.361137e+002, 7.675666e-002
5.380422e+002, 7.533287e-002
5.399706e+002, 7.355148e-002
5.418991e+002, 7.222909e-002
5.438276e+002, 7.122722e-002
5.457560e+002, 6.994314e-002
5.476845e+002, 6.903825e-002
5.496130e+002, 6.868351e-002
5.515414e+002, 6.852089e-002
5.534699e+002, 6.809901e-002
5.553984e+002, 6.718345e-002
5.573268e+002, 6.654712e-002
5.592553e+002, 6.608861e-002
5.611838e+002, 6.573599e-002
5.631122e+002, 6.500737e-002
5.650407e+002, 6.400608e-002
5.669692e+002, 6.303884e-002
5.688976e+002, 6.197735e-002
5.708261e+002, 6.120868e-002
5.727546e+002, 6.055456e-002
5.746830e+002, 5.978086e-002
5.766115e+002, 5.897438e-002
5.785400e+002, 5.839142e-002
5.804684e+002, 5.791636e-002
5.823969e+002, 5.731399e-002
5.843254e+002, 5.716132e-002
5.862538e+002, 5.668860e-002
5.881823e+002, 5.615062e-002
5.901108e+002, 5.575735e-002
5.920392e+002, 5.478134e-002
5.939677e+002, 5.339554e-002
5.958962e+002, 5.234926e-002
5.978246e+002, 5.117618e-002
5.997531e+002, 4.960077e-002
6.016816e+002, 4.816324e-002
6.036100e+002, 4.691799e-002
6.055385e+002, 4.580072e-002
6.074670e+002, 4.501267e-002
6.093954e+002, 4.415017e-002
6.113239e+002, 4.344477e-002
6.132524e+002, 4.307415e-002
6.151808e+002, 4.272894e-002
6.171093e+002, 4.243781e-002
6.190378e+002, 4.246626e-002
6.209662e+002, 4.289087e-002
6.228947e+002, 4.314860e-002
6.248232e+002, 4.325188e-002
6.267516e+002, 4.362277e-002
6.286801e+002, 4.422861e-002
6.306086e+002, 4.468742e-002
6.325370e+002, 4.511959e-002
6.344655e+002, 4.575071e-002
6.363940e+002, 4.647899e-002
6.383224e+002, 4.727527e-002
6.402509e+002, 4.804447e-002
6.421794e+002, 4.875737e-002
6.441078e+002, 4.959558e-002
6.460363e+002, 5.034536e-002
6.479648e+002, 5.100136e-002
6.498932e+002, 5.179363e-002
6.518217e+002, 5.247227e-002
6.537502e+002, 5.295908e-002
6.556786e+002, 5.330635e-002
6.576071e+002, 5.376556e-002
6.595356e+002, 5.411423e-002
6.614641e+002, 5.422242e-002
6.633925e+002, 5.425924e-002
6.653210e+002, 5.426118e-002
6.672495e+002, 5.392508e-002
6.691779e+002, 5.325927e-002
6.711064e+002, 5.251949e-002
6.730349e+002, 5.196793e-002
6.749633e+002, 5.136281e-002
6.768918e+002, 5.074158e-002
6.788203e+002, 5.040161e-002
6.807487e+002, 5.027240e-002
6.826772e+002, 5.005537e-002
6.846057e+002, 5.002473e-002
6.865341e+002, 5.006285e-002
6.884626e+002, 5.024009e-002
6.903911e+002, 5.050055e-002
6.923195e+002, 5.063950e-002
6.942480e+002, 5.094821e-002
6.961765e+002, 5.126897e-002
6.981049e+002, 5.156167e-002
7.000334e+002, 5.208545e-002
7.019619e+002, 5.252185e-002
7.038903e+002, 5.287929e-002
7.058188e+002, 5.315049e-002
7.077473e+002, 5.339890e-002
7.096757e+002, 5.368882e-002
7.116042e+002, 5.408318e-002
7.135327e+002, 5.471187e-002
7.154611e+002, 5.513885e-002
7.173896e+002, 5.537542e-002
7.193181e+002, 5.598281e-002
7.212465e+002, 5.662050e-002
7.231750e+002, 5.724489e-002
7.251035e+002, 5.795222e-002
7.270319e+002, 5.879923e-002
7.289604e+002, 5.952455e-002
7.308889e+002, 6.024169e-002
7.328173e+002, 6.100565e-002
7.347458e+002, 6.166163e-002
7.366743e+002, 6.238995e-002
7.386027e+002, 6.300336e-002
7.405312e+002, 6.376214e-002
7.424597e+002, 6.462473e-002
7.443881e+002, 6.523006e-002
7.463166e+002, 6.581987e-002
7.482451e+002, 6.617617e-002
7.501735e+002, 6.630599e-002
7.521020e+002, 6.659076e-002
7.540305e+002, 6.697546e-002
7.559589e+002, 6.760781e-002
7.578874e+002, 6.837946e-002
7.598159e+002, 6.899171e-002
7.617443e+002, 6.967181e-002
7.636728e+002, 7.023656e-002
7.656013e+002, 7.097375e-002
7.675297e+002, 7.190105e-002
7.694582e+002, 7.281288e-002
7.713867e+002, 7.357232e-002
7.733151e+002, 7.433199e-002
7.752436e+002, 7.523797e-002
7.771721e+002, 7.623358e-002
7.791005e+002, 7.717684e-002
7.810290e+002, 7.817703e-002
7.829575e+002, 7.941078e-002
7.848859e+002, 8.080021e-002
7.868144e+002, 8.195224e-002
7.887429e+002, 8.311160e-002
7.906713e+002, 8.469824e-002
7.925998e+002, 8.647577e-002
7.945283e+002, 8.823346e-002
7.964567e+002, 9.007208e-002
7.983852e+002, 9.196175e-002
8.003137e+002, 9.397244e-002
8.022421e+002, 9.602255e-002
8.041706e+002, 9.815277e-002
8.060991e+002, 1.003501e-001
8.080275e+002, 1.028046e-001
8.099560e+002, 1.053298e-001
8.118845e+002, 1.079574e-001
8.138129e+002, 1.107529e-001
8.157414e+002, 1.136310e-001
8.176699e+002, 1.164556e-001
8.195983e+002, 1.193616e-001
8.215268e+002, 1.226084e-001
8.234553e+002, 1.257833e-001
8.253837e+002, 1.288114e-001
8.273122e+002, 1.320588e-001
8.292407e+002, 1.354044e-001
8.311691e+002, 1.386757e-001
8.330976e+002, 1.420636e-001
8.350261e+002, 1.454963e-001
8.369545e+002, 1.489528e-001
8.388830e+002, 1.523002e-001
8.408115e+002, 1.554741e-001
8.427399e+002, 1.586238e-001
8.446684e+002, 1.616675e-001
8.465969e+002, 1.645401e-001
8.485253e+002, 1.671008e-001
8.504538e+002, 1.697887e-001
8.523823e+002, 1.722582e-001
8.543107e+002, 1.743068e-001
8.562392e+002, 1.763222e-001
8.581677e+002, 1.780694e-001
8.600961e+002, 1.796021e-001
8.620246e+002, 1.807446e-001
8.639531e+002, 1.805423e-001
8.658815e+002, 1.794872e-001
8.678100e+002, 1.788039e-001
8.697385e+002, 1.785471e-001
8.716669e+002, 1.779657e-001
8.735954e+002, 1.770353e-001
8.755239e+002, 1.756723e-001
8.774523e+002, 1.741378e-001
8.793808e+002, 1.729286e-001
8.813093e+002, 1.716474e-001
8.832377e+002, 1.704481e-001
8.851662e+002, 1.694772e-001
8.870947e+002, 1.688071e-001
8.890231e+002, 1.684348e-001
8.909516e+002, 1.683905e-001
8.928801e+002, 1.685162e-001
8.948085e+002, 1.689513e-001
8.967370e+002, 1.695075e-001
8.986655e+002, 1.701159e-001
9.005939e+002, 1.710993e-001
9.025224e+002, 1.721159e-001
9.044509e+002, 1.730058e-001
9.063793e+002, 1.740835e-001
9.083078e+002, 1.748775e-001
9.102363e+002, 1.753625e-001
9.121647e+002, 1.755737e-001
9.140932e+002, 1.754824e-001
9.160217e+002, 1.755166e-001
9.179501e+002, 1.755614e-001
9.198786e+002, 1.755810e-001
9.218071e+002, 1.757679e-001
9.237355e+002, 1.757839e-001
9.256640e+002, 1.755839e-001
9.275925e+002, 1.755831e-001
9.295209e+002, 1.754136e-001
9.314494e+002, 1.751641e-001
9.333779e+002, 1.750662e-001
9.353063e+002, 1.750747e-001
9.372348e+002, 1.751959e-001
9.391633e+002, 1.753923e-001
9.410917e+002, 1.755008e-001
9.430202e+002, 1.757008e-001
9.449487e+002, 1.760073e-001
9.468771e+002, 1.762335e-001
9.488056e+002, 1.761932e-001
9.507341e+002, 1.760252e-001
9.526625e+002, 1.758044e-001
9.545910e+002, 1.755345e-001
9.565195e+002, 1.751545e-001
9.584479e+002, 1.746017e-001
9.603764e+002, 1.739130e-001
9.623049e+002, 1.730870e-001
9.642333e+002, 1.723243e-001
9.661618e+002, 1.713282e-001
9.680903e+002, 1.698005e-001
9.700187e+002, 1.682879e-001
9.719472e+002, 1.667016e-001
9.738757e+002, 1.648740e-001
9.758041e+002, 1.630439e-001
9.777326e+002, 1.609143e-001
9.796611e+002, 1.585132e-001
9.815895e+002, 1.561954e-001
9.835180e+002, 1.537552e-001
9.854465e+002, 1.512132e-001
9.873749e+002, 1.488125e-001
9.893034e+002, 1.465406e-001
9.912319e+002, 1.442374e-001
9.931603e+002, 1.420349e-001
9.950888e+002, 1.398565e-001
9.970173e+002, 1.374766e-001
9.989457e+002, 1.351239e-001
1.000874e+003, 1.327577e-001
1.002803e+003, 1.303868e-001
1.004731e+003, 1.282672e-001
1.006660e+003, 1.262096e-001
1.008588e+003, 1.241217e-001
1.010517e+003, 1.219797e-001
1.012445e+003, 1.200348e-001
1.014373e+003, 1.181224e-001
1.016302e+003, 1.162360e-001
1.018230e+003, 1.144186e-001
1.020159e+003, 1.123741e-001
1.022087e+003, 1.104456e-001
1.024016e+003, 1.085009e-001
1.025944e+003, 1.063272e-001
1.027873e+003, 1.042972e-001
1.029801e+003, 1.023830e-001
1.031730e+003, 1.004782e-001
1.033658e+003, 9.860256e-002
1.035587e+003, 9.666262e-002
1.037515e+003, 9.475509e-002
1.039443e+003, 9.286980e-002
1.041372e+003, 9.082840e-002
1.043300e+003, 8.881946e-002
1.045229e+003, 8.686925e-002
1.047157e+003, 8.498120e-002
1.049086e+003, 8.305161e-002
1.051014e+003, 8.101406e-002
1.052943e+003, 7.900959e-002
1.054871e+003, 7.713600e-002
1.056800e+003, 7.501230e-002
1.058728e+003, 7.278343e-002
1.060657e+003, 7.069277e-002
1.062585e+003, 6.856216e-002
1.064514e+003, 6.644607e-002
1.066442e+003, 6.433608e-002
1.068370e+003, 6.221596e-002
1.070299e+003, 6.034471e-002
1.072227e+003, 5.833670e-002
1.074156e+003, 5.599185e-002
1.076084e+003, 5.392266e-002
1.078013e+003, 5.223164e-002
1.079941e+003, 5.034859e-002
1.081870e+003, 4.834050e-002
1.083798e+003, 4.649939e-002
1.085727e+003, 4.477902e-002
1.087655e+003, 4.304542e-002
1.089584e+003, 4.121218e-002
1.091512e+003, 3.953794e-002
1.093441e+003, 3.796221e-002
1.095369e+003, 3.643057e-002
1.097297e+003, 3.500685e-002
1.099226e+003, 3.370013e-002
1.101154e+003, 3.260981e-002
1.103083e+003, 3.135079e-002
1.105011e+003, 3.006490e-002
1.106940e+003, 2.896019e-002
1.108868e+003, 2.793786e-002
1.110797e+003, 2.693730e-002
1.112725e+003, 2.599883e-002
1.114654e+003, 2.518846e-002
1.116582e+003, 2.454932e-002
1.118511e+003, 2.385308e-002
1.120439e+003, 2.305015e-002
1.122368e+003, 2.229184e-002
1.124296e+003, 2.154431e-002
1.126224e+003, 2.087027e-002
1.128153e+003, 2.015261e-002
1.130081e+003, 1.945090e-002
1.132010e+003, 1.899130e-002
1.133938e+003, 1.839755e-002
1.135867e+003, 1.765982e-002
1.137795e+003, 1.711462e-002
1.139724e+003, 1.660340e-002
1.141652e+003, 1.605988e-002
1.143581e+003, 1.562363e-002
1.145509e+003, 1.514840e-002
1.147438e+003, 1.461303e-002
1.149366e+003, 1.432717e-002
1.151295e+003, 1.400763e-002
1.153223e+003, 1.355512e-002
1.155151e+003, 1.318866e-002
1.157080e+003, 1.290148e-002
1.159008e+003, 1.254590e-002
1.160937e+003, 1.215372e-002
1.162865e+003, 1.192270e-002
1.164794e+003, 1.159197e-002
1.166722e+003, 1.125640e-002
1.168651e+003, 1.099497e-002
1.170579e+003, 1.067744e-002
1.172508e+003, 1.049372e-002
1.174436e+003, 1.029286e-002
1.176365e+003, 1.001740e-002
1.178293e+003, 9.765380e-003
1.180222e+003, 9.489201e-003
1.182150e+003, 9.245533e-003
1.184078e+003, 9.100376e-003
1.186007e+003, 8.871742e-003
1.187935e+003, 8.632105e-003
1.189864e+003, 8.430197e-003
1.191792e+003, 8.407736e-003
1.193721e+003, 8.482249e-003
1.195649e+003, 8.330628e-003
1.197578e+003, 8.017436e-003
1.199506e+003, 7.825349e-003
1.201435e+003, 7.751943e-003
1.203363e+003, 7.698264e-003
1.205292e+003, 7.665738e-003
1.207220e+003, 7.568380e-003
1.209149e+003, 7.537102e-003
1.211077e+003, 7.538824e-003
1.213005e+003, 7.407493e-003
1.214934e+003, 7.331665e-003
1.216862e+003, 7.285251e-003
1.218791e+003, 7.322264e-003
1.220719e+003, 7.369653e-003
1.222648e+003, 7.326664e-003
1.224576e+003, 7.229255e-003
1.226505e+003, 7.107101e-003
1.228433e+003, 6.967694e-003
1.230362e+003, 6.835207e-003
1.232290e+003, 6.803284e-003
1.234219e+003, 6.669567e-003
1.236147e+003, 6.439095e-003
1.238076e+003, 6.342036e-003
1.240004e+003, 6.256594e-003
1.241932e+003, 6.172039e-003
1.243861e+003, 6.114467e-003
1.245789e+003, 6.061495e-003
1.247718e+003, 6.113775e-003
1.249646e+003, 6.210249e-003
1.251575e+003, 6.117701e-003
1.253503e+003, 6.001928e-003
1.255432e+003, 6.052886e-003
1.257360e+003, 6.137090e-003
1.259289e+003, 6.179079e-003
1.261217e+003, 6.220368e-003
1.263146e+003, 6.218915e-003
1.265074e+003, 6.165415e-003
1.267003e+003, 6.175237e-003
1.268931e+003, 6.171541e-003
1.270859e+003, 6.201914e-003
1.272788e+003, 6.227063e-003
1.274716e+003, 6.149238e-003
1.276645e+003, 6.046402e-003
1.278573e+003, 6.007312e-003
1.280502e+003, 5.989096e-003
1.282430e+003, 6.081535e-003
1.284359e+003, 6.110558e-003
1.286287e+003, 6.099179e-003
1.288216e+003, 6.006148e-003
1.290144e+003, 6.004812e-003
1.292073e+003, 6.068444e-003
1.294001e+003, 6.128951e-003
1.295930e+003, 6.046193e-003
1.297858e+003, 5.981212e-003
1.299786e+003, 5.972689e-003
1.301715e+003, 5.965423e-003
1.303643e+003, 5.789638e-003
1.305572e+003, 5.815989e-003
1.307500e+003, 6.139940e-003
1.309429e+003, 6.316734e-003
1.311357e+003, 6.376962e-003
1.313286e+003, 6.479197e-003
1.315214e+003, 6.480998e-003
1.317143e+003, 6.479333e-003
1.319071e+003, 6.361703e-003
1.321000e+003, 6.368702e-003
1.322928e+003, 6.528364e-003
1.324857e+003, 6.529489e-003
1.326785e+003, 6.440871e-003
1.328714e+003, 6.595610e-003
1.330642e+003, 6.776949e-003
1.332570e+003, 6.809555e-003
1.334499e+003, 6.839857e-003
1.336427e+003, 6.867753e-003
1.338356e+003, 7.090804e-003
1.340284e+003, 7.253436e-003
1.342213e+003, 7.331467e-003
1.344141e+003, 7.404604e-003
1.346070e+003, 7.327333e-003
1.347998e+003, 7.536100e-003
1.349927e+003, 7.795176e-003
1.351855e+003, 7.945273e-003
1.353784e+003, 8.041592e-003
1.355712e+003, 8.198881e-003
1.357641e+003, 8.350780e-003
1.359569e+003, 8.450602e-003
1.361497e+003, 8.620674e-003
1.363426e+003, 8.695550e-003
1.365354e+003, 8.835260e-003
1.367283e+003, 8.987593e-003
1.369211e+003, 9.035919e-003
1.371140e+003, 9.218925e-003
1.373068e+003, 9.445304e-003
1.374997e+003, 9.698984e-003
1.376925e+003, 9.910250e-003
1.378854e+003, 1.033564e-002
1.380782e+003, 1.063079e-002
1.382711e+003, 1.088660e-002
1.384639e+003, 1.135115e-002
1.386568e+003, 1.185640e-002
1.388496e+003, 1.234590e-002
1.390424e+003, 1.287832e-002
1.392353e+003, 1.345949e-002
1.394281e+003, 1.408015e-002
1.396210e+003, 1.463994e-002
1.398138e+003, 1.505158e-002
1.400067e+003, 1.543686e-002
1.401995e+003, 1.574074e-002
1.403924e+003, 1.601759e-002
1.405852e+003, 1.631592e-002
1.407781e+003, 1.636120e-002
1.409709e+003, 1.635095e-002
1.411638e+003, 1.632643e-002
1.413566e+003, 1.622642e-002
1.415495e+003, 1.600190e-002
1.417423e+003, 1.592316e-002
1.419351e+003, 1.582587e-002
1.421280e+003, 1.566519e-002
1.423208e+003, 1.555669e-002
1.425137e+003, 1.558295e-002
1.427065e+003, 1.542979e-002
1.428994e+003, 1.518804e-002
1.430922e+003, 1.518191e-002
1.432851e+003, 1.527374e-002
1.434779e+003, 1.511761e-002
1.436708e+003, 1.486252e-002
1.438636e+003, 1.475878e-002
1.440565e+003, 1.480960e-002
1.442493e+003, 1.484499e-002
1.444422e+003, 1.473258e-002
1.446350e+003, 1.451900e-002
1.448278e+003, 1.450222e-002
1.450207e+003, 1.474299e-002
1.452135e+003, 1.478865e-002
1.454064e+003, 1.461764e-002
1.455992e+003, 1.440694e-002
1.457921e+003, 1.448973e-002
1.459849e+003, 1.451642e-002
1.461778e+003, 1.427884e-002
1.463706e+003, 1.418311e-002
1.465635e+003, 1.428756e-002
1.467563e+003, 1.432829e-002
1.469492e+003, 1.430191e-002
1.471420e+003, 1.438520e-002
1.473349e+003, 1.459071e-002
1.475277e+003, 1.474530e-002
1.477205e+003, 1.477955e-002
1.479134e+003, 1.489525e-002
1.481062e+003, 1.502432e-002
1.482991e+003, 1.507491e-002
1.484919e+003, 1.509573e-002
1.486848e+003, 1.499506e-002
1.488776e+003, 1.485978e-002
1.490705e+003, 1.479948e-002
1.492633e+003, 1.494939e-002
1.494562e+003, 1.506242e-002
1.496490e+003, 1.504724e-002
1.498419e+003, 1.503356e-002
1.500347e+003, 1.503011e-002
1.502276e+003, 1.507454e-002
1.504204e+003, 1.522474e-002
1.506132e+003, 1.529207e-002
1.508061e+003, 1.549725e-002
1.509989e+003, 1.583646e-002
1.511918e+003, 1.614117e-002
1.513846e+003, 1.642460e-002
1.515775e+003, 1.656706e-002
1.517703e+003, 1.663368e-002
1.519632e+003, 1.667795e-002
1.521560e+003, 1.672254e-002
1.523489e+003, 1.672727e-002
1.525417e+003, 1.662503e-002
1.527346e+003, 1.624623e-002
1.529274e+003, 1.578378e-002
1.531203e+003, 1.531383e-002
1.533131e+003, 1.471382e-002
1.535059e+003, 1.429667e-002
1.536988e+003, 1.406238e-002
1.538916e+003, 1.366886e-002
1.540845e+003, 1.329054e-002
1.542773e+003, 1.312073e-002
1.544702e+003, 1.305874e-002
1.546630e+003, 1.312898e-002
1.548559e+003, 1.306823e-002
1.550487e+003, 1.305920e-002
1.552416e+003, 1.299793e-002
1.554344e+003, 1.295769e-002
1.556273e+003, 1.293776e-002
1.558201e+003, 1.268561e-002
1.560130e+003, 1.263737e-002
1.562058e+003, 1.285039e-002
1.563986e+003, 1.307130e-002
1.565915e+003, 1.318015e-002
1.567843e+003, 1.315390e-002
1.569772e+003, 1.324607e-002
1.571700e+003, 1.343866e-002
1.573629e+003, 1.349232e-002
1.575557e+003, 1.358175e-002
1.577486e+003, 1.395206e-002
1.579414e+003, 1.415356e-002
1.581343e+003, 1.413704e-002
1.583271e+003, 1.429851e-002
1.585200e+003, 1.445178e-002
1.587128e+003, 1.453332e-002
1.589057e+003, 1.447457e-002
1.590985e+003, 1.443459e-002
1.592913e+003, 1.445823e-002
1.594842e+003, 1.465750e-002
1.596770e+003, 1.476877e-002
1.598699e+003, 1.464139e-002
1.600627e+003, 1.460402e-002
1.602556e+003, 1.452802e-002
1.604484e+003, 1.436829e-002
1.606413e+003, 1.435801e-002
1.608341e+003, 1.428865e-002
1.610270e+003, 1.417461e-002
1.612198e+003, 1.422140e-002
1.614127e+003, 1.418242e-002
1.616055e+003, 1.397275e-002
1.617984e+003, 1.402535e-002
1.619912e+003, 1.408139e-002
1.621840e+003, 1.408296e-002
1.623769e+003, 1.402770e-002
1.625697e+003, 1.404255e-002
1.627626e+003, 1.408247e-002
1.629554e+003, 1.407746e-002
1.631483e+003, 1.398946e-002
1.633411e+003, 1.390775e-002
1.635340e+003, 1.396224e-002
1.637268e+003, 1.397279e-002
1.639197e+003, 1.384452e-002
1.641125e+003, 1.366805e-002
1.643054e+003, 1.368400e-002
1.644982e+003, 1.370240e-002
1.646911e+003, 1.355411e-002
1.648839e+003, 1.328736e-002
1.650767e+003, 1.291647e-002
1.652696e+003, 1.262920e-002
1.654624e+003, 1.254178e-002
1.656553e+003, 1.251674e-002
1.658481e+003, 1.246572e-002
1.660410e+003, 1.239766e-002
1.662338e+003, 1.215966e-002
1.664267e+003, 1.181405e-002
1.666195e+003, 1.158843e-002
1.668124e+003, 1.154973e-002
1.670052e+003, 1.147065e-002
1.671981e+003, 1.118229e-002
1.673909e+003, 1.096486e-002
1.675838e+003, 1.090708e-002
1.677766e+003, 1.083595e-002
1.679694e+003, 1.071912e-002
1.681623e+003, 1.070931e-002
1.683551e+003, 1.073711e-002
1.685480e+003, 1.055023e-002
1.687408e+003, 1.028691e-002
1.689337e+003, 1.024304e-002
1.691265e+003, 1.016904e-002
1.693194e+003, 9.871590e-003
1.695122e+003, 9.798759e-003
1.697051e+003, 9.859654e-003
1.698979e+003, 9.601108e-003
1.700908e+003, 9.386740e-003
1.702836e+003, 9.494932e-003
1.704765e+003, 9.500364e-003
1.706693e+003, 9.499140e-003
1.708621e+003, 9.465376e-003
1.710550e+003, 9.376813e-003
1.712478e+003, 9.297634e-003
1.714407e+003, 9.146778e-003
1.716335e+003, 8.957895e-003
1.718264e+003, 9.077563e-003
1.720192e+003, 9.142736e-003
1.722121e+003, 9.095514e-003
1.724049e+003, 9.113737e-003
1.725978e+003, 9.019565e-003
1.727906e+003, 8.837578e-003
1.729835e+003, 8.789795e-003
1.731763e+003, 8.711588e-003
1.733692e+003, 8.491369e-003
1.735620e+003, 8.557638e-003
1.737548e+003, 8.732362e-003
1.739477e+003, 8.462874e-003
1.741405e+003, 8.210836e-003
1.743334e+003, 8.087561e-003
1.745262e+003, 7.817817e-003
1.747191e+003, 7.669246e-003
1.749119e+003, 7.763483e-003
1.751048e+003, 7.819757e-003
1.752976e+003, 8.114857e-003
1.754905e+003, 8.419749e-003
1.756833e+003, 8.384683e-003
1.758762e+003, 8.454990e-003
1.760690e+003, 8.747574e-003
1.762619e+003, 8.876200e-003
1.764547e+003, 9.019479e-003
1.766475e+003, 8.966800e-003
1.768404e+003, 8.640408e-003
1.770332e+003, 8.692958e-003
1.772261e+003, 8.885132e-003
1.774189e+003, 8.813868e-003
1.776118e+003, 8.772614e-003
1.778046e+003, 8.886245e-003
1.779975e+003, 9.105798e-003
1.781903e+003, 9.263417e-003
1.783832e+003, 9.035107e-003
1.785760e+003, 8.909116e-003
1.787689e+003, 8.926646e-003
1.789617e+003, 9.021336e-003
1.791546e+003, 9.227220e-003
1.793474e+003, 9.277863e-003
1.795402e+003, 9.300965e-003
1.797331e+003, 9.295466e-003
1.799259e+003, 9.163554e-003
1.801188e+003, 9.101521e-003
1.803116e+003, 9.228234e-003
1.805045e+003, 9.347829e-003
1.806973e+003, 9.333035e-003
1.808902e+003, 9.037241e-003
1.810830e+003, 8.900191e-003
1.812759e+003, 9.039072e-003
1.814687e+003, 9.166813e-003
1.816616e+003, 8.992854e-003
1.818544e+003, 9.037201e-003
1.820473e+003, 9.189386e-003
1.822401e+003, 9.520333e-003
1.824329e+003, 9.329461e-003
1.826258e+003, 9.190735e-003
1.828186e+003, 9.137018e-003
1.830115e+003, 9.072560e-003
1.832043e+003, 9.354967e-003
1.833972e+003, 9.533980e-003
1.835900e+003, 9.295081e-003
1.837829e+003, 9.163464e-003
1.839757e+003, 9.212484e-003
1.841686e+003, 9.432297e-003
1.843614e+003, 9.213692e-003
1.845543e+003, 9.077976e-003
1.847471e+003, 9.099411e-003
1.849400e+003, 9.045756e-003
1.851328e+003, 9.167359e-003
1.853256e+003, 9.321203e-003
1.855185e+003, 9.415666e-003
1.857113e+003, 9.563552e-003
1.859042e+003, 9.297896e-003
1.860970e+003, 9.210926e-003
1.862899e+003, 9.466432e-003
1.864827e+003, 9.339333e-003
1.866756e+003, 9.217040e-003
1.868684e+003, 9.360152e-003
1.870613e+003, 9.376396e-003
1.872541e+003, 9.432887e-003
1.874470e+003, 9.210967e-003
1.876398e+003, 9.127826e-003
1.878327e+003, 9.293308e-003
1.880255e+003, 9.515928e-003
1.882183e+003, 9.599828e-003
1.884112e+003, 9.470459e-003
1.886040e+003, 9.508917e-003
1.887969e+003, 9.860268e-003
1.889897e+003, 9.333454e-003
1.891826e+003, 8.911333e-003
1.893754e+003, 9.236940e-003
1.895683e+003, 9.295576e-003
1.897611e+003, 9.083454e-003
1.899540e+003, 9.113875e-003
1.901468e+003, 8.981210e-003
1.903397e+003, 9.020157e-003
1.905325e+003, 9.221492e-003
1.907254e+003, 9.631213e-003
1.909182e+003, 9.769343e-003
1.911110e+003, 9.645629e-003
1.913039e+003, 9.389146e-003
1.914967e+003, 8.602109e-003
1.916896e+003, 8.558534e-003
1.918824e+003, 9.349577e-003
1.920753e+003, 9.477791e-003
1.922681e+003, 9.138855e-003
1.924610e+003, 8.651156e-003
1.926538e+003, 8.284336e-003
1.928467e+003, 8.269332e-003
1.930395e+003, 8.597351e-003
1.932324e+003, 9.105525e-003
1.934252e+003, 8.920334e-003
1.936181e+003, 8.398823e-003
1.938109e+003, 8.705152e-003
1.940037e+003, 8.789678e-003
1.941966e+003, 8.905705e-003
1.943894e+003, 8.838785e-003
1.945823e+003, 8.266928e-003
1.947751e+003, 8.694602e-003
1.949680e+003, 8.905567e-003
1.951608e+003, 7.787081e-003
1.953537e+003, 7.212333e-003
1.955465e+003, 8.300696e-003
1.957394e+003, 8.736596e-003
1.959322e+003, 7.453257e-003
1.961251e+003, 7.230719e-003
1.963179e+003, 8.041840e-003
1.965108e+003, 8.095752e-003
1.967036e+003, 8.066390e-003
1.968964e+003, 8.281910e-003
1.970893e+003, 8.419932e-003
1.972821e+003, 8.369156e-003
1.974750e+003, 6.854633e-003
1.976678e+003, 7.406305e-003
1.978607e+003, 9.996572e-003
1.980535e+003, 1.005252e-002
1.982464e+003, 9.198112e-003
1.984392e+003, 9.822672e-003
1.986321e+003, 1.091678e-002
1.988249e+003, 1.113082e-002
1.990178e+003, 1.076656e-002
1.992106e+003, 1.021183e-002
1.994035e+003, 9.826030e-003
1.995963e+003, 9.498544e-003
1.997891e+003, 8.986378e-003
1.999820e+003, 9.831484e-003
2.001748e+003, 9.232550e-003
2.003677e+003, 7.462465e-003
2.005605e+003, 7.879340e-003
2.007534e+003, 8.359786e-003
2.009462e+003, 7.531962e-003
2.011391e+003, 8.050773e-003
2.013319e+003, 8.735796e-003
2.015248e+003, 9.328623e-003
2.017176e+003, 9.264124e-003
2.019105e+003, 9.038600e-003
2.021033e+003, 8.378748e-003
2.022962e+003, 8.258852e-003
2.024890e+003, 8.598512e-003
2.026818e+003, 9.299313e-003
2.028747e+003, 9.576135e-003
2.030675e+003, 1.016101e-002
2.032604e+003, 1.001697e-002
2.034532e+003, 9.905258e-003
2.036461e+003, 1.069344e-002
2.038389e+003, 1.037029e-002
2.040318e+003, 1.031718e-002
2.042246e+003, 1.137609e-002
2.044175e+003, 1.170611e-002
2.046103e+003, 1.152449e-002
2.048031e+003, 1.093932e-002
2.049960e+003, 1.113798e-002
2.051888e+003, 1.037101e-002
2.053817e+003, 1.012647e-002
2.055745e+003, 1.017201e-002
2.057674e+003, 1.021376e-002
2.059602e+003, 1.012897e-002
2.061531e+003, 1.088371e-002
2.063459e+003, 1.142784e-002
2.065388e+003, 1.119790e-002
2.067316e+003, 1.089380e-002
2.069245e+003, 1.069093e-002
2.071173e+003, 1.079729e-002
2.073102e+003, 1.106154e-002
2.075030e+003, 1.103808e-002
2.076958e+003, 1.144197e-002
2.078887e+003, 1.155194e-002
2.080815e+003, 1.124601e-002
2.082744e+003, 1.136600e-002
2.084672e+003, 1.166748e-002
2.086601e+003, 1.142241e-002
2.088529e+003, 1.138454e-002
2.090458e+003, 1.104961e-002
2.092386e+003, 1.054519e-002
2.094315e+003, 1.102146e-002
2.096243e+003, 1.138151e-002
2.098172e+003, 1.149384e-002
2.100100e+003, 1.163760e-002
2.102029e+003, 1.193220e-002
2.103957e+003, 1.251331e-002
2.105885e+003, 1.216691e-002
2.107814e+003, 1.134271e-002
2.109742e+003, 1.138763e-002
2.111671e+003, 1.182568e-002
2.113599e+003, 1.196013e-002
2.115528e+003, 1.164777e-002
2.117456e+003, 1.103417e-002
2.119385e+003, 1.080694e-002
2.121313e+003, 1.113971e-002
2.123242e+003, 1.118615e-002
2.125170e+003, 1.067102e-002
2.127099e+003, 1.032485e-002
2.129027e+003, 9.619198e-003
2.130956e+003, 9.355626e-003
2.132884e+003, 1.025124e-002
2.134813e+003, 1.143636e-002
2.136741e+003, 1.181784e-002
2.138669e+003, 1.101506e-002
2.140598e+003, 1.067150e-002
2.142526e+003, 1.151952e-002
2.144455e+003, 1.125138e-002
2.146383e+003, 1.067229e-002
2.148312e+003, 1.077512e-002
2.150240e+003, 1.019160e-002
2.152169e+003, 9.780104e-003
2.154097e+003, 1.137421e-002
2.156026e+003, 1.207798e-002
2.157954e+003, 1.285004e-002
2.159883e+003, 1.488214e-002
2.161811e+003, 1.566658e-002
2.163740e+003, 1.491891e-002
2.165668e+003, 1.473553e-002
2.167596e+003, 1.387629e-002
2.169525e+003, 1.365040e-002
2.171453e+003, 1.414708e-002
2.173382e+003, 1.400746e-002
2.175310e+003, 1.280105e-002
2.177239e+003, 1.227040e-002
2.179167e+003, 1.251120e-002
2.181096e+003, 1.343516e-002
2.183024e+003, 1.486648e-002
2.184953e+003, 1.554701e-002
2.186881e+003, 1.489577e-002
2.188810e+003, 1.384908e-002
2.190738e+003, 1.345730e-002
2.192667e+003, 1.449469e-002
2.194595e+003, 1.528224e-002
2.196523e+003, 1.552207e-002
2.198452e+003, 1.519304e-002
2.200380e+003, 1.428914e-002
2.202309e+003, 1.378501e-002
2.204237e+003, 1.331870e-002
2.206166e+003, 1.416890e-002
2.208094e+003, 1.507489e-002
2.210023e+003, 1.459061e-002
2.211951e+003, 1.413949e-002
2.213880e+003, 1.398843e-002
2.215808e+003, 1.433329e-002
2.217737e+003, 1.466750e-002
2.219665e+003, 1.455675e-002
2.221594e+003, 1.460340e-002
2.223522e+003, 1.502374e-002
2.225450e+003, 1.487082e-002
2.227379e+003, 1.398506e-002
2.229307e+003, 1.438762e-002
2.231236e+003, 1.503118e-002
2.233164e+003, 1.533700e-002
2.235093e+003, 1.540246e-002
2.237021e+003, 1.451708e-002
2.238950e+003, 1.374940e-002
2.240878e+003, 1.389906e-002
2.242807e+003, 1.461127e-002
2.244735e+003, 1.452177e-002
2.246664e+003, 1.424346e-002
2.248592e+003, 1.397381e-002
2.250521e+003, 1.421245e-002
2.252449e+003, 1.446176e-002
2.254377e+003, 1.486152e-002
2.256306e+003, 1.544118e-002
2.258234e+003, 1.532258e-002
2.260163e+003, 1.478189e-002
2.262091e+003, 1.454740e-002
2.264020e+003, 1.488244e-002
2.265948e+003, 1.499284e-002
2.267877e+003, 1.436125e-002
2.269805e+003, 1.450885e-002
2.271734e+003, 1.512414e-002
2.273662e+003, 1.537086e-002
2.275591e+003, 1.516245e-002
2.277519e+003, 1.511277e-002
2.279448e+003, 1.530158e-002
2.281376e+003, 1.515709e-002
2.283304e+003, 1.513011e-002
2.285233e+003, 1.578761e-002
2.287161e+003, 1.589379e-002
2.289090e+003, 1.524985e-002
2.291018e+003, 1.517567e-002
2.292947e+003, 1.514988e-002
2.294875e+003, 1.482854e-002
2.296804e+003, 1.498893e-002
2.298732e+003, 1.528354e-002
2.300661e+003, 1.504575e-002
2.302589e+003, 1.465686e-002
2.304518e+003, 1.466921e-002
2.306446e+003, 1.480852e-002
2.308375e+003, 1.475461e-002
2.310303e+003, 1.439575e-002
2.312231e+003, 1.470408e-002
2.314160e+003, 1.494972e-002
2.316088e+003, 1.486513e-002
2.318017e+003, 1.490542e-002
2.319945e+003, 1.547539e-002
2.321874e+003, 1.601456e-002
2.323802e+003, 1.629654e-002
2.325731e+003, 1.581711e-002
2.327659e+003, 1.518536e-002
2.329588e+003, 1.495350e-002
2.331516e+003, 1.486427e-002
2.333445e+003, 1.507014e-002
2.335373e+003, 1.563677e-002
2.337302e+003, 1.549193e-002
2.339230e+003, 1.490354e-002
2.341158e+003, 1.492944e-002
2.343087e+003, 1.494899e-002
2.345015e+003, 1.463759e-002
2.346944e+003, 1.440809e-002
2.348872e+003, 1.432758e-002
2.350801e+003, 1.461357e-002
2.352729e+003, 1.493401e-002
2.354658e+003, 1.509035e-002
2.356586e+003, 1.514423e-002
2.358515e+003, 1.519430e-002
2.360443e+003, 1.527714e-002
2.362372e+003, 1.549232e-002
2.364300e+003, 1.574080e-002
2.366229e+003, 1.553910e-002
2.368157e+003, 1.524806e-002
2.370085e+003, 1.477265e-002
2.372014e+003, 1.433102e-002
2.373942e+003, 1.430590e-002
2.375871e+003, 1.421368e-002
2.377799e+003, 1.429008e-002
2.379728e+003, 1.390496e-002
2.381656e+003, 1.370845e-002
2.383585e+003, 1.366577e-002
2.385513e+003, 1.361612e-002
2.387442e+003, 1.375538e-002
2.389370e+003, 1.372606e-002
2.391299e+003, 1.391716e-002
2.393227e+003, 1.408688e-002
2.395156e+003, 1.387607e-002
2.397084e+003, 1.393570e-002
2.399012e+003, 1.425332e-002
2.400941e+003, 1.403004e-002
2.402869e+003, 1.390268e-002
2.404798e+003, 1.405605e-002
2.406726e+003, 1.430756e-002
2.408655e+003, 1.478039e-002
2.410583e+003, 1.448670e-002
2.412512e+003, 1.430735e-002
2.414440e+003, 1.475593e-002
2.416369e+003, 1.481140e-002
2.418297e+003, 1.472473e-002
2.420226e+003, 1.478673e-002
2.422154e+003, 1.430466e-002
2.424083e+003, 1.430595e-002
2.426011e+003, 1.485306e-002
2.427939e+003, 1.497061e-002
2.429868e+003, 1.489496e-002
2.431796e+003, 1.500894e-002
2.433725e+003, 1.503327e-002
2.435653e+003, 1.487428e-002
2.437582e+003, 1.505480e-002
2.439510e+003, 1.564563e-002
2.441439e+003, 1.548019e-002
2.443367e+003, 1.515204e-002
2.445296e+003, 1.548960e-002
2.447224e+003, 1.539223e-002
2.449153e+003, 1.514635e-002
2.451081e+003, 1.570970e-002
2.453010e+003, 1.590891e-002
2.454938e+003, 1.574986e-002
2.456866e+003, 1.560923e-002
2.458795e+003, 1.568597e-002
2.460723e+003, 1.563581e-002
2.462652e+003, 1.515742e-002
2.464580e+003, 1.513914e-002
2.466509e+003, 1.570234e-002
2.468437e+003, 1.523567e-002
2.470366e+003, 1.477443e-002
2.472294e+003, 1.504305e-002
2.474223e+003, 1.530555e-002
2.476151e+003, 1.559065e-002
2.478080e+003, 1.574809e-002
2.480008e+003, 1.537018e-002
2.481937e+003, 1.543310e-002
2.483865e+003, 1.531378e-002
2.485793e+003, 1.535374e-002
2.487722e+003, 1.595140e-002
2.489650e+003, 1.645255e-002
2.491579e+003, 1.587518e-002
2.493507e+003, 1.572273e-002
2.495436e+003, 1.599558e-002
2.497364e+003, 1.577568e-002
2.499293e+003, 1.560529e-002
2.501221e+003, 1.566458e-002
2.503150e+003, 1.570418e-002
2.505078e+003, 1.593137e-002
2.507007e+003, 1.619334e-002
2.508935e+003, 1.612033e-002
2.510864e+003, 1.567146e-002
2.512792e+003, 1.526911e-002
2.514720e+003, 1.549243e-002
2.516649e+003, 1.595301e-002
2.518577e+003, 1.560905e-002
2.520506e+003, 1.512570e-002
2.522434e+003, 1.503271e-002
2.524363e+003, 1.545334e-002
2.526291e+003, 1.590788e-002
2.528220e+003, 1.624092e-002
2.530148e+003, 1.623544e-002
2.532077e+003, 1.602296e-002
2.534005e+003, 1.624613e-002
2.535934e+003, 1.637192e-002
2.537862e+003, 1.637523e-002
2.539791e+003, 1.661063e-002
2.541719e+003, 1.622046e-002
2.543647e+003, 1.606172e-002
2.545576e+003, 1.654683e-002
2.547504e+003, 1.647086e-002
2.549433e+003, 1.610940e-002
2.551361e+003, 1.657517e-002
2.553290e+003, 1.659380e-002
2.555218e+003, 1.650149e-002
2.557147e+003, 1.662385e-002
2.559075e+003, 1.689463e-002
2.561004e+003, 1.655745e-002
2.562932e+003, 1.638496e-002
2.564861e+003, 1.683981e-002
2.566789e+003, 1.693329e-002
2.568718e+003, 1.672482e-002
2.570646e+003, 1.708293e-002
2.572574e+003, 1.719771e-002
2.574503e+003, 1.680492e-002
2.576431e+003, 1.639252e-002
2.578360e+003, 1.655009e-002
2.580288e+003, 1.698798e-002
2.582217e+003, 1.715530e-002
2.584145e+003, 1.712039e-002
2.586074e+003, 1.699805e-002
2.588002e+003, 1.680520e-002
2.589931e+003, 1.672714e-002
2.591859e+003, 1.680192e-002
2.593788e+003, 1.704300e-002
2.595716e+003, 1.687633e-002
2.597645e+003, 1.652286e-002
2.599573e+003, 1.691863e-002
2.601501e+003, 1.722934e-002
2.603430e+003, 1.700547e-002
2.605358e+003, 1.687374e-002
2.607287e+003, 1.716450e-002
2.609215e+003, 1.739454e-002
2.611144e+003, 1.754280e-002
2.613072e+003, 1.784500e-002
2.615001e+003, 1.766859e-002
2.616929e+003, 1.761812e-002
2.618858e+003, 1.776040e-002
2.620786e+003, 1.747345e-002
2.622715e+003, 1.740336e-002
2.624643e+003, 1.760240e-002
2.626572e+003, 1.746500e-002
2.628500e+003, 1.751444e-002
2.630428e+003, 1.750862e-002
2.632357e+003, 1.735762e-002
2.634285e+003, 1.693502e-002
2.636214e+003, 1.674736e-002
2.638142e+003, 1.724419e-002
2.640071e+003, 1.751000e-002
2.641999e+003, 1.729686e-002
2.643928e+003, 1.736356e-002
2.645856e+003, 1.756760e-002
2.647785e+003, 1.753649e-002
2.649713e+003, 1.720815e-002
2.651642e+003, 1.721247e-002
2.653570e+003, 1.728871e-002
2.655499e+003, 1.746983e-002
2.657427e+003, 1.726799e-002
2.659355e+003, 1.705684e-002
2.661284e+003, 1.674736e-002
2.663212e+003, 1.649389e-002
2.665141e+003, 1.641716e-002
2.667069e+003, 1.648954e-002
2.668998e+003, 1.669380e-002
2.670926e+003, 1.665316e-002
2.672855e+003, 1.669609e-002
2.674783e+003, 1.688941e-002
2.676712e+003, 1.687567e-002
2.678640e+003, 1.696068e-002
2.680569e+003, 1.700273e-002
2.682497e+003, 1.667166e-002
2.684426e+003, 1.649003e-002
2.686354e+003, 1.676633e-002
2.688282e+003, 1.693922e-002
2.690211e+003, 1.686492e-002
2.692139e+003, 1.685402e-002
2.694068e+003, 1.682181e-002
2.695996e+003, 1.695402e-002
2.697925e+003, 1.713830e-002
2.699853e+003, 1.695604e-002
2.701782e+003, 1.675028e-002
2.703710e+003, 1.710024e-002
2.705639e+003, 1.730248e-002
2.707567e+003, 1.717024e-002
2.709496e+003, 1.712399e-002
2.711424e+003, 1.704666e-002
2.713353e+003, 1.703225e-002
2.715281e+003, 1.724427e-002
2.717209e+003, 1.743221e-002
2.719138e+003, 1.726099e-002
2.721066e+003, 1.705835e-002
2.722995e+003, 1.731688e-002
2.724923e+003, 1.777028e-002
2.726852e+003, 1.781716e-002
2.728780e+003, 1.788355e-002
2.730709e+003, 1.777761e-002
2.732637e+003, 1.769605e-002
2.734566e+003, 1.768968e-002
2.736494e+003, 1.787593e-002
2.738423e+003, 1.784358e-002
2.740351e+003, 1.795385e-002
2.742280e+003, 1.808198e-002
2.744208e+003, 1.769789e-002
2.746136e+003, 1.751880e-002
2.748065e+003, 1.766140e-002
2.749993e+003, 1.784803e-002
2.751922e+003, 1.822638e-002
2.753850e+003, 1.824508e-002
2.755779e+003, 1.807977e-002
2.757707e+003, 1.792666e-002
2.759636e+003, 1.776286e-002
2.761564e+003, 1.789285e-002
2.763493e+003, 1.821488e-002
2.765421e+003, 1.847396e-002
2.767350e+003, 1.849057e-002
2.769278e+003, 1.850858e-002
2.771207e+003, 1.850991e-002
2.773135e+003, 1.865259e-002
2.775063e+003, 1.897629e-002
2.776992e+003, 1.886002e-002
2.778920e+003, 1.852609e-002
2.780849e+003, 1.857263e-002
2.782777e+003, 1.876988e-002
2.784706e+003, 1.873379e-002
2.786634e+003, 1.860770e-002
2.788563e+003, 1.838650e-002
2.790491e+003, 1.853516e-002
2.792420e+003, 1.888952e-002
2.794348e+003, 1.910694e-002
2.796277e+003, 1.897189e-002
2.798205e+003, 1.879278e-002
2.800134e+003, 1.894604e-002
2.802062e+003, 1.912969e-002
2.803990e+003, 1.914965e-002
2.805919e+003, 1.915933e-002
2.807847e+003, 1.908167e-002
2.809776e+003, 1.909185e-002
2.811704e+003, 1.927114e-002
2.813633e+003, 1.923501e-002
2.815561e+003, 1.917778e-002
2.817490e+003, 1.924649e-002
2.819418e+003, 1.902082e-002
2.821347e+003, 1.886209e-002
2.823275e+003, 1.893607e-002
2.825204e+003, 1.896706e-002
2.827132e+003, 1.886177e-002
2.829061e+003, 1.876964e-002
2.830989e+003, 1.883540e-002
2.832917e+003, 1.898329e-002
2.834846e+003, 1.898410e-002
2.836774e+003, 1.882540e-002
2.838703e+003, 1.859106e-002
2.840631e+003, 1.852629e-002
2.842560e+003, 1.831038e-002
2.844488e+003, 1.782577e-002
2.846417e+003, 1.693751e-002
2.848345e+003, 1.613120e-002
2.850274e+003, 1.576548e-002
2.852202e+003, 1.551276e-002
2.854131e+003, 1.529862e-002
2.856059e+003, 1.602839e-002
2.857988e+003, 1.653459e-002
2.859916e+003, 1.699468e-002
2.861844e+003, 1.763932e-002
2.863773e+003, 1.795846e-002
2.865701e+003, 1.812460e-002
2.867630e+003, 1.822868e-002
2.869558e+003, 1.849500e-002
2.871487e+003, 1.887753e-002
2.873415e+003, 1.908567e-002
2.875344e+003, 1.903405e-002
2.877272e+003, 1.878355e-002
2.879201e+003, 1.859307e-002
2.881129e+003, 1.886513e-002
2.883058e+003, 1.914157e-002
2.884986e+003, 1.921941e-002
2.886915e+003, 1.916076e-002
2.888843e+003, 1.910407e-002
2.890771e+003, 1.891174e-002
2.892700e+003, 1.862159e-002
2.894628e+003, 1.829529e-002
2.896557e+003, 1.821809e-002
2.898485e+003, 1.859508e-002
2.900414e+003, 1.868012e-002
2.902342e+003, 1.813067e-002
2.904271e+003, 1.770855e-002
2.906199e+003, 1.767989e-002
2.908128e+003, 1.734907e-002
2.910056e+003, 1.713908e-002
2.911985e+003, 1.668938e-002
2.913913e+003, 1.613088e-002
2.915842e+003, 1.535839e-002
2.917770e+003, 1.468803e-002
2.919698e+003, 1.479454e-002
2.921627e+003, 1.436972e-002
2.923555e+003, 1.395623e-002
2.925484e+003, 1.431722e-002
2.927412e+003, 1.484413e-002
2.929341e+003, 1.546633e-002
2.931269e+003, 1.592588e-002
2.933198e+003, 1.620387e-002
2.935126e+003, 1.651390e-002
2.937055e+003, 1.713533e-002
2.938983e+003, 1.796821e-002
2.940912e+003, 1.860058e-002
2.942840e+003, 1.886044e-002
2.944769e+003, 1.932502e-002
2.946697e+003, 1.933738e-002
2.948625e+003, 1.927187e-002
2.950554e+003, 1.938224e-002
2.952482e+003, 1.933572e-002
2.954411e+003, 1.960199e-002
2.956339e+003, 1.969525e-002
2.958268e+003, 1.985890e-002
2.960196e+003, 2.054469e-002
2.962125e+003, 2.059209e-002
2.964053e+003, 2.029716e-002
2.965982e+003, 2.020434e-002
2.967910e+003, 2.050521e-002
2.969839e+003, 2.064531e-002
2.971767e+003, 2.056017e-002
2.973696e+003, 2.122641e-002
2.975624e+003, 2.164656e-002
2.977552e+003, 2.093876e-002
2.979481e+003, 2.057181e-002
2.981409e+003, 2.108335e-002
2.983338e+003, 2.158458e-002
2.985266e+003, 2.159380e-002
2.987195e+003, 2.104248e-002
2.989123e+003, 2.080705e-002
2.991052e+003, 2.086418e-002
2.992980e+003, 2.078643e-002
2.994909e+003, 2.059092e-002
2.996837e+003, 2.040465e-002
2.998766e+003, 2.082510e-002
3.000694e+003, 2.118082e-002
3.002623e+003, 2.124691e-002
3.004551e+003, 2.108167e-002
3.006479e+003, 2.113469e-002
3.008408e+003, 2.105261e-002
3.010336e+003, 2.137814e-002
3.012265e+003, 2.118195e-002
3.014193e+003, 2.017175e-002
3.016122e+003, 1.908468e-002
3.018050e+003, 1.978248e-002
3.019979e+003, 2.150501e-002
3.021907e+003, 2.165208e-002
3.023836e+003, 2.143816e-002
3.025764e+003, 2.126261e-002
3.027693e+003, 2.123793e-002
3.029621e+003, 2.192750e-002
3.031550e+003, 2.194769e-002
3.033478e+003, 2.165988e-002
3.035406e+003, 2.168234e-002
3.037335e+003, 2.173398e-002
3.039263e+003, 2.207491e-002
3.041192e+003, 2.254538e-002
3.043120e+003, 2.281417e-002
3.045049e+003, 2.244045e-002
3.046977e+003, 2.171071e-002
3.048906e+003, 2.139638e-002
3.050834e+003, 2.186006e-002
3.052763e+003, 2.208851e-002
3.054691e+003, 2.197527e-002
3.056620e+003, 2.190955e-002
3.058548e+003, 2.248747e-002
3.060477e+003, 2.260902e-002
3.062405e+003, 2.222957e-002
3.064333e+003, 2.213848e-002
3.066262e+003, 2.203888e-002
3.068190e+003, 2.243957e-002
3.070119e+003, 2.316148e-002
3.072047e+003, 2.316909e-002
3.073976e+003, 2.299565e-002
3.075904e+003, 2.265146e-002
3.077833e+003, 2.274979e-002
3.079761e+003, 2.315074e-002
3.081690e+003, 2.304629e-002
3.083618e+003, 2.297371e-002
3.085547e+003, 2.279173e-002
3.087475e+003, 2.321685e-002
3.089404e+003, 2.307252e-002
3.091332e+003, 2.262923e-002
3.093260e+003, 2.293211e-002
3.095189e+003, 2.303279e-002
3.097117e+003, 2.326033e-002
3.099046e+003, 2.350614e-002
3.100974e+003, 2.343315e-002
3.102903e+003, 2.316393e-002
3.104831e+003, 2.263640e-002
3.106760e+003, 2.302779e-002
3.108688e+003, 2.385770e-002
3.110617e+003, 2.391939e-002
3.112545e+003, 2.361189e-002
3.114474e+003, 2.394002e-002
3.116402e+003, 2.406541e-002
3.118331e+003, 2.367123e-002
3.120259e+003, 2.342697e-002
3.122188e+003, 2.363545e-002
3.124116e+003, 2.386158e-002
3.126044e+003, 2.364009e-002
3.127973e+003, 2.384315e-002
3.129901e+003, 2.451818e-002
3.131830e+003, 2.465237e-002
3.133758e+003, 2.456108e-002
3.135687e+003, 2.458572e-002
3.137615e+003, 2.420256e-002
3.139544e+003, 2.439746e-002
3.141472e+003, 2.521306e-002
3.143401e+003, 2.521051e-002
3.145329e+003, 2.469305e-002
3.147258e+003, 2.460317e-002
3.149186e+003, 2.477114e-002
3.151115e+003, 2.480512e-002
3.153043e+003, 2.476254e-002
3.154971e+003, 2.504925e-002
3.156900e+003, 2.516726e-002
3.158828e+003, 2.483078e-002
3.160757e+003, 2.472960e-002
3.162685e+003, 2.537275e-002
3.164614e+003, 2.556810e-002
3.166542e+003, 2.518012e-002
3.168471e+003, 2.456956e-002
3.170399e+003, 2.462451e-002
3.172328e+003, 2.505582e-002
3.174256e+003, 2.542540e-002
3.176185e+003, 2.532261e-002
3.178113e+003, 2.508242e-002
3.180042e+003, 2.469082e-002
3.181970e+003, 2.468776e-002
3.183898e+003, 2.492065e-002
3.185827e+003, 2.474208e-002
3.187755e+003, 2.527652e-002
3.189684e+003, 2.580877e-002
3.191612e+003, 2.545143e-002
3.193541e+003, 2.520418e-002
3.195469e+003, 2.559122e-002
3.197398e+003, 2.580200e-002
3.199326e+003, 2.550171e-002
3.201255e+003, 2.565711e-002
3.203183e+003, 2.560402e-002
3.205112e+003, 2.531432e-002
3.207040e+003, 2.481142e-002
3.208969e+003, 2.483500e-002
3.210897e+003, 2.550921e-002
3.212825e+003, 2.599797e-002
3.214754e+003, 2.583973e-002
3.216682e+003, 2.521947e-002
3.218611e+003, 2.519930e-002
3.220539e+003, 2.608235e-002
3.222468e+003, 2.678107e-002
3.224396e+003, 2.653522e-002
3.226325e+003, 2.587666e-002
3.228253e+003, 2.545352e-002
3.230182e+003, 2.557674e-002
3.232110e+003, 2.530422e-002
3.234039e+003, 2.524524e-002
3.235967e+003, 2.571089e-002
3.237896e+003, 2.577779e-002
3.239824e+003, 2.622891e-002
3.241752e+003, 2.637387e-002
3.243681e+003, 2.590299e-002
3.245609e+003, 2.552576e-002
3.247538e+003, 2.516636e-002
3.249466e+003, 2.514973e-002
3.251395e+003, 2.556205e-002
3.253323e+003, 2.618665e-002
3.255252e+003, 2.650040e-002
3.257180e+003, 2.640142e-002
3.259109e+003, 2.616622e-002
3.261037e+003, 2.661444e-002
3.262966e+003, 2.694177e-002
3.264894e+003, 2.669078e-002
3.266823e+003, 2.679634e-002
3.268751e+003, 2.597634e-002
3.270679e+003, 2.558455e-002
3.272608e+003, 2.607877e-002
3.274536e+003, 2.650109e-002
3.276465e+003, 2.612521e-002
3.278393e+003, 2.564656e-002
3.280322e+003, 2.599645e-002
3.282250e+003, 2.621365e-002
3.284179e+003, 2.638191e-002
3.286107e+003, 2.606481e-002
3.288036e+003, 2.592799e-002
3.289964e+003, 2.622030e-002
3.291893e+003, 2.649176e-002
3.293821e+003, 2.653341e-002
3.295750e+003, 2.628910e-002
3.297678e+003, 2.627009e-002
3.299606e+003, 2.649036e-002
3.301535e+003, 2.583216e-002
3.303463e+003, 2.540955e-002
3.305392e+003, 2.524246e-002
3.307320e+003, 2.522128e-002
3.309249e+003, 2.565518e-002
3.311177e+003, 2.611070e-002
3.313106e+003, 2.629550e-002
3.315034e+003, 2.610789e-002
3.316963e+003, 2.548094e-002
3.318891e+003, 2.514971e-002
3.320820e+003, 2.541862e-002
3.322748e+003, 2.572285e-002
3.324677e+003, 2.606504e-002
3.326605e+003, 2.637469e-002
3.328533e+003, 2.643839e-002
3.330462e+003, 2.658959e-002
3.332390e+003, 2.618938e-002
3.334319e+003, 2.561877e-002
3.336247e+003, 2.552704e-002
3.338176e+003, 2.555519e-002
3.340104e+003, 2.558471e-002
3.342033e+003, 2.545060e-002
3.343961e+003, 2.517496e-002
3.345890e+003, 2.553221e-002
3.347818e+003, 2.563126e-002
3.349747e+003, 2.585582e-002
3.351675e+003, 2.590722e-002
3.353604e+003, 2.626580e-002
3.355532e+003, 2.649477e-002
3.357460e+003, 2.663020e-002
3.359389e+003, 2.729055e-002
3.361317e+003, 2.699374e-002
3.363246e+003, 2.565434e-002
3.365174e+003, 2.501386e-002
3.367103e+003, 2.551652e-002
3.369031e+003, 2.566064e-002
3.370960e+003, 2.533572e-002
3.372888e+003, 2.465142e-002
3.374817e+003, 2.496212e-002
3.376745e+003, 2.589179e-002
3.378674e+003, 2.606930e-002
3.380602e+003, 2.603595e-002
3.382531e+003, 2.621783e-002
3.384459e+003, 2.590106e-002
3.386387e+003, 2.543021e-002
3.388316e+003, 2.546365e-002
3.390244e+003, 2.594625e-002
3.392173e+003, 2.558733e-002
3.394101e+003, 2.516630e-002
3.396030e+003, 2.512086e-002
3.397958e+003, 2.565365e-002
3.399887e+003, 2.571613e-002
3.401815e+003, 2.535846e-002
3.403744e+003, 2.504932e-002
3.405672e+003, 2.508360e-002
3.407601e+003, 2.555562e-002
3.409529e+003, 2.595438e-002
3.411458e+003, 2.546472e-002
3.413386e+003, 2.491738e-002
3.415314e+003, 2.498198e-002
3.417243e+003, 2.501175e-002
3.419171e+003, 2.471758e-002
3.421100e+003, 2.466375e-002
3.423028e+003, 2.463787e-002
3.424957e+003, 2.523972e-002
3.426885e+003, 2.538155e-002
3.428814e+003, 2.506420e-002
3.430742e+003, 2.454962e-002
3.432671e+003, 2.504972e-002
3.434599e+003, 2.619733e-002
3.436528e+003, 2.556220e-002
3.438456e+003, 2.459451e-002
3.440385e+003, 2.449764e-002
3.442313e+003, 2.465097e-002
3.444241e+003, 2.476282e-002
3.446170e+003, 2.456263e-002
3.448098e+003, 2.475628e-002
3.450027e+003, 2.469296e-002
3.451955e+003, 2.415292e-002
3.453884e+003, 2.387674e-002
3.455812e+003, 2.384656e-002
3.457741e+003, 2.349149e-002
3.459669e+003, 2.382298e-002
3.461598e+003, 2.391748e-002
3.463526e+003, 2.421114e-002
3.465455e+003, 2.473837e-002
3.467383e+003, 2.457310e-002
3.469312e+003, 2.432599e-002
3.471240e+003, 2.448961e-002
3.473168e+003, 2.465177e-002
3.475097e+003, 2.455345e-002
3.477025e+003, 2.421828e-002
3.478954e+003, 2.369100e-002
3.480882e+003, 2.347088e-002
3.482811e+003, 2.409360e-002
3.484739e+003, 2.397660e-002
3.486668e+003, 2.369999e-002
3.488596e+003, 2.351632e-002
3.490525e+003, 2.358218e-002
3.492453e+003, 2.395691e-002
3.494382e+003, 2.408200e-002
3.496310e+003, 2.372082e-002
3.498239e+003, 2.344606e-002
3.500167e+003, 2.334451e-002
3.502095e+003, 2.330906e-002
3.504024e+003, 2.326873e-002
3.505952e+003, 2.321878e-002
3.507881e+003, 2.323816e-002
3.509809e+003, 2.281504e-002
3.511738e+003, 2.247328e-002
3.513666e+003, 2.225312e-002
3.515595e+003, 2.247645e-002
3.517523e+003, 2.286010e-002
3.519452e+003, 2.255934e-002
3.521380e+003, 2.258567e-002
3.523309e+003, 2.315594e-002
3.525237e+003, 2.280269e-002
3.527166e+003, 2.260842e-002
3.529094e+003, 2.244753e-002
3.531022e+003, 2.251358e-002
3.532951e+003, 2.177423e-002
3.534879e+003, 2.087757e-002
3.536808e+003, 2.102605e-002
3.538736e+003, 2.146634e-002
3.540665e+003, 2.184176e-002
3.542593e+003, 2.206119e-002
3.544522e+003, 2.190093e-002
3.546450e+003, 2.113400e-002
3.548379e+003, 2.067701e-002
3.550307e+003, 2.119969e-002
3.552236e+003, 2.106312e-002
3.554164e+003, 2.043146e-002
3.556093e+003, 1.990451e-002
3.558021e+003, 1.968985e-002
3.559949e+003, 1.952731e-002
3.561878e+003, 2.012424e-002
3.563806e+003, 2.043532e-002
3.565735e+003, 2.008427e-002
3.567663e+003, 1.973663e-002
3.569592e+003, 1.920234e-002
3.571520e+003, 1.885811e-002
3.573449e+003, 1.878859e-002
3.575377e+003, 1.896278e-002
3.577306e+003, 1.970618e-002
3.579234e+003, 1.919130e-002
3.581163e+003, 1.855150e-002
3.583091e+003, 1.824529e-002
3.585020e+003, 1.757056e-002
3.586948e+003, 1.708991e-002
3.588876e+003, 1.755386e-002
3.590805e+003, 1.731990e-002
3.592733e+003, 1.658945e-002
3.594662e+003, 1.608839e-002
3.596590e+003, 1.617541e-002
3.598519e+003, 1.553606e-002
3.600447e+003, 1.574297e-002
3.602376e+003, 1.649054e-002
3.604304e+003, 1.671132e-002
3.606233e+003, 1.696702e-002
3.608161e+003, 1.637700e-002
3.610090e+003, 1.505285e-002
3.612018e+003, 1.454694e-002
3.613947e+003, 1.488179e-002
3.615875e+003, 1.486723e-002
3.617803e+003, 1.469619e-002
3.619732e+003, 1.425809e-002
3.621660e+003, 1.432648e-002
3.623589e+003, 1.458942e-002
3.625517e+003, 1.508091e-002
3.627446e+003, 1.469642e-002
3.629374e+003, 1.373553e-002
3.631303e+003, 1.352352e-002
3.633231e+003, 1.404196e-002
3.635160e+003, 1.450569e-002
3.637088e+003, 1.401079e-002
3.639017e+003, 1.370087e-002
3.640945e+003, 1.369912e-002
3.642874e+003, 1.326508e-002
3.644802e+003, 1.325883e-002
3.646730e+003, 1.314291e-002
3.648659e+003, 1.283587e-002
3.650587e+003, 1.297021e-002
3.652516e+003, 1.361546e-002
3.654444e+003, 1.427936e-002
3.656373e+003, 1.350410e-002
3.658301e+003, 1.259877e-002
3.660230e+003, 1.261691e-002
3.662158e+003, 1.275064e-002
3.664087e+003, 1.286652e-002
3.666015e+003, 1.355785e-002
3.667944e+003, 1.413750e-002
3.669872e+003, 1.503830e-002
3.671801e+003, 1.393291e-002
3.673729e+003, 1.267338e-002
3.675657e+003, 1.320578e-002
3.677586e+003, 1.332194e-002
3.679514e+003, 1.239142e-002
3.681443e+003, 1.301232e-002
3.683371e+003, 1.344886e-002
3.685300e+003, 1.360368e-002
3.687228e+003, 1.309313e-002
3.689157e+003, 1.258183e-002
3.691085e+003, 1.215347e-002
3.693014e+003, 1.270118e-002
3.694942e+003, 1.344234e-002
3.696871e+003, 1.353064e-002
3.698799e+003, 1.377526e-002
3.700728e+003, 1.358717e-002
3.702656e+003, 1.322522e-002
3.704584e+003, 1.398921e-002
3.706513e+003, 1.395846e-002
3.708441e+003, 1.358947e-002
3.710370e+003, 1.372945e-002
3.712298e+003, 1.375631e-002
3.714227e+003, 1.386338e-002
3.716155e+003, 1.370130e-002
3.718084e+003, 1.402962e-002
3.720012e+003, 1.462473e-002
3.721941e+003, 1.407627e-002
3.723869e+003, 1.357781e-002
3.725798e+003, 1.433894e-002
3.727726e+003, 1.456931e-002
3.729655e+003, 1.387434e-002
3.731583e+003, 1.321360e-002
3.733511e+003, 1.307614e-002
3.735440e+003, 1.319394e-002
3.737368e+003, 1.309489e-002
3.739297e+003, 1.371103e-002
3.741225e+003, 1.403954e-002
3.743154e+003, 1.373981e-002
3.745082e+003, 1.381985e-002
3.747011e+003, 1.364817e-002
3.748939e+003, 1.297340e-002
3.750868e+003, 1.262295e-002
3.752796e+003, 1.297497e-002
3.754725e+003, 1.349110e-002
3.756653e+003, 1.459169e-002
3.758582e+003, 1.470386e-002
3.760510e+003, 1.427204e-002
3.762438e+003, 1.455052e-002
3.764367e+003, 1.463713e-002
3.766295e+003, 1.430092e-002
3.768224e+003, 1.399012e-002
3.770152e+003, 1.324363e-002
3.772081e+003, 1.277344e-002
3.774009e+003, 1.400403e-002
3.775938e+003, 1.441692e-002
3.777866e+003, 1.354156e-002
3.779795e+003, 1.301314e-002
3.781723e+003, 1.333178e-002
3.783652e+003, 1.363638e-002
3.785580e+003, 1.331781e-002
3.787509e+003, 1.376594e-002
3.789437e+003, 1.424339e-002
3.791365e+003, 1.368343e-002
3.793294e+003, 1.374147e-002
3.795222e+003, 1.394412e-002
3.797151e+003, 1.420994e-002
3.799079e+003, 1.433791e-002
3.801008e+003, 1.356432e-002
3.802936e+003, 1.330201e-002
3.804865e+003, 1.356792e-002
3.806793e+003, 1.367196e-002
3.808722e+003, 1.396407e-002
3.810650e+003, 1.432032e-002
3.812579e+003, 1.428781e-002
3.814507e+003, 1.412090e-002
3.816436e+003, 1.413008e-002
3.818364e+003, 1.360917e-002
3.820292e+003, 1.369530e-002
3.822221e+003, 1.373809e-002
3.824149e+003, 1.355991e-002
3.826078e+003, 1.357390e-002
3.828006e+003, 1.303889e-002
3.829935e+003, 1.297997e-002
3.831863e+003, 1.267687e-002
3.833792e+003, 1.272959e-002
3.835720e+003, 1.362528e-002
3.837649e+003, 1.471168e-002
3.839577e+003, 1.499325e-002
3.841506e+003, 1.450689e-002
3.843434e+003, 1.400619e-002
3.845363e+003, 1.346506e-002
3.847291e+003, 1.299036e-002
3.849219e+003, 1.331207e-002
3.851148e+003, 1.347142e-002
3.853076e+003, 1.320509e-002
3.855005e+003, 1.335564e-002
3.856933e+003, 1.343613e-002
3.858862e+003, 1.403056e-002
3.860790e+003, 1.402068e-002
3.862719e+003, 1.378338e-002
3.864647e+003, 1.332941e-002
3.866576e+003, 1.331928e-002
3.868504e+003, 1.371033e-002
3.870433e+003, 1.418049e-002
3.872361e+003, 1.517745e-002
3.874290e+003, 1.537932e-002
3.876218e+003, 1.421671e-002
3.878146e+003, 1.304650e-002
3.880075e+003, 1.279271e-002
3.882003e+003, 1.335725e-002
3.883932e+003, 1.401583e-002
3.885860e+003, 1.430402e-002
3.887789e+003, 1.364556e-002
3.889717e+003, 1.257337e-002
3.891646e+003, 1.275824e-002
3.893574e+003, 1.275013e-002
3.895503e+003, 1.248089e-002
3.897431e+003, 1.341606e-002
3.899360e+003, 1.389159e-002
3.901288e+003, 1.380593e-002
3.903217e+003, 1.401956e-002
3.905145e+003, 1.412891e-002
3.907073e+003, 1.432074e-002
3.909002e+003, 1.371584e-002
3.910930e+003, 1.367871e-002
3.912859e+003, 1.368402e-002
3.914787e+003, 1.371143e-002
3.916716e+003, 1.453173e-002
3.918644e+003, 1.438240e-002
3.920573e+003, 1.429214e-002
3.922501e+003, 1.356799e-002
3.924430e+003, 1.291026e-002
3.926358e+003, 1.359261e-002
3.928287e+003, 1.375398e-002
3.930215e+003, 1.290410e-002
3.932144e+003, 1.280935e-002
3.934072e+003, 1.358200e-002
3.936000e+003, 1.315070e-002
3.937929e+003, 1.317148e-002
3.939857e+003, 1.458994e-002
3.941786e+003, 1.434603e-002
3.943714e+003, 1.365863e-002
3.945643e+003, 1.404132e-002
3.947571e+003, 1.505350e-002
3.949500e+003, 1.505689e-002
3.951428e+003, 1.391592e-002
3.953357e+003, 1.316936e-002
3.955285e+003, 1.294733e-002
3.957214e+003, 1.340248e-002
3.959142e+003, 1.393383e-002
3.961071e+003, 1.475136e-002
3.962999e+003, 1.382668e-002
3.964927e+003, 1.242224e-002
3.966856e+003, 1.343328e-002
3.968784e+003, 1.384553e-002
3.970713e+003, 1.389683e-002
3.972641e+003, 1.402420e-002
3.974570e+003, 1.400605e-002
3.976498e+003, 1.367641e-002
3.978427e+003, 1.384489e-002
3.980355e+003, 1.436645e-002
3.982284e+003, 1.357635e-002
3.984212e+003, 1.319658e-002
3.986141e+003, 1.364128e-002
3.988069e+003, 1.421868e-002
3.989998e+003, 1.443764e-002
3.991926e+003, 1.429204e-002
3.993854e+003, 1.379680e-002
3.995783e+003, 1.351522e-002
3.997711e+003, 1.367781e-002
3.999640e+003, 1.418471e-002
##END=



