##NAMES=Rosasite
##RRUFFID=R050294
##IDEAL CHEMISTRY=Cu^2+^Zn^2+^CO_3_(OH)_2_
##LOCALITY=79 mine, 4th level, Hayden, Gila County, Arizona, USA
##OWNER=RRUFF
##SOURCE=George Godas, John Callahan
##DESCRIPTION=Green botryoidal crust associated with intergrown smithsonite
##STATUS=The identification of this mineral has been confirmed by X-ray diffraction and chemical analysis
##URL=rruff.info/R050294
##MEASURED CHEMISTRY=(Cu_1.24_Zn_0.76_)_Î£=2_(CO_3_)(OH)_2_
399.1926, 7.6012373E-02
401.1211, 8.0806836E-02
403.0496, 8.1195317E-02
404.9780, 8.5462220E-02
406.9065, 8.8672839E-02
408.8350, 8.0427848E-02
410.7634, 7.6314621E-02
412.6919, 7.7212676E-02
414.6204, 6.9873907E-02
416.5488, 6.7033947E-02
418.4773, 6.5507852E-02
420.4058, 6.3257277E-02
422.3342, 6.0705349E-02
424.2627, 5.7996228E-02
426.1912, 5.6940790E-02
428.1196, 5.5803139E-02
430.0481, 5.6802388E-02
431.9766, 5.7917912E-02
433.9050, 5.5755571E-02
435.8335, 5.2144941E-02
437.7620, 4.9711902E-02
439.6904, 4.8832029E-02
441.6189, 4.7921080E-02
443.5474, 4.6702798E-02
445.4758, 4.4926561E-02
447.4043, 4.4606429E-02
449.3328, 4.5278851E-02
451.2612, 4.5344081E-02
453.1897, 4.4111889E-02
455.1182, 4.2971831E-02
457.0466, 4.2773660E-02
458.9751, 4.2696461E-02
460.9036, 4.2067219E-02
462.8320, 4.2243861E-02
464.7605, 4.1848522E-02
466.6890, 4.1247271E-02
468.6174, 4.1032460E-02
470.5459, 4.1976240E-02
472.4744, 4.3591950E-02
474.4028, 4.4313300E-02
476.3313, 4.4542950E-02
478.2598, 4.5995109E-02
480.1882, 4.6590701E-02
482.1167, 4.6243541E-02
484.0452, 4.6512719E-02
485.9736, 4.6999872E-02
487.9021, 4.6948958E-02
489.8306, 4.6523351E-02
491.7590, 4.5650680E-02
493.6875, 4.4827569E-02
495.6160, 4.5189042E-02
497.5444, 4.4313710E-02
499.4729, 4.2846039E-02
501.4014, 4.2769369E-02
503.3298, 4.3139301E-02
505.2583, 4.3758530E-02
507.1868, 4.4697039E-02
509.1152, 4.6027839E-02
511.0437, 4.6950061E-02
512.9722, 4.7909219E-02
514.9006, 4.9513031E-02
516.8291, 5.1644638E-02
518.7576, 5.4022711E-02
520.6860, 5.6785200E-02
522.6145, 5.9647929E-02
524.5430, 6.3092522E-02
526.4714, 6.6726558E-02
528.3999, 7.0363052E-02
530.3284, 7.3786952E-02
532.2568, 7.7122532E-02
534.1853, 8.0210097E-02
536.1138, 8.2402371E-02
538.0422, 8.4077999E-02
539.9707, 8.7116942E-02
541.8992, 9.1583617E-02
543.8276, 9.5724300E-02
545.7561, 0.1004483
547.6846, 0.1054952
549.6130, 0.1092054
551.5415, 0.1098229
553.4700, 0.1086212
555.3984, 0.1052976
557.3269, 9.8476782E-02
559.2554, 8.9579888E-02
561.1838, 8.1723697E-02
563.1123, 7.5132072E-02
565.0408, 6.9250673E-02
566.9692, 6.4267948E-02
568.8977, 5.9699290E-02
570.8262, 5.5753861E-02
572.7546, 5.3169060E-02
574.6831, 5.1071290E-02
576.6116, 4.9433149E-02
578.5400, 4.8642151E-02
580.4685, 4.7470719E-02
582.3970, 4.5905590E-02
584.3254, 4.5073070E-02
586.2539, 4.4463489E-02
588.1824, 4.4090919E-02
590.1108, 4.4560932E-02
592.0393, 4.5013029E-02
593.9678, 4.6130888E-02
595.8962, 4.6979111E-02
597.8247, 4.7558449E-02
599.7532, 4.8595961E-02
601.6816, 4.9917821E-02
603.6101, 5.1619191E-02
605.5386, 5.3051479E-02
607.4670, 5.4386299E-02
609.3955, 5.5914819E-02
611.3240, 5.6790181E-02
613.2524, 5.7875529E-02
615.1809, 5.9489541E-02
617.1094, 6.1241560E-02
619.0378, 6.3005783E-02
620.9663, 6.4530566E-02
622.8948, 6.6016793E-02
624.8232, 6.8178587E-02
626.7517, 7.0835918E-02
628.6802, 7.3429503E-02
630.6086, 7.6375723E-02
632.5371, 7.9343252E-02
634.4656, 8.2602777E-02
636.3940, 8.6109847E-02
638.3225, 8.9825228E-02
640.2510, 9.3706757E-02
642.1794, 9.7845003E-02
644.1079, 0.1023513
646.0364, 0.1065868
647.9648, 0.1109255
649.8933, 0.1157744
651.8218, 0.1207437
653.7502, 0.1252217
655.6787, 0.1290080
657.6072, 0.1325025
659.5356, 0.1361089
661.4641, 0.1385404
663.3926, 0.1399854
665.3210, 0.1405726
667.2495, 0.1406540
669.1780, 0.1391821
671.1064, 0.1364323
673.0349, 0.1333201
674.9634, 0.1295422
676.8918, 0.1247281
678.8203, 0.1198412
680.7488, 0.1154129
682.6772, 0.1113807
684.6057, 0.1077674
686.5342, 0.1048605
688.4626, 0.1033472
690.3911, 0.1021813
692.3196, 0.1021675
694.2480, 0.1042276
696.1765, 0.1081644
698.1050, 0.1138106
700.0334, 0.1212389
701.9619, 0.1291208
703.8904, 0.1334118
705.8188, 0.1318474
707.7473, 0.1266469
709.6758, 0.1205357
711.6042, 0.1151568
713.5327, 0.1107611
715.4612, 0.1080931
717.3896, 0.1077400
719.3181, 0.1092129
721.2466, 0.1121101
723.1750, 0.1158511
725.1035, 0.1197623
727.0320, 0.1237233
728.9604, 0.1285801
730.8889, 0.1340205
732.8174, 0.1400874
734.7458, 0.1459010
736.6743, 0.1489177
738.6028, 0.1458780
740.5313, 0.1358552
742.4597, 0.1234824
744.3882, 0.1102674
746.3167, 9.5383033E-02
748.2451, 8.2513608E-02
750.1736, 7.5160533E-02
752.1021, 7.1894221E-02
754.0305, 7.1060561E-02
755.9590, 7.1631752E-02
757.8875, 7.3118322E-02
759.8159, 7.4877068E-02
761.7444, 7.7082098E-02
763.6729, 7.9625152E-02
765.6013, 8.2078107E-02
767.5298, 8.4660567E-02
769.4583, 8.7463357E-02
771.3867, 9.0608321E-02
773.3152, 9.4109967E-02
775.2437, 9.7283982E-02
777.1721, 0.1003609
779.1006, 0.1040857
781.0291, 0.1081582
782.9575, 0.1122867
784.8860, 0.1162326
786.8145, 0.1203267
788.7429, 0.1252955
790.6714, 0.1302252
792.5999, 0.1349283
794.5283, 0.1404529
796.4568, 0.1465619
798.3853, 0.1529599
800.3137, 0.1603007
802.2422, 0.1682671
804.1707, 0.1760979
806.0991, 0.1850598
808.0276, 0.1959390
809.9561, 0.2084193
811.8845, 0.2228818
813.8130, 0.2396463
815.7415, 0.2545894
817.6699, 0.2592315
819.5984, 0.2567487
821.5269, 0.2578262
823.4553, 0.2635581
825.3838, 0.2655466
827.3123, 0.2555659
829.2407, 0.2362625
831.1692, 0.2226858
833.0977, 0.2198675
835.0261, 0.2212997
836.9546, 0.2235867
838.8831, 0.2255810
840.8115, 0.2268976
842.7400, 0.2275080
844.6685, 0.2285962
846.5969, 0.2289445
848.5254, 0.2279656
850.4539, 0.2261939
852.3823, 0.2239006
854.3108, 0.2206256
856.2393, 0.2166696
858.1677, 0.2123924
860.0962, 0.2075498
862.0247, 0.2018746
863.9531, 0.1951991
865.8816, 0.1875522
867.8101, 0.1790280
869.7385, 0.1698068
871.6670, 0.1596643
873.5955, 0.1486025
875.5239, 0.1375045
877.4524, 0.1270611
879.3809, 0.1172150
881.3093, 0.1089141
883.2378, 0.1020957
885.1663, 9.6238472E-02
887.0947, 9.0852857E-02
889.0232, 8.6279497E-02
890.9517, 8.2232863E-02
892.8801, 7.8712948E-02
894.8085, 7.5815812E-02
896.7370, 7.2845817E-02
898.6655, 6.9926389E-02
900.5939, 6.7414530E-02
902.5224, 6.5425470E-02
904.4509, 6.3800491E-02
906.3793, 6.2628508E-02
908.3078, 6.1750378E-02
910.2363, 6.0430009E-02
912.1647, 5.9371009E-02
914.0932, 5.8925550E-02
916.0217, 5.8690660E-02
917.9501, 5.8330979E-02
919.8786, 5.7927001E-02
921.8071, 5.7805020E-02
923.7355, 5.7699699E-02
925.6640, 5.7667021E-02
927.5925, 5.8104079E-02
929.5209, 5.8523700E-02
931.4494, 5.8974091E-02
933.3779, 5.9488282E-02
935.3063, 5.9790678E-02
937.2348, 5.9734430E-02
939.1633, 5.9522402E-02
941.0917, 5.9465550E-02
943.0202, 5.9263360E-02
944.9487, 5.9341330E-02
946.8771, 5.9487950E-02
948.8056, 5.9107639E-02
950.7341, 5.8711238E-02
952.6625, 5.8649261E-02
954.5910, 5.8847331E-02
956.5195, 5.9024561E-02
958.4479, 5.9057292E-02
960.3764, 5.8947559E-02
962.3049, 5.8928970E-02
964.2333, 5.9351921E-02
966.1618, 5.9860561E-02
968.0903, 6.0564719E-02
970.0187, 6.1274920E-02
971.9472, 6.1776929E-02
973.8757, 6.2537648E-02
975.8041, 6.3472837E-02
977.7326, 6.4580709E-02
979.6611, 6.5775350E-02
981.5895, 6.6702917E-02
983.5180, 6.7925461E-02
985.4465, 6.9599748E-02
987.3749, 7.1702719E-02
989.3034, 7.3694259E-02
991.2319, 7.5626679E-02
993.1603, 7.7954642E-02
995.0888, 8.0413297E-02
997.0173, 8.2863100E-02
998.9457, 8.5839123E-02
1000.874, 8.9385428E-02
1002.803, 9.3131751E-02
1004.731, 9.6845023E-02
1006.660, 0.1007850
1008.588, 0.1051862
1010.517, 0.1100859
1012.445, 0.1154317
1014.373, 0.1208186
1016.302, 0.1264090
1018.230, 0.1322683
1020.159, 0.1387702
1022.087, 0.1457992
1024.016, 0.1533843
1025.944, 0.1618987
1027.873, 0.1711000
1029.801, 0.1805444
1031.730, 0.1906913
1033.658, 0.2013173
1035.587, 0.2117961
1037.515, 0.2210858
1039.444, 0.2286193
1041.372, 0.2332970
1043.301, 0.2345296
1045.229, 0.2319338
1047.157, 0.2254579
1049.086, 0.2148413
1051.014, 0.2009180
1052.943, 0.1854901
1054.871, 0.1692965
1056.800, 0.1517668
1058.728, 0.1333640
1060.657, 0.1155897
1062.585, 9.9608958E-02
1064.514, 8.5855559E-02
1066.442, 7.4863799E-02
1068.371, 6.6362783E-02
1070.299, 5.9776079E-02
1072.228, 5.5109821E-02
1074.156, 5.2083351E-02
1076.084, 4.9941938E-02
1078.013, 4.8519861E-02
1079.941, 4.7849819E-02
1081.870, 4.8488371E-02
1083.798, 5.1114250E-02
1085.727, 5.5865210E-02
1087.655, 6.3148692E-02
1089.584, 7.4086443E-02
1091.512, 8.9282647E-02
1093.441, 0.1065411
1095.369, 0.1208783
1097.298, 0.1280884
1099.226, 0.1267319
1101.155, 0.1194326
1103.083, 0.1096406
1105.011, 9.9205621E-02
1106.940, 8.9161418E-02
1108.868, 8.0250964E-02
1110.797, 7.2897203E-02
1112.725, 6.6940702E-02
1114.654, 6.2214401E-02
1116.582, 5.8702480E-02
1118.511, 5.5707250E-02
1120.439, 5.3010359E-02
1122.368, 5.0784599E-02
1124.296, 4.9034089E-02
1126.225, 4.8095919E-02
1128.153, 4.7258839E-02
1130.082, 4.6453241E-02
1132.010, 4.6046391E-02
1133.938, 4.5752179E-02
1135.867, 4.5525908E-02
1137.795, 4.5210700E-02
1139.724, 4.4904951E-02
1141.652, 4.4780329E-02
1143.581, 4.4782940E-02
1145.509, 4.4963941E-02
1147.438, 4.4926379E-02
1149.366, 4.4764340E-02
1151.295, 4.4996489E-02
1153.223, 4.5326792E-02
1155.152, 4.5632549E-02
1157.080, 4.5869540E-02
1159.009, 4.6034139E-02
1160.937, 4.6260249E-02
1162.865, 4.6520639E-02
1164.794, 4.6879198E-02
1166.722, 4.7144741E-02
1168.651, 4.7355220E-02
1170.579, 4.7682989E-02
1172.508, 4.8012849E-02
1174.436, 4.8338350E-02
1176.365, 4.8634611E-02
1178.293, 4.8937801E-02
1180.222, 4.9569879E-02
1182.150, 5.0020859E-02
1184.079, 5.0248791E-02
1186.007, 5.0471831E-02
1187.936, 5.1144261E-02
1189.864, 5.1968280E-02
1191.792, 5.2746270E-02
1193.721, 5.3350952E-02
1195.649, 5.3833898E-02
1197.578, 5.4393619E-02
1199.506, 5.4968990E-02
1201.435, 5.5608731E-02
1203.363, 5.6178682E-02
1205.292, 5.6714881E-02
1207.220, 5.7188641E-02
1209.149, 5.7758439E-02
1211.077, 5.8339700E-02
1213.006, 5.9111342E-02
1214.934, 5.9950151E-02
1216.863, 6.0748741E-02
1218.791, 6.1493382E-02
1220.719, 6.2086321E-02
1222.648, 6.2692463E-02
1224.576, 6.3484833E-02
1226.505, 6.4439103E-02
1228.433, 6.5373123E-02
1230.362, 6.6544287E-02
1232.290, 6.7292348E-02
1234.219, 6.8073377E-02
1236.147, 6.9268838E-02
1238.076, 7.0157312E-02
1240.004, 7.0992909E-02
1241.933, 7.2414167E-02
1243.861, 7.3517293E-02
1245.790, 7.4342497E-02
1247.718, 7.5517014E-02
1249.646, 7.7016287E-02
1251.575, 7.8398533E-02
1253.503, 7.9499774E-02
1255.432, 8.0531821E-02
1257.360, 8.1844822E-02
1259.289, 8.3589248E-02
1261.217, 8.5198566E-02
1263.146, 8.6639211E-02
1265.074, 8.8474557E-02
1267.003, 9.0538613E-02
1268.931, 9.2370600E-02
1270.860, 9.4350137E-02
1272.788, 9.6482970E-02
1274.717, 9.8761283E-02
1276.645, 0.1012383
1278.573, 0.1038165
1280.502, 0.1063179
1282.430, 0.1087689
1284.359, 0.1112418
1286.287, 0.1141151
1288.216, 0.1173152
1290.144, 0.1203553
1292.073, 0.1237644
1294.001, 0.1275625
1295.930, 0.1313646
1297.858, 0.1353275
1299.787, 0.1397896
1301.715, 0.1444837
1303.644, 0.1494151
1305.572, 0.1543321
1307.500, 0.1592991
1309.429, 0.1642929
1311.357, 0.1691149
1313.286, 0.1737305
1315.214, 0.1781375
1317.143, 0.1823019
1319.071, 0.1863329
1321.000, 0.1902643
1322.928, 0.1943549
1324.857, 0.1993490
1326.785, 0.2050844
1328.714, 0.2110046
1330.642, 0.2174026
1332.571, 0.2247394
1334.499, 0.2323125
1336.427, 0.2401223
1338.356, 0.2485865
1340.284, 0.2576545
1342.213, 0.2674299
1344.141, 0.2776470
1346.070, 0.2883982
1347.998, 0.2996365
1349.927, 0.3114676
1351.855, 0.3239236
1353.784, 0.3370062
1355.712, 0.3503374
1357.641, 0.3640408
1359.569, 0.3781750
1361.498, 0.3923873
1363.426, 0.4057360
1365.354, 0.4178689
1367.283, 0.4289776
1369.211, 0.4377411
1371.140, 0.4427552
1373.068, 0.4447208
1374.997, 0.4442911
1376.925, 0.4409889
1378.854, 0.4351628
1380.782, 0.4271824
1382.711, 0.4170434
1384.639, 0.4054088
1386.568, 0.3928644
1388.496, 0.3794582
1390.424, 0.3658611
1392.353, 0.3521798
1394.281, 0.3382472
1396.210, 0.3245328
1398.138, 0.3115045
1400.067, 0.2992948
1401.995, 0.2886179
1403.924, 0.2791999
1405.852, 0.2718257
1407.781, 0.2661099
1409.709, 0.2614119
1411.638, 0.2574820
1413.566, 0.2535282
1415.495, 0.2480432
1417.423, 0.2406903
1419.351, 0.2312447
1421.280, 0.2197651
1423.208, 0.2065535
1425.137, 0.1927981
1427.065, 0.1795941
1428.994, 0.1680159
1430.922, 0.1585097
1432.851, 0.1508186
1434.779, 0.1446354
1436.708, 0.1394950
1438.636, 0.1360255
1440.565, 0.1334117
1442.493, 0.1312293
1444.422, 0.1302708
1446.350, 0.1305044
1448.278, 0.1312111
1450.207, 0.1323491
1452.135, 0.1341578
1454.064, 0.1370881
1455.992, 0.1406674
1457.921, 0.1443234
1459.849, 0.1483630
1461.778, 0.1530252
1463.706, 0.1579254
1465.635, 0.1628209
1467.563, 0.1676558
1469.492, 0.1727148
1471.420, 0.1785111
1473.349, 0.1846612
1475.277, 0.1913082
1477.205, 0.1980479
1479.134, 0.2054591
1481.062, 0.2135906
1482.991, 0.2219209
1484.919, 0.2301967
1486.848, 0.2380953
1488.776, 0.2454378
1490.705, 0.2521175
1492.633, 0.2580939
1494.562, 0.2632311
1496.490, 0.2672258
1498.419, 0.2697395
1500.347, 0.2713565
1502.276, 0.2724520
1504.204, 0.2722801
1506.132, 0.2714952
1508.061, 0.2699364
1509.989, 0.2673459
1511.918, 0.2649126
1513.846, 0.2618799
1515.775, 0.2579562
1517.703, 0.2535232
1519.632, 0.2486474
1521.560, 0.2434416
1523.489, 0.2382219
1525.417, 0.2329445
1527.346, 0.2272491
1529.274, 0.2205862
1531.203, 0.2127616
1533.131, 0.2042065
1535.059, 0.1948998
1536.988, 0.1849162
1538.916, 0.1741023
1540.845, 0.1627154
1542.773, 0.1509451
1544.702, 0.1395085
1546.630, 0.1278757
1548.559, 0.1162735
1550.487, 0.1056074
1552.416, 9.5543012E-02
1554.344, 8.5873887E-02
1556.273, 7.7464052E-02
1558.201, 7.0091173E-02
1560.130, 6.3640103E-02
1562.058, 5.7912249E-02
1563.986, 5.2923679E-02
1565.915, 4.8955690E-02
1567.843, 4.5364790E-02
1569.772, 4.2135000E-02
1571.700, 3.9701369E-02
1573.629, 3.7833478E-02
1575.557, 3.5923060E-02
1577.486, 3.4019161E-02
1579.414, 3.2485530E-02
1581.343, 3.1147650E-02
1583.271, 3.0189309E-02
1585.200, 2.9021120E-02
1587.128, 2.7791761E-02
1589.057, 2.6938271E-02
1590.985, 2.6275169E-02
1592.913, 2.5778649E-02
1594.842, 2.5476230E-02
1596.770, 2.4527021E-02
1598.699, 2.3575559E-02
1600.627, 2.3482369E-02
1602.556, 2.3302531E-02
1604.484, 2.2596240E-02
1606.413, 2.1905171E-02
1608.341, 2.1598240E-02
1610.270, 2.1304810E-02
1612.198, 2.1063890E-02
1614.127, 2.0749381E-02
1616.055, 2.0267749E-02
1617.984, 1.9974280E-02
1619.912, 1.9416731E-02
1621.840, 1.9114600E-02
1623.769, 1.8665049E-02
1625.697, 1.8117800E-02
1627.626, 1.7935811E-02
1629.554, 1.8347610E-02
1631.483, 1.8403500E-02
1633.411, 1.8043701E-02
1635.340, 1.7868660E-02
1637.268, 1.7835490E-02
1639.197, 1.7577700E-02
1641.125, 1.7255681E-02
1643.054, 1.6991060E-02
1644.982, 1.6578710E-02
1646.911, 1.6532021E-02
1648.839, 1.6701911E-02
1650.767, 1.6434450E-02
1652.696, 1.6036909E-02
1654.624, 1.5932789E-02
1656.553, 1.5646251E-02
1658.481, 1.5256250E-02
1660.410, 1.4984470E-02
1662.338, 1.5107950E-02
1664.267, 1.4921830E-02
1666.195, 1.4554510E-02
1668.124, 1.4290680E-02
1670.052, 1.4474280E-02
1671.981, 1.4891630E-02
1673.909, 1.4578720E-02
1675.838, 1.4089620E-02
1677.766, 1.3856720E-02
1679.694, 1.3647430E-02
1681.623, 1.3448030E-02
1683.551, 1.3340950E-02
1685.480, 1.3533140E-02
1687.408, 1.3400210E-02
1689.337, 1.3014710E-02
1691.265, 1.3062190E-02
1693.194, 1.3256660E-02
1695.122, 1.3263060E-02
1697.051, 1.3001050E-02
1698.979, 1.3008950E-02
1700.908, 1.2945480E-02
1702.836, 1.2945450E-02
1704.765, 1.2539630E-02
1706.693, 1.2502280E-02
1708.621, 1.2698840E-02
1710.550, 1.2697600E-02
1712.478, 1.2687440E-02
1714.407, 1.2889720E-02
1716.335, 1.2973540E-02
1718.264, 1.3158930E-02
1720.192, 1.3308120E-02
1722.121, 1.3189390E-02
1724.049, 1.2983430E-02
1725.978, 1.2913880E-02
1727.906, 1.3283580E-02
1729.835, 1.3683960E-02
1731.763, 1.3586090E-02
1733.692, 1.3605670E-02
1735.620, 1.3584850E-02
1737.548, 1.3577730E-02
1739.477, 1.3342090E-02
1741.405, 1.3128170E-02
1743.334, 1.3112380E-02
1745.262, 1.3267700E-02
1747.191, 1.3411920E-02
1749.119, 1.3498160E-02
1751.048, 1.3877170E-02
1752.976, 1.4237460E-02
1754.905, 1.4669430E-02
1756.833, 1.5038950E-02
1758.762, 1.5314880E-02
1760.690, 1.5178310E-02
1762.619, 1.5008540E-02
1764.547, 1.5479910E-02
1766.475, 1.6056061E-02
1768.404, 1.6388141E-02
1770.332, 1.6335839E-02
1772.261, 1.6177310E-02
1774.189, 1.6260531E-02
1776.118, 1.6053749E-02
1778.046, 1.5917679E-02
1779.975, 1.5869990E-02
1781.903, 1.6259659E-02
1783.832, 1.6715709E-02
1785.760, 1.6799510E-02
1787.689, 1.6827820E-02
1789.617, 1.6225170E-02
1791.546, 1.5544150E-02
1793.474, 1.6021950E-02
1795.402, 1.6814720E-02
1797.331, 1.7004879E-02
1799.259, 1.6935220E-02
1801.188, 1.6586609E-02
1803.116, 1.6614251E-02
1805.045, 1.6890850E-02
1806.973, 1.7177870E-02
1808.902, 1.7546579E-02
1810.830, 1.7426150E-02
1812.759, 1.6780529E-02
1814.687, 1.6935309E-02
1816.616, 1.7058600E-02
1818.544, 1.6553080E-02
1820.473, 1.6593300E-02
1822.401, 1.7101821E-02
1824.329, 1.7282629E-02
1826.258, 1.6996490E-02
1828.186, 1.6610170E-02
1830.115, 1.6505159E-02
1832.043, 1.6248470E-02
1833.972, 1.6028630E-02
1835.900, 1.6162610E-02
1837.829, 1.5726959E-02
1839.757, 1.4654460E-02
1841.686, 1.4258660E-02
1843.614, 1.4482250E-02
1845.543, 1.4517260E-02
1847.471, 1.4560420E-02
1849.400, 1.4458880E-02
1851.328, 1.4689900E-02
1853.256, 1.4783440E-02
1855.185, 1.4833440E-02
1857.113, 1.4681160E-02
1859.042, 1.4018210E-02
1860.970, 1.4110110E-02
1862.899, 1.4051120E-02
1864.827, 1.4022980E-02
1866.756, 1.4585190E-02
1868.684, 1.4308300E-02
1870.613, 1.4095680E-02
1872.541, 1.4110780E-02
1874.470, 1.3853240E-02
1876.398, 1.2797740E-02
1878.327, 1.2658470E-02
1880.255, 1.3200750E-02
1882.183, 1.3345300E-02
1884.112, 1.4742850E-02
1886.040, 1.5139540E-02
1887.969, 1.4279550E-02
1889.897, 1.4077900E-02
1891.826, 1.3771510E-02
1893.754, 1.3804380E-02
1895.683, 1.3497970E-02
1897.611, 1.3162420E-02
1899.540, 1.3604320E-02
1901.468, 1.4640000E-02
1903.397, 1.5351080E-02
1905.325, 1.5869850E-02
1907.254, 1.5333450E-02
1909.182, 1.4943010E-02
1911.110, 1.4939470E-02
1913.039, 1.4773540E-02
1914.967, 1.4295440E-02
1916.896, 1.4832290E-02
1918.824, 1.4770130E-02
1920.753, 1.3872270E-02
1922.681, 1.3226860E-02
1924.610, 1.2961970E-02
1926.538, 1.3632020E-02
1928.467, 1.3977360E-02
1930.395, 1.3772830E-02
1932.324, 1.3529020E-02
1934.252, 1.4431840E-02
1936.181, 1.4203610E-02
1938.109, 1.4732240E-02
1940.037, 1.5096950E-02
1941.966, 1.5348740E-02
1943.894, 1.4462770E-02
1945.823, 1.3546490E-02
1947.751, 1.2681800E-02
1949.680, 1.2725900E-02
1951.608, 1.3363710E-02
1953.537, 1.4633220E-02
1955.465, 1.5755830E-02
1957.394, 1.5168290E-02
1959.322, 1.5259510E-02
1961.251, 1.7292481E-02
1963.179, 1.6342711E-02
1965.108, 1.4328870E-02
1967.036, 1.5862869E-02
1968.964, 1.6103830E-02
1970.893, 1.3521900E-02
1972.821, 1.2133340E-02
1974.750, 1.3546570E-02
1976.678, 1.4934380E-02
1978.607, 1.4175060E-02
1980.535, 1.3409670E-02
1982.464, 1.4847420E-02
1984.392, 1.5630631E-02
1986.321, 1.5903750E-02
1988.249, 1.6961619E-02
1990.178, 1.5919991E-02
1992.106, 1.4206620E-02
1994.035, 1.4609140E-02
1995.963, 1.4749650E-02
1997.891, 1.3252690E-02
1999.820, 1.2615720E-02
2001.748, 1.2157940E-02
2003.677, 1.0834750E-02
2005.605, 1.1288240E-02
2007.534, 1.3458370E-02
2009.462, 1.4816770E-02
2011.391, 1.4546740E-02
2013.319, 1.3030970E-02
2015.248, 1.3843170E-02
2017.176, 1.5884509E-02
2019.105, 1.4804920E-02
2021.033, 1.2125750E-02
2022.962, 1.2653920E-02
2024.890, 1.3455220E-02
2026.818, 1.2602560E-02
2028.747, 1.4947340E-02
2030.675, 1.5783370E-02
2032.604, 1.5538810E-02
2034.532, 1.4567160E-02
2036.461, 1.3875710E-02
2038.389, 1.4489310E-02
2040.318, 1.6544409E-02
2042.246, 1.7065961E-02
2044.175, 1.5221470E-02
2046.103, 1.3934800E-02
2048.032, 1.5063060E-02
2049.960, 1.6285090E-02
2051.889, 1.7181059E-02
2053.817, 1.6574420E-02
2055.746, 1.5509850E-02
2057.674, 1.6060680E-02
2059.603, 1.7189089E-02
2061.531, 1.7222660E-02
2063.459, 1.6167721E-02
2065.388, 1.6610909E-02
2067.316, 1.7097769E-02
2069.245, 1.7186880E-02
2071.173, 1.5978949E-02
2073.102, 1.4497010E-02
2075.030, 1.5227230E-02
2076.959, 1.6454641E-02
2078.887, 1.7095810E-02
2080.816, 1.7995600E-02
2082.744, 1.8070711E-02
2084.673, 1.6422560E-02
2086.601, 1.4058220E-02
2088.530, 1.4278220E-02
2090.458, 1.5228930E-02
2092.386, 1.4730790E-02
2094.315, 1.4509190E-02
2096.243, 1.5034140E-02
2098.172, 1.5416280E-02
2100.100, 1.6689220E-02
2102.029, 1.6425820E-02
2103.957, 1.4951340E-02
2105.886, 1.5926691E-02
2107.814, 1.7790040E-02
2109.743, 1.8673090E-02
2111.671, 1.8123269E-02
2113.600, 1.6784441E-02
2115.528, 1.6252220E-02
2117.457, 1.6603019E-02
2119.385, 1.7733410E-02
2121.313, 1.8429510E-02
2123.242, 1.8082449E-02
2125.170, 1.6453961E-02
2127.099, 1.5203060E-02
2129.027, 1.5962539E-02
2130.956, 1.7492270E-02
2132.884, 1.7905369E-02
2134.813, 1.9428549E-02
2136.741, 1.9051511E-02
2138.670, 1.8538371E-02
2140.598, 1.9107550E-02
2142.527, 1.9938029E-02
2144.455, 1.8926440E-02
2146.384, 1.6738821E-02
2148.312, 1.7343311E-02
2150.240, 1.7064391E-02
2152.169, 1.7917071E-02
2154.097, 1.8049110E-02
2156.026, 1.7402889E-02
2157.954, 1.9347651E-02
2159.883, 2.2722511E-02
2161.811, 2.3272131E-02
2163.740, 2.5879931E-02
2165.668, 2.6046770E-02
2167.597, 2.4326419E-02
2169.525, 2.2853840E-02
2171.454, 2.2241009E-02
2173.382, 2.2268429E-02
2175.311, 2.3098759E-02
2177.239, 2.3427330E-02
2179.167, 2.1066001E-02
2181.096, 1.7196581E-02
2183.024, 1.7586259E-02
2184.953, 1.7285820E-02
2186.881, 1.6910059E-02
2188.810, 1.9667979E-02
2190.738, 1.8696740E-02
2192.667, 1.7999271E-02
2194.595, 1.7574510E-02
2196.524, 1.5485380E-02
2198.452, 1.7636489E-02
2200.381, 1.9171620E-02
2202.309, 1.7709499E-02
2204.238, 1.6135950E-02
2206.166, 1.5750941E-02
2208.094, 1.6493861E-02
2210.023, 1.7154681E-02
2211.951, 1.7922331E-02
2213.880, 1.8480020E-02
2215.808, 1.9726889E-02
2217.737, 1.9864149E-02
2219.665, 1.9663339E-02
2221.594, 1.9727601E-02
2223.522, 1.9892050E-02
2225.451, 2.1694010E-02
2227.379, 2.1564590E-02
2229.308, 2.1042001E-02
2231.236, 2.1103419E-02
2233.165, 2.1045661E-02
2235.093, 2.1203401E-02
2237.021, 2.1636261E-02
2238.950, 2.1780619E-02
2240.878, 2.1711299E-02
2242.807, 2.1555221E-02
2244.735, 2.1297310E-02
2246.664, 2.1146329E-02
2248.592, 2.0973090E-02
2250.521, 2.2726269E-02
2252.449, 2.3833429E-02
2254.378, 2.3949981E-02
2256.306, 2.3981489E-02
2258.235, 2.3195440E-02
2260.163, 2.3219690E-02
2262.092, 2.2575339E-02
2264.020, 2.2030860E-02
2265.948, 2.3813421E-02
2267.877, 2.3213770E-02
2269.805, 2.2465801E-02
2271.734, 2.4410080E-02
2273.662, 2.4042910E-02
2275.591, 2.2243319E-02
2277.519, 2.3788450E-02
2279.448, 2.4815319E-02
2281.376, 2.4577070E-02
2283.305, 2.4732260E-02
2285.233, 2.5631860E-02
2287.162, 2.6002640E-02
2289.090, 2.5944920E-02
2291.019, 2.5587389E-02
2292.947, 2.4654919E-02
2294.875, 2.5124099E-02
2296.804, 2.5064750E-02
2298.732, 2.4780679E-02
2300.661, 2.4972390E-02
2302.589, 2.4551369E-02
2304.518, 2.4776209E-02
2306.446, 2.5297871E-02
2308.375, 2.5544100E-02
2310.303, 2.5405420E-02
2312.232, 2.5756789E-02
2314.160, 2.6345560E-02
2316.089, 2.6697030E-02
2318.017, 2.6706560E-02
2319.946, 2.7321121E-02
2321.874, 2.8041910E-02
2323.802, 2.8069239E-02
2325.731, 2.7411740E-02
2327.659, 2.6708040E-02
2329.588, 2.6410431E-02
2331.516, 2.6639670E-02
2333.445, 2.6981570E-02
2335.373, 2.7732220E-02
2337.302, 2.8173370E-02
2339.230, 2.7628910E-02
2341.159, 2.7243091E-02
2343.087, 2.7588550E-02
2345.016, 2.7735250E-02
2346.944, 2.6667619E-02
2348.873, 2.5930850E-02
2350.801, 2.6366970E-02
2352.729, 2.7222410E-02
2354.658, 2.8122799E-02
2356.586, 2.9376000E-02
2358.515, 3.0267520E-02
2360.443, 3.0777421E-02
2362.372, 2.9848950E-02
2364.300, 2.9660819E-02
2366.229, 2.9045990E-02
2368.157, 2.9257100E-02
2370.086, 2.9373679E-02
2372.014, 2.8024200E-02
2373.942, 2.7203079E-02
2375.871, 2.7016910E-02
2377.799, 2.6417980E-02
2379.728, 2.6415300E-02
2381.656, 2.6439460E-02
2383.585, 2.6081750E-02
2385.513, 2.6791761E-02
2387.442, 2.6975781E-02
2389.370, 2.6116719E-02
2391.299, 2.6716480E-02
2393.227, 2.7774381E-02
2395.156, 2.7940150E-02
2397.084, 2.7876981E-02
2399.012, 2.7551981E-02
2400.941, 2.7717009E-02
2402.869, 2.7961601E-02
2404.798, 2.8309749E-02
2406.726, 2.8394651E-02
2408.655, 2.8558871E-02
2410.583, 2.7423199E-02
2412.512, 2.7014511E-02
2414.440, 2.7056290E-02
2416.369, 2.7096720E-02
2418.297, 2.7700070E-02
2420.226, 2.7914271E-02
2422.154, 2.6945680E-02
2424.083, 2.7319301E-02
2426.011, 2.7132999E-02
2427.939, 2.7193040E-02
2429.868, 2.7440030E-02
2431.796, 2.7073041E-02
2433.725, 2.7930191E-02
2435.653, 2.8490661E-02
2437.582, 2.8237130E-02
2439.510, 2.7734689E-02
2441.439, 2.7283810E-02
2443.367, 2.6957190E-02
2445.296, 2.6851980E-02
2447.224, 2.5890710E-02
2449.153, 2.5428360E-02
2451.081, 2.7195171E-02
2453.010, 2.8662540E-02
2454.938, 2.8008699E-02
2456.866, 2.6611909E-02
2458.795, 2.6606411E-02
2460.723, 2.7376430E-02
2462.652, 2.7938651E-02
2464.580, 2.6492620E-02
2466.509, 2.6285511E-02
2468.437, 2.8029891E-02
2470.366, 2.8463829E-02
2472.294, 2.6791120E-02
2474.223, 2.5328079E-02
2476.151, 2.6375741E-02
2478.080, 2.8214989E-02
2480.008, 2.7825030E-02
2481.937, 2.6801430E-02
2483.865, 2.7041480E-02
2485.793, 2.7510351E-02
2487.722, 2.8435631E-02
2489.650, 2.8710760E-02
2491.579, 2.8668400E-02
2493.507, 2.8742850E-02
2495.436, 2.7768301E-02
2497.364, 2.7241560E-02
2499.293, 2.7632991E-02
2501.221, 2.9628729E-02
2503.150, 2.9954709E-02
2505.078, 2.8834799E-02
2507.007, 2.8356589E-02
2508.935, 2.8114870E-02
2510.864, 2.8629599E-02
2512.792, 2.9194390E-02
2514.720, 2.9969409E-02
2516.649, 3.0831531E-02
2518.577, 2.9409220E-02
2520.506, 2.8218471E-02
2522.434, 2.8714340E-02
2524.363, 2.9108660E-02
2526.291, 2.9007990E-02
2528.220, 2.8726799E-02
2530.148, 2.8804220E-02
2532.077, 2.8833751E-02
2534.005, 2.8265189E-02
2535.934, 2.8847570E-02
2537.862, 2.9434280E-02
2539.791, 2.9792219E-02
2541.719, 2.9053099E-02
2543.647, 3.0290591E-02
2545.576, 3.0258849E-02
2547.504, 2.8703250E-02
2549.433, 2.8785750E-02
2551.361, 2.9766761E-02
2553.290, 3.0090520E-02
2555.218, 3.0602779E-02
2557.147, 3.0604450E-02
2559.075, 2.9635370E-02
2561.004, 2.9726030E-02
2562.932, 3.0206420E-02
2564.861, 3.0837420E-02
2566.789, 3.0529801E-02
2568.718, 2.8824789E-02
2570.646, 2.8260531E-02
2572.574, 2.8612150E-02
2574.503, 2.8289801E-02
2576.431, 2.8315460E-02
2578.360, 2.8263930E-02
2580.288, 2.8274810E-02
2582.217, 2.8459771E-02
2584.145, 2.8635170E-02
2586.074, 2.8954569E-02
2588.002, 2.8552040E-02
2589.931, 2.8595140E-02
2591.859, 2.8922500E-02
2593.788, 2.8469360E-02
2595.716, 2.8300989E-02
2597.645, 2.8428100E-02
2599.573, 2.8794991E-02
2601.501, 2.8971110E-02
2603.430, 2.8699590E-02
2605.358, 2.8127840E-02
2607.287, 2.7967380E-02
2609.215, 2.7938981E-02
2611.144, 2.7866609E-02
2613.072, 2.8929330E-02
2615.001, 2.9450141E-02
2616.929, 2.8954601E-02
2618.858, 2.9095760E-02
2620.786, 2.9913630E-02
2622.715, 2.9682569E-02
2624.643, 2.9102400E-02
2626.572, 2.8602690E-02
2628.500, 2.8223051E-02
2630.428, 2.8819960E-02
2632.357, 2.8926151E-02
2634.285, 2.8266471E-02
2636.214, 2.8849119E-02
2638.142, 2.9163670E-02
2640.071, 2.8834730E-02
2641.999, 2.8800851E-02
2643.928, 2.9128870E-02
2645.856, 2.9733850E-02
2647.785, 2.9602110E-02
2649.713, 2.9252131E-02
2651.642, 2.9386351E-02
2653.570, 2.9296430E-02
2655.499, 2.9589050E-02
2657.427, 2.9259440E-02
2659.355, 2.9313389E-02
2661.284, 2.9647630E-02
2663.212, 2.8958449E-02
2665.141, 2.8236451E-02
2667.069, 2.8390910E-02
2668.998, 2.8554009E-02
2670.926, 2.8623350E-02
2672.855, 2.8326619E-02
2674.783, 2.8488830E-02
2676.712, 2.8246360E-02
2678.640, 2.7881930E-02
2680.569, 2.8319269E-02
2682.497, 2.8586110E-02
2684.426, 2.8433209E-02
2686.354, 2.8117130E-02
2688.282, 2.7470760E-02
2690.211, 2.7289441E-02
2692.139, 2.7848581E-02
2694.068, 2.7513061E-02
2695.996, 2.7367881E-02
2697.925, 2.8543759E-02
2699.853, 2.8986530E-02
2701.782, 2.8902359E-02
2703.710, 2.9160179E-02
2705.639, 2.9377939E-02
2707.567, 2.9321341E-02
2709.496, 2.9311759E-02
2711.424, 2.8894089E-02
2713.353, 2.8677050E-02
2715.281, 2.8788321E-02
2717.209, 2.8116310E-02
2719.138, 2.8162099E-02
2721.066, 2.9463651E-02
2722.995, 2.9622370E-02
2724.923, 2.9207110E-02
2726.852, 2.9174989E-02
2728.780, 2.9460600E-02
2730.709, 2.8675269E-02
2732.637, 2.8642461E-02
2734.566, 2.9290119E-02
2736.494, 2.9511441E-02
2738.423, 2.9636331E-02
2740.351, 2.9727301E-02
2742.280, 2.9396869E-02
2744.208, 2.9068090E-02
2746.136, 2.9567949E-02
2748.065, 2.9632770E-02
2749.993, 3.0247049E-02
2751.922, 3.0040929E-02
2753.850, 2.9711621E-02
2755.779, 2.9451730E-02
2757.707, 2.9684570E-02
2759.636, 3.0229600E-02
2761.564, 3.1026550E-02
2763.493, 3.1156659E-02
2765.421, 3.1149911E-02
2767.350, 3.1275060E-02
2769.278, 3.0604569E-02
2771.207, 3.1331841E-02
2773.135, 3.2059751E-02
2775.063, 3.1912930E-02
2776.992, 3.1312261E-02
2778.920, 3.0759960E-02
2780.849, 3.0869311E-02
2782.777, 3.2360520E-02
2784.706, 3.2489579E-02
2786.634, 3.2414671E-02
2788.563, 3.3502780E-02
2790.491, 3.2788370E-02
2792.420, 3.2301031E-02
2794.348, 3.3388030E-02
2796.277, 3.4347221E-02
2798.205, 3.4122288E-02
2800.134, 3.4784149E-02
2802.062, 3.5397150E-02
2803.990, 3.5226882E-02
2805.919, 3.5369020E-02
2807.847, 3.4884378E-02
2809.776, 3.4547132E-02
2811.704, 3.4855321E-02
2813.633, 3.5257049E-02
2815.561, 3.5631161E-02
2817.490, 3.5790998E-02
2819.418, 3.6384892E-02
2821.347, 3.6464479E-02
2823.275, 3.6739621E-02
2825.204, 3.7221622E-02
2827.132, 3.7094381E-02
2829.061, 3.6901161E-02
2830.989, 3.6393922E-02
2832.917, 3.6296111E-02
2834.846, 3.6663920E-02
2836.774, 3.6755200E-02
2838.703, 3.6987770E-02
2840.631, 3.7013479E-02
2842.560, 3.7577469E-02
2844.488, 3.8017731E-02
2846.417, 3.8515311E-02
2848.345, 3.9027639E-02
2850.274, 3.9251059E-02
2852.202, 3.8486060E-02
2854.131, 3.8822141E-02
2856.059, 3.9449710E-02
2857.988, 4.0285159E-02
2859.916, 4.0401910E-02
2861.844, 3.9063271E-02
2863.773, 3.8185261E-02
2865.701, 3.8654789E-02
2867.630, 3.8917229E-02
2869.558, 3.9101150E-02
2871.487, 3.9787550E-02
2873.415, 4.0168580E-02
2875.344, 3.9211839E-02
2877.272, 3.9385028E-02
2879.201, 3.9977171E-02
2881.129, 3.9371319E-02
2883.058, 4.0127590E-02
2884.986, 4.1777980E-02
2886.915, 4.0622249E-02
2888.843, 4.0795140E-02
2890.771, 4.2777929E-02
2892.700, 4.2535260E-02
2894.628, 4.2043950E-02
2896.557, 4.2484261E-02
2898.485, 4.2856701E-02
2900.414, 4.3042429E-02
2902.342, 4.3077510E-02
2904.271, 4.4112459E-02
2906.199, 4.4956028E-02
2908.128, 4.4877030E-02
2910.056, 4.4264030E-02
2911.985, 4.3948770E-02
2913.913, 4.4998530E-02
2915.842, 4.5498610E-02
2917.770, 4.5660391E-02
2919.698, 4.6712238E-02
2921.627, 4.6579089E-02
2923.555, 4.5347691E-02
2925.484, 4.3293111E-02
2927.412, 4.4213049E-02
2929.341, 4.5951750E-02
2931.269, 4.5410369E-02
2933.198, 4.5568269E-02
2935.126, 4.5574442E-02
2937.055, 4.3842182E-02
2938.983, 4.3731589E-02
2940.912, 4.5770619E-02
2942.840, 4.4631731E-02
2944.769, 4.4170730E-02
2946.697, 4.5399878E-02
2948.625, 4.5837000E-02
2950.554, 4.5163870E-02
2952.482, 4.4276100E-02
2954.411, 4.4567298E-02
2956.339, 4.5068782E-02
2958.268, 4.6205129E-02
2960.196, 4.6534620E-02
2962.125, 4.6039421E-02
2964.053, 4.5596071E-02
2965.982, 4.5707289E-02
2967.910, 4.6263281E-02
2969.839, 4.6428490E-02
2971.767, 4.7334962E-02
2973.696, 4.7646891E-02
2975.624, 4.7709499E-02
2977.552, 4.7306549E-02
2979.481, 4.6529189E-02
2981.409, 4.4859510E-02
2983.338, 4.4744860E-02
2985.266, 4.7882371E-02
2987.195, 4.9000341E-02
2989.123, 4.8785452E-02
2991.052, 4.8931569E-02
2992.980, 4.8971560E-02
2994.909, 4.8449580E-02
2996.837, 4.8560541E-02
2998.766, 4.8724748E-02
3000.694, 5.0534461E-02
3002.623, 5.1791310E-02
3004.551, 5.1034149E-02
3006.479, 5.1629301E-02
3008.408, 5.1722050E-02
3010.336, 5.2415051E-02
3012.265, 5.2958939E-02
3014.193, 5.3778589E-02
3016.122, 5.4329880E-02
3018.050, 5.4514721E-02
3019.979, 5.4374639E-02
3021.907, 5.5085622E-02
3023.836, 5.4853939E-02
3025.764, 5.4735061E-02
3027.693, 5.5510938E-02
3029.621, 5.5228740E-02
3031.550, 5.6794509E-02
3033.478, 5.7622548E-02
3035.406, 5.7381820E-02
3037.335, 5.7701491E-02
3039.263, 5.6983069E-02
3041.192, 5.8674000E-02
3043.120, 5.9639771E-02
3045.049, 6.0203750E-02
3046.977, 6.1009731E-02
3048.906, 6.0288571E-02
3050.834, 6.0692910E-02
3052.763, 6.2667221E-02
3054.691, 6.3943073E-02
3056.620, 6.4362593E-02
3058.548, 6.4332888E-02
3060.477, 6.3967347E-02
3062.405, 6.3936964E-02
3064.333, 6.5660030E-02
3066.262, 6.6027246E-02
3068.190, 6.5772578E-02
3070.119, 6.6972278E-02
3072.047, 7.0410639E-02
3073.976, 7.1948051E-02
3075.904, 6.9770902E-02
3077.833, 6.8268918E-02
3079.761, 6.9100067E-02
3081.690, 7.1271837E-02
3083.618, 7.3645674E-02
3085.547, 7.3369123E-02
3087.475, 7.1863621E-02
3089.404, 7.2371162E-02
3091.332, 7.3913231E-02
3093.260, 7.4678376E-02
3095.189, 7.4250907E-02
3097.117, 7.6085798E-02
3099.046, 7.7514842E-02
3100.974, 7.7675827E-02
3102.903, 7.8030773E-02
3104.831, 7.8662477E-02
3106.760, 8.0431238E-02
3108.688, 8.1356861E-02
3110.617, 8.1612922E-02
3112.545, 8.2293391E-02
3114.474, 8.3368666E-02
3116.402, 8.4647574E-02
3118.331, 8.7142527E-02
3120.259, 8.8662326E-02
3122.188, 8.8449210E-02
3124.116, 8.8276252E-02
3126.044, 8.9519143E-02
3127.973, 9.1926493E-02
3129.901, 9.4182856E-02
3131.830, 9.4521180E-02
3133.758, 9.5358968E-02
3135.687, 9.4811782E-02
3137.615, 9.4501659E-02
3139.544, 9.6011423E-02
3141.472, 9.6880227E-02
3143.401, 9.7872034E-02
3145.329, 9.8542184E-02
3147.258, 0.1003988
3149.186, 0.1013201
3151.115, 0.1011985
3153.043, 0.1025725
3154.971, 0.1022901
3156.900, 0.1019428
3158.828, 0.1040937
3160.757, 0.1047880
3162.685, 0.1057330
3164.614, 0.1077593
3166.542, 0.1085946
3168.471, 0.1092419
3170.399, 0.1092089
3172.328, 0.1105050
3174.256, 0.1118991
3176.185, 0.1127707
3178.113, 0.1118594
3180.042, 0.1126067
3181.970, 0.1148444
3183.898, 0.1177942
3185.827, 0.1210192
3187.755, 0.1227750
3189.684, 0.1242840
3191.612, 0.1256649
3193.541, 0.1259017
3195.469, 0.1268795
3197.398, 0.1302261
3199.326, 0.1321642
3201.255, 0.1333231
3203.183, 0.1345522
3205.112, 0.1365282
3207.040, 0.1391829
3208.969, 0.1425083
3210.897, 0.1447157
3212.825, 0.1476687
3214.754, 0.1495820
3216.682, 0.1510369
3218.611, 0.1539760
3220.539, 0.1553392
3222.468, 0.1571089
3224.396, 0.1596661
3226.325, 0.1617155
3228.253, 0.1626542
3230.182, 0.1645219
3232.110, 0.1663213
3234.039, 0.1666255
3235.967, 0.1696195
3237.896, 0.1734625
3239.824, 0.1753169
3241.752, 0.1755694
3243.681, 0.1743485
3245.609, 0.1733632
3247.538, 0.1715155
3249.466, 0.1715928
3251.395, 0.1735081
3253.323, 0.1725397
3255.252, 0.1698410
3257.180, 0.1677708
3259.109, 0.1638014
3261.037, 0.1605426
3262.966, 0.1576950
3264.894, 0.1547882
3266.823, 0.1503383
3268.751, 0.1480910
3270.679, 0.1462575
3272.608, 0.1409300
3274.536, 0.1373705
3276.465, 0.1358912
3278.393, 0.1334933
3280.322, 0.1329269
3282.250, 0.1327001
3284.179, 0.1289487
3286.107, 0.1237122
3288.036, 0.1221197
3289.964, 0.1211559
3291.893, 0.1186782
3293.821, 0.1168959
3295.750, 0.1154553
3297.678, 0.1141852
3299.606, 0.1127088
3301.535, 0.1106945
3303.463, 0.1091769
3305.392, 0.1080704
3307.320, 0.1070963
3309.249, 0.1076389
3311.177, 0.1073885
3313.106, 0.1055257
3315.034, 0.1037347
3316.963, 0.1034870
3318.891, 0.1006132
3320.820, 9.7507536E-02
3322.748, 9.6988380E-02
3324.677, 9.7168848E-02
3326.605, 9.7333454E-02
3328.533, 9.5670238E-02
3330.462, 9.4706409E-02
3332.390, 9.6435398E-02
3334.319, 9.5682971E-02
3336.247, 9.2444979E-02
3338.176, 9.1921911E-02
3340.104, 9.2533343E-02
3342.033, 9.2248172E-02
3343.961, 9.2008017E-02
3345.890, 9.1060422E-02
3347.818, 9.0043887E-02
3349.747, 8.9902952E-02
3351.675, 9.1097631E-02
3353.604, 9.1662943E-02
3355.532, 8.8291280E-02
3357.460, 8.7023921E-02
3359.389, 8.9821011E-02
3361.317, 8.9956902E-02
3363.246, 8.9045607E-02
3365.174, 8.8174008E-02
3367.103, 8.7667666E-02
3369.031, 9.0789519E-02
3370.960, 9.1524519E-02
3372.888, 9.0622842E-02
3374.817, 8.9154333E-02
3376.745, 8.9330837E-02
3378.674, 8.8084228E-02
3380.602, 8.8599890E-02
3382.531, 9.0605199E-02
3384.459, 9.2368498E-02
3386.387, 9.3415558E-02
3388.316, 9.4095513E-02
3390.244, 9.4988763E-02
3392.173, 9.5415920E-02
3394.101, 9.5946833E-02
3396.030, 9.5683023E-02
3397.958, 9.7147323E-02
3399.887, 9.7094767E-02
3401.815, 9.5896050E-02
3403.744, 9.7378246E-02
3405.672, 0.1000371
3407.601, 0.1018543
3409.529, 0.1022139
3411.458, 0.1017012
3413.386, 0.1020350
3415.314, 0.1031808
3417.243, 0.1052487
3419.171, 0.1053833
3421.100, 0.1060288
3423.028, 0.1070247
3424.957, 0.1089775
3426.885, 0.1098328
3428.814, 0.1093574
3430.742, 0.1092554
3432.671, 0.1088333
3434.599, 0.1104768
3436.528, 0.1115768
3438.456, 0.1122283
3440.385, 0.1134943
3442.313, 0.1127863
3444.241, 0.1107731
3446.170, 0.1119511
3448.098, 0.1139781
3450.027, 0.1156643
3451.955, 0.1186616
3453.884, 0.1189474
3455.812, 0.1191019
3457.741, 0.1198574
3459.669, 0.1218923
3461.598, 0.1243481
3463.526, 0.1249436
3465.455, 0.1265267
3467.383, 0.1304101
3469.312, 0.1358444
3471.240, 0.1382484
3473.168, 0.1389777
3475.097, 0.1398851
3477.025, 0.1413949
3478.954, 0.1463575
3480.882, 0.1510826
3482.811, 0.1528466
3484.739, 0.1545713
3486.668, 0.1597685
3488.596, 0.1631535
3490.525, 0.1640870
3492.453, 0.1663198
3494.382, 0.1657088
3496.310, 0.1623112
3498.239, 0.1599914
3500.167, 0.1553649
3502.095, 0.1489328
3504.024, 0.1407736
3505.952, 0.1335362
3507.881, 0.1230736
3509.809, 0.1124127
3511.738, 0.1031988
3513.666, 9.7122267E-02
3515.595, 8.9472242E-02
3517.523, 8.1411079E-02
3519.452, 7.6339863E-02
3521.380, 7.2658323E-02
3523.309, 6.7676663E-02
3525.237, 6.3523903E-02
3527.166, 5.9720650E-02
3529.094, 5.6757040E-02
3531.022, 5.7477951E-02
3532.951, 5.8689870E-02
3534.879, 5.3949270E-02
3536.808, 4.8262160E-02
3538.736, 4.4251692E-02
3540.665, 4.2331129E-02
3542.593, 4.2430200E-02
3544.522, 4.4516120E-02
3546.450, 4.5583941E-02
3548.379, 4.3676641E-02
3550.307, 4.2752009E-02
3552.236, 4.3177631E-02
3554.164, 4.1244391E-02
3556.093, 3.9183989E-02
3558.021, 3.8294859E-02
3559.949, 3.8767658E-02
3561.878, 4.0371761E-02
3563.806, 4.0533490E-02
3565.735, 4.0136091E-02
3567.663, 3.7707590E-02
3569.592, 3.5699639E-02
3571.520, 3.4638520E-02
3573.449, 3.5634860E-02
3575.377, 3.7579142E-02
3577.306, 4.0888410E-02
3579.234, 3.9121050E-02
3581.163, 3.7364390E-02
3583.091, 3.4791172E-02
3585.020, 3.0595550E-02
3586.948, 3.2267019E-02
3588.876, 3.5671052E-02
3590.805, 3.4465101E-02
3592.733, 3.1790599E-02
3594.662, 3.1910270E-02
3596.590, 3.3568550E-02
3598.519, 3.1792510E-02
3600.447, 3.1077649E-02
3602.376, 3.1400900E-02
3604.304, 3.1154061E-02
3606.233, 3.1813961E-02
3608.161, 3.1504881E-02
3610.090, 3.1052770E-02
3612.018, 3.0133570E-02
3613.947, 3.1071290E-02
3615.875, 3.6250051E-02
3617.803, 3.5354771E-02
3619.732, 2.7606141E-02
3621.660, 2.5286060E-02
3623.589, 2.8928990E-02
3625.517, 3.2073829E-02
3627.446, 3.3721711E-02
3629.374, 3.2282360E-02
3631.303, 2.8171159E-02
3633.231, 2.6578300E-02
3635.160, 2.7245309E-02
3637.088, 2.7554670E-02
3639.017, 2.7306121E-02
3640.945, 2.7567681E-02
3642.874, 2.8100571E-02
3644.802, 2.6892260E-02
3646.730, 2.7000889E-02
3648.659, 2.5095850E-02
3650.587, 2.5006130E-02
3652.516, 2.9148459E-02
3654.444, 2.9271770E-02
3656.373, 2.7644800E-02
3658.301, 2.6785860E-02
3660.230, 2.5236920E-02
3662.158, 2.6206439E-02
3664.087, 2.4527039E-02
3666.015, 2.3860650E-02
3667.944, 2.5983460E-02
3669.872, 2.5187150E-02
3671.801, 2.5575060E-02
3673.729, 2.7984010E-02
3675.657, 2.9174000E-02
3677.586, 2.7896941E-02
3679.514, 2.3007980E-02
3681.443, 2.1558469E-02
3683.371, 2.3782220E-02
3685.300, 2.6711481E-02
3687.228, 2.9533871E-02
3689.157, 2.9699860E-02
3691.085, 2.9349759E-02
3693.014, 3.0466041E-02
3694.942, 3.2630280E-02
3696.871, 3.1437561E-02
3698.799, 2.7322080E-02
3700.728, 2.9706700E-02
3702.656, 3.2709170E-02
3704.584, 3.1854689E-02
3706.513, 3.1843331E-02
3708.441, 3.1771298E-02
3710.370, 3.1468362E-02
3712.298, 3.0425809E-02
3714.227, 3.1390890E-02
3716.155, 3.2428872E-02
3718.084, 3.2519989E-02
3720.012, 3.0730350E-02
3721.941, 2.8660901E-02
3723.869, 2.8502440E-02
3725.798, 2.8581411E-02
3727.726, 2.8491480E-02
3729.655, 3.1618051E-02
3731.583, 3.5149660E-02
3733.511, 3.2065701E-02
3735.440, 3.0228689E-02
3737.368, 3.2224499E-02
3739.297, 3.2828160E-02
3741.225, 3.2104641E-02
3743.154, 3.2857589E-02
3745.082, 2.9751441E-02
3747.011, 2.8511770E-02
3748.939, 2.8536931E-02
3750.868, 2.9168321E-02
3752.796, 3.0535240E-02
3754.725, 3.0463340E-02
3756.653, 3.3083290E-02
3758.582, 3.3643790E-02
3760.510, 3.0824009E-02
3762.438, 2.8459551E-02
3764.367, 2.9950749E-02
3766.295, 3.0847900E-02
3768.224, 3.0119039E-02
3770.152, 2.7211919E-02
3772.081, 2.7049340E-02
3774.009, 2.8871199E-02
3775.938, 3.0930441E-02
3777.866, 3.1272698E-02
3779.795, 3.3110470E-02
3781.723, 3.4365099E-02
3783.652, 3.5220459E-02
3785.580, 3.3322420E-02
3787.509, 3.1677570E-02
3789.437, 3.2773871E-02
3791.365, 3.4215420E-02
3793.294, 3.2544401E-02
3795.222, 3.1299099E-02
3797.151, 3.0632719E-02
3799.079, 3.3030879E-02
3801.008, 3.5979431E-02
3802.936, 3.6561459E-02
3804.865, 3.5239421E-02
3806.793, 3.1303640E-02
3808.722, 3.0088119E-02
3810.650, 3.3030879E-02
3812.579, 3.3153530E-02
3814.507, 3.3235300E-02
3816.436, 3.2327570E-02
3818.364, 3.0472510E-02
3820.292, 2.9863089E-02
3822.221, 3.0519409E-02
3824.149, 3.1781100E-02
3826.078, 3.2633029E-02
3828.006, 3.3461489E-02
3829.935, 3.3030789E-02
3831.863, 2.8458940E-02
3833.792, 2.8493030E-02
3835.720, 3.0041929E-02
3837.649, 3.3318609E-02
3839.577, 3.5828792E-02
3841.506, 3.4659602E-02
3843.434, 3.5284571E-02
3845.363, 3.4778960E-02
3847.291, 3.3134971E-02
3849.219, 3.4860071E-02
3851.148, 3.3609089E-02
3853.076, 3.4961749E-02
3855.005, 3.6766939E-02
3856.933, 3.3671189E-02
3858.862, 2.9728930E-02
3860.790, 2.7651791E-02
3862.719, 2.9754350E-02
3864.647, 3.1313300E-02
3866.576, 3.2680038E-02
3868.504, 3.5105269E-02
3870.433, 3.3780791E-02
3872.361, 3.3196580E-02
3874.290, 3.7116081E-02
3876.218, 3.9203260E-02
3878.146, 3.7550461E-02
3880.075, 3.6483482E-02
3882.003, 3.5835601E-02
3883.932, 3.5032660E-02
3885.860, 3.1030970E-02
3887.789, 3.0070329E-02
3889.717, 3.1414140E-02
3891.646, 3.1952769E-02
3893.574, 3.4210369E-02
3895.503, 3.4050040E-02
3897.431, 3.3578001E-02
3899.360, 3.2930650E-02
3901.288, 3.1815119E-02
3903.217, 3.3063181E-02
3905.145, 3.3803768E-02
3907.073, 3.1063629E-02
3909.002, 3.2128800E-02
3910.930, 3.5930950E-02
3912.859, 3.6203600E-02
3914.787, 3.7987068E-02
3916.716, 4.0097900E-02
3918.644, 3.9464649E-02
3920.573, 3.5963021E-02
3922.501, 3.3733930E-02
3924.430, 3.3169281E-02
3926.358, 3.1938180E-02
3928.287, 3.1067921E-02
3930.215, 2.9586580E-02
3932.144, 2.8277410E-02
3934.072, 3.1536791E-02
3936.000, 3.2763701E-02
3937.929, 3.2318950E-02
3939.857, 3.5399690E-02
3941.786, 3.5972729E-02
3943.714, 3.8555879E-02
3945.643, 3.8127661E-02
3947.571, 3.7943691E-02
3949.500, 3.8700651E-02
3951.428, 3.6531840E-02
3953.357, 3.8249221E-02
3955.285, 4.0516779E-02
3957.214, 4.0097728E-02
3959.142, 3.8433429E-02
3961.071, 3.8362231E-02
3962.999, 3.6207620E-02
3964.927, 3.6310840E-02
3966.856, 3.7595108E-02
3968.784, 3.6593441E-02
3970.713, 3.6466360E-02
3972.641, 3.7059311E-02
3974.570, 3.7185751E-02
3976.498, 3.4948248E-02
3978.427, 3.2712720E-02
3980.355, 3.8422510E-02
3982.284, 3.7732560E-02
3984.212, 3.2187391E-02
3986.141, 3.3350039E-02
3988.069, 3.7232392E-02
3989.998, 4.0499080E-02
3991.926, 4.2162061E-02
3993.854, 4.0515471E-02
3995.783, 3.9840609E-02
3997.711, 4.1452579E-02
3999.640, 4.1472569E-02
##END=



