##NAMES=Rutile
##RRUFFID=R050417
##IDEAL CHEMISTRY=Ti^4+^O_2_
##LOCALITY=Champion mine, Mono County, California, USA
##OWNER=RRUFF
##SOURCE=Marcus Origlieri
##DESCRIPTION=Reddish black equant crystals
##STATUS=The identification of this mineral has been confirmed by X-ray diffraction and chemical analysis
##URL=rruff.info/R050417
##MEASURED CHEMISTRY=TiO_2_
399.1926, 0.2542753
401.1211, 0.2450401
403.0496, 0.2462182
404.9780, 0.2421559
406.9065, 0.2485726
408.8350, 0.2522207
410.7634, 0.2477221
412.6919, 0.2397469
414.6204, 0.2309788
416.5488, 0.2277249
418.4773, 0.2286747
420.4058, 0.2294849
422.3342, 0.2315844
424.2627, 0.2322444
426.1912, 0.2316768
428.1196, 0.2298803
430.0481, 0.2255459
431.9766, 0.2239622
433.9050, 0.2268158
435.8335, 0.2268431
437.7620, 0.2279717
439.6904, 0.2324014
441.6189, 0.2365117
443.5474, 0.2411896
445.4758, 0.2448569
447.4043, 0.2505292
449.3328, 0.2571611
451.2612, 0.2625129
453.1897, 0.2674186
455.1182, 0.2730185
457.0466, 0.2813703
458.9751, 0.2900899
460.9036, 0.2929532
462.8320, 0.2952661
464.7605, 0.2976349
466.6890, 0.3011891
468.6174, 0.3042490
470.5459, 0.3070515
472.4744, 0.3108829
474.4028, 0.3139996
476.3313, 0.3172564
478.2598, 0.3173636
480.1882, 0.3205820
482.1167, 0.3256862
484.0452, 0.3275603
485.9736, 0.3283522
487.9021, 0.3279991
489.8306, 0.3293427
491.7590, 0.3319156
493.6875, 0.3336570
495.6160, 0.3324898
497.5444, 0.3300068
499.4729, 0.3282928
501.4014, 0.3263403
503.3298, 0.3248771
505.2583, 0.3237553
507.1868, 0.3215311
509.1152, 0.3170799
511.0437, 0.3140051
512.9722, 0.3121077
514.9006, 0.3082595
516.8291, 0.3071025
518.7576, 0.3061449
520.6860, 0.3021913
522.6145, 0.2991639
524.5430, 0.2974510
526.4714, 0.2940198
528.3999, 0.2897419
530.3284, 0.2876522
532.2568, 0.2868747
534.1853, 0.2862185
536.1138, 0.2845804
538.0422, 0.2821673
539.9707, 0.2796732
541.8992, 0.2780085
543.8276, 0.2767541
545.7561, 0.2750634
547.6846, 0.2736444
549.6130, 0.2719443
551.5415, 0.2698573
553.4700, 0.2691385
555.3984, 0.2684600
557.3269, 0.2680274
559.2554, 0.2677555
561.1838, 0.2667197
563.1123, 0.2662089
565.0408, 0.2648809
566.9692, 0.2634867
568.8977, 0.2616438
570.8262, 0.2608950
572.7546, 0.2598815
574.6831, 0.2587125
576.6116, 0.2576906
578.5400, 0.2567996
580.4685, 0.2566892
582.3970, 0.2558487
584.3254, 0.2548522
586.2539, 0.2537861
588.1824, 0.2521950
590.1108, 0.2501684
592.0393, 0.2478031
593.9678, 0.2469318
595.8962, 0.2466348
597.8247, 0.2447114
599.7532, 0.2435268
601.6816, 0.2420375
603.6101, 0.2398124
605.5386, 0.2386913
607.4670, 0.2370233
609.3955, 0.2355012
611.3240, 0.2339432
613.2524, 0.2321276
615.1809, 0.2299532
617.1094, 0.2272810
619.0378, 0.2262440
620.9663, 0.2248156
622.8948, 0.2223211
624.8232, 0.2206500
626.7517, 0.2190179
628.6802, 0.2176262
630.6086, 0.2162295
632.5371, 0.2142360
634.4656, 0.2123689
636.3940, 0.2111277
638.3225, 0.2092940
640.2510, 0.2069540
642.1794, 0.2051525
644.1079, 0.2037292
646.0364, 0.2022569
647.9648, 0.2005273
649.8933, 0.1986515
651.8218, 0.1970712
653.7502, 0.1956029
655.6787, 0.1941025
657.6072, 0.1919122
659.5356, 0.1904923
661.4641, 0.1897751
663.3926, 0.1880111
665.3210, 0.1862366
667.2495, 0.1847076
669.1780, 0.1826765
671.1064, 0.1810913
673.0349, 0.1793314
674.9634, 0.1775406
676.8918, 0.1760314
678.8203, 0.1745938
680.7488, 0.1733458
682.6772, 0.1713896
684.6057, 0.1694068
686.5342, 0.1680461
688.4626, 0.1669735
690.3911, 0.1657000
692.3196, 0.1643482
694.2480, 0.1624116
696.1765, 0.1604632
698.1050, 0.1591645
700.0334, 0.1580080
701.9619, 0.1564445
703.8904, 0.1543073
705.8188, 0.1527845
707.7473, 0.1514167
709.6758, 0.1496545
711.6042, 0.1476859
713.5327, 0.1460810
715.4612, 0.1446349
717.3896, 0.1426625
719.3181, 0.1404492
721.2466, 0.1392981
723.1750, 0.1380794
725.1035, 0.1359036
727.0320, 0.1341657
728.9604, 0.1324563
730.8889, 0.1304809
732.8174, 0.1287619
734.7458, 0.1269999
736.6743, 0.1252631
738.6028, 0.1232344
740.5313, 0.1207948
742.4597, 0.1191009
744.3882, 0.1178641
746.3167, 0.1161100
748.2451, 0.1139532
750.1736, 0.1116698
752.1021, 0.1098079
754.0305, 0.1083365
755.9590, 0.1067600
757.8875, 0.1050116
759.8159, 0.1030635
761.7444, 0.1012796
763.6729, 9.9888228E-02
765.6013, 9.8039784E-02
767.5298, 9.6271507E-02
769.4583, 9.4779417E-02
771.3867, 9.2758089E-02
773.3152, 9.0892456E-02
775.2437, 8.9292519E-02
777.1721, 8.7734737E-02
779.1006, 8.6076461E-02
781.0291, 8.4516287E-02
782.9575, 8.2951449E-02
784.8860, 8.1302017E-02
786.8145, 8.0044411E-02
788.7429, 7.8597084E-02
790.6714, 7.6985367E-02
792.5999, 7.5379796E-02
794.5283, 7.3848248E-02
796.4568, 7.2544180E-02
798.3853, 7.0953980E-02
800.3137, 6.9771342E-02
802.2422, 6.8704598E-02
804.1707, 6.7456432E-02
806.0991, 6.6426188E-02
808.0276, 6.5301560E-02
809.9561, 6.3782640E-02
811.8845, 6.2173489E-02
813.8130, 6.0876429E-02
815.7415, 5.9939612E-02
817.6699, 5.8928169E-02
819.5984, 5.7431441E-02
821.5269, 5.6300469E-02
823.4553, 5.5703480E-02
825.3838, 5.4754078E-02
827.3123, 5.3729620E-02
829.2407, 5.2533809E-02
831.1692, 5.1687218E-02
833.0977, 5.1256020E-02
835.0261, 5.0553478E-02
836.9546, 4.9391989E-02
838.8831, 4.8404291E-02
840.8115, 4.7697779E-02
842.7400, 4.7072560E-02
844.6685, 4.6333559E-02
846.5969, 4.5634061E-02
848.5254, 4.5081809E-02
850.4539, 4.4359401E-02
852.3823, 4.3716721E-02
854.3108, 4.3291051E-02
856.2393, 4.2793289E-02
858.1677, 4.2641960E-02
860.0962, 4.2302199E-02
862.0247, 4.1543771E-02
863.9531, 4.1222919E-02
865.8816, 4.0993191E-02
867.8101, 4.0677048E-02
869.7385, 4.0413130E-02
871.6670, 4.0026329E-02
873.5955, 3.9759181E-02
875.5239, 3.9460368E-02
877.4524, 3.9032329E-02
879.3809, 3.8868189E-02
881.3093, 3.8540181E-02
883.2378, 3.8320981E-02
885.1663, 3.7838399E-02
887.0947, 3.7342761E-02
889.0232, 3.6892079E-02
890.9517, 3.6985129E-02
892.8801, 3.7165619E-02
894.8085, 3.6851581E-02
896.7370, 3.6311351E-02
898.6655, 3.5817038E-02
900.5939, 3.5556622E-02
902.5224, 3.5595071E-02
904.4509, 3.5749931E-02
906.3793, 3.5603009E-02
908.3078, 3.5045139E-02
910.2363, 3.4242939E-02
912.1647, 3.3877451E-02
914.0932, 3.3865388E-02
916.0217, 3.3827242E-02
917.9501, 3.3581171E-02
919.8786, 3.3301260E-02
921.8071, 3.3230141E-02
923.7355, 3.3239901E-02
925.6640, 3.2948028E-02
927.5925, 3.2507490E-02
929.5209, 3.2350268E-02
931.4494, 3.2277338E-02
933.3779, 3.1988669E-02
935.3063, 3.1866811E-02
937.2348, 3.1831019E-02
939.1633, 3.2059181E-02
941.0917, 3.2329850E-02
943.0202, 3.2269530E-02
944.9487, 3.2186020E-02
946.8771, 3.2212179E-02
948.8056, 3.2135829E-02
950.7341, 3.2035861E-02
952.6625, 3.1932600E-02
954.5910, 3.1591669E-02
956.5195, 3.1194421E-02
958.4479, 3.0747030E-02
960.3764, 3.0467279E-02
962.3049, 3.0376460E-02
964.2333, 3.0050270E-02
966.1618, 2.9809020E-02
968.0903, 2.9895831E-02
970.0187, 2.9814851E-02
971.9472, 2.9829880E-02
973.8757, 2.9728681E-02
975.8041, 2.9732510E-02
977.7326, 2.9830150E-02
979.6611, 2.9820571E-02
981.5895, 2.9765910E-02
983.5180, 2.9836129E-02
985.4465, 2.9972941E-02
987.3749, 3.0074149E-02
989.3034, 3.0173650E-02
991.2319, 3.0312341E-02
993.1603, 3.0318500E-02
995.0888, 3.0268891E-02
997.0173, 3.0332100E-02
998.9457, 3.0364349E-02
1000.874, 3.0444561E-02
1002.803, 3.0695381E-02
1004.731, 3.0782171E-02
1006.660, 3.0973559E-02
1008.588, 3.1386491E-02
1010.517, 3.1555280E-02
1012.445, 3.1569730E-02
1014.373, 3.1904578E-02
1016.302, 3.2164332E-02
1018.230, 3.2385752E-02
1020.159, 3.2668561E-02
1022.087, 3.2908261E-02
1024.016, 3.3256751E-02
1025.944, 3.3466700E-02
1027.873, 3.3617370E-02
1029.801, 3.4180809E-02
1031.730, 3.4693241E-02
1033.658, 3.5059381E-02
1035.587, 3.5728969E-02
1037.515, 3.5963841E-02
1039.444, 3.5910960E-02
1041.372, 3.6102761E-02
1043.301, 3.6319599E-02
1045.229, 3.6847722E-02
1047.157, 3.7678171E-02
1049.086, 3.8563929E-02
1051.014, 3.9264999E-02
1052.943, 3.9887410E-02
1054.871, 4.0533699E-02
1056.800, 4.0533021E-02
1058.728, 4.0344000E-02
1060.657, 4.0228330E-02
1062.585, 3.9544400E-02
1064.514, 3.9226379E-02
1066.442, 3.9658070E-02
1068.371, 4.0126700E-02
1070.299, 4.0068291E-02
1072.228, 3.9933588E-02
1074.156, 3.9379381E-02
1076.084, 3.8536832E-02
1078.013, 3.7522789E-02
1079.941, 3.6607958E-02
1081.870, 3.5807218E-02
1083.798, 3.4785978E-02
1085.727, 3.3759709E-02
1087.655, 3.3071820E-02
1089.584, 3.2578081E-02
1091.512, 3.2055669E-02
1093.441, 3.1937510E-02
1095.369, 3.1885549E-02
1097.298, 3.1548981E-02
1099.226, 3.1614851E-02
1101.155, 3.1655431E-02
1103.083, 3.1326760E-02
1105.011, 3.1034010E-02
1106.940, 3.1211630E-02
1108.868, 3.1683140E-02
1110.797, 3.1806879E-02
1112.725, 3.1926531E-02
1114.654, 3.2031499E-02
1116.582, 3.2426272E-02
1118.511, 3.3115029E-02
1120.439, 3.3724800E-02
1122.368, 3.4038279E-02
1124.296, 3.4006339E-02
1126.225, 3.3770490E-02
1128.153, 3.3545628E-02
1130.082, 3.3439640E-02
1132.010, 3.3329539E-02
1133.938, 3.3066049E-02
1135.867, 3.2701861E-02
1137.795, 3.2555278E-02
1139.724, 3.2660268E-02
1141.652, 3.2829661E-02
1143.581, 3.3237621E-02
1145.509, 3.3452261E-02
1147.438, 3.3353060E-02
1149.366, 3.3257820E-02
1151.295, 3.3190422E-02
1153.223, 3.3232778E-02
1155.152, 3.3426050E-02
1157.080, 3.3493608E-02
1159.009, 3.3414111E-02
1160.937, 3.3573959E-02
1162.865, 3.3668570E-02
1164.794, 3.3777721E-02
1166.722, 3.3914112E-02
1168.651, 3.3907771E-02
1170.579, 3.4194790E-02
1172.508, 3.4549639E-02
1174.436, 3.4592219E-02
1176.365, 3.4599058E-02
1178.293, 3.4663878E-02
1180.222, 3.4904480E-02
1182.150, 3.5220489E-02
1184.079, 3.5395190E-02
1186.007, 3.5717450E-02
1187.936, 3.5819031E-02
1189.864, 3.5899699E-02
1191.792, 3.6192611E-02
1193.721, 3.6429189E-02
1195.649, 3.6559410E-02
1197.578, 3.6540590E-02
1199.506, 3.6713120E-02
1201.435, 3.6943581E-02
1203.363, 3.7064768E-02
1205.292, 3.7466019E-02
1207.220, 3.7692271E-02
1209.149, 3.7776630E-02
1211.077, 3.7943318E-02
1213.006, 3.8204860E-02
1214.934, 3.8482931E-02
1216.863, 3.8651280E-02
1218.791, 3.9059710E-02
1220.719, 3.9523982E-02
1222.648, 3.9755002E-02
1224.576, 3.9968379E-02
1226.505, 4.0369879E-02
1228.433, 4.0662680E-02
1230.362, 4.0925719E-02
1232.290, 4.1134030E-02
1234.219, 4.1440200E-02
1236.147, 4.1761711E-02
1238.076, 4.2216051E-02
1240.004, 4.2734511E-02
1241.933, 4.3097921E-02
1243.861, 4.3434020E-02
1245.790, 4.3702751E-02
1247.718, 4.4005040E-02
1249.646, 4.4376981E-02
1251.575, 4.4741761E-02
1253.503, 4.5188829E-02
1255.432, 4.5471001E-02
1257.360, 4.5912821E-02
1259.289, 4.6462491E-02
1261.217, 4.6808269E-02
1263.146, 4.6956930E-02
1265.074, 4.7247980E-02
1267.003, 4.7944728E-02
1268.931, 4.8587319E-02
1270.860, 4.9017739E-02
1272.788, 4.9639110E-02
1274.717, 5.0291952E-02
1276.645, 5.0757900E-02
1278.573, 5.1343020E-02
1280.502, 5.1710099E-02
1282.430, 5.1617000E-02
1284.359, 5.1601250E-02
1286.287, 5.1841170E-02
1288.216, 5.2134231E-02
1290.144, 5.2339260E-02
1292.073, 5.2586261E-02
1294.001, 5.2853979E-02
1295.930, 5.3055171E-02
1297.858, 5.3400900E-02
1299.787, 5.3999878E-02
1301.715, 5.4766741E-02
1303.644, 5.5288099E-02
1305.572, 5.5403039E-02
1307.500, 5.5693910E-02
1309.429, 5.6164600E-02
1311.357, 5.6744751E-02
1313.286, 5.7287280E-02
1315.214, 5.7634689E-02
1317.143, 5.8197770E-02
1319.071, 5.8472011E-02
1321.000, 5.8769360E-02
1322.928, 5.9141058E-02
1324.857, 5.9298750E-02
1326.785, 5.9852570E-02
1328.714, 6.0524639E-02
1330.642, 6.0818061E-02
1332.571, 6.1284881E-02
1334.499, 6.2089089E-02
1336.427, 6.2521823E-02
1338.356, 6.3070297E-02
1340.284, 6.3512377E-02
1342.213, 6.3821010E-02
1344.141, 6.4429410E-02
1346.070, 6.4718209E-02
1347.998, 6.5368257E-02
1349.927, 6.6002160E-02
1351.855, 6.6420183E-02
1353.784, 6.6880859E-02
1355.712, 6.7322917E-02
1357.641, 6.7858167E-02
1359.569, 6.8333857E-02
1361.498, 6.8798304E-02
1363.426, 6.9581978E-02
1365.354, 7.0118070E-02
1367.283, 7.0348367E-02
1369.211, 7.0918180E-02
1371.140, 7.1388967E-02
1373.068, 7.1968041E-02
1374.997, 7.2481878E-02
1376.925, 7.2821163E-02
1378.854, 7.3524266E-02
1380.782, 7.4215949E-02
1382.711, 7.4711204E-02
1384.639, 7.5309761E-02
1386.568, 7.5797863E-02
1388.496, 7.6384500E-02
1390.424, 7.7110089E-02
1392.353, 7.7817157E-02
1394.281, 7.8501150E-02
1396.210, 7.8986026E-02
1398.138, 7.9429358E-02
1400.067, 8.0326810E-02
1401.995, 8.0969363E-02
1403.924, 8.1353933E-02
1405.852, 8.1765860E-02
1407.781, 8.2370982E-02
1409.709, 8.2983419E-02
1411.638, 8.3715104E-02
1413.566, 8.4525727E-02
1415.495, 8.4739827E-02
1417.423, 8.4874727E-02
1419.351, 8.5183866E-02
1421.280, 8.5446984E-02
1423.208, 8.6383186E-02
1425.137, 8.7190941E-02
1427.065, 8.7566517E-02
1428.994, 8.8210464E-02
1430.922, 8.8846900E-02
1432.851, 8.8975340E-02
1434.779, 8.9229383E-02
1436.708, 8.9793712E-02
1438.636, 9.0283938E-02
1440.565, 9.0789206E-02
1442.493, 9.1218501E-02
1444.422, 9.1754086E-02
1446.350, 9.2263743E-02
1448.278, 9.3140423E-02
1450.207, 9.3717657E-02
1452.135, 9.4226331E-02
1454.064, 9.4625920E-02
1455.992, 9.4619133E-02
1457.921, 9.4777882E-02
1459.849, 9.5069848E-02
1461.778, 9.5527068E-02
1463.706, 9.6106887E-02
1465.635, 9.6240640E-02
1467.563, 9.6400641E-02
1469.492, 9.6752219E-02
1471.420, 9.7144201E-02
1473.349, 9.7598672E-02
1475.277, 9.7840153E-02
1477.205, 9.7791582E-02
1479.134, 9.8160572E-02
1481.062, 9.8541833E-02
1482.991, 9.8806277E-02
1484.919, 9.9321723E-02
1486.848, 9.9537790E-02
1488.776, 9.9505067E-02
1490.705, 9.9691167E-02
1492.633, 0.1003972
1494.562, 0.1007842
1496.490, 0.1009958
1498.419, 0.1010958
1500.347, 0.1018077
1502.276, 0.1025879
1504.204, 0.1030437
1506.132, 0.1031588
1508.061, 0.1034828
1509.989, 0.1039303
1511.918, 0.1041779
1513.846, 0.1043409
1515.775, 0.1047530
1517.703, 0.1052351
1519.632, 0.1051999
1521.560, 0.1054750
1523.489, 0.1063471
1525.417, 0.1068610
1527.346, 0.1072686
1529.274, 0.1077564
1531.203, 0.1082787
1533.131, 0.1086115
1535.059, 0.1090615
1536.988, 0.1098133
1538.916, 0.1103051
1540.845, 0.1105397
1542.773, 0.1107538
1544.702, 0.1111138
1546.630, 0.1118754
1548.559, 0.1128360
1550.487, 0.1133193
1552.416, 0.1137073
1554.344, 0.1142313
1556.273, 0.1144952
1558.201, 0.1149192
1560.130, 0.1152437
1562.058, 0.1156234
1563.986, 0.1160978
1565.915, 0.1165160
1567.843, 0.1169454
1569.772, 0.1170933
1571.700, 0.1171904
1573.629, 0.1176850
1575.557, 0.1180791
1577.486, 0.1183781
1579.414, 0.1190802
1581.343, 0.1192515
1583.271, 0.1193540
1585.200, 0.1199218
1587.128, 0.1205751
1589.057, 0.1209416
1590.985, 0.1213426
1592.913, 0.1218285
1594.842, 0.1221864
1596.770, 0.1223826
1598.699, 0.1230652
1600.627, 0.1236583
1602.556, 0.1241016
1604.484, 0.1243436
1606.413, 0.1243902
1608.341, 0.1247380
1610.270, 0.1253628
1612.198, 0.1256222
1614.127, 0.1262309
1616.055, 0.1265174
1617.984, 0.1265433
1619.912, 0.1270048
1621.840, 0.1272686
1623.769, 0.1277742
1625.697, 0.1282362
1627.626, 0.1288768
1629.554, 0.1296184
1631.483, 0.1296275
1633.411, 0.1296884
1635.340, 0.1302628
1637.268, 0.1305623
1639.197, 0.1308475
1641.125, 0.1310491
1643.054, 0.1315242
1644.982, 0.1322302
1646.911, 0.1325638
1648.839, 0.1324665
1650.767, 0.1325602
1652.696, 0.1330286
1654.624, 0.1336845
1656.553, 0.1338749
1658.481, 0.1339151
1660.410, 0.1340804
1662.338, 0.1345145
1664.267, 0.1352406
1666.195, 0.1356681
1668.124, 0.1356053
1670.052, 0.1356489
1671.981, 0.1360766
1673.909, 0.1362469
1675.838, 0.1363160
1677.766, 0.1364153
1679.694, 0.1363380
1681.623, 0.1365428
1683.551, 0.1368458
1685.480, 0.1373796
1687.408, 0.1379235
1689.337, 0.1381793
1691.265, 0.1385499
1693.194, 0.1388470
1695.122, 0.1394081
1697.051, 0.1398841
1698.979, 0.1397639
1700.908, 0.1397514
1702.836, 0.1402280
1704.765, 0.1404608
1706.693, 0.1405932
1708.621, 0.1408657
1710.550, 0.1411766
1712.478, 0.1413315
1714.407, 0.1421014
1716.335, 0.1425587
1718.264, 0.1425944
1720.192, 0.1427994
1722.121, 0.1432014
1724.049, 0.1436421
1725.978, 0.1441616
1727.906, 0.1443953
1729.835, 0.1441769
1731.763, 0.1439975
1733.692, 0.1437168
1735.620, 0.1433950
1737.548, 0.1434577
1739.477, 0.1435127
1741.405, 0.1436052
1743.334, 0.1437662
1745.262, 0.1437692
1747.191, 0.1438645
1749.119, 0.1442919
1751.048, 0.1450985
1752.976, 0.1458427
1754.905, 0.1462967
1756.833, 0.1471865
1758.762, 0.1481178
1760.690, 0.1489630
1762.619, 0.1497625
1764.547, 0.1504591
1766.475, 0.1503355
1768.404, 0.1502290
1770.332, 0.1508142
1772.261, 0.1511383
1774.189, 0.1510431
1776.118, 0.1512917
1778.046, 0.1523285
1779.975, 0.1531290
1781.903, 0.1536790
1783.832, 0.1542281
1785.760, 0.1548424
1787.689, 0.1552409
1789.617, 0.1553924
1791.546, 0.1554652
1793.474, 0.1555984
1795.402, 0.1557298
1797.331, 0.1557559
1799.259, 0.1559815
1801.188, 0.1564328
1803.116, 0.1572169
1805.045, 0.1577384
1806.973, 0.1580316
1808.902, 0.1582178
1810.830, 0.1577105
1812.759, 0.1577567
1814.687, 0.1584897
1816.616, 0.1588079
1818.544, 0.1594427
1820.473, 0.1601153
1822.401, 0.1608822
1824.329, 0.1616866
1826.258, 0.1613813
1828.186, 0.1612887
1830.115, 0.1615870
1832.043, 0.1616061
1833.972, 0.1622553
1835.900, 0.1628560
1837.829, 0.1633429
1839.757, 0.1639460
1841.686, 0.1639459
1843.614, 0.1641910
1845.543, 0.1648069
1847.471, 0.1649474
1849.400, 0.1649644
1851.328, 0.1649077
1853.256, 0.1639775
1855.185, 0.1643345
1857.113, 0.1648781
1859.042, 0.1653891
1860.970, 0.1669518
1862.899, 0.1679335
1864.827, 0.1681369
1866.756, 0.1685312
1868.684, 0.1684965
1870.613, 0.1682649
1872.541, 0.1689043
1874.470, 0.1694004
1876.398, 0.1690481
1878.327, 0.1692674
1880.255, 0.1703805
1882.183, 0.1702902
1884.112, 0.1704778
1886.040, 0.1711828
1887.969, 0.1713262
1889.897, 0.1713107
1891.826, 0.1716926
1893.754, 0.1714407
1895.683, 0.1722155
1897.611, 0.1721714
1899.540, 0.1713205
1901.468, 0.1724521
1903.397, 0.1737533
1905.325, 0.1739245
1907.254, 0.1746289
1909.182, 0.1747733
1911.110, 0.1742967
1913.039, 0.1760487
1914.967, 0.1768445
1916.896, 0.1762973
1918.824, 0.1757404
1920.753, 0.1759782
1922.681, 0.1767372
1924.610, 0.1768047
1926.538, 0.1780679
1928.467, 0.1785183
1930.395, 0.1777266
1932.324, 0.1778132
1934.252, 0.1784676
1936.181, 0.1799190
1938.109, 0.1801372
1940.037, 0.1787367
1941.966, 0.1790625
1943.894, 0.1792141
1945.823, 0.1804648
1947.751, 0.1806870
1949.680, 0.1789878
1951.608, 0.1797963
1953.537, 0.1811115
1955.465, 0.1799431
1957.394, 0.1783517
1959.322, 0.1789631
1961.251, 0.1807178
1963.179, 0.1829336
1965.108, 0.1835516
1967.036, 0.1828949
1968.964, 0.1840648
1970.893, 0.1839171
1972.821, 0.1840845
1974.750, 0.1840174
1976.678, 0.1841575
1978.607, 0.1864246
1980.535, 0.1867299
1982.464, 0.1855314
1984.392, 0.1878790
1986.321, 0.1889265
1988.249, 0.1887127
1990.178, 0.1867580
1992.106, 0.1858845
1994.035, 0.1864120
1995.963, 0.1873726
1997.891, 0.1881280
1999.820, 0.1850868
2001.748, 0.1852842
2003.677, 0.1857552
2005.605, 0.1854916
2007.534, 0.1886158
2009.462, 0.1897445
2011.391, 0.1885786
2013.319, 0.1881411
2015.248, 0.1893217
2017.176, 0.1907023
2019.105, 0.1906463
2021.033, 0.1886484
2022.962, 0.1861294
2024.890, 0.1890700
2026.818, 0.1896090
2028.747, 0.1880812
2030.675, 0.1904449
2032.604, 0.1930669
2034.532, 0.1944210
2036.461, 0.1956294
2038.389, 0.1951913
2040.318, 0.1937696
2042.246, 0.1933425
2044.175, 0.1938051
2046.103, 0.1937435
2048.032, 0.1944506
2049.960, 0.1956312
2051.889, 0.1956572
2053.817, 0.1950371
2055.746, 0.1955227
2057.674, 0.1956541
2059.603, 0.1957932
2061.531, 0.1957193
2063.459, 0.1961764
2065.388, 0.1971666
2067.316, 0.1970510
2069.245, 0.1971929
2071.173, 0.1967867
2073.102, 0.1983524
2075.030, 0.2006632
2076.959, 0.1996233
2078.887, 0.1993822
2080.816, 0.2004388
2082.744, 0.2000793
2084.673, 0.1995787
2086.601, 0.1988641
2088.530, 0.2009551
2090.458, 0.2010660
2092.386, 0.1979037
2094.315, 0.1982391
2096.243, 0.2007215
2098.172, 0.2019619
2100.100, 0.2013200
2102.029, 0.2004060
2103.957, 0.2014978
2105.886, 0.2017741
2107.814, 0.2012267
2109.743, 0.2025350
2111.671, 0.2028143
2113.600, 0.2036119
2115.528, 0.2029578
2117.457, 0.2011286
2119.385, 0.2013045
2121.313, 0.2039735
2123.242, 0.2044892
2125.170, 0.2034054
2127.099, 0.2027614
2129.027, 0.2021613
2130.956, 0.2021857
2132.884, 0.2024664
2134.813, 0.2038492
2136.741, 0.2030613
2138.670, 0.2035981
2140.598, 0.2046481
2142.527, 0.2051524
2144.455, 0.2060140
2146.384, 0.2057299
2148.312, 0.2049649
2150.240, 0.2070965
2152.169, 0.2067568
2154.097, 0.2022404
2156.026, 0.1984634
2157.954, 0.2021048
2159.883, 0.2078251
2161.811, 0.2069056
2163.740, 0.2071879
2165.668, 0.2102066
2167.597, 0.2104811
2169.525, 0.2083305
2171.454, 0.2093831
2173.382, 0.2094476
2175.311, 0.2101373
2177.239, 0.2116124
2179.167, 0.2098591
2181.096, 0.2114508
2183.024, 0.2137283
2184.953, 0.2135849
2186.881, 0.2132902
2188.810, 0.2139499
2190.738, 0.2139562
2192.667, 0.2123545
2194.595, 0.2119970
2196.524, 0.2108079
2198.452, 0.2109628
2200.381, 0.2129642
2202.309, 0.2143914
2204.238, 0.2144172
2206.166, 0.2164239
2208.094, 0.2173319
2210.023, 0.2143404
2211.951, 0.2125811
2213.880, 0.2139328
2215.808, 0.2152574
2217.737, 0.2169031
2219.665, 0.2181217
2221.594, 0.2166855
2223.522, 0.2164983
2225.451, 0.2186517
2227.379, 0.2197463
2229.308, 0.2175644
2231.236, 0.2156600
2233.165, 0.2177670
2235.093, 0.2201029
2237.021, 0.2196977
2238.950, 0.2181255
2240.878, 0.2165173
2242.807, 0.2151466
2244.735, 0.2167553
2246.664, 0.2172393
2248.592, 0.2183794
2250.521, 0.2194200
2252.449, 0.2200247
2254.378, 0.2217123
2256.306, 0.2217922
2258.235, 0.2224636
2260.163, 0.2217812
2262.092, 0.2204929
2264.020, 0.2206455
2265.948, 0.2213041
2267.877, 0.2214746
2269.805, 0.2221393
2271.734, 0.2227467
2273.662, 0.2232559
2275.591, 0.2240694
2277.519, 0.2236198
2279.448, 0.2226827
2281.376, 0.2223647
2283.305, 0.2235238
2285.233, 0.2231333
2287.162, 0.2237186
2289.090, 0.2251610
2291.019, 0.2247728
2292.947, 0.2237572
2294.875, 0.2227615
2296.804, 0.2225731
2298.732, 0.2229791
2300.661, 0.2240882
2302.589, 0.2246317
2304.518, 0.2243109
2306.446, 0.2246900
2308.375, 0.2255790
2310.303, 0.2260961
2312.232, 0.2266589
2314.160, 0.2272707
2316.089, 0.2267073
2318.017, 0.2263787
2319.946, 0.2270252
2321.874, 0.2283764
2323.802, 0.2284308
2325.731, 0.2266725
2327.659, 0.2259278
2329.588, 0.2265787
2331.516, 0.2269974
2333.445, 0.2264769
2335.373, 0.2263801
2337.302, 0.2273587
2339.230, 0.2282269
2341.159, 0.2283311
2343.087, 0.2276520
2345.016, 0.2269358
2346.944, 0.2265366
2348.873, 0.2275141
2350.801, 0.2289870
2352.729, 0.2290311
2354.658, 0.2296986
2356.586, 0.2307470
2358.515, 0.2303708
2360.443, 0.2304602
2362.372, 0.2304143
2364.300, 0.2301546
2366.229, 0.2299214
2368.157, 0.2296108
2370.086, 0.2307546
2372.014, 0.2317154
2373.942, 0.2314163
2375.871, 0.2306536
2377.799, 0.2309363
2379.728, 0.2311093
2381.656, 0.2306663
2383.585, 0.2308609
2385.513, 0.2311277
2387.442, 0.2322286
2389.370, 0.2331444
2391.299, 0.2324996
2393.227, 0.2320954
2395.156, 0.2330050
2397.084, 0.2335725
2399.012, 0.2333192
2400.941, 0.2340336
2402.869, 0.2338734
2404.798, 0.2332145
2406.726, 0.2335714
2408.655, 0.2342567
2410.583, 0.2343550
2412.512, 0.2345306
2414.440, 0.2345906
2416.369, 0.2352292
2418.297, 0.2349993
2420.226, 0.2347412
2422.154, 0.2353275
2424.083, 0.2361235
2426.011, 0.2373752
2427.939, 0.2375615
2429.868, 0.2369130
2431.796, 0.2362899
2433.725, 0.2367927
2435.653, 0.2372808
2437.582, 0.2376034
2439.510, 0.2373540
2441.439, 0.2376880
2443.367, 0.2374062
2445.296, 0.2377973
2447.224, 0.2386454
2449.153, 0.2386622
2451.081, 0.2397065
2453.010, 0.2405665
2454.938, 0.2398619
2456.866, 0.2402084
2458.795, 0.2399312
2460.723, 0.2394335
2462.652, 0.2401496
2464.580, 0.2408780
2466.509, 0.2413865
2468.437, 0.2417390
2470.366, 0.2416578
2472.294, 0.2418084
2474.223, 0.2410205
2476.151, 0.2412511
2478.080, 0.2419382
2480.008, 0.2406528
2481.937, 0.2398383
2483.865, 0.2417563
2485.793, 0.2426400
2487.722, 0.2421747
2489.650, 0.2423549
2491.579, 0.2420070
2493.507, 0.2420264
2495.436, 0.2438271
2497.364, 0.2451687
2499.293, 0.2440093
2501.221, 0.2435088
2503.150, 0.2433884
2505.078, 0.2426625
2507.007, 0.2425471
2508.935, 0.2434119
2510.864, 0.2445962
2512.792, 0.2441676
2514.720, 0.2431970
2516.649, 0.2438269
2518.577, 0.2445090
2520.506, 0.2443703
2522.434, 0.2435101
2524.363, 0.2432882
2526.291, 0.2439967
2528.220, 0.2449858
2530.148, 0.2468271
2532.077, 0.2485182
2534.005, 0.2475112
2535.934, 0.2449036
2537.862, 0.2443823
2539.791, 0.2458769
2541.719, 0.2466624
2543.647, 0.2481938
2545.576, 0.2486603
2547.504, 0.2481147
2549.433, 0.2478289
2551.361, 0.2475409
2553.290, 0.2480981
2555.218, 0.2490050
2557.147, 0.2486173
2559.075, 0.2491702
2561.004, 0.2494716
2562.932, 0.2491210
2564.861, 0.2495206
2566.789, 0.2506457
2568.718, 0.2489079
2570.646, 0.2476425
2572.574, 0.2486234
2574.503, 0.2499013
2576.431, 0.2508639
2578.360, 0.2505595
2580.288, 0.2510597
2582.217, 0.2519352
2584.145, 0.2512691
2586.074, 0.2508825
2588.002, 0.2512700
2589.931, 0.2516802
2591.859, 0.2513376
2593.788, 0.2514322
2595.716, 0.2525224
2597.645, 0.2532339
2599.573, 0.2528565
2601.501, 0.2513021
2603.430, 0.2512044
2605.358, 0.2519250
2607.287, 0.2515172
2609.215, 0.2518573
2611.144, 0.2520513
2613.072, 0.2527721
2615.001, 0.2535070
2616.929, 0.2536325
2618.858, 0.2547929
2620.786, 0.2551650
2622.715, 0.2546832
2624.643, 0.2537065
2626.572, 0.2541623
2628.500, 0.2555149
2630.428, 0.2551927
2632.357, 0.2547661
2634.285, 0.2556516
2636.214, 0.2557724
2638.142, 0.2563185
2640.071, 0.2559552
2641.999, 0.2567108
2643.928, 0.2577598
2645.856, 0.2574849
2647.785, 0.2573728
2649.713, 0.2565385
2651.642, 0.2565053
2653.570, 0.2573593
2655.499, 0.2570879
2657.427, 0.2565388
2659.355, 0.2568402
2661.284, 0.2567252
2663.212, 0.2574812
2665.141, 0.2586026
2667.069, 0.2574989
2668.998, 0.2561347
2670.926, 0.2559323
2672.855, 0.2564882
2674.783, 0.2566947
2676.712, 0.2573033
2678.640, 0.2574452
2680.569, 0.2574318
2682.497, 0.2570201
2684.426, 0.2565626
2686.354, 0.2570775
2688.282, 0.2580094
2690.211, 0.2590738
2692.139, 0.2595626
2694.068, 0.2592438
2695.996, 0.2594441
2697.925, 0.2592907
2699.853, 0.2595402
2701.782, 0.2601559
2703.710, 0.2602228
2705.639, 0.2603145
2707.567, 0.2600527
2709.496, 0.2601784
2711.424, 0.2608671
2713.353, 0.2611374
2715.281, 0.2609624
2717.209, 0.2610394
2719.138, 0.2608939
2721.066, 0.2609487
2722.995, 0.2614986
2724.923, 0.2621277
2726.852, 0.2629072
2728.780, 0.2634336
2730.709, 0.2631457
2732.637, 0.2628030
2734.566, 0.2637307
2736.494, 0.2640021
2738.423, 0.2636752
2740.351, 0.2638748
2742.280, 0.2644910
2744.208, 0.2647043
2746.136, 0.2639765
2748.065, 0.2637945
2749.993, 0.2646425
2751.922, 0.2648892
2753.850, 0.2641656
2755.779, 0.2644438
2757.707, 0.2650543
2759.636, 0.2655060
2761.564, 0.2660943
2763.493, 0.2658138
2765.421, 0.2654785
2767.350, 0.2649803
2769.278, 0.2650469
2771.207, 0.2659101
2773.135, 0.2669014
2775.063, 0.2669977
2776.992, 0.2668328
2778.920, 0.2668628
2780.849, 0.2672146
2782.777, 0.2679713
2784.706, 0.2687281
2786.634, 0.2677379
2788.563, 0.2671400
2790.491, 0.2671530
2792.420, 0.2671538
2794.348, 0.2673257
2796.277, 0.2675945
2798.205, 0.2690359
2800.134, 0.2701809
2802.062, 0.2694525
2803.990, 0.2693788
2805.919, 0.2700634
2807.847, 0.2701695
2809.776, 0.2706554
2811.704, 0.2708149
2813.633, 0.2700937
2815.561, 0.2700467
2817.490, 0.2706843
2819.418, 0.2707081
2821.347, 0.2708888
2823.275, 0.2712419
2825.204, 0.2714661
2827.132, 0.2723999
2829.061, 0.2729996
2830.989, 0.2723604
2832.917, 0.2714279
2834.846, 0.2714032
2836.774, 0.2714413
2838.703, 0.2712909
2840.631, 0.2715825
2842.560, 0.2720292
2844.488, 0.2724107
2846.417, 0.2711444
2848.345, 0.2691293
2850.274, 0.2674001
2852.202, 0.2680614
2854.131, 0.2690541
2856.059, 0.2692154
2857.988, 0.2687675
2859.916, 0.2687045
2861.844, 0.2704224
2863.773, 0.2719999
2865.701, 0.2731375
2867.630, 0.2725512
2869.558, 0.2724788
2871.487, 0.2732437
2873.415, 0.2729196
2875.344, 0.2726749
2877.272, 0.2737194
2879.201, 0.2741195
2881.129, 0.2752699
2883.058, 0.2757358
2884.986, 0.2755162
2886.915, 0.2747428
2888.843, 0.2733082
2890.771, 0.2735262
2892.700, 0.2746480
2894.628, 0.2749067
2896.557, 0.2745483
2898.485, 0.2741448
2900.414, 0.2732925
2902.342, 0.2726001
2904.271, 0.2732815
2906.199, 0.2742718
2908.128, 0.2738834
2910.056, 0.2729870
2911.985, 0.2726832
2913.913, 0.2724928
2915.842, 0.2722157
2917.770, 0.2717261
2919.698, 0.2708705
2921.627, 0.2699530
2923.555, 0.2696575
2925.484, 0.2696619
2927.412, 0.2699332
2929.341, 0.2705218
2931.269, 0.2698215
2933.198, 0.2695949
2935.126, 0.2710911
2937.055, 0.2720777
2938.983, 0.2732840
2940.912, 0.2725863
2942.840, 0.2724962
2944.769, 0.2744572
2946.697, 0.2748837
2948.625, 0.2744880
2950.554, 0.2742400
2952.482, 0.2756593
2954.411, 0.2776641
2956.339, 0.2776276
2958.268, 0.2771131
2960.196, 0.2763119
2962.125, 0.2753772
2964.053, 0.2763332
2965.982, 0.2762699
2967.910, 0.2763808
2969.839, 0.2759166
2971.767, 0.2762887
2973.696, 0.2771603
2975.624, 0.2786093
2977.552, 0.2799631
2979.481, 0.2795922
2981.409, 0.2785559
2983.338, 0.2789182
2985.266, 0.2784226
2987.195, 0.2781126
2989.123, 0.2791169
2991.052, 0.2801232
2992.980, 0.2806439
2994.909, 0.2820914
2996.837, 0.2826546
2998.766, 0.2808684
3000.694, 0.2803247
3002.623, 0.2828082
3004.551, 0.2839170
3006.479, 0.2831165
3008.408, 0.2833617
3010.336, 0.2834607
3012.265, 0.2827030
3014.193, 0.2826306
3016.122, 0.2828276
3018.050, 0.2835573
3019.979, 0.2827336
3021.907, 0.2835230
3023.836, 0.2855162
3025.764, 0.2866258
3027.693, 0.2858121
3029.621, 0.2859940
3031.550, 0.2882290
3033.478, 0.2884631
3035.406, 0.2862899
3037.335, 0.2849250
3039.263, 0.2849805
3041.192, 0.2852328
3043.120, 0.2856894
3045.049, 0.2864756
3046.977, 0.2869152
3048.906, 0.2871545
3050.834, 0.2873415
3052.763, 0.2875352
3054.691, 0.2861177
3056.620, 0.2867310
3058.548, 0.2883231
3060.477, 0.2880211
3062.405, 0.2886131
3064.333, 0.2904233
3066.262, 0.2902696
3068.190, 0.2906061
3070.119, 0.2908973
3072.047, 0.2901449
3073.976, 0.2896505
3075.904, 0.2907445
3077.833, 0.2917722
3079.761, 0.2912527
3081.690, 0.2901613
3083.618, 0.2888738
3085.547, 0.2897382
3087.475, 0.2902035
3089.404, 0.2919142
3091.332, 0.2922889
3093.260, 0.2913480
3095.189, 0.2913022
3097.117, 0.2919151
3099.046, 0.2910119
3100.974, 0.2899864
3102.903, 0.2917527
3104.831, 0.2937999
3106.760, 0.2933060
3108.688, 0.2918896
3110.617, 0.2919329
3112.545, 0.2947344
3114.474, 0.2954076
3116.402, 0.2942027
3118.331, 0.2945119
3120.259, 0.2939558
3122.188, 0.2923517
3124.116, 0.2931979
3126.044, 0.2945896
3127.973, 0.2951583
3129.901, 0.2951246
3131.830, 0.2954339
3133.758, 0.2960443
3135.687, 0.2964026
3137.615, 0.2965527
3139.544, 0.2972922
3141.472, 0.2949956
3143.401, 0.2938851
3145.329, 0.2951503
3147.258, 0.2952235
3149.186, 0.2957979
3151.115, 0.2961632
3153.043, 0.2963329
3154.971, 0.2969820
3156.900, 0.2968885
3158.828, 0.2970757
3160.757, 0.2973106
3162.685, 0.2967427
3164.614, 0.2965474
3166.542, 0.2968309
3168.471, 0.2988185
3170.399, 0.2984402
3172.328, 0.2956288
3174.256, 0.2953003
3176.185, 0.2980610
3178.113, 0.2978861
3180.042, 0.2968388
3181.970, 0.2961276
3183.898, 0.2978198
3185.827, 0.2999245
3187.755, 0.3018890
3189.684, 0.3021504
3191.612, 0.2997779
3193.541, 0.2984082
3195.469, 0.2983332
3197.398, 0.2993141
3199.326, 0.3006853
3201.255, 0.3018179
3203.183, 0.3012592
3205.112, 0.2996085
3207.040, 0.2998697
3208.969, 0.3008321
3210.897, 0.3006637
3212.825, 0.3005763
3214.754, 0.3006144
3216.682, 0.2996936
3218.611, 0.2983159
3220.539, 0.2995805
3222.468, 0.3031796
3224.396, 0.3032213
3226.325, 0.3019655
3228.253, 0.3026745
3230.182, 0.3022775
3232.110, 0.3022432
3234.039, 0.3021012
3235.967, 0.3029867
3237.896, 0.3039794
3239.824, 0.3026502
3241.752, 0.3022000
3243.681, 0.3027105
3245.609, 0.3012981
3247.538, 0.3014374
3249.466, 0.3030042
3251.395, 0.3022038
3253.323, 0.3029796
3255.252, 0.3038475
3257.180, 0.3030366
3259.109, 0.3043467
3261.037, 0.3053039
3262.966, 0.3034140
3264.894, 0.3047616
3266.823, 0.3062646
3268.751, 0.3052586
3270.679, 0.3059488
3272.608, 0.3074579
3274.536, 0.3066348
3276.465, 0.3044087
3278.393, 0.3030699
3280.322, 0.3038480
3282.250, 0.3042632
3284.179, 0.3042124
3286.107, 0.3081163
3288.036, 0.3084592
3289.964, 0.3073583
3291.893, 0.3071537
3293.821, 0.3064272
3295.750, 0.3071773
3297.678, 0.3072980
3299.606, 0.3054646
3301.535, 0.3042218
3303.463, 0.3046527
3305.392, 0.3053201
3307.320, 0.3073311
3309.249, 0.3086606
3311.177, 0.3064581
3313.106, 0.3054499
3315.034, 0.3043023
3316.963, 0.3047528
3318.891, 0.3062498
3320.820, 0.3061646
3322.748, 0.3056046
3324.677, 0.3069175
3326.605, 0.3081745
3328.533, 0.3081614
3330.462, 0.3058189
3332.390, 0.3058781
3334.319, 0.3062658
3336.247, 0.3057260
3338.176, 0.3052462
3340.104, 0.3056167
3342.033, 0.3081668
3343.961, 0.3096321
3345.890, 0.3063581
3347.818, 0.3053392
3349.747, 0.3063106
3351.675, 0.3059757
3353.604, 0.3070839
3355.532, 0.3086555
3357.460, 0.3092937
3359.389, 0.3062613
3361.317, 0.3050716
3363.246, 0.3070372
3365.174, 0.3078288
3367.103, 0.3098342
3369.031, 0.3106623
3370.960, 0.3094611
3372.888, 0.3068485
3374.817, 0.3049316
3376.745, 0.3069101
3378.674, 0.3093557
3380.602, 0.3076602
3382.531, 0.3088628
3384.459, 0.3106369
3386.387, 0.3094530
3388.316, 0.3091579
3390.244, 0.3097852
3392.173, 0.3107265
3394.101, 0.3114405
3396.030, 0.3104798
3397.958, 0.3101237
3399.887, 0.3118411
3401.815, 0.3105348
3403.744, 0.3076544
3405.672, 0.3074779
3407.601, 0.3078238
3409.529, 0.3064883
3411.458, 0.3085773
3413.386, 0.3131171
3415.314, 0.3127506
3417.243, 0.3098119
3419.171, 0.3081665
3421.100, 0.3078385
3423.028, 0.3089274
3424.957, 0.3091021
3426.885, 0.3094814
3428.814, 0.3100051
3430.742, 0.3121718
3432.671, 0.3107043
3434.599, 0.3080498
3436.528, 0.3089438
3438.456, 0.3114499
3440.385, 0.3102535
3442.313, 0.3081061
3444.241, 0.3083963
3446.170, 0.3079206
3448.098, 0.3073272
3450.027, 0.3080481
3451.955, 0.3090865
3453.884, 0.3088023
3455.812, 0.3092655
3457.741, 0.3090097
3459.669, 0.3086780
3461.598, 0.3110305
3463.526, 0.3125699
3465.455, 0.3089652
3467.383, 0.3075848
3469.312, 0.3076700
3471.240, 0.3091677
3473.168, 0.3086890
3475.097, 0.3081659
3477.025, 0.3107255
3478.954, 0.3094242
3480.882, 0.3055693
3482.811, 0.3054094
3484.739, 0.3080430
3486.668, 0.3108642
3488.596, 0.3131475
3490.525, 0.3147873
3492.453, 0.3128721
3494.382, 0.3109087
3496.310, 0.3116096
3498.239, 0.3111818
3500.167, 0.3084175
3502.095, 0.3070946
3504.024, 0.3082536
3505.952, 0.3088560
3507.881, 0.3090816
3509.809, 0.3116165
3511.738, 0.3109797
3513.666, 0.3090172
3515.595, 0.3098897
3517.523, 0.3118958
3519.452, 0.3114076
3521.380, 0.3104989
3523.309, 0.3091368
3525.237, 0.3079641
3527.166, 0.3106019
3529.094, 0.3125868
3531.022, 0.3107454
3532.951, 0.3121490
3534.879, 0.3139191
3536.808, 0.3148764
3538.736, 0.3149454
3540.665, 0.3126657
3542.593, 0.3109937
3544.522, 0.3081723
3546.450, 0.3048857
3548.379, 0.3089110
3550.307, 0.3129269
3552.236, 0.3112936
3554.164, 0.3103873
3556.093, 0.3093377
3558.021, 0.3094636
3559.949, 0.3093856
3561.878, 0.3078995
3563.806, 0.3084172
3565.735, 0.3108175
3567.663, 0.3126238
3569.592, 0.3097301
3571.520, 0.3095645
3573.449, 0.3130105
3575.377, 0.3128171
3577.306, 0.3117948
3579.234, 0.3096491
3581.163, 0.3066927
3583.091, 0.3071221
3585.020, 0.3100450
3586.948, 0.3127317
3588.876, 0.3138120
3590.805, 0.3137467
3592.733, 0.3122346
3594.662, 0.3101891
3596.590, 0.3084887
3598.519, 0.3091385
3600.447, 0.3112925
3602.376, 0.3129915
3604.304, 0.3140576
3606.233, 0.3119938
3608.161, 0.3117526
3610.090, 0.3137019
3612.018, 0.3139026
3613.947, 0.3127032
3615.875, 0.3143475
3617.803, 0.3127858
3619.732, 0.3099681
3621.660, 0.3099713
3623.589, 0.3097805
3625.517, 0.3113817
3627.446, 0.3141500
3629.374, 0.3124361
3631.303, 0.3104261
3633.231, 0.3127141
3635.160, 0.3140065
3637.088, 0.3127884
3639.017, 0.3142229
3640.945, 0.3163500
3642.874, 0.3151347
3644.802, 0.3137752
3646.730, 0.3131979
3648.659, 0.3110932
3650.587, 0.3135412
3652.516, 0.3126569
3654.444, 0.3088071
3656.373, 0.3070448
3658.301, 0.3067631
3660.230, 0.3098841
3662.158, 0.3128863
3664.087, 0.3129343
3666.015, 0.3165458
3667.944, 0.3168426
3669.872, 0.3151129
3671.801, 0.3141864
3673.729, 0.3152237
3675.657, 0.3138336
3677.586, 0.3132052
3679.514, 0.3151091
3681.443, 0.3138767
3683.371, 0.3115702
3685.300, 0.3107551
3687.228, 0.3122489
3689.157, 0.3147710
3691.085, 0.3155415
3693.014, 0.3147618
3694.942, 0.3142803
3696.871, 0.3174727
3698.799, 0.3186595
3700.728, 0.3150846
3702.656, 0.3122808
3704.584, 0.3114780
3706.513, 0.3138044
3708.441, 0.3153904
3710.370, 0.3146667
3712.298, 0.3133851
3714.227, 0.3112417
3716.155, 0.3104767
3718.084, 0.3145412
3720.012, 0.3134056
3721.941, 0.3158716
3723.869, 0.3168109
3725.798, 0.3167270
3727.726, 0.3190144
3729.655, 0.3208238
3731.583, 0.3166338
3733.511, 0.3168526
3735.440, 0.3199208
3737.368, 0.3175859
3739.297, 0.3171689
3741.225, 0.3182270
3743.154, 0.3144923
3745.082, 0.3136610
3747.011, 0.3169742
3748.939, 0.3184950
3750.868, 0.3192416
3752.796, 0.3164768
3754.725, 0.3147115
3756.653, 0.3170986
3758.582, 0.3191208
3760.510, 0.3177430
3762.438, 0.3163305
3764.367, 0.3222573
3766.295, 0.3240890
3768.224, 0.3173582
3770.152, 0.3156199
3772.081, 0.3172044
3774.009, 0.3186994
3775.938, 0.3202414
3777.866, 0.3204446
3779.795, 0.3185514
3781.723, 0.3181670
3783.652, 0.3222002
3785.580, 0.3224118
3787.509, 0.3188715
3789.437, 0.3160611
3791.365, 0.3153152
3793.294, 0.3185840
3795.222, 0.3234819
3797.151, 0.3222580
3799.079, 0.3184340
3801.008, 0.3196069
3802.936, 0.3218495
3804.865, 0.3243383
3806.793, 0.3257872
3808.722, 0.3243907
3810.650, 0.3229401
3812.579, 0.3219571
3814.507, 0.3221625
3816.436, 0.3235900
3818.364, 0.3230724
3820.292, 0.3207914
3822.221, 0.3210823
3824.149, 0.3243121
3826.078, 0.3255569
3828.006, 0.3258682
3829.935, 0.3252677
3831.863, 0.3250616
3833.792, 0.3270793
3835.720, 0.3266212
3837.649, 0.3232714
3839.577, 0.3231191
3841.506, 0.3222022
3843.434, 0.3268790
3845.363, 0.3276970
3847.291, 0.3237566
3849.219, 0.3238251
3851.148, 0.3248120
3853.076, 0.3255483
3855.005, 0.3233947
3856.933, 0.3215281
3858.862, 0.3231608
3860.790, 0.3259507
3862.719, 0.3269046
3864.647, 0.3282482
3866.576, 0.3294842
3868.504, 0.3297056
3870.433, 0.3283976
3872.361, 0.3229944
3874.290, 0.3217694
3876.218, 0.3241902
3878.146, 0.3252965
3880.075, 0.3226984
3882.003, 0.3209370
3883.932, 0.3220510
3885.860, 0.3234592
3887.789, 0.3261137
3889.717, 0.3292871
3891.646, 0.3300795
3893.574, 0.3272990
3895.503, 0.3270387
3897.431, 0.3289359
3899.360, 0.3304506
3901.288, 0.3300372
3903.217, 0.3278752
3905.145, 0.3274024
3907.073, 0.3277889
3909.002, 0.3259769
3910.930, 0.3273055
3912.859, 0.3271228
3914.787, 0.3300386
3916.716, 0.3312346
3918.644, 0.3291764
3920.573, 0.3279884
3922.501, 0.3299404
3924.430, 0.3310748
3926.358, 0.3314874
3928.287, 0.3324993
3930.215, 0.3332744
3932.144, 0.3331300
3934.072, 0.3326100
3936.000, 0.3328164
3937.929, 0.3302860
3939.857, 0.3281796
3941.786, 0.3306152
3943.714, 0.3339877
3945.643, 0.3322894
3947.571, 0.3302684
3949.500, 0.3273427
3951.428, 0.3287997
3953.357, 0.3319485
3955.285, 0.3332924
3957.214, 0.3305249
3959.142, 0.3294670
3961.071, 0.3297896
3962.999, 0.3307051
3964.927, 0.3321162
3966.856, 0.3303024
3968.784, 0.3290461
3970.713, 0.3346570
3972.641, 0.3353550
3974.570, 0.3329212
3976.498, 0.3341603
3978.427, 0.3306393
3980.355, 0.3328106
3982.284, 0.3380423
3984.212, 0.3363301
3986.141, 0.3340408
3988.069, 0.3353463
3989.998, 0.3349645
3991.926, 0.3339724
3993.854, 0.3365066
3995.783, 0.3396095
3997.711, 0.3368456
3999.640, 0.3370081
##END=



