##NAMES=Sapphirine
##RRUFFID=R060073
##IDEAL CHEMISTRY=Mg_4_(Mg_3_Al_9_)O_4_[Si_3_Al_9_O_36_]
##LOCALITY=Androy, Madagascar
##OWNER=RRUFF
##SOURCE=Marcus Origlieri
##DESCRIPTION=Dark blue massive
##STATUS=The identification of this mineral has been confirmed by X-ray diffraction and chemical analysis
##URL=rruff.info/R060073
##MEASURED CHEMISTRY=Mg_4_(Mg_3.32_Al_8.34_Fe^2+^_0.42_)O_4_(Si_3.5_Al_8.5_O_36_)
3.991926e+002, 2.438885e-001
4.011211e+002, 2.473219e-001
4.030495e+002, 2.501315e-001
4.049780e+002, 2.481179e-001
4.069065e+002, 2.447290e-001
4.088349e+002, 2.461089e-001
4.107634e+002, 2.468567e-001
4.126919e+002, 2.470887e-001
4.146203e+002, 2.470978e-001
4.165488e+002, 2.469185e-001
4.184773e+002, 2.484718e-001
4.204057e+002, 2.477805e-001
4.223342e+002, 2.466123e-001
4.242627e+002, 2.474223e-001
4.261911e+002, 2.472361e-001
4.281196e+002, 2.456944e-001
4.300481e+002, 2.435321e-001
4.319765e+002, 2.421514e-001
4.339050e+002, 2.399512e-001
4.358335e+002, 2.381577e-001
4.377619e+002, 2.381246e-001
4.396904e+002, 2.391217e-001
4.416189e+002, 2.388676e-001
4.435473e+002, 2.391786e-001
4.454758e+002, 2.380193e-001
4.474043e+002, 2.371555e-001
4.493327e+002, 2.378529e-001
4.512612e+002, 2.379194e-001
4.531897e+002, 2.388833e-001
4.551181e+002, 2.401469e-001
4.570466e+002, 2.414572e-001
4.589751e+002, 2.424476e-001
4.609035e+002, 2.407535e-001
4.628320e+002, 2.396706e-001
4.647605e+002, 2.386536e-001
4.666889e+002, 2.360120e-001
4.686174e+002, 2.343588e-001
4.705459e+002, 2.329996e-001
4.724743e+002, 2.301417e-001
4.744028e+002, 2.278379e-001
4.763313e+002, 2.260678e-001
4.782597e+002, 2.246426e-001
4.801882e+002, 2.223323e-001
4.821167e+002, 2.203609e-001
4.840451e+002, 2.187704e-001
4.859736e+002, 2.174945e-001
4.879021e+002, 2.147900e-001
4.898305e+002, 2.120261e-001
4.917590e+002, 2.098640e-001
4.936875e+002, 2.075979e-001
4.956159e+002, 2.048153e-001
4.975444e+002, 2.022782e-001
4.994729e+002, 1.998399e-001
5.014013e+002, 1.974453e-001
5.033298e+002, 1.945209e-001
5.052583e+002, 1.908554e-001
5.071867e+002, 1.859653e-001
5.091152e+002, 1.816802e-001
5.110437e+002, 1.777664e-001
5.129721e+002, 1.746126e-001
5.149006e+002, 1.723786e-001
5.168290e+002, 1.710673e-001
5.187575e+002, 1.702855e-001
5.206860e+002, 1.713653e-001
5.226144e+002, 1.731374e-001
5.245429e+002, 1.753977e-001
5.264714e+002, 1.779858e-001
5.283998e+002, 1.798588e-001
5.303283e+002, 1.813265e-001
5.322568e+002, 1.832148e-001
5.341852e+002, 1.852352e-001
5.361137e+002, 1.875238e-001
5.380422e+002, 1.903521e-001
5.399706e+002, 1.931830e-001
5.418991e+002, 1.949151e-001
5.438276e+002, 1.960337e-001
5.457560e+002, 1.969128e-001
5.476845e+002, 1.971701e-001
5.496130e+002, 1.978679e-001
5.515414e+002, 1.997281e-001
5.534699e+002, 2.013707e-001
5.553984e+002, 2.021697e-001
5.573268e+002, 2.022958e-001
5.592553e+002, 2.015706e-001
5.611838e+002, 1.996498e-001
5.631122e+002, 1.972864e-001
5.650407e+002, 1.948486e-001
5.669692e+002, 1.924576e-001
5.688976e+002, 1.904325e-001
5.708261e+002, 1.890978e-001
5.727546e+002, 1.888097e-001
5.746830e+002, 1.895078e-001
5.766115e+002, 1.913050e-001
5.785400e+002, 1.941109e-001
5.804684e+002, 1.977042e-001
5.823969e+002, 2.007873e-001
5.843254e+002, 2.022625e-001
5.862538e+002, 2.017843e-001
5.881823e+002, 2.002102e-001
5.901108e+002, 1.975569e-001
5.920392e+002, 1.940337e-001
5.939677e+002, 1.903342e-001
5.958962e+002, 1.870859e-001
5.978246e+002, 1.839052e-001
5.997531e+002, 1.813805e-001
6.016816e+002, 1.794697e-001
6.036100e+002, 1.773464e-001
6.055385e+002, 1.754810e-001
6.074670e+002, 1.733611e-001
6.093954e+002, 1.708333e-001
6.113239e+002, 1.679109e-001
6.132524e+002, 1.639446e-001
6.151808e+002, 1.593992e-001
6.171093e+002, 1.549876e-001
6.190378e+002, 1.506192e-001
6.209662e+002, 1.468724e-001
6.228947e+002, 1.443680e-001
6.248232e+002, 1.431971e-001
6.267516e+002, 1.432301e-001
6.286801e+002, 1.442253e-001
6.306086e+002, 1.457312e-001
6.325370e+002, 1.466690e-001
6.344655e+002, 1.463045e-001
6.363940e+002, 1.440830e-001
6.383224e+002, 1.404212e-001
6.402509e+002, 1.363133e-001
6.421794e+002, 1.323060e-001
6.441078e+002, 1.288717e-001
6.460363e+002, 1.263022e-001
6.479648e+002, 1.247262e-001
6.498932e+002, 1.240913e-001
6.518217e+002, 1.241301e-001
6.537502e+002, 1.251420e-001
6.556786e+002, 1.265383e-001
6.576071e+002, 1.284052e-001
6.595356e+002, 1.309936e-001
6.614641e+002, 1.339192e-001
6.633925e+002, 1.371854e-001
6.653210e+002, 1.410666e-001
6.672495e+002, 1.452052e-001
6.691779e+002, 1.496095e-001
6.711064e+002, 1.541330e-001
6.730349e+002, 1.586259e-001
6.749633e+002, 1.631019e-001
6.768918e+002, 1.673103e-001
6.788203e+002, 1.706645e-001
6.807487e+002, 1.731839e-001
6.826772e+002, 1.751561e-001
6.846057e+002, 1.762513e-001
6.865341e+002, 1.765065e-001
6.884626e+002, 1.762285e-001
6.903911e+002, 1.751904e-001
6.923195e+002, 1.735940e-001
6.942480e+002, 1.722433e-001
6.961765e+002, 1.714037e-001
6.981049e+002, 1.712982e-001
7.000334e+002, 1.721822e-001
7.019619e+002, 1.731875e-001
7.038903e+002, 1.742975e-001
7.058188e+002, 1.754303e-001
7.077473e+002, 1.763330e-001
7.096757e+002, 1.767914e-001
7.116042e+002, 1.769457e-001
7.135327e+002, 1.765708e-001
7.154611e+002, 1.756613e-001
7.173896e+002, 1.744820e-001
7.193181e+002, 1.732001e-001
7.212465e+002, 1.715599e-001
7.231750e+002, 1.695287e-001
7.251035e+002, 1.672426e-001
7.270319e+002, 1.647883e-001
7.289604e+002, 1.619482e-001
7.308889e+002, 1.590949e-001
7.328173e+002, 1.564737e-001
7.347458e+002, 1.538191e-001
7.366743e+002, 1.514025e-001
7.386027e+002, 1.494271e-001
7.405312e+002, 1.477883e-001
7.424597e+002, 1.465655e-001
7.443881e+002, 1.453883e-001
7.463166e+002, 1.445816e-001
7.482451e+002, 1.436896e-001
7.501735e+002, 1.425680e-001
7.521020e+002, 1.412616e-001
7.540305e+002, 1.399372e-001
7.559589e+002, 1.383081e-001
7.578874e+002, 1.366122e-001
7.598159e+002, 1.350495e-001
7.617443e+002, 1.335387e-001
7.636728e+002, 1.319843e-001
7.656013e+002, 1.304734e-001
7.675297e+002, 1.289004e-001
7.694582e+002, 1.271949e-001
7.713867e+002, 1.250618e-001
7.733151e+002, 1.225812e-001
7.752436e+002, 1.199493e-001
7.771721e+002, 1.173593e-001
7.791005e+002, 1.147729e-001
7.810290e+002, 1.122076e-001
7.829575e+002, 1.098002e-001
7.848859e+002, 1.075583e-001
7.868144e+002, 1.057677e-001
7.887429e+002, 1.046022e-001
7.906713e+002, 1.036731e-001
7.925998e+002, 1.031855e-001
7.945283e+002, 1.033174e-001
7.964567e+002, 1.041586e-001
7.983852e+002, 1.056304e-001
8.003137e+002, 1.075313e-001
8.022421e+002, 1.094867e-001
8.041706e+002, 1.113682e-001
8.060991e+002, 1.131138e-001
8.080275e+002, 1.149032e-001
8.099560e+002, 1.166274e-001
8.118845e+002, 1.179247e-001
8.138129e+002, 1.188212e-001
8.157414e+002, 1.196767e-001
8.176699e+002, 1.203575e-001
8.195983e+002, 1.206168e-001
8.215268e+002, 1.203739e-001
8.234553e+002, 1.202547e-001
8.253837e+002, 1.201962e-001
8.273122e+002, 1.199927e-001
8.292407e+002, 1.197995e-001
8.311691e+002, 1.196315e-001
8.330976e+002, 1.195742e-001
8.350261e+002, 1.195806e-001
8.369545e+002, 1.193401e-001
8.388830e+002, 1.188295e-001
8.408115e+002, 1.184252e-001
8.427399e+002, 1.179485e-001
8.446684e+002, 1.171509e-001
8.465969e+002, 1.163346e-001
8.485253e+002, 1.152858e-001
8.504538e+002, 1.143591e-001
8.523823e+002, 1.135028e-001
8.543107e+002, 1.124001e-001
8.562392e+002, 1.110848e-001
8.581677e+002, 1.097993e-001
8.600961e+002, 1.083874e-001
8.620246e+002, 1.068903e-001
8.639531e+002, 1.054991e-001
8.658815e+002, 1.043320e-001
8.678100e+002, 1.031050e-001
8.697385e+002, 1.016877e-001
8.716669e+002, 1.003645e-001
8.735954e+002, 9.931144e-002
8.755239e+002, 9.829888e-002
8.774523e+002, 9.726839e-002
8.793808e+002, 9.635931e-002
8.813093e+002, 9.558131e-002
8.832377e+002, 9.472319e-002
8.851662e+002, 9.389742e-002
8.870947e+002, 9.329213e-002
8.890231e+002, 9.285393e-002
8.909516e+002, 9.249773e-002
8.928801e+002, 9.236836e-002
8.948085e+002, 9.238052e-002
8.967370e+002, 9.260340e-002
8.986655e+002, 9.294002e-002
9.005939e+002, 9.330312e-002
9.025224e+002, 9.348398e-002
9.044509e+002, 9.299298e-002
9.063793e+002, 9.192320e-002
9.083078e+002, 9.035946e-002
9.102363e+002, 8.827612e-002
9.121647e+002, 8.639181e-002
9.140932e+002, 8.532222e-002
9.160217e+002, 8.527583e-002
9.179501e+002, 8.637782e-002
9.198786e+002, 8.870584e-002
9.218071e+002, 9.167822e-002
9.237355e+002, 9.500693e-002
9.256640e+002, 9.828470e-002
9.275925e+002, 1.013213e-001
9.295209e+002, 1.039362e-001
9.314494e+002, 1.059722e-001
9.333779e+002, 1.074011e-001
9.353063e+002, 1.086039e-001
9.372348e+002, 1.093142e-001
9.391633e+002, 1.095401e-001
9.410917e+002, 1.095340e-001
9.430202e+002, 1.093953e-001
9.449487e+002, 1.090279e-001
9.468771e+002, 1.087787e-001
9.488056e+002, 1.086127e-001
9.507341e+002, 1.083601e-001
9.526625e+002, 1.081208e-001
9.545910e+002, 1.082317e-001
9.565195e+002, 1.086527e-001
9.584479e+002, 1.095077e-001
9.603764e+002, 1.108702e-001
9.623049e+002, 1.124983e-001
9.642333e+002, 1.141496e-001
9.661618e+002, 1.155554e-001
9.680903e+002, 1.164923e-001
9.700187e+002, 1.170944e-001
9.719472e+002, 1.172381e-001
9.738757e+002, 1.170984e-001
9.758041e+002, 1.163092e-001
9.777326e+002, 1.150104e-001
9.796611e+002, 1.131806e-001
9.815895e+002, 1.107456e-001
9.835180e+002, 1.080087e-001
9.854465e+002, 1.050343e-001
9.873749e+002, 1.017618e-001
9.893034e+002, 9.828220e-002
9.912319e+002, 9.428193e-002
9.931603e+002, 9.005692e-002
9.950888e+002, 8.579833e-002
9.970173e+002, 8.171439e-002
9.989457e+002, 7.780109e-002
1.000874e+003, 7.404280e-002
1.002803e+003, 7.042210e-002
1.004731e+003, 6.716926e-002
1.006660e+003, 6.420247e-002
1.008588e+003, 6.146008e-002
1.010517e+003, 5.871108e-002
1.012445e+003, 5.617225e-002
1.014373e+003, 5.384285e-002
1.016302e+003, 5.173953e-002
1.018230e+003, 4.987209e-002
1.020159e+003, 4.813511e-002
1.022087e+003, 4.646997e-002
1.024016e+003, 4.490745e-002
1.025944e+003, 4.337760e-002
1.027873e+003, 4.180268e-002
1.029801e+003, 4.025024e-002
1.031730e+003, 3.879844e-002
1.033658e+003, 3.757796e-002
1.035587e+003, 3.661084e-002
1.037515e+003, 3.591279e-002
1.039443e+003, 3.546758e-002
1.041372e+003, 3.523387e-002
1.043300e+003, 3.519662e-002
1.045229e+003, 3.495624e-002
1.047157e+003, 3.454480e-002
1.049086e+003, 3.383246e-002
1.051014e+003, 3.295112e-002
1.052943e+003, 3.203680e-002
1.054871e+003, 3.089434e-002
1.056800e+003, 2.945128e-002
1.058728e+003, 2.821666e-002
1.060657e+003, 2.721854e-002
1.062585e+003, 2.620100e-002
1.064514e+003, 2.529584e-002
1.066442e+003, 2.455929e-002
1.068370e+003, 2.404428e-002
1.070299e+003, 2.359243e-002
1.072227e+003, 2.303226e-002
1.074156e+003, 2.263822e-002
1.076084e+003, 2.223952e-002
1.078013e+003, 2.185024e-002
1.079941e+003, 2.152520e-002
1.081870e+003, 2.126870e-002
1.083798e+003, 2.099767e-002
1.085727e+003, 2.062099e-002
1.087655e+003, 2.019897e-002
1.089584e+003, 1.993699e-002
1.091512e+003, 1.942241e-002
1.093441e+003, 1.878590e-002
1.095369e+003, 1.835690e-002
1.097297e+003, 1.790706e-002
1.099226e+003, 1.744709e-002
1.101154e+003, 1.703226e-002
1.103083e+003, 1.647717e-002
1.105011e+003, 1.586617e-002
1.106940e+003, 1.558396e-002
1.108868e+003, 1.528283e-002
1.110797e+003, 1.481452e-002
1.112725e+003, 1.431343e-002
1.114654e+003, 1.399034e-002
1.116582e+003, 1.373328e-002
1.118511e+003, 1.338393e-002
1.120439e+003, 1.304453e-002
1.122368e+003, 1.274622e-002
1.124296e+003, 1.239134e-002
1.126224e+003, 1.203197e-002
1.128153e+003, 1.157250e-002
1.130081e+003, 1.112772e-002
1.132010e+003, 1.092143e-002
1.133938e+003, 1.083079e-002
1.135867e+003, 1.059035e-002
1.137795e+003, 1.020776e-002
1.139724e+003, 1.003962e-002
1.141652e+003, 9.933018e-003
1.143581e+003, 9.795844e-003
1.145509e+003, 9.558906e-003
1.147438e+003, 9.333795e-003
1.149366e+003, 9.266024e-003
1.151295e+003, 9.325060e-003
1.153223e+003, 9.200823e-003
1.155151e+003, 9.057839e-003
1.157080e+003, 8.949072e-003
1.159008e+003, 8.937287e-003
1.160937e+003, 8.925769e-003
1.162865e+003, 8.862712e-003
1.164794e+003, 8.740468e-003
1.166722e+003, 8.690597e-003
1.168651e+003, 8.713271e-003
1.170579e+003, 8.687406e-003
1.172508e+003, 8.529561e-003
1.174436e+003, 8.432249e-003
1.176365e+003, 8.486041e-003
1.178293e+003, 8.519124e-003
1.180222e+003, 8.629976e-003
1.182150e+003, 8.621334e-003
1.184078e+003, 8.424263e-003
1.186007e+003, 8.450286e-003
1.187935e+003, 8.600365e-003
1.189864e+003, 8.533677e-003
1.191792e+003, 8.424355e-003
1.193721e+003, 8.271858e-003
1.195649e+003, 8.227943e-003
1.197578e+003, 8.156399e-003
1.199506e+003, 8.066311e-003
1.201435e+003, 7.933996e-003
1.203363e+003, 7.871235e-003
1.205292e+003, 7.749590e-003
1.207220e+003, 7.689002e-003
1.209149e+003, 7.723036e-003
1.211077e+003, 7.658598e-003
1.213005e+003, 7.540309e-003
1.214934e+003, 7.384080e-003
1.216862e+003, 7.338069e-003
1.218791e+003, 7.332951e-003
1.220719e+003, 7.220549e-003
1.222648e+003, 7.149583e-003
1.224576e+003, 7.197010e-003
1.226505e+003, 7.227416e-003
1.228433e+003, 7.171161e-003
1.230362e+003, 7.112181e-003
1.232290e+003, 7.117454e-003
1.234219e+003, 7.138332e-003
1.236147e+003, 7.099180e-003
1.238076e+003, 6.965117e-003
1.240004e+003, 6.878538e-003
1.241932e+003, 6.960596e-003
1.243861e+003, 7.004261e-003
1.245789e+003, 7.004834e-003
1.247718e+003, 7.065434e-003
1.249646e+003, 7.111844e-003
1.251575e+003, 7.073159e-003
1.253503e+003, 7.082037e-003
1.255432e+003, 7.185610e-003
1.257360e+003, 7.089941e-003
1.259289e+003, 7.052883e-003
1.261217e+003, 7.142807e-003
1.263146e+003, 7.170861e-003
1.265074e+003, 7.132419e-003
1.267003e+003, 7.264514e-003
1.268931e+003, 7.355373e-003
1.270859e+003, 7.357163e-003
1.272788e+003, 7.471295e-003
1.274716e+003, 7.627164e-003
1.276645e+003, 7.681635e-003
1.278573e+003, 7.735851e-003
1.280502e+003, 7.766923e-003
1.282430e+003, 7.759620e-003
1.284359e+003, 7.792822e-003
1.286287e+003, 7.822373e-003
1.288216e+003, 7.811462e-003
1.290144e+003, 7.780891e-003
1.292073e+003, 7.884908e-003
1.294001e+003, 7.901503e-003
1.295930e+003, 7.852010e-003
1.297858e+003, 7.908829e-003
1.299786e+003, 7.984658e-003
1.301715e+003, 7.998648e-003
1.303643e+003, 8.006555e-003
1.305572e+003, 8.082812e-003
1.307500e+003, 8.071723e-003
1.309429e+003, 8.048115e-003
1.311357e+003, 8.127752e-003
1.313286e+003, 8.172149e-003
1.315214e+003, 8.138043e-003
1.317143e+003, 8.019044e-003
1.319071e+003, 7.934523e-003
1.321000e+003, 8.017003e-003
1.322928e+003, 8.170611e-003
1.324857e+003, 8.289084e-003
1.326785e+003, 8.254188e-003
1.328714e+003, 8.283380e-003
1.330642e+003, 8.376363e-003
1.332570e+003, 8.352978e-003
1.334499e+003, 8.240102e-003
1.336427e+003, 8.179430e-003
1.338356e+003, 8.109294e-003
1.340284e+003, 8.154395e-003
1.342213e+003, 8.359144e-003
1.344141e+003, 8.373233e-003
1.346070e+003, 8.341722e-003
1.347998e+003, 8.301754e-003
1.349927e+003, 8.313539e-003
1.351855e+003, 8.389797e-003
1.353784e+003, 8.404450e-003
1.355712e+003, 8.428316e-003
1.357641e+003, 8.359677e-003
1.359569e+003, 8.118248e-003
1.361497e+003, 7.886129e-003
1.363426e+003, 7.949403e-003
1.365354e+003, 8.241368e-003
1.367283e+003, 8.302485e-003
1.369211e+003, 8.311527e-003
1.371140e+003, 8.337147e-003
1.373068e+003, 8.228282e-003
1.374997e+003, 8.255685e-003
1.376925e+003, 8.525578e-003
1.378854e+003, 8.613341e-003
1.380782e+003, 8.642375e-003
1.382711e+003, 8.714593e-003
1.384639e+003, 8.691046e-003
1.386568e+003, 8.234562e-003
1.388496e+003, 8.401952e-003
1.390424e+003, 8.881997e-003
1.392353e+003, 8.780279e-003
1.394281e+003, 8.366507e-003
1.396210e+003, 8.577460e-003
1.398138e+003, 8.653118e-003
1.400067e+003, 8.839326e-003
1.401995e+003, 9.199072e-003
1.403924e+003, 9.127151e-003
1.405852e+003, 9.088245e-003
1.407781e+003, 9.310959e-003
1.409709e+003, 9.453438e-003
1.411638e+003, 9.547792e-003
1.413566e+003, 9.684012e-003
1.415495e+003, 9.621376e-003
1.417423e+003, 8.887817e-003
1.419351e+003, 8.296589e-003
1.421280e+003, 9.250837e-003
1.423208e+003, 9.766934e-003
1.425137e+003, 9.796288e-003
1.427065e+003, 9.915142e-003
1.428994e+003, 9.782442e-003
1.430922e+003, 9.872665e-003
1.432851e+003, 1.002384e-002
1.434779e+003, 9.438266e-003
1.436708e+003, 8.784589e-003
1.438636e+003, 9.727642e-003
1.440565e+003, 1.024693e-002
1.442493e+003, 1.033046e-002
1.444422e+003, 1.041605e-002
1.446350e+003, 1.012471e-002
1.448278e+003, 9.850550e-003
1.450207e+003, 1.019195e-002
1.452135e+003, 1.032180e-002
1.454064e+003, 9.784688e-003
1.455992e+003, 7.977238e-003
1.457921e+003, 8.151854e-003
1.459849e+003, 9.760153e-003
1.461778e+003, 1.020007e-002
1.463706e+003, 9.561740e-003
1.465635e+003, 9.483143e-003
1.467563e+003, 1.012028e-002
1.469492e+003, 1.004162e-002
1.471420e+003, 9.040445e-003
1.473349e+003, 8.819326e-003
1.475277e+003, 9.756532e-003
1.477205e+003, 1.042343e-002
1.479134e+003, 1.093142e-002
1.481062e+003, 1.099314e-002
1.482991e+003, 1.112543e-002
1.484919e+003, 1.093519e-002
1.486848e+003, 1.063674e-002
1.488776e+003, 1.039373e-002
1.490705e+003, 1.049142e-002
1.492633e+003, 1.115308e-002
1.494562e+003, 1.067839e-002
1.496490e+003, 9.829815e-003
1.498419e+003, 1.035758e-002
1.500347e+003, 1.112384e-002
1.502276e+003, 1.142438e-002
1.504204e+003, 9.920054e-003
1.506132e+003, 7.930053e-003
1.508061e+003, 9.003453e-003
1.509989e+003, 1.071014e-002
1.511918e+003, 1.095407e-002
1.513846e+003, 1.108082e-002
1.515775e+003, 1.060202e-002
1.517703e+003, 1.044403e-002
1.519632e+003, 9.780956e-003
1.521560e+003, 9.176618e-003
1.523489e+003, 1.043030e-002
1.525417e+003, 1.086524e-002
1.527346e+003, 1.120063e-002
1.529274e+003, 1.166487e-002
1.531203e+003, 1.159413e-002
1.533131e+003, 1.103101e-002
1.535059e+003, 1.150637e-002
1.536988e+003, 1.098312e-002
1.538916e+003, 8.547921e-003
1.540845e+003, 8.497357e-003
1.542773e+003, 1.017909e-002
1.544702e+003, 1.117364e-002
1.546630e+003, 1.202437e-002
1.548559e+003, 1.235673e-002
1.550487e+003, 1.227333e-002
1.552416e+003, 1.194195e-002
1.554344e+003, 1.125161e-002
1.556273e+003, 1.047907e-002
1.558201e+003, 8.078480e-003
1.560130e+003, 8.581980e-003
1.562058e+003, 1.166857e-002
1.563986e+003, 1.268292e-002
1.565915e+003, 1.293236e-002
1.567843e+003, 1.263666e-002
1.569772e+003, 1.226386e-002
1.571700e+003, 1.312914e-002
1.573629e+003, 1.296455e-002
1.575557e+003, 1.126791e-002
1.577486e+003, 1.205096e-002
1.579414e+003, 1.365803e-002
1.581343e+003, 1.391420e-002
1.583271e+003, 1.401137e-002
1.585200e+003, 1.390922e-002
1.587128e+003, 1.393559e-002
1.589057e+003, 1.395113e-002
1.590985e+003, 1.405661e-002
1.592913e+003, 1.415434e-002
1.594842e+003, 1.422843e-002
1.596770e+003, 1.416215e-002
1.598699e+003, 1.429285e-002
1.600627e+003, 1.437051e-002
1.602556e+003, 1.443488e-002
1.604484e+003, 1.450024e-002
1.606413e+003, 1.453620e-002
1.608341e+003, 1.442873e-002
1.610270e+003, 1.455361e-002
1.612198e+003, 1.474920e-002
1.614127e+003, 1.415568e-002
1.616055e+003, 1.251664e-002
1.617984e+003, 1.319973e-002
1.619912e+003, 1.450995e-002
1.621840e+003, 1.416800e-002
1.623769e+003, 1.398846e-002
1.625697e+003, 1.429986e-002
1.627626e+003, 1.431666e-002
1.629554e+003, 1.466627e-002
1.631483e+003, 1.490647e-002
1.633411e+003, 1.394263e-002
1.635340e+003, 1.258200e-002
1.637268e+003, 1.361166e-002
1.639197e+003, 1.491455e-002
1.641125e+003, 1.507059e-002
1.643054e+003, 1.478477e-002
1.644982e+003, 1.344609e-002
1.646911e+003, 1.301770e-002
1.648839e+003, 1.422310e-002
1.650767e+003, 1.278683e-002
1.652696e+003, 9.361693e-003
1.654624e+003, 1.140034e-002
1.656553e+003, 1.441949e-002
1.658481e+003, 1.493408e-002
1.660410e+003, 1.458723e-002
1.662338e+003, 1.403689e-002
1.664267e+003, 1.459990e-002
1.666195e+003, 1.489358e-002
1.668124e+003, 1.383781e-002
1.670052e+003, 1.336603e-002
1.671981e+003, 1.408097e-002
1.673909e+003, 1.371199e-002
1.675838e+003, 1.344938e-002
1.677766e+003, 1.447473e-002
1.679694e+003, 1.455268e-002
1.681623e+003, 1.387528e-002
1.683551e+003, 1.128908e-002
1.685480e+003, 1.143280e-002
1.687408e+003, 1.381504e-002
1.689337e+003, 1.431344e-002
1.691265e+003, 1.439921e-002
1.693194e+003, 1.377455e-002
1.695122e+003, 1.159845e-002
1.697051e+003, 1.180743e-002
1.698979e+003, 1.140939e-002
1.700908e+003, 1.090985e-002
1.702836e+003, 1.313071e-002
1.704765e+003, 1.330860e-002
1.706693e+003, 1.335728e-002
1.708621e+003, 1.360010e-002
1.710550e+003, 1.384154e-002
1.712478e+003, 1.339673e-002
1.714407e+003, 1.241599e-002
1.716335e+003, 1.083897e-002
1.718264e+003, 1.093145e-002
1.720192e+003, 1.265537e-002
1.722121e+003, 1.333622e-002
1.724049e+003, 1.325521e-002
1.725978e+003, 1.344195e-002
1.727906e+003, 1.324396e-002
1.729835e+003, 1.281487e-002
1.731763e+003, 1.142853e-002
1.733692e+003, 9.394543e-003
1.735620e+003, 1.050594e-002
1.737548e+003, 1.176757e-002
1.739477e+003, 1.127085e-002
1.741405e+003, 1.174019e-002
1.743334e+003, 1.212869e-002
1.745262e+003, 1.230319e-002
1.747191e+003, 1.204735e-002
1.749119e+003, 1.166830e-002
1.751048e+003, 1.152287e-002
1.752976e+003, 1.265038e-002
1.754905e+003, 1.323633e-002
1.756833e+003, 1.317595e-002
1.758762e+003, 1.343271e-002
1.760690e+003, 1.318565e-002
1.762619e+003, 1.323740e-002
1.764547e+003, 1.388288e-002
1.766475e+003, 1.350562e-002
1.768404e+003, 1.315185e-002
1.770332e+003, 1.280497e-002
1.772261e+003, 1.211987e-002
1.774189e+003, 1.298530e-002
1.776118e+003, 1.382843e-002
1.778046e+003, 1.393192e-002
1.779975e+003, 1.379824e-002
1.781903e+003, 1.395294e-002
1.783832e+003, 1.403334e-002
1.785760e+003, 1.415510e-002
1.787689e+003, 1.443623e-002
1.789617e+003, 1.390419e-002
1.791546e+003, 1.300832e-002
1.793474e+003, 1.325005e-002
1.795402e+003, 1.418786e-002
1.797331e+003, 1.426520e-002
1.799259e+003, 1.405109e-002
1.801188e+003, 1.399227e-002
1.803116e+003, 1.435900e-002
1.805045e+003, 1.448292e-002
1.806973e+003, 1.451267e-002
1.808902e+003, 1.439220e-002
1.810830e+003, 1.441072e-002
1.812759e+003, 1.446699e-002
1.814687e+003, 1.442377e-002
1.816616e+003, 1.413822e-002
1.818544e+003, 1.440503e-002
1.820473e+003, 1.462029e-002
1.822401e+003, 1.459302e-002
1.824329e+003, 1.433618e-002
1.826258e+003, 1.456129e-002
1.828186e+003, 1.451947e-002
1.830115e+003, 1.426020e-002
1.832043e+003, 1.470054e-002
1.833972e+003, 1.477556e-002
1.835900e+003, 1.445808e-002
1.837829e+003, 1.481588e-002
1.839757e+003, 1.519790e-002
1.841686e+003, 1.481452e-002
1.843614e+003, 1.367597e-002
1.845543e+003, 1.402357e-002
1.847471e+003, 1.482701e-002
1.849400e+003, 1.500392e-002
1.851328e+003, 1.472419e-002
1.853256e+003, 1.470057e-002
1.855185e+003, 1.495498e-002
1.857113e+003, 1.522953e-002
1.859042e+003, 1.512100e-002
1.860970e+003, 1.500740e-002
1.862899e+003, 1.490600e-002
1.864827e+003, 1.470445e-002
1.866756e+003, 1.441064e-002
1.868684e+003, 1.438386e-002
1.870613e+003, 1.476351e-002
1.872541e+003, 1.493411e-002
1.874470e+003, 1.450995e-002
1.876398e+003, 1.482468e-002
1.878327e+003, 1.506019e-002
1.880255e+003, 1.485059e-002
1.882183e+003, 1.485781e-002
1.884112e+003, 1.496026e-002
1.886040e+003, 1.487693e-002
1.887969e+003, 1.466195e-002
1.889897e+003, 1.439788e-002
1.891826e+003, 1.454744e-002
1.893754e+003, 1.437867e-002
1.895683e+003, 1.458848e-002
1.897611e+003, 1.488721e-002
1.899540e+003, 1.494060e-002
1.901468e+003, 1.480483e-002
1.903397e+003, 1.466897e-002
1.905325e+003, 1.477470e-002
1.907254e+003, 1.501755e-002
1.909182e+003, 1.520765e-002
1.911110e+003, 1.530008e-002
1.913039e+003, 1.508873e-002
1.914967e+003, 1.488067e-002
1.916896e+003, 1.436237e-002
1.918824e+003, 1.431557e-002
1.920753e+003, 1.459105e-002
1.922681e+003, 1.470327e-002
1.924610e+003, 1.475086e-002
1.926538e+003, 1.465598e-002
1.928467e+003, 1.448502e-002
1.930395e+003, 1.447178e-002
1.932324e+003, 1.516410e-002
1.934252e+003, 1.588739e-002
1.936181e+003, 1.522292e-002
1.938109e+003, 1.498153e-002
1.940037e+003, 1.435403e-002
1.941966e+003, 1.355292e-002
1.943894e+003, 1.418854e-002
1.945823e+003, 1.489809e-002
1.947751e+003, 1.439161e-002
1.949680e+003, 1.364621e-002
1.951608e+003, 1.360378e-002
1.953537e+003, 1.371991e-002
1.955465e+003, 1.337505e-002
1.957394e+003, 1.396599e-002
1.959322e+003, 1.416343e-002
1.961251e+003, 1.440933e-002
1.963179e+003, 1.434140e-002
1.965108e+003, 1.397582e-002
1.967036e+003, 1.388255e-002
1.968964e+003, 1.417005e-002
1.970893e+003, 1.424316e-002
1.972821e+003, 1.433207e-002
1.974750e+003, 1.386975e-002
1.976678e+003, 1.406377e-002
1.978607e+003, 1.560409e-002
1.980535e+003, 1.627577e-002
1.982464e+003, 1.545231e-002
1.984392e+003, 1.536821e-002
1.986321e+003, 1.602671e-002
1.988249e+003, 1.588745e-002
1.990178e+003, 1.475379e-002
1.992106e+003, 1.450070e-002
1.994035e+003, 1.529674e-002
1.995963e+003, 1.530473e-002
1.997891e+003, 1.461867e-002
1.999820e+003, 1.513093e-002
2.001748e+003, 1.481262e-002
2.003677e+003, 1.460959e-002
2.005605e+003, 1.524905e-002
2.007534e+003, 1.622355e-002
2.009462e+003, 1.589518e-002
2.011391e+003, 1.569785e-002
2.013319e+003, 1.594923e-002
2.015248e+003, 1.713517e-002
2.017176e+003, 1.620358e-002
2.019105e+003, 1.563341e-002
2.021033e+003, 1.627018e-002
2.022962e+003, 1.683351e-002
2.024890e+003, 1.606479e-002
2.026818e+003, 1.584238e-002
2.028747e+003, 1.584476e-002
2.030675e+003, 1.637393e-002
2.032604e+003, 1.686839e-002
2.034532e+003, 1.763795e-002
2.036461e+003, 1.809957e-002
2.038389e+003, 1.850329e-002
2.040318e+003, 1.843846e-002
2.042246e+003, 1.811244e-002
2.044175e+003, 1.774447e-002
2.046103e+003, 1.818079e-002
2.048031e+003, 1.865107e-002
2.049960e+003, 1.927684e-002
2.051888e+003, 1.861806e-002
2.053817e+003, 1.837951e-002
2.055745e+003, 1.886428e-002
2.057674e+003, 1.861332e-002
2.059602e+003, 1.824469e-002
2.061531e+003, 1.838499e-002
2.063459e+003, 1.844193e-002
2.065388e+003, 1.889001e-002
2.067316e+003, 1.875877e-002
2.069245e+003, 1.862198e-002
2.071173e+003, 1.866005e-002
2.073102e+003, 1.850391e-002
2.075030e+003, 1.864595e-002
2.076958e+003, 1.878448e-002
2.078887e+003, 1.845132e-002
2.080815e+003, 1.847961e-002
2.082744e+003, 1.841443e-002
2.084672e+003, 1.901622e-002
2.086601e+003, 1.928254e-002
2.088529e+003, 1.919864e-002
2.090458e+003, 1.918861e-002
2.092386e+003, 1.909923e-002
2.094315e+003, 1.878847e-002
2.096243e+003, 1.869940e-002
2.098172e+003, 1.879685e-002
2.100100e+003, 1.926683e-002
2.102029e+003, 1.922253e-002
2.103957e+003, 1.926148e-002
2.105885e+003, 1.904163e-002
2.107814e+003, 1.894194e-002
2.109742e+003, 1.924899e-002
2.111671e+003, 1.940450e-002
2.113599e+003, 1.887047e-002
2.115528e+003, 1.912003e-002
2.117456e+003, 1.895207e-002
2.119385e+003, 1.808604e-002
2.121313e+003, 1.782594e-002
2.123242e+003, 1.812070e-002
2.125170e+003, 1.829196e-002
2.127099e+003, 1.874534e-002
2.129027e+003, 1.835270e-002
2.130956e+003, 1.756155e-002
2.132884e+003, 1.685245e-002
2.134813e+003, 1.733191e-002
2.136741e+003, 1.781219e-002
2.138669e+003, 1.831728e-002
2.140598e+003, 1.844998e-002
2.142526e+003, 1.810480e-002
2.144455e+003, 1.833859e-002
2.146383e+003, 1.863655e-002
2.148312e+003, 1.870463e-002
2.150240e+003, 1.872021e-002
2.152169e+003, 1.834577e-002
2.154097e+003, 1.724037e-002
2.156026e+003, 1.601199e-002
2.157954e+003, 1.609861e-002
2.159883e+003, 1.908400e-002
2.161811e+003, 2.240486e-002
2.163740e+003, 2.239045e-002
2.165668e+003, 2.138419e-002
2.167596e+003, 2.104102e-002
2.169525e+003, 2.055924e-002
2.171453e+003, 2.057524e-002
2.173382e+003, 2.038706e-002
2.175310e+003, 2.017087e-002
2.177239e+003, 2.012080e-002
2.179167e+003, 2.024734e-002
2.181096e+003, 2.125742e-002
2.183024e+003, 2.189196e-002
2.184953e+003, 2.120820e-002
2.186881e+003, 2.059210e-002
2.188810e+003, 2.103820e-002
2.190738e+003, 2.139800e-002
2.192667e+003, 2.160593e-002
2.194595e+003, 2.127294e-002
2.196523e+003, 2.104936e-002
2.198452e+003, 2.149004e-002
2.200380e+003, 2.159879e-002
2.202309e+003, 2.091487e-002
2.204237e+003, 2.138149e-002
2.206166e+003, 2.162841e-002
2.208094e+003, 2.165791e-002
2.210023e+003, 2.185885e-002
2.211951e+003, 2.198867e-002
2.213880e+003, 2.158597e-002
2.215808e+003, 2.131226e-002
2.217737e+003, 2.158210e-002
2.219665e+003, 2.219715e-002
2.221594e+003, 2.212423e-002
2.223522e+003, 2.222426e-002
2.225450e+003, 2.260927e-002
2.227379e+003, 2.264781e-002
2.229307e+003, 2.278050e-002
2.231236e+003, 2.215095e-002
2.233164e+003, 2.169302e-002
2.235093e+003, 2.216839e-002
2.237021e+003, 2.250890e-002
2.238950e+003, 2.258659e-002
2.240878e+003, 2.246464e-002
2.242807e+003, 2.291984e-002
2.244735e+003, 2.313790e-002
2.246664e+003, 2.314968e-002
2.248592e+003, 2.273520e-002
2.250521e+003, 2.271729e-002
2.252449e+003, 2.280365e-002
2.254377e+003, 2.281193e-002
2.256306e+003, 2.306505e-002
2.258234e+003, 2.314021e-002
2.260163e+003, 2.316011e-002
2.262091e+003, 2.286991e-002
2.264020e+003, 2.252510e-002
2.265948e+003, 2.283343e-002
2.267877e+003, 2.349262e-002
2.269805e+003, 2.370183e-002
2.271734e+003, 2.344153e-002
2.273662e+003, 2.320489e-002
2.275591e+003, 2.344703e-002
2.277519e+003, 2.370118e-002
2.279448e+003, 2.377237e-002
2.281376e+003, 2.401724e-002
2.283304e+003, 2.386781e-002
2.285233e+003, 2.353880e-002
2.287161e+003, 2.351598e-002
2.289090e+003, 2.382742e-002
2.291018e+003, 2.363543e-002
2.292947e+003, 2.338798e-002
2.294875e+003, 2.327315e-002
2.296804e+003, 2.333101e-002
2.298732e+003, 2.339402e-002
2.300661e+003, 2.334161e-002
2.302589e+003, 2.322632e-002
2.304518e+003, 2.309394e-002
2.306446e+003, 2.302951e-002
2.308375e+003, 2.342781e-002
2.310303e+003, 2.349054e-002
2.312231e+003, 2.352794e-002
2.314160e+003, 2.377896e-002
2.316088e+003, 2.398797e-002
2.318017e+003, 2.430881e-002
2.319945e+003, 2.464237e-002
2.321874e+003, 2.470715e-002
2.323802e+003, 2.475069e-002
2.325731e+003, 2.428539e-002
2.327659e+003, 2.372375e-002
2.329588e+003, 2.362623e-002
2.331516e+003, 2.380938e-002
2.333445e+003, 2.403795e-002
2.335373e+003, 2.405036e-002
2.337302e+003, 2.391544e-002
2.339230e+003, 2.390794e-002
2.341158e+003, 2.383998e-002
2.343087e+003, 2.380215e-002
2.345015e+003, 2.372757e-002
2.346944e+003, 2.347428e-002
2.348872e+003, 2.334331e-002
2.350801e+003, 2.374470e-002
2.352729e+003, 2.407544e-002
2.354658e+003, 2.398391e-002
2.356586e+003, 2.415709e-002
2.358515e+003, 2.448098e-002
2.360443e+003, 2.439143e-002
2.362372e+003, 2.433977e-002
2.364300e+003, 2.426138e-002
2.366229e+003, 2.414937e-002
2.368157e+003, 2.403298e-002
2.370085e+003, 2.415302e-002
2.372014e+003, 2.425601e-002
2.373942e+003, 2.408063e-002
2.375871e+003, 2.401317e-002
2.377799e+003, 2.391106e-002
2.379728e+003, 2.394730e-002
2.381656e+003, 2.419526e-002
2.383585e+003, 2.420174e-002
2.385513e+003, 2.421063e-002
2.387442e+003, 2.440234e-002
2.389370e+003, 2.446338e-002
2.391299e+003, 2.411719e-002
2.393227e+003, 2.409662e-002
2.395156e+003, 2.434125e-002
2.397084e+003, 2.458101e-002
2.399012e+003, 2.491071e-002
2.400941e+003, 2.497496e-002
2.402869e+003, 2.478377e-002
2.404798e+003, 2.479516e-002
2.406726e+003, 2.499852e-002
2.408655e+003, 2.522935e-002
2.410583e+003, 2.516462e-002
2.412512e+003, 2.483652e-002
2.414440e+003, 2.509842e-002
2.416369e+003, 2.563499e-002
2.418297e+003, 2.568786e-002
2.420226e+003, 2.539762e-002
2.422154e+003, 2.510312e-002
2.424083e+003, 2.532422e-002
2.426011e+003, 2.560974e-002
2.427939e+003, 2.551372e-002
2.429868e+003, 2.560286e-002
2.431796e+003, 2.590423e-002
2.433725e+003, 2.564692e-002
2.435653e+003, 2.558934e-002
2.437582e+003, 2.597442e-002
2.439510e+003, 2.633677e-002
2.441439e+003, 2.643205e-002
2.443367e+003, 2.629946e-002
2.445296e+003, 2.634967e-002
2.447224e+003, 2.634075e-002
2.449153e+003, 2.590614e-002
2.451081e+003, 2.591231e-002
2.453010e+003, 2.635420e-002
2.454938e+003, 2.642261e-002
2.456866e+003, 2.608711e-002
2.458795e+003, 2.571654e-002
2.460723e+003, 2.590983e-002
2.462652e+003, 2.631727e-002
2.464580e+003, 2.622443e-002
2.466509e+003, 2.653149e-002
2.468437e+003, 2.681664e-002
2.470366e+003, 2.686907e-002
2.472294e+003, 2.669564e-002
2.474223e+003, 2.655405e-002
2.476151e+003, 2.637131e-002
2.478080e+003, 2.637971e-002
2.480008e+003, 2.655143e-002
2.481937e+003, 2.636042e-002
2.483865e+003, 2.620542e-002
2.485793e+003, 2.641367e-002
2.487722e+003, 2.670079e-002
2.489650e+003, 2.668664e-002
2.491579e+003, 2.630707e-002
2.493507e+003, 2.619616e-002
2.495436e+003, 2.607679e-002
2.497364e+003, 2.606056e-002
2.499293e+003, 2.628782e-002
2.501221e+003, 2.625957e-002
2.503150e+003, 2.611593e-002
2.505078e+003, 2.614740e-002
2.507007e+003, 2.606904e-002
2.508935e+003, 2.628248e-002
2.510864e+003, 2.646301e-002
2.512792e+003, 2.634346e-002
2.514720e+003, 2.614590e-002
2.516649e+003, 2.617725e-002
2.518577e+003, 2.625721e-002
2.520506e+003, 2.635382e-002
2.522434e+003, 2.599386e-002
2.524363e+003, 2.628824e-002
2.526291e+003, 2.660134e-002
2.528220e+003, 2.668818e-002
2.530148e+003, 2.652784e-002
2.532077e+003, 2.599984e-002
2.534005e+003, 2.600643e-002
2.535934e+003, 2.649329e-002
2.537862e+003, 2.695233e-002
2.539791e+003, 2.679544e-002
2.541719e+003, 2.655614e-002
2.543647e+003, 2.640548e-002
2.545576e+003, 2.619131e-002
2.547504e+003, 2.651687e-002
2.549433e+003, 2.679513e-002
2.551361e+003, 2.695203e-002
2.553290e+003, 2.672660e-002
2.555218e+003, 2.629051e-002
2.557147e+003, 2.635907e-002
2.559075e+003, 2.641362e-002
2.561004e+003, 2.656286e-002
2.562932e+003, 2.710575e-002
2.564861e+003, 2.730127e-002
2.566789e+003, 2.739770e-002
2.568718e+003, 2.723463e-002
2.570646e+003, 2.692108e-002
2.572574e+003, 2.677466e-002
2.574503e+003, 2.718627e-002
2.576431e+003, 2.738373e-002
2.578360e+003, 2.738037e-002
2.580288e+003, 2.750928e-002
2.582217e+003, 2.754245e-002
2.584145e+003, 2.731305e-002
2.586074e+003, 2.707536e-002
2.588002e+003, 2.724350e-002
2.589931e+003, 2.788306e-002
2.591859e+003, 2.783776e-002
2.593788e+003, 2.764475e-002
2.595716e+003, 2.765296e-002
2.597645e+003, 2.781161e-002
2.599573e+003, 2.777060e-002
2.601501e+003, 2.784077e-002
2.603430e+003, 2.816336e-002
2.605358e+003, 2.827199e-002
2.607287e+003, 2.823843e-002
2.609215e+003, 2.841731e-002
2.611144e+003, 2.845969e-002
2.613072e+003, 2.838666e-002
2.615001e+003, 2.831941e-002
2.616929e+003, 2.834761e-002
2.618858e+003, 2.838325e-002
2.620786e+003, 2.824567e-002
2.622715e+003, 2.813385e-002
2.624643e+003, 2.828373e-002
2.626572e+003, 2.833894e-002
2.628500e+003, 2.838045e-002
2.630428e+003, 2.855400e-002
2.632357e+003, 2.870794e-002
2.634285e+003, 2.872349e-002
2.636214e+003, 2.877063e-002
2.638142e+003, 2.884659e-002
2.640071e+003, 2.895361e-002
2.641999e+003, 2.886632e-002
2.643928e+003, 2.892337e-002
2.645856e+003, 2.905201e-002
2.647785e+003, 2.908297e-002
2.649713e+003, 2.894796e-002
2.651642e+003, 2.883220e-002
2.653570e+003, 2.895796e-002
2.655499e+003, 2.905213e-002
2.657427e+003, 2.899617e-002
2.659355e+003, 2.907809e-002
2.661284e+003, 2.923209e-002
2.663212e+003, 2.899825e-002
2.665141e+003, 2.864711e-002
2.667069e+003, 2.864424e-002
2.668998e+003, 2.889115e-002
2.670926e+003, 2.916593e-002
2.672855e+003, 2.932098e-002
2.674783e+003, 2.919498e-002
2.676712e+003, 2.902388e-002
2.678640e+003, 2.927494e-002
2.680569e+003, 2.953167e-002
2.682497e+003, 2.969367e-002
2.684426e+003, 2.960774e-002
2.686354e+003, 2.941634e-002
2.688282e+003, 2.935329e-002
2.690211e+003, 2.951867e-002
2.692139e+003, 2.969413e-002
2.694068e+003, 2.968974e-002
2.695996e+003, 2.982454e-002
2.697925e+003, 2.995333e-002
2.699853e+003, 3.003478e-002
2.701782e+003, 3.018086e-002
2.703710e+003, 3.037330e-002
2.705639e+003, 3.044790e-002
2.707567e+003, 3.027543e-002
2.709496e+003, 3.018901e-002
2.711424e+003, 3.020603e-002
2.713353e+003, 3.042938e-002
2.715281e+003, 3.077451e-002
2.717209e+003, 3.079615e-002
2.719138e+003, 3.078366e-002
2.721066e+003, 3.085068e-002
2.722995e+003, 3.079608e-002
2.724923e+003, 3.086038e-002
2.726852e+003, 3.108897e-002
2.728780e+003, 3.130528e-002
2.730709e+003, 3.128650e-002
2.732637e+003, 3.118382e-002
2.734566e+003, 3.101734e-002
2.736494e+003, 3.128682e-002
2.738423e+003, 3.146674e-002
2.740351e+003, 3.148257e-002
2.742280e+003, 3.155254e-002
2.744208e+003, 3.160526e-002
2.746136e+003, 3.166559e-002
2.748065e+003, 3.188749e-002
2.749993e+003, 3.189599e-002
2.751922e+003, 3.203617e-002
2.753850e+003, 3.218250e-002
2.755779e+003, 3.208007e-002
2.757707e+003, 3.180493e-002
2.759636e+003, 3.185551e-002
2.761564e+003, 3.205223e-002
2.763493e+003, 3.215265e-002
2.765421e+003, 3.218668e-002
2.767350e+003, 3.218131e-002
2.769278e+003, 3.227505e-002
2.771207e+003, 3.241614e-002
2.773135e+003, 3.268228e-002
2.775063e+003, 3.287878e-002
2.776992e+003, 3.283522e-002
2.778920e+003, 3.271553e-002
2.780849e+003, 3.282085e-002
2.782777e+003, 3.285866e-002
2.784706e+003, 3.284331e-002
2.786634e+003, 3.281394e-002
2.788563e+003, 3.307089e-002
2.790491e+003, 3.353631e-002
2.792420e+003, 3.363659e-002
2.794348e+003, 3.329306e-002
2.796277e+003, 3.319836e-002
2.798205e+003, 3.329043e-002
2.800134e+003, 3.324325e-002
2.802062e+003, 3.333879e-002
2.803990e+003, 3.373588e-002
2.805919e+003, 3.383886e-002
2.807847e+003, 3.376916e-002
2.809776e+003, 3.374691e-002
2.811704e+003, 3.363908e-002
2.813633e+003, 3.375340e-002
2.815561e+003, 3.399435e-002
2.817490e+003, 3.412576e-002
2.819418e+003, 3.417297e-002
2.821347e+003, 3.407991e-002
2.823275e+003, 3.412402e-002
2.825204e+003, 3.433868e-002
2.827132e+003, 3.448592e-002
2.829061e+003, 3.460720e-002
2.830989e+003, 3.456433e-002
2.832917e+003, 3.445073e-002
2.834846e+003, 3.467976e-002
2.836774e+003, 3.458762e-002
2.838703e+003, 3.426150e-002
2.840631e+003, 3.401703e-002
2.842560e+003, 3.369451e-002
2.844488e+003, 3.304142e-002
2.846417e+003, 3.199317e-002
2.848345e+003, 3.115130e-002
2.850274e+003, 3.099159e-002
2.852202e+003, 3.156278e-002
2.854131e+003, 3.201135e-002
2.856059e+003, 3.234287e-002
2.857988e+003, 3.272009e-002
2.859916e+003, 3.329863e-002
2.861844e+003, 3.380416e-002
2.863773e+003, 3.433384e-002
2.865701e+003, 3.456408e-002
2.867630e+003, 3.435113e-002
2.869558e+003, 3.380625e-002
2.871487e+003, 3.360237e-002
2.873415e+003, 3.409744e-002
2.875344e+003, 3.456155e-002
2.877272e+003, 3.446734e-002
2.879201e+003, 3.440369e-002
2.881129e+003, 3.448579e-002
2.883058e+003, 3.450442e-002
2.884986e+003, 3.444166e-002
2.886915e+003, 3.448873e-002
2.888843e+003, 3.441272e-002
2.890771e+003, 3.426854e-002
2.892700e+003, 3.429493e-002
2.894628e+003, 3.429104e-002
2.896557e+003, 3.409115e-002
2.898485e+003, 3.375308e-002
2.900414e+003, 3.357051e-002
2.902342e+003, 3.380076e-002
2.904271e+003, 3.385327e-002
2.906199e+003, 3.375093e-002
2.908128e+003, 3.336226e-002
2.910056e+003, 3.278112e-002
2.911985e+003, 3.201570e-002
2.913913e+003, 3.120471e-002
2.915842e+003, 3.032840e-002
2.917770e+003, 2.988289e-002
2.919698e+003, 2.992404e-002
2.921627e+003, 3.049476e-002
2.923555e+003, 3.116963e-002
2.925484e+003, 3.136871e-002
2.927412e+003, 3.188437e-002
2.929341e+003, 3.254179e-002
2.931269e+003, 3.288201e-002
2.933198e+003, 3.308959e-002
2.935126e+003, 3.292740e-002
2.937055e+003, 3.299897e-002
2.938983e+003, 3.333959e-002
2.940912e+003, 3.379495e-002
2.942840e+003, 3.376831e-002
2.944769e+003, 3.394979e-002
2.946697e+003, 3.400703e-002
2.948625e+003, 3.376758e-002
2.950554e+003, 3.368654e-002
2.952482e+003, 3.401817e-002
2.954411e+003, 3.464832e-002
2.956339e+003, 3.468982e-002
2.958268e+003, 3.395194e-002
2.960196e+003, 3.379891e-002
2.962125e+003, 3.435273e-002
2.964053e+003, 3.461660e-002
2.965982e+003, 3.459606e-002
2.967910e+003, 3.474394e-002
2.969839e+003, 3.477020e-002
2.971767e+003, 3.464271e-002
2.973696e+003, 3.461582e-002
2.975624e+003, 3.469881e-002
2.977552e+003, 3.490164e-002
2.979481e+003, 3.476872e-002
2.981409e+003, 3.501015e-002
2.983338e+003, 3.520286e-002
2.985266e+003, 3.510357e-002
2.987195e+003, 3.518053e-002
2.989123e+003, 3.498274e-002
2.991052e+003, 3.484945e-002
2.992980e+003, 3.513881e-002
2.994909e+003, 3.516167e-002
2.996837e+003, 3.512557e-002
2.998766e+003, 3.509252e-002
3.000694e+003, 3.496548e-002
3.002623e+003, 3.452049e-002
3.004551e+003, 3.444682e-002
3.006479e+003, 3.469390e-002
3.008408e+003, 3.479662e-002
3.010336e+003, 3.473879e-002
3.012265e+003, 3.493692e-002
3.014193e+003, 3.518097e-002
3.016122e+003, 3.517273e-002
3.018050e+003, 3.506313e-002
3.019979e+003, 3.455915e-002
3.021907e+003, 3.455045e-002
3.023836e+003, 3.455406e-002
3.025764e+003, 3.431433e-002
3.027693e+003, 3.414707e-002
3.029621e+003, 3.435533e-002
3.031550e+003, 3.446702e-002
3.033478e+003, 3.456614e-002
3.035406e+003, 3.432716e-002
3.037335e+003, 3.423161e-002
3.039263e+003, 3.450366e-002
3.041192e+003, 3.455506e-002
3.043120e+003, 3.463469e-002
3.045049e+003, 3.469207e-002
3.046977e+003, 3.487626e-002
3.048906e+003, 3.503245e-002
3.050834e+003, 3.489318e-002
3.052763e+003, 3.483831e-002
3.054691e+003, 3.477426e-002
3.056620e+003, 3.471019e-002
3.058548e+003, 3.467641e-002
3.060477e+003, 3.460230e-002
3.062405e+003, 3.447833e-002
3.064333e+003, 3.463830e-002
3.066262e+003, 3.479317e-002
3.068190e+003, 3.490916e-002
3.070119e+003, 3.471921e-002
3.072047e+003, 3.443949e-002
3.073976e+003, 3.456133e-002
3.075904e+003, 3.495042e-002
3.077833e+003, 3.521471e-002
3.079761e+003, 3.500324e-002
3.081690e+003, 3.483986e-002
3.083618e+003, 3.476688e-002
3.085547e+003, 3.460627e-002
3.087475e+003, 3.475952e-002
3.089404e+003, 3.524629e-002
3.091332e+003, 3.560673e-002
3.093260e+003, 3.549517e-002
3.095189e+003, 3.525111e-002
3.097117e+003, 3.493668e-002
3.099046e+003, 3.494880e-002
3.100974e+003, 3.494607e-002
3.102903e+003, 3.452527e-002
3.104831e+003, 3.431604e-002
3.106760e+003, 3.455815e-002
3.108688e+003, 3.473828e-002
3.110617e+003, 3.475910e-002
3.112545e+003, 3.467622e-002
3.114474e+003, 3.459735e-002
3.116402e+003, 3.468560e-002
3.118331e+003, 3.489934e-002
3.120259e+003, 3.479420e-002
3.122188e+003, 3.465965e-002
3.124116e+003, 3.435763e-002
3.126044e+003, 3.448362e-002
3.127973e+003, 3.451044e-002
3.129901e+003, 3.458576e-002
3.131830e+003, 3.452651e-002
3.133758e+003, 3.428030e-002
3.135687e+003, 3.385979e-002
3.137615e+003, 3.427714e-002
3.139544e+003, 3.478988e-002
3.141472e+003, 3.456202e-002
3.143401e+003, 3.434103e-002
3.145329e+003, 3.452533e-002
3.147258e+003, 3.437292e-002
3.149186e+003, 3.384817e-002
3.151115e+003, 3.416444e-002
3.153043e+003, 3.451031e-002
3.154971e+003, 3.443171e-002
3.156900e+003, 3.466233e-002
3.158828e+003, 3.488769e-002
3.160757e+003, 3.505000e-002
3.162685e+003, 3.493037e-002
3.164614e+003, 3.471435e-002
3.166542e+003, 3.480918e-002
3.168471e+003, 3.459520e-002
3.170399e+003, 3.419238e-002
3.172328e+003, 3.419151e-002
3.174256e+003, 3.467670e-002
3.176185e+003, 3.484011e-002
3.178113e+003, 3.488059e-002
3.180042e+003, 3.453247e-002
3.181970e+003, 3.448624e-002
3.183898e+003, 3.500636e-002
3.185827e+003, 3.534986e-002
3.187755e+003, 3.507904e-002
3.189684e+003, 3.440348e-002
3.191612e+003, 3.439410e-002
3.193541e+003, 3.443322e-002
3.195469e+003, 3.430287e-002
3.197398e+003, 3.461780e-002
3.199326e+003, 3.527597e-002
3.201255e+003, 3.546971e-002
3.203183e+003, 3.521891e-002
3.205112e+003, 3.489975e-002
3.207040e+003, 3.469433e-002
3.208969e+003, 3.492414e-002
3.210897e+003, 3.524426e-002
3.212825e+003, 3.483675e-002
3.214754e+003, 3.439969e-002
3.216682e+003, 3.465158e-002
3.218611e+003, 3.506923e-002
3.220539e+003, 3.497662e-002
3.222468e+003, 3.467539e-002
3.224396e+003, 3.478672e-002
3.226325e+003, 3.495184e-002
3.228253e+003, 3.528687e-002
3.230182e+003, 3.558925e-002
3.232110e+003, 3.569312e-002
3.234039e+003, 3.588622e-002
3.235967e+003, 3.552643e-002
3.237896e+003, 3.538405e-002
3.239824e+003, 3.529701e-002
3.241752e+003, 3.532790e-002
3.243681e+003, 3.525254e-002
3.245609e+003, 3.540472e-002
3.247538e+003, 3.555281e-002
3.249466e+003, 3.575591e-002
3.251395e+003, 3.549990e-002
3.253323e+003, 3.570792e-002
3.255252e+003, 3.600095e-002
3.257180e+003, 3.589578e-002
3.259109e+003, 3.601955e-002
3.261037e+003, 3.628468e-002
3.262966e+003, 3.657104e-002
3.264894e+003, 3.647400e-002
3.266823e+003, 3.646030e-002
3.268751e+003, 3.669114e-002
3.270679e+003, 3.704644e-002
3.272608e+003, 3.729269e-002
3.274536e+003, 3.714944e-002
3.276465e+003, 3.709324e-002
3.278393e+003, 3.737373e-002
3.280322e+003, 3.740985e-002
3.282250e+003, 3.715649e-002
3.284179e+003, 3.728187e-002
3.286107e+003, 3.753444e-002
3.288036e+003, 3.764524e-002
3.289964e+003, 3.779808e-002
3.291893e+003, 3.797041e-002
3.293821e+003, 3.821278e-002
3.295750e+003, 3.819668e-002
3.297678e+003, 3.827169e-002
3.299606e+003, 3.868513e-002
3.301535e+003, 3.845264e-002
3.303463e+003, 3.837907e-002
3.305392e+003, 3.860433e-002
3.307320e+003, 3.871343e-002
3.309249e+003, 3.891852e-002
3.311177e+003, 3.929559e-002
3.313106e+003, 3.943003e-002
3.315034e+003, 3.931827e-002
3.316963e+003, 3.891119e-002
3.318891e+003, 3.899786e-002
3.320820e+003, 3.902365e-002
3.322748e+003, 3.958696e-002
3.324677e+003, 3.998227e-002
3.326605e+003, 4.022853e-002
3.328533e+003, 4.000273e-002
3.330462e+003, 3.925828e-002
3.332390e+003, 3.945738e-002
3.334319e+003, 4.002063e-002
3.336247e+003, 4.023343e-002
3.338176e+003, 4.020135e-002
3.340104e+003, 3.990616e-002
3.342033e+003, 3.984618e-002
3.343961e+003, 4.030568e-002
3.345890e+003, 4.018639e-002
3.347818e+003, 3.988793e-002
3.349747e+003, 3.963811e-002
3.351675e+003, 3.958829e-002
3.353604e+003, 4.003357e-002
3.355532e+003, 4.009970e-002
3.357460e+003, 4.009184e-002
3.359389e+003, 4.014031e-002
3.361317e+003, 3.995577e-002
3.363246e+003, 3.987067e-002
3.365174e+003, 3.988001e-002
3.367103e+003, 3.926985e-002
3.369031e+003, 3.874350e-002
3.370960e+003, 3.913034e-002
3.372888e+003, 3.908367e-002
3.374817e+003, 3.881699e-002
3.376745e+003, 3.885543e-002
3.378674e+003, 3.878634e-002
3.380602e+003, 3.892877e-002
3.382531e+003, 3.906452e-002
3.384459e+003, 3.853302e-002
3.386387e+003, 3.828394e-002
3.388316e+003, 3.842247e-002
3.390244e+003, 3.827732e-002
3.392173e+003, 3.829586e-002
3.394101e+003, 3.838750e-002
3.396030e+003, 3.829070e-002
3.397958e+003, 3.785170e-002
3.399887e+003, 3.800645e-002
3.401815e+003, 3.803470e-002
3.403744e+003, 3.772702e-002
3.405672e+003, 3.734985e-002
3.407601e+003, 3.662456e-002
3.409529e+003, 3.639366e-002
3.411458e+003, 3.632164e-002
3.413386e+003, 3.624083e-002
3.415314e+003, 3.617350e-002
3.417243e+003, 3.638975e-002
3.419171e+003, 3.686199e-002
3.421100e+003, 3.670397e-002
3.423028e+003, 3.663469e-002
3.424957e+003, 3.641041e-002
3.426885e+003, 3.632158e-002
3.428814e+003, 3.649691e-002
3.430742e+003, 3.600213e-002
3.432671e+003, 3.568905e-002
3.434599e+003, 3.581577e-002
3.436528e+003, 3.567149e-002
3.438456e+003, 3.527984e-002
3.440385e+003, 3.499612e-002
3.442313e+003, 3.501028e-002
3.444241e+003, 3.480946e-002
3.446170e+003, 3.486815e-002
3.448098e+003, 3.470322e-002
3.450027e+003, 3.429678e-002
3.451955e+003, 3.443529e-002
3.453884e+003, 3.457485e-002
3.455812e+003, 3.445690e-002
3.457741e+003, 3.460041e-002
3.459669e+003, 3.474692e-002
3.461598e+003, 3.499288e-002
3.463526e+003, 3.536312e-002
3.465455e+003, 3.490423e-002
3.467383e+003, 3.432864e-002
3.469312e+003, 3.419184e-002
3.471240e+003, 3.372248e-002
3.473168e+003, 3.354426e-002
3.475097e+003, 3.378676e-002
3.477025e+003, 3.389009e-002
3.478954e+003, 3.405346e-002
3.480882e+003, 3.433939e-002
3.482811e+003, 3.442613e-002
3.484739e+003, 3.407625e-002
3.486668e+003, 3.378581e-002
3.488596e+003, 3.362025e-002
3.490525e+003, 3.364038e-002
3.492453e+003, 3.332580e-002
3.494382e+003, 3.294488e-002
3.496310e+003, 3.311124e-002
3.498239e+003, 3.321597e-002
3.500167e+003, 3.341423e-002
3.502095e+003, 3.337432e-002
3.504024e+003, 3.305548e-002
3.505952e+003, 3.288062e-002
3.507881e+003, 3.290687e-002
3.509809e+003, 3.320371e-002
3.511738e+003, 3.295055e-002
3.513666e+003, 3.268454e-002
3.515595e+003, 3.286261e-002
3.517523e+003, 3.272024e-002
3.519452e+003, 3.254060e-002
3.521380e+003, 3.287435e-002
3.523309e+003, 3.254423e-002
3.525237e+003, 3.208023e-002
3.527166e+003, 3.210067e-002
3.529094e+003, 3.229854e-002
3.531022e+003, 3.253924e-002
3.532951e+003, 3.231926e-002
3.534879e+003, 3.151482e-002
3.536808e+003, 3.136473e-002
3.538736e+003, 3.204420e-002
3.540665e+003, 3.240588e-002
3.542593e+003, 3.237892e-002
3.544522e+003, 3.285747e-002
3.546450e+003, 3.263458e-002
3.548379e+003, 3.238109e-002
3.550307e+003, 3.235899e-002
3.552236e+003, 3.153645e-002
3.554164e+003, 3.087301e-002
3.556093e+003, 3.133828e-002
3.558021e+003, 3.222154e-002
3.559949e+003, 3.266669e-002
3.561878e+003, 3.251678e-002
3.563806e+003, 3.212648e-002
3.565735e+003, 3.234969e-002
3.567663e+003, 3.228584e-002
3.569592e+003, 3.157775e-002
3.571520e+003, 3.146958e-002
3.573449e+003, 3.201950e-002
3.575377e+003, 3.205479e-002
3.577306e+003, 3.170184e-002
3.579234e+003, 3.129059e-002
3.581163e+003, 3.104753e-002
3.583091e+003, 3.180544e-002
3.585020e+003, 3.246815e-002
3.586948e+003, 3.218518e-002
3.588876e+003, 3.186258e-002
3.590805e+003, 3.130732e-002
3.592733e+003, 3.074655e-002
3.594662e+003, 3.092816e-002
3.596590e+003, 3.140941e-002
3.598519e+003, 3.202985e-002
3.600447e+003, 3.189991e-002
3.602376e+003, 3.108743e-002
3.604304e+003, 3.094727e-002
3.606233e+003, 3.165348e-002
3.608161e+003, 3.147836e-002
3.610090e+003, 3.053508e-002
3.612018e+003, 3.056682e-002
3.613947e+003, 3.081186e-002
3.615875e+003, 3.143746e-002
3.617803e+003, 3.215215e-002
3.619732e+003, 3.210395e-002
3.621660e+003, 3.142977e-002
3.623589e+003, 3.103665e-002
3.625517e+003, 3.159502e-002
3.627446e+003, 3.245142e-002
3.629374e+003, 3.213345e-002
3.631303e+003, 3.102202e-002
3.633231e+003, 3.094136e-002
3.635160e+003, 3.060721e-002
3.637088e+003, 3.072871e-002
3.639017e+003, 3.113323e-002
3.640945e+003, 3.106990e-002
3.642874e+003, 3.107699e-002
3.644802e+003, 3.138903e-002
3.646730e+003, 3.202507e-002
3.648659e+003, 3.196067e-002
3.650587e+003, 3.103915e-002
3.652516e+003, 2.986153e-002
3.654444e+003, 2.966791e-002
3.656373e+003, 2.960457e-002
3.658301e+003, 2.974533e-002
3.660230e+003, 3.022972e-002
3.662158e+003, 3.003357e-002
3.664087e+003, 3.020247e-002
3.666015e+003, 3.040557e-002
3.667944e+003, 3.130333e-002
3.669872e+003, 3.107078e-002
3.671801e+003, 3.063032e-002
3.673729e+003, 3.202383e-002
3.675657e+003, 3.115641e-002
3.677586e+003, 2.993527e-002
3.679514e+003, 3.031705e-002
3.681443e+003, 3.007619e-002
3.683371e+003, 2.950609e-002
3.685300e+003, 2.969101e-002
3.687228e+003, 2.979746e-002
3.689157e+003, 2.996695e-002
3.691085e+003, 3.057350e-002
3.693014e+003, 3.091744e-002
3.694942e+003, 3.112831e-002
3.696871e+003, 3.068982e-002
3.698799e+003, 3.091315e-002
3.700728e+003, 3.084464e-002
3.702656e+003, 3.009221e-002
3.704584e+003, 2.933191e-002
3.706513e+003, 2.986778e-002
3.708441e+003, 3.123846e-002
3.710370e+003, 3.127284e-002
3.712298e+003, 3.015231e-002
3.714227e+003, 2.971929e-002
3.716155e+003, 2.950034e-002
3.718084e+003, 3.008617e-002
3.720012e+003, 3.079585e-002
3.721941e+003, 3.049202e-002
3.723869e+003, 3.043194e-002
3.725798e+003, 3.040306e-002
3.727726e+003, 3.009205e-002
3.729655e+003, 3.052924e-002
3.731583e+003, 3.051294e-002
3.733511e+003, 3.059000e-002
3.735440e+003, 3.116304e-002
3.737368e+003, 3.086716e-002
3.739297e+003, 3.000387e-002
3.741225e+003, 2.935422e-002
3.743154e+003, 2.895864e-002
3.745082e+003, 2.819301e-002
3.747011e+003, 2.932264e-002
3.748939e+003, 2.960290e-002
3.750868e+003, 2.890119e-002
3.752796e+003, 2.889422e-002
3.754725e+003, 2.941942e-002
3.756653e+003, 2.951003e-002
3.758582e+003, 2.989933e-002
3.760510e+003, 2.984312e-002
3.762438e+003, 2.990347e-002
3.764367e+003, 3.022587e-002
3.766295e+003, 3.019448e-002
3.768224e+003, 3.024695e-002
3.770152e+003, 2.937431e-002
3.772081e+003, 2.875977e-002
3.774009e+003, 2.981731e-002
3.775938e+003, 3.016757e-002
3.777866e+003, 3.024779e-002
3.779795e+003, 2.982377e-002
3.781723e+003, 2.963776e-002
3.783652e+003, 2.981486e-002
3.785580e+003, 2.921630e-002
3.787509e+003, 2.916299e-002
3.789437e+003, 2.960953e-002
3.791365e+003, 2.957658e-002
3.793294e+003, 2.980643e-002
3.795222e+003, 2.986888e-002
3.797151e+003, 2.975836e-002
3.799079e+003, 2.978835e-002
3.801008e+003, 2.874844e-002
3.802936e+003, 2.869803e-002
3.804865e+003, 3.007315e-002
3.806793e+003, 3.012100e-002
3.808722e+003, 2.925845e-002
3.810650e+003, 2.903699e-002
3.812579e+003, 2.967786e-002
3.814507e+003, 2.950323e-002
3.816436e+003, 2.847860e-002
3.818364e+003, 2.959758e-002
3.820292e+003, 3.063323e-002
3.822221e+003, 2.995544e-002
3.824149e+003, 2.988197e-002
3.826078e+003, 3.013837e-002
3.828006e+003, 3.017588e-002
3.829935e+003, 3.010663e-002
3.831863e+003, 2.958728e-002
3.833792e+003, 2.983300e-002
3.835720e+003, 2.979441e-002
3.837649e+003, 2.921914e-002
3.839577e+003, 3.005538e-002
3.841506e+003, 3.041220e-002
3.843434e+003, 3.045186e-002
3.845363e+003, 2.980837e-002
3.847291e+003, 2.921582e-002
3.849219e+003, 2.912123e-002
3.851148e+003, 2.924344e-002
3.853076e+003, 2.982950e-002
3.855005e+003, 2.846669e-002
3.856933e+003, 2.900204e-002
3.858862e+003, 2.947530e-002
3.860790e+003, 2.958519e-002
3.862719e+003, 2.951517e-002
3.864647e+003, 2.973972e-002
3.866576e+003, 2.985375e-002
3.868504e+003, 2.992928e-002
3.870433e+003, 2.968674e-002
3.872361e+003, 3.017365e-002
3.874290e+003, 3.001646e-002
3.876218e+003, 2.926950e-002
3.878146e+003, 2.914808e-002
3.880075e+003, 2.966851e-002
3.882003e+003, 2.988848e-002
3.883932e+003, 3.015334e-002
3.885860e+003, 2.972884e-002
3.887789e+003, 2.962329e-002
3.889717e+003, 2.988494e-002
3.891646e+003, 2.974051e-002
3.893574e+003, 2.930490e-002
3.895503e+003, 2.878726e-002
3.897431e+003, 2.956572e-002
3.899360e+003, 3.067959e-002
3.901288e+003, 3.065167e-002
3.903217e+003, 3.029549e-002
3.905145e+003, 2.987115e-002
3.907073e+003, 2.948129e-002
3.909002e+003, 2.901549e-002
3.910930e+003, 2.886561e-002
3.912859e+003, 2.920841e-002
3.914787e+003, 2.976590e-002
3.916716e+003, 2.980675e-002
3.918644e+003, 2.935790e-002
3.920573e+003, 2.876536e-002
3.922501e+003, 2.966748e-002
3.924430e+003, 3.042573e-002
3.926358e+003, 2.985597e-002
3.928287e+003, 3.005737e-002
3.930215e+003, 3.030414e-002
3.932144e+003, 3.002436e-002
3.934072e+003, 2.998810e-002
3.936000e+003, 3.011038e-002
3.937929e+003, 2.925330e-002
3.939857e+003, 2.917470e-002
3.941786e+003, 2.999467e-002
3.943714e+003, 3.002829e-002
3.945643e+003, 2.959033e-002
3.947571e+003, 2.912809e-002
3.949500e+003, 2.894709e-002
3.951428e+003, 2.920849e-002
3.953357e+003, 2.968713e-002
3.955285e+003, 2.971759e-002
3.957214e+003, 2.993025e-002
3.959142e+003, 2.997433e-002
3.961071e+003, 2.918833e-002
3.962999e+003, 2.917870e-002
3.964927e+003, 2.950186e-002
3.966856e+003, 2.932716e-002
3.968784e+003, 2.897235e-002
3.970713e+003, 2.932029e-002
3.972641e+003, 2.971629e-002
3.974570e+003, 2.942423e-002
3.976498e+003, 2.971927e-002
3.978427e+003, 2.977419e-002
3.980355e+003, 2.911774e-002
3.982284e+003, 2.887937e-002
3.984212e+003, 2.973645e-002
3.986141e+003, 3.034271e-002
3.988069e+003, 3.026806e-002
3.989998e+003, 3.015403e-002
3.991926e+003, 2.980044e-002
3.993854e+003, 3.021260e-002
3.995783e+003, 3.075664e-002
3.997711e+003, 2.995064e-002
3.999640e+003, 2.881012e-002
4.001568e+003, 0.000000e+000
##END=



