##NAMES=Scholzite
##RRUFFID=R050238
##IDEAL CHEMISTRY=CaZn^2+^_2_(PO_4_)_2_&#183;2H_2_O
##LOCALITY=near Blinman, South Australia, Australia
##OWNER=RRUFF
##SOURCE=Marcus Origlieri
##DESCRIPTION=Colorless bladed crystals
##STATUS=The identification of this mineral has been confirmed by X-ray diffraction and chemical analysis
##URL=rruff.info/R050238
##MEASURED CHEMISTRY=Ca_1.00_Zn_2.00_(P_1.00_O_4_)_2_Â·2H_2_O
3.991926e+002, 8.409858e-003
4.011211e+002, 1.033153e-002
4.030495e+002, 1.170941e-002
4.049780e+002, 1.284440e-002
4.069065e+002, 1.455472e-002
4.088349e+002, 1.823706e-002
4.107634e+002, 1.988611e-002
4.126919e+002, 2.104509e-002
4.146203e+002, 2.273329e-002
4.165488e+002, 2.301044e-002
4.184773e+002, 2.301799e-002
4.204057e+002, 2.333675e-002
4.223342e+002, 2.278161e-002
4.242627e+002, 2.250966e-002
4.261911e+002, 2.074501e-002
4.281196e+002, 1.773688e-002
4.300481e+002, 1.600364e-002
4.319765e+002, 1.432416e-002
4.339050e+002, 1.330963e-002
4.358335e+002, 1.226411e-002
4.377619e+002, 1.170561e-002
4.396904e+002, 1.146582e-002
4.416189e+002, 1.044705e-002
4.435473e+002, 1.052370e-002
4.454758e+002, 1.094110e-002
4.474043e+002, 1.099886e-002
4.493327e+002, 1.011984e-002
4.512612e+002, 9.775717e-003
4.531897e+002, 1.039349e-002
4.551181e+002, 1.043530e-002
4.570466e+002, 9.817935e-003
4.589751e+002, 1.023357e-002
4.609035e+002, 1.107507e-002
4.628320e+002, 1.099272e-002
4.647605e+002, 1.123975e-002
4.666889e+002, 1.148453e-002
4.686174e+002, 1.188978e-002
4.705459e+002, 1.242850e-002
4.724743e+002, 1.226836e-002
4.744028e+002, 1.260442e-002
4.763313e+002, 1.331488e-002
4.782597e+002, 1.386511e-002
4.801882e+002, 1.437545e-002
4.821167e+002, 1.436046e-002
4.840451e+002, 1.449381e-002
4.859736e+002, 1.530147e-002
4.879021e+002, 1.578791e-002
4.898305e+002, 1.617370e-002
4.917590e+002, 1.691822e-002
4.936875e+002, 1.774511e-002
4.956159e+002, 1.805655e-002
4.975444e+002, 1.876739e-002
4.994729e+002, 1.956392e-002
5.014013e+002, 2.028031e-002
5.033298e+002, 2.103601e-002
5.052583e+002, 2.198274e-002
5.071867e+002, 2.331006e-002
5.091152e+002, 2.382774e-002
5.110437e+002, 2.459302e-002
5.129721e+002, 2.607767e-002
5.149006e+002, 2.753010e-002
5.168290e+002, 2.895992e-002
5.187575e+002, 3.022739e-002
5.206860e+002, 3.161205e-002
5.226144e+002, 3.296931e-002
5.245429e+002, 3.473569e-002
5.264714e+002, 3.681862e-002
5.283998e+002, 3.903734e-002
5.303283e+002, 4.212023e-002
5.322568e+002, 4.566556e-002
5.341852e+002, 4.932509e-002
5.361137e+002, 5.317461e-002
5.380422e+002, 5.752010e-002
5.399706e+002, 6.217932e-002
5.418991e+002, 6.668980e-002
5.438276e+002, 6.990098e-002
5.457560e+002, 7.033771e-002
5.476845e+002, 6.821531e-002
5.496130e+002, 6.481473e-002
5.515414e+002, 6.050105e-002
5.534699e+002, 5.547933e-002
5.553984e+002, 5.010834e-002
5.573268e+002, 4.577541e-002
5.592553e+002, 4.237501e-002
5.611838e+002, 4.046117e-002
5.631122e+002, 4.018509e-002
5.650407e+002, 4.100423e-002
5.669692e+002, 4.250727e-002
5.688976e+002, 4.438629e-002
5.708261e+002, 4.651743e-002
5.727546e+002, 4.864488e-002
5.746830e+002, 5.084907e-002
5.766115e+002, 5.279034e-002
5.785400e+002, 5.445990e-002
5.804684e+002, 5.581871e-002
5.823969e+002, 5.674368e-002
5.843254e+002, 5.685188e-002
5.862538e+002, 5.590931e-002
5.881823e+002, 5.364463e-002
5.901108e+002, 5.081904e-002
5.920392e+002, 4.703743e-002
5.939677e+002, 4.286723e-002
5.958962e+002, 3.924765e-002
5.978246e+002, 3.612798e-002
5.997531e+002, 3.351323e-002
6.016816e+002, 3.184833e-002
6.036100e+002, 3.095199e-002
6.055385e+002, 3.029307e-002
6.074670e+002, 3.008513e-002
6.093954e+002, 3.009835e-002
6.113239e+002, 3.059780e-002
6.132524e+002, 3.154836e-002
6.151808e+002, 3.267089e-002
6.171093e+002, 3.396929e-002
6.190378e+002, 3.543943e-002
6.209662e+002, 3.716853e-002
6.228947e+002, 3.940223e-002
6.248232e+002, 4.171276e-002
6.267516e+002, 4.427053e-002
6.286801e+002, 4.697249e-002
6.306086e+002, 4.972060e-002
6.325370e+002, 5.209878e-002
6.344655e+002, 5.390961e-002
6.363940e+002, 5.526885e-002
6.383224e+002, 5.611188e-002
6.402509e+002, 5.650904e-002
6.421794e+002, 5.637311e-002
6.441078e+002, 5.578524e-002
6.460363e+002, 5.469124e-002
6.479648e+002, 5.297349e-002
6.498932e+002, 5.040806e-002
6.518217e+002, 4.737901e-002
6.537502e+002, 4.436360e-002
6.556786e+002, 4.133673e-002
6.576071e+002, 3.833330e-002
6.595356e+002, 3.557524e-002
6.614641e+002, 3.322618e-002
6.633925e+002, 3.111054e-002
6.653210e+002, 2.902217e-002
6.672495e+002, 2.703776e-002
6.691779e+002, 2.526862e-002
6.711064e+002, 2.382682e-002
6.730349e+002, 2.260252e-002
6.749633e+002, 2.188620e-002
6.768918e+002, 2.156694e-002
6.788203e+002, 2.131157e-002
6.807487e+002, 2.096233e-002
6.826772e+002, 2.069398e-002
6.846057e+002, 2.065709e-002
6.865341e+002, 2.086222e-002
6.884626e+002, 2.100455e-002
6.903911e+002, 2.094852e-002
6.923195e+002, 2.107397e-002
6.942480e+002, 2.096433e-002
6.961765e+002, 2.088133e-002
6.981049e+002, 2.076421e-002
7.000334e+002, 2.076775e-002
7.019619e+002, 2.056348e-002
7.038903e+002, 2.022744e-002
7.058188e+002, 1.985985e-002
7.077473e+002, 1.959017e-002
7.096757e+002, 1.927329e-002
7.116042e+002, 1.892600e-002
7.135327e+002, 1.862571e-002
7.154611e+002, 1.835223e-002
7.173896e+002, 1.813276e-002
7.193181e+002, 1.792065e-002
7.212465e+002, 1.760646e-002
7.231750e+002, 1.730746e-002
7.251035e+002, 1.738609e-002
7.270319e+002, 1.737020e-002
7.289604e+002, 1.704436e-002
7.308889e+002, 1.677639e-002
7.328173e+002, 1.672687e-002
7.347458e+002, 1.660731e-002
7.366743e+002, 1.651094e-002
7.386027e+002, 1.649225e-002
7.405312e+002, 1.642698e-002
7.424597e+002, 1.619920e-002
7.443881e+002, 1.602024e-002
7.463166e+002, 1.599359e-002
7.482451e+002, 1.599058e-002
7.501735e+002, 1.615492e-002
7.521020e+002, 1.616006e-002
7.540305e+002, 1.598707e-002
7.559589e+002, 1.570280e-002
7.578874e+002, 1.552004e-002
7.598159e+002, 1.558398e-002
7.617443e+002, 1.542763e-002
7.636728e+002, 1.540707e-002
7.656013e+002, 1.538391e-002
7.675297e+002, 1.523489e-002
7.694582e+002, 1.493384e-002
7.713867e+002, 1.461763e-002
7.733151e+002, 1.456618e-002
7.752436e+002, 1.456655e-002
7.771721e+002, 1.436710e-002
7.791005e+002, 1.427580e-002
7.810290e+002, 1.422542e-002
7.829575e+002, 1.414671e-002
7.848859e+002, 1.406475e-002
7.868144e+002, 1.389091e-002
7.887429e+002, 1.357128e-002
7.906713e+002, 1.341798e-002
7.925998e+002, 1.329499e-002
7.945283e+002, 1.306995e-002
7.964567e+002, 1.285878e-002
7.983852e+002, 1.269573e-002
8.003137e+002, 1.242409e-002
8.022421e+002, 1.224567e-002
8.041706e+002, 1.224237e-002
8.060991e+002, 1.215922e-002
8.080275e+002, 1.192748e-002
8.099560e+002, 1.175321e-002
8.118845e+002, 1.155842e-002
8.138129e+002, 1.133359e-002
8.157414e+002, 1.140802e-002
8.176699e+002, 1.123930e-002
8.195983e+002, 1.091124e-002
8.215268e+002, 1.069556e-002
8.234553e+002, 1.049408e-002
8.253837e+002, 1.042076e-002
8.273122e+002, 1.036584e-002
8.292407e+002, 1.014232e-002
8.311691e+002, 9.937293e-003
8.330976e+002, 9.800312e-003
8.350261e+002, 9.685907e-003
8.369545e+002, 9.642313e-003
8.388830e+002, 9.550290e-003
8.408115e+002, 9.337508e-003
8.427399e+002, 9.292022e-003
8.446684e+002, 9.330849e-003
8.465969e+002, 9.292006e-003
8.485253e+002, 9.263063e-003
8.504538e+002, 9.329265e-003
8.523823e+002, 9.367692e-003
8.543107e+002, 9.375286e-003
8.562392e+002, 9.331675e-003
8.581677e+002, 9.338749e-003
8.600961e+002, 9.263076e-003
8.620246e+002, 9.280845e-003
8.639531e+002, 9.391633e-003
8.658815e+002, 9.627198e-003
8.678100e+002, 9.840522e-003
8.697385e+002, 1.003061e-002
8.716669e+002, 1.016390e-002
8.735954e+002, 1.027013e-002
8.755239e+002, 1.044259e-002
8.774523e+002, 1.059643e-002
8.793808e+002, 1.068768e-002
8.813093e+002, 1.095382e-002
8.832377e+002, 1.123114e-002
8.851662e+002, 1.154637e-002
8.870947e+002, 1.194350e-002
8.890231e+002, 1.243482e-002
8.909516e+002, 1.278132e-002
8.928801e+002, 1.319185e-002
8.948085e+002, 1.381962e-002
8.967370e+002, 1.460752e-002
8.986655e+002, 1.544700e-002
9.005939e+002, 1.632419e-002
9.025224e+002, 1.744939e-002
9.044509e+002, 1.876379e-002
9.063793e+002, 2.042759e-002
9.083078e+002, 2.251509e-002
9.102363e+002, 2.507041e-002
9.121647e+002, 2.819926e-002
9.140932e+002, 3.185854e-002
9.160217e+002, 3.589087e-002
9.179501e+002, 3.990274e-002
9.198786e+002, 4.363037e-002
9.218071e+002, 4.680164e-002
9.237355e+002, 4.949244e-002
9.256640e+002, 5.174913e-002
9.275925e+002, 5.364366e-002
9.295209e+002, 5.482809e-002
9.314494e+002, 5.516141e-002
9.333779e+002, 5.461662e-002
9.353063e+002, 5.320638e-002
9.372348e+002, 5.107605e-002
9.391633e+002, 4.877065e-002
9.410917e+002, 4.671589e-002
9.430202e+002, 4.508387e-002
9.449487e+002, 4.421971e-002
9.468771e+002, 4.426786e-002
9.488056e+002, 4.540635e-002
9.507341e+002, 4.752943e-002
9.526625e+002, 5.018324e-002
9.545910e+002, 5.270630e-002
9.565195e+002, 5.462929e-002
9.584479e+002, 5.537025e-002
9.603764e+002, 5.399952e-002
9.623049e+002, 5.048185e-002
9.642333e+002, 4.536685e-002
9.661618e+002, 3.975732e-002
9.680903e+002, 3.471307e-002
9.700187e+002, 3.120348e-002
9.719472e+002, 2.933234e-002
9.738757e+002, 2.893433e-002
9.758041e+002, 2.963349e-002
9.777326e+002, 3.129993e-002
9.796611e+002, 3.381265e-002
9.815895e+002, 3.739569e-002
9.835180e+002, 4.220089e-002
9.854465e+002, 4.793536e-002
9.873749e+002, 5.417976e-002
9.893034e+002, 6.039055e-002
9.912319e+002, 6.603538e-002
9.931603e+002, 7.073795e-002
9.950888e+002, 7.446217e-002
9.970173e+002, 7.797029e-002
9.989457e+002, 8.171187e-002
1.000874e+003, 8.547798e-002
1.002803e+003, 8.866775e-002
1.004731e+003, 9.069870e-002
1.006660e+003, 9.130915e-002
1.008588e+003, 9.035577e-002
1.010517e+003, 8.744826e-002
1.012445e+003, 8.303668e-002
1.014373e+003, 7.756811e-002
1.016302e+003, 7.202725e-002
1.018230e+003, 6.761834e-002
1.020159e+003, 6.483271e-002
1.022087e+003, 6.370712e-002
1.024016e+003, 6.370240e-002
1.025944e+003, 6.387244e-002
1.027873e+003, 6.360865e-002
1.029801e+003, 6.349166e-002
1.031730e+003, 6.482665e-002
1.033658e+003, 6.802669e-002
1.035587e+003, 7.205782e-002
1.037515e+003, 7.618705e-002
1.039443e+003, 8.034363e-002
1.041372e+003, 8.439428e-002
1.043300e+003, 8.780858e-002
1.045229e+003, 9.033325e-002
1.047157e+003, 9.175780e-002
1.049086e+003, 9.243792e-002
1.051014e+003, 9.309920e-002
1.052943e+003, 9.365614e-002
1.054871e+003, 9.370223e-002
1.056800e+003, 9.269643e-002
1.058728e+003, 9.070716e-002
1.060657e+003, 8.818664e-002
1.062585e+003, 8.542321e-002
1.064514e+003, 8.266907e-002
1.066442e+003, 8.003093e-002
1.068370e+003, 7.733074e-002
1.070299e+003, 7.460317e-002
1.072227e+003, 7.188197e-002
1.074156e+003, 6.931073e-002
1.076084e+003, 6.705152e-002
1.078013e+003, 6.482571e-002
1.079941e+003, 6.277904e-002
1.081870e+003, 6.136850e-002
1.083798e+003, 6.022998e-002
1.085727e+003, 5.944014e-002
1.087655e+003, 5.932107e-002
1.089584e+003, 6.010975e-002
1.091512e+003, 6.178192e-002
1.093441e+003, 6.441712e-002
1.095369e+003, 6.779186e-002
1.097297e+003, 7.136796e-002
1.099226e+003, 7.438406e-002
1.101154e+003, 7.666482e-002
1.103083e+003, 7.868352e-002
1.105011e+003, 8.053602e-002
1.106940e+003, 8.221882e-002
1.108868e+003, 8.343397e-002
1.110797e+003, 8.368250e-002
1.112725e+003, 8.288917e-002
1.114654e+003, 8.092431e-002
1.116582e+003, 7.801275e-002
1.118511e+003, 7.444806e-002
1.120439e+003, 7.039209e-002
1.122368e+003, 6.654886e-002
1.124296e+003, 6.294261e-002
1.126224e+003, 5.946418e-002
1.128153e+003, 5.600481e-002
1.130081e+003, 5.226463e-002
1.132010e+003, 4.837919e-002
1.133938e+003, 4.434804e-002
1.135867e+003, 4.027168e-002
1.137795e+003, 3.613754e-002
1.139724e+003, 3.211767e-002
1.141652e+003, 2.827646e-002
1.143581e+003, 2.481539e-002
1.145509e+003, 2.192414e-002
1.147438e+003, 1.942646e-002
1.149366e+003, 1.724198e-002
1.151295e+003, 1.543337e-002
1.153223e+003, 1.360610e-002
1.155151e+003, 1.186259e-002
1.157080e+003, 1.063203e-002
1.159008e+003, 9.619438e-003
1.160937e+003, 8.598212e-003
1.162865e+003, 7.931815e-003
1.164794e+003, 7.475656e-003
1.166722e+003, 6.983301e-003
1.168651e+003, 6.474289e-003
1.170579e+003, 6.005177e-003
1.172508e+003, 5.573626e-003
1.174436e+003, 5.194228e-003
1.176365e+003, 4.758256e-003
1.178293e+003, 4.452379e-003
1.180222e+003, 4.340009e-003
1.182150e+003, 4.115214e-003
1.184078e+003, 3.812094e-003
1.186007e+003, 3.711826e-003
1.187935e+003, 3.710931e-003
1.189864e+003, 3.582567e-003
1.191792e+003, 3.276272e-003
1.193721e+003, 3.147701e-003
1.195649e+003, 3.070539e-003
1.197578e+003, 2.942521e-003
1.199506e+003, 2.840606e-003
1.201435e+003, 2.786790e-003
1.203363e+003, 2.738081e-003
1.205292e+003, 2.731761e-003
1.207220e+003, 2.677725e-003
1.209149e+003, 2.568589e-003
1.211077e+003, 2.382490e-003
1.213005e+003, 2.298897e-003
1.214934e+003, 2.369236e-003
1.216862e+003, 2.426224e-003
1.218791e+003, 2.426796e-003
1.220719e+003, 2.281837e-003
1.222648e+003, 2.141165e-003
1.224576e+003, 2.088301e-003
1.226505e+003, 2.024865e-003
1.228433e+003, 1.982102e-003
1.230362e+003, 1.967017e-003
1.232290e+003, 2.046219e-003
1.234219e+003, 2.014419e-003
1.236147e+003, 1.986664e-003
1.238076e+003, 1.943755e-003
1.240004e+003, 1.903713e-003
1.241932e+003, 2.002868e-003
1.243861e+003, 2.119556e-003
1.245789e+003, 2.051753e-003
1.247718e+003, 2.055901e-003
1.249646e+003, 2.043425e-003
1.251575e+003, 1.945917e-003
1.253503e+003, 1.864121e-003
1.255432e+003, 1.859454e-003
1.257360e+003, 1.914752e-003
1.259289e+003, 1.986376e-003
1.261217e+003, 1.895251e-003
1.263146e+003, 1.703212e-003
1.265074e+003, 1.749226e-003
1.267003e+003, 1.831682e-003
1.268931e+003, 1.796359e-003
1.270859e+003, 1.722862e-003
1.272788e+003, 1.760400e-003
1.274716e+003, 1.880974e-003
1.276645e+003, 1.866951e-003
1.278573e+003, 1.890194e-003
1.280502e+003, 1.974041e-003
1.282430e+003, 1.969192e-003
1.284359e+003, 1.922771e-003
1.286287e+003, 1.879285e-003
1.288216e+003, 1.923795e-003
1.290144e+003, 1.981993e-003
1.292073e+003, 1.894938e-003
1.294001e+003, 1.824192e-003
1.295930e+003, 1.865618e-003
1.297858e+003, 1.832268e-003
1.299786e+003, 1.681530e-003
1.301715e+003, 1.666749e-003
1.303643e+003, 1.770626e-003
1.305572e+003, 1.812759e-003
1.307500e+003, 1.833371e-003
1.309429e+003, 1.754279e-003
1.311357e+003, 1.698364e-003
1.313286e+003, 1.755796e-003
1.315214e+003, 1.769245e-003
1.317143e+003, 1.724857e-003
1.319071e+003, 1.648728e-003
1.321000e+003, 1.661397e-003
1.322928e+003, 1.738150e-003
1.324857e+003, 1.868587e-003
1.326785e+003, 1.843815e-003
1.328714e+003, 1.691578e-003
1.330642e+003, 1.616293e-003
1.332570e+003, 1.694469e-003
1.334499e+003, 1.785515e-003
1.336427e+003, 1.757705e-003
1.338356e+003, 1.687377e-003
1.340284e+003, 1.661251e-003
1.342213e+003, 1.672909e-003
1.344141e+003, 1.648323e-003
1.346070e+003, 1.568569e-003
1.347998e+003, 1.609099e-003
1.349927e+003, 1.673782e-003
1.351855e+003, 1.746058e-003
1.353784e+003, 1.766896e-003
1.355712e+003, 1.720565e-003
1.357641e+003, 1.657504e-003
1.359569e+003, 1.647338e-003
1.361497e+003, 1.644511e-003
1.363426e+003, 1.764172e-003
1.365354e+003, 1.841890e-003
1.367283e+003, 1.760013e-003
1.369211e+003, 1.723088e-003
1.371140e+003, 1.695982e-003
1.373068e+003, 1.682120e-003
1.374997e+003, 1.642265e-003
1.376925e+003, 1.549738e-003
1.378854e+003, 1.611447e-003
1.380782e+003, 1.749491e-003
1.382711e+003, 1.833584e-003
1.384639e+003, 1.756759e-003
1.386568e+003, 1.685025e-003
1.388496e+003, 1.720029e-003
1.390424e+003, 1.809089e-003
1.392353e+003, 1.778791e-003
1.394281e+003, 1.819617e-003
1.396210e+003, 1.861665e-003
1.398138e+003, 1.965211e-003
1.400067e+003, 1.975692e-003
1.401995e+003, 1.844396e-003
1.403924e+003, 1.764117e-003
1.405852e+003, 1.940063e-003
1.407781e+003, 2.065941e-003
1.409709e+003, 2.021531e-003
1.411638e+003, 1.962024e-003
1.413566e+003, 1.892868e-003
1.415495e+003, 1.837777e-003
1.417423e+003, 1.851347e-003
1.419351e+003, 1.942268e-003
1.421280e+003, 2.004623e-003
1.423208e+003, 1.998971e-003
1.425137e+003, 2.016647e-003
1.427065e+003, 2.091862e-003
1.428994e+003, 2.109941e-003
1.430922e+003, 2.161265e-003
1.432851e+003, 2.115970e-003
1.434779e+003, 1.993334e-003
1.436708e+003, 2.000936e-003
1.438636e+003, 1.978182e-003
1.440565e+003, 2.015935e-003
1.442493e+003, 1.974144e-003
1.444422e+003, 1.893733e-003
1.446350e+003, 1.945536e-003
1.448278e+003, 1.873001e-003
1.450207e+003, 1.901039e-003
1.452135e+003, 2.065744e-003
1.454064e+003, 1.941769e-003
1.455992e+003, 1.804906e-003
1.457921e+003, 1.883505e-003
1.459849e+003, 1.930879e-003
1.461778e+003, 1.934602e-003
1.463706e+003, 1.902863e-003
1.465635e+003, 1.930024e-003
1.467563e+003, 1.987149e-003
1.469492e+003, 1.959341e-003
1.471420e+003, 1.987639e-003
1.473349e+003, 2.057632e-003
1.475277e+003, 2.040870e-003
1.477205e+003, 2.088516e-003
1.479134e+003, 2.168795e-003
1.481062e+003, 2.096548e-003
1.482991e+003, 2.116787e-003
1.484919e+003, 2.221881e-003
1.486848e+003, 2.222848e-003
1.488776e+003, 2.163823e-003
1.490705e+003, 2.180706e-003
1.492633e+003, 2.212022e-003
1.494562e+003, 2.200381e-003
1.496490e+003, 2.108014e-003
1.498419e+003, 2.136938e-003
1.500347e+003, 2.156058e-003
1.502276e+003, 2.065410e-003
1.504204e+003, 2.092373e-003
1.506132e+003, 2.212526e-003
1.508061e+003, 2.259484e-003
1.509989e+003, 2.254856e-003
1.511918e+003, 2.211454e-003
1.513846e+003, 2.257219e-003
1.515775e+003, 2.247207e-003
1.517703e+003, 2.152602e-003
1.519632e+003, 2.156008e-003
1.521560e+003, 2.144486e-003
1.523489e+003, 2.199990e-003
1.525417e+003, 2.259537e-003
1.527346e+003, 2.204269e-003
1.529274e+003, 2.208033e-003
1.531203e+003, 2.164768e-003
1.533131e+003, 2.089184e-003
1.535059e+003, 2.098300e-003
1.536988e+003, 2.177380e-003
1.538916e+003, 2.217474e-003
1.540845e+003, 2.279998e-003
1.542773e+003, 2.321689e-003
1.544702e+003, 2.302122e-003
1.546630e+003, 2.263972e-003
1.548559e+003, 2.313757e-003
1.550487e+003, 2.281810e-003
1.552416e+003, 2.232128e-003
1.554344e+003, 2.295480e-003
1.556273e+003, 2.314283e-003
1.558201e+003, 2.346906e-003
1.560130e+003, 2.297070e-003
1.562058e+003, 2.343137e-003
1.563986e+003, 2.456713e-003
1.565915e+003, 2.411233e-003
1.567843e+003, 2.398478e-003
1.569772e+003, 2.480633e-003
1.571700e+003, 2.533826e-003
1.573629e+003, 2.460179e-003
1.575557e+003, 2.445506e-003
1.577486e+003, 2.512780e-003
1.579414e+003, 2.582266e-003
1.581343e+003, 2.471850e-003
1.583271e+003, 2.332014e-003
1.585200e+003, 2.502645e-003
1.587128e+003, 2.634979e-003
1.589057e+003, 2.608122e-003
1.590985e+003, 2.536176e-003
1.592913e+003, 2.530003e-003
1.594842e+003, 2.551811e-003
1.596770e+003, 2.549185e-003
1.598699e+003, 2.686064e-003
1.600627e+003, 2.723296e-003
1.602556e+003, 2.652981e-003
1.604484e+003, 2.713834e-003
1.606413e+003, 2.724387e-003
1.608341e+003, 2.744000e-003
1.610270e+003, 2.791989e-003
1.612198e+003, 2.881710e-003
1.614127e+003, 2.912839e-003
1.616055e+003, 2.898164e-003
1.617984e+003, 3.135098e-003
1.619912e+003, 3.287192e-003
1.621840e+003, 3.371364e-003
1.623769e+003, 3.506343e-003
1.625697e+003, 3.670950e-003
1.627626e+003, 3.920503e-003
1.629554e+003, 4.091929e-003
1.631483e+003, 4.311321e-003
1.633411e+003, 4.670956e-003
1.635340e+003, 5.021017e-003
1.637268e+003, 5.271164e-003
1.639197e+003, 5.690302e-003
1.641125e+003, 6.091173e-003
1.643054e+003, 6.378269e-003
1.644982e+003, 6.717307e-003
1.646911e+003, 7.000352e-003
1.648839e+003, 7.151757e-003
1.650767e+003, 7.354750e-003
1.652696e+003, 7.436350e-003
1.654624e+003, 7.263767e-003
1.656553e+003, 7.152291e-003
1.658481e+003, 7.185845e-003
1.660410e+003, 6.892068e-003
1.662338e+003, 6.483721e-003
1.664267e+003, 6.182368e-003
1.666195e+003, 6.033396e-003
1.668124e+003, 5.882249e-003
1.670052e+003, 5.753869e-003
1.671981e+003, 5.674502e-003
1.673909e+003, 5.412765e-003
1.675838e+003, 5.269965e-003
1.677766e+003, 5.080669e-003
1.679694e+003, 4.806826e-003
1.681623e+003, 4.581891e-003
1.683551e+003, 4.532284e-003
1.685480e+003, 4.326029e-003
1.687408e+003, 4.101303e-003
1.689337e+003, 3.909157e-003
1.691265e+003, 3.651677e-003
1.693194e+003, 3.484441e-003
1.695122e+003, 3.351205e-003
1.697051e+003, 3.091763e-003
1.698979e+003, 2.919355e-003
1.700908e+003, 2.895772e-003
1.702836e+003, 2.766276e-003
1.704765e+003, 2.439884e-003
1.706693e+003, 2.219630e-003
1.708621e+003, 2.177479e-003
1.710550e+003, 2.181679e-003
1.712478e+003, 2.000273e-003
1.714407e+003, 1.789629e-003
1.716335e+003, 1.653284e-003
1.718264e+003, 1.727818e-003
1.720192e+003, 1.894685e-003
1.722121e+003, 1.707800e-003
1.724049e+003, 1.587465e-003
1.725978e+003, 1.542000e-003
1.727906e+003, 1.485591e-003
1.729835e+003, 1.421017e-003
1.731763e+003, 1.292325e-003
1.733692e+003, 1.244146e-003
1.735620e+003, 1.189400e-003
1.737548e+003, 1.041365e-003
1.739477e+003, 9.317562e-004
1.741405e+003, 9.353708e-004
1.743334e+003, 9.543755e-004
1.745262e+003, 9.044633e-004
1.747191e+003, 1.022012e-003
1.749119e+003, 1.244774e-003
1.751048e+003, 1.209809e-003
1.752976e+003, 1.189425e-003
1.754905e+003, 1.214885e-003
1.756833e+003, 1.169096e-003
1.758762e+003, 1.257972e-003
1.760690e+003, 1.298720e-003
1.762619e+003, 1.108082e-003
1.764547e+003, 1.182353e-003
1.766475e+003, 1.397271e-003
1.768404e+003, 1.400072e-003
1.770332e+003, 1.357099e-003
1.772261e+003, 1.309739e-003
1.774189e+003, 1.288831e-003
1.776118e+003, 1.313788e-003
1.778046e+003, 1.321514e-003
1.779975e+003, 1.227645e-003
1.781903e+003, 1.114424e-003
1.783832e+003, 1.128460e-003
1.785760e+003, 1.353504e-003
1.787689e+003, 1.623070e-003
1.789617e+003, 1.459041e-003
1.791546e+003, 1.174055e-003
1.793474e+003, 1.287379e-003
1.795402e+003, 1.488331e-003
1.797331e+003, 1.538784e-003
1.799259e+003, 1.423351e-003
1.801188e+003, 1.288429e-003
1.803116e+003, 1.360053e-003
1.805045e+003, 1.356283e-003
1.806973e+003, 1.284792e-003
1.808902e+003, 1.313766e-003
1.810830e+003, 1.300550e-003
1.812759e+003, 9.407269e-004
1.814687e+003, 8.737448e-004
1.816616e+003, 1.106809e-003
1.818544e+003, 1.233851e-003
1.820473e+003, 1.226387e-003
1.822401e+003, 9.811493e-004
1.824329e+003, 6.460480e-004
1.826258e+003, 7.181835e-004
1.828186e+003, 8.000488e-004
1.830115e+003, 1.079117e-003
1.832043e+003, 1.101883e-003
1.833972e+003, 7.466400e-004
1.835900e+003, 7.686642e-004
1.837829e+003, 8.295628e-004
1.839757e+003, 9.565031e-004
1.841686e+003, 1.014552e-003
1.843614e+003, 9.238028e-004
1.845543e+003, 9.490025e-004
1.847471e+003, 9.366238e-004
1.849400e+003, 9.666716e-004
1.851328e+003, 8.622264e-004
1.853256e+003, 7.296102e-004
1.855185e+003, 7.840649e-004
1.857113e+003, 8.568762e-004
1.859042e+003, 7.280289e-004
1.860970e+003, 6.335518e-004
1.862899e+003, 6.036221e-004
1.864827e+003, 8.759248e-004
1.866756e+003, 7.329952e-004
1.868684e+003, 5.124614e-004
1.870613e+003, 5.668167e-004
1.872541e+003, 5.450415e-004
1.874470e+003, 4.602671e-004
1.876398e+003, 3.609168e-004
1.878327e+003, 2.866135e-004
1.880255e+003, 4.760830e-004
1.882183e+003, 6.746522e-004
1.884112e+003, 5.279089e-004
1.886040e+003, 4.012731e-004
1.887969e+003, 5.401676e-004
1.889897e+003, 3.937383e-004
1.891826e+003, 2.211252e-004
1.893754e+003, 1.376268e-004
1.895683e+003, 2.973710e-004
1.897611e+003, 4.250255e-004
1.899540e+003, 7.916688e-004
1.901468e+003, 6.001167e-004
1.903397e+003, 1.660806e-004
1.905325e+003, 1.322482e-004
1.907254e+003, 3.701200e-004
1.909182e+003, 2.856555e-004
1.911110e+003, 9.857219e-005
1.913039e+003, 1.021367e-005
1.914967e+003, 1.940521e-004
1.916896e+003, 2.247147e-004
1.918824e+003, 2.722040e-004
1.920753e+003, 8.217359e-004
1.922681e+003, 7.929748e-004
1.924610e+003, 5.178544e-004
1.926538e+003, 5.695035e-004
1.928467e+003, 4.265650e-004
1.930395e+003, 4.745147e-004
1.932324e+003, 6.821090e-004
1.934252e+003, 5.389435e-004
1.936181e+003, 2.883673e-004
1.938109e+003, 1.070077e-003
1.940037e+003, 1.515573e-003
1.941966e+003, 1.347130e-003
1.943894e+003, 1.329352e-003
1.945823e+003, 1.745825e-003
1.947751e+003, 1.637008e-003
1.949680e+003, 1.565391e-003
1.951608e+003, 1.875591e-003
1.953537e+003, 2.151239e-003
1.955465e+003, 2.316745e-003
1.957394e+003, 2.041464e-003
1.959322e+003, 1.197491e-003
1.961251e+003, 1.061882e-003
1.963179e+003, 1.354979e-003
1.965108e+003, 1.128797e-003
1.967036e+003, 9.554983e-004
1.968964e+003, 1.090248e-003
1.970893e+003, 7.727953e-004
1.972821e+003, 5.403904e-004
1.974750e+003, 1.116546e-004
1.976678e+003, 1.160882e-004
1.978607e+003, 3.618738e-004
1.980535e+003, -1.788291e-004
1.982464e+003, -7.725118e-004
1.984392e+003, -1.062177e-003
1.986321e+003, -8.234999e-004
1.988249e+003, -3.907129e-004
1.990178e+003, -3.567054e-004
1.992106e+003, -3.639895e-004
1.994035e+003, -3.647213e-004
1.995963e+003, -1.260082e-004
1.997891e+003, 2.366046e-004
1.999820e+003, 4.421049e-004
2.001748e+003, 1.224992e-005
2.003677e+003, -1.293551e-004
2.005605e+003, -1.061143e-003
2.007534e+003, -1.588154e-003
2.009462e+003, -1.149855e-003
2.011391e+003, 2.785411e-004
2.013319e+003, 5.378961e-004
2.015248e+003, 1.862028e-004
2.017176e+003, 8.295150e-005
2.019105e+003, -2.840369e-004
2.021033e+003, -2.540555e-004
2.022962e+003, -2.889126e-005
2.024890e+003, -5.374211e-004
2.026818e+003, -4.216917e-004
2.028747e+003, 8.608266e-004
2.030675e+003, 1.732497e-004
2.032604e+003, -2.071238e-004
2.034532e+003, 1.334629e-003
2.036461e+003, 2.044139e-004
2.038389e+003, -5.734568e-004
2.040318e+003, -2.607072e-004
2.042246e+003, 2.755483e-004
2.044175e+003, 7.330399e-004
2.046103e+003, 1.270681e-003
2.048031e+003, 1.519693e-003
2.049960e+003, 1.532702e-003
2.051888e+003, 8.525862e-004
2.053817e+003, 7.170043e-004
2.055745e+003, 8.320701e-004
2.057674e+003, 4.909929e-004
2.059602e+003, 5.789916e-006
2.061531e+003, 5.397738e-004
2.063459e+003, 5.874611e-004
2.065388e+003, 4.210955e-004
2.067316e+003, 7.776042e-004
2.069245e+003, 1.225786e-003
2.071173e+003, 1.359406e-003
2.073102e+003, 1.086793e-003
2.075030e+003, 7.330680e-004
2.076958e+003, 7.769937e-004
2.078887e+003, 5.496052e-004
2.080815e+003, 3.703989e-004
2.082744e+003, 8.231553e-004
2.084672e+003, 1.247848e-003
2.086601e+003, 8.222621e-004
2.088529e+003, 7.083280e-004
2.090458e+003, 8.840449e-004
2.092386e+003, 4.604898e-004
2.094315e+003, 3.157773e-004
2.096243e+003, 1.195207e-003
2.098172e+003, 1.803623e-003
2.100100e+003, 9.747844e-004
2.102029e+003, 7.591637e-004
2.103957e+003, 7.961892e-004
2.105885e+003, 7.629666e-004
2.107814e+003, 8.793345e-004
2.109742e+003, 1.133615e-003
2.111671e+003, 1.107376e-003
2.113599e+003, 6.579661e-004
2.115528e+003, 6.672957e-004
2.117456e+003, 9.566007e-004
2.119385e+003, 9.991088e-004
2.121313e+003, 1.117699e-003
2.123242e+003, 1.706159e-003
2.125170e+003, 2.189657e-003
2.127099e+003, 2.094866e-003
2.129027e+003, 1.549485e-003
2.130956e+003, 1.614653e-003
2.132884e+003, 1.407166e-003
2.134813e+003, 5.022612e-004
2.136741e+003, 5.038712e-004
2.138669e+003, 1.421941e-003
2.140598e+003, 1.388961e-003
2.142526e+003, 1.844502e-003
2.144455e+003, 2.486940e-003
2.146383e+003, 2.592635e-003
2.148312e+003, 2.815719e-003
2.150240e+003, 2.900023e-003
2.152169e+003, 2.944861e-003
2.154097e+003, 2.899993e-003
2.156026e+003, 3.126976e-003
2.157954e+003, 3.219092e-003
2.159883e+003, 3.475391e-003
2.161811e+003, 2.841496e-003
2.163740e+003, 9.953182e-004
2.165668e+003, 1.295171e-003
2.167596e+003, 1.863769e-003
2.169525e+003, 2.538553e-003
2.171453e+003, 2.789566e-003
2.173382e+003, 2.826796e-003
2.175310e+003, 2.492225e-003
2.177239e+003, 2.310065e-003
2.179167e+003, 2.167977e-003
2.181096e+003, 2.261869e-003
2.183024e+003, 1.994196e-003
2.184953e+003, 1.710717e-003
2.186881e+003, 1.981620e-003
2.188810e+003, 2.345548e-003
2.190738e+003, 1.947812e-003
2.192667e+003, 1.631741e-003
2.194595e+003, 1.772434e-003
2.196523e+003, 1.966363e-003
2.198452e+003, 1.097233e-003
2.200380e+003, 9.433747e-004
2.202309e+003, 2.239494e-003
2.204237e+003, 3.177033e-003
2.206166e+003, 3.119279e-003
2.208094e+003, 2.769723e-003
2.210023e+003, 2.284702e-003
2.211951e+003, 2.241626e-003
2.213880e+003, 1.753129e-003
2.215808e+003, 1.373646e-003
2.217737e+003, 1.068133e-003
2.219665e+003, 9.775391e-004
2.221594e+003, 1.704421e-003
2.223522e+003, 1.795117e-003
2.225450e+003, 2.122969e-003
2.227379e+003, 2.195659e-003
2.229307e+003, 2.186916e-003
2.231236e+003, 2.305014e-003
2.233164e+003, 2.351398e-003
2.235093e+003, 2.678295e-003
2.237021e+003, 2.881998e-003
2.238950e+003, 2.961626e-003
2.240878e+003, 2.569493e-003
2.242807e+003, 1.947077e-003
2.244735e+003, 2.234832e-003
2.246664e+003, 2.638984e-003
2.248592e+003, 2.758972e-003
2.250521e+003, 2.594675e-003
2.252449e+003, 2.283594e-003
2.254377e+003, 1.888029e-003
2.256306e+003, 1.972904e-003
2.258234e+003, 1.654767e-003
2.260163e+003, 1.643202e-003
2.262091e+003, 1.847917e-003
2.264020e+003, 2.129795e-003
2.265948e+003, 2.510158e-003
2.267877e+003, 2.592704e-003
2.269805e+003, 2.934680e-003
2.271734e+003, 2.757507e-003
2.273662e+003, 2.432497e-003
2.275591e+003, 2.237702e-003
2.277519e+003, 2.308498e-003
2.279448e+003, 2.363798e-003
2.281376e+003, 2.806869e-003
2.283304e+003, 2.817799e-003
2.285233e+003, 2.828465e-003
2.287161e+003, 2.637960e-003
2.289090e+003, 2.456929e-003
2.291018e+003, 2.384119e-003
2.292947e+003, 2.439236e-003
2.294875e+003, 2.514895e-003
2.296804e+003, 2.573056e-003
2.298732e+003, 2.478249e-003
2.300661e+003, 2.716256e-003
2.302589e+003, 3.170347e-003
2.304518e+003, 2.975153e-003
2.306446e+003, 2.470468e-003
2.308375e+003, 2.646508e-003
2.310303e+003, 2.655289e-003
2.312231e+003, 2.575071e-003
2.314160e+003, 2.628606e-003
2.316088e+003, 2.900326e-003
2.318017e+003, 2.893908e-003
2.319945e+003, 2.825661e-003
2.321874e+003, 2.819003e-003
2.323802e+003, 2.772492e-003
2.325731e+003, 2.814241e-003
2.327659e+003, 2.874611e-003
2.329588e+003, 2.803735e-003
2.331516e+003, 2.727241e-003
2.333445e+003, 2.808749e-003
2.335373e+003, 3.163334e-003
2.337302e+003, 3.228434e-003
2.339230e+003, 3.098230e-003
2.341158e+003, 3.054759e-003
2.343087e+003, 2.905381e-003
2.345015e+003, 2.847104e-003
2.346944e+003, 2.909477e-003
2.348872e+003, 2.925925e-003
2.350801e+003, 2.921790e-003
2.352729e+003, 2.787395e-003
2.354658e+003, 2.900084e-003
2.356586e+003, 3.088517e-003
2.358515e+003, 3.188717e-003
2.360443e+003, 3.355157e-003
2.362372e+003, 3.345915e-003
2.364300e+003, 2.977413e-003
2.366229e+003, 2.780380e-003
2.368157e+003, 2.927318e-003
2.370085e+003, 3.132049e-003
2.372014e+003, 3.043212e-003
2.373942e+003, 2.976226e-003
2.375871e+003, 3.170995e-003
2.377799e+003, 2.865430e-003
2.379728e+003, 2.745807e-003
2.381656e+003, 2.971871e-003
2.383585e+003, 2.982943e-003
2.385513e+003, 3.086481e-003
2.387442e+003, 3.324231e-003
2.389370e+003, 3.248938e-003
2.391299e+003, 3.087911e-003
2.393227e+003, 3.048440e-003
2.395156e+003, 2.985515e-003
2.397084e+003, 3.061847e-003
2.399012e+003, 2.857326e-003
2.400941e+003, 2.481999e-003
2.402869e+003, 2.439143e-003
2.404798e+003, 2.777535e-003
2.406726e+003, 3.102135e-003
2.408655e+003, 3.214943e-003
2.410583e+003, 2.763895e-003
2.412512e+003, 2.684096e-003
2.414440e+003, 2.952446e-003
2.416369e+003, 3.155946e-003
2.418297e+003, 3.207840e-003
2.420226e+003, 2.999158e-003
2.422154e+003, 2.572317e-003
2.424083e+003, 2.771640e-003
2.426011e+003, 3.234559e-003
2.427939e+003, 3.430036e-003
2.429868e+003, 3.146315e-003
2.431796e+003, 2.963832e-003
2.433725e+003, 2.929860e-003
2.435653e+003, 2.868769e-003
2.437582e+003, 2.598692e-003
2.439510e+003, 2.577208e-003
2.441439e+003, 2.916579e-003
2.443367e+003, 3.129034e-003
2.445296e+003, 2.967160e-003
2.447224e+003, 2.876685e-003
2.449153e+003, 2.902832e-003
2.451081e+003, 2.755892e-003
2.453010e+003, 2.688023e-003
2.454938e+003, 2.698077e-003
2.456866e+003, 2.497863e-003
2.458795e+003, 2.584701e-003
2.460723e+003, 2.689915e-003
2.462652e+003, 2.825823e-003
2.464580e+003, 2.845261e-003
2.466509e+003, 2.949139e-003
2.468437e+003, 3.049321e-003
2.470366e+003, 3.117331e-003
2.472294e+003, 2.865728e-003
2.474223e+003, 2.648722e-003
2.476151e+003, 2.817057e-003
2.478080e+003, 2.719184e-003
2.480008e+003, 2.697287e-003
2.481937e+003, 2.830670e-003
2.483865e+003, 2.786208e-003
2.485793e+003, 3.048794e-003
2.487722e+003, 2.711112e-003
2.489650e+003, 2.572935e-003
2.491579e+003, 2.730874e-003
2.493507e+003, 2.859429e-003
2.495436e+003, 2.857363e-003
2.497364e+003, 2.595654e-003
2.499293e+003, 2.507051e-003
2.501221e+003, 2.328626e-003
2.503150e+003, 2.413997e-003
2.505078e+003, 2.813089e-003
2.507007e+003, 2.932228e-003
2.508935e+003, 2.934517e-003
2.510864e+003, 2.672082e-003
2.512792e+003, 2.262534e-003
2.514720e+003, 2.187593e-003
2.516649e+003, 2.579560e-003
2.518577e+003, 2.554395e-003
2.520506e+003, 2.589458e-003
2.522434e+003, 2.907431e-003
2.524363e+003, 2.953306e-003
2.526291e+003, 2.536365e-003
2.528220e+003, 2.524322e-003
2.530148e+003, 2.780991e-003
2.532077e+003, 2.826302e-003
2.534005e+003, 2.515157e-003
2.535934e+003, 2.245461e-003
2.537862e+003, 2.565840e-003
2.539791e+003, 3.108969e-003
2.541719e+003, 3.102252e-003
2.543647e+003, 2.766207e-003
2.545576e+003, 2.878274e-003
2.547504e+003, 2.519117e-003
2.549433e+003, 2.039939e-003
2.551361e+003, 2.248021e-003
2.553290e+003, 2.333766e-003
2.555218e+003, 2.350166e-003
2.557147e+003, 2.285157e-003
2.559075e+003, 2.204002e-003
2.561004e+003, 2.095439e-003
2.562932e+003, 2.296495e-003
2.564861e+003, 2.472768e-003
2.566789e+003, 3.015532e-003
2.568718e+003, 3.092262e-003
2.570646e+003, 2.819891e-003
2.572574e+003, 2.515744e-003
2.574503e+003, 2.529465e-003
2.576431e+003, 2.586250e-003
2.578360e+003, 2.747851e-003
2.580288e+003, 3.001853e-003
2.582217e+003, 2.699213e-003
2.584145e+003, 2.329440e-003
2.586074e+003, 2.548907e-003
2.588002e+003, 2.726879e-003
2.589931e+003, 2.871762e-003
2.591859e+003, 2.837872e-003
2.593788e+003, 2.891717e-003
2.595716e+003, 3.001269e-003
2.597645e+003, 3.027442e-003
2.599573e+003, 2.961252e-003
2.601501e+003, 2.903944e-003
2.603430e+003, 3.036306e-003
2.605358e+003, 2.973081e-003
2.607287e+003, 2.906464e-003
2.609215e+003, 2.863331e-003
2.611144e+003, 2.989965e-003
2.613072e+003, 3.054637e-003
2.615001e+003, 2.949295e-003
2.616929e+003, 2.792181e-003
2.618858e+003, 2.894410e-003
2.620786e+003, 3.096828e-003
2.622715e+003, 2.878723e-003
2.624643e+003, 2.847924e-003
2.626572e+003, 2.816738e-003
2.628500e+003, 2.799123e-003
2.630428e+003, 2.969064e-003
2.632357e+003, 3.195608e-003
2.634285e+003, 3.397567e-003
2.636214e+003, 3.037734e-003
2.638142e+003, 2.919503e-003
2.640071e+003, 3.343060e-003
2.641999e+003, 3.405690e-003
2.643928e+003, 3.205274e-003
2.645856e+003, 3.122206e-003
2.647785e+003, 3.152945e-003
2.649713e+003, 3.179060e-003
2.651642e+003, 3.370493e-003
2.653570e+003, 3.372906e-003
2.655499e+003, 3.248776e-003
2.657427e+003, 3.287830e-003
2.659355e+003, 3.282400e-003
2.661284e+003, 3.268286e-003
2.663212e+003, 3.308764e-003
2.665141e+003, 3.169784e-003
2.667069e+003, 3.046130e-003
2.668998e+003, 3.190336e-003
2.670926e+003, 3.291552e-003
2.672855e+003, 3.411039e-003
2.674783e+003, 3.546076e-003
2.676712e+003, 3.522085e-003
2.678640e+003, 3.488345e-003
2.680569e+003, 3.526986e-003
2.682497e+003, 3.639492e-003
2.684426e+003, 3.710238e-003
2.686354e+003, 3.808410e-003
2.688282e+003, 3.917899e-003
2.690211e+003, 3.697731e-003
2.692139e+003, 3.354002e-003
2.694068e+003, 3.165168e-003
2.695996e+003, 3.347524e-003
2.697925e+003, 3.580834e-003
2.699853e+003, 3.533916e-003
2.701782e+003, 3.405938e-003
2.703710e+003, 3.456757e-003
2.705639e+003, 3.724982e-003
2.707567e+003, 3.572368e-003
2.709496e+003, 3.654832e-003
2.711424e+003, 3.910652e-003
2.713353e+003, 3.904556e-003
2.715281e+003, 3.707374e-003
2.717209e+003, 3.746998e-003
2.719138e+003, 3.619561e-003
2.721066e+003, 3.638459e-003
2.722995e+003, 3.712579e-003
2.724923e+003, 3.684921e-003
2.726852e+003, 3.455309e-003
2.728780e+003, 3.461070e-003
2.730709e+003, 3.663762e-003
2.732637e+003, 3.725338e-003
2.734566e+003, 3.601782e-003
2.736494e+003, 3.453500e-003
2.738423e+003, 3.612239e-003
2.740351e+003, 3.714656e-003
2.742280e+003, 3.679226e-003
2.744208e+003, 3.626142e-003
2.746136e+003, 3.880472e-003
2.748065e+003, 3.959347e-003
2.749993e+003, 3.801926e-003
2.751922e+003, 3.831813e-003
2.753850e+003, 3.824933e-003
2.755779e+003, 3.990083e-003
2.757707e+003, 3.855606e-003
2.759636e+003, 3.666373e-003
2.761564e+003, 3.978786e-003
2.763493e+003, 3.922174e-003
2.765421e+003, 3.922032e-003
2.767350e+003, 4.052228e-003
2.769278e+003, 3.776551e-003
2.771207e+003, 3.552764e-003
2.773135e+003, 3.485616e-003
2.775063e+003, 3.452409e-003
2.776992e+003, 3.688056e-003
2.778920e+003, 3.838544e-003
2.780849e+003, 3.805392e-003
2.782777e+003, 4.004374e-003
2.784706e+003, 4.163477e-003
2.786634e+003, 4.184938e-003
2.788563e+003, 4.105284e-003
2.790491e+003, 3.917455e-003
2.792420e+003, 3.864155e-003
2.794348e+003, 3.965423e-003
2.796277e+003, 4.055502e-003
2.798205e+003, 4.035649e-003
2.800134e+003, 3.995482e-003
2.802062e+003, 3.993632e-003
2.803990e+003, 3.968560e-003
2.805919e+003, 4.035425e-003
2.807847e+003, 4.131033e-003
2.809776e+003, 4.295916e-003
2.811704e+003, 4.350894e-003
2.813633e+003, 4.267678e-003
2.815561e+003, 4.265605e-003
2.817490e+003, 4.113369e-003
2.819418e+003, 4.091496e-003
2.821347e+003, 4.232978e-003
2.823275e+003, 4.088847e-003
2.825204e+003, 3.932981e-003
2.827132e+003, 4.048394e-003
2.829061e+003, 4.200755e-003
2.830989e+003, 4.179949e-003
2.832917e+003, 4.391771e-003
2.834846e+003, 4.511043e-003
2.836774e+003, 3.945264e-003
2.838703e+003, 3.617043e-003
2.840631e+003, 3.646359e-003
2.842560e+003, 3.336555e-003
2.844488e+003, 3.083455e-003
2.846417e+003, 2.990116e-003
2.848345e+003, 2.473117e-003
2.850274e+003, 2.224490e-003
2.852202e+003, 2.378202e-003
2.854131e+003, 2.411696e-003
2.856059e+003, 2.663152e-003
2.857988e+003, 2.728774e-003
2.859916e+003, 3.054079e-003
2.861844e+003, 3.349566e-003
2.863773e+003, 3.334377e-003
2.865701e+003, 3.568900e-003
2.867630e+003, 3.846683e-003
2.869558e+003, 4.038657e-003
2.871487e+003, 4.096976e-003
2.873415e+003, 3.917360e-003
2.875344e+003, 3.848270e-003
2.877272e+003, 4.225063e-003
2.879201e+003, 4.321564e-003
2.881129e+003, 3.866910e-003
2.883058e+003, 3.512294e-003
2.884986e+003, 3.633276e-003
2.886915e+003, 3.941342e-003
2.888843e+003, 3.884593e-003
2.890771e+003, 4.209726e-003
2.892700e+003, 4.259325e-003
2.894628e+003, 3.963077e-003
2.896557e+003, 3.823009e-003
2.898485e+003, 3.741515e-003
2.900414e+003, 3.503026e-003
2.902342e+003, 3.249889e-003
2.904271e+003, 3.245260e-003
2.906199e+003, 3.139734e-003
2.908128e+003, 3.069338e-003
2.910056e+003, 2.799188e-003
2.911985e+003, 2.456803e-003
2.913913e+003, 2.239696e-003
2.915842e+003, 1.876607e-003
2.917770e+003, 1.706270e-003
2.919698e+003, 1.906050e-003
2.921627e+003, 1.560632e-003
2.923555e+003, 1.051485e-003
2.925484e+003, 1.096858e-003
2.927412e+003, 1.439406e-003
2.929341e+003, 1.777726e-003
2.931269e+003, 1.878263e-003
2.933198e+003, 2.229892e-003
2.935126e+003, 2.796197e-003
2.937055e+003, 2.946535e-003
2.938983e+003, 3.035020e-003
2.940912e+003, 3.524366e-003
2.942840e+003, 3.865960e-003
2.944769e+003, 3.918175e-003
2.946697e+003, 4.152822e-003
2.948625e+003, 4.315965e-003
2.950554e+003, 4.205847e-003
2.952482e+003, 4.475255e-003
2.954411e+003, 4.467436e-003
2.956339e+003, 4.428436e-003
2.958268e+003, 4.891973e-003
2.960196e+003, 5.003917e-003
2.962125e+003, 4.804783e-003
2.964053e+003, 4.498178e-003
2.965982e+003, 4.580073e-003
2.967910e+003, 4.959760e-003
2.969839e+003, 5.035348e-003
2.971767e+003, 5.063394e-003
2.973696e+003, 5.520345e-003
2.975624e+003, 5.988947e-003
2.977552e+003, 6.187065e-003
2.979481e+003, 5.945656e-003
2.981409e+003, 5.797346e-003
2.983338e+003, 5.951687e-003
2.985266e+003, 6.031816e-003
2.987195e+003, 5.995995e-003
2.989123e+003, 6.049583e-003
2.991052e+003, 6.350193e-003
2.992980e+003, 6.707772e-003
2.994909e+003, 6.691013e-003
2.996837e+003, 6.180475e-003
2.998766e+003, 6.044561e-003
3.000694e+003, 6.282159e-003
3.002623e+003, 6.285263e-003
3.004551e+003, 6.572186e-003
3.006479e+003, 6.980500e-003
3.008408e+003, 7.132657e-003
3.010336e+003, 7.102998e-003
3.012265e+003, 6.928903e-003
3.014193e+003, 6.787623e-003
3.016122e+003, 6.713991e-003
3.018050e+003, 6.748597e-003
3.019979e+003, 7.039656e-003
3.021907e+003, 7.007367e-003
3.023836e+003, 6.994178e-003
3.025764e+003, 7.161894e-003
3.027693e+003, 7.470057e-003
3.029621e+003, 7.780706e-003
3.031550e+003, 7.534856e-003
3.033478e+003, 7.418015e-003
3.035406e+003, 7.368689e-003
3.037335e+003, 7.488197e-003
3.039263e+003, 7.679782e-003
3.041192e+003, 7.974313e-003
3.043120e+003, 8.297699e-003
3.045049e+003, 8.130938e-003
3.046977e+003, 7.838257e-003
3.048906e+003, 7.463380e-003
3.050834e+003, 7.603065e-003
3.052763e+003, 8.366557e-003
3.054691e+003, 8.119432e-003
3.056620e+003, 8.188009e-003
3.058548e+003, 8.536909e-003
3.060477e+003, 8.726690e-003
3.062405e+003, 9.125131e-003
3.064333e+003, 9.005303e-003
3.066262e+003, 8.992014e-003
3.068190e+003, 9.060479e-003
3.070119e+003, 9.028042e-003
3.072047e+003, 9.158804e-003
3.073976e+003, 9.315486e-003
3.075904e+003, 9.159872e-003
3.077833e+003, 9.295882e-003
3.079761e+003, 9.491064e-003
3.081690e+003, 9.429303e-003
3.083618e+003, 9.770643e-003
3.085547e+003, 1.028853e-002
3.087475e+003, 1.016639e-002
3.089404e+003, 1.019704e-002
3.091332e+003, 1.046225e-002
3.093260e+003, 1.026290e-002
3.095189e+003, 1.008646e-002
3.097117e+003, 1.021472e-002
3.099046e+003, 1.062864e-002
3.100974e+003, 1.078830e-002
3.102903e+003, 1.084492e-002
3.104831e+003, 1.114691e-002
3.106760e+003, 1.137624e-002
3.108688e+003, 1.124408e-002
3.110617e+003, 1.152978e-002
3.112545e+003, 1.158713e-002
3.114474e+003, 1.167213e-002
3.116402e+003, 1.219101e-002
3.118331e+003, 1.241967e-002
3.120259e+003, 1.226926e-002
3.122188e+003, 1.219893e-002
3.124116e+003, 1.234452e-002
3.126044e+003, 1.268107e-002
3.127973e+003, 1.331292e-002
3.129901e+003, 1.371250e-002
3.131830e+003, 1.359461e-002
3.133758e+003, 1.327609e-002
3.135687e+003, 1.346784e-002
3.137615e+003, 1.410409e-002
3.139544e+003, 1.431002e-002
3.141472e+003, 1.411389e-002
3.143401e+003, 1.422323e-002
3.145329e+003, 1.434113e-002
3.147258e+003, 1.455708e-002
3.149186e+003, 1.489568e-002
3.151115e+003, 1.529546e-002
3.153043e+003, 1.563306e-002
3.154971e+003, 1.575404e-002
3.156900e+003, 1.564164e-002
3.158828e+003, 1.578424e-002
3.160757e+003, 1.592139e-002
3.162685e+003, 1.614025e-002
3.164614e+003, 1.615887e-002
3.166542e+003, 1.581330e-002
3.168471e+003, 1.627878e-002
3.170399e+003, 1.692093e-002
3.172328e+003, 1.678191e-002
3.174256e+003, 1.698712e-002
3.176185e+003, 1.720114e-002
3.178113e+003, 1.707593e-002
3.180042e+003, 1.703238e-002
3.181970e+003, 1.725542e-002
3.183898e+003, 1.736283e-002
3.185827e+003, 1.789441e-002
3.187755e+003, 1.807640e-002
3.189684e+003, 1.784256e-002
3.191612e+003, 1.803414e-002
3.193541e+003, 1.854517e-002
3.195469e+003, 1.847083e-002
3.197398e+003, 1.827485e-002
3.199326e+003, 1.831442e-002
3.201255e+003, 1.862434e-002
3.203183e+003, 1.879763e-002
3.205112e+003, 1.900301e-002
3.207040e+003, 1.924182e-002
3.208969e+003, 1.925875e-002
3.210897e+003, 1.929401e-002
3.212825e+003, 1.881552e-002
3.214754e+003, 1.871138e-002
3.216682e+003, 1.933246e-002
3.218611e+003, 1.985145e-002
3.220539e+003, 1.954017e-002
3.222468e+003, 1.923734e-002
3.224396e+003, 1.939017e-002
3.226325e+003, 1.997480e-002
3.228253e+003, 2.047752e-002
3.230182e+003, 2.087466e-002
3.232110e+003, 2.074308e-002
3.234039e+003, 2.033494e-002
3.235967e+003, 2.035008e-002
3.237896e+003, 2.058717e-002
3.239824e+003, 2.084387e-002
3.241752e+003, 2.088458e-002
3.243681e+003, 2.087723e-002
3.245609e+003, 2.123826e-002
3.247538e+003, 2.149118e-002
3.249466e+003, 2.142750e-002
3.251395e+003, 2.167853e-002
3.253323e+003, 2.182819e-002
3.255252e+003, 2.214389e-002
3.257180e+003, 2.233184e-002
3.259109e+003, 2.245144e-002
3.261037e+003, 2.307188e-002
3.262966e+003, 2.283618e-002
3.264894e+003, 2.263451e-002
3.266823e+003, 2.281822e-002
3.268751e+003, 2.294393e-002
3.270679e+003, 2.269016e-002
3.272608e+003, 2.238116e-002
3.274536e+003, 2.276018e-002
3.276465e+003, 2.303281e-002
3.278393e+003, 2.345243e-002
3.280322e+003, 2.375615e-002
3.282250e+003, 2.363982e-002
3.284179e+003, 2.320955e-002
3.286107e+003, 2.301532e-002
3.288036e+003, 2.318657e-002
3.289964e+003, 2.351028e-002
3.291893e+003, 2.363469e-002
3.293821e+003, 2.294313e-002
3.295750e+003, 2.247778e-002
3.297678e+003, 2.291252e-002
3.299606e+003, 2.358491e-002
3.301535e+003, 2.357197e-002
3.303463e+003, 2.345342e-002
3.305392e+003, 2.364832e-002
3.307320e+003, 2.371790e-002
3.309249e+003, 2.353562e-002
3.311177e+003, 2.341214e-002
3.313106e+003, 2.372201e-002
3.315034e+003, 2.389693e-002
3.316963e+003, 2.401271e-002
3.318891e+003, 2.383018e-002
3.320820e+003, 2.358652e-002
3.322748e+003, 2.331898e-002
3.324677e+003, 2.321191e-002
3.326605e+003, 2.333600e-002
3.328533e+003, 2.357525e-002
3.330462e+003, 2.397702e-002
3.332390e+003, 2.396044e-002
3.334319e+003, 2.384657e-002
3.336247e+003, 2.390506e-002
3.338176e+003, 2.417389e-002
3.340104e+003, 2.406370e-002
3.342033e+003, 2.401598e-002
3.343961e+003, 2.326751e-002
3.345890e+003, 2.303591e-002
3.347818e+003, 2.307034e-002
3.349747e+003, 2.261276e-002
3.351675e+003, 2.264177e-002
3.353604e+003, 2.228497e-002
3.355532e+003, 2.162539e-002
3.357460e+003, 2.134505e-002
3.359389e+003, 2.131119e-002
3.361317e+003, 2.118214e-002
3.363246e+003, 2.111658e-002
3.365174e+003, 2.111780e-002
3.367103e+003, 2.082236e-002
3.369031e+003, 2.033885e-002
3.370960e+003, 2.026927e-002
3.372888e+003, 2.039789e-002
3.374817e+003, 2.055160e-002
3.376745e+003, 2.022783e-002
3.378674e+003, 1.983648e-002
3.380602e+003, 2.007508e-002
3.382531e+003, 1.984406e-002
3.384459e+003, 1.968019e-002
3.386387e+003, 1.963656e-002
3.388316e+003, 1.964726e-002
3.390244e+003, 1.952237e-002
3.392173e+003, 1.926445e-002
3.394101e+003, 1.939649e-002
3.396030e+003, 1.909318e-002
3.397958e+003, 1.900306e-002
3.399887e+003, 1.964623e-002
3.401815e+003, 2.011351e-002
3.403744e+003, 1.974857e-002
3.405672e+003, 1.944047e-002
3.407601e+003, 1.990122e-002
3.409529e+003, 2.047578e-002
3.411458e+003, 2.028839e-002
3.413386e+003, 1.975667e-002
3.415314e+003, 1.937886e-002
3.417243e+003, 1.978248e-002
3.419171e+003, 2.017564e-002
3.421100e+003, 2.051910e-002
3.423028e+003, 2.028422e-002
3.424957e+003, 1.979608e-002
3.426885e+003, 1.982411e-002
3.428814e+003, 1.956090e-002
3.430742e+003, 1.953409e-002
3.432671e+003, 1.925548e-002
3.434599e+003, 1.912078e-002
3.436528e+003, 1.921199e-002
3.438456e+003, 1.867859e-002
3.440385e+003, 1.848324e-002
3.442313e+003, 1.807457e-002
3.444241e+003, 1.760365e-002
3.446170e+003, 1.733149e-002
3.448098e+003, 1.747153e-002
3.450027e+003, 1.687502e-002
3.451955e+003, 1.559651e-002
3.453884e+003, 1.555860e-002
3.455812e+003, 1.601067e-002
3.457741e+003, 1.578510e-002
3.459669e+003, 1.471450e-002
3.461598e+003, 1.446370e-002
3.463526e+003, 1.473686e-002
3.465455e+003, 1.478433e-002
3.467383e+003, 1.413658e-002
3.469312e+003, 1.332624e-002
3.471240e+003, 1.334290e-002
3.473168e+003, 1.361781e-002
3.475097e+003, 1.308644e-002
3.477025e+003, 1.231341e-002
3.478954e+003, 1.272352e-002
3.480882e+003, 1.294364e-002
3.482811e+003, 1.214592e-002
3.484739e+003, 1.151922e-002
3.486668e+003, 1.152603e-002
3.488596e+003, 1.198470e-002
3.490525e+003, 1.163299e-002
3.492453e+003, 1.143836e-002
3.494382e+003, 1.127154e-002
3.496310e+003, 1.032802e-002
3.498239e+003, 9.794513e-003
3.500167e+003, 9.754012e-003
3.502095e+003, 9.623652e-003
3.504024e+003, 9.470265e-003
3.505952e+003, 9.415478e-003
3.507881e+003, 9.856210e-003
3.509809e+003, 1.050959e-002
3.511738e+003, 1.040825e-002
3.513666e+003, 9.801013e-003
3.515595e+003, 9.557251e-003
3.517523e+003, 9.302596e-003
3.519452e+003, 9.084289e-003
3.521380e+003, 9.022112e-003
3.523309e+003, 8.979340e-003
3.525237e+003, 8.980232e-003
3.527166e+003, 8.963369e-003
3.529094e+003, 8.934476e-003
3.531022e+003, 8.413276e-003
3.532951e+003, 7.735425e-003
3.534879e+003, 7.891479e-003
3.536808e+003, 8.433675e-003
3.538736e+003, 8.139525e-003
3.540665e+003, 7.732974e-003
3.542593e+003, 7.331383e-003
3.544522e+003, 7.216994e-003
3.546450e+003, 7.322062e-003
3.548379e+003, 6.896561e-003
3.550307e+003, 6.184259e-003
3.552236e+003, 6.496048e-003
3.554164e+003, 7.014177e-003
3.556093e+003, 6.764789e-003
3.558021e+003, 6.542169e-003
3.559949e+003, 6.366468e-003
3.561878e+003, 5.926508e-003
3.563806e+003, 5.438430e-003
3.565735e+003, 5.708487e-003
3.567663e+003, 5.893916e-003
3.569592e+003, 5.507106e-003
3.571520e+003, 5.290365e-003
3.573449e+003, 5.002028e-003
3.575377e+003, 5.413945e-003
3.577306e+003, 5.639507e-003
3.579234e+003, 5.297149e-003
3.581163e+003, 4.665386e-003
3.583091e+003, 4.559387e-003
3.585020e+003, 5.014584e-003
3.586948e+003, 4.983145e-003
3.588876e+003, 4.902651e-003
3.590805e+003, 5.177274e-003
3.592733e+003, 5.048175e-003
3.594662e+003, 4.627195e-003
3.596590e+003, 4.462089e-003
3.598519e+003, 4.582843e-003
3.600447e+003, 4.776948e-003
3.602376e+003, 4.568418e-003
3.604304e+003, 4.384113e-003
3.606233e+003, 4.237857e-003
3.608161e+003, 4.104634e-003
3.610090e+003, 4.190274e-003
3.612018e+003, 3.813811e-003
3.613947e+003, 3.457190e-003
3.615875e+003, 3.517242e-003
3.617803e+003, 2.967378e-003
3.619732e+003, 3.630800e-003
3.621660e+003, 4.022081e-003
3.623589e+003, 4.308783e-003
3.625517e+003, 4.267083e-003
3.627446e+003, 3.591316e-003
3.629374e+003, 2.946694e-003
3.631303e+003, 3.039478e-003
3.633231e+003, 3.318984e-003
3.635160e+003, 3.190601e-003
3.637088e+003, 3.424372e-003
3.639017e+003, 3.676430e-003
3.640945e+003, 3.263042e-003
3.642874e+003, 3.733133e-003
3.644802e+003, 4.850344e-003
3.646730e+003, 4.729991e-003
3.648659e+003, 4.738769e-003
3.650587e+003, 4.546662e-003
3.652516e+003, 3.659897e-003
3.654444e+003, 3.384864e-003
3.656373e+003, 3.612092e-003
3.658301e+003, 3.513008e-003
3.660230e+003, 3.040999e-003
3.662158e+003, 3.022263e-003
3.664087e+003, 3.344490e-003
3.666015e+003, 3.884577e-003
3.667944e+003, 3.710186e-003
3.669872e+003, 3.348828e-003
3.671801e+003, 3.797436e-003
3.673729e+003, 3.703145e-003
3.675657e+003, 3.764747e-003
3.677586e+003, 3.927073e-003
3.679514e+003, 3.758623e-003
3.681443e+003, 3.044968e-003
3.683371e+003, 2.582199e-003
3.685300e+003, 2.947046e-003
3.687228e+003, 4.380627e-003
3.689157e+003, 4.317922e-003
3.691085e+003, 4.145538e-003
3.693014e+003, 4.690134e-003
3.694942e+003, 4.137409e-003
3.696871e+003, 2.936976e-003
3.698799e+003, 3.156305e-003
3.700728e+003, 3.901397e-003
3.702656e+003, 3.725820e-003
3.704584e+003, 3.940837e-003
3.706513e+003, 4.139598e-003
3.708441e+003, 3.590542e-003
3.710370e+003, 3.619612e-003
3.712298e+003, 3.657332e-003
3.714227e+003, 2.931262e-003
3.716155e+003, 2.834316e-003
3.718084e+003, 3.414163e-003
3.720012e+003, 3.833083e-003
3.721941e+003, 3.682378e-003
3.723869e+003, 3.797550e-003
3.725798e+003, 3.587901e-003
3.727726e+003, 3.662396e-003
3.729655e+003, 4.294562e-003
3.731583e+003, 4.514089e-003
3.733511e+003, 4.039608e-003
3.735440e+003, 3.056793e-003
3.737368e+003, 2.861325e-003
3.739297e+003, 3.115222e-003
3.741225e+003, 3.213542e-003
3.743154e+003, 2.827225e-003
3.745082e+003, 3.187175e-003
3.747011e+003, 3.863506e-003
3.748939e+003, 3.830468e-003
3.750868e+003, 3.702227e-003
3.752796e+003, 3.306206e-003
3.754725e+003, 2.801948e-003
3.756653e+003, 3.291060e-003
3.758582e+003, 3.547921e-003
3.760510e+003, 4.159553e-003
3.762438e+003, 4.646524e-003
3.764367e+003, 4.610344e-003
3.766295e+003, 4.053114e-003
3.768224e+003, 3.421314e-003
3.770152e+003, 2.991204e-003
3.772081e+003, 3.229867e-003
3.774009e+003, 3.610281e-003
3.775938e+003, 4.009239e-003
3.777866e+003, 4.136612e-003
3.779795e+003, 4.036231e-003
3.781723e+003, 4.134979e-003
3.783652e+003, 4.254689e-003
3.785580e+003, 4.291666e-003
3.787509e+003, 3.724688e-003
3.789437e+003, 3.752097e-003
3.791365e+003, 4.327212e-003
3.793294e+003, 4.075215e-003
3.795222e+003, 2.727309e-003
3.797151e+003, 2.862495e-003
3.799079e+003, 3.795151e-003
3.801008e+003, 4.392961e-003
3.802936e+003, 4.578489e-003
3.804865e+003, 4.483945e-003
3.806793e+003, 4.320503e-003
3.808722e+003, 4.389469e-003
3.810650e+003, 4.080381e-003
3.812579e+003, 3.885886e-003
3.814507e+003, 3.463215e-003
3.816436e+003, 3.327707e-003
3.818364e+003, 3.589776e-003
3.820292e+003, 3.714098e-003
3.822221e+003, 4.516424e-003
3.824149e+003, 4.245268e-003
3.826078e+003, 3.630438e-003
3.828006e+003, 3.865502e-003
3.829935e+003, 3.648786e-003
3.831863e+003, 3.119948e-003
3.833792e+003, 2.621271e-003
3.835720e+003, 3.148492e-003
3.837649e+003, 4.027017e-003
3.839577e+003, 3.794506e-003
3.841506e+003, 3.556556e-003
3.843434e+003, 3.934965e-003
3.845363e+003, 4.193628e-003
3.847291e+003, 4.030855e-003
3.849219e+003, 4.319511e-003
3.851148e+003, 4.805311e-003
3.853076e+003, 4.795145e-003
3.855005e+003, 4.143572e-003
3.856933e+003, 4.275275e-003
3.858862e+003, 5.214685e-003
3.860790e+003, 4.973730e-003
3.862719e+003, 4.239780e-003
3.864647e+003, 3.885277e-003
3.866576e+003, 4.412737e-003
3.868504e+003, 4.738030e-003
3.870433e+003, 4.588750e-003
3.872361e+003, 4.143209e-003
3.874290e+003, 3.109121e-003
3.876218e+003, 2.962295e-003
3.878146e+003, 4.072169e-003
3.880075e+003, 4.252544e-003
3.882003e+003, 4.044967e-003
3.883932e+003, 3.714557e-003
3.885860e+003, 4.534036e-003
3.887789e+003, 5.258454e-003
3.889717e+003, 4.612160e-003
3.891646e+003, 4.170466e-003
3.893574e+003, 4.036983e-003
3.895503e+003, 3.694186e-003
3.897431e+003, 3.674125e-003
3.899360e+003, 4.358816e-003
3.901288e+003, 4.611229e-003
3.903217e+003, 4.119343e-003
3.905145e+003, 3.738238e-003
3.907073e+003, 3.326366e-003
3.909002e+003, 3.692173e-003
3.910930e+003, 4.317196e-003
3.912859e+003, 3.953319e-003
3.914787e+003, 3.898306e-003
3.916716e+003, 3.735023e-003
3.918644e+003, 3.027675e-003
3.920573e+003, 2.300413e-003
3.922501e+003, 2.357745e-003
3.924430e+003, 3.309578e-003
3.926358e+003, 4.639831e-003
3.928287e+003, 5.113843e-003
3.930215e+003, 3.809380e-003
3.932144e+003, 3.056905e-003
3.934072e+003, 3.346488e-003
3.936000e+003, 3.802775e-003
3.937929e+003, 3.572393e-003
3.939857e+003, 2.945922e-003
3.941786e+003, 3.101349e-003
3.943714e+003, 3.959868e-003
3.945643e+003, 4.087979e-003
3.947571e+003, 3.369655e-003
3.949500e+003, 2.498237e-003
3.951428e+003, 3.458067e-003
3.953357e+003, 4.168007e-003
3.955285e+003, 3.243436e-003
3.957214e+003, 2.989902e-003
3.959142e+003, 2.995292e-003
3.961071e+003, 3.671477e-003
3.962999e+003, 4.288417e-003
3.964927e+003, 4.261916e-003
3.966856e+003, 3.795612e-003
3.968784e+003, 3.662498e-003
3.970713e+003, 4.088728e-003
3.972641e+003, 4.635057e-003
3.974570e+003, 4.790483e-003
3.976498e+003, 4.609413e-003
3.978427e+003, 4.627898e-003
3.980355e+003, 5.206128e-003
3.982284e+003, 4.842608e-003
3.984212e+003, 4.309931e-003
3.986141e+003, 3.892065e-003
3.988069e+003, 3.889969e-003
3.989998e+003, 4.462622e-003
3.991926e+003, 4.433875e-003
3.993854e+003, 3.954601e-003
3.995783e+003, 4.386375e-003
3.997711e+003, 4.457136e-003
3.999640e+003, 4.931819e-003
4.001568e+003, 0.000000e+000
##END=



