##NAMES=Scolecite
##RRUFFID=R050083
##IDEAL CHEMISTRY=Ca(Si_3_Al_2_)O_10_&#183;3H_2_O
##LOCALITY=near Ahmednagar, Maharashtra, India
##OWNER=RRUFF
##SOURCE=Rock Currier
##DESCRIPTION=Colorless acicular single crystals associated with fluorapophyllite
##STATUS=The identification of this mineral has been confirmed by X-ray diffraction and chemical analysis
##URL=rruff.info/R050083
##MEASURED CHEMISTRY=(Ca_.992_Na_.008_)[Al_2_Si_3_O_10_]Â·3H_2_O
3.991926e+002, 0.000000e+000
4.011211e+002, 1.465542e-001
4.030496e+002, 1.472462e-001
4.049780e+002, 1.528379e-001
4.069065e+002, 1.537424e-001
4.088350e+002, 1.603444e-001
4.107634e+002, 1.658083e-001
4.126919e+002, 1.627754e-001
4.146204e+002, 1.542058e-001
4.165488e+002, 1.535722e-001
4.184773e+002, 1.573577e-001
4.204058e+002, 1.646794e-001
4.223342e+002, 1.756733e-001
4.242627e+002, 1.778409e-001
4.261912e+002, 1.740449e-001
4.281196e+002, 1.686640e-001
4.300481e+002, 1.573176e-001
4.319766e+002, 1.438068e-001
4.339050e+002, 1.352408e-001
4.358335e+002, 1.298739e-001
4.377620e+002, 1.242626e-001
4.396904e+002, 1.175512e-001
4.416189e+002, 1.128021e-001
4.435474e+002, 1.101515e-001
4.454758e+002, 1.074129e-001
4.474043e+002, 1.036058e-001
4.493328e+002, 1.006498e-001
4.512612e+002, 9.867599e-002
4.531897e+002, 9.480444e-002
4.551182e+002, 9.180879e-002
4.570466e+002, 8.934078e-002
4.589751e+002, 8.689233e-002
4.609036e+002, 8.550397e-002
4.628320e+002, 8.356576e-002
4.647605e+002, 8.229234e-002
4.666890e+002, 8.401683e-002
4.686174e+002, 8.638937e-002
4.705459e+002, 8.796039e-002
4.724744e+002, 9.042241e-002
4.744028e+002, 9.420963e-002
4.763313e+002, 9.819412e-002
4.782598e+002, 1.019142e-001
4.801882e+002, 1.056816e-001
4.821167e+002, 1.097613e-001
4.840452e+002, 1.124611e-001
4.859736e+002, 1.141345e-001
4.879021e+002, 1.150671e-001
4.898306e+002, 1.158236e-001
4.917590e+002, 1.155893e-001
4.936875e+002, 1.142188e-001
4.956160e+002, 1.122622e-001
4.975444e+002, 1.097973e-001
4.994729e+002, 1.072791e-001
5.014014e+002, 1.045742e-001
5.033298e+002, 1.017857e-001
5.052583e+002, 9.946402e-002
5.071868e+002, 9.705207e-002
5.091152e+002, 9.442434e-002
5.110437e+002, 9.213950e-002
5.129722e+002, 9.060727e-002
5.149006e+002, 8.938303e-002
5.168291e+002, 8.753796e-002
5.187576e+002, 8.586717e-002
5.206860e+002, 8.512122e-002
5.226145e+002, 8.419821e-002
5.245430e+002, 8.216660e-002
5.264714e+002, 7.970804e-002
5.283999e+002, 7.729185e-002
5.303284e+002, 7.538095e-002
5.322568e+002, 7.398324e-002
5.341853e+002, 7.251666e-002
5.361138e+002, 7.068517e-002
5.380422e+002, 6.951846e-002
5.399707e+002, 6.868052e-002
5.418992e+002, 6.725673e-002
5.438276e+002, 6.595097e-002
5.457561e+002, 6.531581e-002
5.476846e+002, 6.486896e-002
5.496130e+002, 6.485064e-002
5.515415e+002, 6.612237e-002
5.534700e+002, 6.793671e-002
5.553984e+002, 6.943242e-002
5.573269e+002, 7.113802e-002
5.592554e+002, 7.295536e-002
5.611838e+002, 7.504822e-002
5.631123e+002, 7.792334e-002
5.650408e+002, 8.051260e-002
5.669692e+002, 8.217288e-002
5.688977e+002, 8.375170e-002
5.708262e+002, 8.529925e-002
5.727546e+002, 8.678181e-002
5.746831e+002, 8.850048e-002
5.766116e+002, 8.968882e-002
5.785400e+002, 9.066784e-002
5.804685e+002, 9.209023e-002
5.823970e+002, 9.394171e-002
5.843254e+002, 9.541801e-002
5.862539e+002, 9.687726e-002
5.881824e+002, 9.857457e-002
5.901108e+002, 1.005965e-001
5.920393e+002, 1.029413e-001
5.939678e+002, 1.046814e-001
5.958962e+002, 1.060321e-001
5.978247e+002, 1.067696e-001
5.997532e+002, 1.067878e-001
6.016816e+002, 1.062114e-001
6.036101e+002, 1.052840e-001
6.055386e+002, 1.043367e-001
6.074670e+002, 1.034464e-001
6.093955e+002, 1.030441e-001
6.113240e+002, 1.030858e-001
6.132524e+002, 1.045633e-001
6.151809e+002, 1.068682e-001
6.171094e+002, 1.094020e-001
6.190378e+002, 1.118491e-001
6.209663e+002, 1.140219e-001
6.228948e+002, 1.158117e-001
6.248232e+002, 1.166307e-001
6.267517e+002, 1.167330e-001
6.286802e+002, 1.152654e-001
6.306086e+002, 1.122737e-001
6.325371e+002, 1.088675e-001
6.344656e+002, 1.052790e-001
6.363940e+002, 1.015712e-001
6.383225e+002, 9.731843e-002
6.402510e+002, 9.268177e-002
6.421794e+002, 8.821078e-002
6.441079e+002, 8.425589e-002
6.460364e+002, 8.090872e-002
6.479648e+002, 7.774653e-002
6.498933e+002, 7.506754e-002
6.518218e+002, 7.372298e-002
6.537502e+002, 7.335160e-002
6.556787e+002, 7.318468e-002
6.576072e+002, 7.344406e-002
6.595356e+002, 7.407080e-002
6.614641e+002, 7.535571e-002
6.633926e+002, 7.731222e-002
6.653210e+002, 7.918429e-002
6.672495e+002, 8.064924e-002
6.691780e+002, 8.207665e-002
6.711064e+002, 8.307297e-002
6.730349e+002, 8.328968e-002
6.749634e+002, 8.268328e-002
6.768918e+002, 8.202532e-002
6.788203e+002, 8.163615e-002
6.807488e+002, 8.227709e-002
6.826772e+002, 8.410779e-002
6.846057e+002, 8.689515e-002
6.865342e+002, 9.044316e-002
6.884626e+002, 9.372126e-002
6.903911e+002, 9.494865e-002
6.923196e+002, 9.306484e-002
6.942480e+002, 8.814355e-002
6.961765e+002, 8.159063e-002
6.981050e+002, 7.562996e-002
7.000334e+002, 7.107901e-002
7.019619e+002, 6.768943e-002
7.038904e+002, 6.578518e-002
7.058188e+002, 6.538327e-002
7.077473e+002, 6.607253e-002
7.096758e+002, 6.796788e-002
7.116042e+002, 7.109301e-002
7.135327e+002, 7.392140e-002
7.154612e+002, 7.601706e-002
7.173896e+002, 7.737961e-002
7.193181e+002, 7.782346e-002
7.212466e+002, 7.658406e-002
7.231750e+002, 7.368939e-002
7.251035e+002, 6.914217e-002
7.270320e+002, 6.334677e-002
7.289604e+002, 5.743489e-002
7.308889e+002, 5.181054e-002
7.328174e+002, 4.642021e-002
7.347458e+002, 4.115335e-002
7.366743e+002, 3.592561e-002
7.386028e+002, 3.124537e-002
7.405313e+002, 2.760794e-002
7.424597e+002, 2.506239e-002
7.443882e+002, 2.345993e-002
7.463167e+002, 2.212570e-002
7.482451e+002, 2.079965e-002
7.501736e+002, 1.988248e-002
7.521021e+002, 1.955272e-002
7.540305e+002, 1.914732e-002
7.559590e+002, 1.849815e-002
7.578875e+002, 1.828615e-002
7.598159e+002, 1.807545e-002
7.617444e+002, 1.781027e-002
7.636729e+002, 1.761945e-002
7.656013e+002, 1.755005e-002
7.675298e+002, 1.750682e-002
7.694583e+002, 1.744806e-002
7.713867e+002, 1.734568e-002
7.733152e+002, 1.713220e-002
7.752437e+002, 1.699411e-002
7.771721e+002, 1.677954e-002
7.791006e+002, 1.658696e-002
7.810291e+002, 1.633744e-002
7.829575e+002, 1.628728e-002
7.848860e+002, 1.632184e-002
7.868145e+002, 1.641815e-002
7.887429e+002, 1.636893e-002
7.906714e+002, 1.623226e-002
7.925999e+002, 1.635942e-002
7.945283e+002, 1.639876e-002
7.964568e+002, 1.668639e-002
7.983853e+002, 1.687108e-002
8.003137e+002, 1.680540e-002
8.022422e+002, 1.695653e-002
8.041707e+002, 1.731663e-002
8.060991e+002, 1.756603e-002
8.080276e+002, 1.779532e-002
8.099561e+002, 1.811632e-002
8.118845e+002, 1.842690e-002
8.138130e+002, 1.869212e-002
8.157415e+002, 1.909276e-002
8.176699e+002, 1.948627e-002
8.195984e+002, 1.980055e-002
8.215269e+002, 2.016963e-002
8.234553e+002, 2.082431e-002
8.253838e+002, 2.163495e-002
8.273123e+002, 2.211939e-002
8.292407e+002, 2.241330e-002
8.311692e+002, 2.296080e-002
8.330977e+002, 2.375597e-002
8.350261e+002, 2.472060e-002
8.369546e+002, 2.536784e-002
8.388831e+002, 2.582419e-002
8.408115e+002, 2.650357e-002
8.427400e+002, 2.726508e-002
8.446685e+002, 2.800483e-002
8.465969e+002, 2.891246e-002
8.485254e+002, 3.002695e-002
8.504539e+002, 3.125163e-002
8.523823e+002, 3.240226e-002
8.543108e+002, 3.358953e-002
8.562393e+002, 3.486431e-002
8.581677e+002, 3.618437e-002
8.600962e+002, 3.745440e-002
8.620247e+002, 3.876767e-002
8.639531e+002, 4.007359e-002
8.658816e+002, 4.167007e-002
8.678101e+002, 4.345503e-002
8.697385e+002, 4.525685e-002
8.716670e+002, 4.720090e-002
8.735955e+002, 4.945461e-002
8.755239e+002, 5.156761e-002
8.774524e+002, 5.395770e-002
8.793809e+002, 5.675587e-002
8.813093e+002, 5.934608e-002
8.832378e+002, 6.201062e-002
8.851663e+002, 6.476842e-002
8.870947e+002, 6.801320e-002
8.890232e+002, 7.163312e-002
8.909517e+002, 7.537937e-002
8.928801e+002, 7.987104e-002
8.948085e+002, 8.484183e-002
8.967370e+002, 9.022262e-002
8.986655e+002, 9.606282e-002
9.005939e+002, 1.020227e-001
9.025224e+002, 1.085785e-001
9.044509e+002, 1.159537e-001
9.063793e+002, 1.238016e-001
9.083078e+002, 1.325559e-001
9.102363e+002, 1.424216e-001
9.121647e+002, 1.527866e-001
9.140932e+002, 1.641492e-001
9.160217e+002, 1.766184e-001
9.179501e+002, 1.898557e-001
9.198786e+002, 2.035145e-001
9.218071e+002, 2.163134e-001
9.237355e+002, 2.277246e-001
9.256640e+002, 2.372628e-001
9.275925e+002, 2.435395e-001
9.295209e+002, 2.447390e-001
9.314494e+002, 2.395426e-001
9.333779e+002, 2.282834e-001
9.353063e+002, 2.129604e-001
9.372348e+002, 1.968687e-001
9.391633e+002, 1.851533e-001
9.410917e+002, 1.821521e-001
9.430202e+002, 1.878402e-001
9.449487e+002, 1.995545e-001
9.468771e+002, 2.128622e-001
9.488056e+002, 2.229667e-001
9.507341e+002, 2.272798e-001
9.526625e+002, 2.260730e-001
9.545910e+002, 2.214057e-001
9.565195e+002, 2.150853e-001
9.584479e+002, 2.081183e-001
9.603764e+002, 2.011116e-001
9.623049e+002, 1.943043e-001
9.642333e+002, 1.882124e-001
9.661618e+002, 1.838023e-001
9.680903e+002, 1.814992e-001
9.700187e+002, 1.825554e-001
9.719472e+002, 1.882111e-001
9.738757e+002, 1.988711e-001
9.758041e+002, 2.135272e-001
9.777326e+002, 2.309937e-001
9.796611e+002, 2.499363e-001
9.815895e+002, 2.671396e-001
9.835180e+002, 2.782835e-001
9.854465e+002, 2.804733e-001
9.873749e+002, 2.725080e-001
9.893034e+002, 2.566240e-001
9.912319e+002, 2.367582e-001
9.931603e+002, 2.159110e-001
9.950888e+002, 1.965727e-001
9.970173e+002, 1.810554e-001
9.989457e+002, 1.716503e-001
1.000874e+003, 1.707498e-001
1.002803e+003, 1.774503e-001
1.004731e+003, 1.871389e-001
1.006660e+003, 1.956969e-001
1.008588e+003, 2.017106e-001
1.010517e+003, 2.055391e-001
1.012445e+003, 2.079076e-001
1.014373e+003, 2.091297e-001
1.016302e+003, 2.085260e-001
1.018230e+003, 2.057192e-001
1.020159e+003, 2.009437e-001
1.022087e+003, 1.945528e-001
1.024016e+003, 1.870770e-001
1.025944e+003, 1.795141e-001
1.027873e+003, 1.730881e-001
1.029801e+003, 1.678196e-001
1.031730e+003, 1.629534e-001
1.033658e+003, 1.563153e-001
1.035587e+003, 1.473750e-001
1.037515e+003, 1.380509e-001
1.039444e+003, 1.305199e-001
1.041372e+003, 1.260480e-001
1.043301e+003, 1.247238e-001
1.045229e+003, 1.251132e-001
1.047157e+003, 1.242590e-001
1.049086e+003, 1.200684e-001
1.051014e+003, 1.129719e-001
1.052943e+003, 1.048580e-001
1.054871e+003, 9.785509e-002
1.056800e+003, 9.282025e-002
1.058728e+003, 8.954439e-002
1.060657e+003, 8.822085e-002
1.062585e+003, 8.893817e-002
1.064514e+003, 9.052417e-002
1.066442e+003, 9.154145e-002
1.068371e+003, 9.050541e-002
1.070299e+003, 8.726032e-002
1.072228e+003, 8.258296e-002
1.074156e+003, 7.730906e-002
1.076084e+003, 7.239484e-002
1.078013e+003, 6.838515e-002
1.079941e+003, 6.569128e-002
1.081870e+003, 6.454361e-002
1.083798e+003, 6.480338e-002
1.085727e+003, 6.675199e-002
1.087655e+003, 7.086501e-002
1.089584e+003, 7.650789e-002
1.091512e+003, 8.306906e-002
1.093441e+003, 9.004859e-002
1.095369e+003, 9.637547e-002
1.097298e+003, 1.008689e-001
1.099226e+003, 1.032281e-001
1.101155e+003, 1.037665e-001
1.103083e+003, 1.024339e-001
1.105011e+003, 9.949709e-002
1.106940e+003, 9.516741e-002
1.108868e+003, 9.008105e-002
1.110797e+003, 8.428073e-002
1.112725e+003, 7.809998e-002
1.114654e+003, 7.167832e-002
1.116582e+003, 6.516258e-002
1.118511e+003, 5.894298e-002
1.120439e+003, 5.304883e-002
1.122368e+003, 4.771830e-002
1.124296e+003, 4.297745e-002
1.126225e+003, 3.887745e-002
1.128153e+003, 3.538163e-002
1.130082e+003, 3.219359e-002
1.132010e+003, 2.937611e-002
1.133938e+003, 2.714949e-002
1.135867e+003, 2.545206e-002
1.137795e+003, 2.384541e-002
1.139724e+003, 2.218854e-002
1.141652e+003, 2.064373e-002
1.143581e+003, 1.956824e-002
1.145509e+003, 1.877178e-002
1.147438e+003, 1.786497e-002
1.149366e+003, 1.703597e-002
1.151295e+003, 1.628777e-002
1.153223e+003, 1.562631e-002
1.155152e+003, 1.516856e-002
1.157080e+003, 1.470843e-002
1.159009e+003, 1.415204e-002
1.160937e+003, 1.376410e-002
1.162865e+003, 1.358922e-002
1.164794e+003, 1.304196e-002
1.166722e+003, 1.255475e-002
1.168651e+003, 1.217400e-002
1.170579e+003, 1.168449e-002
1.172508e+003, 1.138716e-002
1.174436e+003, 1.123943e-002
1.176365e+003, 1.103488e-002
1.178293e+003, 1.063445e-002
1.180222e+003, 1.026073e-002
1.182150e+003, 9.920122e-003
1.184079e+003, 9.587438e-003
1.186007e+003, 9.473355e-003
1.187936e+003, 9.310223e-003
1.189864e+003, 8.850829e-003
1.191792e+003, 8.405622e-003
1.193721e+003, 8.294901e-003
1.195649e+003, 8.102439e-003
1.197578e+003, 7.755714e-003
1.199506e+003, 7.353780e-003
1.201435e+003, 7.036215e-003
1.203363e+003, 6.791433e-003
1.205292e+003, 6.572445e-003
1.207220e+003, 6.422467e-003
1.209149e+003, 6.381831e-003
1.211077e+003, 6.258233e-003
1.213006e+003, 6.109641e-003
1.214934e+003, 5.962914e-003
1.216863e+003, 5.597523e-003
1.218791e+003, 5.407061e-003
1.220719e+003, 5.544598e-003
1.222648e+003, 5.480088e-003
1.224576e+003, 5.267484e-003
1.226505e+003, 5.011241e-003
1.228433e+003, 4.912429e-003
1.230362e+003, 4.642576e-003
1.232290e+003, 4.409501e-003
1.234219e+003, 4.355879e-003
1.236147e+003, 4.404355e-003
1.238076e+003, 4.382402e-003
1.240004e+003, 4.159965e-003
1.241933e+003, 3.943669e-003
1.243861e+003, 3.812601e-003
1.245790e+003, 3.808701e-003
1.247718e+003, 3.780012e-003
1.249646e+003, 3.637838e-003
1.251575e+003, 3.558225e-003
1.253503e+003, 3.469962e-003
1.255432e+003, 3.513897e-003
1.257360e+003, 3.365463e-003
1.259289e+003, 3.287396e-003
1.261217e+003, 3.439734e-003
1.263146e+003, 3.444478e-003
1.265074e+003, 3.162612e-003
1.267003e+003, 3.081777e-003
1.268931e+003, 3.163376e-003
1.270860e+003, 3.144278e-003
1.272788e+003, 3.050907e-003
1.274717e+003, 2.892966e-003
1.276645e+003, 2.724843e-003
1.278573e+003, 2.825567e-003
1.280502e+003, 3.048539e-003
1.282430e+003, 2.969228e-003
1.284359e+003, 2.897042e-003
1.286287e+003, 2.832321e-003
1.288216e+003, 2.736753e-003
1.290144e+003, 2.737795e-003
1.292073e+003, 2.606340e-003
1.294001e+003, 2.409586e-003
1.295930e+003, 2.537146e-003
1.297858e+003, 2.684386e-003
1.299787e+003, 2.722389e-003
1.301715e+003, 2.764422e-003
1.303644e+003, 2.749328e-003
1.305572e+003, 2.646299e-003
1.307500e+003, 2.488960e-003
1.309429e+003, 2.466158e-003
1.311357e+003, 2.435765e-003
1.313286e+003, 2.348453e-003
1.315214e+003, 2.358806e-003
1.317143e+003, 2.285012e-003
1.319071e+003, 2.248602e-003
1.321000e+003, 2.197960e-003
1.322928e+003, 2.254477e-003
1.324857e+003, 2.085057e-003
1.326785e+003, 1.908640e-003
1.328714e+003, 2.065550e-003
1.330642e+003, 2.072641e-003
1.332571e+003, 2.153638e-003
1.334499e+003, 2.291988e-003
1.336427e+003, 2.253670e-003
1.338356e+003, 2.166389e-003
1.340284e+003, 2.302254e-003
1.342213e+003, 2.368407e-003
1.344141e+003, 2.264702e-003
1.346070e+003, 2.266733e-003
1.347998e+003, 2.149177e-003
1.349927e+003, 1.908961e-003
1.351855e+003, 2.092243e-003
1.353784e+003, 2.243628e-003
1.355712e+003, 2.186140e-003
1.357641e+003, 2.260570e-003
1.359569e+003, 2.347463e-003
1.361498e+003, 2.342336e-003
1.363426e+003, 2.102828e-003
1.365354e+003, 2.027455e-003
1.367283e+003, 2.095139e-003
1.369211e+003, 2.190166e-003
1.371140e+003, 2.187579e-003
1.373068e+003, 2.102510e-003
1.374997e+003, 2.088609e-003
1.376925e+003, 2.046206e-003
1.378854e+003, 2.087115e-003
1.380782e+003, 2.235065e-003
1.382711e+003, 2.169105e-003
1.384639e+003, 2.246157e-003
1.386568e+003, 2.037630e-003
1.388496e+003, 2.058057e-003
1.390424e+003, 2.144475e-003
1.392353e+003, 2.226560e-003
1.394281e+003, 2.314016e-003
1.396210e+003, 2.340064e-003
1.398138e+003, 2.189104e-003
1.400067e+003, 2.219828e-003
1.401995e+003, 2.229616e-003
1.403924e+003, 2.242332e-003
1.405852e+003, 2.181486e-003
1.407781e+003, 2.151724e-003
1.409709e+003, 2.310252e-003
1.411638e+003, 2.374289e-003
1.413566e+003, 2.318041e-003
1.415495e+003, 2.416357e-003
1.417423e+003, 2.265157e-003
1.419351e+003, 2.224590e-003
1.421280e+003, 2.415736e-003
1.423208e+003, 2.454755e-003
1.425137e+003, 2.484251e-003
1.427065e+003, 2.456937e-003
1.428994e+003, 2.465620e-003
1.430922e+003, 2.395178e-003
1.432851e+003, 2.320173e-003
1.434779e+003, 2.124724e-003
1.436708e+003, 2.121029e-003
1.438636e+003, 2.319535e-003
1.440565e+003, 2.477872e-003
1.442493e+003, 2.435081e-003
1.444422e+003, 2.436614e-003
1.446350e+003, 2.527219e-003
1.448278e+003, 2.638816e-003
1.450207e+003, 2.456799e-003
1.452135e+003, 2.302941e-003
1.454064e+003, 2.116868e-003
1.455992e+003, 1.858109e-003
1.457921e+003, 2.128154e-003
1.459849e+003, 2.311369e-003
1.461778e+003, 2.430939e-003
1.463706e+003, 2.337654e-003
1.465635e+003, 2.266659e-003
1.467563e+003, 2.244065e-003
1.469492e+003, 2.412283e-003
1.471420e+003, 2.328924e-003
1.473349e+003, 2.357031e-003
1.475277e+003, 2.424068e-003
1.477205e+003, 2.589109e-003
1.479134e+003, 2.795855e-003
1.481062e+003, 2.776418e-003
1.482991e+003, 2.787448e-003
1.484919e+003, 2.854358e-003
1.486848e+003, 2.751210e-003
1.488776e+003, 2.802006e-003
1.490705e+003, 2.837209e-003
1.492633e+003, 2.829775e-003
1.494562e+003, 2.719748e-003
1.496490e+003, 2.734796e-003
1.498419e+003, 2.741406e-003
1.500347e+003, 2.813346e-003
1.502276e+003, 2.763131e-003
1.504204e+003, 2.623677e-003
1.506132e+003, 2.574012e-003
1.508061e+003, 2.583765e-003
1.509989e+003, 2.660097e-003
1.511918e+003, 2.914408e-003
1.513846e+003, 3.109246e-003
1.515775e+003, 2.774666e-003
1.517703e+003, 2.700614e-003
1.519632e+003, 2.677139e-003
1.521560e+003, 2.874980e-003
1.523489e+003, 3.058876e-003
1.525417e+003, 3.085461e-003
1.527346e+003, 3.043986e-003
1.529274e+003, 3.092029e-003
1.531203e+003, 3.275198e-003
1.533131e+003, 3.244985e-003
1.535059e+003, 3.205378e-003
1.536988e+003, 3.099245e-003
1.538916e+003, 2.981454e-003
1.540845e+003, 3.370443e-003
1.542773e+003, 3.807168e-003
1.544702e+003, 3.960107e-003
1.546630e+003, 4.048954e-003
1.548559e+003, 3.912242e-003
1.550487e+003, 4.162653e-003
1.552416e+003, 4.540656e-003
1.554344e+003, 4.646169e-003
1.556273e+003, 4.553314e-003
1.558201e+003, 4.416456e-003
1.560130e+003, 4.910105e-003
1.562058e+003, 5.441245e-003
1.563986e+003, 5.610428e-003
1.565915e+003, 6.052352e-003
1.567843e+003, 6.391514e-003
1.569772e+003, 6.733484e-003
1.571700e+003, 7.104780e-003
1.573629e+003, 7.589236e-003
1.575557e+003, 8.009875e-003
1.577486e+003, 8.781767e-003
1.579414e+003, 9.585531e-003
1.581343e+003, 9.991634e-003
1.583271e+003, 1.016568e-002
1.585200e+003, 1.077614e-002
1.587128e+003, 1.112008e-002
1.589057e+003, 1.091605e-002
1.590985e+003, 1.027211e-002
1.592913e+003, 9.791306e-003
1.594842e+003, 9.452161e-003
1.596770e+003, 9.085560e-003
1.598699e+003, 8.465028e-003
1.600627e+003, 7.756792e-003
1.602556e+003, 7.389111e-003
1.604484e+003, 7.217939e-003
1.606413e+003, 7.040339e-003
1.608341e+003, 6.818750e-003
1.610270e+003, 6.688426e-003
1.612198e+003, 6.730970e-003
1.614127e+003, 6.842137e-003
1.616055e+003, 6.554437e-003
1.617984e+003, 6.769827e-003
1.619912e+003, 6.994214e-003
1.621840e+003, 7.255147e-003
1.623769e+003, 7.664501e-003
1.625697e+003, 8.027461e-003
1.627626e+003, 8.627487e-003
1.629554e+003, 9.444010e-003
1.631483e+003, 1.030264e-002
1.633411e+003, 1.127170e-002
1.635340e+003, 1.285400e-002
1.637268e+003, 1.547067e-002
1.639197e+003, 1.852555e-002
1.641125e+003, 2.242562e-002
1.643054e+003, 2.722882e-002
1.644982e+003, 3.162066e-002
1.646911e+003, 3.448866e-002
1.648839e+003, 3.401688e-002
1.650767e+003, 3.066998e-002
1.652696e+003, 2.711922e-002
1.654624e+003, 2.621698e-002
1.656553e+003, 2.728722e-002
1.658481e+003, 3.004919e-002
1.660410e+003, 3.389664e-002
1.662338e+003, 3.759266e-002
1.664267e+003, 3.843467e-002
1.666195e+003, 3.460510e-002
1.668124e+003, 2.766161e-002
1.670052e+003, 2.137287e-002
1.671981e+003, 1.631032e-002
1.673909e+003, 1.217105e-002
1.675838e+003, 9.550916e-003
1.677766e+003, 8.159779e-003
1.679694e+003, 7.017816e-003
1.681623e+003, 5.742754e-003
1.683551e+003, 4.848459e-003
1.685480e+003, 4.876278e-003
1.687408e+003, 4.698216e-003
1.689337e+003, 4.369564e-003
1.691265e+003, 4.017883e-003
1.693194e+003, 3.593560e-003
1.695122e+003, 3.198400e-003
1.697051e+003, 3.214002e-003
1.698979e+003, 2.757539e-003
1.700908e+003, 2.801438e-003
1.702836e+003, 2.817773e-003
1.704765e+003, 2.741336e-003
1.706693e+003, 2.642821e-003
1.708621e+003, 2.662885e-003
1.710550e+003, 2.592192e-003
1.712478e+003, 2.456137e-003
1.714407e+003, 2.519699e-003
1.716335e+003, 2.244068e-003
1.718264e+003, 2.258707e-003
1.720192e+003, 2.484043e-003
1.722121e+003, 2.636983e-003
1.724049e+003, 2.517635e-003
1.725978e+003, 2.484237e-003
1.727906e+003, 2.440363e-003
1.729835e+003, 2.035787e-003
1.731763e+003, 1.783242e-003
1.733692e+003, 1.729809e-003
1.735620e+003, 1.921901e-003
1.737548e+003, 1.711277e-003
1.739477e+003, 1.815400e-003
1.741405e+003, 1.824824e-003
1.743334e+003, 1.478008e-003
1.745262e+003, 1.609584e-003
1.747191e+003, 1.873325e-003
1.749119e+003, 1.840490e-003
1.751048e+003, 1.674546e-003
1.752976e+003, 1.509740e-003
1.754905e+003, 1.375158e-003
1.756833e+003, 1.592965e-003
1.758762e+003, 1.428531e-003
1.760690e+003, 1.334084e-003
1.762619e+003, 1.597489e-003
1.764547e+003, 1.415504e-003
1.766475e+003, 1.513618e-003
1.768404e+003, 1.481673e-003
1.770332e+003, 1.003669e-003
1.772261e+003, 1.031843e-003
1.774189e+003, 1.230321e-003
1.776118e+003, 1.183255e-003
1.778046e+003, 1.036010e-003
1.779975e+003, 8.998011e-004
1.781903e+003, 1.088287e-003
1.783832e+003, 1.339161e-003
1.785760e+003, 1.430654e-003
1.787689e+003, 1.446176e-003
1.789617e+003, 1.517938e-003
1.791546e+003, 1.488940e-003
1.793474e+003, 1.618623e-003
1.795402e+003, 1.750360e-003
1.797331e+003, 1.708976e-003
1.799259e+003, 1.542259e-003
1.801188e+003, 1.182070e-003
1.803116e+003, 9.381318e-004
1.805045e+003, 8.402817e-004
1.806973e+003, 9.510002e-004
1.808902e+003, 1.093889e-003
1.810830e+003, 8.302524e-004
1.812759e+003, 3.235618e-004
1.814687e+003, 1.560711e-004
1.816616e+003, 4.968735e-004
1.818544e+003, 1.008656e-003
1.820473e+003, 1.031256e-003
1.822401e+003, 8.470489e-004
1.824329e+003, 5.627681e-004
1.826258e+003, 3.878307e-004
1.828186e+003, 5.154352e-004
1.830115e+003, 6.277727e-004
1.832043e+003, 8.684523e-005
1.833972e+003, -7.090846e-006
1.835900e+003, -1.652418e-004
1.837829e+003, -3.342949e-004
1.839757e+003, 3.086531e-004
1.841686e+003, 3.420089e-004
1.843614e+003, -6.449855e-004
1.845543e+003, -6.217977e-004
1.847471e+003, -2.320308e-004
1.849400e+003, -3.670257e-004
1.851328e+003, -8.182470e-004
1.853256e+003, -8.303385e-004
1.855185e+003, -8.123298e-004
1.857113e+003, -4.232361e-004
1.859042e+003, -3.117539e-005
1.860970e+003, -4.609574e-004
1.862899e+003, -8.268881e-004
1.864827e+003, -6.277666e-004
1.866756e+003, -8.971097e-004
1.868684e+003, -1.081978e-003
1.870613e+003, -7.888872e-004
1.872541e+003, -9.484494e-004
1.874470e+003, -1.108567e-003
1.876398e+003, -1.090190e-003
1.878327e+003, -1.547259e-003
1.880255e+003, -1.911556e-003
1.882183e+003, -1.914076e-003
1.884112e+003, -1.582770e-003
1.886040e+003, -1.078333e-003
1.887969e+003, -7.440250e-004
1.889897e+003, -9.077136e-004
1.891826e+003, -1.784321e-003
1.893754e+003, -1.843900e-003
1.895683e+003, -1.489569e-003
1.897611e+003, -1.202074e-003
1.899540e+003, -1.606353e-003
1.901468e+003, -1.927741e-003
1.903397e+003, -2.299051e-003
1.905325e+003, -2.980514e-003
1.907254e+003, -2.799890e-003
1.909182e+003, -2.078955e-003
1.911110e+003, -1.944136e-003
1.913039e+003, -2.482817e-003
1.914967e+003, -2.351174e-003
1.916896e+003, -1.812707e-003
1.918824e+003, -1.752103e-003
1.920753e+003, -2.548351e-003
1.922681e+003, -2.641403e-003
1.924610e+003, -2.458032e-003
1.926538e+003, -2.509604e-003
1.928467e+003, -2.789658e-003
1.930395e+003, -3.088863e-003
1.932324e+003, -3.101019e-003
1.934252e+003, -3.129899e-003
1.936181e+003, -3.250289e-003
1.938109e+003, -3.734976e-003
1.940037e+003, -3.520844e-003
1.941966e+003, -4.087002e-003
1.943894e+003, -4.022963e-003
1.945823e+003, -3.409091e-003
1.947751e+003, -4.055370e-003
1.949680e+003, -4.361243e-003
1.951608e+003, -4.540781e-003
1.953537e+003, -5.348893e-003
1.955465e+003, -6.110792e-003
1.957394e+003, -6.260739e-003
1.959322e+003, -7.228006e-003
1.961251e+003, -8.887729e-003
1.963179e+003, -9.024276e-003
1.965108e+003, -8.467461e-003
1.967036e+003, -8.378550e-003
1.968964e+003, -8.715442e-003
1.970893e+003, -9.168464e-003
1.972821e+003, -8.322326e-003
1.974750e+003, -7.053374e-003
1.976678e+003, -5.752585e-003
1.978607e+003, -5.229642e-003
1.980535e+003, -5.368163e-003
1.982464e+003, -5.285583e-003
1.984392e+003, -4.658621e-003
1.986321e+003, -4.725561e-003
1.988249e+003, -5.028384e-003
1.990178e+003, -5.651864e-003
1.992106e+003, -5.857324e-003
1.994035e+003, -6.364801e-003
1.995963e+003, -6.539559e-003
1.997891e+003, -5.668504e-003
1.999820e+003, -5.759914e-003
2.001748e+003, -5.987683e-003
2.003677e+003, -6.369527e-003
2.005605e+003, -7.094916e-003
2.007534e+003, -5.076091e-003
2.009462e+003, -4.869029e-003
2.011391e+003, -5.924845e-003
2.013319e+003, -7.067486e-003
2.015248e+003, -8.080494e-003
2.017176e+003, -8.154723e-003
2.019105e+003, -7.873684e-003
2.021033e+003, -7.349965e-003
2.022962e+003, -6.810975e-003
2.024890e+003, -7.131435e-003
2.026818e+003, -6.912850e-003
2.028747e+003, -6.492386e-003
2.030675e+003, -7.167283e-003
2.032604e+003, -5.890280e-003
2.034532e+003, -5.774525e-003
2.036461e+003, -6.414584e-003
2.038389e+003, -7.349066e-003
2.040318e+003, -5.534165e-003
2.042246e+003, -4.293568e-003
2.044175e+003, -4.450306e-003
2.046103e+003, -3.944843e-003
2.048032e+003, -2.927986e-003
2.049960e+003, -2.074029e-003
2.051889e+003, -2.471599e-003
2.053817e+003, -3.095405e-003
2.055746e+003, -2.709308e-003
2.057674e+003, -3.309248e-003
2.059603e+003, -2.968353e-003
2.061531e+003, -2.406638e-003
2.063459e+003, -1.664220e-003
2.065388e+003, -1.908564e-003
2.067316e+003, -2.729845e-003
2.069245e+003, -2.682812e-003
2.071173e+003, -1.610994e-003
2.073102e+003, -1.582393e-003
2.075030e+003, -1.413775e-003
2.076959e+003, -7.687750e-004
2.078887e+003, -1.275515e-004
2.080816e+003, -6.578420e-004
2.082744e+003, -1.643557e-003
2.084673e+003, -1.920625e-003
2.086601e+003, -1.347109e-003
2.088530e+003, -1.587820e-003
2.090458e+003, -1.729639e-003
2.092386e+003, -1.123339e-003
2.094315e+003, -1.567351e-003
2.096243e+003, -1.390649e-003
2.098172e+003, -9.747884e-004
2.100100e+003, -1.037130e-003
2.102029e+003, -5.252103e-004
2.103957e+003, -2.413839e-004
2.105886e+003, -2.382575e-004
2.107814e+003, 5.655301e-006
2.109743e+003, 6.841288e-004
2.111671e+003, 9.751750e-004
2.113600e+003, 2.602029e-004
2.115528e+003, 2.818953e-004
2.117457e+003, 5.017060e-004
2.119385e+003, 3.578546e-004
2.121313e+003, -4.843741e-004
2.123242e+003, -1.355464e-003
2.125170e+003, -1.785993e-003
2.127099e+003, -1.345823e-003
2.129027e+003, -2.225235e-003
2.130956e+003, -3.829869e-003
2.132884e+003, -4.001669e-003
2.134813e+003, -3.601423e-003
2.136741e+003, -3.818130e-003
2.138670e+003, -4.153347e-003
2.140598e+003, -3.132960e-003
2.142527e+003, -3.398872e-003
2.144455e+003, -4.315102e-003
2.146384e+003, -4.135336e-003
2.148312e+003, -4.075411e-003
2.150240e+003, -4.676018e-003
2.152169e+003, -4.257301e-003
2.154097e+003, -5.616405e-003
2.156026e+003, -8.415428e-003
2.157954e+003, -7.492498e-003
2.159883e+003, -3.778522e-003
2.161811e+003, -2.354189e-003
2.163740e+003, -1.724894e-003
2.165668e+003, -9.318363e-004
2.167597e+003, -1.506494e-003
2.169525e+003, -1.918632e-003
2.171454e+003, -2.246195e-003
2.173382e+003, -1.441205e-003
2.175311e+003, -9.708388e-004
2.177239e+003, -2.116221e-003
2.179167e+003, -3.831394e-003
2.181096e+003, -3.038964e-003
2.183024e+003, -1.108097e-003
2.184953e+003, -2.244419e-003
2.186881e+003, -2.089664e-003
2.188810e+003, -7.710162e-004
2.190738e+003, -7.895383e-004
2.192667e+003, -9.199468e-004
2.194595e+003, -2.027381e-003
2.196524e+003, -2.571883e-003
2.198452e+003, -1.777009e-003
2.200381e+003, -2.935184e-004
2.202309e+003, 8.316814e-005
2.204238e+003, -1.374290e-003
2.206166e+003, -1.943044e-003
2.208094e+003, -9.396457e-004
2.210023e+003, -6.100222e-004
2.211951e+003, -7.169716e-005
2.213880e+003, -2.462805e-004
2.215808e+003, -3.634044e-004
2.217737e+003, -2.592764e-004
2.219665e+003, -1.091825e-003
2.221594e+003, -7.497520e-004
2.223522e+003, 2.352146e-004
2.225451e+003, 8.417626e-004
2.227379e+003, 3.830081e-004
2.229308e+003, 3.021119e-004
2.231236e+003, 9.199620e-005
2.233165e+003, -8.524784e-004
2.235093e+003, -5.635286e-004
2.237021e+003, 2.761915e-004
2.238950e+003, 2.033551e-003
2.240878e+003, 4.226240e-003
2.242807e+003, 3.981997e-003
2.244735e+003, 3.373172e-003
2.246664e+003, 3.127219e-003
2.248592e+003, 3.519478e-003
2.250521e+003, 3.869758e-003
2.252449e+003, 2.698449e-003
2.254378e+003, 2.040415e-003
2.256306e+003, 2.300763e-003
2.258235e+003, 3.204199e-003
2.260163e+003, 2.793018e-003
2.262092e+003, 2.776177e-003
2.264020e+003, 3.102206e-003
2.265948e+003, 3.995211e-003
2.267877e+003, 4.983247e-003
2.269805e+003, 3.812969e-003
2.271734e+003, 3.738797e-003
2.273662e+003, 4.754422e-003
2.275591e+003, 4.937346e-003
2.277519e+003, 4.812239e-003
2.279448e+003, 4.734094e-003
2.281376e+003, 5.366258e-003
2.283305e+003, 5.849539e-003
2.285233e+003, 6.118734e-003
2.287162e+003, 5.576461e-003
2.289090e+003, 5.016405e-003
2.291019e+003, 4.540042e-003
2.292947e+003, 4.788867e-003
2.294875e+003, 4.771322e-003
2.296804e+003, 4.641791e-003
2.298732e+003, 4.935043e-003
2.300661e+003, 4.695523e-003
2.302589e+003, 4.854174e-003
2.304518e+003, 4.238138e-003
2.306446e+003, 4.107459e-003
2.308375e+003, 4.592763e-003
2.310303e+003, 4.379781e-003
2.312232e+003, 4.104125e-003
2.314160e+003, 3.487705e-003
2.316089e+003, 3.558894e-003
2.318017e+003, 4.194631e-003
2.319946e+003, 4.314137e-003
2.321874e+003, 4.653033e-003
2.323802e+003, 5.342042e-003
2.325731e+003, 4.389699e-003
2.327659e+003, 3.353231e-003
2.329588e+003, 2.904135e-003
2.331516e+003, 2.927728e-003
2.333445e+003, 3.221251e-003
2.335373e+003, 3.339371e-003
2.337302e+003, 3.539573e-003
2.339230e+003, 3.394677e-003
2.341159e+003, 2.642758e-003
2.343087e+003, 2.614419e-003
2.345016e+003, 2.672112e-003
2.346944e+003, 2.418214e-003
2.348873e+003, 2.522925e-003
2.350801e+003, 2.627394e-003
2.352729e+003, 2.658204e-003
2.354658e+003, 2.832386e-003
2.356586e+003, 2.809757e-003
2.358515e+003, 2.500279e-003
2.360443e+003, 2.617013e-003
2.362372e+003, 2.251106e-003
2.364300e+003, 1.821610e-003
2.366229e+003, 1.577708e-003
2.368157e+003, 1.468475e-003
2.370086e+003, 2.200860e-003
2.372014e+003, 2.456750e-003
2.373942e+003, 2.449817e-003
2.375871e+003, 2.478857e-003
2.377799e+003, 2.368760e-003
2.379728e+003, 2.689055e-003
2.381656e+003, 2.700043e-003
2.383585e+003, 2.374499e-003
2.385513e+003, 2.236938e-003
2.387442e+003, 2.549557e-003
2.389370e+003, 2.446267e-003
2.391299e+003, 2.300352e-003
2.393227e+003, 2.592618e-003
2.395156e+003, 2.849501e-003
2.397084e+003, 2.964948e-003
2.399012e+003, 2.807711e-003
2.400941e+003, 2.780676e-003
2.402869e+003, 3.040123e-003
2.404798e+003, 2.823220e-003
2.406726e+003, 3.021246e-003
2.408655e+003, 3.245401e-003
2.410583e+003, 3.079279e-003
2.412512e+003, 2.825063e-003
2.414440e+003, 2.801252e-003
2.416369e+003, 2.977708e-003
2.418297e+003, 3.198193e-003
2.420226e+003, 3.587394e-003
2.422154e+003, 3.650089e-003
2.424083e+003, 3.571995e-003
2.426011e+003, 2.980161e-003
2.427939e+003, 2.361269e-003
2.429868e+003, 2.492099e-003
2.431796e+003, 2.434877e-003
2.433725e+003, 2.316547e-003
2.435653e+003, 2.212354e-003
2.437582e+003, 2.420270e-003
2.439510e+003, 2.835043e-003
2.441439e+003, 3.105230e-003
2.443367e+003, 3.072039e-003
2.445296e+003, 3.276652e-003
2.447224e+003, 3.294690e-003
2.449153e+003, 3.600229e-003
2.451081e+003, 3.375569e-003
2.453010e+003, 3.119541e-003
2.454938e+003, 3.003708e-003
2.456866e+003, 3.024028e-003
2.458795e+003, 3.052220e-003
2.460723e+003, 2.752854e-003
2.462652e+003, 2.351527e-003
2.464580e+003, 2.271858e-003
2.466509e+003, 3.041963e-003
2.468437e+003, 3.256882e-003
2.470366e+003, 3.171909e-003
2.472294e+003, 3.282678e-003
2.474223e+003, 2.929314e-003
2.476151e+003, 2.825229e-003
2.478080e+003, 2.908769e-003
2.480008e+003, 3.029195e-003
2.481937e+003, 3.354381e-003
2.483865e+003, 2.882305e-003
2.485793e+003, 2.545090e-003
2.487722e+003, 2.269734e-003
2.489650e+003, 2.644216e-003
2.491579e+003, 3.052105e-003
2.493507e+003, 2.999372e-003
2.495436e+003, 3.004760e-003
2.497364e+003, 2.695130e-003
2.499293e+003, 2.677454e-003
2.501221e+003, 3.481875e-003
2.503150e+003, 3.618114e-003
2.505078e+003, 3.118005e-003
2.507007e+003, 3.168557e-003
2.508935e+003, 3.002510e-003
2.510864e+003, 3.420436e-003
2.512792e+003, 3.699719e-003
2.514720e+003, 3.367517e-003
2.516649e+003, 3.152646e-003
2.518577e+003, 2.841346e-003
2.520506e+003, 2.921898e-003
2.522434e+003, 2.895977e-003
2.524363e+003, 3.427920e-003
2.526291e+003, 3.371259e-003
2.528220e+003, 2.764713e-003
2.530148e+003, 2.909878e-003
2.532077e+003, 3.144209e-003
2.534005e+003, 3.383660e-003
2.535934e+003, 3.473052e-003
2.537862e+003, 3.055177e-003
2.539791e+003, 2.910337e-003
2.541719e+003, 2.820173e-003
2.543647e+003, 2.064043e-003
2.545576e+003, 2.167861e-003
2.547504e+003, 3.566296e-003
2.549433e+003, 4.320355e-003
2.551361e+003, 3.837862e-003
2.553290e+003, 3.765974e-003
2.555218e+003, 3.901438e-003
2.557147e+003, 3.647205e-003
2.559075e+003, 3.395621e-003
2.561004e+003, 3.419289e-003
2.562932e+003, 3.709050e-003
2.564861e+003, 4.241311e-003
2.566789e+003, 4.427298e-003
2.568718e+003, 3.549119e-003
2.570646e+003, 3.235075e-003
2.572574e+003, 4.110926e-003
2.574503e+003, 4.934533e-003
2.576431e+003, 4.884212e-003
2.578360e+003, 4.538694e-003
2.580288e+003, 4.260216e-003
2.582217e+003, 4.479423e-003
2.584145e+003, 4.151591e-003
2.586074e+003, 4.065420e-003
2.588002e+003, 4.555927e-003
2.589931e+003, 4.831977e-003
2.591859e+003, 5.027840e-003
2.593788e+003, 4.621513e-003
2.595716e+003, 4.175620e-003
2.597645e+003, 4.487436e-003
2.599573e+003, 4.135918e-003
2.601501e+003, 3.783467e-003
2.603430e+003, 3.846167e-003
2.605358e+003, 4.051293e-003
2.607287e+003, 3.660223e-003
2.609215e+003, 4.210962e-003
2.611144e+003, 5.000249e-003
2.613072e+003, 5.507578e-003
2.615001e+003, 4.834809e-003
2.616929e+003, 4.565588e-003
2.618858e+003, 4.814665e-003
2.620786e+003, 4.787428e-003
2.622715e+003, 4.838163e-003
2.624643e+003, 4.931244e-003
2.626572e+003, 4.939937e-003
2.628500e+003, 4.788314e-003
2.630428e+003, 4.811432e-003
2.632357e+003, 4.840361e-003
2.634285e+003, 4.949011e-003
2.636214e+003, 5.109678e-003
2.638142e+003, 4.972060e-003
2.640071e+003, 5.142986e-003
2.641999e+003, 4.962624e-003
2.643928e+003, 4.503281e-003
2.645856e+003, 4.615443e-003
2.647785e+003, 5.120209e-003
2.649713e+003, 5.026583e-003
2.651642e+003, 4.843797e-003
2.653570e+003, 5.243035e-003
2.655499e+003, 5.281671e-003
2.657427e+003, 4.763029e-003
2.659355e+003, 4.463216e-003
2.661284e+003, 4.178442e-003
2.663212e+003, 4.141352e-003
2.665141e+003, 4.153214e-003
2.667069e+003, 4.392865e-003
2.668998e+003, 4.229519e-003
2.670926e+003, 3.812345e-003
2.672855e+003, 3.563134e-003
2.674783e+003, 4.000058e-003
2.676712e+003, 4.244415e-003
2.678640e+003, 3.667090e-003
2.680569e+003, 3.578586e-003
2.682497e+003, 3.798007e-003
2.684426e+003, 4.138190e-003
2.686354e+003, 4.331981e-003
2.688282e+003, 3.994059e-003
2.690211e+003, 3.817516e-003
2.692139e+003, 3.815509e-003
2.694068e+003, 3.840812e-003
2.695996e+003, 3.936684e-003
2.697925e+003, 4.192017e-003
2.699853e+003, 4.133876e-003
2.701782e+003, 3.829446e-003
2.703710e+003, 3.870738e-003
2.705639e+003, 4.144984e-003
2.707567e+003, 4.403201e-003
2.709496e+003, 4.595952e-003
2.711424e+003, 4.103541e-003
2.713353e+003, 3.858115e-003
2.715281e+003, 4.238039e-003
2.717209e+003, 4.155213e-003
2.719138e+003, 3.634691e-003
2.721066e+003, 3.547648e-003
2.722995e+003, 3.768729e-003
2.724923e+003, 3.818046e-003
2.726852e+003, 4.391670e-003
2.728780e+003, 4.727519e-003
2.730709e+003, 4.247682e-003
2.732637e+003, 3.923692e-003
2.734566e+003, 3.813105e-003
2.736494e+003, 4.398099e-003
2.738423e+003, 4.473330e-003
2.740351e+003, 4.246735e-003
2.742280e+003, 4.127813e-003
2.744208e+003, 4.433680e-003
2.746136e+003, 4.700769e-003
2.748065e+003, 4.162929e-003
2.749993e+003, 4.155792e-003
2.751922e+003, 4.663438e-003
2.753850e+003, 4.578587e-003
2.755779e+003, 4.391246e-003
2.757707e+003, 4.078236e-003
2.759636e+003, 4.284974e-003
2.761564e+003, 4.405517e-003
2.763493e+003, 4.448021e-003
2.765421e+003, 5.003716e-003
2.767350e+003, 5.082527e-003
2.769278e+003, 4.947488e-003
2.771207e+003, 5.085369e-003
2.773135e+003, 4.723465e-003
2.775063e+003, 4.478367e-003
2.776992e+003, 4.552134e-003
2.778920e+003, 4.360663e-003
2.780849e+003, 3.703510e-003
2.782777e+003, 3.777296e-003
2.784706e+003, 4.378540e-003
2.786634e+003, 5.246192e-003
2.788563e+003, 5.536695e-003
2.790491e+003, 5.065887e-003
2.792420e+003, 4.702069e-003
2.794348e+003, 4.546665e-003
2.796277e+003, 4.915813e-003
2.798205e+003, 5.116761e-003
2.800134e+003, 5.024697e-003
2.802062e+003, 4.852809e-003
2.803990e+003, 4.245138e-003
2.805919e+003, 4.007377e-003
2.807847e+003, 4.347516e-003
2.809776e+003, 5.026857e-003
2.811704e+003, 4.878489e-003
2.813633e+003, 4.393806e-003
2.815561e+003, 4.063082e-003
2.817490e+003, 4.152791e-003
2.819418e+003, 4.817123e-003
2.821347e+003, 5.193722e-003
2.823275e+003, 5.327298e-003
2.825204e+003, 5.031525e-003
2.827132e+003, 4.925668e-003
2.829061e+003, 5.372014e-003
2.830989e+003, 5.038533e-003
2.832917e+003, 4.479034e-003
2.834846e+003, 4.848671e-003
2.836774e+003, 5.378167e-003
2.838703e+003, 5.040174e-003
2.840631e+003, 5.125634e-003
2.842560e+003, 5.872151e-003
2.844488e+003, 5.545869e-003
2.846417e+003, 4.607441e-003
2.848345e+003, 4.575704e-003
2.850274e+003, 4.701089e-003
2.852202e+003, 4.859383e-003
2.854131e+003, 4.431428e-003
2.856059e+003, 4.374401e-003
2.857988e+003, 4.734250e-003
2.859916e+003, 4.833142e-003
2.861844e+003, 5.202859e-003
2.863773e+003, 5.200076e-003
2.865701e+003, 5.098507e-003
2.867630e+003, 5.563123e-003
2.869558e+003, 5.488073e-003
2.871487e+003, 5.374033e-003
2.873415e+003, 5.448594e-003
2.875344e+003, 5.808072e-003
2.877272e+003, 5.643885e-003
2.879201e+003, 5.158831e-003
2.881129e+003, 5.305986e-003
2.883058e+003, 5.398376e-003
2.884986e+003, 5.419940e-003
2.886915e+003, 5.570367e-003
2.888843e+003, 5.263961e-003
2.890771e+003, 4.603006e-003
2.892700e+003, 5.415757e-003
2.894628e+003, 5.677740e-003
2.896557e+003, 5.056078e-003
2.898485e+003, 4.911054e-003
2.900414e+003, 5.112408e-003
2.902342e+003, 5.468002e-003
2.904271e+003, 5.435973e-003
2.906199e+003, 5.652944e-003
2.908128e+003, 6.109080e-003
2.910056e+003, 5.600011e-003
2.911985e+003, 5.030311e-003
2.913913e+003, 4.690734e-003
2.915842e+003, 4.656408e-003
2.917770e+003, 5.139605e-003
2.919698e+003, 5.020424e-003
2.921627e+003, 4.935106e-003
2.923555e+003, 4.851429e-003
2.925484e+003, 4.442709e-003
2.927412e+003, 4.353269e-003
2.929341e+003, 4.754930e-003
2.931269e+003, 4.970701e-003
2.933198e+003, 4.963922e-003
2.935126e+003, 4.980464e-003
2.937055e+003, 5.129412e-003
2.938983e+003, 5.829701e-003
2.940912e+003, 6.103636e-003
2.942840e+003, 6.001535e-003
2.944769e+003, 5.865879e-003
2.946697e+003, 6.231509e-003
2.948625e+003, 6.394252e-003
2.950554e+003, 5.859627e-003
2.952482e+003, 6.006654e-003
2.954411e+003, 6.271432e-003
2.956339e+003, 6.536309e-003
2.958268e+003, 7.087179e-003
2.960196e+003, 7.579005e-003
2.962125e+003, 8.128048e-003
2.964053e+003, 7.827090e-003
2.965982e+003, 7.468573e-003
2.967910e+003, 7.303018e-003
2.969839e+003, 7.750299e-003
2.971767e+003, 8.098622e-003
2.973696e+003, 7.532102e-003
2.975624e+003, 7.544919e-003
2.977552e+003, 8.148044e-003
2.979481e+003, 8.094809e-003
2.981409e+003, 7.896380e-003
2.983338e+003, 7.534651e-003
2.985266e+003, 8.049713e-003
2.987195e+003, 8.113875e-003
2.989123e+003, 7.731580e-003
2.991052e+003, 7.798283e-003
2.992980e+003, 8.126197e-003
2.994909e+003, 8.542306e-003
2.996837e+003, 8.532614e-003
2.998766e+003, 8.232694e-003
3.000694e+003, 8.620960e-003
3.002623e+003, 8.885311e-003
3.004551e+003, 9.166190e-003
3.006479e+003, 9.603115e-003
3.008408e+003, 9.693328e-003
3.010336e+003, 9.416197e-003
3.012265e+003, 9.339396e-003
3.014193e+003, 9.537111e-003
3.016122e+003, 9.869012e-003
3.018050e+003, 1.013752e-002
3.019979e+003, 9.809648e-003
3.021907e+003, 1.001587e-002
3.023836e+003, 1.035598e-002
3.025764e+003, 1.081749e-002
3.027693e+003, 1.041145e-002
3.029621e+003, 1.016748e-002
3.031550e+003, 1.113394e-002
3.033478e+003, 1.117792e-002
3.035406e+003, 1.133251e-002
3.037335e+003, 1.236372e-002
3.039263e+003, 1.215832e-002
3.041192e+003, 1.185660e-002
3.043120e+003, 1.190014e-002
3.045049e+003, 1.196205e-002
3.046977e+003, 1.175468e-002
3.048906e+003, 1.193917e-002
3.050834e+003, 1.197773e-002
3.052763e+003, 1.217476e-002
3.054691e+003, 1.208940e-002
3.056620e+003, 1.190694e-002
3.058548e+003, 1.218843e-002
3.060477e+003, 1.247727e-002
3.062405e+003, 1.311921e-002
3.064333e+003, 1.320848e-002
3.066262e+003, 1.322695e-002
3.068190e+003, 1.329123e-002
3.070119e+003, 1.314917e-002
3.072047e+003, 1.273232e-002
3.073976e+003, 1.266463e-002
3.075904e+003, 1.291326e-002
3.077833e+003, 1.341551e-002
3.079761e+003, 1.376771e-002
3.081690e+003, 1.383586e-002
3.083618e+003, 1.365757e-002
3.085547e+003, 1.316992e-002
3.087475e+003, 1.346973e-002
3.089404e+003, 1.324655e-002
3.091332e+003, 1.326103e-002
3.093260e+003, 1.367647e-002
3.095189e+003, 1.456521e-002
3.097117e+003, 1.471693e-002
3.099046e+003, 1.469962e-002
3.100974e+003, 1.533695e-002
3.102903e+003, 1.570863e-002
3.104831e+003, 1.524064e-002
3.106760e+003, 1.551894e-002
3.108688e+003, 1.608436e-002
3.110617e+003, 1.612396e-002
3.112545e+003, 1.624814e-002
3.114474e+003, 1.686224e-002
3.116402e+003, 1.749858e-002
3.118331e+003, 1.807201e-002
3.120259e+003, 1.837638e-002
3.122188e+003, 1.770546e-002
3.124116e+003, 1.717357e-002
3.126044e+003, 1.736618e-002
3.127973e+003, 1.770068e-002
3.129901e+003, 1.847448e-002
3.131830e+003, 1.881905e-002
3.133758e+003, 1.850672e-002
3.135687e+003, 1.918927e-002
3.137615e+003, 1.998112e-002
3.139544e+003, 1.891403e-002
3.141472e+003, 1.842155e-002
3.143401e+003, 1.923881e-002
3.145329e+003, 2.015124e-002
3.147258e+003, 1.976879e-002
3.149186e+003, 1.960020e-002
3.151115e+003, 1.995509e-002
3.153043e+003, 2.047434e-002
3.154971e+003, 2.025577e-002
3.156900e+003, 1.993899e-002
3.158828e+003, 2.062197e-002
3.160757e+003, 2.076364e-002
3.162685e+003, 2.110168e-002
3.164614e+003, 2.221397e-002
3.166542e+003, 2.250200e-002
3.168471e+003, 2.237858e-002
3.170399e+003, 2.262594e-002
3.172328e+003, 2.340008e-002
3.174256e+003, 2.422982e-002
3.176185e+003, 2.400550e-002
3.178113e+003, 2.438423e-002
3.180042e+003, 2.553491e-002
3.181970e+003, 2.681914e-002
3.183898e+003, 2.742314e-002
3.185827e+003, 2.721247e-002
3.187755e+003, 2.793276e-002
3.189684e+003, 2.911192e-002
3.191612e+003, 2.988279e-002
3.193541e+003, 3.029965e-002
3.195469e+003, 3.131770e-002
3.197398e+003, 3.327545e-002
3.199326e+003, 3.510506e-002
3.201255e+003, 3.667225e-002
3.203183e+003, 3.832104e-002
3.205112e+003, 4.082360e-002
3.207040e+003, 4.262153e-002
3.208969e+003, 4.375916e-002
3.210897e+003, 4.588544e-002
3.212825e+003, 4.820882e-002
3.214754e+003, 5.034248e-002
3.216682e+003, 5.277548e-002
3.218611e+003, 5.472300e-002
3.220539e+003, 5.591369e-002
3.222468e+003, 5.806220e-002
3.224396e+003, 6.029264e-002
3.226325e+003, 6.081472e-002
3.228253e+003, 6.005324e-002
3.230182e+003, 5.962569e-002
3.232110e+003, 5.904583e-002
3.234039e+003, 5.750500e-002
3.235967e+003, 5.453047e-002
3.237896e+003, 5.131998e-002
3.239824e+003, 4.951543e-002
3.241752e+003, 4.818119e-002
3.243681e+003, 4.448806e-002
3.245609e+003, 4.118129e-002
3.247538e+003, 3.869463e-002
3.249466e+003, 3.658840e-002
3.251395e+003, 3.502444e-002
3.253323e+003, 3.279826e-002
3.255252e+003, 3.091295e-002
3.257180e+003, 2.929906e-002
3.259109e+003, 2.907466e-002
3.261037e+003, 2.895885e-002
3.262966e+003, 2.797062e-002
3.264894e+003, 2.665051e-002
3.266823e+003, 2.554089e-002
3.268751e+003, 2.526587e-002
3.270679e+003, 2.525198e-002
3.272608e+003, 2.540651e-002
3.274536e+003, 2.527767e-002
3.276465e+003, 2.446630e-002
3.278393e+003, 2.348755e-002
3.280322e+003, 2.284781e-002
3.282250e+003, 2.325561e-002
3.284179e+003, 2.350002e-002
3.286107e+003, 2.322638e-002
3.288036e+003, 2.393349e-002
3.289964e+003, 2.466869e-002
3.291893e+003, 2.534071e-002
3.293821e+003, 2.660230e-002
3.295750e+003, 2.796187e-002
3.297678e+003, 2.848317e-002
3.299606e+003, 2.870182e-002
3.301535e+003, 2.989909e-002
3.303463e+003, 3.162700e-002
3.305392e+003, 3.220337e-002
3.307320e+003, 3.322454e-002
3.309249e+003, 3.379466e-002
3.311177e+003, 3.379750e-002
3.313106e+003, 3.404524e-002
3.315034e+003, 3.543425e-002
3.316963e+003, 3.704548e-002
3.318891e+003, 3.780197e-002
3.320820e+003, 3.759906e-002
3.322748e+003, 3.719154e-002
3.324677e+003, 3.770243e-002
3.326605e+003, 3.800718e-002
3.328533e+003, 3.681614e-002
3.330462e+003, 3.560673e-002
3.332390e+003, 3.575467e-002
3.334319e+003, 3.551584e-002
3.336247e+003, 3.412934e-002
3.338176e+003, 3.217951e-002
3.340104e+003, 3.187428e-002
3.342033e+003, 3.215894e-002
3.343961e+003, 3.163544e-002
3.345890e+003, 3.135482e-002
3.347818e+003, 3.053392e-002
3.349747e+003, 3.010714e-002
3.351675e+003, 3.007182e-002
3.353604e+003, 3.024828e-002
3.355532e+003, 2.987712e-002
3.357460e+003, 2.966197e-002
3.359389e+003, 2.953447e-002
3.361317e+003, 2.903936e-002
3.363246e+003, 2.875420e-002
3.365174e+003, 2.908326e-002
3.367103e+003, 2.977938e-002
3.369031e+003, 2.987720e-002
3.370960e+003, 3.047720e-002
3.372888e+003, 3.184952e-002
3.374817e+003, 3.181025e-002
3.376745e+003, 3.335987e-002
3.378674e+003, 3.536244e-002
3.380602e+003, 3.518371e-002
3.382531e+003, 3.575582e-002
3.384459e+003, 3.696210e-002
3.386387e+003, 3.884750e-002
3.388316e+003, 4.042340e-002
3.390244e+003, 4.220761e-002
3.392173e+003, 4.350521e-002
3.394101e+003, 4.445722e-002
3.396030e+003, 4.542147e-002
3.397958e+003, 4.708931e-002
3.399887e+003, 4.879832e-002
3.401815e+003, 4.935301e-002
3.403744e+003, 5.043657e-002
3.405672e+003, 5.125075e-002
3.407601e+003, 5.011037e-002
3.409529e+003, 4.831244e-002
3.411458e+003, 4.721018e-002
3.413386e+003, 4.611283e-002
3.415314e+003, 4.492144e-002
3.417243e+003, 4.292059e-002
3.419171e+003, 4.161116e-002
3.421100e+003, 4.119310e-002
3.423028e+003, 3.999033e-002
3.424957e+003, 3.855650e-002
3.426885e+003, 3.668242e-002
3.428814e+003, 3.577324e-002
3.430742e+003, 3.424633e-002
3.432671e+003, 3.270225e-002
3.434599e+003, 3.335064e-002
3.436528e+003, 3.287294e-002
3.438456e+003, 3.090954e-002
3.440385e+003, 2.926247e-002
3.442313e+003, 2.795247e-002
3.444241e+003, 2.716213e-002
3.446170e+003, 2.633528e-002
3.448098e+003, 2.545133e-002
3.450027e+003, 2.580136e-002
3.451955e+003, 2.669071e-002
3.453884e+003, 2.650281e-002
3.455812e+003, 2.560239e-002
3.457741e+003, 2.617710e-002
3.459669e+003, 2.625002e-002
3.461598e+003, 2.546127e-002
3.463526e+003, 2.550889e-002
3.465455e+003, 2.538992e-002
3.467383e+003, 2.569848e-002
3.469312e+003, 2.651615e-002
3.471240e+003, 2.703219e-002
3.473168e+003, 2.720327e-002
3.475097e+003, 2.767110e-002
3.477025e+003, 2.834715e-002
3.478954e+003, 3.028433e-002
3.480882e+003, 3.208338e-002
3.482811e+003, 3.245747e-002
3.484739e+003, 3.344395e-002
3.486668e+003, 3.507747e-002
3.488596e+003, 3.696434e-002
3.490525e+003, 3.904893e-002
3.492453e+003, 4.047642e-002
3.494382e+003, 4.258284e-002
3.496310e+003, 4.541397e-002
3.498239e+003, 4.701022e-002
3.500167e+003, 4.851611e-002
3.502095e+003, 4.965799e-002
3.504024e+003, 4.941740e-002
3.505952e+003, 4.769236e-002
3.507881e+003, 4.605150e-002
3.509809e+003, 4.471606e-002
3.511738e+003, 4.230540e-002
3.513666e+003, 4.005614e-002
3.515595e+003, 3.792646e-002
3.517523e+003, 3.618519e-002
3.519452e+003, 3.417257e-002
3.521380e+003, 3.074047e-002
3.523309e+003, 2.871326e-002
3.525237e+003, 2.762496e-002
3.527166e+003, 2.522689e-002
3.529094e+003, 2.313544e-002
3.531022e+003, 2.241692e-002
3.532951e+003, 2.273402e-002
3.534879e+003, 2.309943e-002
3.536808e+003, 2.225479e-002
3.538736e+003, 2.046789e-002
3.540665e+003, 1.926403e-002
3.542593e+003, 1.922596e-002
3.544522e+003, 1.941745e-002
3.546450e+003, 1.867083e-002
3.548379e+003, 1.869680e-002
3.550307e+003, 1.937150e-002
3.552236e+003, 1.959031e-002
3.554164e+003, 1.986086e-002
3.556093e+003, 2.056612e-002
3.558021e+003, 2.230158e-002
3.559949e+003, 2.343241e-002
3.561878e+003, 2.493943e-002
3.563806e+003, 2.695433e-002
3.565735e+003, 2.886424e-002
3.567663e+003, 3.022677e-002
3.569592e+003, 3.153351e-002
3.571520e+003, 3.426467e-002
3.573449e+003, 3.559659e-002
3.575377e+003, 3.649877e-002
3.577306e+003, 3.919622e-002
3.579234e+003, 3.895608e-002
3.581163e+003, 3.718985e-002
3.583091e+003, 3.653998e-002
3.585020e+003, 3.552851e-002
3.586948e+003, 3.382880e-002
3.588876e+003, 3.120749e-002
3.590805e+003, 2.983406e-002
3.592733e+003, 2.814407e-002
3.594662e+003, 2.453985e-002
3.596590e+003, 2.284286e-002
3.598519e+003, 2.142224e-002
3.600447e+003, 1.850559e-002
3.602376e+003, 1.639107e-002
3.604304e+003, 1.333725e-002
3.606233e+003, 1.201337e-002
3.608161e+003, 1.108009e-002
3.610090e+003, 1.028126e-002
3.612018e+003, 1.027855e-002
3.613947e+003, 9.464272e-003
3.615875e+003, 9.097449e-003
3.617803e+003, 8.141631e-003
3.619732e+003, 6.283969e-003
3.621660e+003, 5.599346e-003
3.623589e+003, 5.825764e-003
3.625517e+003, 5.845935e-003
3.627446e+003, 4.139485e-003
3.629374e+003, 3.575531e-003
3.631303e+003, 4.067569e-003
3.633231e+003, 4.665936e-003
3.635160e+003, 4.532792e-003
3.637088e+003, 3.191330e-003
3.639017e+003, 2.461044e-003
3.640945e+003, 1.262901e-003
3.642874e+003, 3.639443e-004
3.644802e+003, 1.409178e-003
3.646730e+003, 1.552543e-003
3.648659e+003, 4.339920e-004
3.650587e+003, 4.151787e-004
3.652516e+003, 4.600891e-004
3.654444e+003, 4.385032e-004
3.656373e+003, 2.630918e-005
3.658301e+003, -1.468090e-003
3.660230e+003, -3.097855e-003
3.662158e+003, -3.423768e-003
3.664087e+003, -2.222427e-003
3.666015e+003, -1.225208e-003
3.667944e+003, -1.783112e-003
3.669872e+003, -2.163908e-003
3.671801e+003, -1.714730e-003
3.673729e+003, -3.116576e-003
3.675657e+003, -2.480934e-003
3.677586e+003, -2.174221e-003
3.679514e+003, -2.143302e-003
3.681443e+003, -1.057321e-003
3.683371e+003, -6.502433e-004
3.685300e+003, -1.764740e-003
3.687228e+003, -2.620201e-003
3.689157e+003, -5.146765e-004
3.691085e+003, -5.208371e-004
3.693014e+003, -2.410751e-003
3.694942e+003, -3.776497e-003
3.696871e+003, -2.440420e-003
3.698799e+003, -2.295656e-004
3.700728e+003, -8.983915e-004
3.702656e+003, -2.315907e-003
3.704584e+003, -3.501458e-003
3.706513e+003, -4.058435e-003
3.708441e+003, -2.905259e-003
3.710370e+003, -1.856189e-003
3.712298e+003, -2.868586e-003
3.714227e+003, -2.684645e-003
3.716155e+003, -1.938559e-003
3.718084e+003, -2.311239e-003
3.720012e+003, -2.341258e-003
3.721941e+003, -1.178808e-003
3.723869e+003, -8.061404e-004
3.725798e+003, -2.091978e-003
3.727726e+003, -1.907265e-003
3.729655e+003, -1.639658e-003
3.731583e+003, -1.312131e-003
3.733511e+003, -1.160673e-003
3.735440e+003, -2.826281e-003
3.737368e+003, -3.738190e-003
3.739297e+003, -3.278301e-003
3.741225e+003, -2.106537e-003
3.743154e+003, -3.099643e-003
3.745082e+003, -3.432193e-003
3.747011e+003, -3.322463e-003
3.748939e+003, -3.245970e-003
3.750868e+003, -2.996350e-003
3.752796e+003, -2.139436e-003
3.754725e+003, -2.171608e-003
3.756653e+003, -3.101358e-003
3.758582e+003, -3.029882e-003
3.760510e+003, -3.306354e-003
3.762438e+003, -2.360527e-003
3.764367e+003, -1.971038e-003
3.766295e+003, -1.464438e-003
3.768224e+003, -1.475044e-003
3.770152e+003, -3.053629e-003
3.772081e+003, -4.599198e-003
3.774009e+003, -3.907906e-003
3.775938e+003, -2.157367e-003
3.777866e+003, -6.563729e-004
3.779795e+003, -1.416265e-003
3.781723e+003, -3.167616e-003
3.783652e+003, -3.584780e-003
3.785580e+003, -2.863621e-003
3.787509e+003, -2.197966e-003
3.789437e+003, -2.587517e-003
3.791365e+003, -1.946107e-003
3.793294e+003, -1.361565e-003
3.795222e+003, -1.476943e-003
3.797151e+003, -1.596918e-003
3.799079e+003, -2.441085e-003
3.801008e+003, -2.222106e-003
3.802936e+003, -2.667065e-003
3.804865e+003, -3.051377e-003
3.806793e+003, -1.978338e-003
3.808722e+003, -8.689986e-004
3.810650e+003, -6.155362e-004
3.812579e+003, -1.380065e-004
3.814507e+003, -8.818817e-004
3.816436e+003, -1.986429e-003
3.818364e+003, -1.801630e-003
3.820292e+003, -2.102958e-003
3.822221e+003, -2.430468e-003
3.824149e+003, -1.587091e-003
3.826078e+003, -1.093944e-003
3.828006e+003, -1.871833e-003
3.829935e+003, -2.472145e-003
3.831863e+003, -1.849568e-003
3.833792e+003, -2.075371e-003
3.835720e+003, -2.971247e-003
3.837649e+003, -2.870265e-003
3.839577e+003, -2.064759e-003
3.841506e+003, -1.242007e-003
3.843434e+003, -2.536596e-003
3.845363e+003, -2.896611e-003
3.847291e+003, -2.788488e-003
3.849219e+003, -3.240708e-003
3.851148e+003, -4.002123e-003
3.853076e+003, -3.960646e-003
3.855005e+003, -3.114988e-003
3.856933e+003, -2.373724e-003
3.858862e+003, -1.365900e-003
3.860790e+003, -2.451889e-003
3.862719e+003, -4.406420e-003
3.864647e+003, -3.701177e-003
3.866576e+003, -2.569768e-003
3.868504e+003, -3.513648e-003
3.870433e+003, -3.197004e-003
3.872361e+003, -2.296313e-003
3.874290e+003, -1.788393e-003
3.876218e+003, -1.848634e-003
3.878146e+003, -2.612912e-003
3.880075e+003, -2.639838e-003
3.882003e+003, -2.327581e-003
3.883932e+003, -2.711122e-003
3.885860e+003, -3.052946e-003
3.887789e+003, -2.616997e-003
3.889717e+003, -2.228659e-003
3.891646e+003, -1.451674e-003
3.893574e+003, -2.026542e-003
3.895503e+003, -2.099291e-003
3.897431e+003, -1.637007e-003
3.899360e+003, -1.816017e-003
3.901288e+003, -1.397845e-003
3.903217e+003, -2.429319e-003
3.905145e+003, -3.325284e-003
3.907073e+003, -2.370485e-003
3.909002e+003, -1.397417e-003
3.910930e+003, -4.402681e-004
3.912859e+003, -1.346794e-003
3.914787e+003, -2.130367e-003
3.916716e+003, -3.161555e-003
3.918644e+003, -3.245228e-003
3.920573e+003, -3.897892e-003
3.922501e+003, -4.409923e-003
3.924430e+003, -2.901555e-003
3.926358e+003, -3.587333e-003
3.928287e+003, -3.795781e-003
3.930215e+003, -2.169444e-003
3.932144e+003, -2.599781e-003
3.934072e+003, -1.489385e-003
3.936000e+003, -1.505705e-004
3.937929e+003, -1.731812e-003
3.939857e+003, -2.175400e-003
3.941786e+003, -1.192750e-003
3.943714e+003, -1.946635e-003
3.945643e+003, -2.584913e-003
3.947571e+003, -2.653437e-003
3.949500e+003, -2.528635e-003
3.951428e+003, -3.522279e-003
3.953357e+003, -3.381727e-003
3.955285e+003, -2.559094e-003
3.957214e+003, -3.296511e-003
3.959142e+003, -4.513017e-003
3.961071e+003, -4.842314e-003
3.962999e+003, -3.686256e-003
3.964927e+003, -2.138587e-003
3.966856e+003, -6.694297e-004
3.968784e+003, -1.423136e-003
3.970713e+003, -2.207869e-003
3.972641e+003, -1.027498e-003
3.974570e+003, -4.471208e-004
3.976498e+003, -1.240838e-003
3.978427e+003, -2.979748e-003
3.980355e+003, -3.385865e-003
3.982284e+003, -7.372416e-004
3.984212e+003, 2.727399e-004
3.986141e+003, -1.839851e-003
3.988069e+003, -3.855532e-003
3.989998e+003, -3.926928e-003
3.991926e+003, -3.319674e-003
3.993854e+003, -2.465565e-003
3.995783e+003, -1.036168e-003
3.997711e+003, 4.053740e-004
3.999640e+003, 4.048120e-004
##END=



