##NAMES=Scolecite
##RRUFFID=R040111
##IDEAL CHEMISTRY=Ca(Si_3_Al_2_)O_10_&#183;3H_2_O
##LOCALITY=Bombay-Poona area, Mahahashtra Province, India
##OWNER=RRUFF
##SOURCE=National Museums of Canada
##DESCRIPTION=Pale pink prismatic crystals in parallel or near parallel aggregates
##STATUS=The identification of this mineral has been confirmed by X-ray diffraction and chemical analysis
##URL=rruff.info/R040111
##MEASURED CHEMISTRY=Ca_0.98_(Si_3.05_Al_1.95_)O_10_Â·3H_2_O
3.991926e+002, 0.000000e+000
4.011211e+002, 1.812695e-001
4.030496e+002, 1.819861e-001
4.049780e+002, 1.817852e-001
4.069065e+002, 1.866954e-001
4.088350e+002, 1.892746e-001
4.107634e+002, 1.920565e-001
4.126919e+002, 1.929782e-001
4.146204e+002, 1.929578e-001
4.165488e+002, 1.962972e-001
4.184773e+002, 1.998552e-001
4.204058e+002, 2.009823e-001
4.223342e+002, 2.064313e-001
4.242627e+002, 2.137051e-001
4.261912e+002, 2.087061e-001
4.281196e+002, 1.927896e-001
4.300481e+002, 1.771834e-001
4.319766e+002, 1.653960e-001
4.339050e+002, 1.576486e-001
4.358335e+002, 1.509129e-001
4.377620e+002, 1.428656e-001
4.396904e+002, 1.357135e-001
4.416189e+002, 1.319194e-001
4.435474e+002, 1.281151e-001
4.454758e+002, 1.233854e-001
4.474043e+002, 1.188064e-001
4.493328e+002, 1.157336e-001
4.512612e+002, 1.127113e-001
4.531897e+002, 1.085889e-001
4.551182e+002, 1.052846e-001
4.570466e+002, 1.035154e-001
4.589751e+002, 1.021344e-001
4.609036e+002, 1.006531e-001
4.628320e+002, 9.979204e-002
4.647605e+002, 1.002356e-001
4.666890e+002, 1.009233e-001
4.686174e+002, 1.029901e-001
4.705459e+002, 1.064046e-001
4.724744e+002, 1.113138e-001
4.744028e+002, 1.161317e-001
4.763313e+002, 1.209628e-001
4.782598e+002, 1.265375e-001
4.801882e+002, 1.313830e-001
4.821167e+002, 1.351689e-001
4.840452e+002, 1.385150e-001
4.859736e+002, 1.402110e-001
4.879021e+002, 1.406737e-001
4.898306e+002, 1.399358e-001
4.917590e+002, 1.389650e-001
4.936875e+002, 1.379070e-001
4.956160e+002, 1.356917e-001
4.975444e+002, 1.325429e-001
4.994729e+002, 1.292605e-001
5.014014e+002, 1.265204e-001
5.033298e+002, 1.235007e-001
5.052583e+002, 1.203412e-001
5.071868e+002, 1.177844e-001
5.091152e+002, 1.149145e-001
5.110437e+002, 1.121644e-001
5.129722e+002, 1.098371e-001
5.149006e+002, 1.077958e-001
5.168291e+002, 1.058635e-001
5.187576e+002, 1.038443e-001
5.206860e+002, 1.021101e-001
5.226145e+002, 1.002912e-001
5.245430e+002, 9.856177e-002
5.264714e+002, 9.645282e-002
5.283999e+002, 9.419932e-002
5.303284e+002, 9.202589e-002
5.322568e+002, 9.001605e-002
5.341853e+002, 8.871991e-002
5.361138e+002, 8.766609e-002
5.380422e+002, 8.650481e-002
5.399707e+002, 8.469439e-002
5.418992e+002, 8.255626e-002
5.438276e+002, 8.148324e-002
5.457561e+002, 8.106612e-002
5.476846e+002, 8.061086e-002
5.496130e+002, 8.044110e-002
5.515415e+002, 8.083135e-002
5.534700e+002, 8.210725e-002
5.553984e+002, 8.411904e-002
5.573269e+002, 8.668544e-002
5.592554e+002, 8.925223e-002
5.611838e+002, 9.151303e-002
5.631123e+002, 9.343805e-002
5.650408e+002, 9.575662e-002
5.669692e+002, 9.815133e-002
5.688977e+002, 1.002866e-001
5.708262e+002, 1.026465e-001
5.727546e+002, 1.043880e-001
5.746831e+002, 1.055300e-001
5.766116e+002, 1.072322e-001
5.785400e+002, 1.087926e-001
5.804685e+002, 1.100051e-001
5.823970e+002, 1.118261e-001
5.843254e+002, 1.140585e-001
5.862539e+002, 1.163447e-001
5.881824e+002, 1.184925e-001
5.901108e+002, 1.203957e-001
5.920393e+002, 1.222421e-001
5.939678e+002, 1.245444e-001
5.958962e+002, 1.263593e-001
5.978247e+002, 1.275710e-001
5.997532e+002, 1.279960e-001
6.016816e+002, 1.269535e-001
6.036101e+002, 1.258123e-001
6.055386e+002, 1.250141e-001
6.074670e+002, 1.241174e-001
6.093955e+002, 1.240121e-001
6.113240e+002, 1.253962e-001
6.132524e+002, 1.275043e-001
6.151809e+002, 1.296217e-001
6.171094e+002, 1.323535e-001
6.190378e+002, 1.354329e-001
6.209663e+002, 1.377104e-001
6.228948e+002, 1.397586e-001
6.248232e+002, 1.412114e-001
6.267517e+002, 1.404154e-001
6.286802e+002, 1.379115e-001
6.306086e+002, 1.344687e-001
6.325371e+002, 1.305081e-001
6.344656e+002, 1.257171e-001
6.363940e+002, 1.206389e-001
6.383225e+002, 1.151701e-001
6.402510e+002, 1.098252e-001
6.421794e+002, 1.044600e-001
6.441079e+002, 9.958318e-002
6.460364e+002, 9.541087e-002
6.479648e+002, 9.209514e-002
6.498933e+002, 8.946042e-002
6.518218e+002, 8.796699e-002
6.537502e+002, 8.713461e-002
6.556787e+002, 8.679812e-002
6.576072e+002, 8.734914e-002
6.595356e+002, 8.849196e-002
6.614641e+002, 9.060915e-002
6.633926e+002, 9.321882e-002
6.653210e+002, 9.565567e-002
6.672495e+002, 9.790321e-002
6.691780e+002, 9.931223e-002
6.711064e+002, 1.000505e-001
6.730349e+002, 9.989002e-002
6.749634e+002, 9.887914e-002
6.768918e+002, 9.776183e-002
6.788203e+002, 9.742541e-002
6.807488e+002, 9.824526e-002
6.826772e+002, 1.008338e-001
6.846057e+002, 1.048396e-001
6.865342e+002, 1.092506e-001
6.884626e+002, 1.127078e-001
6.903911e+002, 1.136594e-001
6.923196e+002, 1.109742e-001
6.942480e+002, 1.050452e-001
6.961765e+002, 9.730224e-002
6.981050e+002, 9.017642e-002
7.000334e+002, 8.472161e-002
7.019619e+002, 8.071049e-002
7.038904e+002, 7.847270e-002
7.058188e+002, 7.804193e-002
7.077473e+002, 7.885329e-002
7.096758e+002, 8.120231e-002
7.116042e+002, 8.473038e-002
7.135327e+002, 8.804084e-002
7.154612e+002, 9.070494e-002
7.173896e+002, 9.254315e-002
7.193181e+002, 9.299980e-002
7.212466e+002, 9.161022e-002
7.231750e+002, 8.779921e-002
7.251035e+002, 8.202278e-002
7.270320e+002, 7.501227e-002
7.289604e+002, 6.817338e-002
7.308889e+002, 6.189849e-002
7.328174e+002, 5.561303e-002
7.347458e+002, 4.922407e-002
7.366743e+002, 4.316426e-002
7.386028e+002, 3.782492e-002
7.405313e+002, 3.384259e-002
7.424597e+002, 3.112723e-002
7.443882e+002, 2.869963e-002
7.463167e+002, 2.704844e-002
7.482451e+002, 2.620441e-002
7.501736e+002, 2.534242e-002
7.521021e+002, 2.475137e-002
7.540305e+002, 2.440282e-002
7.559590e+002, 2.410470e-002
7.578875e+002, 2.382493e-002
7.598159e+002, 2.343330e-002
7.617444e+002, 2.321436e-002
7.636729e+002, 2.307057e-002
7.656013e+002, 2.300808e-002
7.675298e+002, 2.285806e-002
7.694583e+002, 2.236036e-002
7.713867e+002, 2.200457e-002
7.733152e+002, 2.180075e-002
7.752437e+002, 2.148980e-002
7.771721e+002, 2.139976e-002
7.791006e+002, 2.143051e-002
7.810291e+002, 2.129399e-002
7.829575e+002, 2.135948e-002
7.848860e+002, 2.135719e-002
7.868145e+002, 2.115210e-002
7.887429e+002, 2.097039e-002
7.906714e+002, 2.111157e-002
7.925999e+002, 2.128395e-002
7.945283e+002, 2.128707e-002
7.964568e+002, 2.109754e-002
7.983853e+002, 2.138918e-002
8.003137e+002, 2.172785e-002
8.022422e+002, 2.157703e-002
8.041707e+002, 2.142001e-002
8.060991e+002, 2.176062e-002
8.080276e+002, 2.203451e-002
8.099561e+002, 2.223626e-002
8.118845e+002, 2.246387e-002
8.138130e+002, 2.271226e-002
8.157415e+002, 2.302724e-002
8.176699e+002, 2.351959e-002
8.195984e+002, 2.384896e-002
8.215269e+002, 2.434906e-002
8.234553e+002, 2.474797e-002
8.253838e+002, 2.531581e-002
8.273123e+002, 2.594498e-002
8.292407e+002, 2.650181e-002
8.311692e+002, 2.714692e-002
8.330977e+002, 2.778046e-002
8.350261e+002, 2.842384e-002
8.369546e+002, 2.921952e-002
8.388831e+002, 2.996367e-002
8.408115e+002, 3.090553e-002
8.427400e+002, 3.185696e-002
8.446685e+002, 3.285823e-002
8.465969e+002, 3.405215e-002
8.485254e+002, 3.528209e-002
8.504539e+002, 3.650513e-002
8.523823e+002, 3.766027e-002
8.543108e+002, 3.894389e-002
8.562393e+002, 4.029590e-002
8.581677e+002, 4.140271e-002
8.600962e+002, 4.292401e-002
8.620247e+002, 4.452431e-002
8.639531e+002, 4.622668e-002
8.658816e+002, 4.811145e-002
8.678101e+002, 5.009021e-002
8.697385e+002, 5.214074e-002
8.716670e+002, 5.447011e-002
8.735955e+002, 5.708875e-002
8.755239e+002, 5.993901e-002
8.774524e+002, 6.295652e-002
8.793809e+002, 6.611247e-002
8.813093e+002, 6.935827e-002
8.832378e+002, 7.310309e-002
8.851663e+002, 7.722276e-002
8.870947e+002, 8.165246e-002
8.890232e+002, 8.623065e-002
8.909517e+002, 9.114552e-002
8.928801e+002, 9.632261e-002
8.948085e+002, 1.018332e-001
8.967370e+002, 1.078390e-001
8.986655e+002, 1.144674e-001
9.005939e+002, 1.218082e-001
9.025224e+002, 1.300814e-001
9.044509e+002, 1.390216e-001
9.063793e+002, 1.493670e-001
9.083078e+002, 1.608516e-001
9.102363e+002, 1.734848e-001
9.121647e+002, 1.872251e-001
9.140932e+002, 2.021233e-001
9.160217e+002, 2.184124e-001
9.179501e+002, 2.356237e-001
9.198786e+002, 2.533661e-001
9.218071e+002, 2.707576e-001
9.237355e+002, 2.863536e-001
9.256640e+002, 2.986457e-001
9.275925e+002, 3.065763e-001
9.295209e+002, 3.084458e-001
9.314494e+002, 3.024148e-001
9.333779e+002, 2.885493e-001
9.353063e+002, 2.695437e-001
9.372348e+002, 2.504826e-001
9.391633e+002, 2.372096e-001
9.410917e+002, 2.341092e-001
9.430202e+002, 2.412058e-001
9.449487e+002, 2.543888e-001
9.468771e+002, 2.684534e-001
9.488056e+002, 2.785984e-001
9.507341e+002, 2.817850e-001
9.526625e+002, 2.790369e-001
9.545910e+002, 2.731049e-001
9.565195e+002, 2.657008e-001
9.584479e+002, 2.570396e-001
9.603764e+002, 2.482941e-001
9.623049e+002, 2.409737e-001
9.642333e+002, 2.353270e-001
9.661618e+002, 2.317585e-001
9.680903e+002, 2.311726e-001
9.700187e+002, 2.340684e-001
9.719472e+002, 2.419635e-001
9.738757e+002, 2.562668e-001
9.758041e+002, 2.758675e-001
9.777326e+002, 2.983681e-001
9.796611e+002, 3.213926e-001
9.815895e+002, 3.412110e-001
9.835180e+002, 3.522618e-001
9.854465e+002, 3.513343e-001
9.873749e+002, 3.376020e-001
9.893034e+002, 3.145785e-001
9.912319e+002, 2.882854e-001
9.931603e+002, 2.628514e-001
9.950888e+002, 2.402390e-001
9.970173e+002, 2.225472e-001
9.989457e+002, 2.126722e-001
1.000874e+003, 2.126102e-001
1.002803e+003, 2.214864e-001
1.004731e+003, 2.335507e-001
1.006660e+003, 2.435867e-001
1.008588e+003, 2.500703e-001
1.010517e+003, 2.536228e-001
1.012445e+003, 2.555139e-001
1.014373e+003, 2.560104e-001
1.016302e+003, 2.544577e-001
1.018230e+003, 2.506095e-001
1.020159e+003, 2.439293e-001
1.022087e+003, 2.346486e-001
1.024016e+003, 2.243513e-001
1.025944e+003, 2.145905e-001
1.027873e+003, 2.064942e-001
1.029801e+003, 1.998752e-001
1.031730e+003, 1.934432e-001
1.033658e+003, 1.851741e-001
1.035587e+003, 1.742785e-001
1.037515e+003, 1.630802e-001
1.039444e+003, 1.546005e-001
1.041372e+003, 1.500127e-001
1.043301e+003, 1.489924e-001
1.045229e+003, 1.493012e-001
1.047157e+003, 1.479168e-001
1.049086e+003, 1.427645e-001
1.051014e+003, 1.343890e-001
1.052943e+003, 1.252428e-001
1.054871e+003, 1.171073e-001
1.056800e+003, 1.109063e-001
1.058728e+003, 1.073360e-001
1.060657e+003, 1.064670e-001
1.062585e+003, 1.075211e-001
1.064514e+003, 1.090666e-001
1.066442e+003, 1.094297e-001
1.068371e+003, 1.076671e-001
1.070299e+003, 1.034434e-001
1.072228e+003, 9.788305e-002
1.074156e+003, 9.203503e-002
1.076084e+003, 8.660574e-002
1.078013e+003, 8.237025e-002
1.079941e+003, 7.970123e-002
1.081870e+003, 7.883755e-002
1.083798e+003, 8.010468e-002
1.085727e+003, 8.329959e-002
1.087655e+003, 8.863392e-002
1.089584e+003, 9.595006e-002
1.091512e+003, 1.044864e-001
1.093441e+003, 1.129163e-001
1.095369e+003, 1.198907e-001
1.097298e+003, 1.244636e-001
1.099226e+003, 1.264108e-001
1.101155e+003, 1.258637e-001
1.103083e+003, 1.232849e-001
1.105011e+003, 1.194380e-001
1.106940e+003, 1.142871e-001
1.108868e+003, 1.078159e-001
1.110797e+003, 1.007350e-001
1.112725e+003, 9.354986e-002
1.114654e+003, 8.608964e-002
1.116582e+003, 7.833528e-002
1.118511e+003, 7.084663e-002
1.120439e+003, 6.411044e-002
1.122368e+003, 5.831205e-002
1.124296e+003, 5.320606e-002
1.126225e+003, 4.859719e-002
1.128153e+003, 4.467043e-002
1.130082e+003, 4.121013e-002
1.132010e+003, 3.804084e-002
1.133938e+003, 3.515394e-002
1.135867e+003, 3.286389e-002
1.137795e+003, 3.094950e-002
1.139724e+003, 2.900259e-002
1.141652e+003, 2.719647e-002
1.143581e+003, 2.575827e-002
1.145509e+003, 2.460704e-002
1.147438e+003, 2.341014e-002
1.149366e+003, 2.238404e-002
1.151295e+003, 2.169244e-002
1.153223e+003, 2.108519e-002
1.155152e+003, 2.034362e-002
1.157080e+003, 1.964775e-002
1.159009e+003, 1.912020e-002
1.160937e+003, 1.851316e-002
1.162865e+003, 1.812318e-002
1.164794e+003, 1.770977e-002
1.166722e+003, 1.723313e-002
1.168651e+003, 1.682104e-002
1.170579e+003, 1.633493e-002
1.172508e+003, 1.580826e-002
1.174436e+003, 1.532889e-002
1.176365e+003, 1.481565e-002
1.178293e+003, 1.436715e-002
1.180222e+003, 1.395166e-002
1.182150e+003, 1.353132e-002
1.184079e+003, 1.327211e-002
1.186007e+003, 1.294386e-002
1.187936e+003, 1.263577e-002
1.189864e+003, 1.237426e-002
1.191792e+003, 1.197170e-002
1.193721e+003, 1.152921e-002
1.195649e+003, 1.114579e-002
1.197578e+003, 1.079123e-002
1.199506e+003, 1.052484e-002
1.201435e+003, 1.017171e-002
1.203363e+003, 9.854467e-003
1.205292e+003, 9.685896e-003
1.207220e+003, 9.498511e-003
1.209149e+003, 9.227083e-003
1.211077e+003, 8.842249e-003
1.213006e+003, 8.620990e-003
1.214934e+003, 8.514527e-003
1.216863e+003, 8.238791e-003
1.218791e+003, 7.994108e-003
1.220719e+003, 7.660334e-003
1.222648e+003, 7.369316e-003
1.224576e+003, 7.281302e-003
1.226505e+003, 7.194766e-003
1.228433e+003, 6.944860e-003
1.230362e+003, 6.714780e-003
1.232290e+003, 6.449916e-003
1.234219e+003, 6.368916e-003
1.236147e+003, 6.487934e-003
1.238076e+003, 6.416679e-003
1.240004e+003, 6.147535e-003
1.241933e+003, 5.836148e-003
1.243861e+003, 5.669004e-003
1.245790e+003, 5.714437e-003
1.247718e+003, 5.599164e-003
1.249646e+003, 5.429692e-003
1.251575e+003, 5.466431e-003
1.253503e+003, 5.480129e-003
1.255432e+003, 5.359193e-003
1.257360e+003, 5.204246e-003
1.259289e+003, 5.001089e-003
1.261217e+003, 4.881024e-003
1.263146e+003, 4.790364e-003
1.265074e+003, 4.882244e-003
1.267003e+003, 4.909659e-003
1.268931e+003, 4.847664e-003
1.270860e+003, 4.789184e-003
1.272788e+003, 4.758730e-003
1.274717e+003, 4.710447e-003
1.276645e+003, 4.761539e-003
1.278573e+003, 4.682819e-003
1.280502e+003, 4.666458e-003
1.282430e+003, 4.659691e-003
1.284359e+003, 4.513615e-003
1.286287e+003, 4.344076e-003
1.288216e+003, 4.280649e-003
1.290144e+003, 4.065990e-003
1.292073e+003, 4.300526e-003
1.294001e+003, 4.520684e-003
1.295930e+003, 4.438054e-003
1.297858e+003, 4.442396e-003
1.299787e+003, 4.398664e-003
1.301715e+003, 4.351244e-003
1.303644e+003, 4.328864e-003
1.305572e+003, 4.111740e-003
1.307500e+003, 3.979701e-003
1.309429e+003, 4.028346e-003
1.311357e+003, 4.087085e-003
1.313286e+003, 4.233491e-003
1.315214e+003, 4.230027e-003
1.317143e+003, 4.013977e-003
1.319071e+003, 3.720415e-003
1.321000e+003, 3.548677e-003
1.322928e+003, 3.623500e-003
1.324857e+003, 3.749168e-003
1.326785e+003, 3.874938e-003
1.328714e+003, 3.943068e-003
1.330642e+003, 3.912918e-003
1.332571e+003, 3.754859e-003
1.334499e+003, 3.773131e-003
1.336427e+003, 3.883391e-003
1.338356e+003, 3.832595e-003
1.340284e+003, 4.031316e-003
1.342213e+003, 4.123173e-003
1.344141e+003, 4.159491e-003
1.346070e+003, 4.121349e-003
1.347998e+003, 4.029377e-003
1.349927e+003, 4.047150e-003
1.351855e+003, 4.070770e-003
1.353784e+003, 4.146431e-003
1.355712e+003, 4.264351e-003
1.357641e+003, 4.224197e-003
1.359569e+003, 4.006855e-003
1.361498e+003, 4.109030e-003
1.363426e+003, 4.275317e-003
1.365354e+003, 4.261679e-003
1.367283e+003, 4.009427e-003
1.369211e+003, 3.988973e-003
1.371140e+003, 3.969025e-003
1.373068e+003, 4.022007e-003
1.374997e+003, 4.221821e-003
1.376925e+003, 4.004532e-003
1.378854e+003, 3.883999e-003
1.380782e+003, 3.959859e-003
1.382711e+003, 4.069972e-003
1.384639e+003, 4.140924e-003
1.386568e+003, 4.036014e-003
1.388496e+003, 4.446044e-003
1.390424e+003, 4.252125e-003
1.392353e+003, 4.146071e-003
1.394281e+003, 4.208348e-003
1.396210e+003, 4.535865e-003
1.398138e+003, 4.237418e-003
1.400067e+003, 4.605512e-003
1.401995e+003, 4.512845e-003
1.403924e+003, 4.434803e-003
1.405852e+003, 4.825245e-003
1.407781e+003, 4.780845e-003
1.409709e+003, 4.688394e-003
1.411638e+003, 4.705637e-003
1.413566e+003, 4.689037e-003
1.415495e+003, 4.705282e-003
1.417423e+003, 4.657748e-003
1.419351e+003, 4.852965e-003
1.421280e+003, 4.876211e-003
1.423208e+003, 4.754966e-003
1.425137e+003, 5.207681e-003
1.427065e+003, 5.241139e-003
1.428994e+003, 5.210747e-003
1.430922e+003, 5.562395e-003
1.432851e+003, 5.519340e-003
1.434779e+003, 5.303930e-003
1.436708e+003, 5.417636e-003
1.438636e+003, 5.608669e-003
1.440565e+003, 5.713996e-003
1.442493e+003, 5.896879e-003
1.444422e+003, 5.951338e-003
1.446350e+003, 5.994172e-003
1.448278e+003, 6.402808e-003
1.450207e+003, 6.676522e-003
1.452135e+003, 6.699795e-003
1.454064e+003, 6.366077e-003
1.455992e+003, 5.753889e-003
1.457921e+003, 7.008282e-003
1.459849e+003, 7.008760e-003
1.461778e+003, 7.025043e-003
1.463706e+003, 6.722277e-003
1.465635e+003, 7.196631e-003
1.467563e+003, 7.050196e-003
1.469492e+003, 7.033215e-003
1.471420e+003, 6.433408e-003
1.473349e+003, 7.028608e-003
1.475277e+003, 6.977347e-003
1.477205e+003, 7.282525e-003
1.479134e+003, 6.846383e-003
1.481062e+003, 6.965769e-003
1.482991e+003, 7.136283e-003
1.484919e+003, 6.926470e-003
1.486848e+003, 6.594393e-003
1.488776e+003, 6.521566e-003
1.490705e+003, 6.851094e-003
1.492633e+003, 6.771388e-003
1.494562e+003, 6.437056e-003
1.496490e+003, 6.549769e-003
1.498419e+003, 6.259320e-003
1.500347e+003, 6.613403e-003
1.502276e+003, 6.532465e-003
1.504204e+003, 5.684591e-003
1.506132e+003, 5.611226e-003
1.508061e+003, 6.541750e-003
1.509989e+003, 6.456221e-003
1.511918e+003, 6.339971e-003
1.513846e+003, 6.389752e-003
1.515775e+003, 6.029843e-003
1.517703e+003, 6.267757e-003
1.519632e+003, 5.279446e-003
1.521560e+003, 5.965449e-003
1.523489e+003, 6.104896e-003
1.525417e+003, 6.043057e-003
1.527346e+003, 6.423804e-003
1.529274e+003, 6.572274e-003
1.531203e+003, 6.302478e-003
1.533131e+003, 6.490962e-003
1.535059e+003, 7.323442e-003
1.536988e+003, 6.567074e-003
1.538916e+003, 6.073141e-003
1.540845e+003, 7.162767e-003
1.542773e+003, 7.576334e-003
1.544702e+003, 7.252095e-003
1.546630e+003, 7.860775e-003
1.548559e+003, 7.704882e-003
1.550487e+003, 8.267120e-003
1.552416e+003, 8.224212e-003
1.554344e+003, 8.510383e-003
1.556273e+003, 7.887507e-003
1.558201e+003, 7.668078e-003
1.560130e+003, 8.957565e-003
1.562058e+003, 9.522343e-003
1.563986e+003, 9.873901e-003
1.565915e+003, 1.069595e-002
1.567843e+003, 1.059579e-002
1.569772e+003, 1.110782e-002
1.571700e+003, 1.171944e-002
1.573629e+003, 1.198428e-002
1.575557e+003, 1.193990e-002
1.577486e+003, 1.391575e-002
1.579414e+003, 1.436293e-002
1.581343e+003, 1.499830e-002
1.583271e+003, 1.563384e-002
1.585200e+003, 1.613815e-002
1.587128e+003, 1.638022e-002
1.589057e+003, 1.631633e-002
1.590985e+003, 1.594688e-002
1.592913e+003, 1.524465e-002
1.594842e+003, 1.468018e-002
1.596770e+003, 1.413285e-002
1.598699e+003, 1.340336e-002
1.600627e+003, 1.269913e-002
1.602556e+003, 1.221185e-002
1.604484e+003, 1.211470e-002
1.606413e+003, 1.188316e-002
1.608341e+003, 1.138124e-002
1.610270e+003, 1.108010e-002
1.612198e+003, 1.106289e-002
1.614127e+003, 1.088254e-002
1.616055e+003, 1.026050e-002
1.617984e+003, 1.141762e-002
1.619912e+003, 1.110290e-002
1.621840e+003, 1.112509e-002
1.623769e+003, 1.189234e-002
1.625697e+003, 1.235326e-002
1.627626e+003, 1.325734e-002
1.629554e+003, 1.397900e-002
1.631483e+003, 1.477007e-002
1.633411e+003, 1.567451e-002
1.635340e+003, 1.773748e-002
1.637268e+003, 2.099334e-002
1.639197e+003, 2.455700e-002
1.641125e+003, 2.917403e-002
1.643054e+003, 3.456533e-002
1.644982e+003, 3.917120e-002
1.646911e+003, 4.336296e-002
1.648839e+003, 4.290851e-002
1.650767e+003, 3.777777e-002
1.652696e+003, 3.334566e-002
1.654624e+003, 3.327698e-002
1.656553e+003, 3.398774e-002
1.658481e+003, 3.751427e-002
1.660410e+003, 4.257037e-002
1.662338e+003, 4.683501e-002
1.664267e+003, 4.761001e-002
1.666195e+003, 4.260241e-002
1.668124e+003, 3.442657e-002
1.670052e+003, 2.732145e-002
1.671981e+003, 2.101309e-002
1.673909e+003, 1.626190e-002
1.675838e+003, 1.424204e-002
1.677766e+003, 1.193829e-002
1.679694e+003, 1.037447e-002
1.681623e+003, 8.699453e-003
1.683551e+003, 6.825059e-003
1.685480e+003, 7.706723e-003
1.687408e+003, 6.917196e-003
1.689337e+003, 7.039915e-003
1.691265e+003, 6.634464e-003
1.693194e+003, 5.784157e-003
1.695122e+003, 4.512812e-003
1.697051e+003, 5.697148e-003
1.698979e+003, 4.155548e-003
1.700908e+003, 5.723031e-003
1.702836e+003, 4.783968e-003
1.704765e+003, 4.822493e-003
1.706693e+003, 5.024293e-003
1.708621e+003, 4.854108e-003
1.710550e+003, 4.848476e-003
1.712478e+003, 4.560301e-003
1.714407e+003, 4.227060e-003
1.716335e+003, 3.641819e-003
1.718264e+003, 4.525083e-003
1.720192e+003, 4.625801e-003
1.722121e+003, 4.417344e-003
1.724049e+003, 4.514202e-003
1.725978e+003, 4.436875e-003
1.727906e+003, 4.079369e-003
1.729835e+003, 3.881659e-003
1.731763e+003, 3.397485e-003
1.733692e+003, 2.688691e-003
1.735620e+003, 3.747919e-003
1.737548e+003, 3.547899e-003
1.739477e+003, 3.739621e-003
1.741405e+003, 3.961915e-003
1.743334e+003, 3.739540e-003
1.745262e+003, 3.978123e-003
1.747191e+003, 3.904239e-003
1.749119e+003, 3.718277e-003
1.751048e+003, 3.586440e-003
1.752976e+003, 3.958802e-003
1.754905e+003, 3.609315e-003
1.756833e+003, 3.743400e-003
1.758762e+003, 3.875070e-003
1.760690e+003, 3.473188e-003
1.762619e+003, 3.860478e-003
1.764547e+003, 3.491090e-003
1.766475e+003, 3.246709e-003
1.768404e+003, 3.403573e-003
1.770332e+003, 2.902795e-003
1.772261e+003, 2.930192e-003
1.774189e+003, 3.325453e-003
1.776118e+003, 3.391247e-003
1.778046e+003, 3.414391e-003
1.779975e+003, 3.518848e-003
1.781903e+003, 3.506515e-003
1.783832e+003, 3.101970e-003
1.785760e+003, 3.160745e-003
1.787689e+003, 3.013156e-003
1.789617e+003, 3.250573e-003
1.791546e+003, 3.357782e-003
1.793474e+003, 3.595155e-003
1.795402e+003, 3.138026e-003
1.797331e+003, 3.226173e-003
1.799259e+003, 3.043223e-003
1.801188e+003, 3.074088e-003
1.803116e+003, 3.224590e-003
1.805045e+003, 3.131428e-003
1.806973e+003, 2.762279e-003
1.808902e+003, 2.254255e-003
1.810830e+003, 2.433479e-003
1.812759e+003, 2.782169e-003
1.814687e+003, 2.513182e-003
1.816616e+003, 2.282464e-003
1.818544e+003, 2.303743e-003
1.820473e+003, 2.607116e-003
1.822401e+003, 3.059902e-003
1.824329e+003, 2.638374e-003
1.826258e+003, 2.811299e-003
1.828186e+003, 2.000075e-003
1.830115e+003, 2.373203e-003
1.832043e+003, 2.483331e-003
1.833972e+003, 2.243017e-003
1.835900e+003, 1.862319e-003
1.837829e+003, 2.217804e-003
1.839757e+003, 2.137935e-003
1.841686e+003, 1.768748e-003
1.843614e+003, 1.356249e-003
1.845543e+003, 2.056284e-003
1.847471e+003, 1.662845e-003
1.849400e+003, 1.884292e-003
1.851328e+003, 2.074555e-003
1.853256e+003, 1.935730e-003
1.855185e+003, 1.540874e-003
1.857113e+003, 1.379368e-003
1.859042e+003, 1.488454e-003
1.860970e+003, 1.681897e-003
1.862899e+003, 2.031086e-003
1.864827e+003, 1.887199e-003
1.866756e+003, 1.167005e-003
1.868684e+003, 1.066800e-003
1.870613e+003, 1.530003e-003
1.872541e+003, 1.460554e-003
1.874470e+003, 1.640067e-003
1.876398e+003, 1.646547e-003
1.878327e+003, 1.448022e-003
1.880255e+003, 1.301520e-003
1.882183e+003, 1.611019e-003
1.884112e+003, 1.755823e-003
1.886040e+003, 1.246316e-003
1.887969e+003, 8.613132e-004
1.889897e+003, 1.171743e-003
1.891826e+003, 1.144406e-003
1.893754e+003, 7.574979e-004
1.895683e+003, 8.292313e-004
1.897611e+003, 9.058151e-004
1.899540e+003, 5.306239e-004
1.901468e+003, -1.274243e-005
1.903397e+003, 1.204847e-004
1.905325e+003, 1.320048e-003
1.907254e+003, 1.863879e-003
1.909182e+003, 1.427604e-003
1.911110e+003, 1.336099e-003
1.913039e+003, 8.297629e-004
1.914967e+003, 3.038948e-004
1.916896e+003, 4.246408e-004
1.918824e+003, 1.228659e-003
1.920753e+003, 7.377607e-004
1.922681e+003, -9.697335e-005
1.924610e+003, -2.075887e-004
1.926538e+003, -2.762147e-004
1.928467e+003, -2.353097e-004
1.930395e+003, -2.037636e-004
1.932324e+003, -3.964315e-004
1.934252e+003, -3.482529e-004
1.936181e+003, -5.619917e-004
1.938109e+003, -1.289043e-003
1.940037e+003, -1.098351e-003
1.941966e+003, -6.000187e-004
1.943894e+003, -2.186932e-004
1.945823e+003, -7.516497e-004
1.947751e+003, -2.056618e-003
1.949680e+003, -1.737688e-003
1.951608e+003, -1.886082e-003
1.953537e+003, -2.906275e-003
1.955465e+003, -3.033482e-003
1.957394e+003, -2.251546e-003
1.959322e+003, -1.891834e-003
1.961251e+003, -3.013071e-003
1.963179e+003, -4.888876e-003
1.965108e+003, -5.031571e-003
1.967036e+003, -4.560860e-003
1.968964e+003, -5.014303e-003
1.970893e+003, -7.036722e-003
1.972821e+003, -6.200865e-003
1.974750e+003, -3.101390e-003
1.976678e+003, -2.796362e-003
1.978607e+003, -1.871295e-003
1.980535e+003, -2.516618e-003
1.982464e+003, -3.729568e-003
1.984392e+003, -2.211829e-003
1.986321e+003, -1.957919e-003
1.988249e+003, -2.321846e-003
1.990178e+003, -8.463615e-004
1.992106e+003, 6.575162e-004
1.994035e+003, -4.830831e-005
1.995963e+003, -1.631966e-003
1.997891e+003, -2.390422e-003
1.999820e+003, -1.799860e-003
2.001748e+003, -2.670486e-003
2.003677e+003, -4.423770e-003
2.005605e+003, -3.822325e-003
2.007534e+003, -3.242830e-003
2.009462e+003, -5.615874e-003
2.011391e+003, -6.261950e-003
2.013319e+003, -4.162115e-003
2.015248e+003, -4.255604e-003
2.017176e+003, -5.071157e-003
2.019105e+003, -4.859291e-003
2.021033e+003, -6.076541e-003
2.022962e+003, -7.188622e-003
2.024890e+003, -8.341814e-003
2.026818e+003, -7.147984e-003
2.028747e+003, -5.812902e-003
2.030675e+003, -6.338622e-003
2.032604e+003, -5.864081e-003
2.034532e+003, -5.121732e-003
2.036461e+003, -3.858344e-003
2.038389e+003, -3.171873e-003
2.040318e+003, -2.954590e-003
2.042246e+003, -1.567888e-003
2.044175e+003, -1.919426e-003
2.046103e+003, -2.910339e-003
2.048032e+003, -2.260556e-003
2.049960e+003, -1.165170e-003
2.051889e+003, -2.094357e-003
2.053817e+003, -1.600147e-003
2.055746e+003, 1.838494e-004
2.057674e+003, 5.691034e-004
2.059603e+003, -2.245368e-004
2.061531e+003, -7.680334e-004
2.063459e+003, 2.935039e-004
2.065388e+003, 1.405702e-003
2.067316e+003, 1.222967e-003
2.069245e+003, 5.976551e-004
2.071173e+003, -2.174595e-004
2.073102e+003, 2.515872e-004
2.075030e+003, 1.272682e-003
2.076959e+003, 9.269415e-004
2.078887e+003, 9.849047e-004
2.080816e+003, 9.073496e-004
2.082744e+003, 1.820037e-003
2.084673e+003, 2.509912e-003
2.086601e+003, 1.806101e-003
2.088530e+003, 1.031282e-003
2.090458e+003, -2.426865e-004
2.092386e+003, -9.018940e-004
2.094315e+003, -1.569520e-004
2.096243e+003, 1.845820e-004
2.098172e+003, 1.157816e-003
2.100100e+003, 3.093370e-003
2.102029e+003, 2.943317e-003
2.103957e+003, 2.377664e-003
2.105886e+003, 2.399648e-003
2.107814e+003, 2.268324e-003
2.109743e+003, 1.306761e-003
2.111671e+003, 1.608890e-003
2.113600e+003, 2.889933e-003
2.115528e+003, 2.903968e-003
2.117457e+003, 2.439744e-003
2.119385e+003, 1.679868e-003
2.121313e+003, 1.723162e-003
2.123242e+003, 1.457283e-003
2.125170e+003, 1.037372e-003
2.127099e+003, 1.307052e-003
2.129027e+003, 7.671926e-004
2.130956e+003, 5.414575e-005
2.132884e+003, -7.230590e-004
2.134813e+003, -1.151089e-003
2.136741e+003, -8.066976e-004
2.138670e+003, -1.066321e-004
2.140598e+003, 2.959080e-004
2.142527e+003, -2.605505e-004
2.144455e+003, -1.247446e-003
2.146384e+003, -4.194043e-004
2.148312e+003, -9.411723e-004
2.150240e+003, -1.479306e-003
2.152169e+003, -1.883524e-003
2.154097e+003, -2.922906e-003
2.156026e+003, -3.449026e-003
2.157954e+003, -2.147639e-003
2.159883e+003, 8.946707e-004
2.161811e+003, 1.502608e-003
2.163740e+003, 2.400283e-003
2.165668e+003, 4.217993e-003
2.167597e+003, 4.420321e-003
2.169525e+003, 3.048872e-003
2.171454e+003, 3.598539e-003
2.173382e+003, 1.828691e-003
2.175311e+003, 6.989763e-004
2.177239e+003, 3.848089e-004
2.179167e+003, -1.456577e-003
2.181096e+003, -2.450285e-004
2.183024e+003, 1.266706e-003
2.184953e+003, 1.322276e-003
2.186881e+003, 1.219690e-003
2.188810e+003, 8.737169e-004
2.190738e+003, 3.565211e-004
2.192667e+003, 1.392160e-003
2.194595e+003, 3.280375e-003
2.196524e+003, 2.692980e-003
2.198452e+003, 2.464172e-003
2.200381e+003, 2.851276e-003
2.202309e+003, 3.243912e-003
2.204238e+003, 3.832201e-003
2.206166e+003, 3.158509e-003
2.208094e+003, 1.593077e-003
2.210023e+003, 1.459927e-003
2.211951e+003, 2.487032e-003
2.213880e+003, 2.629918e-003
2.215808e+003, 1.844779e-003
2.217737e+003, 2.504992e-003
2.219665e+003, 3.914607e-003
2.221594e+003, 3.490502e-003
2.223522e+003, 2.667359e-003
2.225451e+003, 2.834679e-003
2.227379e+003, 3.550675e-003
2.229308e+003, 4.220637e-003
2.231236e+003, 4.218240e-003
2.233165e+003, 3.389212e-003
2.235093e+003, 3.841608e-003
2.237021e+003, 4.578347e-003
2.238950e+003, 4.995939e-003
2.240878e+003, 4.748471e-003
2.242807e+003, 5.249845e-003
2.244735e+003, 5.722717e-003
2.246664e+003, 5.424718e-003
2.248592e+003, 5.562893e-003
2.250521e+003, 5.635543e-003
2.252449e+003, 5.715124e-003
2.254378e+003, 5.913657e-003
2.256306e+003, 5.908554e-003
2.258235e+003, 5.811327e-003
2.260163e+003, 6.615259e-003
2.262092e+003, 7.538978e-003
2.264020e+003, 7.852389e-003
2.265948e+003, 7.468275e-003
2.267877e+003, 6.431618e-003
2.269805e+003, 6.793838e-003
2.271734e+003, 7.295019e-003
2.273662e+003, 7.571482e-003
2.275591e+003, 7.839909e-003
2.277519e+003, 8.520606e-003
2.279448e+003, 8.780448e-003
2.281376e+003, 9.197257e-003
2.283305e+003, 9.039569e-003
2.285233e+003, 9.051825e-003
2.287162e+003, 8.861509e-003
2.289090e+003, 8.116116e-003
2.291019e+003, 7.838982e-003
2.292947e+003, 7.753179e-003
2.294875e+003, 7.442097e-003
2.296804e+003, 7.511728e-003
2.298732e+003, 7.912219e-003
2.300661e+003, 8.437054e-003
2.302589e+003, 8.031499e-003
2.304518e+003, 7.456654e-003
2.306446e+003, 7.672798e-003
2.308375e+003, 8.027722e-003
2.310303e+003, 8.167353e-003
2.312232e+003, 7.798648e-003
2.314160e+003, 7.398215e-003
2.316089e+003, 7.593939e-003
2.318017e+003, 7.819652e-003
2.319946e+003, 7.906712e-003
2.321874e+003, 7.896036e-003
2.323802e+003, 8.386602e-003
2.325731e+003, 8.189118e-003
2.327659e+003, 7.412741e-003
2.329588e+003, 6.773665e-003
2.331516e+003, 6.736783e-003
2.333445e+003, 6.979000e-003
2.335373e+003, 6.542241e-003
2.337302e+003, 6.417370e-003
2.339230e+003, 6.750025e-003
2.341159e+003, 7.165130e-003
2.343087e+003, 6.905356e-003
2.345016e+003, 7.101000e-003
2.346944e+003, 7.172514e-003
2.348873e+003, 6.802563e-003
2.350801e+003, 6.850886e-003
2.352729e+003, 7.196537e-003
2.354658e+003, 7.150867e-003
2.356586e+003, 6.542741e-003
2.358515e+003, 5.981551e-003
2.360443e+003, 5.667290e-003
2.362372e+003, 6.017094e-003
2.364300e+003, 6.067168e-003
2.366229e+003, 6.176892e-003
2.368157e+003, 6.351570e-003
2.370086e+003, 6.493804e-003
2.372014e+003, 6.228840e-003
2.373942e+003, 5.827123e-003
2.375871e+003, 5.843495e-003
2.377799e+003, 6.224627e-003
2.379728e+003, 6.089516e-003
2.381656e+003, 5.882326e-003
2.383585e+003, 6.096237e-003
2.385513e+003, 6.357412e-003
2.387442e+003, 6.182928e-003
2.389370e+003, 6.022364e-003
2.391299e+003, 6.178543e-003
2.393227e+003, 6.097882e-003
2.395156e+003, 5.839929e-003
2.397084e+003, 5.598454e-003
2.399012e+003, 6.018049e-003
2.400941e+003, 6.547794e-003
2.402869e+003, 6.633039e-003
2.404798e+003, 6.573170e-003
2.406726e+003, 6.577081e-003
2.408655e+003, 6.960300e-003
2.410583e+003, 6.986379e-003
2.412512e+003, 6.983923e-003
2.414440e+003, 7.089701e-003
2.416369e+003, 6.326395e-003
2.418297e+003, 6.327819e-003
2.420226e+003, 6.935223e-003
2.422154e+003, 6.847122e-003
2.424083e+003, 6.459979e-003
2.426011e+003, 6.660951e-003
2.427939e+003, 6.560520e-003
2.429868e+003, 6.372772e-003
2.431796e+003, 6.210445e-003
2.433725e+003, 5.999218e-003
2.435653e+003, 5.846852e-003
2.437582e+003, 6.164214e-003
2.439510e+003, 6.160068e-003
2.441439e+003, 6.550453e-003
2.443367e+003, 6.781303e-003
2.445296e+003, 6.323752e-003
2.447224e+003, 6.731135e-003
2.449153e+003, 7.141673e-003
2.451081e+003, 7.757428e-003
2.453010e+003, 8.121548e-003
2.454938e+003, 7.305310e-003
2.456866e+003, 7.127133e-003
2.458795e+003, 7.332297e-003
2.460723e+003, 6.678273e-003
2.462652e+003, 6.589496e-003
2.464580e+003, 6.939491e-003
2.466509e+003, 7.259611e-003
2.468437e+003, 6.565235e-003
2.470366e+003, 6.174215e-003
2.472294e+003, 6.596681e-003
2.474223e+003, 6.312003e-003
2.476151e+003, 6.242404e-003
2.478080e+003, 7.261523e-003
2.480008e+003, 7.425618e-003
2.481937e+003, 6.963138e-003
2.483865e+003, 6.442173e-003
2.485793e+003, 6.309640e-003
2.487722e+003, 6.772896e-003
2.489650e+003, 7.382486e-003
2.491579e+003, 7.068643e-003
2.493507e+003, 7.066383e-003
2.495436e+003, 7.085250e-003
2.497364e+003, 6.845043e-003
2.499293e+003, 6.979013e-003
2.501221e+003, 6.939275e-003
2.503150e+003, 6.938533e-003
2.505078e+003, 7.691124e-003
2.507007e+003, 7.845886e-003
2.508935e+003, 7.570362e-003
2.510864e+003, 7.239535e-003
2.512792e+003, 7.841860e-003
2.514720e+003, 7.757160e-003
2.516649e+003, 6.601822e-003
2.518577e+003, 5.680293e-003
2.520506e+003, 6.215934e-003
2.522434e+003, 6.811348e-003
2.524363e+003, 6.842901e-003
2.526291e+003, 7.081985e-003
2.528220e+003, 7.232425e-003
2.530148e+003, 7.412561e-003
2.532077e+003, 7.689978e-003
2.534005e+003, 7.708691e-003
2.535934e+003, 7.090423e-003
2.537862e+003, 7.068818e-003
2.539791e+003, 7.269182e-003
2.541719e+003, 7.963386e-003
2.543647e+003, 7.845746e-003
2.545576e+003, 6.877005e-003
2.547504e+003, 7.157705e-003
2.549433e+003, 7.838758e-003
2.551361e+003, 7.575936e-003
2.553290e+003, 7.220717e-003
2.555218e+003, 7.872156e-003
2.557147e+003, 8.443411e-003
2.559075e+003, 8.963659e-003
2.561004e+003, 8.649496e-003
2.562932e+003, 7.412981e-003
2.564861e+003, 7.479391e-003
2.566789e+003, 8.198143e-003
2.568718e+003, 7.884447e-003
2.570646e+003, 8.121918e-003
2.572574e+003, 8.168197e-003
2.574503e+003, 7.717517e-003
2.576431e+003, 8.381095e-003
2.578360e+003, 8.643993e-003
2.580288e+003, 7.965698e-003
2.582217e+003, 7.949593e-003
2.584145e+003, 7.769196e-003
2.586074e+003, 8.166450e-003
2.588002e+003, 8.286050e-003
2.589931e+003, 8.308565e-003
2.591859e+003, 7.912779e-003
2.593788e+003, 7.446806e-003
2.595716e+003, 8.540822e-003
2.597645e+003, 8.973947e-003
2.599573e+003, 7.953601e-003
2.601501e+003, 7.747881e-003
2.603430e+003, 7.916409e-003
2.605358e+003, 7.566595e-003
2.607287e+003, 8.076137e-003
2.609215e+003, 8.012717e-003
2.611144e+003, 8.142203e-003
2.613072e+003, 9.284317e-003
2.615001e+003, 8.918208e-003
2.616929e+003, 8.249425e-003
2.618858e+003, 8.222030e-003
2.620786e+003, 9.088235e-003
2.622715e+003, 9.424084e-003
2.624643e+003, 8.651195e-003
2.626572e+003, 8.407041e-003
2.628500e+003, 8.795998e-003
2.630428e+003, 9.317271e-003
2.632357e+003, 9.044937e-003
2.634285e+003, 8.171051e-003
2.636214e+003, 8.198941e-003
2.638142e+003, 8.638105e-003
2.640071e+003, 9.061931e-003
2.641999e+003, 9.163321e-003
2.643928e+003, 9.125683e-003
2.645856e+003, 9.020647e-003
2.647785e+003, 9.127149e-003
2.649713e+003, 9.302399e-003
2.651642e+003, 9.638274e-003
2.653570e+003, 9.654596e-003
2.655499e+003, 9.555143e-003
2.657427e+003, 9.710900e-003
2.659355e+003, 9.291668e-003
2.661284e+003, 8.734783e-003
2.663212e+003, 8.993481e-003
2.665141e+003, 9.028831e-003
2.667069e+003, 9.140559e-003
2.668998e+003, 9.066414e-003
2.670926e+003, 8.627341e-003
2.672855e+003, 8.432833e-003
2.674783e+003, 8.222449e-003
2.676712e+003, 8.069664e-003
2.678640e+003, 8.052869e-003
2.680569e+003, 8.225929e-003
2.682497e+003, 8.544026e-003
2.684426e+003, 8.578575e-003
2.686354e+003, 8.484136e-003
2.688282e+003, 8.591712e-003
2.690211e+003, 8.786560e-003
2.692139e+003, 8.586431e-003
2.694068e+003, 8.522985e-003
2.695996e+003, 8.983597e-003
2.697925e+003, 9.498389e-003
2.699853e+003, 9.538911e-003
2.701782e+003, 8.701881e-003
2.703710e+003, 8.088665e-003
2.705639e+003, 8.465778e-003
2.707567e+003, 8.772855e-003
2.709496e+003, 8.772321e-003
2.711424e+003, 8.611669e-003
2.713353e+003, 8.189767e-003
2.715281e+003, 8.339015e-003
2.717209e+003, 8.727189e-003
2.719138e+003, 8.718591e-003
2.721066e+003, 8.600435e-003
2.722995e+003, 8.765683e-003
2.724923e+003, 8.814101e-003
2.726852e+003, 8.751888e-003
2.728780e+003, 9.320684e-003
2.730709e+003, 9.424582e-003
2.732637e+003, 9.206013e-003
2.734566e+003, 9.343099e-003
2.736494e+003, 9.394473e-003
2.738423e+003, 9.326834e-003
2.740351e+003, 9.408267e-003
2.742280e+003, 9.882987e-003
2.744208e+003, 9.801831e-003
2.746136e+003, 1.004636e-002
2.748065e+003, 9.876667e-003
2.749993e+003, 9.231445e-003
2.751922e+003, 9.057735e-003
2.753850e+003, 9.812915e-003
2.755779e+003, 1.023102e-002
2.757707e+003, 1.008465e-002
2.759636e+003, 9.917435e-003
2.761564e+003, 9.744651e-003
2.763493e+003, 1.030298e-002
2.765421e+003, 1.067973e-002
2.767350e+003, 1.041420e-002
2.769278e+003, 1.002390e-002
2.771207e+003, 9.528952e-003
2.773135e+003, 9.755202e-003
2.775063e+003, 1.023624e-002
2.776992e+003, 9.903010e-003
2.778920e+003, 1.003885e-002
2.780849e+003, 1.095494e-002
2.782777e+003, 1.099808e-002
2.784706e+003, 1.035669e-002
2.786634e+003, 9.807916e-003
2.788563e+003, 1.018681e-002
2.790491e+003, 1.089254e-002
2.792420e+003, 1.105917e-002
2.794348e+003, 1.072385e-002
2.796277e+003, 1.070059e-002
2.798205e+003, 1.048378e-002
2.800134e+003, 1.084575e-002
2.802062e+003, 1.101529e-002
2.803990e+003, 1.064679e-002
2.805919e+003, 1.066518e-002
2.807847e+003, 1.085958e-002
2.809776e+003, 1.068501e-002
2.811704e+003, 1.109965e-002
2.813633e+003, 1.204655e-002
2.815561e+003, 1.227605e-002
2.817490e+003, 1.154821e-002
2.819418e+003, 1.068437e-002
2.821347e+003, 1.072327e-002
2.823275e+003, 1.063624e-002
2.825204e+003, 1.156897e-002
2.827132e+003, 1.210001e-002
2.829061e+003, 1.170305e-002
2.830989e+003, 1.131932e-002
2.832917e+003, 1.119687e-002
2.834846e+003, 1.150995e-002
2.836774e+003, 1.134113e-002
2.838703e+003, 1.127280e-002
2.840631e+003, 1.137089e-002
2.842560e+003, 1.108197e-002
2.844488e+003, 1.150763e-002
2.846417e+003, 1.209513e-002
2.848345e+003, 1.195018e-002
2.850274e+003, 1.164954e-002
2.852202e+003, 1.212602e-002
2.854131e+003, 1.246986e-002
2.856059e+003, 1.235078e-002
2.857988e+003, 1.260629e-002
2.859916e+003, 1.241101e-002
2.861844e+003, 1.167511e-002
2.863773e+003, 1.173806e-002
2.865701e+003, 1.208342e-002
2.867630e+003, 1.255659e-002
2.869558e+003, 1.193398e-002
2.871487e+003, 1.184307e-002
2.873415e+003, 1.200232e-002
2.875344e+003, 1.216324e-002
2.877272e+003, 1.208688e-002
2.879201e+003, 1.215413e-002
2.881129e+003, 1.300363e-002
2.883058e+003, 1.348164e-002
2.884986e+003, 1.340554e-002
2.886915e+003, 1.334208e-002
2.888843e+003, 1.314127e-002
2.890771e+003, 1.250141e-002
2.892700e+003, 1.223571e-002
2.894628e+003, 1.206151e-002
2.896557e+003, 1.202701e-002
2.898485e+003, 1.221510e-002
2.900414e+003, 1.234968e-002
2.902342e+003, 1.285804e-002
2.904271e+003, 1.379712e-002
2.906199e+003, 1.397326e-002
2.908128e+003, 1.375515e-002
2.910056e+003, 1.362322e-002
2.911985e+003, 1.362367e-002
2.913913e+003, 1.379980e-002
2.915842e+003, 1.377787e-002
2.917770e+003, 1.393634e-002
2.919698e+003, 1.386290e-002
2.921627e+003, 1.332918e-002
2.923555e+003, 1.346222e-002
2.925484e+003, 1.364285e-002
2.927412e+003, 1.344929e-002
2.929341e+003, 1.349661e-002
2.931269e+003, 1.349608e-002
2.933198e+003, 1.376695e-002
2.935126e+003, 1.425959e-002
2.937055e+003, 1.437910e-002
2.938983e+003, 1.380356e-002
2.940912e+003, 1.382129e-002
2.942840e+003, 1.406774e-002
2.944769e+003, 1.463122e-002
2.946697e+003, 1.496656e-002
2.948625e+003, 1.486753e-002
2.950554e+003, 1.480179e-002
2.952482e+003, 1.504445e-002
2.954411e+003, 1.514373e-002
2.956339e+003, 1.525740e-002
2.958268e+003, 1.477148e-002
2.960196e+003, 1.471583e-002
2.962125e+003, 1.473594e-002
2.964053e+003, 1.530378e-002
2.965982e+003, 1.540533e-002
2.967910e+003, 1.539714e-002
2.969839e+003, 1.526335e-002
2.971767e+003, 1.477635e-002
2.973696e+003, 1.569922e-002
2.975624e+003, 1.640781e-002
2.977552e+003, 1.634960e-002
2.979481e+003, 1.595713e-002
2.981409e+003, 1.572815e-002
2.983338e+003, 1.603884e-002
2.985266e+003, 1.720494e-002
2.987195e+003, 1.802424e-002
2.989123e+003, 1.774446e-002
2.991052e+003, 1.757849e-002
2.992980e+003, 1.762712e-002
2.994909e+003, 1.697475e-002
2.996837e+003, 1.695993e-002
2.998766e+003, 1.775085e-002
3.000694e+003, 1.810157e-002
3.002623e+003, 1.778770e-002
3.004551e+003, 1.826123e-002
3.006479e+003, 1.823800e-002
3.008408e+003, 1.782319e-002
3.010336e+003, 1.897581e-002
3.012265e+003, 1.919711e-002
3.014193e+003, 1.852536e-002
3.016122e+003, 1.878173e-002
3.018050e+003, 1.813724e-002
3.019979e+003, 1.846268e-002
3.021907e+003, 1.906207e-002
3.023836e+003, 1.900105e-002
3.025764e+003, 1.951769e-002
3.027693e+003, 1.906407e-002
3.029621e+003, 1.913457e-002
3.031550e+003, 1.914156e-002
3.033478e+003, 1.940577e-002
3.035406e+003, 2.007029e-002
3.037335e+003, 2.010982e-002
3.039263e+003, 2.027311e-002
3.041192e+003, 2.114183e-002
3.043120e+003, 2.123106e-002
3.045049e+003, 2.076322e-002
3.046977e+003, 2.073658e-002
3.048906e+003, 2.049225e-002
3.050834e+003, 2.100776e-002
3.052763e+003, 2.145212e-002
3.054691e+003, 2.086579e-002
3.056620e+003, 2.111963e-002
3.058548e+003, 2.182386e-002
3.060477e+003, 2.269415e-002
3.062405e+003, 2.305655e-002
3.064333e+003, 2.251723e-002
3.066262e+003, 2.133152e-002
3.068190e+003, 2.076686e-002
3.070119e+003, 2.120424e-002
3.072047e+003, 2.223988e-002
3.073976e+003, 2.276390e-002
3.075904e+003, 2.317448e-002
3.077833e+003, 2.380419e-002
3.079761e+003, 2.326014e-002
3.081690e+003, 2.293239e-002
3.083618e+003, 2.292647e-002
3.085547e+003, 2.367372e-002
3.087475e+003, 2.430561e-002
3.089404e+003, 2.447007e-002
3.091332e+003, 2.499983e-002
3.093260e+003, 2.465616e-002
3.095189e+003, 2.426724e-002
3.097117e+003, 2.459431e-002
3.099046e+003, 2.443017e-002
3.100974e+003, 2.429147e-002
3.102903e+003, 2.458005e-002
3.104831e+003, 2.475658e-002
3.106760e+003, 2.519813e-002
3.108688e+003, 2.601150e-002
3.110617e+003, 2.679964e-002
3.112545e+003, 2.575794e-002
3.114474e+003, 2.578242e-002
3.116402e+003, 2.675427e-002
3.118331e+003, 2.782861e-002
3.120259e+003, 2.795990e-002
3.122188e+003, 2.790791e-002
3.124116e+003, 2.802438e-002
3.126044e+003, 2.842515e-002
3.127973e+003, 2.873240e-002
3.129901e+003, 2.858382e-002
3.131830e+003, 2.990145e-002
3.133758e+003, 3.156727e-002
3.135687e+003, 3.048059e-002
3.137615e+003, 2.915179e-002
3.139544e+003, 2.951176e-002
3.141472e+003, 3.006375e-002
3.143401e+003, 3.087228e-002
3.145329e+003, 3.206693e-002
3.147258e+003, 3.187543e-002
3.149186e+003, 3.112370e-002
3.151115e+003, 3.134305e-002
3.153043e+003, 3.157679e-002
3.154971e+003, 3.197786e-002
3.156900e+003, 3.207857e-002
3.158828e+003, 3.259991e-002
3.160757e+003, 3.325971e-002
3.162685e+003, 3.308816e-002
3.164614e+003, 3.293294e-002
3.166542e+003, 3.405692e-002
3.168471e+003, 3.387805e-002
3.170399e+003, 3.346558e-002
3.172328e+003, 3.417766e-002
3.174256e+003, 3.490624e-002
3.176185e+003, 3.644086e-002
3.178113e+003, 3.803159e-002
3.180042e+003, 3.812236e-002
3.181970e+003, 3.859481e-002
3.183898e+003, 4.000720e-002
3.185827e+003, 4.071246e-002
3.187755e+003, 4.197046e-002
3.189684e+003, 4.336758e-002
3.191612e+003, 4.441169e-002
3.193541e+003, 4.521571e-002
3.195469e+003, 4.610932e-002
3.197398e+003, 4.728873e-002
3.199326e+003, 4.895006e-002
3.201255e+003, 5.073991e-002
3.203183e+003, 5.260168e-002
3.205112e+003, 5.467693e-002
3.207040e+003, 5.660824e-002
3.208969e+003, 5.747329e-002
3.210897e+003, 5.931032e-002
3.212825e+003, 6.306493e-002
3.214754e+003, 6.565285e-002
3.216682e+003, 6.768624e-002
3.218611e+003, 7.050047e-002
3.220539e+003, 7.223687e-002
3.222468e+003, 7.459980e-002
3.224396e+003, 7.647063e-002
3.226325e+003, 7.717680e-002
3.228253e+003, 7.849152e-002
3.230182e+003, 7.950056e-002
3.232110e+003, 7.803960e-002
3.234039e+003, 7.547815e-002
3.235967e+003, 7.339124e-002
3.237896e+003, 7.027626e-002
3.239824e+003, 6.668627e-002
3.241752e+003, 6.273715e-002
3.243681e+003, 5.962303e-002
3.245609e+003, 5.731303e-002
3.247538e+003, 5.446105e-002
3.249466e+003, 5.110762e-002
3.251395e+003, 4.870114e-002
3.253323e+003, 4.626947e-002
3.255252e+003, 4.477761e-002
3.257180e+003, 4.291318e-002
3.259109e+003, 4.246157e-002
3.261037e+003, 4.255829e-002
3.262966e+003, 4.101782e-002
3.264894e+003, 4.010361e-002
3.266823e+003, 3.914075e-002
3.268751e+003, 3.864656e-002
3.270679e+003, 3.929904e-002
3.272608e+003, 3.939713e-002
3.274536e+003, 3.948013e-002
3.276465e+003, 3.906858e-002
3.278393e+003, 3.717936e-002
3.280322e+003, 3.646697e-002
3.282250e+003, 3.780718e-002
3.284179e+003, 3.831826e-002
3.286107e+003, 3.866851e-002
3.288036e+003, 3.836505e-002
3.289964e+003, 3.750664e-002
3.291893e+003, 3.782933e-002
3.293821e+003, 3.958733e-002
3.295750e+003, 4.174498e-002
3.297678e+003, 4.115134e-002
3.299606e+003, 4.163185e-002
3.301535e+003, 4.366247e-002
3.303463e+003, 4.476073e-002
3.305392e+003, 4.615463e-002
3.307320e+003, 4.698901e-002
3.309249e+003, 4.853575e-002
3.311177e+003, 5.056160e-002
3.313106e+003, 5.137505e-002
3.315034e+003, 5.138776e-002
3.316963e+003, 5.162554e-002
3.318891e+003, 5.205765e-002
3.320820e+003, 5.223768e-002
3.322748e+003, 5.285972e-002
3.324677e+003, 5.379823e-002
3.326605e+003, 5.318649e-002
3.328533e+003, 5.065404e-002
3.330462e+003, 5.027452e-002
3.332390e+003, 5.121268e-002
3.334319e+003, 4.988006e-002
3.336247e+003, 4.999794e-002
3.338176e+003, 5.060434e-002
3.340104e+003, 4.877496e-002
3.342033e+003, 4.820073e-002
3.343961e+003, 4.794909e-002
3.345890e+003, 4.680820e-002
3.347818e+003, 4.660596e-002
3.349747e+003, 4.753816e-002
3.351675e+003, 4.745192e-002
3.353604e+003, 4.628270e-002
3.355532e+003, 4.652347e-002
3.357460e+003, 4.591317e-002
3.359389e+003, 4.515660e-002
3.361317e+003, 4.577617e-002
3.363246e+003, 4.616045e-002
3.365174e+003, 4.723361e-002
3.367103e+003, 4.836198e-002
3.369031e+003, 4.844102e-002
3.370960e+003, 4.812296e-002
3.372888e+003, 4.875341e-002
3.374817e+003, 4.983948e-002
3.376745e+003, 4.997500e-002
3.378674e+003, 5.019111e-002
3.380602e+003, 5.226241e-002
3.382531e+003, 5.356264e-002
3.384459e+003, 5.410096e-002
3.386387e+003, 5.519960e-002
3.388316e+003, 5.732581e-002
3.390244e+003, 5.936076e-002
3.392173e+003, 6.198863e-002
3.394101e+003, 6.448916e-002
3.396030e+003, 6.580944e-002
3.397958e+003, 6.856638e-002
3.399887e+003, 6.988684e-002
3.401815e+003, 6.925970e-002
3.403744e+003, 6.940857e-002
3.405672e+003, 7.005885e-002
3.407601e+003, 7.018720e-002
3.409529e+003, 7.036845e-002
3.411458e+003, 6.876036e-002
3.413386e+003, 6.489881e-002
3.415314e+003, 6.294709e-002
3.417243e+003, 6.274475e-002
3.419171e+003, 6.180802e-002
3.421100e+003, 6.010665e-002
3.423028e+003, 5.822563e-002
3.424957e+003, 5.703321e-002
3.426885e+003, 5.457680e-002
3.428814e+003, 5.156692e-002
3.430742e+003, 4.921111e-002
3.432671e+003, 4.736929e-002
3.434599e+003, 4.748259e-002
3.436528e+003, 4.829274e-002
3.438456e+003, 4.782707e-002
3.440385e+003, 4.744655e-002
3.442313e+003, 4.685473e-002
3.444241e+003, 4.607471e-002
3.446170e+003, 4.542722e-002
3.448098e+003, 4.451444e-002
3.450027e+003, 4.219996e-002
3.451955e+003, 4.004218e-002
3.453884e+003, 4.027475e-002
3.455812e+003, 4.088813e-002
3.457741e+003, 4.049824e-002
3.459669e+003, 3.975773e-002
3.461598e+003, 3.934593e-002
3.463526e+003, 4.017760e-002
3.465455e+003, 4.102676e-002
3.467383e+003, 4.110429e-002
3.469312e+003, 4.175283e-002
3.471240e+003, 4.253803e-002
3.473168e+003, 4.279233e-002
3.475097e+003, 4.388091e-002
3.477025e+003, 4.480043e-002
3.478954e+003, 4.551120e-002
3.480882e+003, 4.584415e-002
3.482811e+003, 4.694721e-002
3.484739e+003, 4.984672e-002
3.486668e+003, 5.355436e-002
3.488596e+003, 5.660380e-002
3.490525e+003, 5.903320e-002
3.492453e+003, 6.093284e-002
3.494382e+003, 6.270915e-002
3.496310e+003, 6.449199e-002
3.498239e+003, 6.573582e-002
3.500167e+003, 6.724966e-002
3.502095e+003, 6.950098e-002
3.504024e+003, 6.884926e-002
3.505952e+003, 6.710184e-002
3.507881e+003, 6.684326e-002
3.509809e+003, 6.649584e-002
3.511738e+003, 6.424118e-002
3.513666e+003, 6.017822e-002
3.515595e+003, 5.533901e-002
3.517523e+003, 5.284967e-002
3.519452e+003, 5.198146e-002
3.521380e+003, 4.966339e-002
3.523309e+003, 4.803665e-002
3.525237e+003, 4.499386e-002
3.527166e+003, 4.248411e-002
3.529094e+003, 4.214557e-002
3.531022e+003, 4.336571e-002
3.532951e+003, 4.322226e-002
3.534879e+003, 4.006530e-002
3.536808e+003, 3.929460e-002
3.538736e+003, 3.856980e-002
3.540665e+003, 3.691305e-002
3.542593e+003, 3.660571e-002
3.544522e+003, 3.515327e-002
3.546450e+003, 3.524744e-002
3.548379e+003, 3.613728e-002
3.550307e+003, 3.606852e-002
3.552236e+003, 3.784809e-002
3.554164e+003, 4.010013e-002
3.556093e+003, 3.990996e-002
3.558021e+003, 3.947626e-002
3.559949e+003, 4.030855e-002
3.561878e+003, 4.150609e-002
3.563806e+003, 4.251244e-002
3.565735e+003, 4.212883e-002
3.567663e+003, 4.361965e-002
3.569592e+003, 4.697229e-002
3.571520e+003, 4.903692e-002
3.573449e+003, 5.114897e-002
3.575377e+003, 5.278870e-002
3.577306e+003, 5.305863e-002
3.579234e+003, 5.394911e-002
3.581163e+003, 5.483286e-002
3.583091e+003, 5.591880e-002
3.585020e+003, 5.499374e-002
3.586948e+003, 5.216190e-002
3.588876e+003, 4.888805e-002
3.590805e+003, 4.610824e-002
3.592733e+003, 4.353665e-002
3.594662e+003, 4.112620e-002
3.596590e+003, 3.948031e-002
3.598519e+003, 3.661758e-002
3.600447e+003, 3.428049e-002
3.602376e+003, 3.167750e-002
3.604304e+003, 2.966477e-002
3.606233e+003, 2.756248e-002
3.608161e+003, 2.540404e-002
3.610090e+003, 2.603143e-002
3.612018e+003, 2.448417e-002
3.613947e+003, 2.360633e-002
3.615875e+003, 2.330053e-002
3.617803e+003, 2.262150e-002
3.619732e+003, 2.151024e-002
3.621660e+003, 2.079188e-002
3.623589e+003, 2.027742e-002
3.625517e+003, 1.829836e-002
3.627446e+003, 1.586148e-002
3.629374e+003, 1.815967e-002
3.631303e+003, 1.887468e-002
3.633231e+003, 1.790480e-002
3.635160e+003, 1.702531e-002
3.637088e+003, 1.586822e-002
3.639017e+003, 1.613818e-002
3.640945e+003, 1.539791e-002
3.642874e+003, 1.586598e-002
3.644802e+003, 1.608559e-002
3.646730e+003, 1.462393e-002
3.648659e+003, 1.294093e-002
3.650587e+003, 1.337378e-002
3.652516e+003, 1.423111e-002
3.654444e+003, 1.306523e-002
3.656373e+003, 1.246055e-002
3.658301e+003, 1.176436e-002
3.660230e+003, 1.207277e-002
3.662158e+003, 1.379429e-002
3.664087e+003, 1.216501e-002
3.666015e+003, 1.089145e-002
3.667944e+003, 1.048347e-002
3.669872e+003, 9.977696e-003
3.671801e+003, 1.265464e-002
3.673729e+003, 1.241339e-002
3.675657e+003, 1.284216e-002
3.677586e+003, 1.264304e-002
3.679514e+003, 1.387172e-002
3.681443e+003, 1.249475e-002
3.683371e+003, 1.042635e-002
3.685300e+003, 9.780734e-003
3.687228e+003, 9.347111e-003
3.689157e+003, 1.135045e-002
3.691085e+003, 1.123045e-002
3.693014e+003, 1.224316e-002
3.694942e+003, 1.266961e-002
3.696871e+003, 1.218236e-002
3.698799e+003, 1.187334e-002
3.700728e+003, 1.219028e-002
3.702656e+003, 1.207658e-002
3.704584e+003, 1.110389e-002
3.706513e+003, 1.174852e-002
3.708441e+003, 1.288786e-002
3.710370e+003, 1.086885e-002
3.712298e+003, 9.239814e-003
3.714227e+003, 9.344818e-003
3.716155e+003, 1.279216e-002
3.718084e+003, 1.248039e-002
3.720012e+003, 1.059259e-002
3.721941e+003, 1.065032e-002
3.723869e+003, 1.094607e-002
3.725798e+003, 1.100998e-002
3.727726e+003, 1.102040e-002
3.729655e+003, 9.877429e-003
3.731583e+003, 1.063430e-002
3.733511e+003, 1.157156e-002
3.735440e+003, 9.580811e-003
3.737368e+003, 9.170707e-003
3.739297e+003, 1.022651e-002
3.741225e+003, 1.261657e-002
3.743154e+003, 1.022609e-002
3.745082e+003, 1.285421e-002
3.747011e+003, 1.209534e-002
3.748939e+003, 1.070034e-002
3.750868e+003, 9.726107e-003
3.752796e+003, 1.285400e-002
3.754725e+003, 1.276220e-002
3.756653e+003, 1.171052e-002
3.758582e+003, 1.058991e-002
3.760510e+003, 1.100704e-002
3.762438e+003, 1.269977e-002
3.764367e+003, 1.281283e-002
3.766295e+003, 1.255102e-002
3.768224e+003, 1.157069e-002
3.770152e+003, 1.189463e-002
3.772081e+003, 1.200387e-002
3.774009e+003, 1.316020e-002
3.775938e+003, 1.324377e-002
3.777866e+003, 1.411367e-002
3.779795e+003, 1.532634e-002
3.781723e+003, 1.369530e-002
3.783652e+003, 1.370788e-002
3.785580e+003, 1.472848e-002
3.787509e+003, 1.282527e-002
3.789437e+003, 1.279973e-002
3.791365e+003, 1.265486e-002
3.793294e+003, 1.187681e-002
3.795222e+003, 1.229283e-002
3.797151e+003, 1.375701e-002
3.799079e+003, 1.231211e-002
3.801008e+003, 1.145204e-002
3.802936e+003, 1.189093e-002
3.804865e+003, 1.174960e-002
3.806793e+003, 1.380436e-002
3.808722e+003, 1.529455e-002
3.810650e+003, 1.522013e-002
3.812579e+003, 1.303974e-002
3.814507e+003, 1.050587e-002
3.816436e+003, 1.143978e-002
3.818364e+003, 1.089380e-002
3.820292e+003, 1.229567e-002
3.822221e+003, 1.398165e-002
3.824149e+003, 1.222247e-002
3.826078e+003, 1.136234e-002
3.828006e+003, 1.271417e-002
3.829935e+003, 1.251409e-002
3.831863e+003, 1.291681e-002
3.833792e+003, 1.312222e-002
3.835720e+003, 1.083249e-002
3.837649e+003, 8.137808e-003
3.839577e+003, 1.210568e-002
3.841506e+003, 1.341379e-002
3.843434e+003, 1.380278e-002
3.845363e+003, 1.581183e-002
3.847291e+003, 1.535083e-002
3.849219e+003, 1.442735e-002
3.851148e+003, 1.140024e-002
3.853076e+003, 9.912380e-003
3.855005e+003, 1.311395e-002
3.856933e+003, 1.106647e-002
3.858862e+003, 1.172709e-002
3.860790e+003, 1.198281e-002
3.862719e+003, 1.528920e-002
3.864647e+003, 1.680189e-002
3.866576e+003, 1.475959e-002
3.868504e+003, 1.115250e-002
3.870433e+003, 1.299737e-002
3.872361e+003, 1.368446e-002
3.874290e+003, 1.551885e-002
3.876218e+003, 1.561304e-002
3.878146e+003, 1.432862e-002
3.880075e+003, 1.361304e-002
3.882003e+003, 1.353116e-002
3.883932e+003, 1.192796e-002
3.885860e+003, 1.208219e-002
3.887789e+003, 1.350418e-002
3.889717e+003, 1.487439e-002
3.891646e+003, 1.500241e-002
3.893574e+003, 1.342668e-002
3.895503e+003, 1.389253e-002
3.897431e+003, 1.450516e-002
3.899360e+003, 1.539042e-002
3.901288e+003, 1.597670e-002
3.903217e+003, 1.550241e-002
3.905145e+003, 1.441886e-002
3.907073e+003, 1.401179e-002
3.909002e+003, 1.448208e-002
3.910930e+003, 1.511498e-002
3.912859e+003, 1.511365e-002
3.914787e+003, 1.708632e-002
3.916716e+003, 1.892821e-002
3.918644e+003, 1.669656e-002
3.920573e+003, 1.511574e-002
3.922501e+003, 1.475658e-002
3.924430e+003, 1.584569e-002
3.926358e+003, 1.657868e-002
3.928287e+003, 1.546601e-002
3.930215e+003, 1.409966e-002
3.932144e+003, 1.148873e-002
3.934072e+003, 9.768989e-003
3.936000e+003, 1.234205e-002
3.937929e+003, 1.598173e-002
3.939857e+003, 1.591903e-002
3.941786e+003, 1.381193e-002
3.943714e+003, 1.404106e-002
3.945643e+003, 1.497813e-002
3.947571e+003, 1.524428e-002
3.949500e+003, 1.587257e-002
3.951428e+003, 1.467136e-002
3.953357e+003, 1.415320e-002
3.955285e+003, 1.432733e-002
3.957214e+003, 1.572432e-002
3.959142e+003, 1.623300e-002
3.961071e+003, 1.472573e-002
3.962999e+003, 1.391553e-002
3.964927e+003, 1.429789e-002
3.966856e+003, 1.499774e-002
3.968784e+003, 1.462371e-002
3.970713e+003, 1.562742e-002
3.972641e+003, 1.601205e-002
3.974570e+003, 1.519510e-002
3.976498e+003, 1.558367e-002
3.978427e+003, 1.725203e-002
3.980355e+003, 1.713825e-002
3.982284e+003, 1.726511e-002
3.984212e+003, 1.735717e-002
3.986141e+003, 1.491116e-002
3.988069e+003, 1.465571e-002
3.989998e+003, 1.537421e-002
3.991926e+003, 1.495074e-002
3.993854e+003, 1.617956e-002
3.995783e+003, 1.731048e-002
3.997711e+003, 1.689385e-002
3.999640e+003, 1.689662e-002
##END=



