##NAMES=Senarmontite
##RRUFFID=R060075
##IDEAL CHEMISTRY=Sb^3+^_2_O_3_
##LOCALITY=Djebel Haminate mine, Constantine, Algeria
##OWNER=RRUFF
##SOURCE=University of Arizona Mineral Museum
##DESCRIPTION=Brown octahedra
##STATUS=The identification of this mineral has been confirmed by X-ray diffraction and chemical analysis
##URL=rruff.info/R060075
##MEASURED CHEMISTRY=Sb_2.00_O_3_
3.741225e+002, 5.440483e-001
3.760510e+002, 5.181207e-001
3.779795e+002, 4.694486e-001
3.799079e+002, 4.329929e-001
3.818364e+002, 3.867911e-001
3.837649e+002, 3.448525e-001
3.856933e+002, 3.002122e-001
3.876218e+002, 2.473048e-001
3.895503e+002, 2.067080e-001
3.914787e+002, 1.812424e-001
3.934072e+002, 1.708151e-001
3.953357e+002, 1.757824e-001
3.972641e+002, 1.888058e-001
3.991926e+002, 1.940915e-001
4.011211e+002, 1.889113e-001
4.030495e+002, 1.704234e-001
4.049780e+002, 1.457511e-001
4.069065e+002, 1.250700e-001
4.088349e+002, 1.036916e-001
4.107634e+002, 8.319947e-002
4.126919e+002, 6.626662e-002
4.146203e+002, 5.479062e-002
4.165488e+002, 4.858366e-002
4.184773e+002, 4.593591e-002
4.204057e+002, 4.608845e-002
4.223342e+002, 4.822176e-002
4.242627e+002, 4.727349e-002
4.261911e+002, 4.436237e-002
4.281196e+002, 4.240673e-002
4.300481e+002, 4.117444e-002
4.319765e+002, 3.977653e-002
4.339050e+002, 3.843436e-002
4.358335e+002, 3.853121e-002
4.377619e+002, 3.935102e-002
4.396904e+002, 4.047386e-002
4.416189e+002, 4.115125e-002
4.435473e+002, 4.251223e-002
4.454758e+002, 4.536329e-002
4.474043e+002, 4.826944e-002
4.493327e+002, 5.060720e-002
4.512612e+002, 5.302613e-002
4.531897e+002, 5.581585e-002
4.551181e+002, 5.800770e-002
4.570466e+002, 6.024920e-002
4.589751e+002, 6.217527e-002
4.609035e+002, 6.336106e-002
4.628320e+002, 6.430855e-002
4.647605e+002, 6.489985e-002
4.666889e+002, 6.604732e-002
4.686174e+002, 6.830756e-002
4.705459e+002, 7.118977e-002
4.724743e+002, 7.435823e-002
4.744028e+002, 7.914942e-002
4.763313e+002, 8.557837e-002
4.782597e+002, 9.342490e-002
4.801882e+002, 1.001707e-001
4.821167e+002, 9.966528e-002
4.840451e+002, 9.314626e-002
4.859736e+002, 8.880845e-002
4.879021e+002, 8.917602e-002
4.898305e+002, 9.223000e-002
4.917590e+002, 9.625795e-002
4.936875e+002, 1.008986e-001
4.956159e+002, 1.057600e-001
4.975444e+002, 1.106286e-001
4.994729e+002, 1.156243e-001
5.014013e+002, 1.211676e-001
5.033298e+002, 1.268110e-001
5.052583e+002, 1.321363e-001
5.071867e+002, 1.373384e-001
5.091152e+002, 1.416244e-001
5.110437e+002, 1.458181e-001
5.129721e+002, 1.504524e-001
5.149006e+002, 1.548742e-001
5.168290e+002, 1.602290e-001
5.187575e+002, 1.662008e-001
5.206860e+002, 1.720502e-001
5.226144e+002, 1.784160e-001
5.245429e+002, 1.847720e-001
5.264714e+002, 1.912841e-001
5.283998e+002, 1.982877e-001
5.303283e+002, 2.052550e-001
5.322568e+002, 2.124120e-001
5.341852e+002, 2.189342e-001
5.361137e+002, 2.247015e-001
5.380422e+002, 2.308652e-001
5.399706e+002, 2.375231e-001
5.418991e+002, 2.441172e-001
5.438276e+002, 2.512707e-001
5.457560e+002, 2.582529e-001
5.476845e+002, 2.658677e-001
5.496130e+002, 2.735963e-001
5.515414e+002, 2.812935e-001
5.534699e+002, 2.893440e-001
5.553984e+002, 2.969842e-001
5.573268e+002, 3.033769e-001
5.592553e+002, 3.091867e-001
5.611838e+002, 3.154814e-001
5.631122e+002, 3.213801e-001
5.650407e+002, 3.270506e-001
5.669692e+002, 3.338630e-001
5.688976e+002, 3.415183e-001
5.708261e+002, 3.489866e-001
5.727546e+002, 3.563066e-001
5.746830e+002, 3.638192e-001
5.766115e+002, 3.716111e-001
5.785400e+002, 3.780963e-001
5.804684e+002, 3.867051e-001
5.823969e+002, 3.958486e-001
5.843254e+002, 4.041922e-001
5.862538e+002, 4.126178e-001
5.881823e+002, 4.204200e-001
5.901108e+002, 4.278859e-001
5.920392e+002, 4.360826e-001
5.939677e+002, 4.441828e-001
5.958962e+002, 4.530121e-001
5.978246e+002, 4.620498e-001
5.997531e+002, 4.711135e-001
6.016816e+002, 4.804900e-001
6.036100e+002, 4.886402e-001
6.055385e+002, 4.954414e-001
6.074670e+002, 5.035806e-001
6.093954e+002, 5.109919e-001
6.113239e+002, 5.179862e-001
6.132524e+002, 5.249732e-001
6.151808e+002, 5.291876e-001
6.171093e+002, 5.308689e-001
6.190378e+002, 5.340015e-001
6.209662e+002, 5.396535e-001
6.228947e+002, 5.476510e-001
6.248232e+002, 5.578464e-001
6.267516e+002, 5.693353e-001
6.286801e+002, 5.814123e-001
6.306086e+002, 5.929922e-001
6.325370e+002, 6.041428e-001
6.344655e+002, 6.151596e-001
6.363940e+002, 6.248931e-001
6.383224e+002, 6.349931e-001
6.402509e+002, 6.460835e-001
6.421794e+002, 6.561397e-001
6.441078e+002, 6.655218e-001
6.460363e+002, 6.757513e-001
6.479648e+002, 6.855017e-001
6.498932e+002, 6.962478e-001
6.518217e+002, 7.071296e-001
6.537502e+002, 7.170306e-001
6.556786e+002, 7.274502e-001
6.576071e+002, 7.391056e-001
6.595356e+002, 7.498801e-001
6.614641e+002, 7.604895e-001
6.633925e+002, 7.715538e-001
6.653210e+002, 7.818046e-001
6.672495e+002, 7.895701e-001
6.691779e+002, 7.968874e-001
6.711064e+002, 8.041790e-001
6.730349e+002, 8.115812e-001
6.749633e+002, 8.181535e-001
6.768918e+002, 8.236347e-001
6.788203e+002, 8.301095e-001
6.807487e+002, 8.377668e-001
6.826772e+002, 8.453445e-001
6.846057e+002, 8.497272e-001
6.865341e+002, 8.538299e-001
6.884626e+002, 8.593484e-001
6.903911e+002, 8.615024e-001
6.923195e+002, 8.632107e-001
6.942480e+002, 8.636893e-001
6.961765e+002, 8.624186e-001
6.981049e+002, 8.580506e-001
7.000334e+002, 8.525307e-001
7.019619e+002, 8.441613e-001
7.038903e+002, 8.313234e-001
7.058188e+002, 8.152701e-001
7.077473e+002, 7.944128e-001
7.096757e+002, 7.674773e-001
7.116042e+002, 7.381505e-001
7.135327e+002, 7.067968e-001
7.154611e+002, 6.732806e-001
7.173896e+002, 6.378310e-001
7.193181e+002, 6.018342e-001
7.212465e+002, 5.666227e-001
7.231750e+002, 5.331799e-001
7.251035e+002, 5.027967e-001
7.270319e+002, 4.758301e-001
7.289604e+002, 4.528166e-001
7.308889e+002, 4.325083e-001
7.328173e+002, 4.136827e-001
7.347458e+002, 3.950502e-001
7.366743e+002, 3.753945e-001
7.386027e+002, 3.551338e-001
7.405312e+002, 3.355839e-001
7.424597e+002, 3.175772e-001
7.443881e+002, 3.011383e-001
7.463166e+002, 2.867645e-001
7.482451e+002, 2.739301e-001
7.501735e+002, 2.625386e-001
7.521020e+002, 2.525149e-001
7.540305e+002, 2.431534e-001
7.559589e+002, 2.340996e-001
7.578874e+002, 2.249729e-001
7.598159e+002, 2.153098e-001
7.617443e+002, 2.055836e-001
7.636728e+002, 1.956570e-001
7.656013e+002, 1.855310e-001
7.675297e+002, 1.759555e-001
7.694582e+002, 1.671440e-001
7.713867e+002, 1.593458e-001
7.733151e+002, 1.526078e-001
7.752436e+002, 1.461820e-001
7.771721e+002, 1.396402e-001
7.791005e+002, 1.327077e-001
7.810290e+002, 1.246146e-001
7.829575e+002, 1.157059e-001
7.848859e+002, 1.068765e-001
7.868144e+002, 9.867932e-002
7.887429e+002, 9.142014e-002
7.906713e+002, 8.446453e-002
7.925998e+002, 7.757859e-002
7.945283e+002, 7.088871e-002
7.964567e+002, 6.434807e-002
7.983852e+002, 5.804849e-002
8.003137e+002, 5.188061e-002
8.022421e+002, 4.566824e-002
8.041706e+002, 3.953755e-002
8.060991e+002, 3.388197e-002
8.080275e+002, 2.894801e-002
8.099560e+002, 2.485511e-002
8.118845e+002, 2.143805e-002
8.138129e+002, 1.870465e-002
8.157414e+002, 1.690056e-002
8.176699e+002, 1.582028e-002
8.195983e+002, 1.511918e-002
8.215268e+002, 1.460947e-002
8.234553e+002, 1.428756e-002
8.253837e+002, 1.413109e-002
8.273122e+002, 1.379564e-002
8.292407e+002, 1.312150e-002
8.311691e+002, 1.230581e-002
8.330976e+002, 1.168809e-002
8.350261e+002, 1.116600e-002
8.369545e+002, 1.057801e-002
8.388830e+002, 1.004388e-002
8.408115e+002, 9.524364e-003
8.427399e+002, 8.963746e-003
8.446684e+002, 8.653804e-003
8.465969e+002, 8.445506e-003
8.485253e+002, 7.933855e-003
8.504538e+002, 7.378277e-003
8.523823e+002, 6.903940e-003
8.543107e+002, 6.090563e-003
8.562392e+002, 5.290969e-003
8.581677e+002, 4.625332e-003
8.600961e+002, 3.881303e-003
8.620246e+002, 3.072149e-003
8.639531e+002, 2.446954e-003
8.658815e+002, 1.864670e-003
8.678100e+002, 1.308446e-003
8.697385e+002, 7.806597e-004
8.716669e+002, 3.436999e-004
8.735954e+002, 8.929987e-005
8.755239e+002, 1.794659e-005
8.774523e+002, -1.753792e-004
8.793808e+002, -3.725346e-004
8.813093e+002, -4.260596e-004
8.832377e+002, -3.871527e-004
8.851662e+002, -4.854072e-004
8.870947e+002, -6.792303e-004
8.890231e+002, -8.942913e-004
8.909516e+002, -8.646604e-004
8.928801e+002, -6.950647e-004
8.948085e+002, -4.639067e-004
8.967370e+002, -1.512058e-004
8.986655e+002, 1.329146e-004
9.005939e+002, 5.277917e-004
9.025224e+002, 1.092913e-003
9.044509e+002, 1.757998e-003
9.063793e+002, 2.419746e-003
9.083078e+002, 3.192166e-003
9.102363e+002, 4.092125e-003
9.121647e+002, 4.999127e-003
9.140932e+002, 6.019421e-003
9.160217e+002, 7.271061e-003
9.179501e+002, 8.815225e-003
9.198786e+002, 1.070612e-002
9.218071e+002, 1.283569e-002
9.237355e+002, 1.501493e-002
9.256640e+002, 1.757629e-002
9.275925e+002, 2.043654e-002
9.295209e+002, 2.352917e-002
9.314494e+002, 2.688704e-002
9.333779e+002, 3.069891e-002
9.353063e+002, 3.495228e-002
9.372348e+002, 3.958704e-002
9.391633e+002, 4.484905e-002
9.410917e+002, 5.039233e-002
9.430202e+002, 5.576331e-002
9.449487e+002, 6.078862e-002
9.468771e+002, 6.506478e-002
9.488056e+002, 6.823902e-002
9.507341e+002, 7.041978e-002
9.526625e+002, 7.180342e-002
9.545910e+002, 7.236096e-002
9.565195e+002, 7.257282e-002
9.584479e+002, 7.264788e-002
9.603764e+002, 7.292411e-002
9.623049e+002, 7.347240e-002
9.642333e+002, 7.389628e-002
9.661618e+002, 7.415859e-002
9.680903e+002, 7.410564e-002
9.700187e+002, 7.342514e-002
9.719472e+002, 7.213798e-002
9.738757e+002, 7.029475e-002
9.758041e+002, 6.786780e-002
9.777326e+002, 6.502897e-002
9.796611e+002, 6.190329e-002
9.815895e+002, 5.893216e-002
9.835180e+002, 5.627324e-002
9.854465e+002, 5.359846e-002
9.873749e+002, 5.065915e-002
9.893034e+002, 4.770237e-002
9.912319e+002, 4.461460e-002
9.931603e+002, 4.114360e-002
9.950888e+002, 3.745853e-002
9.970173e+002, 3.369013e-002
9.989457e+002, 3.001703e-002
1.000874e+003, 2.650472e-002
1.002803e+003, 2.339200e-002
1.004731e+003, 2.088629e-002
1.006660e+003, 1.880632e-002
1.008588e+003, 1.684923e-002
1.010517e+003, 1.500524e-002
1.012445e+003, 1.365831e-002
1.014373e+003, 1.257507e-002
1.016302e+003, 1.146853e-002
1.018230e+003, 1.048559e-002
1.020159e+003, 9.712916e-003
1.022087e+003, 9.012662e-003
1.024016e+003, 8.239988e-003
1.025944e+003, 7.734738e-003
1.027873e+003, 7.643841e-003
1.029801e+003, 7.652216e-003
1.031730e+003, 7.698752e-003
1.033658e+003, 7.750180e-003
1.035587e+003, 7.778671e-003
1.037515e+003, 7.813983e-003
1.039443e+003, 7.853661e-003
1.041372e+003, 7.895481e-003
1.043300e+003, 7.906515e-003
1.045229e+003, 7.988278e-003
1.047157e+003, 8.239325e-003
1.049086e+003, 8.588940e-003
1.051014e+003, 8.932378e-003
1.052943e+003, 9.351689e-003
1.054871e+003, 9.863906e-003
1.056800e+003, 1.033063e-002
1.058728e+003, 1.087094e-002
1.060657e+003, 1.141626e-002
1.062585e+003, 1.222982e-002
1.064514e+003, 1.305424e-002
1.066442e+003, 1.367109e-002
1.068370e+003, 1.438197e-002
1.070299e+003, 1.532365e-002
1.072227e+003, 1.621522e-002
1.074156e+003, 1.704849e-002
1.076084e+003, 1.775811e-002
1.078013e+003, 1.842414e-002
1.079941e+003, 1.906344e-002
1.081870e+003, 1.955931e-002
1.083798e+003, 2.007491e-002
1.085727e+003, 2.046259e-002
1.087655e+003, 2.081148e-002
1.089584e+003, 2.126203e-002
1.091512e+003, 2.169772e-002
1.093441e+003, 2.210004e-002
1.095369e+003, 2.234226e-002
1.097297e+003, 2.237312e-002
1.099226e+003, 2.223289e-002
1.101154e+003, 2.182982e-002
1.103083e+003, 2.122313e-002
1.105011e+003, 2.036503e-002
1.106940e+003, 1.933761e-002
1.108868e+003, 1.844210e-002
1.110797e+003, 1.773459e-002
1.112725e+003, 1.689300e-002
1.114654e+003, 1.607836e-002
1.116582e+003, 1.522321e-002
1.118511e+003, 1.438440e-002
1.120439e+003, 1.355192e-002
1.122368e+003, 1.269099e-002
1.124296e+003, 1.183363e-002
1.126224e+003, 1.099363e-002
1.128153e+003, 1.022960e-002
1.130081e+003, 9.437334e-003
1.132010e+003, 8.774795e-003
1.133938e+003, 8.278854e-003
1.135867e+003, 7.822491e-003
1.137795e+003, 7.336278e-003
1.139724e+003, 6.905805e-003
1.141652e+003, 6.554838e-003
1.143581e+003, 6.218374e-003
1.145509e+003, 6.076131e-003
1.147438e+003, 6.073616e-003
1.149366e+003, 6.125018e-003
1.151295e+003, 6.224569e-003
1.153223e+003, 6.307431e-003
1.155151e+003, 6.569326e-003
1.157080e+003, 7.042851e-003
1.159008e+003, 7.644691e-003
1.160937e+003, 8.319959e-003
1.162865e+003, 8.916426e-003
1.164794e+003, 9.428453e-003
1.166722e+003, 9.780444e-003
1.168651e+003, 9.921491e-003
1.170579e+003, 9.852957e-003
1.172508e+003, 9.749640e-003
1.174436e+003, 9.573881e-003
1.176365e+003, 9.254456e-003
1.178293e+003, 8.902363e-003
1.180222e+003, 8.481737e-003
1.182150e+003, 7.973526e-003
1.184078e+003, 7.505469e-003
1.186007e+003, 7.114038e-003
1.187935e+003, 6.684747e-003
1.189864e+003, 6.320164e-003
1.191792e+003, 5.878311e-003
1.193721e+003, 5.406253e-003
1.195649e+003, 4.924715e-003
1.197578e+003, 4.423637e-003
1.199506e+003, 3.918115e-003
1.201435e+003, 3.329106e-003
1.203363e+003, 2.602272e-003
1.205292e+003, 1.985002e-003
1.207220e+003, 1.398358e-003
1.209149e+003, 8.259229e-004
1.211077e+003, 3.794208e-004
1.213005e+003, -5.843863e-005
1.214934e+003, -4.577488e-004
1.216862e+003, -7.711351e-004
1.218791e+003, -1.087889e-003
1.220719e+003, -1.296271e-003
1.222648e+003, -1.475345e-003
1.224576e+003, -1.565747e-003
1.226505e+003, -1.559455e-003
1.228433e+003, -1.593687e-003
1.230362e+003, -1.514461e-003
1.232290e+003, -1.466274e-003
1.234219e+003, -1.527227e-003
1.236147e+003, -1.600876e-003
1.238076e+003, -1.683690e-003
1.240004e+003, -1.678787e-003
1.241932e+003, -1.594216e-003
1.243861e+003, -1.480296e-003
1.245789e+003, -1.505107e-003
1.247718e+003, -1.637578e-003
1.249646e+003, -1.715571e-003
1.251575e+003, -1.833558e-003
1.253503e+003, -1.853481e-003
1.255432e+003, -1.894616e-003
1.257360e+003, -1.970328e-003
1.259289e+003, -1.893684e-003
1.261217e+003, -1.639426e-003
1.263146e+003, -1.518540e-003
1.265074e+003, -1.286313e-003
1.267003e+003, -7.999763e-004
1.268931e+003, -1.779199e-004
1.270859e+003, 3.643706e-004
1.272788e+003, 7.020161e-004
1.274716e+003, 8.016750e-004
1.276645e+003, 6.052926e-004
1.278573e+003, 3.082007e-004
1.280502e+003, 3.238022e-005
1.282430e+003, -2.885461e-004
1.284359e+003, -6.429330e-004
1.286287e+003, -9.324625e-004
1.288216e+003, -1.284786e-003
1.290144e+003, -1.583025e-003
1.292073e+003, -1.716077e-003
1.294001e+003, -1.769520e-003
1.295930e+003, -1.833901e-003
1.297858e+003, -1.857422e-003
1.299786e+003, -1.769111e-003
1.301715e+003, -1.675919e-003
1.303643e+003, -1.516171e-003
1.305572e+003, -1.420617e-003
1.307500e+003, -1.397863e-003
1.309429e+003, -1.273550e-003
1.311357e+003, -1.267999e-003
1.313286e+003, -1.189999e-003
1.315214e+003, -1.088001e-003
1.317143e+003, -9.638965e-004
1.319071e+003, -9.210631e-004
1.321000e+003, -8.922219e-004
1.322928e+003, -7.971078e-004
1.324857e+003, -7.207841e-004
1.326785e+003, -6.981492e-004
1.328714e+003, -7.571802e-004
1.330642e+003, -7.748082e-004
1.332570e+003, -7.418990e-004
1.334499e+003, -6.033257e-004
1.336427e+003, -4.838333e-004
1.338356e+003, -5.110949e-004
1.340284e+003, -4.284084e-004
1.342213e+003, -3.667697e-004
1.344141e+003, -4.093871e-004
1.346070e+003, -5.003586e-004
1.347998e+003, -5.111247e-004
1.349927e+003, -5.246848e-004
1.351855e+003, -5.754903e-004
1.353784e+003, -5.932972e-004
1.355712e+003, -5.036741e-004
1.357641e+003, -5.115569e-004
1.359569e+003, -5.918369e-004
1.361497e+003, -4.901960e-004
1.363426e+003, -3.909022e-004
1.365354e+003, -3.129393e-004
1.367283e+003, -2.394095e-004
1.369211e+003, -1.478344e-004
1.371140e+003, 7.243454e-005
1.373068e+003, 3.971756e-004
1.374997e+003, 7.810444e-004
1.376925e+003, 1.001120e-003
1.378854e+003, 8.679479e-004
1.380782e+003, 3.546029e-004
1.382711e+003, -2.405271e-004
1.384639e+003, -6.601885e-004
1.386568e+003, -9.431690e-004
1.388496e+003, -9.862110e-004
1.390424e+003, -9.886622e-004
1.392353e+003, -1.021966e-003
1.394281e+003, -9.900481e-004
1.396210e+003, -8.664355e-004
1.398138e+003, -7.248372e-004
1.400067e+003, -6.555244e-004
1.401995e+003, -5.880594e-004
1.403924e+003, -4.121959e-004
1.405852e+003, -1.851842e-004
1.407781e+003, -1.775697e-004
1.409709e+003, -2.213046e-004
1.411638e+003, -1.418293e-004
1.413566e+003, -1.950040e-004
1.415495e+003, -3.421083e-004
1.417423e+003, -4.273877e-004
1.419351e+003, -3.668666e-004
1.421280e+003, -7.531047e-005
1.423208e+003, 2.382472e-004
1.425137e+003, 4.469529e-004
1.427065e+003, 6.836206e-004
1.428994e+003, 1.057699e-003
1.430922e+003, 1.445942e-003
1.432851e+003, 1.761995e-003
1.434779e+003, 1.909420e-003
1.436708e+003, 2.014048e-003
1.438636e+003, 2.218813e-003
1.440565e+003, 2.483115e-003
1.442493e+003, 2.695702e-003
1.444422e+003, 2.858214e-003
1.446350e+003, 3.059544e-003
1.448278e+003, 3.321439e-003
1.450207e+003, 3.612690e-003
1.452135e+003, 3.865167e-003
1.454064e+003, 4.047692e-003
1.455992e+003, 4.122816e-003
1.457921e+003, 4.358366e-003
1.459849e+003, 4.552655e-003
1.461778e+003, 4.579805e-003
1.463706e+003, 4.478067e-003
1.465635e+003, 4.236199e-003
1.467563e+003, 3.616087e-003
1.469492e+003, 2.631575e-003
1.471420e+003, 1.468159e-003
1.473349e+003, 6.062016e-004
1.475277e+003, 9.510666e-005
1.477205e+003, -1.404360e-004
1.479134e+003, -1.738891e-004
1.481062e+003, -2.728403e-004
1.482991e+003, -5.104542e-004
1.484919e+003, -6.035119e-004
1.486848e+003, -5.490333e-004
1.488776e+003, -4.545823e-004
1.490705e+003, -5.112588e-004
1.492633e+003, -6.075501e-004
1.494562e+003, -5.865023e-004
1.496490e+003, -5.601346e-004
1.498419e+003, -5.999058e-004
1.500347e+003, -5.963296e-004
1.502276e+003, -5.060956e-004
1.504204e+003, -5.818978e-004
1.506132e+003, -7.722229e-004
1.508061e+003, -7.580295e-004
1.509989e+003, -6.275997e-004
1.511918e+003, -6.637275e-004
1.513846e+003, -7.626265e-004
1.515775e+003, -7.476136e-004
1.517703e+003, -7.652342e-004
1.519632e+003, -9.159371e-004
1.521560e+003, -9.815991e-004
1.523489e+003, -8.479282e-004
1.525417e+003, -8.448586e-004
1.527346e+003, -8.933097e-004
1.529274e+003, -8.636639e-004
1.531203e+003, -8.243099e-004
1.533131e+003, -8.054897e-004
1.535059e+003, -8.249208e-004
1.536988e+003, -9.657443e-004
1.538916e+003, -1.083456e-003
1.540845e+003, -9.821281e-004
1.542773e+003, -1.005277e-003
1.544702e+003, -9.978637e-004
1.546630e+003, -8.553937e-004
1.548559e+003, -7.876903e-004
1.550487e+003, -8.220971e-004
1.552416e+003, -8.167103e-004
1.554344e+003, -8.087382e-004
1.556273e+003, -8.146018e-004
1.558201e+003, -9.871945e-004
1.560130e+003, -9.142086e-004
1.562058e+003, -6.299317e-004
1.563986e+003, -5.260557e-004
1.565915e+003, -5.149543e-004
1.567843e+003, -3.771484e-004
1.569772e+003, -3.381297e-004
1.571700e+003, -2.668798e-004
1.573629e+003, -2.430901e-004
1.575557e+003, -4.125088e-004
1.577486e+003, -2.108738e-004
1.579414e+003, -1.449585e-004
1.581343e+003, -1.626313e-004
1.583271e+003, -1.610667e-004
1.585200e+003, -1.872331e-004
1.587128e+003, -6.622076e-005
1.589057e+003, 7.870793e-005
1.590985e+003, 2.573878e-004
1.592913e+003, 3.494024e-004
1.594842e+003, 3.410280e-004
1.596770e+003, 3.490895e-004
1.598699e+003, 5.557388e-004
1.600627e+003, 7.891208e-004
1.602556e+003, 8.786023e-004
1.604484e+003, 9.245723e-004
1.606413e+003, 1.072466e-003
1.608341e+003, 1.174971e-003
1.610270e+003, 1.273587e-003
1.612198e+003, 1.436964e-003
1.614127e+003, 1.475811e-003
1.616055e+003, 1.486704e-003
1.617984e+003, 1.651183e-003
1.619912e+003, 1.755774e-003
1.621840e+003, 1.761943e-003
1.623769e+003, 1.757801e-003
1.625697e+003, 1.767308e-003
1.627626e+003, 1.799434e-003
1.629554e+003, 1.794219e-003
1.631483e+003, 1.813322e-003
1.633411e+003, 1.901746e-003
1.635340e+003, 1.757041e-003
1.637268e+003, 1.646668e-003
1.639197e+003, 1.711905e-003
1.641125e+003, 1.817361e-003
1.643054e+003, 1.799524e-003
1.644982e+003, 1.697138e-003
1.646911e+003, 1.597837e-003
1.648839e+003, 1.425534e-003
1.650767e+003, 1.097441e-003
1.652696e+003, 1.007631e-003
1.654624e+003, 1.078919e-003
1.656553e+003, 1.170889e-003
1.658481e+003, 1.233011e-003
1.660410e+003, 1.214057e-003
1.662338e+003, 1.172498e-003
1.664267e+003, 1.145199e-003
1.666195e+003, 1.079217e-003
1.668124e+003, 1.063228e-003
1.670052e+003, 1.155749e-003
1.671981e+003, 1.126572e-003
1.673909e+003, 1.125485e-003
1.675838e+003, 1.299486e-003
1.677766e+003, 1.305893e-003
1.679694e+003, 1.263395e-003
1.681623e+003, 1.461729e-003
1.683551e+003, 1.596436e-003
1.685480e+003, 1.628160e-003
1.687408e+003, 1.881555e-003
1.689337e+003, 2.207607e-003
1.691265e+003, 2.332062e-003
1.693194e+003, 2.433643e-003
1.695122e+003, 2.784595e-003
1.697051e+003, 3.504902e-003
1.698979e+003, 3.988668e-003
1.700908e+003, 4.376039e-003
1.702836e+003, 4.880860e-003
1.704765e+003, 5.253211e-003
1.706693e+003, 5.792126e-003
1.708621e+003, 6.236330e-003
1.710550e+003, 6.296426e-003
1.712478e+003, 6.303340e-003
1.714407e+003, 6.398916e-003
1.716335e+003, 6.368771e-003
1.718264e+003, 6.264329e-003
1.720192e+003, 6.274953e-003
1.722121e+003, 6.200135e-003
1.724049e+003, 5.836308e-003
1.725978e+003, 5.396739e-003
1.727906e+003, 4.874647e-003
1.729835e+003, 4.200384e-003
1.731763e+003, 3.300235e-003
1.733692e+003, 2.517641e-003
1.735620e+003, 2.083540e-003
1.737548e+003, 1.419276e-003
1.739477e+003, 7.921904e-004
1.741405e+003, 3.314614e-004
1.743334e+003, -3.243238e-004
1.745262e+003, -8.302927e-004
1.747191e+003, -1.257494e-003
1.749119e+003, -1.450270e-003
1.751048e+003, -1.367792e-003
1.752976e+003, -1.261160e-003
1.754905e+003, -1.176864e-003
1.756833e+003, -1.040056e-003
1.758762e+003, -8.863360e-004
1.760690e+003, -7.610768e-004
1.762619e+003, -6.549358e-004
1.764547e+003, -4.510581e-004
1.766475e+003, -4.794002e-004
1.768404e+003, -6.835908e-004
1.770332e+003, -6.572455e-004
1.772261e+003, -7.138997e-004
1.774189e+003, -7.088631e-004
1.776118e+003, -5.449653e-004
1.778046e+003, -5.455464e-004
1.779975e+003, -5.598366e-004
1.781903e+003, -5.129874e-004
1.783832e+003, -3.492236e-004
1.785760e+003, -4.197657e-004
1.787689e+003, -5.539507e-004
1.789617e+003, -4.898459e-004
1.791546e+003, -5.303323e-004
1.793474e+003, -4.750043e-004
1.795402e+003, -2.953112e-004
1.797331e+003, -6.120205e-004
1.799259e+003, -9.626448e-004
1.801188e+003, -7.611364e-004
1.803116e+003, -5.933344e-004
1.805045e+003, -6.315410e-004
1.806973e+003, -7.488877e-004
1.808902e+003, -6.631017e-004
1.810830e+003, -6.777346e-004
1.812759e+003, -8.142591e-004
1.814687e+003, -1.141027e-003
1.816616e+003, -1.147866e-003
1.818544e+003, -7.243007e-004
1.820473e+003, -4.238188e-004
1.822401e+003, -3.939271e-004
1.824329e+003, -4.277378e-004
1.826258e+003, -3.742278e-004
1.828186e+003, -3.046244e-004
1.830115e+003, -1.563579e-004
1.832043e+003, -1.637936e-004
1.833972e+003, -3.350079e-004
1.835900e+003, -5.063117e-004
1.837829e+003, -5.790740e-004
1.839757e+003, -5.074739e-004
1.841686e+003, -3.818721e-004
1.843614e+003, -3.552884e-004
1.845543e+003, -9.165704e-005
1.847471e+003, -6.669760e-005
1.849400e+003, -3.711879e-005
1.851328e+003, -8.018315e-005
1.853256e+003, -2.392828e-004
1.855185e+003, -2.236813e-004
1.857113e+003, -4.843473e-004
1.859042e+003, -5.189627e-004
1.860970e+003, -3.387928e-004
1.862899e+003, -3.223568e-004
1.864827e+003, -1.929700e-004
1.866756e+003, -9.045005e-005
1.868684e+003, -1.824498e-004
1.870613e+003, -3.373176e-004
1.872541e+003, -4.932433e-004
1.874470e+003, -5.573779e-004
1.876398e+003, -4.807264e-004
1.878327e+003, -2.758801e-004
1.880255e+003, -1.979172e-004
1.882183e+003, -3.859252e-004
1.884112e+003, -3.399849e-004
1.886040e+003, -3.958642e-004
1.887969e+003, -4.176050e-004
1.889897e+003, -1.935661e-004
1.891826e+003, -1.197606e-004
1.893754e+003, -4.148483e-004
1.895683e+003, -9.632260e-004
1.897611e+003, -1.031190e-003
1.899540e+003, -7.139593e-004
1.901468e+003, -5.274415e-004
1.903397e+003, -4.422069e-004
1.905325e+003, -4.841238e-004
1.907254e+003, -3.637373e-004
1.909182e+003, -4.527569e-004
1.911110e+003, -3.957152e-004
1.913039e+003, -2.592504e-004
1.914967e+003, -4.599392e-004
1.916896e+003, -4.839152e-004
1.918824e+003, 2.141148e-004
1.920753e+003, -1.318753e-005
1.922681e+003, -4.399270e-004
1.924610e+003, -3.035218e-004
1.926538e+003, -1.500249e-004
1.928467e+003, 1.879632e-004
1.930395e+003, 5.099326e-004
1.932324e+003, -5.319715e-006
1.934252e+003, -7.183552e-004
1.936181e+003, -5.343109e-004
1.938109e+003, -2.539754e-004
1.940037e+003, 8.423626e-005
1.941966e+003, 6.452948e-004
1.943894e+003, 9.921342e-004
1.945823e+003, -8.757412e-005
1.947751e+003, -5.518347e-004
1.949680e+003, 1.924783e-004
1.951608e+003, 6.763637e-004
1.953537e+003, 1.616031e-004
1.955465e+003, -5.028695e-004
1.957394e+003, -8.584410e-004
1.959322e+003, -5.433261e-004
1.961251e+003, -1.200885e-004
1.963179e+003, 6.566197e-004
1.965108e+003, 1.186743e-003
1.967036e+003, 1.070574e-003
1.968964e+003, 6.964505e-004
1.970893e+003, 4.685819e-004
1.972821e+003, 5.529821e-005
1.974750e+003, 1.499802e-004
1.976678e+003, 1.803532e-003
1.978607e+003, 3.955126e-003
1.980535e+003, 3.919765e-003
1.982464e+003, 3.125548e-003
1.984392e+003, 3.186777e-003
1.986321e+003, 2.230480e-003
1.988249e+003, 1.643747e-003
1.990178e+003, 2.223343e-003
1.992106e+003, 1.948014e-003
1.994035e+003, 1.842842e-003
1.995963e+003, 2.050057e-003
1.997891e+003, 1.855657e-003
1.999820e+003, 1.803219e-003
2.001748e+003, 1.392499e-003
2.003677e+003, 1.071453e-003
2.005605e+003, 1.717672e-003
2.007534e+003, 2.526894e-003
2.009462e+003, 3.049180e-003
2.011391e+003, 3.439784e-003
2.013319e+003, 3.416970e-003
2.015248e+003, 2.921000e-003
2.017176e+003, 3.026739e-003
2.019105e+003, 2.939597e-003
2.021033e+003, 2.509505e-003
2.022962e+003, 1.720577e-003
2.024890e+003, 1.547471e-003
2.026818e+003, 2.637982e-003
2.028747e+003, 3.169179e-003
2.030675e+003, 3.000617e-003
2.032604e+003, 3.295884e-003
2.034532e+003, 4.061818e-003
2.036461e+003, 4.883915e-003
2.038389e+003, 4.937947e-003
2.040318e+003, 4.184186e-003
2.042246e+003, 4.080415e-003
2.044175e+003, 4.373685e-003
2.046103e+003, 4.663900e-003
2.048031e+003, 5.326152e-003
2.049960e+003, 5.997196e-003
2.051888e+003, 4.479960e-003
2.053817e+003, 3.763378e-003
2.055745e+003, 3.997058e-003
2.057674e+003, 3.187433e-003
2.059602e+003, 3.405467e-003
2.061531e+003, 3.906220e-003
2.063459e+003, 3.812596e-003
2.065388e+003, 3.818825e-003
2.067316e+003, 3.881395e-003
2.069245e+003, 4.053786e-003
2.071173e+003, 3.788054e-003
2.073102e+003, 3.576547e-003
2.075030e+003, 4.277825e-003
2.076958e+003, 4.356697e-003
2.078887e+003, 4.484370e-003
2.080815e+003, 4.602447e-003
2.082744e+003, 3.965050e-003
2.084672e+003, 3.586605e-003
2.086601e+003, 3.467739e-003
2.088529e+003, 3.063813e-003
2.090458e+003, 2.574503e-003
2.092386e+003, 2.046272e-003
2.094315e+003, 2.586290e-003
2.096243e+003, 3.610119e-003
2.098172e+003, 3.611445e-003
2.100100e+003, 3.366008e-003
2.102029e+003, 3.310680e-003
2.103957e+003, 3.134653e-003
2.105885e+003, 3.419310e-003
2.107814e+003, 3.996596e-003
2.109742e+003, 3.797546e-003
2.111671e+003, 3.781632e-003
2.113599e+003, 3.946394e-003
2.115528e+003, 3.647402e-003
2.117456e+003, 3.312156e-003
2.119385e+003, 2.918690e-003
2.121313e+003, 2.367899e-003
2.123242e+003, 2.152205e-003
2.125170e+003, 2.357677e-003
2.127099e+003, 2.443120e-003
2.129027e+003, 2.085537e-003
2.130956e+003, 1.542807e-003
2.132884e+003, 2.020225e-003
2.134813e+003, 3.072292e-003
2.136741e+003, 2.641693e-003
2.138669e+003, 2.646372e-003
2.140598e+003, 3.315836e-003
2.142526e+003, 2.887741e-003
2.144455e+003, 2.517775e-003
2.146383e+003, 2.930999e-003
2.148312e+003, 3.172472e-003
2.150240e+003, 2.777115e-003
2.152169e+003, 2.186432e-003
2.154097e+003, 1.058638e-003
2.156026e+003, 3.291368e-004
2.157954e+003, 3.317341e-003
2.159883e+003, 7.735938e-003
2.161811e+003, 8.860514e-003
2.163740e+003, 8.943677e-003
2.165668e+003, 8.222446e-003
2.167596e+003, 6.741777e-003
2.169525e+003, 4.854158e-003
2.171453e+003, 4.712269e-003
2.173382e+003, 5.743831e-003
2.175310e+003, 5.827129e-003
2.177239e+003, 4.803523e-003
2.179167e+003, 5.193770e-003
2.181096e+003, 5.600393e-003
2.183024e+003, 5.263418e-003
2.184953e+003, 5.827665e-003
2.186881e+003, 5.930021e-003
2.188810e+003, 5.970508e-003
2.190738e+003, 6.272733e-003
2.192667e+003, 5.578488e-003
2.194595e+003, 5.366802e-003
2.196523e+003, 5.665570e-003
2.198452e+003, 5.487964e-003
2.200380e+003, 5.644649e-003
2.202309e+003, 5.840883e-003
2.204237e+003, 5.599797e-003
2.206166e+003, 5.422428e-003
2.208094e+003, 5.921781e-003
2.210023e+003, 6.049886e-003
2.211951e+003, 5.787253e-003
2.213880e+003, 5.738288e-003
2.215808e+003, 5.850121e-003
2.217737e+003, 5.826280e-003
2.219665e+003, 5.656347e-003
2.221594e+003, 5.443871e-003
2.223522e+003, 5.163580e-003
2.225450e+003, 5.489379e-003
2.227379e+003, 5.607620e-003
2.229307e+003, 5.315974e-003
2.231236e+003, 5.318195e-003
2.233164e+003, 5.433306e-003
2.235093e+003, 5.583331e-003
2.237021e+003, 5.703658e-003
2.238950e+003, 5.201191e-003
2.240878e+003, 5.272344e-003
2.242807e+003, 4.904717e-003
2.244735e+003, 4.492849e-003
2.246664e+003, 4.486039e-003
2.248592e+003, 4.874811e-003
2.250521e+003, 4.896969e-003
2.252449e+003, 4.788011e-003
2.254377e+003, 4.875034e-003
2.256306e+003, 5.035922e-003
2.258234e+003, 4.765421e-003
2.260163e+003, 4.744247e-003
2.262091e+003, 4.665911e-003
2.264020e+003, 4.501849e-003
2.265948e+003, 4.669189e-003
2.267877e+003, 4.858524e-003
2.269805e+003, 4.738837e-003
2.271734e+003, 4.500717e-003
2.273662e+003, 4.533201e-003
2.275591e+003, 4.388452e-003
2.277519e+003, 4.136965e-003
2.279448e+003, 3.816307e-003
2.281376e+003, 4.020408e-003
2.283304e+003, 4.608884e-003
2.285233e+003, 4.904941e-003
2.287161e+003, 4.510269e-003
2.289090e+003, 4.201069e-003
2.291018e+003, 3.934249e-003
2.292947e+003, 3.414616e-003
2.294875e+003, 3.125444e-003
2.296804e+003, 3.115624e-003
2.298732e+003, 3.143579e-003
2.300661e+003, 3.134653e-003
2.302589e+003, 2.817139e-003
2.304518e+003, 2.307117e-003
2.306446e+003, 2.008811e-003
2.308375e+003, 1.934126e-003
2.310303e+003, 1.833931e-003
2.312231e+003, 1.949728e-003
2.314160e+003, 1.989320e-003
2.316088e+003, 1.879930e-003
2.318017e+003, 1.830205e-003
2.319945e+003, 2.143949e-003
2.321874e+003, 2.592191e-003
2.323802e+003, 2.691209e-003
2.325731e+003, 1.569271e-003
2.327659e+003, 3.814101e-004
2.329588e+003, 1.225471e-004
2.331516e+003, 2.232194e-005
2.333445e+003, -6.783009e-005
2.335373e+003, -2.000332e-004
2.337302e+003, -2.533197e-004
2.339230e+003, -8.091331e-005
2.341158e+003, 8.869171e-005
2.343087e+003, -1.371801e-004
2.345015e+003, -5.657971e-004
2.346944e+003, -7.393360e-004
2.348872e+003, -6.957948e-004
2.350801e+003, -5.185306e-004
2.352729e+003, -1.855791e-004
2.354658e+003, -1.686513e-004
2.356586e+003, -5.178452e-004
2.358515e+003, -8.088350e-004
2.360443e+003, -4.207492e-004
2.362372e+003, -1.367629e-004
2.364300e+003, -3.730059e-004
2.366229e+003, -3.079176e-004
2.368157e+003, -5.084872e-004
2.370085e+003, -1.107961e-003
2.372014e+003, -7.953048e-004
2.373942e+003, -3.896952e-004
2.375871e+003, -5.007982e-004
2.377799e+003, -3.323257e-004
2.379728e+003, -2.482831e-004
2.381656e+003, -1.215637e-004
2.383585e+003, 3.713369e-005
2.385513e+003, -3.287196e-004
2.387442e+003, -5.265772e-004
2.389370e+003, -3.609657e-004
2.391299e+003, -2.219379e-004
2.393227e+003, -3.805757e-005
2.395156e+003, 1.118481e-004
2.397084e+003, -2.598763e-005
2.399012e+003, -3.816187e-004
2.400941e+003, -2.563298e-004
2.402869e+003, -1.048744e-004
2.404798e+003, -5.260110e-005
2.406726e+003, 3.764927e-004
2.408655e+003, 5.109906e-004
2.410583e+003, 5.140603e-004
2.412512e+003, 7.830858e-004
2.414440e+003, 1.223356e-003
2.416369e+003, 1.219630e-003
2.418297e+003, 1.002312e-003
2.420226e+003, 8.154809e-004
2.422154e+003, 8.801222e-004
2.424083e+003, 8.789599e-004
2.426011e+003, 5.246997e-004
2.427939e+003, 6.244183e-004
2.429868e+003, 8.493960e-004
2.431796e+003, 8.849800e-004
2.433725e+003, 8.612573e-004
2.435653e+003, 5.607605e-004
2.437582e+003, 5.908906e-004
2.439510e+003, 7.850230e-004
2.441439e+003, 1.173139e-003
2.443367e+003, 1.174748e-003
2.445296e+003, 1.046836e-003
2.447224e+003, 1.091957e-003
2.449153e+003, 1.552969e-003
2.451081e+003, 1.735538e-003
2.453010e+003, 1.379013e-003
2.454938e+003, 1.118898e-003
2.456866e+003, 9.768009e-004
2.458795e+003, 1.084536e-003
2.460723e+003, 1.061916e-003
2.462652e+003, 5.184710e-004
2.464580e+003, 3.196895e-004
2.466509e+003, 5.474985e-004
2.468437e+003, 6.475449e-004
2.470366e+003, 6.974339e-004
2.472294e+003, 6.752610e-004
2.474223e+003, 8.078814e-004
2.476151e+003, 9.714067e-004
2.478080e+003, 7.942617e-004
2.480008e+003, 6.830692e-004
2.481937e+003, 7.279217e-004
2.483865e+003, 3.393888e-004
2.485793e+003, 1.699030e-004
2.487722e+003, 3.968477e-004
2.489650e+003, 2.077222e-004
2.491579e+003, 5.655885e-004
2.493507e+003, 1.002938e-003
2.495436e+003, 1.018733e-003
2.497364e+003, 6.752312e-004
2.499293e+003, 5.961955e-004
2.501221e+003, 7.766783e-004
2.503150e+003, 7.471144e-004
2.505078e+003, 3.339946e-004
2.507007e+003, 2.028644e-004
2.508935e+003, 9.063184e-004
2.510864e+003, 1.377910e-003
2.512792e+003, 9.461045e-004
2.514720e+003, 8.297563e-004
2.516649e+003, 7.407665e-004
2.518577e+003, 4.484057e-004
2.520506e+003, 5.260408e-004
2.522434e+003, 4.273653e-004
2.524363e+003, 6.357431e-004
2.526291e+003, 8.315146e-004
2.528220e+003, 4.879534e-004
2.530148e+003, 3.211200e-004
2.532077e+003, 3.500283e-004
2.534005e+003, 3.758967e-004
2.535934e+003, 2.597570e-004
2.537862e+003, 4.572868e-004
2.539791e+003, 6.626844e-004
2.541719e+003, 6.369054e-004
2.543647e+003, 5.824566e-004
2.545576e+003, 4.253685e-004
2.547504e+003, 3.754497e-004
2.549433e+003, 6.605387e-004
2.551361e+003, 7.954240e-004
2.553290e+003, 2.515018e-004
2.555218e+003, -4.023314e-006
2.557147e+003, 4.609823e-004
2.559075e+003, 5.066097e-004
2.561004e+003, 7.263422e-004
2.562932e+003, 7.299781e-004
2.564861e+003, 3.466606e-004
2.566789e+003, 7.572770e-005
2.568718e+003, 2.249777e-004
2.570646e+003, 2.865195e-004
2.572574e+003, 3.731251e-004
2.574503e+003, 2.933741e-004
2.576431e+003, 4.066825e-004
2.578360e+003, 4.832745e-004
2.580288e+003, 3.802180e-004
2.582217e+003, 6.989241e-004
2.584145e+003, 1.030743e-003
2.586074e+003, 7.414520e-004
2.588002e+003, 3.943443e-004
2.589931e+003, 3.479123e-004
2.591859e+003, 2.170205e-004
2.593788e+003, 3.958344e-004
2.595716e+003, 5.461574e-004
2.597645e+003, 2.031624e-004
2.599573e+003, 3.148019e-004
2.601501e+003, 2.358258e-004
2.603430e+003, 1.900792e-004
2.605358e+003, 5.745888e-005
2.607287e+003, 1.021624e-004
2.609215e+003, 1.370013e-004
2.611144e+003, -1.901686e-004
2.613072e+003, -1.639426e-004
2.615001e+003, 1.348853e-004
2.616929e+003, 1.839697e-004
2.618858e+003, -7.364154e-005
2.620786e+003, 5.522370e-005
2.622715e+003, 4.084408e-004
2.624643e+003, 1.530647e-004
2.626572e+003, -3.311932e-004
2.628500e+003, -4.256368e-004
2.630428e+003, -2.916753e-004
2.632357e+003, -1.378059e-004
2.634285e+003, -3.662705e-004
2.636214e+003, -4.548728e-004
2.638142e+003, -4.619658e-004
2.640071e+003, -5.892515e-004
2.641999e+003, -9.046495e-004
2.643928e+003, -8.115768e-004
2.645856e+003, -6.554425e-004
2.647785e+003, -8.687675e-004
2.649713e+003, -1.296371e-003
2.651642e+003, -1.265287e-003
2.653570e+003, -1.086622e-003
2.655499e+003, -1.005381e-003
2.657427e+003, -8.949339e-004
2.659355e+003, -1.260817e-003
2.661284e+003, -1.561433e-003
2.663212e+003, -1.859725e-003
2.665141e+003, -2.136678e-003
2.667069e+003, -1.989752e-003
2.668998e+003, -1.885295e-003
2.670926e+003, -2.240777e-003
2.672855e+003, -2.345771e-003
2.674783e+003, -2.142787e-003
2.676712e+003, -2.020955e-003
2.678640e+003, -2.079934e-003
2.680569e+003, -2.007246e-003
2.682497e+003, -1.731724e-003
2.684426e+003, -1.642674e-003
2.686354e+003, -1.632154e-003
2.688282e+003, -1.750141e-003
2.690211e+003, -1.586318e-003
2.692139e+003, -1.633555e-003
2.694068e+003, -1.744062e-003
2.695996e+003, -1.738042e-003
2.697925e+003, -1.761526e-003
2.699853e+003, -1.603633e-003
2.701782e+003, -1.266360e-003
2.703710e+003, -1.204848e-003
2.705639e+003, -1.190692e-003
2.707567e+003, -1.062065e-003
2.709496e+003, -9.553730e-004
2.711424e+003, -7.856786e-004
2.713353e+003, -1.179665e-003
2.715281e+003, -1.394570e-003
2.717209e+003, -1.063973e-003
2.719138e+003, -9.981692e-004
2.721066e+003, -9.541810e-004
2.722995e+003, -6.847382e-004
2.724923e+003, -4.546344e-004
2.726852e+003, -4.353225e-004
2.728780e+003, -4.106462e-004
2.730709e+003, -3.326535e-004
2.732637e+003, -1.652837e-004
2.734566e+003, -3.445148e-005
2.736494e+003, -1.684427e-004
2.738423e+003, 1.490116e-006
2.740351e+003, 2.506375e-004
2.742280e+003, 2.588034e-004
2.744208e+003, 7.665157e-005
2.746136e+003, -1.740158e-004
2.748065e+003, -5.805492e-005
2.749993e+003, 2.446771e-004
2.751922e+003, 2.911687e-004
2.753850e+003, 3.785491e-004
2.755779e+003, 5.111992e-004
2.757707e+003, 3.229082e-004
2.759636e+003, 1.852810e-004
2.761564e+003, 3.088117e-004
2.763493e+003, 8.354485e-004
2.765421e+003, 1.141548e-003
2.767350e+003, 1.043499e-003
2.769278e+003, 1.129538e-003
2.771207e+003, 1.304775e-003
2.773135e+003, 1.392573e-003
2.775063e+003, 1.292408e-003
2.776992e+003, 1.282007e-003
2.778920e+003, 1.436144e-003
2.780849e+003, 1.374751e-003
2.782777e+003, 1.652300e-003
2.784706e+003, 2.121866e-003
2.786634e+003, 2.355069e-003
2.788563e+003, 2.171427e-003
2.790491e+003, 2.011687e-003
2.792420e+003, 2.383202e-003
2.794348e+003, 2.562821e-003
2.796277e+003, 2.926558e-003
2.798205e+003, 3.455997e-003
2.800134e+003, 3.609776e-003
2.802062e+003, 3.541917e-003
2.803990e+003, 3.460079e-003
2.805919e+003, 3.557116e-003
2.807847e+003, 3.796488e-003
2.809776e+003, 4.303396e-003
2.811704e+003, 4.696906e-003
2.813633e+003, 4.779160e-003
2.815561e+003, 5.143553e-003
2.817490e+003, 5.454034e-003
2.819418e+003, 5.755574e-003
2.821347e+003, 6.018072e-003
2.823275e+003, 6.599516e-003
2.825204e+003, 7.597446e-003
2.827132e+003, 8.630276e-003
2.829061e+003, 9.733498e-003
2.830989e+003, 1.069826e-002
2.832917e+003, 1.198998e-002
2.834846e+003, 1.342738e-002
2.836774e+003, 1.476672e-002
2.838703e+003, 1.621336e-002
2.840631e+003, 1.777992e-002
2.842560e+003, 1.899168e-002
2.844488e+003, 1.981613e-002
2.846417e+003, 1.991597e-002
2.848345e+003, 1.953733e-002
2.850274e+003, 1.933247e-002
2.852202e+003, 1.849711e-002
2.854131e+003, 1.734021e-002
2.856059e+003, 1.622331e-002
2.857988e+003, 1.526153e-002
2.859916e+003, 1.450926e-002
2.861844e+003, 1.396590e-002
2.863773e+003, 1.365820e-002
2.865701e+003, 1.355612e-002
2.867630e+003, 1.389655e-002
2.869558e+003, 1.399875e-002
2.871487e+003, 1.376885e-002
2.873415e+003, 1.334676e-002
2.875344e+003, 1.342875e-002
2.877272e+003, 1.376963e-002
2.879201e+003, 1.351035e-002
2.881129e+003, 1.368910e-002
2.883058e+003, 1.435861e-002
2.884986e+003, 1.505694e-002
2.886915e+003, 1.606694e-002
2.888843e+003, 1.698434e-002
2.890771e+003, 1.766884e-002
2.892700e+003, 1.839972e-002
2.894628e+003, 1.953608e-002
2.896557e+003, 2.073786e-002
2.898485e+003, 2.157703e-002
2.900414e+003, 2.260891e-002
2.902342e+003, 2.394173e-002
2.904271e+003, 2.525306e-002
2.906199e+003, 2.669907e-002
2.908128e+003, 2.814823e-002
2.910056e+003, 2.968237e-002
2.911985e+003, 3.097203e-002
2.913913e+003, 3.197828e-002
2.915842e+003, 3.287876e-002
2.917770e+003, 3.347489e-002
2.919698e+003, 3.371349e-002
2.921627e+003, 3.302655e-002
2.923555e+003, 3.114459e-002
2.925484e+003, 2.815703e-002
2.927412e+003, 2.503228e-002
2.929341e+003, 2.189997e-002
2.931269e+003, 1.889107e-002
2.933198e+003, 1.661763e-002
2.935126e+003, 1.493776e-002
2.937055e+003, 1.315618e-002
2.938983e+003, 1.199141e-002
2.940912e+003, 1.155862e-002
2.942840e+003, 1.133823e-002
2.944769e+003, 1.183701e-002
2.946697e+003, 1.241589e-002
2.948625e+003, 1.296031e-002
2.950554e+003, 1.338580e-002
2.952482e+003, 1.323757e-002
2.954411e+003, 1.299927e-002
2.956339e+003, 1.251286e-002
2.958268e+003, 1.171112e-002
2.960196e+003, 1.058453e-002
2.962125e+003, 9.103745e-003
2.964053e+003, 7.500917e-003
2.965982e+003, 5.958378e-003
2.967910e+003, 3.980815e-003
2.969839e+003, 2.072185e-003
2.971767e+003, 4.674196e-004
2.973696e+003, -3.717244e-004
2.975624e+003, -8.865893e-004
2.977552e+003, -1.535177e-003
2.979481e+003, -1.852483e-003
2.981409e+003, -2.076089e-003
2.983338e+003, -2.421707e-003
2.985266e+003, -2.429456e-003
2.987195e+003, -2.163768e-003
2.989123e+003, -2.428532e-003
2.991052e+003, -2.713084e-003
2.992980e+003, -2.841026e-003
2.994909e+003, -2.825707e-003
2.996837e+003, -2.437651e-003
2.998766e+003, -2.149373e-003
3.000694e+003, -2.274692e-003
3.002623e+003, -2.400011e-003
3.004551e+003, -2.487838e-003
3.006479e+003, -2.425104e-003
3.008408e+003, -2.511531e-003
3.010336e+003, -2.585351e-003
3.012265e+003, -2.582461e-003
3.014193e+003, -2.363950e-003
3.016122e+003, -2.171367e-003
3.018050e+003, -2.048403e-003
3.019979e+003, -2.067745e-003
3.021907e+003, -2.219528e-003
3.023836e+003, -2.031744e-003
3.025764e+003, -1.978785e-003
3.027693e+003, -1.985312e-003
3.029621e+003, -2.032101e-003
3.031550e+003, -1.898795e-003
3.033478e+003, -1.741707e-003
3.035406e+003, -1.447916e-003
3.037335e+003, -1.535922e-003
3.039263e+003, -1.462191e-003
3.041192e+003, -1.634091e-003
3.043120e+003, -1.997232e-003
3.045049e+003, -1.869351e-003
3.046977e+003, -1.686871e-003
3.048906e+003, -1.823127e-003
3.050834e+003, -1.871049e-003
3.052763e+003, -2.192587e-003
3.054691e+003, -1.983523e-003
3.056620e+003, -1.533687e-003
3.058548e+003, -1.568794e-003
3.060477e+003, -1.857549e-003
3.062405e+003, -1.656085e-003
3.064333e+003, -1.745403e-003
3.066262e+003, -1.969129e-003
3.068190e+003, -1.893580e-003
3.070119e+003, -1.489997e-003
3.072047e+003, -1.191676e-003
3.073976e+003, -1.398951e-003
3.075904e+003, -1.523405e-003
3.077833e+003, -1.362056e-003
3.079761e+003, -1.671761e-003
3.081690e+003, -1.785457e-003
3.083618e+003, -1.889944e-003
3.085547e+003, -2.007067e-003
3.087475e+003, -1.993388e-003
3.089404e+003, -1.903296e-003
3.091332e+003, -1.993567e-003
3.093260e+003, -1.713634e-003
3.095189e+003, -1.586139e-003
3.097117e+003, -1.341969e-003
3.099046e+003, -1.326054e-003
3.100974e+003, -1.402289e-003
3.102903e+003, -1.414061e-003
3.104831e+003, -1.603067e-003
3.106760e+003, -1.630664e-003
3.108688e+003, -1.367182e-003
3.110617e+003, -1.635343e-003
3.112545e+003, -1.873374e-003
3.114474e+003, -1.698881e-003
3.116402e+003, -1.318902e-003
3.118331e+003, -1.117289e-003
3.120259e+003, -1.210958e-003
3.122188e+003, -1.544476e-003
3.124116e+003, -1.654685e-003
3.126044e+003, -1.259238e-003
3.127973e+003, -1.121402e-003
3.129901e+003, -1.307815e-003
3.131830e+003, -1.512051e-003
3.133758e+003, -1.508474e-003
3.135687e+003, -1.515627e-003
3.137615e+003, -1.456231e-003
3.139544e+003, -1.203239e-003
3.141472e+003, -1.352340e-003
3.143401e+003, -1.926690e-003
3.145329e+003, -1.565009e-003
3.147258e+003, -1.430809e-003
3.149186e+003, -1.820654e-003
3.151115e+003, -1.520842e-003
3.153043e+003, -1.034379e-003
3.154971e+003, -1.311123e-003
3.156900e+003, -1.364917e-003
3.158828e+003, -1.297385e-003
3.160757e+003, -1.442879e-003
3.162685e+003, -1.810461e-003
3.164614e+003, -1.937568e-003
3.166542e+003, -2.016157e-003
3.168471e+003, -2.351910e-003
3.170399e+003, -2.081484e-003
3.172328e+003, -1.609474e-003
3.174256e+003, -1.223385e-003
3.176185e+003, -1.275271e-003
3.178113e+003, -1.534671e-003
3.180042e+003, -1.791775e-003
3.181970e+003, -1.965046e-003
3.183898e+003, -1.700580e-003
3.185827e+003, -1.486450e-003
3.187755e+003, -1.668394e-003
3.189684e+003, -2.058268e-003
3.191612e+003, -1.772970e-003
3.193541e+003, -1.404613e-003
3.195469e+003, -1.677901e-003
3.197398e+003, -1.635462e-003
3.199326e+003, -1.177341e-003
3.201255e+003, -9.982586e-004
3.203183e+003, -1.194566e-003
3.205112e+003, -1.514286e-003
3.207040e+003, -2.077579e-003
3.208969e+003, -2.446413e-003
3.210897e+003, -1.638532e-003
3.212825e+003, -1.676947e-003
3.214754e+003, -1.983255e-003
3.216682e+003, -1.921356e-003
3.218611e+003, -1.779407e-003
3.220539e+003, -1.852572e-003
3.222468e+003, -1.708239e-003
3.224396e+003, -1.192361e-003
3.226325e+003, -1.137257e-003
3.228253e+003, -1.151383e-003
3.230182e+003, -1.392692e-003
3.232110e+003, -1.205713e-003
3.234039e+003, -1.194507e-003
3.235967e+003, -1.314670e-003
3.237896e+003, -1.076996e-003
3.239824e+003, -1.309782e-003
3.241752e+003, -1.444221e-003
3.243681e+003, -1.152813e-003
3.245609e+003, -1.178801e-003
3.247538e+003, -1.588583e-003
3.249466e+003, -1.623094e-003
3.251395e+003, -1.643687e-003
3.253323e+003, -1.618981e-003
3.255252e+003, -1.354814e-003
3.257180e+003, -1.227319e-003
3.259109e+003, -1.441896e-003
3.261037e+003, -1.537591e-003
3.262966e+003, -1.613081e-003
3.264894e+003, -1.925707e-003
3.266823e+003, -2.147913e-003
3.268751e+003, -1.472414e-003
3.270679e+003, -1.152575e-003
3.272608e+003, -1.191318e-003
3.274536e+003, -1.194030e-003
3.276465e+003, -1.702875e-003
3.278393e+003, -2.623379e-003
3.280322e+003, -1.915425e-003
3.282250e+003, -1.170039e-003
3.284179e+003, -1.512706e-003
3.286107e+003, -2.079517e-003
3.288036e+003, -2.346307e-003
3.289964e+003, -2.296835e-003
3.291893e+003, -1.902014e-003
3.293821e+003, -1.465201e-003
3.295750e+003, -1.304507e-003
3.297678e+003, -1.277477e-003
3.299606e+003, -1.293153e-003
3.301535e+003, -1.370490e-003
3.303463e+003, -1.172423e-003
3.305392e+003, -9.976625e-004
3.307320e+003, -7.292628e-004
3.309249e+003, -7.742047e-004
3.311177e+003, -1.359940e-003
3.313106e+003, -1.547784e-003
3.315034e+003, -1.222193e-003
3.316963e+003, -1.147121e-003
3.318891e+003, -1.035631e-003
3.320820e+003, -8.608401e-004
3.322748e+003, -9.845495e-004
3.324677e+003, -9.677708e-004
3.326605e+003, -1.143098e-003
3.328533e+003, -1.354307e-003
3.330462e+003, -1.339108e-003
3.332390e+003, -1.660854e-003
3.334319e+003, -1.672834e-003
3.336247e+003, -1.121610e-003
3.338176e+003, -9.191036e-004
3.340104e+003, -1.519173e-003
3.342033e+003, -1.326501e-003
3.343961e+003, -1.087725e-003
3.345890e+003, -1.380473e-003
3.347818e+003, -1.783639e-003
3.349747e+003, -1.796663e-003
3.351675e+003, -1.190335e-003
3.353604e+003, -1.166403e-003
3.355532e+003, -1.229078e-003
3.357460e+003, -9.686053e-004
3.359389e+003, -1.456887e-003
3.361317e+003, -1.874238e-003
3.363246e+003, -1.614600e-003
3.365174e+003, -1.446724e-003
3.367103e+003, -1.453578e-003
3.369031e+003, -1.434237e-003
3.370960e+003, -1.468211e-003
3.372888e+003, -2.033114e-003
3.374817e+003, -2.171725e-003
3.376745e+003, -1.679212e-003
3.378674e+003, -1.133233e-003
3.380602e+003, -1.408249e-003
3.382531e+003, -1.664609e-003
3.384459e+003, -1.306266e-003
3.386387e+003, -1.184195e-003
3.388316e+003, -1.194090e-003
3.390244e+003, -9.815991e-004
3.392173e+003, -1.554489e-003
3.394101e+003, -1.533985e-003
3.396030e+003, -1.385659e-003
3.397958e+003, -1.611233e-003
3.399887e+003, -1.421839e-003
3.401815e+003, -1.167476e-003
3.403744e+003, -1.151890e-003
3.405672e+003, -5.396307e-004
3.407601e+003, -6.861091e-004
3.409529e+003, -1.552880e-003
3.411458e+003, -1.472026e-003
3.413386e+003, -1.294613e-003
3.415314e+003, -1.355648e-003
3.417243e+003, -1.532882e-003
3.419171e+003, -1.393825e-003
3.421100e+003, -1.400858e-003
3.423028e+003, -1.853347e-003
3.424957e+003, -2.259851e-003
3.426885e+003, -2.209157e-003
3.428814e+003, -2.029598e-003
3.430742e+003, -2.016127e-003
3.432671e+003, -1.870692e-003
3.434599e+003, -1.935542e-003
3.436528e+003, -1.324475e-003
3.438456e+003, -1.904756e-003
3.440385e+003, -2.429008e-003
3.442313e+003, -1.957804e-003
3.444241e+003, -1.761019e-003
3.446170e+003, -1.564324e-003
3.448098e+003, -1.559913e-003
3.450027e+003, -1.692146e-003
3.451955e+003, -1.783460e-003
3.453884e+003, -2.280772e-003
3.455812e+003, -2.525508e-003
3.457741e+003, -2.459764e-003
3.459669e+003, -2.405763e-003
3.461598e+003, -1.745850e-003
3.463526e+003, -8.150637e-004
3.465455e+003, -7.718503e-004
3.467383e+003, -1.529574e-003
3.469312e+003, -2.122074e-003
3.471240e+003, -2.362311e-003
3.473168e+003, -1.983792e-003
3.475097e+003, -1.610368e-003
3.477025e+003, -2.177298e-003
3.478954e+003, -2.249926e-003
3.480882e+003, -1.754135e-003
3.482811e+003, -2.010614e-003
3.484739e+003, -2.101123e-003
3.486668e+003, -1.725167e-003
3.488596e+003, -1.901120e-003
3.490525e+003, -1.828939e-003
3.492453e+003, -1.773477e-003
3.494382e+003, -1.637369e-003
3.496310e+003, -9.304881e-004
3.498239e+003, -8.374453e-004
3.500167e+003, -1.601577e-003
3.502095e+003, -1.806706e-003
3.504024e+003, -1.499355e-003
3.505952e+003, -1.655608e-003
3.507881e+003, -2.187163e-003
3.509809e+003, -1.779407e-003
3.511738e+003, -1.106590e-003
3.513666e+003, -6.752014e-004
3.515595e+003, -7.972717e-004
3.517523e+003, -1.432151e-003
3.519452e+003, -1.833618e-003
3.521380e+003, -1.503229e-003
3.523309e+003, -1.128227e-003
3.525237e+003, -1.274824e-003
3.527166e+003, -1.452237e-003
3.529094e+003, -1.186669e-003
3.531022e+003, -8.744299e-004
3.532951e+003, -1.229525e-003
3.534879e+003, -1.514852e-003
3.536808e+003, -1.672059e-003
3.538736e+003, -1.362354e-003
3.540665e+003, -6.552339e-004
3.542593e+003, -4.635751e-004
3.544522e+003, -1.486391e-003
3.546450e+003, -2.172559e-003
3.548379e+003, -1.560420e-003
3.550307e+003, -1.312912e-003
3.552236e+003, -1.702040e-003
3.554164e+003, -1.693934e-003
3.556093e+003, -1.781225e-003
3.558021e+003, -1.704812e-003
3.559949e+003, -1.396894e-003
3.561878e+003, -1.665741e-003
3.563806e+003, -2.134383e-003
3.565735e+003, -2.498597e-003
3.567663e+003, -2.047122e-003
3.569592e+003, -1.588970e-003
3.571520e+003, -1.359463e-003
3.573449e+003, -1.307547e-003
3.575377e+003, -1.763344e-003
3.577306e+003, -1.985282e-003
3.579234e+003, -2.114773e-003
3.581163e+003, -1.353681e-003
3.583091e+003, -8.903444e-004
3.585020e+003, -1.254380e-003
3.586948e+003, -1.765221e-003
3.588876e+003, -1.464188e-003
3.590805e+003, -9.324253e-004
3.592733e+003, -1.157582e-003
3.594662e+003, -1.264393e-003
3.596590e+003, -9.151995e-004
3.598519e+003, -1.002252e-003
3.600447e+003, -1.038492e-003
3.602376e+003, -8.177161e-004
3.604304e+003, -2.538860e-004
3.606233e+003, -7.323325e-004
3.608161e+003, -9.881258e-004
3.610090e+003, -7.097125e-004
3.612018e+003, -4.696846e-004
3.613947e+003, -6.712377e-004
3.615875e+003, -5.588830e-004
3.617803e+003, 3.004074e-004
3.619732e+003, 8.229911e-004
3.621660e+003, 5.716085e-004
3.623589e+003, 5.061626e-004
3.625517e+003, 2.389848e-004
3.627446e+003, 3.290176e-004
3.629374e+003, -7.487237e-004
3.631303e+003, -1.175255e-003
3.633231e+003, -6.081462e-004
3.635160e+003, -6.499290e-004
3.637088e+003, -8.430481e-004
3.639017e+003, -1.205772e-003
3.640945e+003, -1.454294e-003
3.642874e+003, -3.979206e-004
3.644802e+003, 5.933642e-004
3.646730e+003, 5.241334e-004
3.648659e+003, -2.670288e-005
3.650587e+003, -1.845062e-004
3.652516e+003, -1.777709e-004
3.654444e+003, -7.054210e-004
3.656373e+003, -7.135272e-004
3.658301e+003, -5.054176e-004
3.660230e+003, -1.361400e-003
3.662158e+003, -1.684666e-003
3.664087e+003, -1.597375e-003
3.666015e+003, -1.641035e-003
3.667944e+003, -1.106739e-003
3.669872e+003, -5.603731e-004
3.671801e+003, -1.518726e-004
3.673729e+003, -1.062155e-004
3.675657e+003, -6.194711e-004
3.677586e+003, -5.695522e-004
3.679514e+003, -2.768636e-004
3.681443e+003, -4.605353e-004
3.683371e+003, -2.756417e-004
3.685300e+003, 8.559823e-004
3.687228e+003, 7.216334e-004
3.689157e+003, 3.928244e-004
3.691085e+003, 8.290112e-004
3.693014e+003, 6.474257e-004
3.694942e+003, 5.319715e-004
3.696871e+003, 9.560883e-004
3.698799e+003, 1.249224e-003
3.700728e+003, 8.451939e-004
3.702656e+003, 4.938543e-004
3.704584e+003, 6.801486e-004
3.706513e+003, 2.253652e-004
3.708441e+003, 9.223819e-005
3.710370e+003, 1.936257e-004
3.712298e+003, 5.138516e-004
3.714227e+003, 8.208752e-004
3.716155e+003, 1.115948e-003
3.718084e+003, 7.205009e-004
3.720012e+003, 2.449751e-004
3.721941e+003, 7.882714e-005
3.723869e+003, -7.638335e-005
3.725798e+003, 1.891851e-004
3.727726e+003, 3.286004e-004
3.729655e+003, 1.177102e-003
3.731583e+003, 1.140118e-003
3.733511e+003, -1.773238e-005
3.735440e+003, -4.867613e-004
3.737368e+003, -2.870262e-004
3.739297e+003, -3.339648e-004
3.741225e+003, 3.640950e-004
3.743154e+003, 1.247317e-003
3.745082e+003, 9.942949e-004
3.747011e+003, 1.418889e-004
3.748939e+003, 5.081594e-004
3.750868e+003, 6.838143e-004
3.752796e+003, -5.589128e-004
3.754725e+003, -4.892647e-004
3.756653e+003, 3.218055e-004
3.758582e+003, 1.122653e-003
3.760510e+003, 1.356125e-003
3.762438e+003, 1.259357e-003
3.764367e+003, 1.388997e-003
3.766295e+003, 1.175106e-003
3.768224e+003, 3.495812e-005
3.770152e+003, 2.118647e-004
3.772081e+003, 7.017255e-004
3.774009e+003, 1.029551e-003
3.775938e+003, 1.114905e-003
3.777866e+003, 8.718371e-004
3.779795e+003, 9.751320e-005
3.781723e+003, -9.199977e-005
3.783652e+003, -8.755922e-005
3.785580e+003, -2.697408e-004
3.787509e+003, -1.929104e-004
3.789437e+003, 3.217459e-004
3.791365e+003, 8.953214e-004
3.793294e+003, 7.015467e-004
3.795222e+003, 1.250088e-003
3.797151e+003, 1.346350e-003
3.799079e+003, 3.667176e-004
3.801008e+003, -1.311302e-006
3.802936e+003, 3.468096e-004
3.804865e+003, 4.516244e-004
3.806793e+003, 5.372167e-004
3.808722e+003, 5.445182e-004
3.810650e+003, 3.556609e-004
3.812579e+003, 4.169345e-004
3.814507e+003, 3.747940e-004
3.816436e+003, 3.191829e-004
3.818364e+003, 7.385314e-004
3.820292e+003, 8.412302e-004
3.822221e+003, 1.308560e-003
3.824149e+003, 1.807779e-003
3.826078e+003, 1.964509e-003
3.828006e+003, 1.947194e-003
3.829935e+003, 2.101868e-003
3.831863e+003, 1.860678e-003
3.833792e+003, 1.476020e-003
3.835720e+003, 7.265210e-004
3.837649e+003, 1.562834e-004
3.839577e+003, 6.174743e-004
3.841506e+003, 2.881885e-004
3.843434e+003, 3.274083e-004
3.845363e+003, 3.716946e-004
3.847291e+003, 4.884899e-004
3.849219e+003, 6.983280e-004
3.851148e+003, 9.566545e-004
3.853076e+003, 4.206598e-004
3.855005e+003, 8.234978e-004
3.856933e+003, 1.693815e-003
3.858862e+003, 1.829058e-003
3.860790e+003, 1.517862e-003
3.862719e+003, 5.650818e-004
3.864647e+003, 3.711283e-004
3.866576e+003, 9.086430e-004
3.868504e+003, 1.513332e-003
3.870433e+003, 1.161367e-003
3.872361e+003, 6.237626e-004
3.874290e+003, 4.299283e-004
3.876218e+003, 8.152723e-004
3.878146e+003, 8.626878e-004
3.880075e+003, 7.838309e-004
3.882003e+003, 6.465316e-004
3.883932e+003, 6.217062e-004
3.885860e+003, 4.830658e-004
3.887789e+003, 1.637042e-004
3.889717e+003, -1.908839e-004
3.891646e+003, -1.450479e-004
3.893574e+003, 6.900132e-004
3.895503e+003, 8.852482e-004
3.897431e+003, 7.907748e-004
3.899360e+003, 8.848011e-004
3.901288e+003, 1.025259e-003
3.903217e+003, 7.650554e-004
3.905145e+003, -2.466142e-004
3.907073e+003, -4.796386e-004
3.909002e+003, -1.198053e-005
3.910930e+003, 8.919537e-004
3.912859e+003, 1.500905e-003
3.914787e+003, 1.160681e-003
3.916716e+003, 2.169907e-004
3.918644e+003, 9.757280e-005
3.920573e+003, 2.683997e-004
3.922501e+003, -3.488660e-004
3.924430e+003, -9.480119e-005
3.926358e+003, 6.978810e-004
3.928287e+003, 4.656315e-004
3.930215e+003, 5.844831e-004
3.932144e+003, 4.309416e-004
3.934072e+003, 4.149377e-004
3.936000e+003, 1.209021e-003
3.937929e+003, 1.381755e-003
3.939857e+003, 6.648302e-004
3.941786e+003, -9.429455e-005
3.943714e+003, -4.195571e-004
3.945643e+003, -7.632673e-004
3.947571e+003, -9.700656e-004
3.949500e+003, -5.752146e-004
3.951428e+003, -4.881620e-004
3.953357e+003, -6.610155e-004
3.955285e+003, -5.689859e-004
3.957214e+003, -4.079640e-004
3.959142e+003, -9.189546e-004
3.961071e+003, -8.183718e-004
3.962999e+003, -1.006514e-003
3.964927e+003, -7.688999e-004
3.966856e+003, -2.655387e-004
3.968784e+003, 2.643764e-004
3.970713e+003, -3.609955e-004
3.972641e+003, -8.445680e-004
3.974570e+003, -5.574822e-004
3.976498e+003, -2.479553e-004
3.978427e+003, -1.667738e-004
3.980355e+003, -1.373887e-005
3.982284e+003, -1.676977e-004
3.984212e+003, -3.453791e-004
3.986141e+003, -3.235042e-004
3.988069e+003, -4.881918e-004
3.989998e+003, -5.651712e-004
3.991926e+003, 1.527071e-004
3.993854e+003, -5.398393e-004
3.995783e+003, -1.091748e-003
3.997711e+003, -2.123415e-004
3.999640e+003, -2.288818e-005
##END=



