##NAMES=Serandite
##RRUFFID=R050261
##IDEAL CHEMISTRY=NaMn^2+^_2_Si_3_O_8_(OH)
##LOCALITY=Mont Saint-Hilaire, Rouville County, Quebec, Canada
##OWNER=RRUFF
##SOURCE=Marcus Origlieri
##DESCRIPTION=Orange tabular single crystal associated with aegirine and microcline
##STATUS=The identification of this mineral has been confirmed by X-ray diffraction and chemical analysis
##URL=rruff.info/R050261
##MEASURED CHEMISTRY=Na_0.96_(Mn_0.92_Ca_0.06_Fe_0.01_)_2_Si_3.03_O_8_(OH)
3.953357e+002, 4.029715e-002
3.972641e+002, 4.322907e-002
3.991926e+002, 4.691545e-002
4.011211e+002, 4.681869e-002
4.030495e+002, 4.900263e-002
4.049780e+002, 5.256696e-002
4.069065e+002, 5.612059e-002
4.088349e+002, 5.957954e-002
4.107634e+002, 6.319086e-002
4.126919e+002, 6.441756e-002
4.146203e+002, 6.347786e-002
4.165488e+002, 6.480371e-002
4.184773e+002, 6.518628e-002
4.204057e+002, 6.405746e-002
4.223342e+002, 6.317046e-002
4.242627e+002, 6.195226e-002
4.261911e+002, 6.253466e-002
4.281196e+002, 6.557529e-002
4.300481e+002, 6.754199e-002
4.319765e+002, 6.991585e-002
4.339050e+002, 7.311371e-002
4.358335e+002, 7.550221e-002
4.377619e+002, 7.743908e-002
4.396904e+002, 7.993105e-002
4.416189e+002, 8.178117e-002
4.435473e+002, 8.273873e-002
4.454758e+002, 8.191917e-002
4.474043e+002, 8.080205e-002
4.493327e+002, 7.945172e-002
4.512612e+002, 7.817128e-002
4.531897e+002, 7.691948e-002
4.551181e+002, 7.606402e-002
4.570466e+002, 7.633163e-002
4.589751e+002, 7.734631e-002
4.609035e+002, 7.814723e-002
4.628320e+002, 7.908451e-002
4.647605e+002, 7.921867e-002
4.666889e+002, 7.944601e-002
4.686174e+002, 7.915374e-002
4.705459e+002, 7.727861e-002
4.724743e+002, 7.537320e-002
4.744028e+002, 7.348729e-002
4.763313e+002, 7.173037e-002
4.782597e+002, 6.931494e-002
4.801882e+002, 6.638557e-002
4.821167e+002, 6.413330e-002
4.840451e+002, 6.180144e-002
4.859736e+002, 5.902832e-002
4.879021e+002, 5.585919e-002
4.898305e+002, 5.302980e-002
4.917590e+002, 5.050969e-002
4.936875e+002, 4.824410e-002
4.956159e+002, 4.581771e-002
4.975444e+002, 4.281013e-002
4.994729e+002, 3.922771e-002
5.014013e+002, 3.620500e-002
5.033298e+002, 3.385742e-002
5.052583e+002, 3.233672e-002
5.071867e+002, 3.194195e-002
5.091152e+002, 3.185159e-002
5.110437e+002, 3.276612e-002
5.129721e+002, 3.371624e-002
5.149006e+002, 3.345677e-002
5.168290e+002, 3.292773e-002
5.187575e+002, 3.243365e-002
5.206860e+002, 3.275463e-002
5.226144e+002, 3.401772e-002
5.245429e+002, 3.581831e-002
5.264714e+002, 3.727753e-002
5.283998e+002, 3.820613e-002
5.303283e+002, 3.852049e-002
5.322568e+002, 3.780629e-002
5.341852e+002, 3.655820e-002
5.361137e+002, 3.544784e-002
5.380422e+002, 3.394722e-002
5.399706e+002, 3.200254e-002
5.418991e+002, 3.006544e-002
5.438276e+002, 2.820512e-002
5.457560e+002, 2.648281e-002
5.476845e+002, 2.520250e-002
5.496130e+002, 2.398942e-002
5.515414e+002, 2.291045e-002
5.534699e+002, 2.199370e-002
5.553984e+002, 2.088399e-002
5.573268e+002, 1.978224e-002
5.592553e+002, 1.902328e-002
5.611838e+002, 1.833880e-002
5.631122e+002, 1.783864e-002
5.650407e+002, 1.760674e-002
5.669692e+002, 1.738562e-002
5.688976e+002, 1.713384e-002
5.708261e+002, 1.690825e-002
5.727546e+002, 1.676980e-002
5.746830e+002, 1.704047e-002
5.766115e+002, 1.694670e-002
5.785400e+002, 1.679990e-002
5.804684e+002, 1.680033e-002
5.823969e+002, 1.682971e-002
5.843254e+002, 1.684949e-002
5.862538e+002, 1.684185e-002
5.881823e+002, 1.707577e-002
5.901108e+002, 1.717664e-002
5.920392e+002, 1.719560e-002
5.939677e+002, 1.740037e-002
5.958962e+002, 1.754109e-002
5.978246e+002, 1.793079e-002
5.997531e+002, 1.844414e-002
6.016816e+002, 1.876828e-002
6.036100e+002, 1.899184e-002
6.055385e+002, 1.926244e-002
6.074670e+002, 1.976134e-002
6.093954e+002, 1.997998e-002
6.113239e+002, 2.041005e-002
6.132524e+002, 2.091789e-002
6.151808e+002, 2.152969e-002
6.171093e+002, 2.215761e-002
6.190378e+002, 2.276540e-002
6.209662e+002, 2.325604e-002
6.228947e+002, 2.370875e-002
6.248232e+002, 2.458839e-002
6.267516e+002, 2.560560e-002
6.286801e+002, 2.653720e-002
6.306086e+002, 2.778389e-002
6.325370e+002, 2.933949e-002
6.344655e+002, 3.090123e-002
6.363940e+002, 3.258241e-002
6.383224e+002, 3.448391e-002
6.402509e+002, 3.632352e-002
6.421794e+002, 3.843997e-002
6.441078e+002, 4.095411e-002
6.460363e+002, 4.341346e-002
6.479648e+002, 4.583102e-002
6.498932e+002, 4.775807e-002
6.518217e+002, 4.882864e-002
6.537502e+002, 4.852220e-002
6.556786e+002, 4.719959e-002
6.576071e+002, 4.474888e-002
6.595356e+002, 4.138662e-002
6.614641e+002, 3.810715e-002
6.633925e+002, 3.539370e-002
6.653210e+002, 3.351971e-002
6.672495e+002, 3.234776e-002
6.691779e+002, 3.160957e-002
6.711064e+002, 3.168573e-002
6.730349e+002, 3.264750e-002
6.749633e+002, 3.382801e-002
6.768918e+002, 3.509977e-002
6.788203e+002, 3.658412e-002
6.807487e+002, 3.781971e-002
6.826772e+002, 3.860063e-002
6.846057e+002, 3.864168e-002
6.865341e+002, 3.726274e-002
6.884626e+002, 3.467778e-002
6.903911e+002, 3.128863e-002
6.923195e+002, 2.772515e-002
6.942480e+002, 2.484014e-002
6.961765e+002, 2.327112e-002
6.981049e+002, 2.280457e-002
7.000334e+002, 2.297862e-002
7.019619e+002, 2.343321e-002
7.038903e+002, 2.417877e-002
7.058188e+002, 2.462857e-002
7.077473e+002, 2.436003e-002
7.096757e+002, 2.348520e-002
7.116042e+002, 2.212499e-002
7.135327e+002, 2.061879e-002
7.154611e+002, 1.950495e-002
7.173896e+002, 1.870834e-002
7.193181e+002, 1.819083e-002
7.212465e+002, 1.801130e-002
7.231750e+002, 1.796276e-002
7.251035e+002, 1.815566e-002
7.270319e+002, 1.842763e-002
7.289604e+002, 1.873830e-002
7.308889e+002, 1.890950e-002
7.328173e+002, 1.921698e-002
7.347458e+002, 1.970897e-002
7.366743e+002, 2.010950e-002
7.386027e+002, 2.067259e-002
7.405312e+002, 2.115350e-002
7.424597e+002, 2.151361e-002
7.443881e+002, 2.192860e-002
7.463166e+002, 2.229510e-002
7.482451e+002, 2.256658e-002
7.501735e+002, 2.318385e-002
7.521020e+002, 2.369686e-002
7.540305e+002, 2.410274e-002
7.559589e+002, 2.484760e-002
7.578874e+002, 2.523011e-002
7.598159e+002, 2.553670e-002
7.617443e+002, 2.593158e-002
7.636728e+002, 2.645491e-002
7.656013e+002, 2.713936e-002
7.675297e+002, 2.775593e-002
7.694582e+002, 2.817980e-002
7.713867e+002, 2.865990e-002
7.733151e+002, 2.914814e-002
7.752436e+002, 2.972049e-002
7.771721e+002, 3.033529e-002
7.791005e+002, 3.080543e-002
7.810290e+002, 3.127929e-002
7.829575e+002, 3.179102e-002
7.848859e+002, 3.236552e-002
7.868144e+002, 3.288779e-002
7.887429e+002, 3.340429e-002
7.906713e+002, 3.401370e-002
7.925998e+002, 3.453225e-002
7.945283e+002, 3.499083e-002
7.964567e+002, 3.551322e-002
7.983852e+002, 3.598806e-002
8.003137e+002, 3.636838e-002
8.022421e+002, 3.684428e-002
8.041706e+002, 3.746601e-002
8.060991e+002, 3.791330e-002
8.080275e+002, 3.830573e-002
8.099560e+002, 3.881101e-002
8.118845e+002, 3.923385e-002
8.138129e+002, 3.958859e-002
8.157414e+002, 4.014347e-002
8.176699e+002, 4.076456e-002
8.195983e+002, 4.112789e-002
8.215268e+002, 4.147484e-002
8.234553e+002, 4.193956e-002
8.253837e+002, 4.226251e-002
8.273122e+002, 4.273283e-002
8.292407e+002, 4.325914e-002
8.311691e+002, 4.360810e-002
8.330976e+002, 4.399928e-002
8.350261e+002, 4.451673e-002
8.369545e+002, 4.474246e-002
8.388830e+002, 4.522905e-002
8.408115e+002, 4.581079e-002
8.427399e+002, 4.622527e-002
8.446684e+002, 4.673648e-002
8.465969e+002, 4.722658e-002
8.485253e+002, 4.762713e-002
8.504538e+002, 4.814915e-002
8.523823e+002, 4.881319e-002
8.543107e+002, 4.942802e-002
8.562392e+002, 5.006081e-002
8.581677e+002, 5.100816e-002
8.600961e+002, 5.176211e-002
8.620246e+002, 5.243966e-002
8.639531e+002, 5.338148e-002
8.658815e+002, 5.449172e-002
8.678100e+002, 5.581637e-002
8.697385e+002, 5.733050e-002
8.716669e+002, 5.889341e-002
8.735954e+002, 6.053470e-002
8.755239e+002, 6.243814e-002
8.774523e+002, 6.449177e-002
8.793808e+002, 6.663928e-002
8.813093e+002, 6.904870e-002
8.832377e+002, 7.179665e-002
8.851662e+002, 7.466014e-002
8.870947e+002, 7.771057e-002
8.890231e+002, 8.092360e-002
8.909516e+002, 8.422472e-002
8.928801e+002, 8.766383e-002
8.948085e+002, 9.103644e-002
8.967370e+002, 9.433473e-002
8.986655e+002, 9.748174e-002
9.005939e+002, 1.000500e-001
9.025224e+002, 1.019221e-001
9.044509e+002, 1.032112e-001
9.063793e+002, 1.039298e-001
9.083078e+002, 1.039960e-001
9.102363e+002, 1.034698e-001
9.121647e+002, 1.024017e-001
9.140932e+002, 1.007784e-001
9.160217e+002, 9.900241e-002
9.179501e+002, 9.713808e-002
9.198786e+002, 9.502481e-002
9.218071e+002, 9.297124e-002
9.237355e+002, 9.099806e-002
9.256640e+002, 8.884209e-002
9.275925e+002, 8.671492e-002
9.295209e+002, 8.459813e-002
9.314494e+002, 8.229685e-002
9.333779e+002, 7.999093e-002
9.353063e+002, 7.766935e-002
9.372348e+002, 7.554447e-002
9.391633e+002, 7.359491e-002
9.410917e+002, 7.178968e-002
9.430202e+002, 7.008686e-002
9.449487e+002, 6.857165e-002
9.468771e+002, 6.740238e-002
9.488056e+002, 6.644280e-002
9.507341e+002, 6.578310e-002
9.526625e+002, 6.520031e-002
9.545910e+002, 6.459779e-002
9.565195e+002, 6.415556e-002
9.584479e+002, 6.385420e-002
9.603764e+002, 6.344185e-002
9.623049e+002, 6.282254e-002
9.642333e+002, 6.214757e-002
9.661618e+002, 6.170393e-002
9.680903e+002, 6.122870e-002
9.700187e+002, 6.071233e-002
9.719472e+002, 6.034081e-002
9.738757e+002, 6.020077e-002
9.758041e+002, 6.012819e-002
9.777326e+002, 6.032966e-002
9.796611e+002, 6.088461e-002
9.815895e+002, 6.160899e-002
9.835180e+002, 6.248009e-002
9.854465e+002, 6.339916e-002
9.873749e+002, 6.436318e-002
9.893034e+002, 6.552372e-002
9.912319e+002, 6.642469e-002
9.931603e+002, 6.718654e-002
9.950888e+002, 6.778830e-002
9.970173e+002, 6.816929e-002
9.989457e+002, 6.838273e-002
1.000874e+003, 6.836922e-002
1.002803e+003, 6.806431e-002
1.004731e+003, 6.776126e-002
1.006660e+003, 6.754339e-002
1.008588e+003, 6.746538e-002
1.010517e+003, 6.752366e-002
1.012445e+003, 6.759411e-002
1.014373e+003, 6.781507e-002
1.016302e+003, 6.820721e-002
1.018230e+003, 6.848872e-002
1.020159e+003, 6.890094e-002
1.022087e+003, 6.924387e-002
1.024016e+003, 6.944963e-002
1.025944e+003, 6.973617e-002
1.027873e+003, 7.007550e-002
1.029801e+003, 7.018621e-002
1.031730e+003, 7.022240e-002
1.033658e+003, 7.016689e-002
1.035587e+003, 7.002065e-002
1.037515e+003, 6.980410e-002
1.039443e+003, 6.946316e-002
1.041372e+003, 6.893212e-002
1.043300e+003, 6.831642e-002
1.045229e+003, 6.762632e-002
1.047157e+003, 6.675262e-002
1.049086e+003, 6.573806e-002
1.051014e+003, 6.460539e-002
1.052943e+003, 6.341929e-002
1.054871e+003, 6.226608e-002
1.056800e+003, 6.095174e-002
1.058728e+003, 5.946029e-002
1.060657e+003, 5.790064e-002
1.062585e+003, 5.644793e-002
1.064514e+003, 5.497896e-002
1.066442e+003, 5.331335e-002
1.068370e+003, 5.168155e-002
1.070299e+003, 4.997151e-002
1.072227e+003, 4.799883e-002
1.074156e+003, 4.622237e-002
1.076084e+003, 4.440355e-002
1.078013e+003, 4.259725e-002
1.079941e+003, 4.101343e-002
1.081870e+003, 3.928988e-002
1.083798e+003, 3.761715e-002
1.085727e+003, 3.608347e-002
1.087655e+003, 3.488393e-002
1.089584e+003, 3.373453e-002
1.091512e+003, 3.253037e-002
1.093441e+003, 3.151415e-002
1.095369e+003, 3.064487e-002
1.097297e+003, 2.991791e-002
1.099226e+003, 2.930214e-002
1.101154e+003, 2.870301e-002
1.103083e+003, 2.821620e-002
1.105011e+003, 2.799603e-002
1.106940e+003, 2.770588e-002
1.108868e+003, 2.739697e-002
1.110797e+003, 2.693054e-002
1.112725e+003, 2.632811e-002
1.114654e+003, 2.578908e-002
1.116582e+003, 2.522394e-002
1.118511e+003, 2.444437e-002
1.120439e+003, 2.347398e-002
1.122368e+003, 2.235687e-002
1.124296e+003, 2.136945e-002
1.126224e+003, 2.027584e-002
1.128153e+003, 1.895981e-002
1.130081e+003, 1.779260e-002
1.132010e+003, 1.661205e-002
1.133938e+003, 1.520049e-002
1.135867e+003, 1.391031e-002
1.137795e+003, 1.267915e-002
1.139724e+003, 1.151684e-002
1.141652e+003, 1.042311e-002
1.143581e+003, 9.387534e-003
1.145509e+003, 8.349063e-003
1.147438e+003, 7.177116e-003
1.149366e+003, 6.286053e-003
1.151295e+003, 5.673921e-003
1.153223e+003, 5.013123e-003
1.155151e+003, 4.349859e-003
1.157080e+003, 3.780416e-003
1.159008e+003, 3.391927e-003
1.160937e+003, 3.206007e-003
1.162865e+003, 2.928677e-003
1.164794e+003, 2.586252e-003
1.166722e+003, 2.302094e-003
1.168651e+003, 2.189777e-003
1.170579e+003, 2.158459e-003
1.172508e+003, 2.125042e-003
1.174436e+003, 2.022706e-003
1.176365e+003, 1.928726e-003
1.178293e+003, 1.942363e-003
1.180222e+003, 1.982687e-003
1.182150e+003, 2.064584e-003
1.184078e+003, 2.008171e-003
1.186007e+003, 1.907750e-003
1.187935e+003, 1.907112e-003
1.189864e+003, 1.911247e-003
1.191792e+003, 1.975321e-003
1.193721e+003, 2.145145e-003
1.195649e+003, 2.126071e-003
1.197578e+003, 2.100747e-003
1.199506e+003, 2.202317e-003
1.201435e+003, 2.175493e-003
1.203363e+003, 2.095127e-003
1.205292e+003, 2.182867e-003
1.207220e+003, 2.310301e-003
1.209149e+003, 2.358994e-003
1.211077e+003, 2.380751e-003
1.213005e+003, 2.472700e-003
1.214934e+003, 2.545691e-003
1.216862e+003, 2.519525e-003
1.218791e+003, 2.614310e-003
1.220719e+003, 2.721269e-003
1.222648e+003, 2.720494e-003
1.224576e+003, 2.731697e-003
1.226505e+003, 2.844437e-003
1.228433e+003, 2.946122e-003
1.230362e+003, 2.894036e-003
1.232290e+003, 2.908939e-003
1.234219e+003, 3.019804e-003
1.236147e+003, 3.186847e-003
1.238076e+003, 3.290849e-003
1.240004e+003, 3.324645e-003
1.241932e+003, 3.393890e-003
1.243861e+003, 3.526436e-003
1.245789e+003, 3.591879e-003
1.247718e+003, 3.610531e-003
1.249646e+003, 3.574579e-003
1.251575e+003, 3.615560e-003
1.253503e+003, 3.761820e-003
1.255432e+003, 3.739363e-003
1.257360e+003, 3.645394e-003
1.259289e+003, 3.670666e-003
1.261217e+003, 3.888677e-003
1.263146e+003, 4.057747e-003
1.265074e+003, 4.182808e-003
1.267003e+003, 4.253766e-003
1.268931e+003, 4.272598e-003
1.270859e+003, 4.250644e-003
1.272788e+003, 4.247775e-003
1.274716e+003, 4.353416e-003
1.276645e+003, 4.527858e-003
1.278573e+003, 4.643646e-003
1.280502e+003, 4.765303e-003
1.282430e+003, 4.873446e-003
1.284359e+003, 4.842859e-003
1.286287e+003, 4.801973e-003
1.288216e+003, 4.875503e-003
1.290144e+003, 4.853340e-003
1.292073e+003, 4.916418e-003
1.294001e+003, 5.209492e-003
1.295930e+003, 5.349437e-003
1.297858e+003, 5.310114e-003
1.299786e+003, 5.335428e-003
1.301715e+003, 5.412566e-003
1.303643e+003, 5.501825e-003
1.305572e+003, 5.539829e-003
1.307500e+003, 5.566290e-003
1.309429e+003, 5.709052e-003
1.311357e+003, 5.829246e-003
1.313286e+003, 5.847086e-003
1.315214e+003, 5.877767e-003
1.317143e+003, 6.017259e-003
1.319071e+003, 6.174610e-003
1.321000e+003, 6.237344e-003
1.322928e+003, 6.264745e-003
1.324857e+003, 6.275199e-003
1.326785e+003, 6.439048e-003
1.328714e+003, 6.526809e-003
1.330642e+003, 6.548495e-003
1.332570e+003, 6.751142e-003
1.334499e+003, 6.829306e-003
1.336427e+003, 7.046564e-003
1.338356e+003, 7.314153e-003
1.340284e+003, 7.372673e-003
1.342213e+003, 7.377424e-003
1.344141e+003, 7.516528e-003
1.346070e+003, 7.735116e-003
1.347998e+003, 7.838439e-003
1.349927e+003, 8.000528e-003
1.351855e+003, 8.208822e-003
1.353784e+003, 8.348815e-003
1.355712e+003, 8.587778e-003
1.357641e+003, 8.773418e-003
1.359569e+003, 9.091699e-003
1.361497e+003, 9.476601e-003
1.363426e+003, 9.770840e-003
1.365354e+003, 9.835892e-003
1.367283e+003, 1.002392e-002
1.369211e+003, 1.028896e-002
1.371140e+003, 1.055533e-002
1.373068e+003, 1.083122e-002
1.374997e+003, 1.100605e-002
1.376925e+003, 1.118132e-002
1.378854e+003, 1.142231e-002
1.380782e+003, 1.162222e-002
1.382711e+003, 1.187672e-002
1.384639e+003, 1.215647e-002
1.386568e+003, 1.251787e-002
1.388496e+003, 1.248616e-002
1.390424e+003, 1.228160e-002
1.392353e+003, 1.219125e-002
1.394281e+003, 1.214795e-002
1.396210e+003, 1.197576e-002
1.398138e+003, 1.174213e-002
1.400067e+003, 1.137239e-002
1.401995e+003, 1.086449e-002
1.403924e+003, 1.049935e-002
1.405852e+003, 1.012181e-002
1.407781e+003, 9.769462e-003
1.409709e+003, 9.470452e-003
1.411638e+003, 9.116386e-003
1.413566e+003, 8.752086e-003
1.415495e+003, 8.706377e-003
1.417423e+003, 8.876739e-003
1.419351e+003, 8.794317e-003
1.421280e+003, 8.181307e-003
1.423208e+003, 7.826832e-003
1.425137e+003, 7.675541e-003
1.427065e+003, 7.432543e-003
1.428994e+003, 7.348876e-003
1.430922e+003, 7.238583e-003
1.432851e+003, 7.119301e-003
1.434779e+003, 7.359217e-003
1.436708e+003, 7.538981e-003
1.438636e+003, 7.100100e-003
1.440565e+003, 6.748340e-003
1.442493e+003, 6.658013e-003
1.444422e+003, 6.730045e-003
1.446350e+003, 6.763649e-003
1.448278e+003, 6.689496e-003
1.450207e+003, 6.617121e-003
1.452135e+003, 6.604004e-003
1.454064e+003, 6.656603e-003
1.455992e+003, 7.394864e-003
1.457921e+003, 7.372851e-003
1.459849e+003, 6.613665e-003
1.461778e+003, 6.297528e-003
1.463706e+003, 6.505521e-003
1.465635e+003, 6.496689e-003
1.467563e+003, 6.210527e-003
1.469492e+003, 6.315122e-003
1.471420e+003, 6.742815e-003
1.473349e+003, 6.738688e-003
1.475277e+003, 6.479400e-003
1.477205e+003, 6.361912e-003
1.479134e+003, 6.166437e-003
1.481062e+003, 6.160420e-003
1.482991e+003, 6.161115e-003
1.484919e+003, 6.135759e-003
1.486848e+003, 6.318435e-003
1.488776e+003, 6.480338e-003
1.490705e+003, 6.273607e-003
1.492633e+003, 6.007492e-003
1.494562e+003, 6.350277e-003
1.496490e+003, 6.735031e-003
1.498419e+003, 6.425407e-003
1.500347e+003, 6.106041e-003
1.502276e+003, 5.978614e-003
1.504204e+003, 6.453288e-003
1.506132e+003, 7.324970e-003
1.508061e+003, 6.959083e-003
1.509989e+003, 6.243498e-003
1.511918e+003, 6.220135e-003
1.513846e+003, 6.066224e-003
1.515775e+003, 5.933834e-003
1.517703e+003, 6.024574e-003
1.519632e+003, 6.544537e-003
1.521560e+003, 6.829543e-003
1.523489e+003, 6.307750e-003
1.525417e+003, 6.095002e-003
1.527346e+003, 5.998545e-003
1.529274e+003, 5.830327e-003
1.531203e+003, 5.743483e-003
1.533131e+003, 5.966383e-003
1.535059e+003, 5.873683e-003
1.536988e+003, 6.030092e-003
1.538916e+003, 6.984605e-003
1.540845e+003, 6.990696e-003
1.542773e+003, 6.317821e-003
1.544702e+003, 5.978023e-003
1.546630e+003, 5.668943e-003
1.548559e+003, 5.619835e-003
1.550487e+003, 5.722857e-003
1.552416e+003, 5.745561e-003
1.554344e+003, 5.977666e-003
1.556273e+003, 6.380858e-003
1.558201e+003, 7.302411e-003
1.560130e+003, 7.136806e-003
1.562058e+003, 6.000894e-003
1.563986e+003, 5.672248e-003
1.565915e+003, 5.698782e-003
1.567843e+003, 5.790852e-003
1.569772e+003, 5.981883e-003
1.571700e+003, 5.849320e-003
1.573629e+003, 6.043388e-003
1.575557e+003, 6.617280e-003
1.577486e+003, 6.214567e-003
1.579414e+003, 5.578656e-003
1.581343e+003, 5.639641e-003
1.583271e+003, 5.707743e-003
1.585200e+003, 5.620248e-003
1.587128e+003, 5.437493e-003
1.589057e+003, 5.362719e-003
1.590985e+003, 5.455005e-003
1.592913e+003, 5.472445e-003
1.594842e+003, 5.381423e-003
1.596770e+003, 5.367698e-003
1.598699e+003, 5.374957e-003
1.600627e+003, 5.454000e-003
1.602556e+003, 5.538678e-003
1.604484e+003, 5.584599e-003
1.606413e+003, 5.578464e-003
1.608341e+003, 5.414659e-003
1.610270e+003, 5.422687e-003
1.612198e+003, 5.521165e-003
1.614127e+003, 5.750625e-003
1.616055e+003, 6.279546e-003
1.617984e+003, 5.991742e-003
1.619912e+003, 5.413278e-003
1.621840e+003, 5.506349e-003
1.623769e+003, 5.624854e-003
1.625697e+003, 5.456102e-003
1.627626e+003, 5.403471e-003
1.629554e+003, 5.331782e-003
1.631483e+003, 5.306698e-003
1.633411e+003, 5.678541e-003
1.635340e+003, 6.160358e-003
1.637268e+003, 5.717226e-003
1.639197e+003, 5.069093e-003
1.641125e+003, 4.999073e-003
1.643054e+003, 5.321922e-003
1.644982e+003, 5.848080e-003
1.646911e+003, 5.846333e-003
1.648839e+003, 5.402634e-003
1.650767e+003, 5.994384e-003
1.652696e+003, 7.233541e-003
1.654624e+003, 6.297258e-003
1.656553e+003, 5.155119e-003
1.658481e+003, 5.006368e-003
1.660410e+003, 5.152619e-003
1.662338e+003, 5.285355e-003
1.664267e+003, 5.093242e-003
1.666195e+003, 5.024851e-003
1.668124e+003, 5.415381e-003
1.670052e+003, 5.391518e-003
1.671981e+003, 5.052889e-003
1.673909e+003, 5.359010e-003
1.675838e+003, 5.494560e-003
1.677766e+003, 4.905313e-003
1.679694e+003, 4.869639e-003
1.681623e+003, 5.126762e-003
1.683551e+003, 5.923715e-003
1.685480e+003, 5.838551e-003
1.687408e+003, 5.017112e-003
1.689337e+003, 4.888539e-003
1.691265e+003, 4.875656e-003
1.693194e+003, 5.031664e-003
1.695122e+003, 5.708372e-003
1.697051e+003, 5.494448e-003
1.698979e+003, 5.630903e-003
1.700908e+003, 5.805449e-003
1.702836e+003, 4.987460e-003
1.704765e+003, 5.040407e-003
1.706693e+003, 5.040001e-003
1.708621e+003, 4.811500e-003
1.710550e+003, 4.678878e-003
1.712478e+003, 4.958321e-003
1.714407e+003, 5.226927e-003
1.716335e+003, 5.812178e-003
1.718264e+003, 5.682778e-003
1.720192e+003, 4.868201e-003
1.722121e+003, 4.718584e-003
1.724049e+003, 4.689707e-003
1.725978e+003, 4.440277e-003
1.727906e+003, 4.395121e-003
1.729835e+003, 4.458185e-003
1.731763e+003, 4.930655e-003
1.733692e+003, 5.517750e-003
1.735620e+003, 4.901024e-003
1.737548e+003, 4.267276e-003
1.739477e+003, 4.504230e-003
1.741405e+003, 4.515769e-003
1.743334e+003, 4.462941e-003
1.745262e+003, 4.544011e-003
1.747191e+003, 4.619143e-003
1.749119e+003, 4.656758e-003
1.751048e+003, 4.765036e-003
1.752976e+003, 4.483522e-003
1.754905e+003, 4.321530e-003
1.756833e+003, 4.478256e-003
1.758762e+003, 4.297131e-003
1.760690e+003, 4.313916e-003
1.762619e+003, 4.440619e-003
1.764547e+003, 4.239907e-003
1.766475e+003, 4.402747e-003
1.768404e+003, 4.517928e-003
1.770332e+003, 4.558719e-003
1.772261e+003, 4.682888e-003
1.774189e+003, 4.338155e-003
1.776118e+003, 4.032861e-003
1.778046e+003, 4.093907e-003
1.779975e+003, 4.271070e-003
1.781903e+003, 4.109711e-003
1.783832e+003, 4.097927e-003
1.785760e+003, 4.015329e-003
1.787689e+003, 3.707243e-003
1.789617e+003, 3.776297e-003
1.791546e+003, 4.122941e-003
1.793474e+003, 4.182034e-003
1.795402e+003, 3.916592e-003
1.797331e+003, 3.713250e-003
1.799259e+003, 3.837215e-003
1.801188e+003, 3.951070e-003
1.803116e+003, 3.673124e-003
1.805045e+003, 3.602237e-003
1.806973e+003, 3.575462e-003
1.808902e+003, 3.433516e-003
1.810830e+003, 3.501109e-003
1.812759e+003, 3.641190e-003
1.814687e+003, 3.506187e-003
1.816616e+003, 3.173277e-003
1.818544e+003, 3.156189e-003
1.820473e+003, 3.293198e-003
1.822401e+003, 3.358771e-003
1.824329e+003, 3.470500e-003
1.826258e+003, 3.359849e-003
1.828186e+003, 3.275972e-003
1.830115e+003, 3.347315e-003
1.832043e+003, 3.409358e-003
1.833972e+003, 3.258914e-003
1.835900e+003, 2.992774e-003
1.837829e+003, 2.890786e-003
1.839757e+003, 3.092610e-003
1.841686e+003, 3.151095e-003
1.843614e+003, 3.099135e-003
1.845543e+003, 3.082481e-003
1.847471e+003, 2.931596e-003
1.849400e+003, 2.876102e-003
1.851328e+003, 2.981541e-003
1.853256e+003, 3.069084e-003
1.855185e+003, 3.118174e-003
1.857113e+003, 3.048955e-003
1.859042e+003, 2.778501e-003
1.860970e+003, 2.544808e-003
1.862899e+003, 2.801413e-003
1.864827e+003, 2.828924e-003
1.866756e+003, 2.728258e-003
1.868684e+003, 2.953629e-003
1.870613e+003, 3.021868e-003
1.872541e+003, 2.936428e-003
1.874470e+003, 2.962138e-003
1.876398e+003, 2.832186e-003
1.878327e+003, 2.879767e-003
1.880255e+003, 2.890412e-003
1.882183e+003, 2.611153e-003
1.884112e+003, 2.458778e-003
1.886040e+003, 2.453661e-003
1.887969e+003, 2.612357e-003
1.889897e+003, 2.641058e-003
1.891826e+003, 2.421845e-003
1.893754e+003, 2.526490e-003
1.895683e+003, 2.845794e-003
1.897611e+003, 2.794059e-003
1.899540e+003, 2.571768e-003
1.901468e+003, 2.712893e-003
1.903397e+003, 2.566710e-003
1.905325e+003, 2.664657e-003
1.907254e+003, 2.639893e-003
1.909182e+003, 2.218667e-003
1.911110e+003, 2.114392e-003
1.913039e+003, 2.388667e-003
1.914967e+003, 2.681090e-003
1.916896e+003, 2.596405e-003
1.918824e+003, 2.376427e-003
1.920753e+003, 2.340282e-003
1.922681e+003, 2.114303e-003
1.924610e+003, 1.953389e-003
1.926538e+003, 2.446116e-003
1.928467e+003, 2.635377e-003
1.930395e+003, 2.496977e-003
1.932324e+003, 2.718511e-003
1.934252e+003, 2.515552e-003
1.936181e+003, 2.075120e-003
1.938109e+003, 2.302797e-003
1.940037e+003, 2.623098e-003
1.941966e+003, 2.389569e-003
1.943894e+003, 2.329285e-003
1.945823e+003, 2.378489e-003
1.947751e+003, 2.217338e-003
1.949680e+003, 1.854481e-003
1.951608e+003, 1.735790e-003
1.953537e+003, 2.248059e-003
1.955465e+003, 1.964195e-003
1.957394e+003, 2.213114e-003
1.959322e+003, 2.353773e-003
1.961251e+003, 2.276077e-003
1.963179e+003, 1.772698e-003
1.965108e+003, 1.033571e-003
1.967036e+003, 1.293921e-003
1.968964e+003, 1.913221e-003
1.970893e+003, 2.637233e-003
1.972821e+003, 2.626071e-003
1.974750e+003, 3.087836e-003
1.976678e+003, 2.463740e-003
1.978607e+003, 1.838778e-003
1.980535e+003, 1.820158e-003
1.982464e+003, 1.301100e-003
1.984392e+003, 1.728054e-003
1.986321e+003, 1.793007e-003
1.988249e+003, 1.405057e-003
1.990178e+003, 8.527839e-004
1.992106e+003, 1.075074e-003
1.994035e+003, 1.596581e-003
1.995963e+003, 1.721602e-003
1.997891e+003, 1.232747e-003
1.999820e+003, 8.695311e-004
2.001748e+003, 1.032259e-003
2.003677e+003, 5.319400e-004
2.005605e+003, 5.382253e-005
2.007534e+003, 2.094705e-004
2.009462e+003, 1.831388e-004
2.011391e+003, 4.836265e-004
2.013319e+003, 1.279247e-003
2.015248e+003, 1.715893e-003
2.017176e+003, 1.395775e-003
2.019105e+003, 9.493125e-004
2.021033e+003, 1.462264e-003
2.022962e+003, 1.949095e-003
2.024890e+003, 1.558498e-003
2.026818e+003, 1.115852e-003
2.028747e+003, 1.901040e-003
2.030675e+003, 2.002274e-003
2.032604e+003, 1.634712e-003
2.034532e+003, 5.624604e-004
2.036461e+003, -3.090361e-004
2.038389e+003, 3.620700e-004
2.040318e+003, 1.708175e-003
2.042246e+003, 1.554604e-003
2.044175e+003, 3.647662e-004
2.046103e+003, 2.748566e-005
2.048031e+003, 8.392509e-005
2.049960e+003, 2.160470e-005
2.051888e+003, 6.620390e-004
2.053817e+003, 1.364328e-003
2.055745e+003, 9.226761e-004
2.057674e+003, 8.270447e-004
2.059602e+003, 1.199006e-003
2.061531e+003, 1.304735e-003
2.063459e+003, 1.136046e-003
2.065388e+003, 3.025959e-004
2.067316e+003, -6.609499e-004
2.069245e+003, -6.543330e-004
2.071173e+003, -2.213885e-004
2.073102e+003, -1.043055e-004
2.075030e+003, 4.801699e-004
2.076958e+003, 9.589407e-004
2.078887e+003, 5.085601e-004
2.080815e+003, -4.610280e-006
2.082744e+003, 1.822441e-004
2.084672e+003, 5.753959e-004
2.086601e+003, 2.909667e-004
2.088529e+003, 5.287508e-004
2.090458e+003, 1.113858e-003
2.092386e+003, 1.358050e-003
2.094315e+003, 8.168950e-004
2.096243e+003, 5.106407e-004
2.098172e+003, 1.320497e-003
2.100100e+003, 1.650298e-003
2.102029e+003, 8.702882e-004
2.103957e+003, 6.752521e-004
2.105885e+003, 1.158946e-003
2.107814e+003, 1.178841e-003
2.109742e+003, 4.041042e-004
2.111671e+003, 1.517878e-004
2.113599e+003, 5.606160e-004
2.115528e+003, 9.726890e-004
2.117456e+003, 1.294116e-003
2.119385e+003, 1.022092e-003
2.121313e+003, 1.172951e-003
2.123242e+003, 1.988393e-003
2.125170e+003, 1.749695e-003
2.127099e+003, 8.674589e-004
2.129027e+003, 1.200787e-003
2.130956e+003, 2.135074e-003
2.132884e+003, 2.493733e-003
2.134813e+003, 1.910724e-003
2.136741e+003, 1.881319e-003
2.138669e+003, 1.628731e-003
2.140598e+003, 1.977828e-003
2.142526e+003, 2.537122e-003
2.144455e+003, 1.710369e-003
2.146383e+003, 1.421657e-003
2.148312e+003, 9.789045e-004
2.150240e+003, 4.277108e-004
2.152169e+003, 1.268239e-003
2.154097e+003, 2.204947e-003
2.156026e+003, 3.298549e-003
2.157954e+003, 3.223409e-003
2.159883e+003, 1.028565e-003
2.161811e+003, -4.639481e-004
2.163740e+003, 6.865745e-004
2.165668e+003, 2.111039e-003
2.167596e+003, 1.891519e-003
2.169525e+003, 1.733997e-003
2.171453e+003, 1.618318e-003
2.173382e+003, 1.649191e-003
2.175310e+003, 1.909714e-003
2.177239e+003, 1.778526e-003
2.179167e+003, 2.118156e-003
2.181096e+003, 2.440478e-003
2.183024e+003, 2.672798e-003
2.184953e+003, 1.465591e-003
2.186881e+003, 1.125443e-003
2.188810e+003, 1.923187e-003
2.190738e+003, 1.736798e-003
2.192667e+003, 1.134878e-003
2.194595e+003, 8.764103e-004
2.196523e+003, 1.094519e-003
2.198452e+003, 1.205472e-003
2.200380e+003, 7.746990e-004
2.202309e+003, 1.128565e-003
2.204237e+003, 1.631178e-003
2.206166e+003, 1.442335e-003
2.208094e+003, 9.995878e-004
2.210023e+003, 1.463627e-003
2.211951e+003, 1.998547e-003
2.213880e+003, 1.377693e-003
2.215808e+003, 1.207540e-003
2.217737e+003, 1.859237e-003
2.219665e+003, 2.607733e-003
2.221594e+003, 2.225783e-003
2.223522e+003, 1.922953e-003
2.225450e+003, 2.065454e-003
2.227379e+003, 1.673545e-003
2.229307e+003, 1.171748e-003
2.231236e+003, 1.026709e-003
2.233164e+003, 1.401853e-003
2.235093e+003, 1.709922e-003
2.237021e+003, 2.192594e-003
2.238950e+003, 2.384906e-003
2.240878e+003, 1.729276e-003
2.242807e+003, 1.693524e-003
2.244735e+003, 2.160801e-003
2.246664e+003, 1.729616e-003
2.248592e+003, 2.008982e-003
2.250521e+003, 2.196501e-003
2.252449e+003, 1.900598e-003
2.254377e+003, 1.696619e-003
2.256306e+003, 1.493050e-003
2.258234e+003, 1.485580e-003
2.260163e+003, 1.831000e-003
2.262091e+003, 1.882699e-003
2.264020e+003, 1.625760e-003
2.265948e+003, 1.766937e-003
2.267877e+003, 2.290767e-003
2.269805e+003, 2.274181e-003
2.271734e+003, 1.960536e-003
2.273662e+003, 2.061318e-003
2.275591e+003, 1.973292e-003
2.277519e+003, 2.253229e-003
2.279448e+003, 1.910686e-003
2.281376e+003, 1.408905e-003
2.283304e+003, 1.575944e-003
2.285233e+003, 2.161377e-003
2.287161e+003, 2.191267e-003
2.289090e+003, 1.811257e-003
2.291018e+003, 1.785983e-003
2.292947e+003, 2.129719e-003
2.294875e+003, 2.269932e-003
2.296804e+003, 1.993558e-003
2.298732e+003, 1.714798e-003
2.300661e+003, 1.911073e-003
2.302589e+003, 2.474591e-003
2.304518e+003, 2.541892e-003
2.306446e+003, 2.129259e-003
2.308375e+003, 2.110916e-003
2.310303e+003, 2.370691e-003
2.312231e+003, 2.498674e-003
2.314160e+003, 2.650983e-003
2.316088e+003, 2.708071e-003
2.318017e+003, 2.657038e-003
2.319945e+003, 2.357714e-003
2.321874e+003, 2.197700e-003
2.323802e+003, 2.477292e-003
2.325731e+003, 3.194973e-003
2.327659e+003, 3.576753e-003
2.329588e+003, 3.534644e-003
2.331516e+003, 3.297023e-003
2.333445e+003, 3.287194e-003
2.335373e+003, 3.545096e-003
2.337302e+003, 3.770646e-003
2.339230e+003, 3.914603e-003
2.341158e+003, 3.659580e-003
2.343087e+003, 3.607406e-003
2.345015e+003, 3.578753e-003
2.346944e+003, 3.303633e-003
2.348872e+003, 2.902295e-003
2.350801e+003, 3.067795e-003
2.352729e+003, 3.503193e-003
2.354658e+003, 3.810555e-003
2.356586e+003, 3.903583e-003
2.358515e+003, 4.061149e-003
2.360443e+003, 4.511075e-003
2.362372e+003, 4.652549e-003
2.364300e+003, 4.689140e-003
2.366229e+003, 4.536262e-003
2.368157e+003, 4.344040e-003
2.370085e+003, 4.155679e-003
2.372014e+003, 3.776766e-003
2.373942e+003, 3.356673e-003
2.375871e+003, 3.308627e-003
2.377799e+003, 3.285544e-003
2.379728e+003, 3.134219e-003
2.381656e+003, 2.816282e-003
2.383585e+003, 2.463404e-003
2.385513e+003, 2.380248e-003
2.387442e+003, 2.662252e-003
2.389370e+003, 2.830316e-003
2.391299e+003, 2.896097e-003
2.393227e+003, 2.953080e-003
2.395156e+003, 2.759712e-003
2.397084e+003, 2.546415e-003
2.399012e+003, 2.318011e-003
2.400941e+003, 2.286811e-003
2.402869e+003, 2.309404e-003
2.404798e+003, 2.350530e-003
2.406726e+003, 2.191310e-003
2.408655e+003, 2.247488e-003
2.410583e+003, 2.495226e-003
2.412512e+003, 2.385160e-003
2.414440e+003, 2.560817e-003
2.416369e+003, 2.503594e-003
2.418297e+003, 2.254894e-003
2.420226e+003, 2.185728e-003
2.422154e+003, 2.103573e-003
2.424083e+003, 2.244078e-003
2.426011e+003, 2.319829e-003
2.427939e+003, 2.435970e-003
2.429868e+003, 2.718722e-003
2.431796e+003, 2.800578e-003
2.433725e+003, 2.173835e-003
2.435653e+003, 1.779984e-003
2.437582e+003, 1.881035e-003
2.439510e+003, 1.980383e-003
2.441439e+003, 1.822500e-003
2.443367e+003, 1.842470e-003
2.445296e+003, 2.485485e-003
2.447224e+003, 2.428565e-003
2.449153e+003, 1.764932e-003
2.451081e+003, 1.501930e-003
2.453010e+003, 1.780649e-003
2.454938e+003, 2.080081e-003
2.456866e+003, 2.162262e-003
2.458795e+003, 2.355440e-003
2.460723e+003, 2.374080e-003
2.462652e+003, 2.140254e-003
2.464580e+003, 1.899960e-003
2.466509e+003, 2.032650e-003
2.468437e+003, 2.300620e-003
2.470366e+003, 2.404342e-003
2.472294e+003, 1.968594e-003
2.474223e+003, 1.514698e-003
2.476151e+003, 1.759631e-003
2.478080e+003, 2.239373e-003
2.480008e+003, 2.394078e-003
2.481937e+003, 2.341581e-003
2.483865e+003, 2.170915e-003
2.485793e+003, 1.896615e-003
2.487722e+003, 2.107715e-003
2.489650e+003, 2.462212e-003
2.491579e+003, 2.184110e-003
2.493507e+003, 1.927587e-003
2.495436e+003, 1.875028e-003
2.497364e+003, 2.039243e-003
2.499293e+003, 2.233682e-003
2.501221e+003, 2.283533e-003
2.503150e+003, 2.535367e-003
2.505078e+003, 2.680212e-003
2.507007e+003, 2.262471e-003
2.508935e+003, 1.730248e-003
2.510864e+003, 1.673796e-003
2.512792e+003, 1.951990e-003
2.514720e+003, 2.125585e-003
2.516649e+003, 2.175627e-003
2.518577e+003, 2.010708e-003
2.520506e+003, 1.819459e-003
2.522434e+003, 1.728471e-003
2.524363e+003, 1.978837e-003
2.526291e+003, 2.118337e-003
2.528220e+003, 1.926138e-003
2.530148e+003, 1.698743e-003
2.532077e+003, 1.818145e-003
2.534005e+003, 1.564030e-003
2.535934e+003, 1.615913e-003
2.537862e+003, 1.845170e-003
2.539791e+003, 1.860695e-003
2.541719e+003, 1.636605e-003
2.543647e+003, 1.560321e-003
2.545576e+003, 1.555806e-003
2.547504e+003, 1.641899e-003
2.549433e+003, 1.912144e-003
2.551361e+003, 1.733028e-003
2.553290e+003, 1.259222e-003
2.555218e+003, 1.081479e-003
2.557147e+003, 1.294546e-003
2.559075e+003, 1.453729e-003
2.561004e+003, 1.416892e-003
2.562932e+003, 1.307045e-003
2.564861e+003, 1.190924e-003
2.566789e+003, 9.006518e-004
2.568718e+003, 5.860042e-004
2.570646e+003, 6.008006e-004
2.572574e+003, 1.006639e-003
2.574503e+003, 1.071981e-003
2.576431e+003, 1.056939e-003
2.578360e+003, 1.214015e-003
2.580288e+003, 1.309625e-003
2.582217e+003, 1.022539e-003
2.584145e+003, 1.021971e-003
2.586074e+003, 1.546658e-003
2.588002e+003, 1.620162e-003
2.589931e+003, 1.473273e-003
2.591859e+003, 1.274340e-003
2.593788e+003, 1.125461e-003
2.595716e+003, 1.028208e-003
2.597645e+003, 1.061232e-003
2.599573e+003, 8.817251e-004
2.601501e+003, 1.141758e-003
2.603430e+003, 1.257414e-003
2.605358e+003, 9.698755e-004
2.607287e+003, 8.621305e-004
2.609215e+003, 1.138669e-003
2.611144e+003, 1.394632e-003
2.613072e+003, 1.333820e-003
2.615001e+003, 1.155731e-003
2.616929e+003, 1.157415e-003
2.618858e+003, 1.117841e-003
2.620786e+003, 1.028313e-003
2.622715e+003, 1.236405e-003
2.624643e+003, 1.118095e-003
2.626572e+003, 7.067393e-004
2.628500e+003, 7.335392e-004
2.630428e+003, 1.019072e-003
2.632357e+003, 1.060987e-003
2.634285e+003, 1.290722e-003
2.636214e+003, 1.217129e-003
2.638142e+003, 1.196807e-003
2.640071e+003, 1.133899e-003
2.641999e+003, 9.713705e-004
2.643928e+003, 1.166517e-003
2.645856e+003, 1.267719e-003
2.647785e+003, 9.749522e-004
2.649713e+003, 9.794041e-004
2.651642e+003, 1.246274e-003
2.653570e+003, 1.217394e-003
2.655499e+003, 1.183357e-003
2.657427e+003, 1.324506e-003
2.659355e+003, 1.381536e-003
2.661284e+003, 1.331468e-003
2.663212e+003, 1.516082e-003
2.665141e+003, 1.569924e-003
2.667069e+003, 1.436794e-003
2.668998e+003, 1.412821e-003
2.670926e+003, 1.523237e-003
2.672855e+003, 1.599234e-003
2.674783e+003, 1.450550e-003
2.676712e+003, 1.451737e-003
2.678640e+003, 1.771445e-003
2.680569e+003, 1.905051e-003
2.682497e+003, 1.867385e-003
2.684426e+003, 1.913770e-003
2.686354e+003, 1.641260e-003
2.688282e+003, 1.381352e-003
2.690211e+003, 1.409883e-003
2.692139e+003, 1.480154e-003
2.694068e+003, 1.661732e-003
2.695996e+003, 2.006790e-003
2.697925e+003, 2.009801e-003
2.699853e+003, 1.601494e-003
2.701782e+003, 1.602684e-003
2.703710e+003, 1.819194e-003
2.705639e+003, 1.863366e-003
2.707567e+003, 1.827280e-003
2.709496e+003, 1.870709e-003
2.711424e+003, 1.920775e-003
2.713353e+003, 1.927508e-003
2.715281e+003, 1.796383e-003
2.717209e+003, 1.807271e-003
2.719138e+003, 1.859673e-003
2.721066e+003, 1.771563e-003
2.722995e+003, 1.737356e-003
2.724923e+003, 1.920667e-003
2.726852e+003, 2.059364e-003
2.728780e+003, 1.784939e-003
2.730709e+003, 1.779188e-003
2.732637e+003, 2.006118e-003
2.734566e+003, 1.799226e-003
2.736494e+003, 1.807625e-003
2.738423e+003, 1.936272e-003
2.740351e+003, 1.825470e-003
2.742280e+003, 1.916995e-003
2.744208e+003, 2.144914e-003
2.746136e+003, 2.249476e-003
2.748065e+003, 2.133894e-003
2.749993e+003, 1.995517e-003
2.751922e+003, 2.045471e-003
2.753850e+003, 2.021087e-003
2.755779e+003, 1.948294e-003
2.757707e+003, 1.702542e-003
2.759636e+003, 1.953782e-003
2.761564e+003, 2.150890e-003
2.763493e+003, 2.087408e-003
2.765421e+003, 2.093794e-003
2.767350e+003, 2.013374e-003
2.769278e+003, 2.091581e-003
2.771207e+003, 2.231254e-003
2.773135e+003, 2.190697e-003
2.775063e+003, 2.333036e-003
2.776992e+003, 2.433446e-003
2.778920e+003, 2.261017e-003
2.780849e+003, 2.091134e-003
2.782777e+003, 2.129218e-003
2.784706e+003, 2.193882e-003
2.786634e+003, 2.213951e-003
2.788563e+003, 2.226371e-003
2.790491e+003, 2.392395e-003
2.792420e+003, 2.500443e-003
2.794348e+003, 2.776686e-003
2.796277e+003, 2.555348e-003
2.798205e+003, 2.367920e-003
2.800134e+003, 2.676691e-003
2.802062e+003, 2.498934e-003
2.803990e+003, 2.329513e-003
2.805919e+003, 2.352318e-003
2.807847e+003, 2.311482e-003
2.809776e+003, 2.175837e-003
2.811704e+003, 2.075099e-003
2.813633e+003, 1.947252e-003
2.815561e+003, 2.121611e-003
2.817490e+003, 2.366940e-003
2.819418e+003, 2.478508e-003
2.821347e+003, 2.759892e-003
2.823275e+003, 2.629369e-003
2.825204e+003, 2.322912e-003
2.827132e+003, 2.354394e-003
2.829061e+003, 2.514882e-003
2.830989e+003, 2.475481e-003
2.832917e+003, 2.432365e-003
2.834846e+003, 2.631727e-003
2.836774e+003, 2.611914e-003
2.838703e+003, 2.509790e-003
2.840631e+003, 2.637743e-003
2.842560e+003, 2.466229e-003
2.844488e+003, 2.108679e-003
2.846417e+003, 2.151926e-003
2.848345e+003, 2.637007e-003
2.850274e+003, 2.797575e-003
2.852202e+003, 2.657746e-003
2.854131e+003, 2.606811e-003
2.856059e+003, 2.158462e-003
2.857988e+003, 2.027082e-003
2.859916e+003, 2.495477e-003
2.861844e+003, 2.704359e-003
2.863773e+003, 2.420141e-003
2.865701e+003, 2.287121e-003
2.867630e+003, 2.111595e-003
2.869558e+003, 1.869002e-003
2.871487e+003, 2.202900e-003
2.873415e+003, 2.592961e-003
2.875344e+003, 2.550268e-003
2.877272e+003, 2.191950e-003
2.879201e+003, 1.764364e-003
2.881129e+003, 1.864554e-003
2.883058e+003, 2.132232e-003
2.884986e+003, 2.008762e-003
2.886915e+003, 1.945500e-003
2.888843e+003, 2.161707e-003
2.890771e+003, 2.181923e-003
2.892700e+003, 1.984513e-003
2.894628e+003, 2.095036e-003
2.896557e+003, 2.119374e-003
2.898485e+003, 2.094482e-003
2.900414e+003, 2.336228e-003
2.902342e+003, 2.384081e-003
2.904271e+003, 2.338489e-003
2.906199e+003, 2.312892e-003
2.908128e+003, 2.264005e-003
2.910056e+003, 2.048834e-003
2.911985e+003, 1.998353e-003
2.913913e+003, 1.888829e-003
2.915842e+003, 1.873493e-003
2.917770e+003, 2.425337e-003
2.919698e+003, 2.727693e-003
2.921627e+003, 2.575998e-003
2.923555e+003, 2.436542e-003
2.925484e+003, 2.715603e-003
2.927412e+003, 2.812331e-003
2.929341e+003, 2.666003e-003
2.931269e+003, 2.531670e-003
2.933198e+003, 2.562412e-003
2.935126e+003, 2.618245e-003
2.937055e+003, 2.574679e-003
2.938983e+003, 2.062520e-003
2.940912e+003, 1.784150e-003
2.942840e+003, 1.601529e-003
2.944769e+003, 1.636544e-003
2.946697e+003, 1.759877e-003
2.948625e+003, 2.094159e-003
2.950554e+003, 2.476166e-003
2.952482e+003, 2.298986e-003
2.954411e+003, 1.587718e-003
2.956339e+003, 1.473874e-003
2.958268e+003, 1.724470e-003
2.960196e+003, 1.469538e-003
2.962125e+003, 1.503281e-003
2.964053e+003, 1.698915e-003
2.965982e+003, 1.905477e-003
2.967910e+003, 1.963608e-003
2.969839e+003, 1.545677e-003
2.971767e+003, 1.442352e-003
2.973696e+003, 1.762383e-003
2.975624e+003, 1.358974e-003
2.977552e+003, 1.442874e-003
2.979481e+003, 1.639673e-003
2.981409e+003, 1.703314e-003
2.983338e+003, 1.600947e-003
2.985266e+003, 1.389440e-003
2.987195e+003, 1.307765e-003
2.989123e+003, 1.745658e-003
2.991052e+003, 2.138797e-003
2.992980e+003, 1.922230e-003
2.994909e+003, 1.758181e-003
2.996837e+003, 1.714034e-003
2.998766e+003, 1.705355e-003
3.000694e+003, 1.771919e-003
3.002623e+003, 1.608659e-003
3.004551e+003, 1.488064e-003
3.006479e+003, 1.331617e-003
3.008408e+003, 1.187858e-003
3.010336e+003, 1.424315e-003
3.012265e+003, 1.603057e-003
3.014193e+003, 2.069793e-003
3.016122e+003, 2.917950e-003
3.018050e+003, 2.712234e-003
3.019979e+003, 1.765629e-003
3.021907e+003, 1.308404e-003
3.023836e+003, 1.352634e-003
3.025764e+003, 1.586615e-003
3.027693e+003, 1.559263e-003
3.029621e+003, 1.373407e-003
3.031550e+003, 1.606433e-003
3.033478e+003, 2.019677e-003
3.035406e+003, 2.109271e-003
3.037335e+003, 1.840963e-003
3.039263e+003, 1.547473e-003
3.041192e+003, 1.412231e-003
3.043120e+003, 1.253127e-003
3.045049e+003, 1.506681e-003
3.046977e+003, 1.769304e-003
3.048906e+003, 1.329427e-003
3.050834e+003, 8.818475e-004
3.052763e+003, 1.161455e-003
3.054691e+003, 1.582412e-003
3.056620e+003, 1.704555e-003
3.058548e+003, 1.438853e-003
3.060477e+003, 1.473736e-003
3.062405e+003, 1.589323e-003
3.064333e+003, 1.444115e-003
3.066262e+003, 1.457299e-003
3.068190e+003, 1.444140e-003
3.070119e+003, 1.260405e-003
3.072047e+003, 1.323512e-003
3.073976e+003, 1.402817e-003
3.075904e+003, 1.482123e-003
3.077833e+003, 1.396952e-003
3.079761e+003, 1.386458e-003
3.081690e+003, 1.426640e-003
3.083618e+003, 1.252103e-003
3.085547e+003, 1.448620e-003
3.087475e+003, 1.741392e-003
3.089404e+003, 1.762428e-003
3.091332e+003, 1.857351e-003
3.093260e+003, 1.903535e-003
3.095189e+003, 1.895132e-003
3.097117e+003, 1.850964e-003
3.099046e+003, 1.858556e-003
3.100974e+003, 1.715235e-003
3.102903e+003, 1.667676e-003
3.104831e+003, 1.356933e-003
3.106760e+003, 1.087907e-003
3.108688e+003, 1.208642e-003
3.110617e+003, 1.328617e-003
3.112545e+003, 1.430882e-003
3.114474e+003, 1.347652e-003
3.116402e+003, 1.053387e-003
3.118331e+003, 1.296721e-003
3.120259e+003, 1.729296e-003
3.122188e+003, 2.010231e-003
3.124116e+003, 1.774792e-003
3.126044e+003, 1.518875e-003
3.127973e+003, 1.540948e-003
3.129901e+003, 1.654511e-003
3.131830e+003, 1.923367e-003
3.133758e+003, 1.705142e-003
3.135687e+003, 1.264945e-003
3.137615e+003, 1.279948e-003
3.139544e+003, 1.711516e-003
3.141472e+003, 1.740259e-003
3.143401e+003, 1.392092e-003
3.145329e+003, 1.457702e-003
3.147258e+003, 1.420037e-003
3.149186e+003, 1.036548e-003
3.151115e+003, 9.294313e-004
3.153043e+003, 1.385005e-003
3.154971e+003, 1.602550e-003
3.156900e+003, 1.419404e-003
3.158828e+003, 1.142834e-003
3.160757e+003, 1.174729e-003
3.162685e+003, 1.252190e-003
3.164614e+003, 1.148817e-003
3.166542e+003, 1.394165e-003
3.168471e+003, 1.358001e-003
3.170399e+003, 1.309790e-003
3.172328e+003, 9.278553e-004
3.174256e+003, 8.649201e-004
3.176185e+003, 1.114271e-003
3.178113e+003, 1.429639e-003
3.180042e+003, 1.541749e-003
3.181970e+003, 1.599123e-003
3.183898e+003, 1.724159e-003
3.185827e+003, 1.606912e-003
3.187755e+003, 1.672352e-003
3.189684e+003, 1.537477e-003
3.191612e+003, 1.220072e-003
3.193541e+003, 9.939389e-004
3.195469e+003, 1.314425e-003
3.197398e+003, 1.646175e-003
3.199326e+003, 1.564677e-003
3.201255e+003, 1.316275e-003
3.203183e+003, 1.110855e-003
3.205112e+003, 1.366805e-003
3.207040e+003, 1.441516e-003
3.208969e+003, 1.786498e-003
3.210897e+003, 1.823752e-003
3.212825e+003, 1.530870e-003
3.214754e+003, 1.371072e-003
3.216682e+003, 1.503939e-003
3.218611e+003, 1.724751e-003
3.220539e+003, 1.574051e-003
3.222468e+003, 1.434088e-003
3.224396e+003, 1.318130e-003
3.226325e+003, 1.240139e-003
3.228253e+003, 1.534855e-003
3.230182e+003, 1.086879e-003
3.232110e+003, 8.042655e-004
3.234039e+003, 1.141193e-003
3.235967e+003, 1.216531e-003
3.237896e+003, 6.618744e-004
3.239824e+003, 6.380750e-004
3.241752e+003, 1.052519e-003
3.243681e+003, 1.033333e-003
3.245609e+003, 1.198367e-003
3.247538e+003, 1.698291e-003
3.249466e+003, 1.734951e-003
3.251395e+003, 1.439353e-003
3.253323e+003, 1.132361e-003
3.255252e+003, 7.774711e-004
3.257180e+003, 7.089040e-004
3.259109e+003, 4.515350e-004
3.261037e+003, 5.533678e-004
3.262966e+003, 9.934951e-004
3.264894e+003, 1.141710e-003
3.266823e+003, 6.813846e-004
3.268751e+003, 2.288969e-004
3.270679e+003, 2.866655e-004
3.272608e+003, 8.138774e-004
3.274536e+003, 8.597061e-004
3.276465e+003, 5.202234e-004
3.278393e+003, 6.880631e-004
3.280322e+003, 4.274840e-004
3.282250e+003, 5.851192e-004
3.284179e+003, 1.071472e-003
3.286107e+003, 8.797597e-004
3.288036e+003, 4.064534e-004
3.289964e+003, 7.221476e-004
3.291893e+003, 8.018718e-004
3.293821e+003, 4.819719e-004
3.295750e+003, 4.004017e-004
3.297678e+003, 5.340615e-004
3.299606e+003, 7.459805e-004
3.301535e+003, 8.311032e-004
3.303463e+003, 2.906389e-004
3.305392e+003, -1.418515e-004
3.307320e+003, 1.615846e-005
3.309249e+003, 4.907674e-004
3.311177e+003, 6.041796e-004
3.313106e+003, 5.092834e-004
3.315034e+003, 2.694885e-004
3.316963e+003, 3.238097e-004
3.318891e+003, 1.102910e-003
3.320820e+003, 1.448120e-003
3.322748e+003, 1.376081e-003
3.324677e+003, 1.284894e-003
3.326605e+003, 6.164449e-004
3.328533e+003, 3.415188e-004
3.330462e+003, 2.736981e-004
3.332390e+003, 5.462883e-004
3.334319e+003, 4.612574e-004
3.336247e+003, 8.303280e-005
3.338176e+003, 4.993444e-004
3.340104e+003, 7.451667e-004
3.342033e+003, 9.891930e-005
3.343961e+003, -1.553268e-004
3.345890e+003, 4.393832e-004
3.347818e+003, 1.048010e-003
3.349747e+003, 5.920448e-004
3.351675e+003, 2.599899e-004
3.353604e+003, 3.437916e-004
3.355532e+003, 5.382523e-004
3.357460e+003, 1.638827e-004
3.359389e+003, -3.815410e-004
3.361317e+003, -1.835841e-004
3.363246e+003, 1.798905e-004
3.365174e+003, 3.184721e-004
3.367103e+003, 2.745419e-004
3.369031e+003, 6.099051e-005
3.370960e+003, 3.676438e-004
3.372888e+003, 8.068589e-004
3.374817e+003, 1.217506e-003
3.376745e+003, 6.385780e-004
3.378674e+003, 5.273706e-004
3.380602e+003, 9.048498e-004
3.382531e+003, 1.803917e-004
3.384459e+003, 1.545516e-004
3.386387e+003, 9.470616e-004
3.388316e+003, 9.200499e-004
3.390244e+003, 5.487620e-004
3.392173e+003, 5.075576e-004
3.394101e+003, 7.458740e-004
3.396030e+003, 6.184977e-004
3.397958e+003, 1.054136e-004
3.399887e+003, -2.998437e-004
3.401815e+003, 6.681404e-005
3.403744e+003, 5.145206e-004
3.405672e+003, -1.780671e-005
3.407601e+003, -2.043589e-004
3.409529e+003, 3.848968e-004
3.411458e+003, 8.583312e-004
3.413386e+003, 1.019594e-003
3.415314e+003, 1.001685e-003
3.417243e+003, 8.463195e-004
3.419171e+003, 7.090507e-004
3.421100e+003, 2.209444e-004
3.423028e+003, 4.148608e-005
3.424957e+003, 4.756142e-004
3.426885e+003, 1.142953e-003
3.428814e+003, 6.410025e-004
3.430742e+003, -1.509877e-004
3.432671e+003, 3.985638e-005
3.434599e+003, 3.727559e-004
3.436528e+003, 8.147932e-004
3.438456e+003, 1.307849e-003
3.440385e+003, 9.447599e-004
3.442313e+003, 6.474169e-004
3.444241e+003, 5.086924e-004
3.446170e+003, -2.170945e-004
3.448098e+003, 3.518425e-004
3.450027e+003, 1.225241e-003
3.451955e+003, 8.841247e-004
3.453884e+003, 2.454670e-005
3.455812e+003, -2.035247e-005
3.457741e+003, 8.398923e-004
3.459669e+003, 9.038759e-004
3.461598e+003, 7.240609e-004
3.463526e+003, 1.011155e-003
3.465455e+003, 7.861513e-004
3.467383e+003, 6.162199e-004
3.469312e+003, 9.969957e-004
3.471240e+003, 1.186283e-003
3.473168e+003, 9.972433e-004
3.475097e+003, 9.390016e-004
3.477025e+003, 8.956905e-004
3.478954e+003, 1.082494e-004
3.480882e+003, -8.901373e-004
3.482811e+003, -6.741754e-004
3.484739e+003, 1.636511e-004
3.486668e+003, 3.339294e-005
3.488596e+003, -5.887286e-004
3.490525e+003, -3.029229e-004
3.492453e+003, 4.378467e-004
3.494382e+003, 6.467739e-004
3.496310e+003, 6.318057e-004
3.498239e+003, 8.847032e-004
3.500167e+003, 1.646065e-004
3.502095e+003, -3.298603e-004
3.504024e+003, 2.045534e-004
3.505952e+003, -4.246439e-005
3.507881e+003, -2.210266e-004
3.509809e+003, 8.203132e-004
3.511738e+003, 1.164553e-003
3.513666e+003, 1.482221e-003
3.515595e+003, 1.294240e-003
3.517523e+003, 6.628270e-004
3.519452e+003, 2.027576e-004
3.521380e+003, -3.516843e-004
3.523309e+003, -1.889715e-004
3.525237e+003, -1.127197e-004
3.527166e+003, 1.970164e-004
3.529094e+003, 9.220960e-004
3.531022e+003, 1.234819e-003
3.532951e+003, 7.850697e-004
3.534879e+003, 3.955353e-004
3.536808e+003, -3.356679e-006
3.538736e+003, 1.244234e-004
3.540665e+003, 2.916609e-004
3.542593e+003, 3.294715e-004
3.544522e+003, 5.437830e-004
3.546450e+003, 6.521925e-004
3.548379e+003, 5.126840e-004
3.550307e+003, 1.026894e-003
3.552236e+003, 9.713648e-004
3.554164e+003, 2.473416e-004
3.556093e+003, 1.641273e-004
3.558021e+003, 1.842333e-004
3.559949e+003, 5.803682e-004
3.561878e+003, 1.116515e-003
3.563806e+003, 1.502357e-003
3.565735e+003, 1.438693e-003
3.567663e+003, 8.014796e-004
3.569592e+003, 2.577531e-004
3.571520e+003, 2.840230e-004
3.573449e+003, 9.325323e-004
3.575377e+003, 1.020254e-003
3.577306e+003, 4.840481e-004
3.579234e+003, 7.162406e-005
3.581163e+003, -2.508544e-004
3.583091e+003, -4.789140e-004
3.585020e+003, 2.916677e-004
3.586948e+003, 6.719857e-004
3.588876e+003, 5.048286e-004
3.590805e+003, -1.032195e-004
3.592733e+003, -1.775757e-004
3.594662e+003, 5.856139e-004
3.596590e+003, 1.173016e-003
3.598519e+003, 9.110215e-004
3.600447e+003, 2.789671e-004
3.602376e+003, 4.322637e-004
3.604304e+003, 2.361449e-005
3.606233e+003, -1.080708e-004
3.608161e+003, 4.988757e-004
3.610090e+003, -3.600217e-005
3.612018e+003, 1.131961e-004
3.613947e+003, -1.191296e-005
3.615875e+003, -2.002694e-004
3.617803e+003, 9.672978e-004
3.619732e+003, 1.350181e-003
3.621660e+003, 3.057279e-004
3.623589e+003, -1.533894e-004
3.625517e+003, -2.891009e-004
3.627446e+003, 7.431757e-004
3.629374e+003, 1.606772e-003
3.631303e+003, 3.517715e-005
3.633231e+003, -1.062598e-003
3.635160e+003, -7.686356e-004
3.637088e+003, -2.292350e-004
3.639017e+003, -2.238126e-006
3.640945e+003, 3.833316e-004
3.642874e+003, 3.284564e-004
3.644802e+003, 2.119172e-004
3.646730e+003, 7.347469e-004
3.648659e+003, 1.787719e-003
3.650587e+003, 1.431452e-003
3.652516e+003, -1.417324e-004
3.654444e+003, -3.035877e-004
3.656373e+003, -4.902586e-005
3.658301e+003, -6.086089e-004
3.660230e+003, -4.374055e-004
3.662158e+003, -3.943622e-004
3.664087e+003, -4.466644e-004
3.666015e+003, -2.065886e-004
3.667944e+003, 1.985785e-004
3.669872e+003, 1.373247e-003
3.671801e+003, 1.571207e-003
3.673729e+003, 1.568725e-003
3.675657e+003, 1.424207e-003
3.677586e+003, -3.532414e-004
3.679514e+003, -9.466966e-004
3.681443e+003, -8.278743e-004
3.683371e+003, -6.897579e-004
3.685300e+003, -2.299398e-004
3.687228e+003, 1.165273e-003
3.689157e+003, 1.380910e-003
3.691085e+003, 1.388252e-004
3.693014e+003, -8.230628e-004
3.694942e+003, -9.319367e-004
3.696871e+003, -4.145299e-004
3.698799e+003, -7.112501e-004
3.700728e+003, -1.502237e-003
3.702656e+003, -1.570464e-003
3.704584e+003, -1.366998e-003
3.706513e+003, -1.015784e-003
3.708441e+003, 4.163540e-004
3.710370e+003, 1.325672e-003
3.712298e+003, 7.773809e-004
3.714227e+003, -5.840464e-004
3.716155e+003, -5.044984e-004
3.718084e+003, 5.403776e-006
3.720012e+003, -6.610680e-005
3.721941e+003, -8.411554e-004
3.723869e+003, 1.268758e-004
3.725798e+003, 1.328363e-003
3.727726e+003, 9.964127e-004
3.729655e+003, -4.170559e-005
3.731583e+003, -3.297409e-005
3.733511e+003, 6.005794e-004
3.735440e+003, 1.895243e-003
3.737368e+003, 1.663881e-003
3.739297e+003, 4.287858e-004
3.741225e+003, 4.164598e-004
3.743154e+003, 1.635829e-003
3.745082e+003, 1.550198e-003
3.747011e+003, 5.879045e-004
3.748939e+003, 1.725695e-003
3.750868e+003, 2.241956e-003
3.752796e+003, 1.508985e-003
3.754725e+003, 1.850847e-005
3.756653e+003, -6.291505e-005
3.758582e+003, -1.125315e-004
3.760510e+003, 8.882134e-007
3.762438e+003, -6.255719e-004
3.764367e+003, -8.811132e-004
3.766295e+003, -4.768126e-004
3.768224e+003, 3.185878e-004
3.770152e+003, 3.440869e-004
3.772081e+003, -3.250457e-004
3.774009e+003, -1.294424e-004
3.775938e+003, -9.187181e-005
3.777866e+003, -6.577731e-005
3.779795e+003, 2.398871e-004
3.781723e+003, -4.259555e-004
3.783652e+003, -3.189090e-004
3.785580e+003, -6.875162e-005
3.787509e+003, -1.059753e-003
3.789437e+003, -1.405714e-003
3.791365e+003, -4.729771e-004
3.793294e+003, -3.988556e-004
3.795222e+003, -9.130629e-004
3.797151e+003, -1.306707e-003
3.799079e+003, -4.212919e-004
3.801008e+003, 1.322488e-003
3.802936e+003, 1.433491e-003
3.804865e+003, 3.265933e-004
3.806793e+003, 4.222412e-004
3.808722e+003, -1.542034e-004
3.810650e+003, -8.795760e-004
3.812579e+003, -1.498460e-003
3.814507e+003, -4.693985e-004
3.816436e+003, 1.467505e-004
3.818364e+003, -3.945078e-004
3.820292e+003, 6.968810e-004
3.822221e+003, 1.022740e-003
3.824149e+003, 4.816897e-004
3.826078e+003, 1.814086e-004
3.828006e+003, -3.808805e-004
3.829935e+003, -2.450721e-004
3.831863e+003, 4.196956e-005
3.833792e+003, 3.118092e-004
3.835720e+003, 1.113235e-003
3.837649e+003, 1.930103e-003
3.839577e+003, 6.583802e-004
3.841506e+003, -4.287713e-004
3.843434e+003, -9.811997e-004
3.845363e+003, -8.048287e-004
3.847291e+003, -6.212449e-004
3.849219e+003, -2.914548e-004
3.851148e+003, 1.603029e-003
3.853076e+003, 4.202666e-003
3.855005e+003, 3.167846e-003
3.856933e+003, 9.415140e-004
3.858862e+003, 8.619881e-005
3.860790e+003, -2.858728e-004
3.862719e+003, 1.041895e-004
3.864647e+003, 5.941248e-004
3.866576e+003, -6.950262e-004
3.868504e+003, -5.063906e-004
3.870433e+003, 1.988793e-004
3.872361e+003, -6.246617e-004
3.874290e+003, -6.769487e-004
3.876218e+003, -8.461066e-004
3.878146e+003, -6.005712e-004
3.880075e+003, 4.930296e-004
3.882003e+003, 4.964789e-004
3.883932e+003, 7.015405e-004
3.885860e+003, 1.176222e-003
3.887789e+003, 2.008633e-004
3.889717e+003, 5.580433e-004
3.891646e+003, 8.317872e-004
3.893574e+003, -2.712806e-004
3.895503e+003, -6.480902e-004
3.897431e+003, 2.111463e-004
3.899360e+003, 8.053597e-004
3.901288e+003, 9.356057e-004
3.903217e+003, 9.016461e-004
3.905145e+003, 3.262019e-004
3.907073e+003, -2.822258e-004
3.909002e+003, -3.190270e-005
3.910930e+003, -5.679896e-005
3.912859e+003, -6.135689e-004
3.914787e+003, -4.655269e-004
3.916716e+003, 2.799020e-004
3.918644e+003, -8.954575e-004
3.920573e+003, -1.264074e-003
3.922501e+003, -1.239638e-003
3.924430e+003, -5.234870e-004
3.926358e+003, -1.034147e-003
3.928287e+003, -1.365419e-003
3.930215e+003, -7.659975e-004
3.932144e+003, -5.642503e-004
3.934072e+003, -1.130234e-003
3.936000e+003, -9.085663e-004
3.937929e+003, -4.938607e-004
3.939857e+003, -9.379021e-004
3.941786e+003, -6.826180e-004
3.943714e+003, 1.050010e-004
3.945643e+003, -8.007483e-005
3.947571e+003, -9.096641e-004
3.949500e+003, -8.700885e-004
3.951428e+003, -5.954089e-004
3.953357e+003, -6.466397e-004
3.955285e+003, -3.065626e-004
3.957214e+003, -3.131382e-004
3.959142e+003, -3.919790e-004
3.961071e+003, -5.451567e-004
3.962999e+003, -5.959618e-004
3.964927e+003, -7.531772e-004
3.966856e+003, -1.112573e-003
3.968784e+003, -1.367513e-003
3.970713e+003, -1.253803e-003
3.972641e+003, -9.871044e-004
3.974570e+003, -8.728003e-004
3.976498e+003, -5.672763e-004
3.978427e+003, -6.397568e-004
3.980355e+003, -1.154552e-003
3.982284e+003, -1.775667e-003
3.984212e+003, -2.102096e-003
3.986141e+003, -2.376680e-003
3.988069e+003, -1.428763e-003
3.989998e+003, -2.290681e-004
3.991926e+003, -7.407779e-004
3.993854e+003, -1.285898e-003
3.995783e+003, -8.497327e-004
3.997711e+003, -5.930064e-004
##END=



