##NAMES=Serandite
##RRUFFID=R040056
##IDEAL CHEMISTRY=NaMn^2+^_2_Si_3_O_8_(OH)
##LOCALITY=Mont Saint-Hilaire, Rouville County, Quebec, Canada
##OWNER=RRUFF
##SOURCE=Bob Downs
##DESCRIPTION=Pink prismatic crystals
##STATUS=The identification of this mineral has been confirmed by X-ray diffraction and chemical analysis
##URL=rruff.info/R040056
##MEASURED CHEMISTRY=Na_1.01_Mn^2+^_1.93_Ca_0.05_Si_3.00_O_8_(OH)
3.991926e+002, 0.000000e+000
4.011211e+002, 2.327914e-001
4.030496e+002, 2.337710e-001
4.049780e+002, 2.534373e-001
4.069065e+002, 2.708401e-001
4.088350e+002, 2.770105e-001
4.107634e+002, 2.860696e-001
4.126919e+002, 2.851817e-001
4.146204e+002, 2.852616e-001
4.165488e+002, 2.844267e-001
4.184773e+002, 2.760769e-001
4.204058e+002, 2.731924e-001
4.223342e+002, 2.766453e-001
4.242627e+002, 2.740228e-001
4.261912e+002, 2.781898e-001
4.281196e+002, 2.886076e-001
4.300481e+002, 2.982223e-001
4.319766e+002, 3.068517e-001
4.339050e+002, 3.190078e-001
4.358335e+002, 3.275967e-001
4.377620e+002, 3.336346e-001
4.396904e+002, 3.352460e-001
4.416189e+002, 3.374880e-001
4.435474e+002, 3.368115e-001
4.454758e+002, 3.363759e-001
4.474043e+002, 3.299234e-001
4.493328e+002, 3.189631e-001
4.512612e+002, 3.110988e-001
4.531897e+002, 3.064871e-001
4.551182e+002, 3.006082e-001
4.570466e+002, 2.965732e-001
4.589751e+002, 2.956172e-001
4.609036e+002, 2.971523e-001
4.628320e+002, 2.988456e-001
4.647605e+002, 2.962157e-001
4.666890e+002, 2.893922e-001
4.686174e+002, 2.811789e-001
4.705459e+002, 2.709702e-001
4.724744e+002, 2.597617e-001
4.744028e+002, 2.472784e-001
4.763313e+002, 2.356709e-001
4.782598e+002, 2.233262e-001
4.801882e+002, 2.101015e-001
4.821167e+002, 1.982134e-001
4.840452e+002, 1.858681e-001
4.859736e+002, 1.747661e-001
4.879021e+002, 1.659491e-001
4.898306e+002, 1.574186e-001
4.917590e+002, 1.505369e-001
4.936875e+002, 1.442314e-001
4.956160e+002, 1.370897e-001
4.975444e+002, 1.307754e-001
4.994729e+002, 1.250896e-001
5.014014e+002, 1.199234e-001
5.033298e+002, 1.183436e-001
5.052583e+002, 1.215840e-001
5.071868e+002, 1.259350e-001
5.091152e+002, 1.308145e-001
5.110437e+002, 1.360686e-001
5.129722e+002, 1.406296e-001
5.149006e+002, 1.432452e-001
5.168291e+002, 1.455835e-001
5.187576e+002, 1.497429e-001
5.206860e+002, 1.548576e-001
5.226145e+002, 1.592073e-001
5.245430e+002, 1.617952e-001
5.264714e+002, 1.621208e-001
5.283999e+002, 1.599720e-001
5.303284e+002, 1.559254e-001
5.322568e+002, 1.518665e-001
5.341853e+002, 1.471659e-001
5.361138e+002, 1.416222e-001
5.380422e+002, 1.353679e-001
5.399707e+002, 1.296334e-001
5.418992e+002, 1.241631e-001
5.438276e+002, 1.183129e-001
5.457561e+002, 1.131418e-001
5.476846e+002, 1.090419e-001
5.496130e+002, 1.056340e-001
5.515415e+002, 1.030848e-001
5.534700e+002, 1.002166e-001
5.553984e+002, 9.707859e-002
5.573269e+002, 9.442967e-002
5.592554e+002, 9.236588e-002
5.611838e+002, 9.055366e-002
5.631123e+002, 8.908793e-002
5.650408e+002, 8.796629e-002
5.669692e+002, 8.716594e-002
5.688977e+002, 8.642483e-002
5.708262e+002, 8.707856e-002
5.727546e+002, 8.764702e-002
5.746831e+002, 8.760131e-002
5.766116e+002, 8.860659e-002
5.785400e+002, 8.979927e-002
5.804685e+002, 9.019645e-002
5.823970e+002, 9.016258e-002
5.843254e+002, 8.929478e-002
5.862539e+002, 8.847521e-002
5.881824e+002, 8.679762e-002
5.901108e+002, 8.409825e-002
5.920393e+002, 8.083016e-002
5.939678e+002, 7.798599e-002
5.958962e+002, 7.559644e-002
5.978247e+002, 7.282442e-002
5.997532e+002, 7.071492e-002
6.016816e+002, 6.975160e-002
6.036101e+002, 6.902839e-002
6.055386e+002, 6.915051e-002
6.074670e+002, 6.950662e-002
6.093955e+002, 6.974015e-002
6.113240e+002, 7.029202e-002
6.132524e+002, 7.128375e-002
6.151809e+002, 7.223658e-002
6.171094e+002, 7.319599e-002
6.190378e+002, 7.388363e-002
6.209663e+002, 7.473381e-002
6.228948e+002, 7.640350e-002
6.248232e+002, 7.811315e-002
6.267517e+002, 8.023886e-002
6.286802e+002, 8.296376e-002
6.306086e+002, 8.557165e-002
6.325371e+002, 8.928726e-002
6.344656e+002, 9.371991e-002
6.363940e+002, 9.843234e-002
6.383225e+002, 1.042588e-001
6.402510e+002, 1.110911e-001
6.421794e+002, 1.186047e-001
6.441079e+002, 1.269180e-001
6.460364e+002, 1.362813e-001
6.479648e+002, 1.454149e-001
6.498933e+002, 1.525826e-001
6.518218e+002, 1.561508e-001
6.537502e+002, 1.551841e-001
6.556787e+002, 1.496532e-001
6.576072e+002, 1.400494e-001
6.595356e+002, 1.288092e-001
6.614641e+002, 1.181511e-001
6.633926e+002, 1.095765e-001
6.653210e+002, 1.038912e-001
6.672495e+002, 1.011027e-001
6.691780e+002, 1.001855e-001
6.711064e+002, 1.010547e-001
6.730349e+002, 1.035333e-001
6.749634e+002, 1.077803e-001
6.768918e+002, 1.127993e-001
6.788203e+002, 1.176234e-001
6.807488e+002, 1.218869e-001
6.826772e+002, 1.247503e-001
6.846057e+002, 1.248372e-001
6.865342e+002, 1.207239e-001
6.884626e+002, 1.125836e-001
6.903911e+002, 1.021905e-001
6.923196e+002, 9.202231e-002
6.942480e+002, 8.456221e-002
6.961765e+002, 8.001934e-002
6.981050e+002, 7.826549e-002
7.000334e+002, 7.821026e-002
7.019619e+002, 7.910720e-002
7.038904e+002, 8.015171e-002
7.058188e+002, 8.025077e-002
7.077473e+002, 7.904319e-002
7.096758e+002, 7.655244e-002
7.116042e+002, 7.343435e-002
7.135327e+002, 7.053612e-002
7.154612e+002, 6.846884e-002
7.173896e+002, 6.692195e-002
7.193181e+002, 6.578378e-002
7.212466e+002, 6.467087e-002
7.231750e+002, 6.410015e-002
7.251035e+002, 6.421410e-002
7.270320e+002, 6.436352e-002
7.289604e+002, 6.493294e-002
7.308889e+002, 6.556346e-002
7.328174e+002, 6.623328e-002
7.347458e+002, 6.719148e-002
7.366743e+002, 6.798518e-002
7.386028e+002, 6.911419e-002
7.405313e+002, 6.995784e-002
7.424597e+002, 7.086794e-002
7.443882e+002, 7.225265e-002
7.463167e+002, 7.350338e-002
7.482451e+002, 7.456123e-002
7.501736e+002, 7.519413e-002
7.521021e+002, 7.628132e-002
7.540305e+002, 7.803227e-002
7.559590e+002, 7.988629e-002
7.578875e+002, 8.148655e-002
7.598159e+002, 8.283935e-002
7.617444e+002, 8.431103e-002
7.636729e+002, 8.607025e-002
7.656013e+002, 8.785487e-002
7.675298e+002, 8.960786e-002
7.694583e+002, 9.126975e-002
7.713867e+002, 9.288218e-002
7.733152e+002, 9.466749e-002
7.752437e+002, 9.678490e-002
7.771721e+002, 9.868351e-002
7.791006e+002, 1.002276e-001
7.810291e+002, 1.023401e-001
7.829575e+002, 1.044480e-001
7.848860e+002, 1.058122e-001
7.868145e+002, 1.066936e-001
7.887429e+002, 1.077195e-001
7.906714e+002, 1.085952e-001
7.925999e+002, 1.093708e-001
7.945283e+002, 1.101716e-001
7.964568e+002, 1.112976e-001
7.983853e+002, 1.126375e-001
8.003137e+002, 1.138663e-001
8.022422e+002, 1.149942e-001
8.041707e+002, 1.162986e-001
8.060991e+002, 1.178110e-001
8.080276e+002, 1.192446e-001
8.099561e+002, 1.208083e-001
8.118845e+002, 1.222126e-001
8.138130e+002, 1.239574e-001
8.157415e+002, 1.256447e-001
8.176699e+002, 1.274757e-001
8.195984e+002, 1.294745e-001
8.215269e+002, 1.310072e-001
8.234553e+002, 1.323549e-001
8.253838e+002, 1.340196e-001
8.273123e+002, 1.356561e-001
8.292407e+002, 1.374355e-001
8.311692e+002, 1.394144e-001
8.330977e+002, 1.413376e-001
8.350261e+002, 1.435023e-001
8.369546e+002, 1.460990e-001
8.388831e+002, 1.488911e-001
8.408115e+002, 1.512981e-001
8.427400e+002, 1.532173e-001
8.446685e+002, 1.554029e-001
8.465969e+002, 1.577611e-001
8.485254e+002, 1.606774e-001
8.504539e+002, 1.642931e-001
8.523823e+002, 1.681637e-001
8.543108e+002, 1.720822e-001
8.562393e+002, 1.760928e-001
8.581677e+002, 1.804233e-001
8.600962e+002, 1.854824e-001
8.620247e+002, 1.912292e-001
8.639531e+002, 1.973920e-001
8.658816e+002, 2.040846e-001
8.678101e+002, 2.116507e-001
8.697385e+002, 2.202975e-001
8.716670e+002, 2.292801e-001
8.735955e+002, 2.386163e-001
8.755239e+002, 2.493805e-001
8.774524e+002, 2.609389e-001
8.793809e+002, 2.732057e-001
8.813093e+002, 2.872867e-001
8.832378e+002, 3.028664e-001
8.851663e+002, 3.196301e-001
8.870947e+002, 3.374642e-001
8.890232e+002, 3.562573e-001
8.909517e+002, 3.763323e-001
8.928801e+002, 3.961290e-001
8.948085e+002, 4.144731e-001
8.967370e+002, 4.316059e-001
8.986655e+002, 4.461706e-001
9.005939e+002, 4.572470e-001
9.025224e+002, 4.632646e-001
9.044509e+002, 4.634192e-001
9.063793e+002, 4.590621e-001
9.083078e+002, 4.510335e-001
9.102363e+002, 4.405647e-001
9.121647e+002, 4.304659e-001
9.140932e+002, 4.213153e-001
9.160217e+002, 4.135662e-001
9.179501e+002, 4.072357e-001
9.198786e+002, 4.019535e-001
9.218071e+002, 3.968550e-001
9.237355e+002, 3.910223e-001
9.256640e+002, 3.842726e-001
9.275925e+002, 3.762400e-001
9.295209e+002, 3.666996e-001
9.314494e+002, 3.570338e-001
9.333779e+002, 3.474522e-001
9.353063e+002, 3.376826e-001
9.372348e+002, 3.290145e-001
9.391633e+002, 3.223027e-001
9.410917e+002, 3.178005e-001
9.430202e+002, 3.155709e-001
9.449487e+002, 3.155160e-001
9.468771e+002, 3.181193e-001
9.488056e+002, 3.237709e-001
9.507341e+002, 3.316154e-001
9.526625e+002, 3.407065e-001
9.545910e+002, 3.501118e-001
9.565195e+002, 3.580016e-001
9.584479e+002, 3.632056e-001
9.603764e+002, 3.648497e-001
9.623049e+002, 3.628847e-001
9.642333e+002, 3.584896e-001
9.661618e+002, 3.526867e-001
9.680903e+002, 3.465822e-001
9.700187e+002, 3.413937e-001
9.719472e+002, 3.389762e-001
9.738757e+002, 3.399842e-001
9.758041e+002, 3.445793e-001
9.777326e+002, 3.529433e-001
9.796611e+002, 3.636044e-001
9.815895e+002, 3.749004e-001
9.835180e+002, 3.858813e-001
9.854465e+002, 3.944907e-001
9.873749e+002, 3.992753e-001
9.893034e+002, 3.995181e-001
9.912319e+002, 3.952916e-001
9.931603e+002, 3.875276e-001
9.950888e+002, 3.775378e-001
9.970173e+002, 3.663735e-001
9.989457e+002, 3.549701e-001
1.000874e+003, 3.439025e-001
1.002803e+003, 3.339537e-001
1.004731e+003, 3.251295e-001
1.006660e+003, 3.173583e-001
1.008588e+003, 3.106550e-001
1.010517e+003, 3.048539e-001
1.012445e+003, 3.003705e-001
1.014373e+003, 2.967071e-001
1.016302e+003, 2.933153e-001
1.018230e+003, 2.904837e-001
1.020159e+003, 2.879371e-001
1.022087e+003, 2.856447e-001
1.024016e+003, 2.835490e-001
1.025944e+003, 2.815001e-001
1.027873e+003, 2.793346e-001
1.029801e+003, 2.765925e-001
1.031730e+003, 2.738612e-001
1.033658e+003, 2.712083e-001
1.035587e+003, 2.679333e-001
1.037515e+003, 2.641336e-001
1.039444e+003, 2.599276e-001
1.041372e+003, 2.553644e-001
1.043301e+003, 2.504395e-001
1.045229e+003, 2.454873e-001
1.047157e+003, 2.401477e-001
1.049086e+003, 2.344788e-001
1.051014e+003, 2.285419e-001
1.052943e+003, 2.224071e-001
1.054871e+003, 2.159545e-001
1.056800e+003, 2.095705e-001
1.058728e+003, 2.033634e-001
1.060657e+003, 1.968925e-001
1.062585e+003, 1.907278e-001
1.064514e+003, 1.846112e-001
1.066442e+003, 1.783006e-001
1.068371e+003, 1.720984e-001
1.070299e+003, 1.664415e-001
1.072228e+003, 1.611830e-001
1.074156e+003, 1.558147e-001
1.076084e+003, 1.506056e-001
1.078013e+003, 1.457989e-001
1.079941e+003, 1.414073e-001
1.081870e+003, 1.374910e-001
1.083798e+003, 1.342074e-001
1.085727e+003, 1.313602e-001
1.087655e+003, 1.291502e-001
1.089584e+003, 1.278360e-001
1.091512e+003, 1.268729e-001
1.093441e+003, 1.258755e-001
1.095369e+003, 1.246358e-001
1.097298e+003, 1.228454e-001
1.099226e+003, 1.207177e-001
1.101155e+003, 1.183320e-001
1.103083e+003, 1.158538e-001
1.105011e+003, 1.135251e-001
1.106940e+003, 1.117755e-001
1.108868e+003, 1.104819e-001
1.110797e+003, 1.090167e-001
1.112725e+003, 1.074152e-001
1.114654e+003, 1.058733e-001
1.116582e+003, 1.041603e-001
1.118511e+003, 1.024586e-001
1.120439e+003, 1.007733e-001
1.122368e+003, 9.851847e-002
1.124296e+003, 9.593305e-002
1.126225e+003, 9.316415e-002
1.128153e+003, 9.039656e-002
1.130082e+003, 8.775468e-002
1.132010e+003, 8.479229e-002
1.133938e+003, 8.168216e-002
1.135867e+003, 7.851147e-002
1.137795e+003, 7.513371e-002
1.139724e+003, 7.135680e-002
1.141652e+003, 6.743113e-002
1.143581e+003, 6.303184e-002
1.145509e+003, 5.842781e-002
1.147438e+003, 5.397538e-002
1.149366e+003, 4.977742e-002
1.151295e+003, 4.580975e-002
1.153223e+003, 4.224513e-002
1.155152e+003, 3.925338e-002
1.157080e+003, 3.666297e-002
1.159009e+003, 3.434124e-002
1.160937e+003, 3.264201e-002
1.162865e+003, 3.125167e-002
1.164794e+003, 2.999518e-002
1.166722e+003, 2.878755e-002
1.168651e+003, 2.780947e-002
1.170579e+003, 2.698977e-002
1.172508e+003, 2.635957e-002
1.174436e+003, 2.588061e-002
1.176365e+003, 2.548663e-002
1.178293e+003, 2.500671e-002
1.180222e+003, 2.458328e-002
1.182150e+003, 2.407536e-002
1.184079e+003, 2.361574e-002
1.186007e+003, 2.322439e-002
1.187936e+003, 2.285919e-002
1.189864e+003, 2.239222e-002
1.191792e+003, 2.207087e-002
1.193721e+003, 2.175711e-002
1.195649e+003, 2.146853e-002
1.197578e+003, 2.113844e-002
1.199506e+003, 2.066892e-002
1.201435e+003, 2.026652e-002
1.203363e+003, 1.992058e-002
1.205292e+003, 1.964349e-002
1.207220e+003, 1.928475e-002
1.209149e+003, 1.882765e-002
1.211077e+003, 1.850069e-002
1.213006e+003, 1.801863e-002
1.214934e+003, 1.759445e-002
1.216863e+003, 1.727980e-002
1.218791e+003, 1.687691e-002
1.220719e+003, 1.639484e-002
1.222648e+003, 1.604480e-002
1.224576e+003, 1.586310e-002
1.226505e+003, 1.575172e-002
1.228433e+003, 1.559771e-002
1.230362e+003, 1.547886e-002
1.232290e+003, 1.552663e-002
1.234219e+003, 1.551179e-002
1.236147e+003, 1.535705e-002
1.238076e+003, 1.526488e-002
1.240004e+003, 1.522430e-002
1.241933e+003, 1.532187e-002
1.243861e+003, 1.522255e-002
1.245790e+003, 1.523658e-002
1.247718e+003, 1.537391e-002
1.249646e+003, 1.553751e-002
1.251575e+003, 1.575644e-002
1.253503e+003, 1.578771e-002
1.255432e+003, 1.569089e-002
1.257360e+003, 1.577699e-002
1.259289e+003, 1.590568e-002
1.261217e+003, 1.587684e-002
1.263146e+003, 1.585376e-002
1.265074e+003, 1.596198e-002
1.267003e+003, 1.612642e-002
1.268931e+003, 1.648733e-002
1.270860e+003, 1.667139e-002
1.272788e+003, 1.675114e-002
1.274717e+003, 1.674316e-002
1.276645e+003, 1.702270e-002
1.278573e+003, 1.716299e-002
1.280502e+003, 1.722311e-002
1.282430e+003, 1.739105e-002
1.284359e+003, 1.752852e-002
1.286287e+003, 1.752029e-002
1.288216e+003, 1.769099e-002
1.290144e+003, 1.794823e-002
1.292073e+003, 1.812212e-002
1.294001e+003, 1.826804e-002
1.295930e+003, 1.855725e-002
1.297858e+003, 1.865647e-002
1.299787e+003, 1.882927e-002
1.301715e+003, 1.893593e-002
1.303644e+003, 1.908702e-002
1.305572e+003, 1.940448e-002
1.307500e+003, 1.986122e-002
1.309429e+003, 2.010850e-002
1.311357e+003, 2.022071e-002
1.313286e+003, 2.044544e-002
1.315214e+003, 2.065471e-002
1.317143e+003, 2.083297e-002
1.319071e+003, 2.083384e-002
1.321000e+003, 2.103938e-002
1.322928e+003, 2.144688e-002
1.324857e+003, 2.184226e-002
1.326785e+003, 2.206148e-002
1.328714e+003, 2.210524e-002
1.330642e+003, 2.244538e-002
1.332571e+003, 2.307706e-002
1.334499e+003, 2.364159e-002
1.336427e+003, 2.407361e-002
1.338356e+003, 2.447212e-002
1.340284e+003, 2.478188e-002
1.342213e+003, 2.518909e-002
1.344141e+003, 2.574402e-002
1.346070e+003, 2.634804e-002
1.347998e+003, 2.700478e-002
1.349927e+003, 2.771290e-002
1.351855e+003, 2.816139e-002
1.353784e+003, 2.864444e-002
1.355712e+003, 2.915184e-002
1.357641e+003, 2.961121e-002
1.359569e+003, 2.995894e-002
1.361498e+003, 3.043271e-002
1.363426e+003, 3.135220e-002
1.365354e+003, 3.193479e-002
1.367283e+003, 3.238283e-002
1.369211e+003, 3.317391e-002
1.371140e+003, 3.394758e-002
1.373068e+003, 3.463316e-002
1.374997e+003, 3.556596e-002
1.376925e+003, 3.627928e-002
1.378854e+003, 3.690265e-002
1.380782e+003, 3.746681e-002
1.382711e+003, 3.814527e-002
1.384639e+003, 3.895903e-002
1.386568e+003, 3.952194e-002
1.388496e+003, 4.042936e-002
1.390424e+003, 4.018076e-002
1.392353e+003, 4.007490e-002
1.394281e+003, 4.001526e-002
1.396210e+003, 4.027481e-002
1.398138e+003, 3.954616e-002
1.400067e+003, 3.923749e-002
1.401995e+003, 3.797925e-002
1.403924e+003, 3.715613e-002
1.405852e+003, 3.684628e-002
1.407781e+003, 3.576059e-002
1.409709e+003, 3.461201e-002
1.411638e+003, 3.357815e-002
1.413566e+003, 3.264987e-002
1.415495e+003, 3.146295e-002
1.417423e+003, 3.034457e-002
1.419351e+003, 3.004985e-002
1.421280e+003, 2.948472e-002
1.423208e+003, 2.841856e-002
1.425137e+003, 2.800416e-002
1.427065e+003, 2.724037e-002
1.428994e+003, 2.658585e-002
1.430922e+003, 2.632541e-002
1.432851e+003, 2.544709e-002
1.434779e+003, 2.444952e-002
1.436708e+003, 2.447580e-002
1.438636e+003, 2.448773e-002
1.440565e+003, 2.377637e-002
1.442493e+003, 2.343920e-002
1.444422e+003, 2.319383e-002
1.446350e+003, 2.280792e-002
1.448278e+003, 2.276919e-002
1.450207e+003, 2.243258e-002
1.452135e+003, 2.218400e-002
1.454064e+003, 2.151611e-002
1.455992e+003, 2.044551e-002
1.457921e+003, 2.206113e-002
1.459849e+003, 2.167117e-002
1.461778e+003, 2.110749e-002
1.463706e+003, 2.059217e-002
1.465635e+003, 2.122860e-002
1.467563e+003, 2.070919e-002
1.469492e+003, 2.057976e-002
1.471420e+003, 2.001541e-002
1.473349e+003, 2.062706e-002
1.475277e+003, 2.031051e-002
1.477205e+003, 2.083573e-002
1.479134e+003, 2.032834e-002
1.481062e+003, 2.026544e-002
1.482991e+003, 2.026529e-002
1.484919e+003, 2.000896e-002
1.486848e+003, 1.986882e-002
1.488776e+003, 1.987731e-002
1.490705e+003, 2.038803e-002
1.492633e+003, 2.011870e-002
1.494562e+003, 1.956357e-002
1.496490e+003, 1.983333e-002
1.498419e+003, 1.956005e-002
1.500347e+003, 2.009017e-002
1.502276e+003, 1.996191e-002
1.504204e+003, 1.886280e-002
1.506132e+003, 1.897229e-002
1.508061e+003, 2.032710e-002
1.509989e+003, 2.002009e-002
1.511918e+003, 1.977952e-002
1.513846e+003, 1.998121e-002
1.515775e+003, 1.978159e-002
1.517703e+003, 2.026934e-002
1.519632e+003, 1.912062e-002
1.521560e+003, 2.016107e-002
1.523489e+003, 2.051802e-002
1.525417e+003, 2.064766e-002
1.527346e+003, 2.094687e-002
1.529274e+003, 2.126667e-002
1.531203e+003, 2.120605e-002
1.533131e+003, 2.134790e-002
1.535059e+003, 2.222723e-002
1.536988e+003, 2.123531e-002
1.538916e+003, 2.096068e-002
1.540845e+003, 2.264798e-002
1.542773e+003, 2.350509e-002
1.544702e+003, 2.351082e-002
1.546630e+003, 2.426822e-002
1.548559e+003, 2.388472e-002
1.550487e+003, 2.470240e-002
1.552416e+003, 2.454618e-002
1.554344e+003, 2.498029e-002
1.556273e+003, 2.451108e-002
1.558201e+003, 2.468814e-002
1.560130e+003, 2.643313e-002
1.562058e+003, 2.652897e-002
1.563986e+003, 2.651845e-002
1.565915e+003, 2.719623e-002
1.567843e+003, 2.688410e-002
1.569772e+003, 2.760176e-002
1.571700e+003, 2.773696e-002
1.573629e+003, 2.738018e-002
1.575557e+003, 2.673564e-002
1.577486e+003, 2.849262e-002
1.579414e+003, 2.840949e-002
1.581343e+003, 2.882093e-002
1.583271e+003, 2.870358e-002
1.585200e+003, 2.863306e-002
1.587128e+003, 2.887328e-002
1.589057e+003, 2.897201e-002
1.590985e+003, 2.909183e-002
1.592913e+003, 2.920672e-002
1.594842e+003, 2.911539e-002
1.596770e+003, 2.894222e-002
1.598699e+003, 2.874395e-002
1.600627e+003, 2.846228e-002
1.602556e+003, 2.813942e-002
1.604484e+003, 2.799263e-002
1.606413e+003, 2.764357e-002
1.608341e+003, 2.751712e-002
1.610270e+003, 2.747302e-002
1.612198e+003, 2.725341e-002
1.614127e+003, 2.654194e-002
1.616055e+003, 2.548878e-002
1.617984e+003, 2.698783e-002
1.619912e+003, 2.622162e-002
1.621840e+003, 2.564849e-002
1.623769e+003, 2.606557e-002
1.625697e+003, 2.580367e-002
1.627626e+003, 2.596335e-002
1.629554e+003, 2.584559e-002
1.631483e+003, 2.547991e-002
1.633411e+003, 2.436495e-002
1.635340e+003, 2.409886e-002
1.637268e+003, 2.459576e-002
1.639197e+003, 2.441853e-002
1.641125e+003, 2.421879e-002
1.643054e+003, 2.390160e-002
1.644982e+003, 2.291053e-002
1.646911e+003, 2.400521e-002
1.648839e+003, 2.388551e-002
1.650767e+003, 2.173948e-002
1.652696e+003, 2.126053e-002
1.654624e+003, 2.345484e-002
1.656553e+003, 2.265016e-002
1.658481e+003, 2.263502e-002
1.660410e+003, 2.211579e-002
1.662338e+003, 2.189236e-002
1.664267e+003, 2.223841e-002
1.666195e+003, 2.137138e-002
1.668124e+003, 2.053349e-002
1.670052e+003, 2.154214e-002
1.671981e+003, 2.095596e-002
1.673909e+003, 1.968762e-002
1.675838e+003, 2.039694e-002
1.677766e+003, 1.955851e-002
1.679694e+003, 1.936085e-002
1.681623e+003, 1.847113e-002
1.683551e+003, 1.703924e-002
1.685480e+003, 1.904132e-002
1.687408e+003, 1.803824e-002
1.689337e+003, 1.822617e-002
1.691265e+003, 1.810276e-002
1.693194e+003, 1.726721e-002
1.695122e+003, 1.588421e-002
1.697051e+003, 1.746216e-002
1.698979e+003, 1.539284e-002
1.700908e+003, 1.807651e-002
1.702836e+003, 1.681336e-002
1.704765e+003, 1.693576e-002
1.706693e+003, 1.729517e-002
1.708621e+003, 1.697776e-002
1.710550e+003, 1.699411e-002
1.712478e+003, 1.639350e-002
1.714407e+003, 1.590533e-002
1.716335e+003, 1.491383e-002
1.718264e+003, 1.570404e-002
1.720192e+003, 1.527635e-002
1.722121e+003, 1.492342e-002
1.724049e+003, 1.495684e-002
1.725978e+003, 1.452848e-002
1.727906e+003, 1.425695e-002
1.729835e+003, 1.424221e-002
1.731763e+003, 1.292846e-002
1.733692e+003, 1.200723e-002
1.735620e+003, 1.346307e-002
1.737548e+003, 1.227061e-002
1.739477e+003, 1.198485e-002
1.741405e+003, 1.222031e-002
1.743334e+003, 1.218041e-002
1.745262e+003, 1.250635e-002
1.747191e+003, 1.260375e-002
1.749119e+003, 1.286776e-002
1.751048e+003, 1.263514e-002
1.752976e+003, 1.313682e-002
1.754905e+003, 1.307460e-002
1.756833e+003, 1.325915e-002
1.758762e+003, 1.319839e-002
1.760690e+003, 1.303704e-002
1.762619e+003, 1.385522e-002
1.764547e+003, 1.366305e-002
1.766475e+003, 1.350666e-002
1.768404e+003, 1.352271e-002
1.770332e+003, 1.278182e-002
1.772261e+003, 1.319014e-002
1.774189e+003, 1.364373e-002
1.776118e+003, 1.341707e-002
1.778046e+003, 1.314472e-002
1.779975e+003, 1.284462e-002
1.781903e+003, 1.308614e-002
1.783832e+003, 1.294556e-002
1.785760e+003, 1.330971e-002
1.787689e+003, 1.301266e-002
1.789617e+003, 1.251331e-002
1.791546e+003, 1.218021e-002
1.793474e+003, 1.290112e-002
1.795402e+003, 1.260026e-002
1.797331e+003, 1.278587e-002
1.799259e+003, 1.248352e-002
1.801188e+003, 1.235794e-002
1.803116e+003, 1.271356e-002
1.805045e+003, 1.282541e-002
1.806973e+003, 1.263263e-002
1.808902e+003, 1.199140e-002
1.810830e+003, 1.187470e-002
1.812759e+003, 1.196213e-002
1.814687e+003, 1.166615e-002
1.816616e+003, 1.164979e-002
1.818544e+003, 1.203294e-002
1.820473e+003, 1.168237e-002
1.822401e+003, 1.138889e-002
1.824329e+003, 1.108701e-002
1.826258e+003, 1.178634e-002
1.828186e+003, 1.144211e-002
1.830115e+003, 1.153918e-002
1.832043e+003, 1.114852e-002
1.833972e+003, 1.127619e-002
1.835900e+003, 1.128235e-002
1.837829e+003, 1.092945e-002
1.839757e+003, 1.049899e-002
1.841686e+003, 1.014956e-002
1.843614e+003, 9.676647e-003
1.845543e+003, 1.118606e-002
1.847471e+003, 1.091915e-002
1.849400e+003, 1.045937e-002
1.851328e+003, 9.509328e-003
1.853256e+003, 9.427113e-003
1.855185e+003, 1.008123e-002
1.857113e+003, 9.922965e-003
1.859042e+003, 9.682874e-003
1.860970e+003, 9.579462e-003
1.862899e+003, 9.678520e-003
1.864827e+003, 9.275082e-003
1.866756e+003, 9.066478e-003
1.868684e+003, 9.491420e-003
1.870613e+003, 9.780930e-003
1.872541e+003, 9.276425e-003
1.874470e+003, 9.441988e-003
1.876398e+003, 9.086762e-003
1.878327e+003, 8.913424e-003
1.880255e+003, 8.751181e-003
1.882183e+003, 8.860590e-003
1.884112e+003, 9.173992e-003
1.886040e+003, 8.542806e-003
1.887969e+003, 8.029585e-003
1.889897e+003, 8.190371e-003
1.891826e+003, 8.242197e-003
1.893754e+003, 8.197759e-003
1.895683e+003, 7.919569e-003
1.897611e+003, 7.722016e-003
1.899540e+003, 7.198407e-003
1.901468e+003, 7.167736e-003
1.903397e+003, 7.204689e-003
1.905325e+003, 7.050649e-003
1.907254e+003, 7.073843e-003
1.909182e+003, 6.710354e-003
1.911110e+003, 6.223270e-003
1.913039e+003, 6.277558e-003
1.914967e+003, 6.751602e-003
1.916896e+003, 6.624303e-003
1.918824e+003, 6.749421e-003
1.920753e+003, 6.130188e-003
1.922681e+003, 5.543287e-003
1.924610e+003, 4.556673e-003
1.926538e+003, 4.293304e-003
1.928467e+003, 4.486696e-003
1.930395e+003, 4.833804e-003
1.932324e+003, 4.829828e-003
1.934252e+003, 3.937540e-003
1.936181e+003, 4.100385e-003
1.938109e+003, 3.551711e-003
1.940037e+003, 3.170005e-003
1.941966e+003, 2.775112e-003
1.943894e+003, 2.910498e-003
1.945823e+003, 2.327126e-003
1.947751e+003, 2.510504e-003
1.949680e+003, 3.819652e-003
1.951608e+003, 3.646574e-003
1.953537e+003, 2.081193e-003
1.955465e+003, 9.163963e-004
1.957394e+003, 3.082918e-004
1.959322e+003, -1.593577e-005
1.961251e+003, 9.096140e-005
1.963179e+003, -8.489318e-004
1.965108e+003, -8.940003e-004
1.967036e+003, 2.708734e-004
1.968964e+003, -3.971312e-004
1.970893e+003, -2.528371e-003
1.972821e+003, -3.066486e-003
1.974750e+003, -4.594084e-003
1.976678e+003, -4.560286e-003
1.978607e+003, -2.100168e-003
1.980535e+003, -2.550132e-003
1.982464e+003, -2.775037e-003
1.984392e+003, -1.388851e-003
1.986321e+003, -8.495576e-004
1.988249e+003, -8.885046e-004
1.990178e+003, -1.918917e-003
1.992106e+003, -2.683658e-003
1.994035e+003, -1.664202e-003
1.995963e+003, -1.433878e-003
1.997891e+003, -1.151082e-003
1.999820e+003, -1.348603e-003
2.001748e+003, -2.264352e-003
2.003677e+003, -4.390179e-003
2.005605e+003, -3.866180e-003
2.007534e+003, -1.837872e-003
2.009462e+003, -3.076079e-003
2.011391e+003, -4.434969e-003
2.013319e+003, -5.052183e-003
2.015248e+003, -5.006366e-003
2.017176e+003, -3.080116e-003
2.019105e+003, -2.086208e-003
2.021033e+003, -4.645979e-003
2.022962e+003, -5.166309e-003
2.024890e+003, -5.342724e-003
2.026818e+003, -5.039907e-003
2.028747e+003, -4.595315e-003
2.030675e+003, -4.028316e-003
2.032604e+003, -1.291376e-003
2.034532e+003, -1.458799e-003
2.036461e+003, -3.277523e-003
2.038389e+003, -3.219923e-003
2.040318e+003, -2.105359e-003
2.042246e+003, -1.219572e-003
2.044175e+003, -9.605854e-004
2.046103e+003, 1.926736e-005
2.048032e+003, 5.400932e-004
2.049960e+003, 3.148477e-004
2.051889e+003, -4.715867e-004
2.053817e+003, 5.279952e-004
2.055746e+003, 1.076128e-003
2.057674e+003, 4.133340e-004
2.059603e+003, 1.324987e-003
2.061531e+003, 1.173993e-003
2.063459e+003, 2.372061e-005
2.065388e+003, 8.788845e-005
2.067316e+003, 9.392468e-004
2.069245e+003, 9.943238e-004
2.071173e+003, 2.847665e-003
2.073102e+003, 2.990349e-003
2.075030e+003, 2.151137e-003
2.076959e+003, 1.525358e-003
2.078887e+003, 1.835188e-003
2.080816e+003, 1.353997e-003
2.082744e+003, 1.275483e-003
2.084673e+003, 2.067902e-003
2.086601e+003, 2.131526e-003
2.088530e+003, 2.507303e-003
2.090458e+003, 1.766591e-003
2.092386e+003, 1.061987e-003
2.094315e+003, 8.532825e-004
2.096243e+003, 1.551591e-003
2.098172e+003, 2.333297e-003
2.100100e+003, 3.024498e-003
2.102029e+003, 3.514337e-003
2.103957e+003, 2.417262e-003
2.105886e+003, 1.405605e-003
2.107814e+003, 1.943515e-003
2.109743e+003, 2.577533e-003
2.111671e+003, 3.471570e-003
2.113600e+003, 2.845129e-003
2.115528e+003, 2.224716e-003
2.117457e+003, 2.083957e-003
2.119385e+003, 1.335061e-003
2.121313e+003, 9.599188e-004
2.123242e+003, 1.641481e-003
2.125170e+003, 1.305303e-003
2.127099e+003, 7.465102e-004
2.129027e+003, 2.114169e-004
2.130956e+003, 8.555958e-004
2.132884e+003, 1.670864e-003
2.134813e+003, 8.427778e-004
2.136741e+003, 2.783545e-004
2.138670e+003, 3.718499e-004
2.140598e+003, -5.194901e-004
2.142527e+003, -1.190431e-003
2.144455e+003, -1.539292e-003
2.146384e+003, -2.470683e-003
2.148312e+003, -2.583418e-003
2.150240e+003, -3.067795e-003
2.152169e+003, -3.457827e-003
2.154097e+003, -4.815420e-003
2.156026e+003, -5.276013e-003
2.157954e+003, -3.570583e-003
2.159883e+003, -1.887864e-003
2.161811e+003, -2.071850e-003
2.163740e+003, -7.804965e-004
2.165668e+003, -1.631760e-004
2.167597e+003, 4.714749e-004
2.169525e+003, -9.473891e-005
2.171454e+003, -5.652350e-004
2.173382e+003, -1.208617e-003
2.175311e+003, -7.290853e-004
2.177239e+003, 1.025277e-003
2.179167e+003, 4.586136e-004
2.181096e+003, 6.082263e-004
2.183024e+003, 9.039808e-004
2.184953e+003, 1.070750e-003
2.186881e+003, 2.476175e-003
2.188810e+003, 2.125299e-003
2.190738e+003, 1.688748e-003
2.192667e+003, 1.070010e-003
2.194595e+003, 2.071811e-003
2.196524e+003, 2.280161e-003
2.198452e+003, 2.564791e-003
2.200381e+003, 2.619441e-003
2.202309e+003, 1.703261e-003
2.204238e+003, 1.810153e-003
2.206166e+003, 1.464417e-003
2.208094e+003, 2.658341e-003
2.210023e+003, 3.543190e-003
2.211951e+003, 2.609133e-003
2.213880e+003, 3.137304e-003
2.215808e+003, 3.847618e-003
2.217737e+003, 4.374768e-003
2.219665e+003, 3.251745e-003
2.221594e+003, 2.080677e-003
2.223522e+003, 1.441125e-003
2.225451e+003, 1.656659e-003
2.227379e+003, 2.329519e-003
2.229308e+003, 3.632487e-003
2.231236e+003, 3.730689e-003
2.233165e+003, 4.014904e-003
2.235093e+003, 4.361641e-003
2.237021e+003, 3.759171e-003
2.238950e+003, 4.540399e-003
2.240878e+003, 4.752095e-003
2.242807e+003, 3.830777e-003
2.244735e+003, 3.620229e-003
2.246664e+003, 4.069619e-003
2.248592e+003, 4.257346e-003
2.250521e+003, 4.248817e-003
2.252449e+003, 4.014433e-003
2.254378e+003, 3.114296e-003
2.256306e+003, 3.785595e-003
2.258235e+003, 5.072779e-003
2.260163e+003, 5.624831e-003
2.262092e+003, 5.955137e-003
2.264020e+003, 5.322362e-003
2.265948e+003, 6.052642e-003
2.267877e+003, 7.025383e-003
2.269805e+003, 6.484352e-003
2.271734e+003, 6.031844e-003
2.273662e+003, 6.252046e-003
2.275591e+003, 6.746388e-003
2.277519e+003, 7.450642e-003
2.279448e+003, 7.498301e-003
2.281376e+003, 7.000799e-003
2.283305e+003, 6.857522e-003
2.285233e+003, 6.877535e-003
2.287162e+003, 7.932957e-003
2.289090e+003, 8.600004e-003
2.291019e+003, 8.676156e-003
2.292947e+003, 8.033822e-003
2.294875e+003, 7.901247e-003
2.296804e+003, 8.152258e-003
2.298732e+003, 8.157949e-003
2.300661e+003, 8.140096e-003
2.302589e+003, 8.276950e-003
2.304518e+003, 8.178933e-003
2.306446e+003, 8.466696e-003
2.308375e+003, 8.808258e-003
2.310303e+003, 9.092133e-003
2.312232e+003, 9.426416e-003
2.314160e+003, 9.711478e-003
2.316089e+003, 9.550014e-003
2.318017e+003, 9.711802e-003
2.319946e+003, 1.000453e-002
2.321874e+003, 1.026620e-002
2.323802e+003, 1.044472e-002
2.325731e+003, 9.436405e-003
2.327659e+003, 8.980655e-003
2.329588e+003, 9.410815e-003
2.331516e+003, 9.165812e-003
2.333445e+003, 9.005811e-003
2.335373e+003, 9.278101e-003
2.337302e+003, 9.121830e-003
2.339230e+003, 9.092663e-003
2.341159e+003, 9.128271e-003
2.343087e+003, 8.915354e-003
2.345016e+003, 8.998659e-003
2.346944e+003, 8.733420e-003
2.348873e+003, 8.395149e-003
2.350801e+003, 8.809391e-003
2.352729e+003, 9.332875e-003
2.354658e+003, 9.216090e-003
2.356586e+003, 8.845316e-003
2.358515e+003, 8.588217e-003
2.360443e+003, 8.418225e-003
2.362372e+003, 8.468444e-003
2.364300e+003, 7.960896e-003
2.366229e+003, 7.293514e-003
2.368157e+003, 7.361574e-003
2.370086e+003, 7.357991e-003
2.372014e+003, 7.759499e-003
2.373942e+003, 8.167459e-003
2.375871e+003, 8.256872e-003
2.377799e+003, 8.127810e-003
2.379728e+003, 8.204993e-003
2.381656e+003, 8.159352e-003
2.383585e+003, 8.424853e-003
2.385513e+003, 8.098181e-003
2.387442e+003, 7.765804e-003
2.389370e+003, 7.839680e-003
2.391299e+003, 8.009843e-003
2.393227e+003, 7.489576e-003
2.395156e+003, 7.018275e-003
2.397084e+003, 7.639389e-003
2.399012e+003, 8.148289e-003
2.400941e+003, 8.192129e-003
2.402869e+003, 7.838635e-003
2.404798e+003, 8.085831e-003
2.406726e+003, 7.978127e-003
2.408655e+003, 8.085774e-003
2.410583e+003, 7.871355e-003
2.412512e+003, 7.316165e-003
2.414440e+003, 7.373403e-003
2.416369e+003, 7.316977e-003
2.418297e+003, 6.829871e-003
2.420226e+003, 6.752509e-003
2.422154e+003, 6.967924e-003
2.424083e+003, 7.055450e-003
2.426011e+003, 7.358028e-003
2.427939e+003, 7.094918e-003
2.429868e+003, 7.173466e-003
2.431796e+003, 7.525648e-003
2.433725e+003, 7.608558e-003
2.435653e+003, 7.840224e-003
2.437582e+003, 8.012631e-003
2.439510e+003, 7.629436e-003
2.441439e+003, 6.919304e-003
2.443367e+003, 6.764873e-003
2.445296e+003, 7.421592e-003
2.447224e+003, 7.161241e-003
2.449153e+003, 6.588296e-003
2.451081e+003, 6.654311e-003
2.453010e+003, 6.833475e-003
2.454938e+003, 6.931439e-003
2.456866e+003, 7.361294e-003
2.458795e+003, 7.415998e-003
2.460723e+003, 7.247005e-003
2.462652e+003, 7.010873e-003
2.464580e+003, 6.146282e-003
2.466509e+003, 6.084989e-003
2.468437e+003, 6.593158e-003
2.470366e+003, 6.225780e-003
2.472294e+003, 6.707759e-003
2.474223e+003, 7.141799e-003
2.476151e+003, 6.708527e-003
2.478080e+003, 5.415633e-003
2.480008e+003, 5.530776e-003
2.481937e+003, 5.648966e-003
2.483865e+003, 5.875000e-003
2.485793e+003, 6.319481e-003
2.487722e+003, 6.712799e-003
2.489650e+003, 6.596920e-003
2.491579e+003, 7.067351e-003
2.493507e+003, 7.470328e-003
2.495436e+003, 7.688367e-003
2.497364e+003, 7.635716e-003
2.499293e+003, 6.777030e-003
2.501221e+003, 6.252074e-003
2.503150e+003, 6.963111e-003
2.505078e+003, 6.931053e-003
2.507007e+003, 6.418877e-003
2.508935e+003, 6.349525e-003
2.510864e+003, 6.073417e-003
2.512792e+003, 5.063184e-003
2.514720e+003, 5.378800e-003
2.516649e+003, 6.370920e-003
2.518577e+003, 5.975077e-003
2.520506e+003, 4.282926e-003
2.522434e+003, 4.582533e-003
2.524363e+003, 5.221865e-003
2.526291e+003, 5.701099e-003
2.528220e+003, 6.433570e-003
2.530148e+003, 6.455739e-003
2.532077e+003, 6.288322e-003
2.534005e+003, 5.517109e-003
2.535934e+003, 4.744944e-003
2.537862e+003, 4.658643e-003
2.539791e+003, 5.624852e-003
2.541719e+003, 6.190439e-003
2.543647e+003, 6.040312e-003
2.545576e+003, 5.908342e-003
2.547504e+003, 5.845345e-003
2.549433e+003, 5.782560e-003
2.551361e+003, 6.129687e-003
2.553290e+003, 6.254220e-003
2.555218e+003, 6.101551e-003
2.557147e+003, 5.802891e-003
2.559075e+003, 5.440939e-003
2.561004e+003, 5.136872e-003
2.562932e+003, 5.204654e-003
2.564861e+003, 5.200780e-003
2.566789e+003, 4.887957e-003
2.568718e+003, 5.109567e-003
2.570646e+003, 5.227199e-003
2.572574e+003, 5.235536e-003
2.574503e+003, 5.144201e-003
2.576431e+003, 5.660128e-003
2.578360e+003, 6.523074e-003
2.580288e+003, 6.249724e-003
2.582217e+003, 4.393212e-003
2.584145e+003, 4.085075e-003
2.586074e+003, 4.537536e-003
2.588002e+003, 4.713521e-003
2.589931e+003, 5.100736e-003
2.591859e+003, 5.839647e-003
2.593788e+003, 6.322367e-003
2.595716e+003, 6.111841e-003
2.597645e+003, 5.929936e-003
2.599573e+003, 6.243519e-003
2.601501e+003, 6.141993e-003
2.603430e+003, 5.685285e-003
2.605358e+003, 5.578447e-003
2.607287e+003, 5.527585e-003
2.609215e+003, 4.846924e-003
2.611144e+003, 4.702949e-003
2.613072e+003, 5.513752e-003
2.615001e+003, 5.808358e-003
2.616929e+003, 5.776018e-003
2.618858e+003, 5.893261e-003
2.620786e+003, 6.142430e-003
2.622715e+003, 6.111173e-003
2.624643e+003, 5.469070e-003
2.626572e+003, 5.885033e-003
2.628500e+003, 6.132873e-003
2.630428e+003, 6.136934e-003
2.632357e+003, 6.239978e-003
2.634285e+003, 6.559077e-003
2.636214e+003, 6.518012e-003
2.638142e+003, 6.451865e-003
2.640071e+003, 6.639953e-003
2.641999e+003, 6.591115e-003
2.643928e+003, 6.088446e-003
2.645856e+003, 6.041461e-003
2.647785e+003, 6.827720e-003
2.649713e+003, 6.909849e-003
2.651642e+003, 6.229712e-003
2.653570e+003, 6.507151e-003
2.655499e+003, 7.079010e-003
2.657427e+003, 7.051100e-003
2.659355e+003, 6.588814e-003
2.661284e+003, 6.219926e-003
2.663212e+003, 6.444229e-003
2.665141e+003, 6.609770e-003
2.667069e+003, 6.540128e-003
2.668998e+003, 6.345556e-003
2.670926e+003, 6.326223e-003
2.672855e+003, 6.671180e-003
2.674783e+003, 6.833577e-003
2.676712e+003, 6.946721e-003
2.678640e+003, 6.766743e-003
2.680569e+003, 6.878242e-003
2.682497e+003, 6.534497e-003
2.684426e+003, 5.855521e-003
2.686354e+003, 5.473380e-003
2.688282e+003, 5.899829e-003
2.690211e+003, 6.414176e-003
2.692139e+003, 6.700766e-003
2.694068e+003, 6.835911e-003
2.695996e+003, 6.364842e-003
2.697925e+003, 6.058304e-003
2.699853e+003, 5.757739e-003
2.701782e+003, 5.810852e-003
2.703710e+003, 6.527584e-003
2.705639e+003, 7.054433e-003
2.707567e+003, 7.476809e-003
2.709496e+003, 6.722159e-003
2.711424e+003, 6.131859e-003
2.713353e+003, 6.352206e-003
2.715281e+003, 6.837702e-003
2.717209e+003, 6.706191e-003
2.719138e+003, 6.631606e-003
2.721066e+003, 6.505888e-003
2.722995e+003, 6.433919e-003
2.724923e+003, 6.583623e-003
2.726852e+003, 7.013398e-003
2.728780e+003, 7.111311e-003
2.730709e+003, 7.296337e-003
2.732637e+003, 7.370885e-003
2.734566e+003, 7.497787e-003
2.736494e+003, 7.063929e-003
2.738423e+003, 6.716465e-003
2.740351e+003, 6.696565e-003
2.742280e+003, 6.368697e-003
2.744208e+003, 6.548516e-003
2.746136e+003, 7.419010e-003
2.748065e+003, 7.432791e-003
2.749993e+003, 7.310196e-003
2.751922e+003, 7.301589e-003
2.753850e+003, 6.992171e-003
2.755779e+003, 6.893111e-003
2.757707e+003, 6.975180e-003
2.759636e+003, 7.054911e-003
2.761564e+003, 7.212779e-003
2.763493e+003, 7.241486e-003
2.765421e+003, 7.393005e-003
2.767350e+003, 7.716965e-003
2.769278e+003, 7.787463e-003
2.771207e+003, 7.269035e-003
2.773135e+003, 7.014104e-003
2.775063e+003, 7.149274e-003
2.776992e+003, 8.436383e-003
2.778920e+003, 8.712010e-003
2.780849e+003, 8.249427e-003
2.782777e+003, 7.962471e-003
2.784706e+003, 7.667951e-003
2.786634e+003, 7.582765e-003
2.788563e+003, 7.536956e-003
2.790491e+003, 7.903662e-003
2.792420e+003, 8.177096e-003
2.794348e+003, 8.125230e-003
2.796277e+003, 8.116870e-003
2.798205e+003, 7.977545e-003
2.800134e+003, 7.823228e-003
2.802062e+003, 7.807482e-003
2.803990e+003, 7.704190e-003
2.805919e+003, 7.816580e-003
2.807847e+003, 6.852679e-003
2.809776e+003, 6.974855e-003
2.811704e+003, 8.037562e-003
2.813633e+003, 8.205326e-003
2.815561e+003, 8.573031e-003
2.817490e+003, 9.091806e-003
2.819418e+003, 8.764606e-003
2.821347e+003, 8.234042e-003
2.823275e+003, 7.810352e-003
2.825204e+003, 7.835872e-003
2.827132e+003, 8.912529e-003
2.829061e+003, 9.108705e-003
2.830989e+003, 9.103282e-003
2.832917e+003, 9.167403e-003
2.834846e+003, 8.234046e-003
2.836774e+003, 7.713322e-003
2.838703e+003, 8.022797e-003
2.840631e+003, 7.975297e-003
2.842560e+003, 7.958991e-003
2.844488e+003, 7.630854e-003
2.846417e+003, 7.766773e-003
2.848345e+003, 8.165214e-003
2.850274e+003, 8.193808e-003
2.852202e+003, 8.470442e-003
2.854131e+003, 8.389151e-003
2.856059e+003, 8.339304e-003
2.857988e+003, 8.119332e-003
2.859916e+003, 8.285154e-003
2.861844e+003, 8.814165e-003
2.863773e+003, 8.542459e-003
2.865701e+003, 8.240297e-003
2.867630e+003, 8.809289e-003
2.869558e+003, 8.923515e-003
2.871487e+003, 8.779421e-003
2.873415e+003, 8.924427e-003
2.875344e+003, 8.808875e-003
2.877272e+003, 9.321827e-003
2.879201e+003, 9.106111e-003
2.881129e+003, 8.549294e-003
2.883058e+003, 8.127510e-003
2.884986e+003, 8.722203e-003
2.886915e+003, 9.059289e-003
2.888843e+003, 8.712998e-003
2.890771e+003, 8.600198e-003
2.892700e+003, 8.824565e-003
2.894628e+003, 8.793510e-003
2.896557e+003, 8.309245e-003
2.898485e+003, 8.336416e-003
2.900414e+003, 8.130453e-003
2.902342e+003, 7.684753e-003
2.904271e+003, 8.457737e-003
2.906199e+003, 9.007500e-003
2.908128e+003, 8.801727e-003
2.910056e+003, 8.652510e-003
2.911985e+003, 8.008351e-003
2.913913e+003, 7.448526e-003
2.915842e+003, 7.937345e-003
2.917770e+003, 8.209775e-003
2.919698e+003, 8.932968e-003
2.921627e+003, 8.890363e-003
2.923555e+003, 9.271323e-003
2.925484e+003, 9.599821e-003
2.927412e+003, 8.830219e-003
2.929341e+003, 8.221524e-003
2.931269e+003, 8.538035e-003
2.933198e+003, 9.088603e-003
2.935126e+003, 9.236855e-003
2.937055e+003, 9.663885e-003
2.938983e+003, 1.007307e-002
2.940912e+003, 9.937293e-003
2.942840e+003, 1.000809e-002
2.944769e+003, 9.670952e-003
2.946697e+003, 9.248219e-003
2.948625e+003, 8.317428e-003
2.950554e+003, 7.301922e-003
2.952482e+003, 7.845959e-003
2.954411e+003, 8.953629e-003
2.956339e+003, 9.553870e-003
2.958268e+003, 1.006301e-002
2.960196e+003, 9.895406e-003
2.962125e+003, 9.308998e-003
2.964053e+003, 8.381148e-003
2.965982e+003, 8.319085e-003
2.967910e+003, 9.261073e-003
2.969839e+003, 9.612201e-003
2.971767e+003, 9.648090e-003
2.973696e+003, 9.373224e-003
2.975624e+003, 9.113664e-003
2.977552e+003, 8.640632e-003
2.979481e+003, 9.514918e-003
2.981409e+003, 1.123796e-002
2.983338e+003, 1.177107e-002
2.985266e+003, 1.102327e-002
2.987195e+003, 1.062876e-002
2.989123e+003, 1.055685e-002
2.991052e+003, 1.003333e-002
2.992980e+003, 1.003347e-002
2.994909e+003, 1.067763e-002
2.996837e+003, 1.122717e-002
2.998766e+003, 1.059085e-002
3.000694e+003, 1.059593e-002
3.002623e+003, 1.084141e-002
3.004551e+003, 1.116403e-002
3.006479e+003, 1.107217e-002
3.008408e+003, 1.118746e-002
3.010336e+003, 1.136264e-002
3.012265e+003, 1.111444e-002
3.014193e+003, 1.084587e-002
3.016122e+003, 1.034159e-002
3.018050e+003, 1.021073e-002
3.019979e+003, 1.100617e-002
3.021907e+003, 1.100350e-002
3.023836e+003, 1.098918e-002
3.025764e+003, 1.071043e-002
3.027693e+003, 1.033502e-002
3.029621e+003, 1.028033e-002
3.031550e+003, 1.068790e-002
3.033478e+003, 1.068397e-002
3.035406e+003, 1.046614e-002
3.037335e+003, 1.035311e-002
3.039263e+003, 1.006591e-002
3.041192e+003, 1.026918e-002
3.043120e+003, 1.066296e-002
3.045049e+003, 1.035284e-002
3.046977e+003, 1.049484e-002
3.048906e+003, 1.053770e-002
3.050834e+003, 1.055483e-002
3.052763e+003, 1.020690e-002
3.054691e+003, 1.033084e-002
3.056620e+003, 9.922930e-003
3.058548e+003, 9.869685e-003
3.060477e+003, 1.031597e-002
3.062405e+003, 1.046077e-002
3.064333e+003, 1.055423e-002
3.066262e+003, 1.094325e-002
3.068190e+003, 1.182397e-002
3.070119e+003, 1.158522e-002
3.072047e+003, 1.099980e-002
3.073976e+003, 1.156648e-002
3.075904e+003, 1.191491e-002
3.077833e+003, 1.123052e-002
3.079761e+003, 1.163924e-002
3.081690e+003, 1.217946e-002
3.083618e+003, 1.191198e-002
3.085547e+003, 1.198205e-002
3.087475e+003, 1.168808e-002
3.089404e+003, 1.180316e-002
3.091332e+003, 1.154749e-002
3.093260e+003, 1.207506e-002
3.095189e+003, 1.292137e-002
3.097117e+003, 1.311896e-002
3.099046e+003, 1.251782e-002
3.100974e+003, 1.197033e-002
3.102903e+003, 1.256663e-002
3.104831e+003, 1.309873e-002
3.106760e+003, 1.230170e-002
3.108688e+003, 1.167490e-002
3.110617e+003, 1.131147e-002
3.112545e+003, 1.159811e-002
3.114474e+003, 1.231139e-002
3.116402e+003, 1.222649e-002
3.118331e+003, 1.274195e-002
3.120259e+003, 1.317480e-002
3.122188e+003, 1.284146e-002
3.124116e+003, 1.404173e-002
3.126044e+003, 1.389831e-002
3.127973e+003, 1.243947e-002
3.129901e+003, 1.179652e-002
3.131830e+003, 1.212429e-002
3.133758e+003, 1.261657e-002
3.135687e+003, 1.341048e-002
3.137615e+003, 1.330934e-002
3.139544e+003, 1.310433e-002
3.141472e+003, 1.311012e-002
3.143401e+003, 1.323717e-002
3.145329e+003, 1.341942e-002
3.147258e+003, 1.392965e-002
3.149186e+003, 1.355416e-002
3.151115e+003, 1.349018e-002
3.153043e+003, 1.369345e-002
3.154971e+003, 1.374671e-002
3.156900e+003, 1.392457e-002
3.158828e+003, 1.356672e-002
3.160757e+003, 1.237879e-002
3.162685e+003, 1.293899e-002
3.164614e+003, 1.303199e-002
3.166542e+003, 1.270764e-002
3.168471e+003, 1.357107e-002
3.170399e+003, 1.467174e-002
3.172328e+003, 1.485118e-002
3.174256e+003, 1.445938e-002
3.176185e+003, 1.415001e-002
3.178113e+003, 1.448830e-002
3.180042e+003, 1.484767e-002
3.181970e+003, 1.527120e-002
3.183898e+003, 1.564224e-002
3.185827e+003, 1.513339e-002
3.187755e+003, 1.317855e-002
3.189684e+003, 1.391036e-002
3.191612e+003, 1.452467e-002
3.193541e+003, 1.530407e-002
3.195469e+003, 1.492592e-002
3.197398e+003, 1.348745e-002
3.199326e+003, 1.401885e-002
3.201255e+003, 1.422453e-002
3.203183e+003, 1.378303e-002
3.205112e+003, 1.475984e-002
3.207040e+003, 1.546642e-002
3.208969e+003, 1.580508e-002
3.210897e+003, 1.549669e-002
3.212825e+003, 1.601094e-002
3.214754e+003, 1.660604e-002
3.216682e+003, 1.566292e-002
3.218611e+003, 1.438082e-002
3.220539e+003, 1.554589e-002
3.222468e+003, 1.581203e-002
3.224396e+003, 1.514580e-002
3.226325e+003, 1.455591e-002
3.228253e+003, 1.498485e-002
3.230182e+003, 1.573915e-002
3.232110e+003, 1.558339e-002
3.234039e+003, 1.551477e-002
3.235967e+003, 1.596887e-002
3.237896e+003, 1.638202e-002
3.239824e+003, 1.606540e-002
3.241752e+003, 1.475231e-002
3.243681e+003, 1.349531e-002
3.245609e+003, 1.332691e-002
3.247538e+003, 1.461649e-002
3.249466e+003, 1.534000e-002
3.251395e+003, 1.523466e-002
3.253323e+003, 1.504053e-002
3.255252e+003, 1.533649e-002
3.257180e+003, 1.606833e-002
3.259109e+003, 1.645035e-002
3.261037e+003, 1.609197e-002
3.262966e+003, 1.623386e-002
3.264894e+003, 1.695795e-002
3.266823e+003, 1.727193e-002
3.268751e+003, 1.643475e-002
3.270679e+003, 1.668241e-002
3.272608e+003, 1.721675e-002
3.274536e+003, 1.654466e-002
3.276465e+003, 1.590676e-002
3.278393e+003, 1.689488e-002
3.280322e+003, 1.672820e-002
3.282250e+003, 1.717346e-002
3.284179e+003, 1.776078e-002
3.286107e+003, 1.734751e-002
3.288036e+003, 1.609456e-002
3.289964e+003, 1.535360e-002
3.291893e+003, 1.591156e-002
3.293821e+003, 1.684900e-002
3.295750e+003, 1.789284e-002
3.297678e+003, 1.799268e-002
3.299606e+003, 1.734204e-002
3.301535e+003, 1.662309e-002
3.303463e+003, 1.584435e-002
3.305392e+003, 1.570435e-002
3.307320e+003, 1.641404e-002
3.309249e+003, 1.690497e-002
3.311177e+003, 1.722263e-002
3.313106e+003, 1.821616e-002
3.315034e+003, 1.716893e-002
3.316963e+003, 1.651906e-002
3.318891e+003, 1.607894e-002
3.320820e+003, 1.601001e-002
3.322748e+003, 1.714665e-002
3.324677e+003, 1.761198e-002
3.326605e+003, 1.880062e-002
3.328533e+003, 1.931881e-002
3.330462e+003, 1.715823e-002
3.332390e+003, 1.718658e-002
3.334319e+003, 1.806843e-002
3.336247e+003, 1.773823e-002
3.338176e+003, 1.767586e-002
3.340104e+003, 1.909262e-002
3.342033e+003, 1.855980e-002
3.343961e+003, 1.709315e-002
3.345890e+003, 1.672315e-002
3.347818e+003, 1.759327e-002
3.349747e+003, 1.788798e-002
3.351675e+003, 1.771663e-002
3.353604e+003, 1.718547e-002
3.355532e+003, 1.706013e-002
3.357460e+003, 1.681050e-002
3.359389e+003, 1.666871e-002
3.361317e+003, 1.657984e-002
3.363246e+003, 1.753083e-002
3.365174e+003, 1.787511e-002
3.367103e+003, 1.740143e-002
3.369031e+003, 1.697763e-002
3.370960e+003, 1.676803e-002
3.372888e+003, 1.626218e-002
3.374817e+003, 1.751283e-002
3.376745e+003, 1.760205e-002
3.378674e+003, 1.830455e-002
3.380602e+003, 1.824930e-002
3.382531e+003, 1.622185e-002
3.384459e+003, 1.624883e-002
3.386387e+003, 1.738139e-002
3.388316e+003, 1.796681e-002
3.390244e+003, 1.939611e-002
3.392173e+003, 1.901778e-002
3.394101e+003, 1.807719e-002
3.396030e+003, 1.741815e-002
3.397958e+003, 1.854733e-002
3.399887e+003, 1.901710e-002
3.401815e+003, 1.955096e-002
3.403744e+003, 1.934232e-002
3.405672e+003, 1.852885e-002
3.407601e+003, 1.751637e-002
3.409529e+003, 1.695946e-002
3.411458e+003, 1.787380e-002
3.413386e+003, 1.900539e-002
3.415314e+003, 1.816469e-002
3.417243e+003, 1.682014e-002
3.419171e+003, 1.729535e-002
3.421100e+003, 1.833027e-002
3.423028e+003, 1.795778e-002
3.424957e+003, 1.732447e-002
3.426885e+003, 1.788186e-002
3.428814e+003, 1.888319e-002
3.430742e+003, 1.743074e-002
3.432671e+003, 1.774383e-002
3.434599e+003, 1.919994e-002
3.436528e+003, 1.937556e-002
3.438456e+003, 1.815824e-002
3.440385e+003, 1.719540e-002
3.442313e+003, 1.640981e-002
3.444241e+003, 1.721595e-002
3.446170e+003, 1.701556e-002
3.448098e+003, 1.683133e-002
3.450027e+003, 1.782296e-002
3.451955e+003, 1.884752e-002
3.453884e+003, 1.882828e-002
3.455812e+003, 1.753750e-002
3.457741e+003, 1.484895e-002
3.459669e+003, 1.446597e-002
3.461598e+003, 1.531272e-002
3.463526e+003, 1.723875e-002
3.465455e+003, 1.837100e-002
3.467383e+003, 1.907345e-002
3.469312e+003, 1.868901e-002
3.471240e+003, 1.718901e-002
3.473168e+003, 1.634825e-002
3.475097e+003, 1.720730e-002
3.477025e+003, 1.807902e-002
3.478954e+003, 1.672785e-002
3.480882e+003, 1.470126e-002
3.482811e+003, 1.637030e-002
3.484739e+003, 1.812292e-002
3.486668e+003, 1.774466e-002
3.488596e+003, 1.739782e-002
3.490525e+003, 1.653695e-002
3.492453e+003, 1.492585e-002
3.494382e+003, 1.535407e-002
3.496310e+003, 1.660512e-002
3.498239e+003, 1.664135e-002
3.500167e+003, 1.637307e-002
3.502095e+003, 1.599992e-002
3.504024e+003, 1.473723e-002
3.505952e+003, 1.556917e-002
3.507881e+003, 1.530757e-002
3.509809e+003, 1.538525e-002
3.511738e+003, 1.574786e-002
3.513666e+003, 1.512607e-002
3.515595e+003, 1.524403e-002
3.517523e+003, 1.464795e-002
3.519452e+003, 1.509589e-002
3.521380e+003, 1.502292e-002
3.523309e+003, 1.351480e-002
3.525237e+003, 1.407174e-002
3.527166e+003, 1.447561e-002
3.529094e+003, 1.466094e-002
3.531022e+003, 1.491132e-002
3.532951e+003, 1.231911e-002
3.534879e+003, 1.171941e-002
3.536808e+003, 1.460374e-002
3.538736e+003, 1.517328e-002
3.540665e+003, 1.359106e-002
3.542593e+003, 1.225421e-002
3.544522e+003, 1.298869e-002
3.546450e+003, 1.402596e-002
3.548379e+003, 1.386097e-002
3.550307e+003, 1.329585e-002
3.552236e+003, 1.435725e-002
3.554164e+003, 1.476233e-002
3.556093e+003, 1.433623e-002
3.558021e+003, 1.421443e-002
3.559949e+003, 1.363417e-002
3.561878e+003, 1.370253e-002
3.563806e+003, 1.290853e-002
3.565735e+003, 1.173306e-002
3.567663e+003, 1.261748e-002
3.569592e+003, 1.314738e-002
3.571520e+003, 1.319001e-002
3.573449e+003, 1.279621e-002
3.575377e+003, 1.236629e-002
3.577306e+003, 1.331286e-002
3.579234e+003, 1.362049e-002
3.581163e+003, 1.258591e-002
3.583091e+003, 1.174294e-002
3.585020e+003, 1.155302e-002
3.586948e+003, 1.235021e-002
3.588876e+003, 1.177705e-002
3.590805e+003, 1.220978e-002
3.592733e+003, 1.342391e-002
3.594662e+003, 1.452118e-002
3.596590e+003, 1.353033e-002
3.598519e+003, 1.307800e-002
3.600447e+003, 1.230121e-002
3.602376e+003, 1.201736e-002
3.604304e+003, 1.101195e-002
3.606233e+003, 9.831814e-003
3.608161e+003, 9.097516e-003
3.610090e+003, 9.578004e-003
3.612018e+003, 9.903599e-003
3.613947e+003, 7.213055e-003
3.615875e+003, 6.141818e-003
3.617803e+003, 8.384099e-003
3.619732e+003, 9.434704e-003
3.621660e+003, 1.021172e-002
3.623589e+003, 9.195874e-003
3.625517e+003, 7.035343e-003
3.627446e+003, 4.603779e-003
3.629374e+003, 5.714688e-003
3.631303e+003, 7.079906e-003
3.633231e+003, 6.911055e-003
3.635160e+003, 5.378814e-003
3.637088e+003, 5.919820e-003
3.639017e+003, 5.454581e-003
3.640945e+003, 5.570071e-003
3.642874e+003, 5.537703e-003
3.644802e+003, 4.868671e-003
3.646730e+003, 4.024927e-003
3.648659e+003, 4.211067e-003
3.650587e+003, 3.824683e-003
3.652516e+003, 4.577179e-003
3.654444e+003, 2.912749e-003
3.656373e+003, 3.148059e-003
3.658301e+003, 4.407896e-003
3.660230e+003, 3.936619e-003
3.662158e+003, 2.526442e-003
3.664087e+003, 2.381549e-003
3.666015e+003, 9.130174e-004
3.667944e+003, -7.157353e-004
3.669872e+003, 2.663953e-004
3.671801e+003, 3.216151e-003
3.673729e+003, 1.649745e-003
3.675657e+003, 1.578257e-003
3.677586e+003, 1.145318e-003
3.679514e+003, 1.027628e-004
3.681443e+003, 7.410679e-004
3.683371e+003, 1.067159e-003
3.685300e+003, 1.064692e-003
3.687228e+003, 4.574190e-004
3.689157e+003, 1.835756e-003
3.691085e+003, 2.878032e-003
3.693014e+003, 1.167127e-003
3.694942e+003, -3.142042e-004
3.696871e+003, 6.120561e-004
3.698799e+003, 3.412653e-003
3.700728e+003, 4.040345e-003
3.702656e+003, 2.220976e-003
3.704584e+003, 1.535778e-003
3.706513e+003, 1.063677e-003
3.708441e+003, 5.818305e-004
3.710370e+003, 1.126609e-003
3.712298e+003, 1.046565e-003
3.714227e+003, 2.652942e-003
3.716155e+003, 3.859248e-003
3.718084e+003, 1.663719e-003
3.720012e+003, 2.014486e-003
3.721941e+003, 4.433500e-003
3.723869e+003, 3.824831e-003
3.725798e+003, 1.198470e-003
3.727726e+003, 1.746343e-003
3.729655e+003, 3.445422e-003
3.731583e+003, 1.159910e-003
3.733511e+003, -7.969514e-004
3.735440e+003, -2.476122e-003
3.737368e+003, -1.184719e-003
3.739297e+003, 1.288078e-003
3.741225e+003, 2.221072e-003
3.743154e+003, -1.422500e-003
3.745082e+003, -1.022531e-003
3.747011e+003, -1.433854e-003
3.748939e+003, -1.218254e-003
3.750868e+003, -5.021113e-004
3.752796e+003, 1.078612e-003
3.754725e+003, 1.920990e-003
3.756653e+003, 2.435674e-003
3.758582e+003, 1.859584e-003
3.760510e+003, 1.374347e-003
3.762438e+003, 2.750573e-003
3.764367e+003, 3.008747e-003
3.766295e+003, 2.727903e-003
3.768224e+003, 8.882554e-004
3.770152e+003, 2.624158e-004
3.772081e+003, 1.580056e-003
3.774009e+003, 3.519032e-003
3.775938e+003, 3.438270e-003
3.777866e+003, 2.713269e-003
3.779795e+003, 2.685849e-003
3.781723e+003, 2.874348e-003
3.783652e+003, 3.874372e-003
3.785580e+003, 3.712275e-003
3.787509e+003, 2.914057e-003
3.789437e+003, 2.099484e-003
3.791365e+003, 3.563115e-003
3.793294e+003, 4.572603e-003
3.795222e+003, 2.357330e-003
3.797151e+003, 1.399013e-003
3.799079e+003, 1.262303e-003
3.801008e+003, 7.783700e-004
3.802936e+003, 2.756250e-003
3.804865e+003, 2.791479e-003
3.806793e+003, 1.961968e-003
3.808722e+003, 2.950042e-003
3.810650e+003, 1.561834e-003
3.812579e+003, -1.567388e-003
3.814507e+003, -7.625248e-004
3.816436e+003, 2.188463e-003
3.818364e+003, 3.372843e-003
3.820292e+003, 2.522213e-003
3.822221e+003, 3.898368e-003
3.824149e+003, 2.383110e-003
3.826078e+003, 1.394379e-003
3.828006e+003, 2.410629e-003
3.829935e+003, 1.488553e-003
3.831863e+003, 5.761186e-004
3.833792e+003, 3.325298e-004
3.835720e+003, 8.409946e-004
3.837649e+003, 2.120586e-003
3.839577e+003, 3.215678e-003
3.841506e+003, 2.593891e-003
3.843434e+003, 1.768270e-003
3.845363e+003, 2.124824e-003
3.847291e+003, 2.721300e-003
3.849219e+003, 4.459043e-003
3.851148e+003, 1.184941e-003
3.853076e+003, -3.178273e-003
3.855005e+003, -1.346957e-004
3.856933e+003, 2.604214e-003
3.858862e+003, 3.347777e-003
3.860790e+003, 2.144137e-003
3.862719e+003, 1.333772e-003
3.864647e+003, 1.973410e-003
3.866576e+003, 3.688531e-003
3.868504e+003, 3.162304e-003
3.870433e+003, 3.599857e-003
3.872361e+003, 3.249265e-003
3.874290e+003, 2.749529e-003
3.876218e+003, 2.101126e-003
3.878146e+003, -5.070068e-005
3.880075e+003, -8.020849e-004
3.882003e+003, 1.841150e-003
3.883932e+003, 2.819089e-003
3.885860e+003, 1.381414e-003
3.887789e+003, 3.566937e-003
3.889717e+003, 6.861117e-003
3.891646e+003, 5.740365e-003
3.893574e+003, 2.398933e-003
3.895503e+003, 2.080642e-003
3.897431e+003, 1.994197e-003
3.899360e+003, 2.501797e-003
3.901288e+003, 3.002943e-003
3.903217e+003, 3.190249e-003
3.905145e+003, 4.249393e-003
3.907073e+003, 4.556137e-003
3.909002e+003, 3.662082e-003
3.910930e+003, 3.467174e-003
3.912859e+003, 2.803846e-003
3.914787e+003, 3.488520e-003
3.916716e+003, 4.989248e-003
3.918644e+003, 5.233604e-003
3.920573e+003, 4.181043e-003
3.922501e+003, 3.270759e-003
3.924430e+003, 3.056654e-003
3.926358e+003, 3.393373e-003
3.928287e+003, 4.549241e-003
3.930215e+003, 6.488455e-003
3.932144e+003, 4.877239e-003
3.934072e+003, 2.527129e-003
3.936000e+003, 2.263164e-003
3.937929e+003, 1.971152e-003
3.939857e+003, 1.933505e-003
3.941786e+003, 3.670874e-003
3.943714e+003, 5.631664e-003
3.945643e+003, 6.055536e-003
3.947571e+003, 3.779112e-003
3.949500e+003, 2.800469e-003
3.951428e+003, 2.119600e-003
3.953357e+003, 4.324963e-003
3.955285e+003, 7.159109e-003
3.957214e+003, 6.312301e-003
3.959142e+003, 4.843954e-003
3.961071e+003, 5.611666e-003
3.962999e+003, 6.061183e-003
3.964927e+003, 5.269746e-003
3.966856e+003, 4.069305e-003
3.968784e+003, 6.036744e-003
3.970713e+003, 6.283352e-003
3.972641e+003, 6.939173e-003
3.974570e+003, 3.651299e-003
3.976498e+003, -1.877444e-004
3.978427e+003, -8.899170e-004
3.980355e+003, 2.829696e-003
3.982284e+003, 4.844153e-003
3.984212e+003, 6.316679e-003
3.986141e+003, 6.410632e-003
3.988069e+003, 4.619015e-003
3.989998e+003, 2.644487e-003
3.991926e+003, 4.127551e-003
3.993854e+003, 5.361594e-003
3.995783e+003, 6.860418e-003
3.997711e+003, 7.375412e-003
3.999640e+003, 7.376350e-003
##END=



