##NAMES=Siderite
##RRUFFID=R050262
##IDEAL CHEMISTRY=Fe^2+^CO_3_
##LOCALITY=Panasqueira mine, Barroca Grande, Beira Baixa, Portugal
##OWNER=RRUFF
##SOURCE=Marcus Origlieri
##DESCRIPTION=Group of yellowish brown flattened twinned crystals
##STATUS=The identification of this mineral has been confirmed by X-ray diffraction and chemical analysis
##URL=rruff.info/R050262
##MEASURED CHEMISTRY=(Fe_0.71_Mg_0.24_Mn_0.05_)_Σ=1_CO_3_ ; light :  (Fe_0.60_Mg_0.36_Mn_0.04_)_Σ=1_CO_3_ ; intermediate : (Fe_0.54_Mg_0.42_Mn_0.04_)_Σ=1_CO_3_ ; darker :  (Mg_0.54_Fe_0.42_Mn_0.04_)_Σ=1_CO_3_ darkest = magnesite
3.991926e+002, 0.000000e+000
4.011211e+002, 8.708806e-002
4.030496e+002, 8.748840e-002
4.049780e+002, 8.122088e-002
4.069065e+002, 7.586386e-002
4.088350e+002, 7.412525e-002
4.107634e+002, 6.802672e-002
4.126919e+002, 6.311262e-002
4.146204e+002, 6.060091e-002
4.165488e+002, 5.768767e-002
4.184773e+002, 5.338512e-002
4.204058e+002, 4.980985e-002
4.223342e+002, 4.641828e-002
4.242627e+002, 4.268895e-002
4.261912e+002, 3.863749e-002
4.281196e+002, 3.634032e-002
4.300481e+002, 3.376278e-002
4.319766e+002, 3.078486e-002
4.339050e+002, 2.933971e-002
4.358335e+002, 2.786552e-002
4.377620e+002, 2.573810e-002
4.396904e+002, 2.389278e-002
4.416189e+002, 2.269481e-002
4.435474e+002, 2.197351e-002
4.454758e+002, 2.150051e-002
4.474043e+002, 2.083096e-002
4.493328e+002, 1.921700e-002
4.512612e+002, 1.848191e-002
4.531897e+002, 1.882112e-002
4.551182e+002, 1.856249e-002
4.570466e+002, 1.802452e-002
4.589751e+002, 1.765595e-002
4.609036e+002, 1.797774e-002
4.628320e+002, 1.730588e-002
4.647605e+002, 1.623932e-002
4.666890e+002, 1.596933e-002
4.686174e+002, 1.587163e-002
4.705459e+002, 1.596651e-002
4.724744e+002, 1.560829e-002
4.744028e+002, 1.524886e-002
4.763313e+002, 1.451950e-002
4.782598e+002, 1.446824e-002
4.801882e+002, 1.484870e-002
4.821167e+002, 1.447157e-002
4.840452e+002, 1.389685e-002
4.859736e+002, 1.335956e-002
4.879021e+002, 1.301630e-002
4.898306e+002, 1.327168e-002
4.917590e+002, 1.345791e-002
4.936875e+002, 1.333787e-002
4.956160e+002, 1.346376e-002
4.975444e+002, 1.290846e-002
4.994729e+002, 1.236254e-002
5.014014e+002, 1.282750e-002
5.033298e+002, 1.337723e-002
5.052583e+002, 1.305407e-002
5.071868e+002, 1.266916e-002
5.091152e+002, 1.230510e-002
5.110437e+002, 1.186605e-002
5.129722e+002, 1.149018e-002
5.149006e+002, 1.157508e-002
5.168291e+002, 1.185692e-002
5.187576e+002, 1.152366e-002
5.206860e+002, 1.125339e-002
5.226145e+002, 1.119449e-002
5.245430e+002, 1.122658e-002
5.264714e+002, 1.148735e-002
5.283999e+002, 1.176922e-002
5.303284e+002, 1.180159e-002
5.322568e+002, 1.150630e-002
5.341853e+002, 1.124021e-002
5.361138e+002, 1.168658e-002
5.380422e+002, 1.209855e-002
5.399707e+002, 1.168733e-002
5.418992e+002, 1.129562e-002
5.438276e+002, 1.132579e-002
5.457561e+002, 1.124449e-002
5.476846e+002, 1.113213e-002
5.496130e+002, 1.119234e-002
5.515415e+002, 1.065811e-002
5.534700e+002, 1.055887e-002
5.553984e+002, 1.081011e-002
5.573269e+002, 1.096449e-002
5.592554e+002, 1.099272e-002
5.611838e+002, 1.111516e-002
5.631123e+002, 1.110566e-002
5.650408e+002, 1.094620e-002
5.669692e+002, 1.069655e-002
5.688977e+002, 1.068335e-002
5.708262e+002, 1.069625e-002
5.727546e+002, 1.085448e-002
5.746831e+002, 1.105013e-002
5.766116e+002, 1.089937e-002
5.785400e+002, 1.069327e-002
5.804685e+002, 1.083266e-002
5.823970e+002, 1.094767e-002
5.843254e+002, 1.088739e-002
5.862539e+002, 1.077157e-002
5.881824e+002, 1.110948e-002
5.901108e+002, 1.174034e-002
5.920393e+002, 1.157312e-002
5.939678e+002, 1.101200e-002
5.958962e+002, 1.126777e-002
5.978247e+002, 1.194677e-002
5.997532e+002, 1.186251e-002
6.016816e+002, 1.160674e-002
6.036101e+002, 1.128092e-002
6.055386e+002, 1.121233e-002
6.074670e+002, 1.159619e-002
6.093955e+002, 1.195857e-002
6.113240e+002, 1.187374e-002
6.132524e+002, 1.168090e-002
6.151809e+002, 1.195912e-002
6.171094e+002, 1.240485e-002
6.190378e+002, 1.269419e-002
6.209663e+002, 1.258121e-002
6.228948e+002, 1.236079e-002
6.248232e+002, 1.274167e-002
6.267517e+002, 1.275716e-002
6.286802e+002, 1.271101e-002
6.306086e+002, 1.294831e-002
6.325371e+002, 1.306856e-002
6.344656e+002, 1.327865e-002
6.363940e+002, 1.339398e-002
6.383225e+002, 1.347343e-002
6.402510e+002, 1.358520e-002
6.421794e+002, 1.372030e-002
6.441079e+002, 1.400647e-002
6.460364e+002, 1.428845e-002
6.479648e+002, 1.461209e-002
6.498933e+002, 1.509096e-002
6.518218e+002, 1.534708e-002
6.537502e+002, 1.524610e-002
6.556787e+002, 1.545407e-002
6.576072e+002, 1.567244e-002
6.595356e+002, 1.599073e-002
6.614641e+002, 1.603715e-002
6.633926e+002, 1.609848e-002
6.653210e+002, 1.614924e-002
6.672495e+002, 1.624689e-002
6.691780e+002, 1.648513e-002
6.711064e+002, 1.656693e-002
6.730349e+002, 1.648278e-002
6.749634e+002, 1.667420e-002
6.768918e+002, 1.720384e-002
6.788203e+002, 1.750047e-002
6.807488e+002, 1.779914e-002
6.826772e+002, 1.820444e-002
6.846057e+002, 1.841645e-002
6.865342e+002, 1.838456e-002
6.884626e+002, 1.864201e-002
6.903911e+002, 1.891467e-002
6.923196e+002, 1.929771e-002
6.942480e+002, 1.966894e-002
6.961765e+002, 1.984813e-002
6.981050e+002, 2.007889e-002
7.000334e+002, 2.067028e-002
7.019619e+002, 2.113465e-002
7.038904e+002, 2.172201e-002
7.058188e+002, 2.249885e-002
7.077473e+002, 2.321190e-002
7.096758e+002, 2.393782e-002
7.116042e+002, 2.484631e-002
7.135327e+002, 2.597211e-002
7.154612e+002, 2.718882e-002
7.173896e+002, 2.857623e-002
7.193181e+002, 3.044216e-002
7.212466e+002, 3.262606e-002
7.231750e+002, 3.513671e-002
7.251035e+002, 3.834665e-002
7.270320e+002, 4.266067e-002
7.289604e+002, 4.853663e-002
7.308889e+002, 5.615459e-002
7.328174e+002, 6.644402e-002
7.347458e+002, 8.101194e-002
7.366743e+002, 9.921522e-002
7.386028e+002, 1.152445e-001
7.405313e+002, 1.167227e-001
7.424597e+002, 9.749413e-002
7.443882e+002, 6.900711e-002
7.463167e+002, 4.537437e-002
7.482451e+002, 3.081133e-002
7.501736e+002, 2.335196e-002
7.521021e+002, 1.950933e-002
7.540305e+002, 1.726954e-002
7.559590e+002, 1.610463e-002
7.578875e+002, 1.563373e-002
7.598159e+002, 1.561839e-002
7.617444e+002, 1.555068e-002
7.636729e+002, 1.536386e-002
7.656013e+002, 1.565818e-002
7.675298e+002, 1.624947e-002
7.694583e+002, 1.643865e-002
7.713867e+002, 1.655502e-002
7.733152e+002, 1.692760e-002
7.752437e+002, 1.721614e-002
7.771721e+002, 1.749222e-002
7.791006e+002, 1.780541e-002
7.810291e+002, 1.809419e-002
7.829575e+002, 1.838892e-002
7.848860e+002, 1.881422e-002
7.868145e+002, 1.900366e-002
7.887429e+002, 1.914753e-002
7.906714e+002, 1.977979e-002
7.925999e+002, 2.035272e-002
7.945283e+002, 2.062673e-002
7.964568e+002, 2.124861e-002
7.983853e+002, 2.199701e-002
8.003137e+002, 2.232482e-002
8.022422e+002, 2.242967e-002
8.041707e+002, 2.295723e-002
8.060991e+002, 2.363208e-002
8.080276e+002, 2.427666e-002
8.099561e+002, 2.490269e-002
8.118845e+002, 2.573207e-002
8.138130e+002, 2.661622e-002
8.157415e+002, 2.737043e-002
8.176699e+002, 2.835670e-002
8.195984e+002, 2.952952e-002
8.215269e+002, 3.073474e-002
8.234553e+002, 3.191026e-002
8.253838e+002, 3.337998e-002
8.273123e+002, 3.507753e-002
8.292407e+002, 3.699622e-002
8.311692e+002, 3.956278e-002
8.330977e+002, 4.287096e-002
8.350261e+002, 4.695318e-002
8.369546e+002, 5.170532e-002
8.388831e+002, 5.623117e-002
8.408115e+002, 6.020566e-002
8.427400e+002, 6.404128e-002
8.446685e+002, 6.879459e-002
8.465969e+002, 7.503261e-002
8.485254e+002, 8.330660e-002
8.504539e+002, 9.422932e-002
8.523823e+002, 1.079243e-001
8.543108e+002, 1.242684e-001
8.562393e+002, 1.431376e-001
8.581677e+002, 1.626607e-001
8.600962e+002, 1.799975e-001
8.620247e+002, 1.937068e-001
8.639531e+002, 2.030517e-001
8.658816e+002, 2.070595e-001
8.678101e+002, 2.052038e-001
8.697385e+002, 1.984337e-001
8.716670e+002, 1.881732e-001
8.735955e+002, 1.744694e-001
8.755239e+002, 1.579297e-001
8.774524e+002, 1.389276e-001
8.793809e+002, 1.186160e-001
8.813093e+002, 9.753922e-002
8.832378e+002, 7.685811e-002
8.851663e+002, 5.867119e-002
8.870947e+002, 4.468265e-002
8.890232e+002, 3.556158e-002
8.909517e+002, 3.063515e-002
8.928801e+002, 2.847153e-002
8.948085e+002, 2.756491e-002
8.967370e+002, 2.721143e-002
8.986655e+002, 2.729630e-002
9.005939e+002, 2.755978e-002
9.025224e+002, 2.803180e-002
9.044509e+002, 2.845982e-002
9.063793e+002, 2.866599e-002
9.083078e+002, 2.884152e-002
9.102363e+002, 2.931130e-002
9.121647e+002, 2.986585e-002
9.140932e+002, 3.007952e-002
9.160217e+002, 3.032734e-002
9.179501e+002, 3.052866e-002
9.198786e+002, 3.072213e-002
9.218071e+002, 3.096545e-002
9.237355e+002, 3.128017e-002
9.256640e+002, 3.169931e-002
9.275925e+002, 3.192402e-002
9.295209e+002, 3.210025e-002
9.314494e+002, 3.243935e-002
9.333779e+002, 3.276277e-002
9.353063e+002, 3.275343e-002
9.372348e+002, 3.270818e-002
9.391633e+002, 3.287141e-002
9.410917e+002, 3.300565e-002
9.430202e+002, 3.296738e-002
9.449487e+002, 3.297346e-002
9.468771e+002, 3.311122e-002
9.488056e+002, 3.330712e-002
9.507341e+002, 3.346913e-002
9.526625e+002, 3.354566e-002
9.545910e+002, 3.382833e-002
9.565195e+002, 3.423373e-002
9.584479e+002, 3.456039e-002
9.603764e+002, 3.471879e-002
9.623049e+002, 3.492419e-002
9.642333e+002, 3.526916e-002
9.661618e+002, 3.561438e-002
9.680903e+002, 3.597801e-002
9.700187e+002, 3.621452e-002
9.719472e+002, 3.642409e-002
9.738757e+002, 3.673247e-002
9.758041e+002, 3.710558e-002
9.777326e+002, 3.748446e-002
9.796611e+002, 3.772806e-002
9.815895e+002, 3.803504e-002
9.835180e+002, 3.837199e-002
9.854465e+002, 3.867859e-002
9.873749e+002, 3.912098e-002
9.893034e+002, 3.955005e-002
9.912319e+002, 3.996263e-002
9.931603e+002, 4.032862e-002
9.950888e+002, 4.070232e-002
9.970173e+002, 4.114879e-002
9.989457e+002, 4.144467e-002
1.000874e+003, 4.179794e-002
1.002803e+003, 4.229167e-002
1.004731e+003, 4.277785e-002
1.006660e+003, 4.304090e-002
1.008588e+003, 4.333230e-002
1.010517e+003, 4.388366e-002
1.012445e+003, 4.439723e-002
1.014373e+003, 4.477727e-002
1.016302e+003, 4.518771e-002
1.018230e+003, 4.559819e-002
1.020159e+003, 4.603282e-002
1.022087e+003, 4.648415e-002
1.024016e+003, 4.689644e-002
1.025944e+003, 4.730163e-002
1.027873e+003, 4.786034e-002
1.029801e+003, 4.841229e-002
1.031730e+003, 4.881261e-002
1.033658e+003, 4.945116e-002
1.035587e+003, 4.999946e-002
1.037515e+003, 5.052780e-002
1.039444e+003, 5.105222e-002
1.041372e+003, 5.140626e-002
1.043301e+003, 5.201643e-002
1.045229e+003, 5.284457e-002
1.047157e+003, 5.332346e-002
1.049086e+003, 5.367061e-002
1.051014e+003, 5.412946e-002
1.052943e+003, 5.461377e-002
1.054871e+003, 5.509233e-002
1.056800e+003, 5.551188e-002
1.058728e+003, 5.587828e-002
1.060657e+003, 5.632442e-002
1.062585e+003, 5.674018e-002
1.064514e+003, 5.717658e-002
1.066442e+003, 5.753569e-002
1.068371e+003, 5.788486e-002
1.070299e+003, 5.818123e-002
1.072228e+003, 5.835800e-002
1.074156e+003, 5.851282e-002
1.076084e+003, 5.876622e-002
1.078013e+003, 5.907868e-002
1.079941e+003, 5.948522e-002
1.081870e+003, 5.989212e-002
1.083798e+003, 6.014660e-002
1.085727e+003, 6.039202e-002
1.087655e+003, 6.050967e-002
1.089584e+003, 6.061786e-002
1.091512e+003, 6.089963e-002
1.093441e+003, 6.110157e-002
1.095369e+003, 6.126672e-002
1.097298e+003, 6.149210e-002
1.099226e+003, 6.160633e-002
1.101155e+003, 6.189907e-002
1.103083e+003, 6.250034e-002
1.105011e+003, 6.301465e-002
1.106940e+003, 6.336760e-002
1.108868e+003, 6.381125e-002
1.110797e+003, 6.424616e-002
1.112725e+003, 6.464574e-002
1.114654e+003, 6.534845e-002
1.116582e+003, 6.606773e-002
1.118511e+003, 6.659814e-002
1.120439e+003, 6.712677e-002
1.122368e+003, 6.768495e-002
1.124296e+003, 6.807075e-002
1.126225e+003, 6.844629e-002
1.128153e+003, 6.903716e-002
1.130082e+003, 6.959832e-002
1.132010e+003, 7.026620e-002
1.133938e+003, 7.098362e-002
1.135867e+003, 7.145317e-002
1.137795e+003, 7.199143e-002
1.139724e+003, 7.279312e-002
1.141652e+003, 7.361700e-002
1.143581e+003, 7.437811e-002
1.145509e+003, 7.506569e-002
1.147438e+003, 7.569145e-002
1.149366e+003, 7.637516e-002
1.151295e+003, 7.715072e-002
1.153223e+003, 7.795994e-002
1.155152e+003, 7.880193e-002
1.157080e+003, 7.972086e-002
1.159009e+003, 8.068556e-002
1.160937e+003, 8.140957e-002
1.162865e+003, 8.216432e-002
1.164794e+003, 8.285146e-002
1.166722e+003, 8.357317e-002
1.168651e+003, 8.447988e-002
1.170579e+003, 8.549650e-002
1.172508e+003, 8.642805e-002
1.174436e+003, 8.724859e-002
1.176365e+003, 8.820599e-002
1.178293e+003, 8.914471e-002
1.180222e+003, 8.994406e-002
1.182150e+003, 9.070445e-002
1.184079e+003, 9.157461e-002
1.186007e+003, 9.268145e-002
1.187936e+003, 9.368643e-002
1.189864e+003, 9.442265e-002
1.191792e+003, 9.516487e-002
1.193721e+003, 9.613343e-002
1.195649e+003, 9.714808e-002
1.197578e+003, 9.803974e-002
1.199506e+003, 9.888665e-002
1.201435e+003, 9.983831e-002
1.203363e+003, 1.006623e-001
1.205292e+003, 1.014270e-001
1.207220e+003, 1.023727e-001
1.209149e+003, 1.032788e-001
1.211077e+003, 1.040173e-001
1.213006e+003, 1.049763e-001
1.214934e+003, 1.061605e-001
1.216863e+003, 1.072181e-001
1.218791e+003, 1.079310e-001
1.220719e+003, 1.087615e-001
1.222648e+003, 1.100294e-001
1.224576e+003, 1.114327e-001
1.226505e+003, 1.124848e-001
1.228433e+003, 1.133958e-001
1.230362e+003, 1.144179e-001
1.232290e+003, 1.155399e-001
1.234219e+003, 1.167818e-001
1.236147e+003, 1.181011e-001
1.238076e+003, 1.194591e-001
1.240004e+003, 1.207431e-001
1.241933e+003, 1.221221e-001
1.243861e+003, 1.236478e-001
1.245790e+003, 1.251107e-001
1.247718e+003, 1.265534e-001
1.249646e+003, 1.279823e-001
1.251575e+003, 1.293842e-001
1.253503e+003, 1.308715e-001
1.255432e+003, 1.325369e-001
1.257360e+003, 1.341912e-001
1.259289e+003, 1.356451e-001
1.261217e+003, 1.370882e-001
1.263146e+003, 1.388422e-001
1.265074e+003, 1.405366e-001
1.267003e+003, 1.421666e-001
1.268931e+003, 1.438320e-001
1.270860e+003, 1.457667e-001
1.272788e+003, 1.477585e-001
1.274717e+003, 1.496673e-001
1.276645e+003, 1.514994e-001
1.278573e+003, 1.533436e-001
1.280502e+003, 1.554345e-001
1.282430e+003, 1.575120e-001
1.284359e+003, 1.595475e-001
1.286287e+003, 1.615830e-001
1.288216e+003, 1.637446e-001
1.290144e+003, 1.659617e-001
1.292073e+003, 1.681503e-001
1.294001e+003, 1.705543e-001
1.295930e+003, 1.729065e-001
1.297858e+003, 1.751699e-001
1.299787e+003, 1.775168e-001
1.301715e+003, 1.800647e-001
1.303644e+003, 1.827821e-001
1.305572e+003, 1.853424e-001
1.307500e+003, 1.877899e-001
1.309429e+003, 1.903994e-001
1.311357e+003, 1.932784e-001
1.313286e+003, 1.961538e-001
1.315214e+003, 1.991775e-001
1.317143e+003, 2.020817e-001
1.319071e+003, 2.047011e-001
1.321000e+003, 2.076140e-001
1.322928e+003, 2.108041e-001
1.324857e+003, 2.137518e-001
1.326785e+003, 2.167360e-001
1.328714e+003, 2.200165e-001
1.330642e+003, 2.233609e-001
1.332571e+003, 2.266072e-001
1.334499e+003, 2.299376e-001
1.336427e+003, 2.332611e-001
1.338356e+003, 2.366731e-001
1.340284e+003, 2.402932e-001
1.342213e+003, 2.438835e-001
1.344141e+003, 2.475607e-001
1.346070e+003, 2.512644e-001
1.347998e+003, 2.552136e-001
1.349927e+003, 2.592131e-001
1.351855e+003, 2.634780e-001
1.353784e+003, 2.676330e-001
1.355712e+003, 2.715636e-001
1.357641e+003, 2.758504e-001
1.359569e+003, 2.803596e-001
1.361498e+003, 2.847794e-001
1.363426e+003, 2.894565e-001
1.365354e+003, 2.942331e-001
1.367283e+003, 2.989819e-001
1.369211e+003, 3.039190e-001
1.371140e+003, 3.091509e-001
1.373068e+003, 3.145663e-001
1.374997e+003, 3.200079e-001
1.376925e+003, 3.255905e-001
1.378854e+003, 3.313510e-001
1.380782e+003, 3.367659e-001
1.382711e+003, 3.422419e-001
1.384639e+003, 3.480007e-001
1.386568e+003, 3.533740e-001
1.388496e+003, 3.583419e-001
1.390424e+003, 3.629923e-001
1.392353e+003, 3.671726e-001
1.394281e+003, 3.710059e-001
1.396210e+003, 3.745015e-001
1.398138e+003, 3.776487e-001
1.400067e+003, 3.806591e-001
1.401995e+003, 3.837681e-001
1.403924e+003, 3.866512e-001
1.405852e+003, 3.892321e-001
1.407781e+003, 3.909987e-001
1.409709e+003, 3.912771e-001
1.411638e+003, 3.905958e-001
1.413566e+003, 3.891899e-001
1.415495e+003, 3.868874e-001
1.417423e+003, 3.835351e-001
1.419351e+003, 3.792230e-001
1.421280e+003, 3.744214e-001
1.423208e+003, 3.694711e-001
1.425137e+003, 3.641526e-001
1.427065e+003, 3.585229e-001
1.428994e+003, 3.526220e-001
1.430922e+003, 3.468674e-001
1.432851e+003, 3.415136e-001
1.434779e+003, 3.360366e-001
1.436708e+003, 3.306306e-001
1.438636e+003, 3.254174e-001
1.440565e+003, 3.200959e-001
1.442493e+003, 3.150451e-001
1.444422e+003, 3.102901e-001
1.446350e+003, 3.054087e-001
1.448278e+003, 3.007096e-001
1.450207e+003, 2.960370e-001
1.452135e+003, 2.910434e-001
1.454064e+003, 2.859122e-001
1.455992e+003, 2.808744e-001
1.457921e+003, 2.756853e-001
1.459849e+003, 2.706306e-001
1.461778e+003, 2.654566e-001
1.463706e+003, 2.603805e-001
1.465635e+003, 2.555327e-001
1.467563e+003, 2.508167e-001
1.469492e+003, 2.461809e-001
1.471420e+003, 2.414717e-001
1.473349e+003, 2.363842e-001
1.475277e+003, 2.316800e-001
1.477205e+003, 2.270767e-001
1.479134e+003, 2.225641e-001
1.481062e+003, 2.177112e-001
1.482991e+003, 2.125741e-001
1.484919e+003, 2.077596e-001
1.486848e+003, 2.031490e-001
1.488776e+003, 1.983023e-001
1.490705e+003, 1.932832e-001
1.492633e+003, 1.884594e-001
1.494562e+003, 1.834695e-001
1.496490e+003, 1.780707e-001
1.498419e+003, 1.731063e-001
1.500347e+003, 1.681643e-001
1.502276e+003, 1.629318e-001
1.504204e+003, 1.578309e-001
1.506132e+003, 1.528182e-001
1.508061e+003, 1.476112e-001
1.509989e+003, 1.427732e-001
1.511918e+003, 1.381573e-001
1.513846e+003, 1.333096e-001
1.515775e+003, 1.283540e-001
1.517703e+003, 1.236278e-001
1.519632e+003, 1.189487e-001
1.521560e+003, 1.142332e-001
1.523489e+003, 1.101051e-001
1.525417e+003, 1.058434e-001
1.527346e+003, 1.017535e-001
1.529274e+003, 9.792942e-002
1.531203e+003, 9.383844e-002
1.533131e+003, 8.978415e-002
1.535059e+003, 8.620399e-002
1.536988e+003, 8.259348e-002
1.538916e+003, 7.854782e-002
1.540845e+003, 7.479966e-002
1.542773e+003, 7.145883e-002
1.544702e+003, 6.807561e-002
1.546630e+003, 6.441374e-002
1.548559e+003, 6.059496e-002
1.550487e+003, 5.657115e-002
1.552416e+003, 5.275691e-002
1.554344e+003, 4.867476e-002
1.556273e+003, 4.434850e-002
1.558201e+003, 3.994791e-002
1.560130e+003, 3.550053e-002
1.562058e+003, 3.134481e-002
1.563986e+003, 2.736845e-002
1.565915e+003, 2.366849e-002
1.567843e+003, 2.057922e-002
1.569772e+003, 1.788319e-002
1.571700e+003, 1.611951e-002
1.573629e+003, 1.489123e-002
1.575557e+003, 1.403673e-002
1.577486e+003, 1.347073e-002
1.579414e+003, 1.307970e-002
1.581343e+003, 1.276484e-002
1.583271e+003, 1.275721e-002
1.585200e+003, 1.266629e-002
1.587128e+003, 1.258253e-002
1.589057e+003, 1.236722e-002
1.590985e+003, 1.219537e-002
1.592913e+003, 1.239155e-002
1.594842e+003, 1.251132e-002
1.596770e+003, 1.240365e-002
1.598699e+003, 1.219070e-002
1.600627e+003, 1.197327e-002
1.602556e+003, 1.173912e-002
1.604484e+003, 1.153098e-002
1.606413e+003, 1.126319e-002
1.608341e+003, 1.107292e-002
1.610270e+003, 1.111959e-002
1.612198e+003, 1.090151e-002
1.614127e+003, 1.063057e-002
1.616055e+003, 1.033385e-002
1.617984e+003, 9.912859e-003
1.619912e+003, 9.727227e-003
1.621840e+003, 9.409158e-003
1.623769e+003, 9.022928e-003
1.625697e+003, 8.929561e-003
1.627626e+003, 8.881110e-003
1.629554e+003, 8.545622e-003
1.631483e+003, 8.466910e-003
1.633411e+003, 8.285916e-003
1.635340e+003, 7.780384e-003
1.637268e+003, 7.677524e-003
1.639197e+003, 7.730276e-003
1.641125e+003, 7.496074e-003
1.643054e+003, 7.185032e-003
1.644982e+003, 6.991195e-003
1.646911e+003, 6.786321e-003
1.648839e+003, 6.844829e-003
1.650767e+003, 6.743035e-003
1.652696e+003, 6.086754e-003
1.654624e+003, 6.019129e-003
1.656553e+003, 6.300393e-003
1.658481e+003, 6.142314e-003
1.660410e+003, 6.146319e-003
1.662338e+003, 6.125378e-003
1.664267e+003, 5.905094e-003
1.666195e+003, 5.462168e-003
1.668124e+003, 5.402342e-003
1.670052e+003, 5.508264e-003
1.671981e+003, 5.822914e-003
1.673909e+003, 5.745825e-003
1.675838e+003, 5.331309e-003
1.677766e+003, 5.234430e-003
1.679694e+003, 5.206363e-003
1.681623e+003, 5.170130e-003
1.683551e+003, 4.813802e-003
1.685480e+003, 4.576196e-003
1.687408e+003, 4.825435e-003
1.689337e+003, 4.848314e-003
1.691265e+003, 4.948481e-003
1.693194e+003, 4.887367e-003
1.695122e+003, 4.613249e-003
1.697051e+003, 4.373906e-003
1.698979e+003, 4.343129e-003
1.700908e+003, 3.950472e-003
1.702836e+003, 4.194849e-003
1.704765e+003, 4.462518e-003
1.706693e+003, 4.511049e-003
1.708621e+003, 4.382472e-003
1.710550e+003, 4.209504e-003
1.712478e+003, 4.006569e-003
1.714407e+003, 3.869206e-003
1.716335e+003, 3.747531e-003
1.718264e+003, 3.651554e-003
1.720192e+003, 3.821191e-003
1.722121e+003, 3.938686e-003
1.724049e+003, 3.876865e-003
1.725978e+003, 3.680515e-003
1.727906e+003, 3.459349e-003
1.729835e+003, 3.268949e-003
1.731763e+003, 3.218075e-003
1.733692e+003, 3.022964e-003
1.735620e+003, 3.058324e-003
1.737548e+003, 3.219638e-003
1.739477e+003, 3.008574e-003
1.741405e+003, 2.990199e-003
1.743334e+003, 2.894400e-003
1.745262e+003, 2.973069e-003
1.747191e+003, 3.181876e-003
1.749119e+003, 3.430383e-003
1.751048e+003, 3.588008e-003
1.752976e+003, 3.371981e-003
1.754905e+003, 3.441259e-003
1.756833e+003, 3.668753e-003
1.758762e+003, 3.711317e-003
1.760690e+003, 3.585618e-003
1.762619e+003, 3.761559e-003
1.764547e+003, 4.351183e-003
1.766475e+003, 4.430919e-003
1.768404e+003, 4.435225e-003
1.770332e+003, 4.505351e-003
1.772261e+003, 4.802454e-003
1.774189e+003, 5.003161e-003
1.776118e+003, 4.949092e-003
1.778046e+003, 5.352579e-003
1.779975e+003, 5.553697e-003
1.781903e+003, 5.444588e-003
1.783832e+003, 5.698866e-003
1.785760e+003, 6.006830e-003
1.787689e+003, 5.961749e-003
1.789617e+003, 6.156325e-003
1.791546e+003, 6.666441e-003
1.793474e+003, 6.818306e-003
1.795402e+003, 7.244067e-003
1.797331e+003, 7.625953e-003
1.799259e+003, 7.988702e-003
1.801188e+003, 8.610662e-003
1.803116e+003, 9.332006e-003
1.805045e+003, 9.787930e-003
1.806973e+003, 1.010431e-002
1.808902e+003, 1.032982e-002
1.810830e+003, 1.071005e-002
1.812759e+003, 1.087749e-002
1.814687e+003, 1.061369e-002
1.816616e+003, 1.019980e-002
1.818544e+003, 1.044048e-002
1.820473e+003, 1.072849e-002
1.822401e+003, 1.019034e-002
1.824329e+003, 9.623088e-003
1.826258e+003, 9.170014e-003
1.828186e+003, 8.906652e-003
1.830115e+003, 8.716582e-003
1.832043e+003, 8.240708e-003
1.833972e+003, 7.119760e-003
1.835900e+003, 6.357140e-003
1.837829e+003, 5.936403e-003
1.839757e+003, 5.637721e-003
1.841686e+003, 5.688045e-003
1.843614e+003, 5.127759e-003
1.845543e+003, 4.540284e-003
1.847471e+003, 4.658831e-003
1.849400e+003, 4.770266e-003
1.851328e+003, 4.485820e-003
1.853256e+003, 4.103731e-003
1.855185e+003, 4.129844e-003
1.857113e+003, 4.212580e-003
1.859042e+003, 4.388196e-003
1.860970e+003, 4.050320e-003
1.862899e+003, 3.887021e-003
1.864827e+003, 3.998128e-003
1.866756e+003, 4.057302e-003
1.868684e+003, 4.158959e-003
1.870613e+003, 4.437780e-003
1.872541e+003, 4.503116e-003
1.874470e+003, 4.288433e-003
1.876398e+003, 4.346303e-003
1.878327e+003, 4.231964e-003
1.880255e+003, 4.389401e-003
1.882183e+003, 4.534970e-003
1.884112e+003, 4.359338e-003
1.886040e+003, 3.847667e-003
1.887969e+003, 3.954765e-003
1.889897e+003, 4.318638e-003
1.891826e+003, 4.312679e-003
1.893754e+003, 3.857763e-003
1.895683e+003, 3.812871e-003
1.897611e+003, 4.431952e-003
1.899540e+003, 4.386859e-003
1.901468e+003, 4.223836e-003
1.903397e+003, 4.123590e-003
1.905325e+003, 4.114239e-003
1.907254e+003, 3.674806e-003
1.909182e+003, 3.555618e-003
1.911110e+003, 4.487914e-003
1.913039e+003, 4.849949e-003
1.914967e+003, 4.175886e-003
1.916896e+003, 3.877131e-003
1.918824e+003, 4.058305e-003
1.920753e+003, 3.795923e-003
1.922681e+003, 3.476924e-003
1.924610e+003, 4.332161e-003
1.926538e+003, 5.003736e-003
1.928467e+003, 4.317077e-003
1.930395e+003, 4.190824e-003
1.932324e+003, 4.451805e-003
1.934252e+003, 3.900654e-003
1.936181e+003, 3.683216e-003
1.938109e+003, 3.977002e-003
1.940037e+003, 3.799692e-003
1.941966e+003, 3.264975e-003
1.943894e+003, 3.350356e-003
1.945823e+003, 2.917089e-003
1.947751e+003, 2.727102e-003
1.949680e+003, 3.239161e-003
1.951608e+003, 2.571538e-003
1.953537e+003, 3.682476e-003
1.955465e+003, 4.558474e-003
1.957394e+003, 2.808502e-003
1.959322e+003, 2.797868e-003
1.961251e+003, 4.487337e-003
1.963179e+003, 3.464453e-003
1.965108e+003, 3.089703e-003
1.967036e+003, 2.458146e-003
1.968964e+003, 1.471497e-003
1.970893e+003, 1.210854e-003
1.972821e+003, 2.691167e-003
1.974750e+003, 3.848978e-003
1.976678e+003, 3.875497e-003
1.978607e+003, 3.852942e-003
1.980535e+003, 4.205831e-003
1.982464e+003, 4.148140e-003
1.984392e+003, 4.715302e-003
1.986321e+003, 5.845767e-003
1.988249e+003, 5.153065e-003
1.990178e+003, 4.251685e-003
1.992106e+003, 3.820762e-003
1.994035e+003, 4.066970e-003
1.995963e+003, 4.450387e-003
1.997891e+003, 3.360951e-003
1.999820e+003, 2.849722e-003
2.001748e+003, 3.866699e-003
2.003677e+003, 3.823260e-003
2.005605e+003, 3.238393e-003
2.007534e+003, 3.600304e-003
2.009462e+003, 3.833719e-003
2.011391e+003, 4.172365e-003
2.013319e+003, 4.272602e-003
2.015248e+003, 3.440146e-003
2.017176e+003, 3.210450e-003
2.019105e+003, 5.028314e-003
2.021033e+003, 5.330449e-003
2.022962e+003, 3.706146e-003
2.024890e+003, 3.579701e-003
2.026818e+003, 5.018534e-003
2.028747e+003, 5.540339e-003
2.030675e+003, 4.096908e-003
2.032604e+003, 4.144565e-003
2.034532e+003, 4.701145e-003
2.036461e+003, 4.600903e-003
2.038389e+003, 4.294566e-003
2.040318e+003, 4.272782e-003
2.042246e+003, 4.436214e-003
2.044175e+003, 4.935344e-003
2.046103e+003, 7.681709e-003
2.048032e+003, 8.803267e-003
2.049960e+003, 8.719096e-003
2.051889e+003, 7.059830e-003
2.053817e+003, 6.129385e-003
2.055746e+003, 5.891456e-003
2.057674e+003, 6.423471e-003
2.059603e+003, 6.676126e-003
2.061531e+003, 6.112752e-003
2.063459e+003, 5.781936e-003
2.065388e+003, 5.400053e-003
2.067316e+003, 5.819263e-003
2.069245e+003, 7.360956e-003
2.071173e+003, 7.127057e-003
2.073102e+003, 6.199789e-003
2.075030e+003, 6.801722e-003
2.076959e+003, 7.251926e-003
2.078887e+003, 6.474078e-003
2.080816e+003, 7.082708e-003
2.082744e+003, 8.812507e-003
2.084673e+003, 9.493709e-003
2.086601e+003, 8.275907e-003
2.088530e+003, 7.452853e-003
2.090458e+003, 8.029299e-003
2.092386e+003, 7.325809e-003
2.094315e+003, 5.998674e-003
2.096243e+003, 7.133154e-003
2.098172e+003, 8.271542e-003
2.100100e+003, 8.679423e-003
2.102029e+003, 8.336836e-003
2.103957e+003, 7.812384e-003
2.105886e+003, 8.757268e-003
2.107814e+003, 9.144999e-003
2.109743e+003, 8.085283e-003
2.111671e+003, 7.919542e-003
2.113600e+003, 7.578195e-003
2.115528e+003, 7.773165e-003
2.117457e+003, 8.146180e-003
2.119385e+003, 7.183895e-003
2.121313e+003, 7.170589e-003
2.123242e+003, 8.390785e-003
2.125170e+003, 8.081499e-003
2.127099e+003, 7.187521e-003
2.129027e+003, 6.620929e-003
2.130956e+003, 5.282620e-003
2.132884e+003, 4.984023e-003
2.134813e+003, 6.110229e-003
2.136741e+003, 6.866088e-003
2.138670e+003, 6.773305e-003
2.140598e+003, 7.038368e-003
2.142527e+003, 6.324197e-003
2.144455e+003, 5.122467e-003
2.146384e+003, 4.581983e-003
2.148312e+003, 4.761127e-003
2.150240e+003, 6.122080e-003
2.152169e+003, 5.159231e-003
2.154097e+003, 1.781855e-003
2.156026e+003, 1.052879e-003
2.157954e+003, 2.658384e-003
2.159883e+003, 5.564107e-003
2.161811e+003, 7.202028e-003
2.163740e+003, 6.759247e-003
2.165668e+003, 7.362551e-003
2.167597e+003, 9.027924e-003
2.169525e+003, 8.404181e-003
2.171454e+003, 6.763706e-003
2.173382e+003, 6.893020e-003
2.175311e+003, 6.773741e-003
2.177239e+003, 7.135203e-003
2.179167e+003, 8.024178e-003
2.181096e+003, 9.455838e-003
2.183024e+003, 8.765454e-003
2.184953e+003, 7.440052e-003
2.186881e+003, 7.554736e-003
2.188810e+003, 7.352003e-003
2.190738e+003, 6.063689e-003
2.192667e+003, 6.522146e-003
2.194595e+003, 8.519064e-003
2.196524e+003, 1.015698e-002
2.198452e+003, 9.374381e-003
2.200381e+003, 6.865221e-003
2.202309e+003, 5.614059e-003
2.204238e+003, 6.517492e-003
2.206166e+003, 6.499594e-003
2.208094e+003, 7.098027e-003
2.210023e+003, 9.510654e-003
2.211951e+003, 9.991943e-003
2.213880e+003, 8.450614e-003
2.215808e+003, 7.620161e-003
2.217737e+003, 6.573500e-003
2.219665e+003, 7.798476e-003
2.221594e+003, 9.660285e-003
2.223522e+003, 1.082766e-002
2.225451e+003, 1.006603e-002
2.227379e+003, 8.658189e-003
2.229308e+003, 8.728110e-003
2.231236e+003, 8.577218e-003
2.233165e+003, 7.918974e-003
2.235093e+003, 8.918959e-003
2.237021e+003, 1.056535e-002
2.238950e+003, 1.053266e-002
2.240878e+003, 1.026984e-002
2.242807e+003, 9.598777e-003
2.244735e+003, 9.382966e-003
2.246664e+003, 1.005670e-002
2.248592e+003, 1.007996e-002
2.250521e+003, 9.563036e-003
2.252449e+003, 1.015724e-002
2.254378e+003, 1.042026e-002
2.256306e+003, 1.061793e-002
2.258235e+003, 1.072361e-002
2.260163e+003, 1.114811e-002
2.262092e+003, 1.137102e-002
2.264020e+003, 1.135627e-002
2.265948e+003, 1.135371e-002
2.267877e+003, 1.084908e-002
2.269805e+003, 1.054741e-002
2.271734e+003, 1.081777e-002
2.273662e+003, 1.107176e-002
2.275591e+003, 1.173014e-002
2.277519e+003, 1.182974e-002
2.279448e+003, 1.181691e-002
2.281376e+003, 1.216220e-002
2.283305e+003, 1.261790e-002
2.285233e+003, 1.263529e-002
2.287162e+003, 1.219598e-002
2.289090e+003, 1.121610e-002
2.291019e+003, 1.121528e-002
2.292947e+003, 1.209106e-002
2.294875e+003, 1.276479e-002
2.296804e+003, 1.256148e-002
2.298732e+003, 1.217960e-002
2.300661e+003, 1.200587e-002
2.302589e+003, 1.232032e-002
2.304518e+003, 1.273149e-002
2.306446e+003, 1.281943e-002
2.308375e+003, 1.254534e-002
2.310303e+003, 1.242703e-002
2.312232e+003, 1.241003e-002
2.314160e+003, 1.283683e-002
2.316089e+003, 1.307229e-002
2.318017e+003, 1.275117e-002
2.319946e+003, 1.325829e-002
2.321874e+003, 1.423543e-002
2.323802e+003, 1.465330e-002
2.325731e+003, 1.381012e-002
2.327659e+003, 1.311847e-002
2.329588e+003, 1.303492e-002
2.331516e+003, 1.345650e-002
2.333445e+003, 1.333584e-002
2.335373e+003, 1.300343e-002
2.337302e+003, 1.288650e-002
2.339230e+003, 1.324000e-002
2.341159e+003, 1.333421e-002
2.343087e+003, 1.332380e-002
2.345016e+003, 1.357269e-002
2.346944e+003, 1.312065e-002
2.348873e+003, 1.251364e-002
2.350801e+003, 1.296528e-002
2.352729e+003, 1.352212e-002
2.354658e+003, 1.339234e-002
2.356586e+003, 1.283098e-002
2.358515e+003, 1.255605e-002
2.360443e+003, 1.289218e-002
2.362372e+003, 1.257531e-002
2.364300e+003, 1.224578e-002
2.366229e+003, 1.199361e-002
2.368157e+003, 1.204596e-002
2.370086e+003, 1.219359e-002
2.372014e+003, 1.214423e-002
2.373942e+003, 1.238640e-002
2.375871e+003, 1.285039e-002
2.377799e+003, 1.274727e-002
2.379728e+003, 1.227259e-002
2.381656e+003, 1.232423e-002
2.383585e+003, 1.259155e-002
2.385513e+003, 1.239571e-002
2.387442e+003, 1.248752e-002
2.389370e+003, 1.296994e-002
2.391299e+003, 1.297659e-002
2.393227e+003, 1.243977e-002
2.395156e+003, 1.219433e-002
2.397084e+003, 1.236893e-002
2.399012e+003, 1.195634e-002
2.400941e+003, 1.128225e-002
2.402869e+003, 1.190758e-002
2.404798e+003, 1.286705e-002
2.406726e+003, 1.276830e-002
2.408655e+003, 1.257756e-002
2.410583e+003, 1.271977e-002
2.412512e+003, 1.259955e-002
2.414440e+003, 1.233621e-002
2.416369e+003, 1.192290e-002
2.418297e+003, 1.181252e-002
2.420226e+003, 1.210003e-002
2.422154e+003, 1.224560e-002
2.424083e+003, 1.254936e-002
2.426011e+003, 1.258798e-002
2.427939e+003, 1.246173e-002
2.429868e+003, 1.221505e-002
2.431796e+003, 1.226415e-002
2.433725e+003, 1.257940e-002
2.435653e+003, 1.309282e-002
2.437582e+003, 1.320817e-002
2.439510e+003, 1.280436e-002
2.441439e+003, 1.341503e-002
2.443367e+003, 1.343343e-002
2.445296e+003, 1.260953e-002
2.447224e+003, 1.261747e-002
2.449153e+003, 1.305843e-002
2.451081e+003, 1.391857e-002
2.453010e+003, 1.411552e-002
2.454938e+003, 1.367414e-002
2.456866e+003, 1.420693e-002
2.458795e+003, 1.418864e-002
2.460723e+003, 1.334508e-002
2.462652e+003, 1.322813e-002
2.464580e+003, 1.366759e-002
2.466509e+003, 1.385946e-002
2.468437e+003, 1.379163e-002
2.470366e+003, 1.313314e-002
2.472294e+003, 1.330104e-002
2.474223e+003, 1.346345e-002
2.476151e+003, 1.385796e-002
2.478080e+003, 1.482904e-002
2.480008e+003, 1.550763e-002
2.481937e+003, 1.576035e-002
2.483865e+003, 1.585579e-002
2.485793e+003, 1.566272e-002
2.487722e+003, 1.581751e-002
2.489650e+003, 1.645250e-002
2.491579e+003, 1.698847e-002
2.493507e+003, 1.681561e-002
2.495436e+003, 1.714084e-002
2.497364e+003, 1.753227e-002
2.499293e+003, 1.745216e-002
2.501221e+003, 1.817813e-002
2.503150e+003, 1.839021e-002
2.505078e+003, 1.773947e-002
2.507007e+003, 1.732747e-002
2.508935e+003, 1.854060e-002
2.510864e+003, 1.948566e-002
2.512792e+003, 1.839746e-002
2.514720e+003, 1.812567e-002
2.516649e+003, 1.871546e-002
2.518577e+003, 1.822462e-002
2.520506e+003, 1.766969e-002
2.522434e+003, 1.810674e-002
2.524363e+003, 1.897592e-002
2.526291e+003, 1.828320e-002
2.528220e+003, 1.815736e-002
2.530148e+003, 1.878865e-002
2.532077e+003, 1.865042e-002
2.534005e+003, 1.771366e-002
2.535934e+003, 1.664964e-002
2.537862e+003, 1.640115e-002
2.539791e+003, 1.637334e-002
2.541719e+003, 1.607192e-002
2.543647e+003, 1.576322e-002
2.545576e+003, 1.564631e-002
2.547504e+003, 1.578267e-002
2.549433e+003, 1.529464e-002
2.551361e+003, 1.519321e-002
2.553290e+003, 1.526412e-002
2.555218e+003, 1.486228e-002
2.557147e+003, 1.472434e-002
2.559075e+003, 1.444329e-002
2.561004e+003, 1.511107e-002
2.562932e+003, 1.535817e-002
2.564861e+003, 1.521151e-002
2.566789e+003, 1.560102e-002
2.568718e+003, 1.578045e-002
2.570646e+003, 1.603369e-002
2.572574e+003, 1.556550e-002
2.574503e+003, 1.500743e-002
2.576431e+003, 1.441291e-002
2.578360e+003, 1.452482e-002
2.580288e+003, 1.466251e-002
2.582217e+003, 1.425437e-002
2.584145e+003, 1.409291e-002
2.586074e+003, 1.445030e-002
2.588002e+003, 1.423338e-002
2.589931e+003, 1.363224e-002
2.591859e+003, 1.358810e-002
2.593788e+003, 1.384803e-002
2.595716e+003, 1.404387e-002
2.597645e+003, 1.408192e-002
2.599573e+003, 1.428647e-002
2.601501e+003, 1.461843e-002
2.603430e+003, 1.434646e-002
2.605358e+003, 1.420115e-002
2.607287e+003, 1.489259e-002
2.609215e+003, 1.555484e-002
2.611144e+003, 1.536739e-002
2.613072e+003, 1.456066e-002
2.615001e+003, 1.450505e-002
2.616929e+003, 1.451276e-002
2.618858e+003, 1.468621e-002
2.620786e+003, 1.469191e-002
2.622715e+003, 1.466331e-002
2.624643e+003, 1.460261e-002
2.626572e+003, 1.485441e-002
2.628500e+003, 1.465093e-002
2.630428e+003, 1.408600e-002
2.632357e+003, 1.437203e-002
2.634285e+003, 1.487357e-002
2.636214e+003, 1.531295e-002
2.638142e+003, 1.512359e-002
2.640071e+003, 1.519163e-002
2.641999e+003, 1.529066e-002
2.643928e+003, 1.493914e-002
2.645856e+003, 1.452802e-002
2.647785e+003, 1.464399e-002
2.649713e+003, 1.538134e-002
2.651642e+003, 1.535619e-002
2.653570e+003, 1.490764e-002
2.655499e+003, 1.482712e-002
2.657427e+003, 1.517377e-002
2.659355e+003, 1.464592e-002
2.661284e+003, 1.414892e-002
2.663212e+003, 1.454052e-002
2.665141e+003, 1.466635e-002
2.667069e+003, 1.455938e-002
2.668998e+003, 1.403510e-002
2.670926e+003, 1.349875e-002
2.672855e+003, 1.366567e-002
2.674783e+003, 1.415253e-002
2.676712e+003, 1.433845e-002
2.678640e+003, 1.418330e-002
2.680569e+003, 1.396923e-002
2.682497e+003, 1.361812e-002
2.684426e+003, 1.306683e-002
2.686354e+003, 1.295687e-002
2.688282e+003, 1.359936e-002
2.690211e+003, 1.422989e-002
2.692139e+003, 1.389166e-002
2.694068e+003, 1.347665e-002
2.695996e+003, 1.380563e-002
2.697925e+003, 1.389911e-002
2.699853e+003, 1.363729e-002
2.701782e+003, 1.408673e-002
2.703710e+003, 1.461378e-002
2.705639e+003, 1.458080e-002
2.707567e+003, 1.460195e-002
2.709496e+003, 1.428390e-002
2.711424e+003, 1.367402e-002
2.713353e+003, 1.369816e-002
2.715281e+003, 1.375748e-002
2.717209e+003, 1.348021e-002
2.719138e+003, 1.364642e-002
2.721066e+003, 1.372066e-002
2.722995e+003, 1.389482e-002
2.724923e+003, 1.394584e-002
2.726852e+003, 1.397579e-002
2.728780e+003, 1.408122e-002
2.730709e+003, 1.398981e-002
2.732637e+003, 1.448400e-002
2.734566e+003, 1.446104e-002
2.736494e+003, 1.405890e-002
2.738423e+003, 1.416761e-002
2.740351e+003, 1.408702e-002
2.742280e+003, 1.396058e-002
2.744208e+003, 1.358069e-002
2.746136e+003, 1.400116e-002
2.748065e+003, 1.409470e-002
2.749993e+003, 1.411731e-002
2.751922e+003, 1.395810e-002
2.753850e+003, 1.367114e-002
2.755779e+003, 1.384595e-002
2.757707e+003, 1.428707e-002
2.759636e+003, 1.412181e-002
2.761564e+003, 1.379709e-002
2.763493e+003, 1.398306e-002
2.765421e+003, 1.389959e-002
2.767350e+003, 1.417869e-002
2.769278e+003, 1.432910e-002
2.771207e+003, 1.380142e-002
2.773135e+003, 1.349558e-002
2.775063e+003, 1.357786e-002
2.776992e+003, 1.413323e-002
2.778920e+003, 1.462476e-002
2.780849e+003, 1.455466e-002
2.782777e+003, 1.420900e-002
2.784706e+003, 1.420575e-002
2.786634e+003, 1.454692e-002
2.788563e+003, 1.444190e-002
2.790491e+003, 1.446788e-002
2.792420e+003, 1.480181e-002
2.794348e+003, 1.496967e-002
2.796277e+003, 1.446430e-002
2.798205e+003, 1.432885e-002
2.800134e+003, 1.418944e-002
2.802062e+003, 1.470649e-002
2.803990e+003, 1.483035e-002
2.805919e+003, 1.440428e-002
2.807847e+003, 1.424737e-002
2.809776e+003, 1.410673e-002
2.811704e+003, 1.489818e-002
2.813633e+003, 1.517455e-002
2.815561e+003, 1.494259e-002
2.817490e+003, 1.462447e-002
2.819418e+003, 1.457750e-002
2.821347e+003, 1.473370e-002
2.823275e+003, 1.470563e-002
2.825204e+003, 1.428200e-002
2.827132e+003, 1.426268e-002
2.829061e+003, 1.468898e-002
2.830989e+003, 1.474323e-002
2.832917e+003, 1.491089e-002
2.834846e+003, 1.524568e-002
2.836774e+003, 1.508884e-002
2.838703e+003, 1.521093e-002
2.840631e+003, 1.564135e-002
2.842560e+003, 1.621924e-002
2.844488e+003, 1.635987e-002
2.846417e+003, 1.529231e-002
2.848345e+003, 1.485025e-002
2.850274e+003, 1.513782e-002
2.852202e+003, 1.573561e-002
2.854131e+003, 1.555626e-002
2.856059e+003, 1.534910e-002
2.857988e+003, 1.586382e-002
2.859916e+003, 1.638094e-002
2.861844e+003, 1.624107e-002
2.863773e+003, 1.586452e-002
2.865701e+003, 1.595176e-002
2.867630e+003, 1.571700e-002
2.869558e+003, 1.582854e-002
2.871487e+003, 1.664983e-002
2.873415e+003, 1.689193e-002
2.875344e+003, 1.635873e-002
2.877272e+003, 1.634895e-002
2.879201e+003, 1.685195e-002
2.881129e+003, 1.743522e-002
2.883058e+003, 1.736903e-002
2.884986e+003, 1.705019e-002
2.886915e+003, 1.710115e-002
2.888843e+003, 1.756479e-002
2.890771e+003, 1.756675e-002
2.892700e+003, 1.719594e-002
2.894628e+003, 1.678720e-002
2.896557e+003, 1.667175e-002
2.898485e+003, 1.688997e-002
2.900414e+003, 1.670602e-002
2.902342e+003, 1.653497e-002
2.904271e+003, 1.634206e-002
2.906199e+003, 1.711572e-002
2.908128e+003, 1.762833e-002
2.910056e+003, 1.668549e-002
2.911985e+003, 1.548879e-002
2.913913e+003, 1.542408e-002
2.915842e+003, 1.629568e-002
2.917770e+003, 1.688251e-002
2.919698e+003, 1.579676e-002
2.921627e+003, 1.498083e-002
2.923555e+003, 1.546461e-002
2.925484e+003, 1.629533e-002
2.927412e+003, 1.576287e-002
2.929341e+003, 1.561231e-002
2.931269e+003, 1.648852e-002
2.933198e+003, 1.643935e-002
2.935126e+003, 1.594136e-002
2.937055e+003, 1.652597e-002
2.938983e+003, 1.712566e-002
2.940912e+003, 1.655502e-002
2.942840e+003, 1.622689e-002
2.944769e+003, 1.644121e-002
2.946697e+003, 1.691210e-002
2.948625e+003, 1.679998e-002
2.950554e+003, 1.614145e-002
2.952482e+003, 1.622839e-002
2.954411e+003, 1.659694e-002
2.956339e+003, 1.696506e-002
2.958268e+003, 1.661216e-002
2.960196e+003, 1.630411e-002
2.962125e+003, 1.630706e-002
2.964053e+003, 1.718182e-002
2.965982e+003, 1.819924e-002
2.967910e+003, 1.701020e-002
2.969839e+003, 1.683426e-002
2.971767e+003, 1.678194e-002
2.973696e+003, 1.665402e-002
2.975624e+003, 1.693955e-002
2.977552e+003, 1.699831e-002
2.979481e+003, 1.784774e-002
2.981409e+003, 1.784678e-002
2.983338e+003, 1.741821e-002
2.985266e+003, 1.809752e-002
2.987195e+003, 1.885355e-002
2.989123e+003, 1.934753e-002
2.991052e+003, 1.879486e-002
2.992980e+003, 1.837407e-002
2.994909e+003, 1.778435e-002
2.996837e+003, 1.700597e-002
2.998766e+003, 1.796871e-002
3.000694e+003, 1.907907e-002
3.002623e+003, 1.872655e-002
3.004551e+003, 1.907497e-002
3.006479e+003, 1.900049e-002
3.008408e+003, 1.877830e-002
3.010336e+003, 1.859109e-002
3.012265e+003, 1.904114e-002
3.014193e+003, 1.939442e-002
3.016122e+003, 1.907778e-002
3.018050e+003, 1.873204e-002
3.019979e+003, 1.881114e-002
3.021907e+003, 1.841030e-002
3.023836e+003, 1.825559e-002
3.025764e+003, 1.855621e-002
3.027693e+003, 1.881229e-002
3.029621e+003, 1.819398e-002
3.031550e+003, 1.845665e-002
3.033478e+003, 1.945988e-002
3.035406e+003, 1.976540e-002
3.037335e+003, 1.948353e-002
3.039263e+003, 1.973467e-002
3.041192e+003, 1.929883e-002
3.043120e+003, 1.891964e-002
3.045049e+003, 1.874294e-002
3.046977e+003, 1.847836e-002
3.048906e+003, 1.923873e-002
3.050834e+003, 1.934230e-002
3.052763e+003, 1.934484e-002
3.054691e+003, 1.965989e-002
3.056620e+003, 2.010803e-002
3.058548e+003, 2.016854e-002
3.060477e+003, 2.013891e-002
3.062405e+003, 2.010938e-002
3.064333e+003, 1.985362e-002
3.066262e+003, 2.010907e-002
3.068190e+003, 1.996027e-002
3.070119e+003, 2.035164e-002
3.072047e+003, 2.075118e-002
3.073976e+003, 2.109770e-002
3.075904e+003, 2.071850e-002
3.077833e+003, 2.056249e-002
3.079761e+003, 2.123989e-002
3.081690e+003, 2.164203e-002
3.083618e+003, 2.197607e-002
3.085547e+003, 2.231722e-002
3.087475e+003, 2.173425e-002
3.089404e+003, 2.105366e-002
3.091332e+003, 2.145633e-002
3.093260e+003, 2.219550e-002
3.095189e+003, 2.216723e-002
3.097117e+003, 2.133509e-002
3.099046e+003, 2.117545e-002
3.100974e+003, 2.211624e-002
3.102903e+003, 2.194521e-002
3.104831e+003, 2.124847e-002
3.106760e+003, 2.209292e-002
3.108688e+003, 2.359688e-002
3.110617e+003, 2.358398e-002
3.112545e+003, 2.321372e-002
3.114474e+003, 2.369800e-002
3.116402e+003, 2.331227e-002
3.118331e+003, 2.344298e-002
3.120259e+003, 2.382455e-002
3.122188e+003, 2.295328e-002
3.124116e+003, 2.299339e-002
3.126044e+003, 2.312439e-002
3.127973e+003, 2.259195e-002
3.129901e+003, 2.236409e-002
3.131830e+003, 2.277920e-002
3.133758e+003, 2.315096e-002
3.135687e+003, 2.449847e-002
3.137615e+003, 2.518679e-002
3.139544e+003, 2.468364e-002
3.141472e+003, 2.435815e-002
3.143401e+003, 2.397464e-002
3.145329e+003, 2.414797e-002
3.147258e+003, 2.437134e-002
3.149186e+003, 2.471977e-002
3.151115e+003, 2.467652e-002
3.153043e+003, 2.465745e-002
3.154971e+003, 2.476791e-002
3.156900e+003, 2.444458e-002
3.158828e+003, 2.354558e-002
3.160757e+003, 2.390928e-002
3.162685e+003, 2.496021e-002
3.164614e+003, 2.545344e-002
3.166542e+003, 2.513801e-002
3.168471e+003, 2.459933e-002
3.170399e+003, 2.525328e-002
3.172328e+003, 2.534851e-002
3.174256e+003, 2.520818e-002
3.176185e+003, 2.522417e-002
3.178113e+003, 2.471690e-002
3.180042e+003, 2.482958e-002
3.181970e+003, 2.520602e-002
3.183898e+003, 2.438159e-002
3.185827e+003, 2.394551e-002
3.187755e+003, 2.424156e-002
3.189684e+003, 2.567496e-002
3.191612e+003, 2.669399e-002
3.193541e+003, 2.638954e-002
3.195469e+003, 2.601747e-002
3.197398e+003, 2.623838e-002
3.199326e+003, 2.598684e-002
3.201255e+003, 2.592024e-002
3.203183e+003, 2.607402e-002
3.205112e+003, 2.543229e-002
3.207040e+003, 2.520615e-002
3.208969e+003, 2.518224e-002
3.210897e+003, 2.527058e-002
3.212825e+003, 2.593069e-002
3.214754e+003, 2.654936e-002
3.216682e+003, 2.705395e-002
3.218611e+003, 2.712563e-002
3.220539e+003, 2.689482e-002
3.222468e+003, 2.613452e-002
3.224396e+003, 2.517270e-002
3.226325e+003, 2.546724e-002
3.228253e+003, 2.661380e-002
3.230182e+003, 2.708188e-002
3.232110e+003, 2.779391e-002
3.234039e+003, 2.791693e-002
3.235967e+003, 2.710683e-002
3.237896e+003, 2.601509e-002
3.239824e+003, 2.594475e-002
3.241752e+003, 2.656891e-002
3.243681e+003, 2.620997e-002
3.245609e+003, 2.698821e-002
3.247538e+003, 2.707590e-002
3.249466e+003, 2.646285e-002
3.251395e+003, 2.594217e-002
3.253323e+003, 2.627154e-002
3.255252e+003, 2.674217e-002
3.257180e+003, 2.601356e-002
3.259109e+003, 2.550307e-002
3.261037e+003, 2.558268e-002
3.262966e+003, 2.719812e-002
3.264894e+003, 2.717267e-002
3.266823e+003, 2.530959e-002
3.268751e+003, 2.511513e-002
3.270679e+003, 2.616756e-002
3.272608e+003, 2.711052e-002
3.274536e+003, 2.711766e-002
3.276465e+003, 2.631662e-002
3.278393e+003, 2.669728e-002
3.280322e+003, 2.733491e-002
3.282250e+003, 2.632058e-002
3.284179e+003, 2.657989e-002
3.286107e+003, 2.709108e-002
3.288036e+003, 2.740023e-002
3.289964e+003, 2.763430e-002
3.291893e+003, 2.694904e-002
3.293821e+003, 2.583919e-002
3.295750e+003, 2.672697e-002
3.297678e+003, 2.749609e-002
3.299606e+003, 2.748083e-002
3.301535e+003, 2.703954e-002
3.303463e+003, 2.676957e-002
3.305392e+003, 2.765995e-002
3.307320e+003, 2.746092e-002
3.309249e+003, 2.671206e-002
3.311177e+003, 2.688839e-002
3.313106e+003, 2.704846e-002
3.315034e+003, 2.757810e-002
3.316963e+003, 2.791075e-002
3.318891e+003, 2.809692e-002
3.320820e+003, 2.758090e-002
3.322748e+003, 2.700150e-002
3.324677e+003, 2.721427e-002
3.326605e+003, 2.746607e-002
3.328533e+003, 2.851688e-002
3.330462e+003, 2.848618e-002
3.332390e+003, 2.836748e-002
3.334319e+003, 2.865112e-002
3.336247e+003, 2.859578e-002
3.338176e+003, 2.792363e-002
3.340104e+003, 2.769475e-002
3.342033e+003, 2.791655e-002
3.343961e+003, 2.764774e-002
3.345890e+003, 2.757130e-002
3.347818e+003, 2.770854e-002
3.349747e+003, 2.698231e-002
3.351675e+003, 2.701171e-002
3.353604e+003, 2.763478e-002
3.355532e+003, 2.785439e-002
3.357460e+003, 2.797260e-002
3.359389e+003, 2.917606e-002
3.361317e+003, 2.904378e-002
3.363246e+003, 2.786087e-002
3.365174e+003, 2.822467e-002
3.367103e+003, 2.937028e-002
3.369031e+003, 2.896475e-002
3.370960e+003, 2.761313e-002
3.372888e+003, 2.741314e-002
3.374817e+003, 2.835987e-002
3.376745e+003, 2.844702e-002
3.378674e+003, 2.891912e-002
3.380602e+003, 2.940484e-002
3.382531e+003, 2.871723e-002
3.384459e+003, 2.920960e-002
3.386387e+003, 2.930464e-002
3.388316e+003, 3.028964e-002
3.390244e+003, 3.035778e-002
3.392173e+003, 2.942594e-002
3.394101e+003, 2.923474e-002
3.396030e+003, 2.777450e-002
3.397958e+003, 2.731627e-002
3.399887e+003, 2.787280e-002
3.401815e+003, 2.770250e-002
3.403744e+003, 2.773025e-002
3.405672e+003, 2.779810e-002
3.407601e+003, 2.866980e-002
3.409529e+003, 2.917877e-002
3.411458e+003, 2.815230e-002
3.413386e+003, 2.816426e-002
3.415314e+003, 2.861512e-002
3.417243e+003, 2.872735e-002
3.419171e+003, 2.895172e-002
3.421100e+003, 2.978137e-002
3.423028e+003, 2.973240e-002
3.424957e+003, 2.811896e-002
3.426885e+003, 2.630799e-002
3.428814e+003, 2.853932e-002
3.430742e+003, 3.090947e-002
3.432671e+003, 3.014869e-002
3.434599e+003, 2.878365e-002
3.436528e+003, 2.949294e-002
3.438456e+003, 3.102141e-002
3.440385e+003, 3.033914e-002
3.442313e+003, 2.887020e-002
3.444241e+003, 2.756270e-002
3.446170e+003, 2.758680e-002
3.448098e+003, 2.787337e-002
3.450027e+003, 2.869606e-002
3.451955e+003, 2.861049e-002
3.453884e+003, 2.818876e-002
3.455812e+003, 2.840959e-002
3.457741e+003, 2.836654e-002
3.459669e+003, 2.842169e-002
3.461598e+003, 2.856226e-002
3.463526e+003, 2.795466e-002
3.465455e+003, 2.884868e-002
3.467383e+003, 2.966868e-002
3.469312e+003, 3.043287e-002
3.471240e+003, 2.983989e-002
3.473168e+003, 2.933265e-002
3.475097e+003, 2.973853e-002
3.477025e+003, 2.984744e-002
3.478954e+003, 2.868035e-002
3.480882e+003, 2.840444e-002
3.482811e+003, 2.888254e-002
3.484739e+003, 3.010310e-002
3.486668e+003, 3.027263e-002
3.488596e+003, 3.061035e-002
3.490525e+003, 2.959980e-002
3.492453e+003, 2.942434e-002
3.494382e+003, 3.002406e-002
3.496310e+003, 3.057024e-002
3.498239e+003, 3.166980e-002
3.500167e+003, 3.168388e-002
3.502095e+003, 3.013108e-002
3.504024e+003, 2.960000e-002
3.505952e+003, 2.802788e-002
3.507881e+003, 2.823874e-002
3.509809e+003, 3.005098e-002
3.511738e+003, 2.962085e-002
3.513666e+003, 2.832625e-002
3.515595e+003, 2.916624e-002
3.517523e+003, 3.032925e-002
3.519452e+003, 3.101899e-002
3.521380e+003, 2.996993e-002
3.523309e+003, 2.814184e-002
3.525237e+003, 2.875136e-002
3.527166e+003, 3.050365e-002
3.529094e+003, 3.154889e-002
3.531022e+003, 3.081110e-002
3.532951e+003, 3.010697e-002
3.534879e+003, 2.991141e-002
3.536808e+003, 3.011968e-002
3.538736e+003, 2.998089e-002
3.540665e+003, 2.995973e-002
3.542593e+003, 3.011371e-002
3.544522e+003, 3.041397e-002
3.546450e+003, 3.030360e-002
3.548379e+003, 2.854981e-002
3.550307e+003, 2.764427e-002
3.552236e+003, 2.870550e-002
3.554164e+003, 2.922754e-002
3.556093e+003, 2.864312e-002
3.558021e+003, 2.868569e-002
3.559949e+003, 3.082071e-002
3.561878e+003, 3.080442e-002
3.563806e+003, 2.936900e-002
3.565735e+003, 2.946899e-002
3.567663e+003, 2.936980e-002
3.569592e+003, 2.809103e-002
3.571520e+003, 2.785076e-002
3.573449e+003, 2.863647e-002
3.575377e+003, 2.770805e-002
3.577306e+003, 2.696775e-002
3.579234e+003, 2.789020e-002
3.581163e+003, 2.882789e-002
3.583091e+003, 2.965745e-002
3.585020e+003, 2.994827e-002
3.586948e+003, 3.029327e-002
3.588876e+003, 2.933910e-002
3.590805e+003, 2.949815e-002
3.592733e+003, 3.026507e-002
3.594662e+003, 3.121626e-002
3.596590e+003, 3.108873e-002
3.598519e+003, 3.139166e-002
3.600447e+003, 3.162342e-002
3.602376e+003, 3.113794e-002
3.604304e+003, 3.020273e-002
3.606233e+003, 2.977460e-002
3.608161e+003, 2.930010e-002
3.610090e+003, 2.867296e-002
3.612018e+003, 2.761744e-002
3.613947e+003, 2.866673e-002
3.615875e+003, 2.973288e-002
3.617803e+003, 2.979904e-002
3.619732e+003, 2.907544e-002
3.621660e+003, 2.765580e-002
3.623589e+003, 2.720352e-002
3.625517e+003, 2.786734e-002
3.627446e+003, 2.827604e-002
3.629374e+003, 2.854088e-002
3.631303e+003, 2.865851e-002
3.633231e+003, 2.870872e-002
3.635160e+003, 2.809837e-002
3.637088e+003, 2.878826e-002
3.639017e+003, 2.808713e-002
3.640945e+003, 2.781499e-002
3.642874e+003, 2.873189e-002
3.644802e+003, 2.900872e-002
3.646730e+003, 2.790288e-002
3.648659e+003, 2.846474e-002
3.650587e+003, 2.841876e-002
3.652516e+003, 2.692713e-002
3.654444e+003, 2.716312e-002
3.656373e+003, 2.809309e-002
3.658301e+003, 3.062698e-002
3.660230e+003, 2.972989e-002
3.662158e+003, 2.764867e-002
3.664087e+003, 2.800809e-002
3.666015e+003, 2.796971e-002
3.667944e+003, 2.795995e-002
3.669872e+003, 2.979741e-002
3.671801e+003, 2.993203e-002
3.673729e+003, 2.797302e-002
3.675657e+003, 2.818226e-002
3.677586e+003, 2.928615e-002
3.679514e+003, 3.097905e-002
3.681443e+003, 3.110605e-002
3.683371e+003, 2.907602e-002
3.685300e+003, 2.916060e-002
3.687228e+003, 2.905596e-002
3.689157e+003, 2.899639e-002
3.691085e+003, 2.752811e-002
3.693014e+003, 2.705616e-002
3.694942e+003, 2.834233e-002
3.696871e+003, 3.001223e-002
3.698799e+003, 2.967236e-002
3.700728e+003, 2.989249e-002
3.702656e+003, 3.034377e-002
3.704584e+003, 2.960841e-002
3.706513e+003, 2.973073e-002
3.708441e+003, 2.827460e-002
3.710370e+003, 2.954132e-002
3.712298e+003, 3.118321e-002
3.714227e+003, 3.043300e-002
3.716155e+003, 3.016339e-002
3.718084e+003, 2.979744e-002
3.720012e+003, 2.852659e-002
3.721941e+003, 2.980976e-002
3.723869e+003, 3.203128e-002
3.725798e+003, 3.147213e-002
3.727726e+003, 3.102165e-002
3.729655e+003, 2.992448e-002
3.731583e+003, 3.069406e-002
3.733511e+003, 3.235209e-002
3.735440e+003, 3.205460e-002
3.737368e+003, 3.137807e-002
3.739297e+003, 3.185859e-002
3.741225e+003, 3.150982e-002
3.743154e+003, 2.994350e-002
3.745082e+003, 3.066391e-002
3.747011e+003, 3.164475e-002
3.748939e+003, 3.112838e-002
3.750868e+003, 3.047160e-002
3.752796e+003, 3.136417e-002
3.754725e+003, 3.038944e-002
3.756653e+003, 2.896565e-002
3.758582e+003, 3.044664e-002
3.760510e+003, 3.024596e-002
3.762438e+003, 2.854046e-002
3.764367e+003, 2.948493e-002
3.766295e+003, 3.085050e-002
3.768224e+003, 3.107922e-002
3.770152e+003, 3.160025e-002
3.772081e+003, 3.092831e-002
3.774009e+003, 3.005556e-002
3.775938e+003, 3.102727e-002
3.777866e+003, 3.227278e-002
3.779795e+003, 3.241421e-002
3.781723e+003, 3.009281e-002
3.783652e+003, 2.906291e-002
3.785580e+003, 3.205011e-002
3.787509e+003, 3.320464e-002
3.789437e+003, 3.229992e-002
3.791365e+003, 3.124262e-002
3.793294e+003, 3.231597e-002
3.795222e+003, 3.287567e-002
3.797151e+003, 3.389532e-002
3.799079e+003, 3.383073e-002
3.801008e+003, 3.066940e-002
3.802936e+003, 3.114976e-002
3.804865e+003, 3.260081e-002
3.806793e+003, 3.358717e-002
3.808722e+003, 3.327494e-002
3.810650e+003, 3.201454e-002
3.812579e+003, 3.163313e-002
3.814507e+003, 3.185778e-002
3.816436e+003, 3.252425e-002
3.818364e+003, 3.158895e-002
3.820292e+003, 3.253892e-002
3.822221e+003, 3.318974e-002
3.824149e+003, 3.259662e-002
3.826078e+003, 3.224898e-002
3.828006e+003, 3.222339e-002
3.829935e+003, 3.122746e-002
3.831863e+003, 3.095838e-002
3.833792e+003, 3.196879e-002
3.835720e+003, 3.188608e-002
3.837649e+003, 3.066064e-002
3.839577e+003, 2.993954e-002
3.841506e+003, 3.074955e-002
3.843434e+003, 3.166746e-002
3.845363e+003, 3.181121e-002
3.847291e+003, 3.206506e-002
3.849219e+003, 3.237474e-002
3.851148e+003, 3.234420e-002
3.853076e+003, 3.166783e-002
3.855005e+003, 3.063276e-002
3.856933e+003, 3.150550e-002
3.858862e+003, 3.188583e-002
3.860790e+003, 3.244771e-002
3.862719e+003, 3.199003e-002
3.864647e+003, 3.197195e-002
3.866576e+003, 3.233926e-002
3.868504e+003, 3.096435e-002
3.870433e+003, 3.249835e-002
3.872361e+003, 3.279402e-002
3.874290e+003, 3.388252e-002
3.876218e+003, 3.381615e-002
3.878146e+003, 3.281897e-002
3.880075e+003, 3.142267e-002
3.882003e+003, 3.247569e-002
3.883932e+003, 3.388639e-002
3.885860e+003, 3.388614e-002
3.887789e+003, 3.526251e-002
3.889717e+003, 3.549381e-002
3.891646e+003, 3.459089e-002
3.893574e+003, 3.357276e-002
3.895503e+003, 3.410388e-002
3.897431e+003, 3.508759e-002
3.899360e+003, 3.390381e-002
3.901288e+003, 3.286918e-002
3.903217e+003, 3.470159e-002
3.905145e+003, 3.470706e-002
3.907073e+003, 3.253864e-002
3.909002e+003, 3.351869e-002
3.910930e+003, 3.509803e-002
3.912859e+003, 3.441602e-002
3.914787e+003, 3.410402e-002
3.916716e+003, 3.411155e-002
3.918644e+003, 3.435532e-002
3.920573e+003, 3.419209e-002
3.922501e+003, 3.235878e-002
3.924430e+003, 3.272328e-002
3.926358e+003, 3.265379e-002
3.928287e+003, 3.126919e-002
3.930215e+003, 3.183505e-002
3.932144e+003, 3.277638e-002
3.934072e+003, 3.268995e-002
3.936000e+003, 3.319727e-002
3.937929e+003, 3.486818e-002
3.939857e+003, 3.497363e-002
3.941786e+003, 3.577074e-002
3.943714e+003, 3.580370e-002
3.945643e+003, 3.447247e-002
3.947571e+003, 3.444612e-002
3.949500e+003, 3.339538e-002
3.951428e+003, 3.306875e-002
3.953357e+003, 3.423024e-002
3.955285e+003, 3.441676e-002
3.957214e+003, 3.385013e-002
3.959142e+003, 3.173972e-002
3.961071e+003, 3.086837e-002
3.962999e+003, 3.296781e-002
3.964927e+003, 3.385084e-002
3.966856e+003, 3.290991e-002
3.968784e+003, 3.281569e-002
3.970713e+003, 3.358304e-002
3.972641e+003, 3.384289e-002
3.974570e+003, 3.276356e-002
3.976498e+003, 3.193834e-002
3.978427e+003, 3.245038e-002
3.980355e+003, 3.334926e-002
3.982284e+003, 3.375393e-002
3.984212e+003, 3.492052e-002
3.986141e+003, 3.535585e-002
3.988069e+003, 3.468190e-002
3.989998e+003, 3.414255e-002
3.991926e+003, 3.413139e-002
3.993854e+003, 3.348009e-002
3.995783e+003, 3.271862e-002
3.997711e+003, 3.253404e-002
3.999640e+003, 3.254851e-002
##END=



