##NAMES=Siegenite
##RRUFFID=R050092
##IDEAL CHEMISTRY=Co^2+^Ni^3+^_2_S^2-^_4_
##LOCALITY=Bunker Hill mine, Jasper County, Missouri, USA (note that some people think this may be incorrect)
##OWNER=RRUFF
##SOURCE=Rock Currier
##DESCRIPTION=Silver metallic octahedra coating chalcopyrite
##STATUS=The identification of this mineral has been confirmed only by X-ray diffraction
##URL=rruff.info/R050092
3.991926e+002, 0.000000e+000
4.011211e+002, 2.277309e-001
4.030496e+002, 2.288930e-001
4.049780e+002, 2.261240e-001
4.069065e+002, 2.262858e-001
4.088350e+002, 2.334279e-001
4.107634e+002, 2.393685e-001
4.126919e+002, 2.388555e-001
4.146204e+002, 2.372068e-001
4.165488e+002, 2.412031e-001
4.184773e+002, 2.440662e-001
4.204058e+002, 2.432928e-001
4.223342e+002, 2.451557e-001
4.242627e+002, 2.452638e-001
4.261912e+002, 2.413703e-001
4.281196e+002, 2.402489e-001
4.300481e+002, 2.433760e-001
4.319766e+002, 2.435810e-001
4.339050e+002, 2.432960e-001
4.358335e+002, 2.456347e-001
4.377620e+002, 2.471825e-001
4.396904e+002, 2.468784e-001
4.416189e+002, 2.475560e-001
4.435474e+002, 2.493831e-001
4.454758e+002, 2.495454e-001
4.474043e+002, 2.474518e-001
4.493328e+002, 2.474801e-001
4.512612e+002, 2.499048e-001
4.531897e+002, 2.525091e-001
4.551182e+002, 2.530083e-001
4.570466e+002, 2.521571e-001
4.589751e+002, 2.518079e-001
4.609036e+002, 2.529124e-001
4.628320e+002, 2.555182e-001
4.647605e+002, 2.579841e-001
4.666890e+002, 2.580847e-001
4.686174e+002, 2.569918e-001
4.705459e+002, 2.572921e-001
4.724744e+002, 2.575888e-001
4.744028e+002, 2.571633e-001
4.763313e+002, 2.584606e-001
4.782598e+002, 2.596155e-001
4.801882e+002, 2.591454e-001
4.821167e+002, 2.581211e-001
4.840452e+002, 2.588281e-001
4.859736e+002, 2.612815e-001
4.879021e+002, 2.612571e-001
4.898306e+002, 2.612330e-001
4.917590e+002, 2.621988e-001
4.936875e+002, 2.640652e-001
4.956160e+002, 2.649657e-001
4.975444e+002, 2.654423e-001
4.994729e+002, 2.663429e-001
5.014014e+002, 2.664618e-001
5.033298e+002, 2.663065e-001
5.052583e+002, 2.667187e-001
5.071868e+002, 2.671941e-001
5.091152e+002, 2.677502e-001
5.110437e+002, 2.686744e-001
5.129722e+002, 2.690957e-001
5.149006e+002, 2.690746e-001
5.168291e+002, 2.700084e-001
5.187576e+002, 2.708572e-001
5.206860e+002, 2.706433e-001
5.226145e+002, 2.709148e-001
5.245430e+002, 2.708005e-001
5.264714e+002, 2.707297e-001
5.283999e+002, 2.721468e-001
5.303284e+002, 2.729996e-001
5.322568e+002, 2.729123e-001
5.341853e+002, 2.733997e-001
5.361138e+002, 2.729066e-001
5.380422e+002, 2.728297e-001
5.399707e+002, 2.739981e-001
5.418992e+002, 2.753101e-001
5.438276e+002, 2.756233e-001
5.457561e+002, 2.761793e-001
5.476846e+002, 2.768484e-001
5.496130e+002, 2.770761e-001
5.515415e+002, 2.774554e-001
5.534700e+002, 2.771828e-001
5.553984e+002, 2.782724e-001
5.573269e+002, 2.790937e-001
5.592554e+002, 2.787880e-001
5.611838e+002, 2.786166e-001
5.631123e+002, 2.799834e-001
5.650408e+002, 2.811601e-001
5.669692e+002, 2.810049e-001
5.688977e+002, 2.802545e-001
5.708262e+002, 2.795855e-001
5.727546e+002, 2.805051e-001
5.746831e+002, 2.812193e-001
5.766116e+002, 2.808019e-001
5.785400e+002, 2.811944e-001
5.804685e+002, 2.820124e-001
5.823970e+002, 2.831892e-001
5.843254e+002, 2.834705e-001
5.862539e+002, 2.833099e-001
5.881824e+002, 2.838306e-001
5.901108e+002, 2.844974e-001
5.920393e+002, 2.848628e-001
5.939678e+002, 2.847735e-001
5.958962e+002, 2.852609e-001
5.978247e+002, 2.860168e-001
5.997532e+002, 2.863303e-001
6.016816e+002, 2.855269e-001
6.036101e+002, 2.858272e-001
6.055386e+002, 2.869011e-001
6.074670e+002, 2.876156e-001
6.093955e+002, 2.874798e-001
6.113240e+002, 2.876774e-001
6.132524e+002, 2.876445e-001
6.151809e+002, 2.876714e-001
6.171094e+002, 2.880599e-001
6.190378e+002, 2.885934e-001
6.209663e+002, 2.885143e-001
6.228948e+002, 2.883798e-001
6.248232e+002, 2.881232e-001
6.267517e+002, 2.880996e-001
6.286802e+002, 2.880876e-001
6.306086e+002, 2.879002e-001
6.325371e+002, 2.877416e-001
6.344656e+002, 2.881620e-001
6.363940e+002, 2.882961e-001
6.383225e+002, 2.885664e-001
6.402510e+002, 2.883636e-001
6.421794e+002, 2.882018e-001
6.441079e+002, 2.886280e-001
6.460364e+002, 2.892065e-001
6.479648e+002, 2.897731e-001
6.498933e+002, 2.897485e-001
6.518218e+002, 2.897533e-001
6.537502e+002, 2.897277e-001
6.556787e+002, 2.899501e-001
6.576072e+002, 2.904455e-001
6.595356e+002, 2.908668e-001
6.614641e+002, 2.909216e-001
6.633926e+002, 2.912842e-001
6.653210e+002, 2.914100e-001
6.672495e+002, 2.917065e-001
6.691780e+002, 2.916649e-001
6.711064e+002, 2.916513e-001
6.730349e+002, 2.921629e-001
6.749634e+002, 2.920399e-001
6.768918e+002, 2.920171e-001
6.788203e+002, 2.923953e-001
6.807488e+002, 2.928959e-001
6.826772e+002, 2.933154e-001
6.846057e+002, 2.933837e-001
6.865342e+002, 2.932952e-001
6.884626e+002, 2.937689e-001
6.903911e+002, 2.941895e-001
6.923196e+002, 2.944925e-001
6.942480e+002, 2.951410e-001
6.961765e+002, 2.951740e-001
6.981050e+002, 2.950664e-001
7.000334e+002, 2.955512e-001
7.019619e+002, 2.958555e-001
7.038904e+002, 2.958408e-001
7.058188e+002, 2.959025e-001
7.077473e+002, 2.963191e-001
7.096758e+002, 2.969659e-001
7.116042e+002, 2.971373e-001
7.135327e+002, 2.974758e-001
7.154612e+002, 2.985002e-001
7.173896e+002, 2.991662e-001
7.193181e+002, 2.993940e-001
7.212466e+002, 2.994047e-001
7.231750e+002, 2.995267e-001
7.251035e+002, 2.997290e-001
7.270320e+002, 3.003391e-001
7.289604e+002, 3.008396e-001
7.308889e+002, 3.007948e-001
7.328174e+002, 3.006482e-001
7.347458e+002, 3.010758e-001
7.366743e+002, 3.016019e-001
7.386028e+002, 3.021341e-001
7.405313e+002, 3.025997e-001
7.424597e+002, 3.029440e-001
7.443882e+002, 3.033325e-001
7.463167e+002, 3.039743e-001
7.482451e+002, 3.045276e-001
7.501736e+002, 3.047999e-001
7.521021e+002, 3.049414e-001
7.540305e+002, 3.052917e-001
7.559590e+002, 3.057351e-001
7.578875e+002, 3.057953e-001
7.598159e+002, 3.062433e-001
7.617444e+002, 3.067967e-001
7.636729e+002, 3.068239e-001
7.656013e+002, 3.072354e-001
7.675298e+002, 3.074015e-001
7.694583e+002, 3.075583e-001
7.713867e+002, 3.077988e-001
7.733152e+002, 3.080504e-001
7.752437e+002, 3.083151e-001
7.771721e+002, 3.089682e-001
7.791006e+002, 3.097573e-001
7.810291e+002, 3.098795e-001
7.829575e+002, 3.099537e-001
7.848860e+002, 3.102406e-001
7.868145e+002, 3.107312e-001
7.887429e+002, 3.111795e-001
7.906714e+002, 3.114508e-001
7.925999e+002, 3.117968e-001
7.945283e+002, 3.121991e-001
7.964568e+002, 3.123132e-001
7.983853e+002, 3.123793e-001
8.003137e+002, 3.127050e-001
8.022422e+002, 3.135437e-001
8.041707e+002, 3.140853e-001
8.060991e+002, 3.140341e-001
8.080276e+002, 3.143205e-001
8.099561e+002, 3.146392e-001
8.118845e+002, 3.149867e-001
8.138130e+002, 3.151891e-001
8.157415e+002, 3.153802e-001
8.176699e+002, 3.157085e-001
8.195984e+002, 3.161231e-001
8.215269e+002, 3.168371e-001
8.234553e+002, 3.174101e-001
8.253838e+002, 3.176696e-001
8.273123e+002, 3.178288e-001
8.292407e+002, 3.180038e-001
8.311692e+002, 3.182681e-001
8.330977e+002, 3.187688e-001
8.350261e+002, 3.193568e-001
8.369546e+002, 3.198526e-001
8.388831e+002, 3.200571e-001
8.408115e+002, 3.201117e-001
8.427400e+002, 3.202429e-001
8.446685e+002, 3.201661e-001
8.465969e+002, 3.205846e-001
8.485254e+002, 3.211699e-001
8.504539e+002, 3.212681e-001
8.523823e+002, 3.212387e-001
8.543108e+002, 3.214360e-001
8.562393e+002, 3.221128e-001
8.581677e+002, 3.226736e-001
8.600962e+002, 3.230813e-001
8.620247e+002, 3.232570e-001
8.639531e+002, 3.235698e-001
8.658816e+002, 3.237600e-001
8.678101e+002, 3.239093e-001
8.697385e+002, 3.241733e-001
8.716670e+002, 3.246882e-001
8.735955e+002, 3.254174e-001
8.755239e+002, 3.256770e-001
8.774524e+002, 3.256015e-001
8.793809e+002, 3.260466e-001
8.813093e+002, 3.266361e-001
8.832378e+002, 3.270316e-001
8.851663e+002, 3.274787e-001
8.870947e+002, 3.275945e-001
8.890232e+002, 3.277028e-001
8.909517e+002, 3.281483e-001
8.928801e+002, 3.285422e-001
8.948085e+002, 3.287928e-001
8.967370e+002, 3.289343e-001
8.986655e+002, 3.294908e-001
9.005939e+002, 3.300228e-001
9.025224e+002, 3.303415e-001
9.044509e+002, 3.308347e-001
9.063793e+002, 3.312465e-001
9.083078e+002, 3.315726e-001
9.102363e+002, 3.319567e-001
9.121647e+002, 3.320801e-001
9.140932e+002, 3.322493e-001
9.160217e+002, 3.326863e-001
9.179501e+002, 3.333114e-001
9.198786e+002, 3.336548e-001
9.218071e+002, 3.339733e-001
9.237355e+002, 3.343830e-001
9.256640e+002, 3.350064e-001
9.275925e+002, 3.353145e-001
9.295209e+002, 3.352894e-001
9.314494e+002, 3.355659e-001
9.333779e+002, 3.363301e-001
9.353063e+002, 3.368159e-001
9.372348e+002, 3.369064e-001
9.391633e+002, 3.373778e-001
9.410917e+002, 3.377647e-001
9.430202e+002, 3.377461e-001
9.449487e+002, 3.382942e-001
9.468771e+002, 3.391846e-001
9.488056e+002, 3.394870e-001
9.507341e+002, 3.396029e-001
9.526625e+002, 3.399734e-001
9.545910e+002, 3.404704e-001
9.565195e+002, 3.408964e-001
9.584479e+002, 3.414843e-001
9.603764e+002, 3.419404e-001
9.623049e+002, 3.422529e-001
9.642333e+002, 3.426242e-001
9.661618e+002, 3.430228e-001
9.680903e+002, 3.433625e-001
9.700187e+002, 3.439172e-001
9.719472e+002, 3.443421e-001
9.738757e+002, 3.447568e-001
9.758041e+002, 3.455486e-001
9.777326e+002, 3.459960e-001
9.796611e+002, 3.461469e-001
9.815895e+002, 3.464234e-001
9.835180e+002, 3.464034e-001
9.854465e+002, 3.463989e-001
9.873749e+002, 3.468917e-001
9.893034e+002, 3.474465e-001
9.912319e+002, 3.481886e-001
9.931603e+002, 3.486523e-001
9.950888e+002, 3.486780e-001
9.970173e+002, 3.487930e-001
9.989457e+002, 3.489490e-001
1.000874e+003, 3.490604e-001
1.002803e+003, 3.490532e-001
1.004731e+003, 3.493663e-001
1.006660e+003, 3.495991e-001
1.008588e+003, 3.497136e-001
1.010517e+003, 3.497700e-001
1.012445e+003, 3.495916e-001
1.014373e+003, 3.497134e-001
1.016302e+003, 3.504697e-001
1.018230e+003, 3.508823e-001
1.020159e+003, 3.509804e-001
1.022087e+003, 3.510222e-001
1.024016e+003, 3.513046e-001
1.025944e+003, 3.517569e-001
1.027873e+003, 3.524449e-001
1.029801e+003, 3.528654e-001
1.031730e+003, 3.530422e-001
1.033658e+003, 3.529961e-001
1.035587e+003, 3.530765e-001
1.037515e+003, 3.535796e-001
1.039444e+003, 3.540585e-001
1.041372e+003, 3.542489e-001
1.043301e+003, 3.543755e-001
1.045229e+003, 3.545597e-001
1.047157e+003, 3.549679e-001
1.049086e+003, 3.551740e-001
1.051014e+003, 3.553239e-001
1.052943e+003, 3.556415e-001
1.054871e+003, 3.563625e-001
1.056800e+003, 3.566697e-001
1.058728e+003, 3.566319e-001
1.060657e+003, 3.568896e-001
1.062585e+003, 3.569801e-001
1.064514e+003, 3.572457e-001
1.066442e+003, 3.576579e-001
1.068371e+003, 3.579485e-001
1.070299e+003, 3.579637e-001
1.072228e+003, 3.578203e-001
1.074156e+003, 3.580859e-001
1.076084e+003, 3.582887e-001
1.078013e+003, 3.585204e-001
1.079941e+003, 3.585716e-001
1.081870e+003, 3.582693e-001
1.083798e+003, 3.579330e-001
1.085727e+003, 3.576336e-001
1.087655e+003, 3.574368e-001
1.089584e+003, 3.573316e-001
1.091512e+003, 3.572414e-001
1.093441e+003, 3.570656e-001
1.095369e+003, 3.569500e-001
1.097298e+003, 3.569959e-001
1.099226e+003, 3.566450e-001
1.101155e+003, 3.563519e-001
1.103083e+003, 3.561570e-001
1.105011e+003, 3.558930e-001
1.106940e+003, 3.557116e-001
1.108868e+003, 3.557999e-001
1.110797e+003, 3.556257e-001
1.112725e+003, 3.551303e-001
1.114654e+003, 3.548999e-001
1.116582e+003, 3.545949e-001
1.118511e+003, 3.540489e-001
1.120439e+003, 3.535622e-001
1.122368e+003, 3.534025e-001
1.124296e+003, 3.532060e-001
1.126225e+003, 3.526597e-001
1.128153e+003, 3.523071e-001
1.130082e+003, 3.521762e-001
1.132010e+003, 3.520354e-001
1.133938e+003, 3.517852e-001
1.135867e+003, 3.517892e-001
1.137795e+003, 3.517641e-001
1.139724e+003, 3.518010e-001
1.141652e+003, 3.518555e-001
1.143581e+003, 3.520291e-001
1.145509e+003, 3.517524e-001
1.147438e+003, 3.515011e-001
1.149366e+003, 3.516322e-001
1.151295e+003, 3.513783e-001
1.153223e+003, 3.511376e-001
1.155152e+003, 3.512871e-001
1.157080e+003, 3.511952e-001
1.159009e+003, 3.510832e-001
1.160937e+003, 3.510231e-001
1.162865e+003, 3.511632e-001
1.164794e+003, 3.511904e-001
1.166722e+003, 3.511307e-001
1.168651e+003, 3.513017e-001
1.170579e+003, 3.515056e-001
1.172508e+003, 3.515387e-001
1.174436e+003, 3.516841e-001
1.176365e+003, 3.517272e-001
1.178293e+003, 3.517700e-001
1.180222e+003, 3.522192e-001
1.182150e+003, 3.524567e-001
1.184079e+003, 3.523551e-001
1.186007e+003, 3.521540e-001
1.187936e+003, 3.523827e-001
1.189864e+003, 3.528517e-001
1.191792e+003, 3.531985e-001
1.193721e+003, 3.532530e-001
1.195649e+003, 3.532207e-001
1.197578e+003, 3.532716e-001
1.199506e+003, 3.534330e-001
1.201435e+003, 3.532959e-001
1.203363e+003, 3.534354e-001
1.205292e+003, 3.534460e-001
1.207220e+003, 3.533101e-001
1.209149e+003, 3.532370e-001
1.211077e+003, 3.530370e-001
1.213006e+003, 3.532021e-001
1.214934e+003, 3.532157e-001
1.216863e+003, 3.531699e-001
1.218791e+003, 3.533207e-001
1.220719e+003, 3.533115e-001
1.222648e+003, 3.533624e-001
1.224576e+003, 3.535687e-001
1.226505e+003, 3.537934e-001
1.228433e+003, 3.541079e-001
1.230362e+003, 3.543799e-001
1.232290e+003, 3.545455e-001
1.234219e+003, 3.550289e-001
1.236147e+003, 3.555101e-001
1.238076e+003, 3.557393e-001
1.240004e+003, 3.560602e-001
1.241933e+003, 3.564195e-001
1.243861e+003, 3.567580e-001
1.245790e+003, 3.571534e-001
1.247718e+003, 3.574311e-001
1.249646e+003, 3.579470e-001
1.251575e+003, 3.584085e-001
1.253503e+003, 3.587204e-001
1.255432e+003, 3.589543e-001
1.257360e+003, 3.594626e-001
1.259289e+003, 3.598655e-001
1.261217e+003, 3.601306e-001
1.263146e+003, 3.603794e-001
1.265074e+003, 3.604802e-001
1.267003e+003, 3.607639e-001
1.268931e+003, 3.614152e-001
1.270860e+003, 3.618944e-001
1.272788e+003, 3.621329e-001
1.274717e+003, 3.625361e-001
1.276645e+003, 3.629126e-001
1.278573e+003, 3.631554e-001
1.280502e+003, 3.634673e-001
1.282430e+003, 3.637779e-001
1.284359e+003, 3.640320e-001
1.286287e+003, 3.644873e-001
1.288216e+003, 3.650794e-001
1.290144e+003, 3.653637e-001
1.292073e+003, 3.658726e-001
1.294001e+003, 3.661456e-001
1.295930e+003, 3.661017e-001
1.297858e+003, 3.664715e-001
1.299787e+003, 3.671782e-001
1.301715e+003, 3.673536e-001
1.303644e+003, 3.674528e-001
1.305572e+003, 3.679193e-001
1.307500e+003, 3.683055e-001
1.309429e+003, 3.686406e-001
1.311357e+003, 3.689850e-001
1.313286e+003, 3.692579e-001
1.315214e+003, 3.692367e-001
1.317143e+003, 3.693660e-001
1.319071e+003, 3.698981e-001
1.321000e+003, 3.702915e-001
1.322928e+003, 3.703645e-001
1.324857e+003, 3.703068e-001
1.326785e+003, 3.706895e-001
1.328714e+003, 3.710776e-001
1.330642e+003, 3.711947e-001
1.332571e+003, 3.715659e-001
1.334499e+003, 3.721617e-001
1.336427e+003, 3.724736e-001
1.338356e+003, 3.727148e-001
1.340284e+003, 3.729059e-001
1.342213e+003, 3.732029e-001
1.344141e+003, 3.736276e-001
1.346070e+003, 3.738336e-001
1.347998e+003, 3.739173e-001
1.349927e+003, 3.740721e-001
1.351855e+003, 3.744189e-001
1.353784e+003, 3.748879e-001
1.355712e+003, 3.753425e-001
1.357641e+003, 3.755622e-001
1.359569e+003, 3.757087e-001
1.361498e+003, 3.760239e-001
1.363426e+003, 3.760181e-001
1.365354e+003, 3.762966e-001
1.367283e+003, 3.767812e-001
1.369211e+003, 3.771765e-001
1.371140e+003, 3.774155e-001
1.373068e+003, 3.773906e-001
1.374997e+003, 3.774184e-001
1.376925e+003, 3.778630e-001
1.378854e+003, 3.781825e-001
1.380782e+003, 3.785232e-001
1.382711e+003, 3.789305e-001
1.384639e+003, 3.791260e-001
1.386568e+003, 3.789854e-001
1.388496e+003, 3.789233e-001
1.390424e+003, 3.791972e-001
1.392353e+003, 3.794271e-001
1.394281e+003, 3.795151e-001
1.396210e+003, 3.796879e-001
1.398138e+003, 3.801803e-001
1.400067e+003, 3.805730e-001
1.401995e+003, 3.810406e-001
1.403924e+003, 3.814253e-001
1.405852e+003, 3.815643e-001
1.407781e+003, 3.817195e-001
1.409709e+003, 3.818070e-001
1.411638e+003, 3.820448e-001
1.413566e+003, 3.825234e-001
1.415495e+003, 3.828743e-001
1.417423e+003, 3.827259e-001
1.419351e+003, 3.826271e-001
1.421280e+003, 3.828432e-001
1.423208e+003, 3.829791e-001
1.425137e+003, 3.831982e-001
1.427065e+003, 3.834007e-001
1.428994e+003, 3.835008e-001
1.430922e+003, 3.836057e-001
1.432851e+003, 3.838081e-001
1.434779e+003, 3.843141e-001
1.436708e+003, 3.845432e-001
1.438636e+003, 3.846115e-001
1.440565e+003, 3.847011e-001
1.442493e+003, 3.850220e-001
1.444422e+003, 3.852014e-001
1.446350e+003, 3.852702e-001
1.448278e+003, 3.857328e-001
1.450207e+003, 3.860417e-001
1.452135e+003, 3.859325e-001
1.454064e+003, 3.861091e-001
1.455992e+003, 3.863262e-001
1.457921e+003, 3.861861e-001
1.459849e+003, 3.866433e-001
1.461778e+003, 3.868026e-001
1.463706e+003, 3.869060e-001
1.465635e+003, 3.869246e-001
1.467563e+003, 3.871903e-001
1.469492e+003, 3.874470e-001
1.471420e+003, 3.875754e-001
1.473349e+003, 3.874571e-001
1.475277e+003, 3.878391e-001
1.477205e+003, 3.882282e-001
1.479134e+003, 3.888478e-001
1.481062e+003, 3.890481e-001
1.482991e+003, 3.892424e-001
1.484919e+003, 3.895776e-001
1.486848e+003, 3.899672e-001
1.488776e+003, 3.900926e-001
1.490705e+003, 3.901548e-001
1.492633e+003, 3.906749e-001
1.494562e+003, 3.912271e-001
1.496490e+003, 3.912992e-001
1.498419e+003, 3.913325e-001
1.500347e+003, 3.914032e-001
1.502276e+003, 3.915625e-001
1.504204e+003, 3.921489e-001
1.506132e+003, 3.923994e-001
1.508061e+003, 3.922489e-001
1.509989e+003, 3.926091e-001
1.511918e+003, 3.932017e-001
1.513846e+003, 3.935532e-001
1.515775e+003, 3.934737e-001
1.517703e+003, 3.933076e-001
1.519632e+003, 3.938832e-001
1.521560e+003, 3.941492e-001
1.523489e+003, 3.945577e-001
1.525417e+003, 3.948735e-001
1.527346e+003, 3.950101e-001
1.529274e+003, 3.949327e-001
1.531203e+003, 3.952982e-001
1.533131e+003, 3.954540e-001
1.535059e+003, 3.951970e-001
1.536988e+003, 3.955146e-001
1.538916e+003, 3.956970e-001
1.540845e+003, 3.954935e-001
1.542773e+003, 3.956831e-001
1.544702e+003, 3.963626e-001
1.546630e+003, 3.968566e-001
1.548559e+003, 3.971350e-001
1.550487e+003, 3.969672e-001
1.552416e+003, 3.969715e-001
1.554344e+003, 3.970688e-001
1.556273e+003, 3.976096e-001
1.558201e+003, 3.976277e-001
1.560130e+003, 3.976121e-001
1.562058e+003, 3.981352e-001
1.563986e+003, 3.984129e-001
1.565915e+003, 3.987822e-001
1.567843e+003, 3.992299e-001
1.569772e+003, 3.989329e-001
1.571700e+003, 3.989929e-001
1.573629e+003, 3.991576e-001
1.575557e+003, 3.992247e-001
1.577486e+003, 3.992012e-001
1.579414e+003, 3.996838e-001
1.581343e+003, 3.996465e-001
1.583271e+003, 3.996300e-001
1.585200e+003, 3.997410e-001
1.587128e+003, 4.000753e-001
1.589057e+003, 4.003063e-001
1.590985e+003, 4.003347e-001
1.592913e+003, 4.001581e-001
1.594842e+003, 4.005761e-001
1.596770e+003, 4.011458e-001
1.598699e+003, 4.015575e-001
1.600627e+003, 4.017048e-001
1.602556e+003, 4.015245e-001
1.604484e+003, 4.017483e-001
1.606413e+003, 4.018196e-001
1.608341e+003, 4.018120e-001
1.610270e+003, 4.021332e-001
1.612198e+003, 4.023062e-001
1.614127e+003, 4.026734e-001
1.616055e+003, 4.029237e-001
1.617984e+003, 4.025169e-001
1.619912e+003, 4.027784e-001
1.621840e+003, 4.030553e-001
1.623769e+003, 4.032088e-001
1.625697e+003, 4.036274e-001
1.627626e+003, 4.039125e-001
1.629554e+003, 4.038028e-001
1.631483e+003, 4.037321e-001
1.633411e+003, 4.040941e-001
1.635340e+003, 4.042155e-001
1.637268e+003, 4.038523e-001
1.639197e+003, 4.038792e-001
1.641125e+003, 4.041474e-001
1.643054e+003, 4.041982e-001
1.644982e+003, 4.040165e-001
1.646911e+003, 4.036533e-001
1.648839e+003, 4.036598e-001
1.650767e+003, 4.037816e-001
1.652696e+003, 4.038529e-001
1.654624e+003, 4.039235e-001
1.656553e+003, 4.043306e-001
1.658481e+003, 4.044282e-001
1.660410e+003, 4.044960e-001
1.662338e+003, 4.046603e-001
1.664267e+003, 4.043013e-001
1.666195e+003, 4.039553e-001
1.668124e+003, 4.043364e-001
1.670052e+003, 4.045597e-001
1.671981e+003, 4.044897e-001
1.673909e+003, 4.046617e-001
1.675838e+003, 4.043485e-001
1.677766e+003, 4.044236e-001
1.679694e+003, 4.048813e-001
1.681623e+003, 4.054133e-001
1.683551e+003, 4.054912e-001
1.685480e+003, 4.049845e-001
1.687408e+003, 4.056606e-001
1.689337e+003, 4.060607e-001
1.691265e+003, 4.062460e-001
1.693194e+003, 4.064216e-001
1.695122e+003, 4.065101e-001
1.697051e+003, 4.063821e-001
1.698979e+003, 4.069824e-001
1.700908e+003, 4.066264e-001
1.702836e+003, 4.072067e-001
1.704765e+003, 4.074147e-001
1.706693e+003, 4.077370e-001
1.708621e+003, 4.081937e-001
1.710550e+003, 4.084696e-001
1.712478e+003, 4.089752e-001
1.714407e+003, 4.091896e-001
1.716335e+003, 4.089708e-001
1.718264e+003, 4.087398e-001
1.720192e+003, 4.092746e-001
1.722121e+003, 4.097970e-001
1.724049e+003, 4.100147e-001
1.725978e+003, 4.100758e-001
1.727906e+003, 4.097201e-001
1.729835e+003, 4.097970e-001
1.731763e+003, 4.101222e-001
1.733692e+003, 4.103304e-001
1.735620e+003, 4.108136e-001
1.737548e+003, 4.108854e-001
1.739477e+003, 4.105193e-001
1.741405e+003, 4.106824e-001
1.743334e+003, 4.106238e-001
1.745262e+003, 4.103903e-001
1.747191e+003, 4.109975e-001
1.749119e+003, 4.113325e-001
1.751048e+003, 4.109437e-001
1.752976e+003, 4.104963e-001
1.754905e+003, 4.106180e-001
1.756833e+003, 4.107255e-001
1.758762e+003, 4.111718e-001
1.760690e+003, 4.114880e-001
1.762619e+003, 4.112579e-001
1.764547e+003, 4.115906e-001
1.766475e+003, 4.118552e-001
1.768404e+003, 4.116395e-001
1.770332e+003, 4.119707e-001
1.772261e+003, 4.121020e-001
1.774189e+003, 4.119980e-001
1.776118e+003, 4.119284e-001
1.778046e+003, 4.121276e-001
1.779975e+003, 4.127520e-001
1.781903e+003, 4.128827e-001
1.783832e+003, 4.126336e-001
1.785760e+003, 4.123683e-001
1.787689e+003, 4.123133e-001
1.789617e+003, 4.126441e-001
1.791546e+003, 4.131065e-001
1.793474e+003, 4.132459e-001
1.795402e+003, 4.134679e-001
1.797331e+003, 4.136520e-001
1.799259e+003, 4.135815e-001
1.801188e+003, 4.134430e-001
1.803116e+003, 4.136231e-001
1.805045e+003, 4.135337e-001
1.806973e+003, 4.136588e-001
1.808902e+003, 4.140249e-001
1.810830e+003, 4.141200e-001
1.812759e+003, 4.138831e-001
1.814687e+003, 4.138241e-001
1.816616e+003, 4.140450e-001
1.818544e+003, 4.142976e-001
1.820473e+003, 4.141975e-001
1.822401e+003, 4.138657e-001
1.824329e+003, 4.140130e-001
1.826258e+003, 4.144183e-001
1.828186e+003, 4.147488e-001
1.830115e+003, 4.142866e-001
1.832043e+003, 4.146621e-001
1.833972e+003, 4.154448e-001
1.835900e+003, 4.155500e-001
1.837829e+003, 4.149393e-001
1.839757e+003, 4.149443e-001
1.841686e+003, 4.157387e-001
1.843614e+003, 4.153451e-001
1.845543e+003, 4.147730e-001
1.847471e+003, 4.155172e-001
1.849400e+003, 4.158153e-001
1.851328e+003, 4.158187e-001
1.853256e+003, 4.160247e-001
1.855185e+003, 4.159115e-001
1.857113e+003, 4.152292e-001
1.859042e+003, 4.152955e-001
1.860970e+003, 4.163396e-001
1.862899e+003, 4.166683e-001
1.864827e+003, 4.162208e-001
1.866756e+003, 4.165184e-001
1.868684e+003, 4.165774e-001
1.870613e+003, 4.164239e-001
1.872541e+003, 4.169662e-001
1.874470e+003, 4.174071e-001
1.876398e+003, 4.176728e-001
1.878327e+003, 4.169870e-001
1.880255e+003, 4.167627e-001
1.882183e+003, 4.169208e-001
1.884112e+003, 4.168271e-001
1.886040e+003, 4.164451e-001
1.887969e+003, 4.162728e-001
1.889897e+003, 4.159038e-001
1.891826e+003, 4.163725e-001
1.893754e+003, 4.163655e-001
1.895683e+003, 4.169725e-001
1.897611e+003, 4.171939e-001
1.899540e+003, 4.166882e-001
1.901468e+003, 4.171228e-001
1.903397e+003, 4.169127e-001
1.905325e+003, 4.173265e-001
1.907254e+003, 4.180652e-001
1.909182e+003, 4.172378e-001
1.911110e+003, 4.162765e-001
1.913039e+003, 4.160499e-001
1.914967e+003, 4.166667e-001
1.916896e+003, 4.178300e-001
1.918824e+003, 4.175119e-001
1.920753e+003, 4.165457e-001
1.922681e+003, 4.159255e-001
1.924610e+003, 4.156086e-001
1.926538e+003, 4.163074e-001
1.928467e+003, 4.162815e-001
1.930395e+003, 4.164101e-001
1.932324e+003, 4.158636e-001
1.934252e+003, 4.147901e-001
1.936181e+003, 4.149630e-001
1.938109e+003, 4.149926e-001
1.940037e+003, 4.148998e-001
1.941966e+003, 4.145327e-001
1.943894e+003, 4.136344e-001
1.945823e+003, 4.133119e-001
1.947751e+003, 4.137966e-001
1.949680e+003, 4.138893e-001
1.951608e+003, 4.122688e-001
1.953537e+003, 4.120637e-001
1.955465e+003, 4.135588e-001
1.957394e+003, 4.126652e-001
1.959322e+003, 4.106795e-001
1.961251e+003, 4.095389e-001
1.963179e+003, 4.093505e-001
1.965108e+003, 4.080652e-001
1.967036e+003, 4.073129e-001
1.968964e+003, 4.084894e-001
1.970893e+003, 4.084355e-001
1.972821e+003, 4.063917e-001
1.974750e+003, 4.054523e-001
1.976678e+003, 4.058561e-001
1.978607e+003, 4.084696e-001
1.980535e+003, 4.094912e-001
1.982464e+003, 4.103564e-001
1.984392e+003, 4.099105e-001
1.986321e+003, 4.104295e-001
1.988249e+003, 4.109725e-001
1.990178e+003, 4.097994e-001
1.992106e+003, 4.107190e-001
1.994035e+003, 4.129925e-001
1.995963e+003, 4.130619e-001
1.997891e+003, 4.131527e-001
1.999820e+003, 4.122252e-001
2.001748e+003, 4.099765e-001
2.003677e+003, 4.090652e-001
2.005605e+003, 4.076669e-001
2.007534e+003, 4.089283e-001
2.009462e+003, 4.100415e-001
2.011391e+003, 4.109077e-001
2.013319e+003, 4.090256e-001
2.015248e+003, 4.066262e-001
2.017176e+003, 4.069124e-001
2.019105e+003, 4.063364e-001
2.021033e+003, 4.082322e-001
2.022962e+003, 4.117334e-001
2.024890e+003, 4.119290e-001
2.026818e+003, 4.114203e-001
2.028747e+003, 4.092969e-001
2.030675e+003, 4.087560e-001
2.032604e+003, 4.098513e-001
2.034532e+003, 4.124649e-001
2.036461e+003, 4.155510e-001
2.038389e+003, 4.169765e-001
2.040318e+003, 4.153956e-001
2.042246e+003, 4.140349e-001
2.044175e+003, 4.159042e-001
2.046103e+003, 4.174723e-001
2.048032e+003, 4.186930e-001
2.049960e+003, 4.216624e-001
2.051889e+003, 4.211905e-001
2.053817e+003, 4.204386e-001
2.055746e+003, 4.218902e-001
2.057674e+003, 4.221666e-001
2.059603e+003, 4.220722e-001
2.061531e+003, 4.235235e-001
2.063459e+003, 4.246327e-001
2.065388e+003, 4.247349e-001
2.067316e+003, 4.248767e-001
2.069245e+003, 4.255202e-001
2.071173e+003, 4.270736e-001
2.073102e+003, 4.262703e-001
2.075030e+003, 4.268261e-001
2.076959e+003, 4.270381e-001
2.078887e+003, 4.281110e-001
2.080816e+003, 4.295340e-001
2.082744e+003, 4.300683e-001
2.084673e+003, 4.292625e-001
2.086601e+003, 4.288439e-001
2.088530e+003, 4.293558e-001
2.090458e+003, 4.298669e-001
2.092386e+003, 4.295242e-001
2.094315e+003, 4.287490e-001
2.096243e+003, 4.286475e-001
2.098172e+003, 4.290614e-001
2.100100e+003, 4.296133e-001
2.102029e+003, 4.313177e-001
2.103957e+003, 4.326704e-001
2.105886e+003, 4.328496e-001
2.107814e+003, 4.321892e-001
2.109743e+003, 4.324141e-001
2.111671e+003, 4.325681e-001
2.113600e+003, 4.325614e-001
2.115528e+003, 4.322152e-001
2.117457e+003, 4.320535e-001
2.119385e+003, 4.301833e-001
2.121313e+003, 4.297363e-001
2.123242e+003, 4.308848e-001
2.125170e+003, 4.307802e-001
2.127099e+003, 4.297720e-001
2.129027e+003, 4.283848e-001
2.130956e+003, 4.271938e-001
2.132884e+003, 4.278120e-001
2.134813e+003, 4.282043e-001
2.136741e+003, 4.252639e-001
2.138670e+003, 4.239189e-001
2.140598e+003, 4.245310e-001
2.142527e+003, 4.243131e-001
2.144455e+003, 4.250708e-001
2.146384e+003, 4.227968e-001
2.148312e+003, 4.212196e-001
2.150240e+003, 4.223163e-001
2.152169e+003, 4.188192e-001
2.154097e+003, 4.149412e-001
2.156026e+003, 4.137606e-001
2.157954e+003, 4.149259e-001
2.159883e+003, 4.185124e-001
2.161811e+003, 4.206725e-001
2.163740e+003, 4.227752e-001
2.165668e+003, 4.246438e-001
2.167597e+003, 4.243941e-001
2.169525e+003, 4.226503e-001
2.171454e+003, 4.233738e-001
2.173382e+003, 4.238826e-001
2.175311e+003, 4.238042e-001
2.177239e+003, 4.240278e-001
2.179167e+003, 4.232917e-001
2.181096e+003, 4.255793e-001
2.183024e+003, 4.265282e-001
2.184953e+003, 4.266583e-001
2.186881e+003, 4.301462e-001
2.188810e+003, 4.302573e-001
2.190738e+003, 4.289273e-001
2.192667e+003, 4.303774e-001
2.194595e+003, 4.297970e-001
2.196524e+003, 4.295481e-001
2.198452e+003, 4.320112e-001
2.200381e+003, 4.340042e-001
2.202309e+003, 4.327099e-001
2.204238e+003, 4.324253e-001
2.206166e+003, 4.344330e-001
2.208094e+003, 4.352111e-001
2.210023e+003, 4.331713e-001
2.211951e+003, 4.332278e-001
2.213880e+003, 4.346697e-001
2.215808e+003, 4.355431e-001
2.217737e+003, 4.363158e-001
2.219665e+003, 4.365869e-001
2.221594e+003, 4.372447e-001
2.223522e+003, 4.375054e-001
2.225451e+003, 4.376133e-001
2.227379e+003, 4.368594e-001
2.229308e+003, 4.370210e-001
2.231236e+003, 4.377021e-001
2.233165e+003, 4.392429e-001
2.235093e+003, 4.403097e-001
2.237021e+003, 4.403454e-001
2.238950e+003, 4.397232e-001
2.240878e+003, 4.378953e-001
2.242807e+003, 4.379779e-001
2.244735e+003, 4.405721e-001
2.246664e+003, 4.421730e-001
2.248592e+003, 4.425677e-001
2.250521e+003, 4.411729e-001
2.252449e+003, 4.415384e-001
2.254378e+003, 4.428665e-001
2.256306e+003, 4.418550e-001
2.258235e+003, 4.412474e-001
2.260163e+003, 4.432733e-001
2.262092e+003, 4.453382e-001
2.264020e+003, 4.453019e-001
2.265948e+003, 4.446826e-001
2.267877e+003, 4.446153e-001
2.269805e+003, 4.453538e-001
2.271734e+003, 4.462423e-001
2.273662e+003, 4.474791e-001
2.275591e+003, 4.483400e-001
2.277519e+003, 4.480495e-001
2.279448e+003, 4.486521e-001
2.281376e+003, 4.499900e-001
2.283305e+003, 4.496570e-001
2.285233e+003, 4.489118e-001
2.287162e+003, 4.499799e-001
2.289090e+003, 4.512696e-001
2.291019e+003, 4.516305e-001
2.292947e+003, 4.521767e-001
2.294875e+003, 4.522674e-001
2.296804e+003, 4.524871e-001
2.298732e+003, 4.532092e-001
2.300661e+003, 4.539407e-001
2.302589e+003, 4.539315e-001
2.304518e+003, 4.545541e-001
2.306446e+003, 4.552335e-001
2.308375e+003, 4.551319e-001
2.310303e+003, 4.554215e-001
2.312232e+003, 4.551750e-001
2.314160e+003, 4.548233e-001
2.316089e+003, 4.553395e-001
2.318017e+003, 4.562236e-001
2.319946e+003, 4.568043e-001
2.321874e+003, 4.572861e-001
2.323802e+003, 4.580135e-001
2.325731e+003, 4.577950e-001
2.327659e+003, 4.576144e-001
2.329588e+003, 4.578605e-001
2.331516e+003, 4.578573e-001
2.333445e+003, 4.575377e-001
2.335373e+003, 4.572743e-001
2.337302e+003, 4.575703e-001
2.339230e+003, 4.581881e-001
2.341159e+003, 4.581547e-001
2.343087e+003, 4.584880e-001
2.345016e+003, 4.583718e-001
2.346944e+003, 4.577779e-001
2.348873e+003, 4.585896e-001
2.350801e+003, 4.593204e-001
2.352729e+003, 4.586631e-001
2.354658e+003, 4.582578e-001
2.356586e+003, 4.581842e-001
2.358515e+003, 4.576344e-001
2.360443e+003, 4.579167e-001
2.362372e+003, 4.586571e-001
2.364300e+003, 4.581588e-001
2.366229e+003, 4.579972e-001
2.368157e+003, 4.584709e-001
2.370086e+003, 4.583220e-001
2.372014e+003, 4.583703e-001
2.373942e+003, 4.582771e-001
2.375871e+003, 4.576780e-001
2.377799e+003, 4.583251e-001
2.379728e+003, 4.591115e-001
2.381656e+003, 4.593393e-001
2.383585e+003, 4.594652e-001
2.385513e+003, 4.592547e-001
2.387442e+003, 4.590104e-001
2.389370e+003, 4.587326e-001
2.391299e+003, 4.592544e-001
2.393227e+003, 4.598160e-001
2.395156e+003, 4.599240e-001
2.397084e+003, 4.595433e-001
2.399012e+003, 4.590548e-001
2.400941e+003, 4.590681e-001
2.402869e+003, 4.595289e-001
2.404798e+003, 4.600144e-001
2.406726e+003, 4.602137e-001
2.408655e+003, 4.605522e-001
2.410583e+003, 4.604682e-001
2.412512e+003, 4.600386e-001
2.414440e+003, 4.607592e-001
2.416369e+003, 4.610524e-001
2.418297e+003, 4.604656e-001
2.420226e+003, 4.605776e-001
2.422154e+003, 4.613325e-001
2.424083e+003, 4.621157e-001
2.426011e+003, 4.619831e-001
2.427939e+003, 4.610215e-001
2.429868e+003, 4.605901e-001
2.431796e+003, 4.610455e-001
2.433725e+003, 4.616725e-001
2.435653e+003, 4.627120e-001
2.437582e+003, 4.627928e-001
2.439510e+003, 4.622348e-001
2.441439e+003, 4.620462e-001
2.443367e+003, 4.622547e-001
2.445296e+003, 4.642115e-001
2.447224e+003, 4.649318e-001
2.449153e+003, 4.646064e-001
2.451081e+003, 4.645377e-001
2.453010e+003, 4.638617e-001
2.454938e+003, 4.634893e-001
2.456866e+003, 4.632743e-001
2.458795e+003, 4.635402e-001
2.460723e+003, 4.646496e-001
2.462652e+003, 4.646772e-001
2.464580e+003, 4.637464e-001
2.466509e+003, 4.640294e-001
2.468437e+003, 4.650639e-001
2.470366e+003, 4.643200e-001
2.472294e+003, 4.640905e-001
2.474223e+003, 4.647621e-001
2.476151e+003, 4.653451e-001
2.478080e+003, 4.652031e-001
2.480008e+003, 4.647848e-001
2.481937e+003, 4.644792e-001
2.483865e+003, 4.647085e-001
2.485793e+003, 4.653732e-001
2.487722e+003, 4.658870e-001
2.489650e+003, 4.663504e-001
2.491579e+003, 4.662903e-001
2.493507e+003, 4.667335e-001
2.495436e+003, 4.675020e-001
2.497364e+003, 4.670031e-001
2.499293e+003, 4.667642e-001
2.501221e+003, 4.668564e-001
2.503150e+003, 4.663989e-001
2.505078e+003, 4.663310e-001
2.507007e+003, 4.670725e-001
2.508935e+003, 4.677136e-001
2.510864e+003, 4.672852e-001
2.512792e+003, 4.668229e-001
2.514720e+003, 4.677288e-001
2.516649e+003, 4.688288e-001
2.518577e+003, 4.694543e-001
2.520506e+003, 4.689049e-001
2.522434e+003, 4.679290e-001
2.524363e+003, 4.676657e-001
2.526291e+003, 4.678975e-001
2.528220e+003, 4.685439e-001
2.530148e+003, 4.690750e-001
2.532077e+003, 4.690863e-001
2.534005e+003, 4.696763e-001
2.535934e+003, 4.704674e-001
2.537862e+003, 4.706587e-001
2.539791e+003, 4.703234e-001
2.541719e+003, 4.700512e-001
2.543647e+003, 4.704936e-001
2.545576e+003, 4.708250e-001
2.547504e+003, 4.697823e-001
2.549433e+003, 4.701019e-001
2.551361e+003, 4.710203e-001
2.553290e+003, 4.710186e-001
2.555218e+003, 4.720425e-001
2.557147e+003, 4.726945e-001
2.559075e+003, 4.730045e-001
2.561004e+003, 4.727030e-001
2.562932e+003, 4.718865e-001
2.564861e+003, 4.712981e-001
2.566789e+003, 4.715580e-001
2.568718e+003, 4.719705e-001
2.570646e+003, 4.719611e-001
2.572574e+003, 4.725522e-001
2.574503e+003, 4.730045e-001
2.576431e+003, 4.726169e-001
2.578360e+003, 4.720016e-001
2.580288e+003, 4.727460e-001
2.582217e+003, 4.737417e-001
2.584145e+003, 4.747624e-001
2.586074e+003, 4.747086e-001
2.588002e+003, 4.738587e-001
2.589931e+003, 4.737485e-001
2.591859e+003, 4.746556e-001
2.593788e+003, 4.754691e-001
2.595716e+003, 4.757790e-001
2.597645e+003, 4.761484e-001
2.599573e+003, 4.767087e-001
2.601501e+003, 4.772973e-001
2.603430e+003, 4.768502e-001
2.605358e+003, 4.766712e-001
2.607287e+003, 4.774943e-001
2.609215e+003, 4.774572e-001
2.611144e+003, 4.778208e-001
2.613072e+003, 4.778543e-001
2.615001e+003, 4.780181e-001
2.616929e+003, 4.783015e-001
2.618858e+003, 4.789251e-001
2.620786e+003, 4.796727e-001
2.622715e+003, 4.798393e-001
2.624643e+003, 4.796490e-001
2.626572e+003, 4.801523e-001
2.628500e+003, 4.805416e-001
2.630428e+003, 4.806109e-001
2.632357e+003, 4.810516e-001
2.634285e+003, 4.818003e-001
2.636214e+003, 4.816522e-001
2.638142e+003, 4.811988e-001
2.640071e+003, 4.817250e-001
2.641999e+003, 4.828467e-001
2.643928e+003, 4.836850e-001
2.645856e+003, 4.835450e-001
2.647785e+003, 4.832772e-001
2.649713e+003, 4.837399e-001
2.651642e+003, 4.839224e-001
2.653570e+003, 4.840865e-001
2.655499e+003, 4.844751e-001
2.657427e+003, 4.845945e-001
2.659355e+003, 4.846159e-001
2.661284e+003, 4.846572e-001
2.663212e+003, 4.849603e-001
2.665141e+003, 4.848679e-001
2.667069e+003, 4.852610e-001
2.668998e+003, 4.854845e-001
2.670926e+003, 4.848013e-001
2.672855e+003, 4.850070e-001
2.674783e+003, 4.855305e-001
2.676712e+003, 4.860518e-001
2.678640e+003, 4.861937e-001
2.680569e+003, 4.857908e-001
2.682497e+003, 4.860834e-001
2.684426e+003, 4.867392e-001
2.686354e+003, 4.867499e-001
2.688282e+003, 4.863401e-001
2.690211e+003, 4.860137e-001
2.692139e+003, 4.868077e-001
2.694068e+003, 4.874203e-001
2.695996e+003, 4.872996e-001
2.697925e+003, 4.871001e-001
2.699853e+003, 4.873151e-001
2.701782e+003, 4.874114e-001
2.703710e+003, 4.873020e-001
2.705639e+003, 4.876396e-001
2.707567e+003, 4.878195e-001
2.709496e+003, 4.875402e-001
2.711424e+003, 4.870394e-001
2.713353e+003, 4.871933e-001
2.715281e+003, 4.880998e-001
2.717209e+003, 4.882381e-001
2.719138e+003, 4.877733e-001
2.721066e+003, 4.881465e-001
2.722995e+003, 4.887197e-001
2.724923e+003, 4.888735e-001
2.726852e+003, 4.891007e-001
2.728780e+003, 4.891022e-001
2.730709e+003, 4.887392e-001
2.732637e+003, 4.891407e-001
2.734566e+003, 4.896274e-001
2.736494e+003, 4.898320e-001
2.738423e+003, 4.899125e-001
2.740351e+003, 4.894989e-001
2.742280e+003, 4.893765e-001
2.744208e+003, 4.901454e-001
2.746136e+003, 4.906817e-001
2.748065e+003, 4.903883e-001
2.749993e+003, 4.900967e-001
2.751922e+003, 4.904339e-001
2.753850e+003, 4.912926e-001
2.755779e+003, 4.916052e-001
2.757707e+003, 4.910806e-001
2.759636e+003, 4.908600e-001
2.761564e+003, 4.913853e-001
2.763493e+003, 4.915861e-001
2.765421e+003, 4.916041e-001
2.767350e+003, 4.914897e-001
2.769278e+003, 4.913179e-001
2.771207e+003, 4.913504e-001
2.773135e+003, 4.916027e-001
2.775063e+003, 4.915445e-001
2.776992e+003, 4.919936e-001
2.778920e+003, 4.920191e-001
2.780849e+003, 4.920196e-001
2.782777e+003, 4.921415e-001
2.784706e+003, 4.922858e-001
2.786634e+003, 4.926692e-001
2.788563e+003, 4.933119e-001
2.790491e+003, 4.935459e-001
2.792420e+003, 4.932795e-001
2.794348e+003, 4.933514e-001
2.796277e+003, 4.935310e-001
2.798205e+003, 4.937352e-001
2.800134e+003, 4.938633e-001
2.802062e+003, 4.942103e-001
2.803990e+003, 4.948575e-001
2.805919e+003, 4.948421e-001
2.807847e+003, 4.944950e-001
2.809776e+003, 4.945757e-001
2.811704e+003, 4.942679e-001
2.813633e+003, 4.945753e-001
2.815561e+003, 4.946591e-001
2.817490e+003, 4.941577e-001
2.819418e+003, 4.940237e-001
2.821347e+003, 4.946252e-001
2.823275e+003, 4.952642e-001
2.825204e+003, 4.955208e-001
2.827132e+003, 4.951871e-001
2.829061e+003, 4.956218e-001
2.830989e+003, 4.963574e-001
2.832917e+003, 4.964259e-001
2.834846e+003, 4.960055e-001
2.836774e+003, 4.960707e-001
2.838703e+003, 4.959292e-001
2.840631e+003, 4.960411e-001
2.842560e+003, 4.961732e-001
2.844488e+003, 4.970506e-001
2.846417e+003, 4.980454e-001
2.848345e+003, 4.981597e-001
2.850274e+003, 4.975152e-001
2.852202e+003, 4.971594e-001
2.854131e+003, 4.964089e-001
2.856059e+003, 4.954352e-001
2.857988e+003, 4.954312e-001
2.859916e+003, 4.958301e-001
2.861844e+003, 4.961937e-001
2.863773e+003, 4.968297e-001
2.865701e+003, 4.968304e-001
2.867630e+003, 4.969891e-001
2.869558e+003, 4.973017e-001
2.871487e+003, 4.973203e-001
2.873415e+003, 4.973331e-001
2.875344e+003, 4.975725e-001
2.877272e+003, 4.982688e-001
2.879201e+003, 4.992220e-001
2.881129e+003, 4.987143e-001
2.883058e+003, 4.984563e-001
2.884986e+003, 4.982590e-001
2.886915e+003, 4.982555e-001
2.888843e+003, 4.988601e-001
2.890771e+003, 5.003278e-001
2.892700e+003, 5.011954e-001
2.894628e+003, 5.003411e-001
2.896557e+003, 5.003484e-001
2.898485e+003, 5.008011e-001
2.900414e+003, 5.006087e-001
2.902342e+003, 5.006605e-001
2.904271e+003, 5.011747e-001
2.906199e+003, 5.010618e-001
2.908128e+003, 5.006121e-001
2.910056e+003, 5.001579e-001
2.911985e+003, 5.001141e-001
2.913913e+003, 5.010833e-001
2.915842e+003, 5.021209e-001
2.917770e+003, 5.020298e-001
2.919698e+003, 5.013030e-001
2.921627e+003, 5.007633e-001
2.923555e+003, 5.002927e-001
2.925484e+003, 5.003060e-001
2.927412e+003, 4.988400e-001
2.929341e+003, 4.983920e-001
2.931269e+003, 4.988779e-001
2.933198e+003, 4.985496e-001
2.935126e+003, 4.988142e-001
2.937055e+003, 4.994504e-001
2.938983e+003, 4.992565e-001
2.940912e+003, 4.990574e-001
2.942840e+003, 4.994163e-001
2.944769e+003, 4.992244e-001
2.946697e+003, 4.991944e-001
2.948625e+003, 4.996011e-001
2.950554e+003, 5.002149e-001
2.952482e+003, 5.007542e-001
2.954411e+003, 5.001824e-001
2.956339e+003, 4.996273e-001
2.958268e+003, 4.997690e-001
2.960196e+003, 4.994164e-001
2.962125e+003, 4.993028e-001
2.964053e+003, 5.000601e-001
2.965982e+003, 5.003958e-001
2.967910e+003, 5.001810e-001
2.969839e+003, 4.997314e-001
2.971767e+003, 5.000173e-001
2.973696e+003, 5.002809e-001
2.975624e+003, 5.004522e-001
2.977552e+003, 5.004119e-001
2.979481e+003, 5.012194e-001
2.981409e+003, 5.014185e-001
2.983338e+003, 5.010805e-001
2.985266e+003, 5.021132e-001
2.987195e+003, 5.023471e-001
2.989123e+003, 5.019068e-001
2.991052e+003, 5.012091e-001
2.992980e+003, 5.018844e-001
2.994909e+003, 5.020201e-001
2.996837e+003, 5.021702e-001
2.998766e+003, 5.031090e-001
3.000694e+003, 5.029652e-001
3.002623e+003, 5.035843e-001
3.004551e+003, 5.036309e-001
3.006479e+003, 5.036575e-001
3.008408e+003, 5.044438e-001
3.010336e+003, 5.039286e-001
3.012265e+003, 5.034705e-001
3.014193e+003, 5.041230e-001
3.016122e+003, 5.041384e-001
3.018050e+003, 5.039260e-001
3.019979e+003, 5.047404e-001
3.021907e+003, 5.041948e-001
3.023836e+003, 5.038077e-001
3.025764e+003, 5.050961e-001
3.027693e+003, 5.053388e-001
3.029621e+003, 5.060586e-001
3.031550e+003, 5.060554e-001
3.033478e+003, 5.047408e-001
3.035406e+003, 5.053186e-001
3.037335e+003, 5.064180e-001
3.039263e+003, 5.058879e-001
3.041192e+003, 5.053901e-001
3.043120e+003, 5.057210e-001
3.045049e+003, 5.058115e-001
3.046977e+003, 5.058699e-001
3.048906e+003, 5.067047e-001
3.050834e+003, 5.073912e-001
3.052763e+003, 5.074000e-001
3.054691e+003, 5.070062e-001
3.056620e+003, 5.065866e-001
3.058548e+003, 5.070158e-001
3.060477e+003, 5.079595e-001
3.062405e+003, 5.075095e-001
3.064333e+003, 5.069153e-001
3.066262e+003, 5.069340e-001
3.068190e+003, 5.072700e-001
3.070119e+003, 5.078149e-001
3.072047e+003, 5.075862e-001
3.073976e+003, 5.076435e-001
3.075904e+003, 5.081940e-001
3.077833e+003, 5.084860e-001
3.079761e+003, 5.087151e-001
3.081690e+003, 5.090101e-001
3.083618e+003, 5.090120e-001
3.085547e+003, 5.084381e-001
3.087475e+003, 5.088052e-001
3.089404e+003, 5.094708e-001
3.091332e+003, 5.092555e-001
3.093260e+003, 5.095186e-001
3.095189e+003, 5.103940e-001
3.097117e+003, 5.102748e-001
3.099046e+003, 5.093235e-001
3.100974e+003, 5.093609e-001
3.102903e+003, 5.093669e-001
3.104831e+003, 5.092500e-001
3.106760e+003, 5.097319e-001
3.108688e+003, 5.108313e-001
3.110617e+003, 5.108263e-001
3.112545e+003, 5.100383e-001
3.114474e+003, 5.107137e-001
3.116402e+003, 5.114858e-001
3.118331e+003, 5.110008e-001
3.120259e+003, 5.099628e-001
3.122188e+003, 5.102500e-001
3.124116e+003, 5.110269e-001
3.126044e+003, 5.107306e-001
3.127973e+003, 5.108490e-001
3.129901e+003, 5.111015e-001
3.131830e+003, 5.109501e-001
3.133758e+003, 5.110775e-001
3.135687e+003, 5.112931e-001
3.137615e+003, 5.112550e-001
3.139544e+003, 5.110198e-001
3.141472e+003, 5.103640e-001
3.143401e+003, 5.103673e-001
3.145329e+003, 5.104957e-001
3.147258e+003, 5.111592e-001
3.149186e+003, 5.118858e-001
3.151115e+003, 5.120680e-001
3.153043e+003, 5.124171e-001
3.154971e+003, 5.131950e-001
3.156900e+003, 5.139594e-001
3.158828e+003, 5.134730e-001
3.160757e+003, 5.126970e-001
3.162685e+003, 5.131342e-001
3.164614e+003, 5.129496e-001
3.166542e+003, 5.132774e-001
3.168471e+003, 5.138981e-001
3.170399e+003, 5.135209e-001
3.172328e+003, 5.131496e-001
3.174256e+003, 5.127147e-001
3.176185e+003, 5.138054e-001
3.178113e+003, 5.132944e-001
3.180042e+003, 5.125543e-001
3.181970e+003, 5.129164e-001
3.183898e+003, 5.126998e-001
3.185827e+003, 5.129521e-001
3.187755e+003, 5.146091e-001
3.189684e+003, 5.155846e-001
3.191612e+003, 5.156496e-001
3.193541e+003, 5.157835e-001
3.195469e+003, 5.159805e-001
3.197398e+003, 5.157359e-001
3.199326e+003, 5.157133e-001
3.201255e+003, 5.160369e-001
3.203183e+003, 5.162934e-001
3.205112e+003, 5.166819e-001
3.207040e+003, 5.165792e-001
3.208969e+003, 5.147564e-001
3.210897e+003, 5.145438e-001
3.212825e+003, 5.145029e-001
3.214754e+003, 5.141475e-001
3.216682e+003, 5.150659e-001
3.218611e+003, 5.160836e-001
3.220539e+003, 5.155020e-001
3.222468e+003, 5.153874e-001
3.224396e+003, 5.161520e-001
3.226325e+003, 5.162624e-001
3.228253e+003, 5.152316e-001
3.230182e+003, 5.156603e-001
3.232110e+003, 5.176114e-001
3.234039e+003, 5.172442e-001
3.235967e+003, 5.165504e-001
3.237896e+003, 5.164816e-001
3.239824e+003, 5.163578e-001
3.241752e+003, 5.167033e-001
3.243681e+003, 5.169994e-001
3.245609e+003, 5.165190e-001
3.247538e+003, 5.155954e-001
3.249466e+003, 5.160667e-001
3.251395e+003, 5.167740e-001
3.253323e+003, 5.169306e-001
3.255252e+003, 5.180300e-001
3.257180e+003, 5.191946e-001
3.259109e+003, 5.191444e-001
3.261037e+003, 5.184954e-001
3.262966e+003, 5.179552e-001
3.264894e+003, 5.179865e-001
3.266823e+003, 5.177190e-001
3.268751e+003, 5.188493e-001
3.270679e+003, 5.204303e-001
3.272608e+003, 5.199044e-001
3.274536e+003, 5.204139e-001
3.276465e+003, 5.197360e-001
3.278393e+003, 5.198056e-001
3.280322e+003, 5.210507e-001
3.282250e+003, 5.203844e-001
3.284179e+003, 5.207307e-001
3.286107e+003, 5.209606e-001
3.288036e+003, 5.198215e-001
3.289964e+003, 5.190396e-001
3.291893e+003, 5.188413e-001
3.293821e+003, 5.196568e-001
3.295750e+003, 5.206347e-001
3.297678e+003, 5.206086e-001
3.299606e+003, 5.202572e-001
3.301535e+003, 5.217864e-001
3.303463e+003, 5.230302e-001
3.305392e+003, 5.214834e-001
3.307320e+003, 5.211191e-001
3.309249e+003, 5.212298e-001
3.311177e+003, 5.208693e-001
3.313106e+003, 5.215862e-001
3.315034e+003, 5.221673e-001
3.316963e+003, 5.215279e-001
3.318891e+003, 5.208088e-001
3.320820e+003, 5.209498e-001
3.322748e+003, 5.211381e-001
3.324677e+003, 5.208910e-001
3.326605e+003, 5.204694e-001
3.328533e+003, 5.210948e-001
3.330462e+003, 5.219178e-001
3.332390e+003, 5.217356e-001
3.334319e+003, 5.209500e-001
3.336247e+003, 5.210302e-001
3.338176e+003, 5.221486e-001
3.340104e+003, 5.221117e-001
3.342033e+003, 5.212573e-001
3.343961e+003, 5.211683e-001
3.345890e+003, 5.199606e-001
3.347818e+003, 5.196931e-001
3.349747e+003, 5.216147e-001
3.351675e+003, 5.227934e-001
3.353604e+003, 5.227561e-001
3.355532e+003, 5.224431e-001
3.357460e+003, 5.221218e-001
3.359389e+003, 5.217862e-001
3.361317e+003, 5.208964e-001
3.363246e+003, 5.211127e-001
3.365174e+003, 5.222389e-001
3.367103e+003, 5.214179e-001
3.369031e+003, 5.208153e-001
3.370960e+003, 5.216212e-001
3.372888e+003, 5.219966e-001
3.374817e+003, 5.213580e-001
3.376745e+003, 5.218484e-001
3.378674e+003, 5.227076e-001
3.380602e+003, 5.212964e-001
3.382531e+003, 5.222137e-001
3.384459e+003, 5.236037e-001
3.386387e+003, 5.230448e-001
3.388316e+003, 5.229271e-001
3.390244e+003, 5.229089e-001
3.392173e+003, 5.233066e-001
3.394101e+003, 5.235835e-001
3.396030e+003, 5.230628e-001
3.397958e+003, 5.231847e-001
3.399887e+003, 5.225397e-001
3.401815e+003, 5.219544e-001
3.403744e+003, 5.228905e-001
3.405672e+003, 5.229761e-001
3.407601e+003, 5.235511e-001
3.409529e+003, 5.240863e-001
3.411458e+003, 5.237112e-001
3.413386e+003, 5.234357e-001
3.415314e+003, 5.233014e-001
3.417243e+003, 5.229020e-001
3.419171e+003, 5.223834e-001
3.421100e+003, 5.224596e-001
3.423028e+003, 5.226316e-001
3.424957e+003, 5.229355e-001
3.426885e+003, 5.228960e-001
3.428814e+003, 5.221252e-001
3.430742e+003, 5.211928e-001
3.432671e+003, 5.211725e-001
3.434599e+003, 5.218026e-001
3.436528e+003, 5.225416e-001
3.438456e+003, 5.242684e-001
3.440385e+003, 5.247900e-001
3.442313e+003, 5.240868e-001
3.444241e+003, 5.235292e-001
3.446170e+003, 5.224162e-001
3.448098e+003, 5.226399e-001
3.450027e+003, 5.231683e-001
3.451955e+003, 5.241572e-001
3.453884e+003, 5.246978e-001
3.455812e+003, 5.245495e-001
3.457741e+003, 5.241891e-001
3.459669e+003, 5.246699e-001
3.461598e+003, 5.249514e-001
3.463526e+003, 5.247905e-001
3.465455e+003, 5.246810e-001
3.467383e+003, 5.244564e-001
3.469312e+003, 5.229818e-001
3.471240e+003, 5.216751e-001
3.473168e+003, 5.229374e-001
3.475097e+003, 5.244365e-001
3.477025e+003, 5.247027e-001
3.478954e+003, 5.242304e-001
3.480882e+003, 5.235792e-001
3.482811e+003, 5.228594e-001
3.484739e+003, 5.237628e-001
3.486668e+003, 5.239470e-001
3.488596e+003, 5.241901e-001
3.490525e+003, 5.258418e-001
3.492453e+003, 5.258282e-001
3.494382e+003, 5.231405e-001
3.496310e+003, 5.237263e-001
3.498239e+003, 5.253959e-001
3.500167e+003, 5.253443e-001
3.502095e+003, 5.249809e-001
3.504024e+003, 5.244103e-001
3.505952e+003, 5.237244e-001
3.507881e+003, 5.244348e-001
3.509809e+003, 5.245247e-001
3.511738e+003, 5.237923e-001
3.513666e+003, 5.239507e-001
3.515595e+003, 5.247753e-001
3.517523e+003, 5.267321e-001
3.519452e+003, 5.280393e-001
3.521380e+003, 5.270234e-001
3.523309e+003, 5.252691e-001
3.525237e+003, 5.258383e-001
3.527166e+003, 5.266270e-001
3.529094e+003, 5.260815e-001
3.531022e+003, 5.255743e-001
3.532951e+003, 5.263202e-001
3.534879e+003, 5.275036e-001
3.536808e+003, 5.271513e-001
3.538736e+003, 5.266016e-001
3.540665e+003, 5.261690e-001
3.542593e+003, 5.259705e-001
3.544522e+003, 5.258968e-001
3.546450e+003, 5.256618e-001
3.548379e+003, 5.262927e-001
3.550307e+003, 5.265633e-001
3.552236e+003, 5.257536e-001
3.554164e+003, 5.256472e-001
3.556093e+003, 5.261388e-001
3.558021e+003, 5.262271e-001
3.559949e+003, 5.267074e-001
3.561878e+003, 5.278574e-001
3.563806e+003, 5.276561e-001
3.565735e+003, 5.270732e-001
3.567663e+003, 5.272695e-001
3.569592e+003, 5.267048e-001
3.571520e+003, 5.270268e-001
3.573449e+003, 5.282204e-001
3.575377e+003, 5.287592e-001
3.577306e+003, 5.272509e-001
3.579234e+003, 5.274810e-001
3.581163e+003, 5.272282e-001
3.583091e+003, 5.272208e-001
3.585020e+003, 5.269777e-001
3.586948e+003, 5.274984e-001
3.588876e+003, 5.290368e-001
3.590805e+003, 5.285608e-001
3.592733e+003, 5.265441e-001
3.594662e+003, 5.266554e-001
3.596590e+003, 5.281630e-001
3.598519e+003, 5.288367e-001
3.600447e+003, 5.285754e-001
3.602376e+003, 5.287957e-001
3.604304e+003, 5.287797e-001
3.606233e+003, 5.290229e-001
3.608161e+003, 5.310901e-001
3.610090e+003, 5.315173e-001
3.612018e+003, 5.298588e-001
3.613947e+003, 5.294994e-001
3.615875e+003, 5.292218e-001
3.617803e+003, 5.304244e-001
3.619732e+003, 5.313759e-001
3.621660e+003, 5.303254e-001
3.623589e+003, 5.295117e-001
3.625517e+003, 5.303111e-001
3.627446e+003, 5.315727e-001
3.629374e+003, 5.326904e-001
3.631303e+003, 5.332451e-001
3.633231e+003, 5.336464e-001
3.635160e+003, 5.342577e-001
3.637088e+003, 5.346111e-001
3.639017e+003, 5.343519e-001
3.640945e+003, 5.337554e-001
3.642874e+003, 5.339568e-001
3.644802e+003, 5.339891e-001
3.646730e+003, 5.327675e-001
3.648659e+003, 5.323228e-001
3.650587e+003, 5.332754e-001
3.652516e+003, 5.329654e-001
3.654444e+003, 5.344981e-001
3.656373e+003, 5.363086e-001
3.658301e+003, 5.346255e-001
3.660230e+003, 5.344480e-001
3.662158e+003, 5.355828e-001
3.664087e+003, 5.352296e-001
3.666015e+003, 5.337493e-001
3.667944e+003, 5.344700e-001
3.669872e+003, 5.371915e-001
3.671801e+003, 5.376259e-001
3.673729e+003, 5.366186e-001
3.675657e+003, 5.364769e-001
3.677586e+003, 5.367138e-001
3.679514e+003, 5.372662e-001
3.681443e+003, 5.364720e-001
3.683371e+003, 5.376242e-001
3.685300e+003, 5.386653e-001
3.687228e+003, 5.377268e-001
3.689157e+003, 5.368165e-001
3.691085e+003, 5.366994e-001
3.693014e+003, 5.372581e-001
3.694942e+003, 5.373616e-001
3.696871e+003, 5.376503e-001
3.698799e+003, 5.377732e-001
3.700728e+003, 5.383581e-001
3.702656e+003, 5.399644e-001
3.704584e+003, 5.393481e-001
3.706513e+003, 5.378996e-001
3.708441e+003, 5.400603e-001
3.710370e+003, 5.419435e-001
3.712298e+003, 5.416671e-001
3.714227e+003, 5.435369e-001
3.716155e+003, 5.423269e-001
3.718084e+003, 5.392247e-001
3.720012e+003, 5.413719e-001
3.721941e+003, 5.427577e-001
3.723869e+003, 5.436080e-001
3.725798e+003, 5.436721e-001
3.727726e+003, 5.421429e-001
3.729655e+003, 5.417227e-001
3.731583e+003, 5.426537e-001
3.733511e+003, 5.424115e-001
3.735440e+003, 5.415118e-001
3.737368e+003, 5.409194e-001
3.739297e+003, 5.411916e-001
3.741225e+003, 5.418255e-001
3.743154e+003, 5.428693e-001
3.745082e+003, 5.421318e-001
3.747011e+003, 5.406412e-001
3.748939e+003, 5.427775e-001
3.750868e+003, 5.446089e-001
3.752796e+003, 5.428237e-001
3.754725e+003, 5.426611e-001
3.756653e+003, 5.453973e-001
3.758582e+003, 5.449795e-001
3.760510e+003, 5.449485e-001
3.762438e+003, 5.446947e-001
3.764367e+003, 5.432172e-001
3.766295e+003, 5.438826e-001
3.768224e+003, 5.445725e-001
3.770152e+003, 5.447333e-001
3.772081e+003, 5.446168e-001
3.774009e+003, 5.443315e-001
3.775938e+003, 5.455144e-001
3.777866e+003, 5.475991e-001
3.779795e+003, 5.485449e-001
3.781723e+003, 5.472291e-001
3.783652e+003, 5.465900e-001
3.785580e+003, 5.476276e-001
3.787509e+003, 5.482564e-001
3.789437e+003, 5.470437e-001
3.791365e+003, 5.477121e-001
3.793294e+003, 5.480791e-001
3.795222e+003, 5.465035e-001
3.797151e+003, 5.465841e-001
3.799079e+003, 5.476105e-001
3.801008e+003, 5.471831e-001
3.802936e+003, 5.473555e-001
3.804865e+003, 5.478620e-001
3.806793e+003, 5.481847e-001
3.808722e+003, 5.482396e-001
3.810650e+003, 5.486168e-001
3.812579e+003, 5.479403e-001
3.814507e+003, 5.488725e-001
3.816436e+003, 5.500773e-001
3.818364e+003, 5.511642e-001
3.820292e+003, 5.515189e-001
3.822221e+003, 5.504929e-001
3.824149e+003, 5.509298e-001
3.826078e+003, 5.500775e-001
3.828006e+003, 5.493432e-001
3.829935e+003, 5.502089e-001
3.831863e+003, 5.501670e-001
3.833792e+003, 5.499989e-001
3.835720e+003, 5.516479e-001
3.837649e+003, 5.530401e-001
3.839577e+003, 5.529818e-001
3.841506e+003, 5.512582e-001
3.843434e+003, 5.508538e-001
3.845363e+003, 5.512456e-001
3.847291e+003, 5.510586e-001
3.849219e+003, 5.504435e-001
3.851148e+003, 5.508687e-001
3.853076e+003, 5.522829e-001
3.855005e+003, 5.528208e-001
3.856933e+003, 5.518665e-001
3.858862e+003, 5.529290e-001
3.860790e+003, 5.510757e-001
3.862719e+003, 5.503716e-001
3.864647e+003, 5.521035e-001
3.866576e+003, 5.525331e-001
3.868504e+003, 5.527290e-001
3.870433e+003, 5.529846e-001
3.872361e+003, 5.521087e-001
3.874290e+003, 5.505220e-001
3.876218e+003, 5.505685e-001
3.878146e+003, 5.528177e-001
3.880075e+003, 5.535581e-001
3.882003e+003, 5.511997e-001
3.883932e+003, 5.512109e-001
3.885860e+003, 5.533907e-001
3.887789e+003, 5.539573e-001
3.889717e+003, 5.549072e-001
3.891646e+003, 5.563140e-001
3.893574e+003, 5.548959e-001
3.895503e+003, 5.529984e-001
3.897431e+003, 5.518222e-001
3.899360e+003, 5.529274e-001
3.901288e+003, 5.557656e-001
3.903217e+003, 5.566660e-001
3.905145e+003, 5.563828e-001
3.907073e+003, 5.555347e-001
3.909002e+003, 5.550309e-001
3.910930e+003, 5.546179e-001
3.912859e+003, 5.553991e-001
3.914787e+003, 5.552265e-001
3.916716e+003, 5.538170e-001
3.918644e+003, 5.537173e-001
3.920573e+003, 5.548105e-001
3.922501e+003, 5.548193e-001
3.924430e+003, 5.549195e-001
3.926358e+003, 5.541145e-001
3.928287e+003, 5.555757e-001
3.930215e+003, 5.576800e-001
3.932144e+003, 5.581142e-001
3.934072e+003, 5.572932e-001
3.936000e+003, 5.569984e-001
3.937929e+003, 5.578406e-001
3.939857e+003, 5.573124e-001
3.941786e+003, 5.574233e-001
3.943714e+003, 5.589745e-001
3.945643e+003, 5.597751e-001
3.947571e+003, 5.586348e-001
3.949500e+003, 5.585019e-001
3.951428e+003, 5.572044e-001
3.953357e+003, 5.561553e-001
3.955285e+003, 5.573016e-001
3.957214e+003, 5.591018e-001
3.959142e+003, 5.601065e-001
3.961071e+003, 5.596341e-001
3.962999e+003, 5.565971e-001
3.964927e+003, 5.559240e-001
3.966856e+003, 5.579194e-001
3.968784e+003, 5.601162e-001
3.970713e+003, 5.600288e-001
3.972641e+003, 5.593380e-001
3.974570e+003, 5.595345e-001
3.976498e+003, 5.589278e-001
3.978427e+003, 5.575526e-001
3.980355e+003, 5.581805e-001
3.982284e+003, 5.585001e-001
3.984212e+003, 5.586058e-001
3.986141e+003, 5.586266e-001
3.988069e+003, 5.593579e-001
3.989998e+003, 5.594894e-001
3.991926e+003, 5.595199e-001
3.993854e+003, 5.591277e-001
3.995783e+003, 5.595269e-001
3.997711e+003, 5.597427e-001
3.999640e+003, 5.600121e-001
##END=



