##NAMES=Sigloite
##RRUFFID=R050576
##IDEAL CHEMISTRY=Fe^3+^Al_2_(PO_4_)_2_(OH)_3_&#183;7H_2_O
##LOCALITY=Viloco, Bolivia
##OWNER=RRUFF
##SOURCE=University of Arizona Mineral Museum
##DESCRIPTION=Tan colored prismatic crystals
##STATUS=The identification of this mineral has been confirmed by X-ray diffraction.
##URL=rruff.info/R050576
3.991926e+002, 2.238166e-001
4.011211e+002, 2.193612e-001
4.030495e+002, 2.188974e-001
4.049780e+002, 2.191132e-001
4.069065e+002, 2.176119e-001
4.088349e+002, 2.161398e-001
4.107634e+002, 2.156288e-001
4.126919e+002, 2.164188e-001
4.146203e+002, 2.176848e-001
4.165488e+002, 2.155493e-001
4.184773e+002, 2.117963e-001
4.204057e+002, 2.126400e-001
4.223342e+002, 2.176523e-001
4.242627e+002, 2.196104e-001
4.261911e+002, 2.224852e-001
4.281196e+002, 2.222660e-001
4.300481e+002, 2.197237e-001
4.319765e+002, 2.195100e-001
4.339050e+002, 2.208200e-001
4.358335e+002, 2.198842e-001
4.377619e+002, 2.189173e-001
4.396904e+002, 2.196970e-001
4.416189e+002, 2.182168e-001
4.435473e+002, 2.137878e-001
4.454758e+002, 2.094267e-001
4.474043e+002, 2.050521e-001
4.493327e+002, 1.997180e-001
4.512612e+002, 1.964863e-001
4.531897e+002, 1.940562e-001
4.551181e+002, 1.902804e-001
4.570466e+002, 1.867455e-001
4.589751e+002, 1.856652e-001
4.609035e+002, 1.851641e-001
4.628320e+002, 1.836457e-001
4.647605e+002, 1.827675e-001
4.666889e+002, 1.819718e-001
4.686174e+002, 1.813261e-001
4.705459e+002, 1.814260e-001
4.724743e+002, 1.805743e-001
4.744028e+002, 1.789057e-001
4.763313e+002, 1.778245e-001
4.782597e+002, 1.770200e-001
4.801882e+002, 1.768339e-001
4.821167e+002, 1.772413e-001
4.840451e+002, 1.782843e-001
4.859736e+002, 1.802884e-001
4.879021e+002, 1.826883e-001
4.898305e+002, 1.854490e-001
4.917590e+002, 1.890186e-001
4.936875e+002, 1.930981e-001
4.956159e+002, 1.960036e-001
4.975444e+002, 1.984955e-001
4.994729e+002, 2.007857e-001
5.014013e+002, 2.032508e-001
5.033298e+002, 2.059359e-001
5.052583e+002, 2.091190e-001
5.071867e+002, 2.119878e-001
5.091152e+002, 2.135318e-001
5.110437e+002, 2.152107e-001
5.129721e+002, 2.173077e-001
5.149006e+002, 2.184271e-001
5.168290e+002, 2.188983e-001
5.187575e+002, 2.187560e-001
5.206860e+002, 2.195241e-001
5.226144e+002, 2.208132e-001
5.245429e+002, 2.230073e-001
5.264714e+002, 2.234824e-001
5.283998e+002, 2.231242e-001
5.303283e+002, 2.242283e-001
5.322568e+002, 2.259320e-001
5.341852e+002, 2.271534e-001
5.361137e+002, 2.292794e-001
5.380422e+002, 2.313830e-001
5.399706e+002, 2.326189e-001
5.418991e+002, 2.336638e-001
5.438276e+002, 2.348748e-001
5.457560e+002, 2.360241e-001
5.476845e+002, 2.371419e-001
5.496130e+002, 2.384489e-001
5.515414e+002, 2.398351e-001
5.534699e+002, 2.407832e-001
5.553984e+002, 2.413061e-001
5.573268e+002, 2.419137e-001
5.592553e+002, 2.411659e-001
5.611838e+002, 2.392244e-001
5.631122e+002, 2.373126e-001
5.650407e+002, 2.342204e-001
5.669692e+002, 2.292680e-001
5.688976e+002, 2.227045e-001
5.708261e+002, 2.159841e-001
5.727546e+002, 2.089557e-001
5.746830e+002, 2.027983e-001
5.766115e+002, 1.972706e-001
5.785400e+002, 1.933185e-001
5.804684e+002, 1.906148e-001
5.823969e+002, 1.888015e-001
5.843254e+002, 1.870769e-001
5.862538e+002, 1.860981e-001
5.881823e+002, 1.855726e-001
5.901108e+002, 1.848805e-001
5.920392e+002, 1.846166e-001
5.939677e+002, 1.844358e-001
5.958962e+002, 1.848182e-001
5.978246e+002, 1.859502e-001
5.997531e+002, 1.872298e-001
6.016816e+002, 1.889073e-001
6.036100e+002, 1.902773e-001
6.055385e+002, 1.913583e-001
6.074670e+002, 1.929071e-001
6.093954e+002, 1.941770e-001
6.113239e+002, 1.954443e-001
6.132524e+002, 1.965062e-001
6.151808e+002, 1.972567e-001
6.171093e+002, 1.983592e-001
6.190378e+002, 1.996668e-001
6.209662e+002, 2.005269e-001
6.228947e+002, 2.015043e-001
6.248232e+002, 2.023116e-001
6.267516e+002, 2.031447e-001
6.286801e+002, 2.036081e-001
6.306086e+002, 2.035820e-001
6.325370e+002, 2.035635e-001
6.344655e+002, 2.034894e-001
6.363940e+002, 2.032246e-001
6.383224e+002, 2.025333e-001
6.402509e+002, 2.014571e-001
6.421794e+002, 2.000387e-001
6.441078e+002, 1.984752e-001
6.460363e+002, 1.963313e-001
6.479648e+002, 1.936348e-001
6.498932e+002, 1.905735e-001
6.518217e+002, 1.869554e-001
6.537502e+002, 1.830572e-001
6.556786e+002, 1.794677e-001
6.576071e+002, 1.755679e-001
6.595356e+002, 1.717610e-001
6.614641e+002, 1.682861e-001
6.633925e+002, 1.650203e-001
6.653210e+002, 1.620870e-001
6.672495e+002, 1.594588e-001
6.691779e+002, 1.567628e-001
6.711064e+002, 1.540033e-001
6.730349e+002, 1.514330e-001
6.749633e+002, 1.491286e-001
6.768918e+002, 1.469114e-001
6.788203e+002, 1.441989e-001
6.807487e+002, 1.413159e-001
6.826772e+002, 1.385842e-001
6.846057e+002, 1.359050e-001
6.865341e+002, 1.331280e-001
6.884626e+002, 1.301981e-001
6.903911e+002, 1.274250e-001
6.923195e+002, 1.248219e-001
6.942480e+002, 1.221538e-001
6.961765e+002, 1.196823e-001
6.981049e+002, 1.170524e-001
7.000334e+002, 1.145685e-001
7.019619e+002, 1.123421e-001
7.038903e+002, 1.106437e-001
7.058188e+002, 1.088397e-001
7.077473e+002, 1.068910e-001
7.096757e+002, 1.049079e-001
7.116042e+002, 1.033562e-001
7.135327e+002, 1.018704e-001
7.154611e+002, 1.002421e-001
7.173896e+002, 9.878347e-002
7.193181e+002, 9.738520e-002
7.212465e+002, 9.579284e-002
7.231750e+002, 9.444521e-002
7.251035e+002, 9.328600e-002
7.270319e+002, 9.168311e-002
7.289604e+002, 9.019288e-002
7.308889e+002, 8.893504e-002
7.328173e+002, 8.752770e-002
7.347458e+002, 8.612781e-002
7.366743e+002, 8.500016e-002
7.386027e+002, 8.389880e-002
7.405312e+002, 8.260434e-002
7.424597e+002, 8.128884e-002
7.443881e+002, 8.003425e-002
7.463166e+002, 7.880557e-002
7.482451e+002, 7.772562e-002
7.501735e+002, 7.689711e-002
7.521020e+002, 7.614285e-002
7.540305e+002, 7.534277e-002
7.559589e+002, 7.480372e-002
7.578874e+002, 7.413937e-002
7.598159e+002, 7.376054e-002
7.617443e+002, 7.350442e-002
7.636728e+002, 7.314243e-002
7.656013e+002, 7.289258e-002
7.675297e+002, 7.290945e-002
7.694582e+002, 7.284413e-002
7.713867e+002, 7.288477e-002
7.733151e+002, 7.278234e-002
7.752436e+002, 7.290819e-002
7.771721e+002, 7.311405e-002
7.791005e+002, 7.337224e-002
7.810290e+002, 7.347873e-002
7.829575e+002, 7.342931e-002
7.848859e+002, 7.340269e-002
7.868144e+002, 7.370327e-002
7.887429e+002, 7.393208e-002
7.906713e+002, 7.424849e-002
7.925998e+002, 7.440545e-002
7.945283e+002, 7.444734e-002
7.964567e+002, 7.469527e-002
7.983852e+002, 7.468989e-002
8.003137e+002, 7.469623e-002
8.022421e+002, 7.495378e-002
8.041706e+002, 7.534111e-002
8.060991e+002, 7.561086e-002
8.080275e+002, 7.578374e-002
8.099560e+002, 7.606812e-002
8.118845e+002, 7.627459e-002
8.138129e+002, 7.634801e-002
8.157414e+002, 7.640820e-002
8.176699e+002, 7.654723e-002
8.195983e+002, 7.673609e-002
8.215268e+002, 7.697397e-002
8.234553e+002, 7.717633e-002
8.253837e+002, 7.742507e-002
8.273122e+002, 7.777373e-002
8.292407e+002, 7.797278e-002
8.311691e+002, 7.818027e-002
8.330976e+002, 7.820375e-002
8.350261e+002, 7.837447e-002
8.369545e+002, 7.874844e-002
8.388830e+002, 7.925668e-002
8.408115e+002, 7.962838e-002
8.427399e+002, 8.006895e-002
8.446684e+002, 8.068787e-002
8.465969e+002, 8.127286e-002
8.485253e+002, 8.175226e-002
8.504538e+002, 8.234090e-002
8.523823e+002, 8.303621e-002
8.543107e+002, 8.363810e-002
8.562392e+002, 8.431875e-002
8.581677e+002, 8.558545e-002
8.600961e+002, 8.682667e-002
8.620246e+002, 8.782327e-002
8.639531e+002, 8.883264e-002
8.658815e+002, 9.012228e-002
8.678100e+002, 9.166288e-002
8.697385e+002, 9.308495e-002
8.716669e+002, 9.463883e-002
8.735954e+002, 9.646901e-002
8.755239e+002, 9.840923e-002
8.774523e+002, 1.003118e-001
8.793808e+002, 1.023533e-001
8.813093e+002, 1.045630e-001
8.832377e+002, 1.066507e-001
8.851662e+002, 1.086260e-001
8.870947e+002, 1.108617e-001
8.890231e+002, 1.131977e-001
8.909516e+002, 1.155672e-001
8.928801e+002, 1.179350e-001
8.948085e+002, 1.203267e-001
8.967370e+002, 1.227020e-001
8.986655e+002, 1.251337e-001
9.005939e+002, 1.275314e-001
9.025224e+002, 1.301294e-001
9.044509e+002, 1.326787e-001
9.063793e+002, 1.353996e-001
9.083078e+002, 1.382712e-001
9.102363e+002, 1.412052e-001
9.121647e+002, 1.442153e-001
9.140932e+002, 1.472721e-001
9.160217e+002, 1.503431e-001
9.179501e+002, 1.533785e-001
9.198786e+002, 1.564106e-001
9.218071e+002, 1.593537e-001
9.237355e+002, 1.621156e-001
9.256640e+002, 1.647896e-001
9.275925e+002, 1.672374e-001
9.295209e+002, 1.693488e-001
9.314494e+002, 1.711322e-001
9.333779e+002, 1.726497e-001
9.353063e+002, 1.739918e-001
9.372348e+002, 1.754317e-001
9.391633e+002, 1.766662e-001
9.410917e+002, 1.780234e-001
9.430202e+002, 1.795979e-001
9.449487e+002, 1.814948e-001
9.468771e+002, 1.839537e-001
9.488056e+002, 1.866453e-001
9.507341e+002, 1.896630e-001
9.526625e+002, 1.933819e-001
9.545910e+002, 1.976177e-001
9.565195e+002, 2.022258e-001
9.584479e+002, 2.076798e-001
9.603764e+002, 2.138872e-001
9.623049e+002, 2.203380e-001
9.642333e+002, 2.272570e-001
9.661618e+002, 2.349575e-001
9.680903e+002, 2.431295e-001
9.700187e+002, 2.515960e-001
9.719472e+002, 2.601874e-001
9.738757e+002, 2.690702e-001
9.758041e+002, 2.781649e-001
9.777326e+002, 2.871806e-001
9.796611e+002, 2.963199e-001
9.815895e+002, 3.054086e-001
9.835180e+002, 3.142168e-001
9.854465e+002, 3.223716e-001
9.873749e+002, 3.294865e-001
9.893034e+002, 3.352099e-001
9.912319e+002, 3.391916e-001
9.931603e+002, 3.411581e-001
9.950888e+002, 3.413911e-001
9.970173e+002, 3.405193e-001
9.989457e+002, 3.394324e-001
1.000874e+003, 3.387598e-001
1.002803e+003, 3.385224e-001
1.004731e+003, 3.388188e-001
1.006660e+003, 3.391136e-001
1.008588e+003, 3.394291e-001
1.010517e+003, 3.398075e-001
1.012445e+003, 3.403580e-001
1.014373e+003, 3.418554e-001
1.016302e+003, 3.449331e-001
1.018230e+003, 3.495304e-001
1.020159e+003, 3.547300e-001
1.022087e+003, 3.596655e-001
1.024016e+003, 3.634026e-001
1.025944e+003, 3.654115e-001
1.027873e+003, 3.658160e-001
1.029801e+003, 3.650328e-001
1.031730e+003, 3.631676e-001
1.033658e+003, 3.605077e-001
1.035587e+003, 3.580094e-001
1.037515e+003, 3.555850e-001
1.039443e+003, 3.529203e-001
1.041372e+003, 3.501413e-001
1.043300e+003, 3.474372e-001
1.045229e+003, 3.441742e-001
1.047157e+003, 3.398798e-001
1.049086e+003, 3.342944e-001
1.051014e+003, 3.277649e-001
1.052943e+003, 3.204395e-001
1.054871e+003, 3.125499e-001
1.056800e+003, 3.048387e-001
1.058728e+003, 2.974408e-001
1.060657e+003, 2.905411e-001
1.062585e+003, 2.844284e-001
1.064514e+003, 2.786574e-001
1.066442e+003, 2.730074e-001
1.068370e+003, 2.674793e-001
1.070299e+003, 2.618589e-001
1.072227e+003, 2.561545e-001
1.074156e+003, 2.500124e-001
1.076084e+003, 2.432053e-001
1.078013e+003, 2.360138e-001
1.079941e+003, 2.285074e-001
1.081870e+003, 2.206914e-001
1.083798e+003, 2.128240e-001
1.085727e+003, 2.049768e-001
1.087655e+003, 1.971782e-001
1.089584e+003, 1.893908e-001
1.091512e+003, 1.817835e-001
1.093441e+003, 1.744442e-001
1.095369e+003, 1.674763e-001
1.097297e+003, 1.609014e-001
1.099226e+003, 1.547148e-001
1.101154e+003, 1.490463e-001
1.103083e+003, 1.435991e-001
1.105011e+003, 1.380228e-001
1.106940e+003, 1.323162e-001
1.108868e+003, 1.264398e-001
1.110797e+003, 1.207741e-001
1.112725e+003, 1.152846e-001
1.114654e+003, 1.099573e-001
1.116582e+003, 1.049509e-001
1.118511e+003, 9.999642e-002
1.120439e+003, 9.505968e-002
1.122368e+003, 9.042618e-002
1.124296e+003, 8.604778e-002
1.126224e+003, 8.189797e-002
1.128153e+003, 7.802872e-002
1.130081e+003, 7.473280e-002
1.132010e+003, 7.187930e-002
1.133938e+003, 6.928490e-002
1.135867e+003, 6.691480e-002
1.137795e+003, 6.483016e-002
1.139724e+003, 6.312189e-002
1.141652e+003, 6.164087e-002
1.143581e+003, 6.030745e-002
1.145509e+003, 5.928446e-002
1.147438e+003, 5.859920e-002
1.149366e+003, 5.817437e-002
1.151295e+003, 5.769079e-002
1.153223e+003, 5.704426e-002
1.155151e+003, 5.633891e-002
1.157080e+003, 5.575940e-002
1.159008e+003, 5.501971e-002
1.160937e+003, 5.431025e-002
1.162865e+003, 5.342668e-002
1.164794e+003, 5.197024e-002
1.166722e+003, 5.001479e-002
1.168651e+003, 4.787067e-002
1.170579e+003, 4.581558e-002
1.172508e+003, 4.396716e-002
1.174436e+003, 4.234563e-002
1.176365e+003, 4.103466e-002
1.178293e+003, 3.996795e-002
1.180222e+003, 3.901052e-002
1.182150e+003, 3.808971e-002
1.184078e+003, 3.728262e-002
1.186007e+003, 3.644777e-002
1.187935e+003, 3.565420e-002
1.189864e+003, 3.491705e-002
1.191792e+003, 3.423668e-002
1.193721e+003, 3.361876e-002
1.195649e+003, 3.296920e-002
1.197578e+003, 3.235424e-002
1.199506e+003, 3.169654e-002
1.201435e+003, 3.097309e-002
1.203363e+003, 3.051044e-002
1.205292e+003, 3.006240e-002
1.207220e+003, 2.950689e-002
1.209149e+003, 2.903990e-002
1.211077e+003, 2.848858e-002
1.213005e+003, 2.792875e-002
1.214934e+003, 2.740219e-002
1.216862e+003, 2.681586e-002
1.218791e+003, 2.633825e-002
1.220719e+003, 2.590786e-002
1.222648e+003, 2.547168e-002
1.224576e+003, 2.499842e-002
1.226505e+003, 2.452582e-002
1.228433e+003, 2.409400e-002
1.230362e+003, 2.376274e-002
1.232290e+003, 2.340239e-002
1.234219e+003, 2.307989e-002
1.236147e+003, 2.274275e-002
1.238076e+003, 2.243945e-002
1.240004e+003, 2.222914e-002
1.241932e+003, 2.210672e-002
1.243861e+003, 2.187457e-002
1.245789e+003, 2.176613e-002
1.247718e+003, 2.159749e-002
1.249646e+003, 2.146599e-002
1.251575e+003, 2.135844e-002
1.253503e+003, 2.126998e-002
1.255432e+003, 2.116590e-002
1.257360e+003, 2.102772e-002
1.259289e+003, 2.093643e-002
1.261217e+003, 2.096809e-002
1.263146e+003, 2.100239e-002
1.265074e+003, 2.098550e-002
1.267003e+003, 2.104749e-002
1.268931e+003, 2.115447e-002
1.270859e+003, 2.119811e-002
1.272788e+003, 2.131691e-002
1.274716e+003, 2.142409e-002
1.276645e+003, 2.130936e-002
1.278573e+003, 2.134039e-002
1.280502e+003, 2.144448e-002
1.282430e+003, 2.146537e-002
1.284359e+003, 2.152711e-002
1.286287e+003, 2.155438e-002
1.288216e+003, 2.147518e-002
1.290144e+003, 2.140233e-002
1.292073e+003, 2.137970e-002
1.294001e+003, 2.139611e-002
1.295930e+003, 2.140328e-002
1.297858e+003, 2.127025e-002
1.299786e+003, 2.128880e-002
1.301715e+003, 2.146242e-002
1.303643e+003, 2.163559e-002
1.305572e+003, 2.160662e-002
1.307500e+003, 2.146571e-002
1.309429e+003, 2.139911e-002
1.311357e+003, 2.142292e-002
1.313286e+003, 2.133454e-002
1.315214e+003, 2.128704e-002
1.317143e+003, 2.116033e-002
1.319071e+003, 2.116483e-002
1.321000e+003, 2.131941e-002
1.322928e+003, 2.140418e-002
1.324857e+003, 2.148992e-002
1.326785e+003, 2.151915e-002
1.328714e+003, 2.130908e-002
1.330642e+003, 2.125028e-002
1.332570e+003, 2.140357e-002
1.334499e+003, 2.147033e-002
1.336427e+003, 2.148171e-002
1.338356e+003, 2.137759e-002
1.340284e+003, 2.140795e-002
1.342213e+003, 2.166279e-002
1.344141e+003, 2.172845e-002
1.346070e+003, 2.172803e-002
1.347998e+003, 2.168423e-002
1.349927e+003, 2.173018e-002
1.351855e+003, 2.182909e-002
1.353784e+003, 2.182990e-002
1.355712e+003, 2.187728e-002
1.357641e+003, 2.196140e-002
1.359569e+003, 2.193942e-002
1.361497e+003, 2.188012e-002
1.363426e+003, 2.193195e-002
1.365354e+003, 2.221714e-002
1.367283e+003, 2.227093e-002
1.369211e+003, 2.230223e-002
1.371140e+003, 2.233889e-002
1.373068e+003, 2.235078e-002
1.374997e+003, 2.243816e-002
1.376925e+003, 2.268663e-002
1.378854e+003, 2.284147e-002
1.380782e+003, 2.290785e-002
1.382711e+003, 2.291784e-002
1.384639e+003, 2.297747e-002
1.386568e+003, 2.274762e-002
1.388496e+003, 2.298064e-002
1.390424e+003, 2.353056e-002
1.392353e+003, 2.360362e-002
1.394281e+003, 2.324418e-002
1.396210e+003, 2.352474e-002
1.398138e+003, 2.374514e-002
1.400067e+003, 2.404531e-002
1.401995e+003, 2.456882e-002
1.403924e+003, 2.464492e-002
1.405852e+003, 2.474356e-002
1.407781e+003, 2.507647e-002
1.409709e+003, 2.530077e-002
1.411638e+003, 2.550209e-002
1.413566e+003, 2.572379e-002
1.415495e+003, 2.581120e-002
1.417423e+003, 2.540735e-002
1.419351e+003, 2.511845e-002
1.421280e+003, 2.599264e-002
1.423208e+003, 2.651155e-002
1.425137e+003, 2.666926e-002
1.427065e+003, 2.695675e-002
1.428994e+003, 2.708011e-002
1.430922e+003, 2.721916e-002
1.432851e+003, 2.740004e-002
1.434779e+003, 2.706326e-002
1.436708e+003, 2.653693e-002
1.438636e+003, 2.733605e-002
1.440565e+003, 2.803258e-002
1.442493e+003, 2.818358e-002
1.444422e+003, 2.821815e-002
1.446350e+003, 2.818470e-002
1.448278e+003, 2.810154e-002
1.450207e+003, 2.830473e-002
1.452135e+003, 2.836326e-002
1.454064e+003, 2.808540e-002
1.455992e+003, 2.667893e-002
1.457921e+003, 2.665707e-002
1.459849e+003, 2.801387e-002
1.461778e+003, 2.844954e-002
1.463706e+003, 2.812170e-002
1.465635e+003, 2.814363e-002
1.467563e+003, 2.842191e-002
1.469492e+003, 2.831135e-002
1.471420e+003, 2.750583e-002
1.473349e+003, 2.724734e-002
1.475277e+003, 2.793990e-002
1.477205e+003, 2.856159e-002
1.479134e+003, 2.905794e-002
1.481062e+003, 2.910877e-002
1.482991e+003, 2.929209e-002
1.484919e+003, 2.933178e-002
1.486848e+003, 2.911762e-002
1.488776e+003, 2.891416e-002
1.490705e+003, 2.918434e-002
1.492633e+003, 2.993566e-002
1.494562e+003, 2.971044e-002
1.496490e+003, 2.927270e-002
1.498419e+003, 2.986806e-002
1.500347e+003, 3.058361e-002
1.502276e+003, 3.110721e-002
1.504204e+003, 3.028139e-002
1.506132e+003, 2.891456e-002
1.508061e+003, 2.999328e-002
1.509989e+003, 3.173227e-002
1.511918e+003, 3.217010e-002
1.513846e+003, 3.245994e-002
1.515775e+003, 3.241294e-002
1.517703e+003, 3.251912e-002
1.519632e+003, 3.225290e-002
1.521560e+003, 3.198232e-002
1.523489e+003, 3.322963e-002
1.525417e+003, 3.403328e-002
1.527346e+003, 3.480767e-002
1.529274e+003, 3.545276e-002
1.531203e+003, 3.573765e-002
1.533131e+003, 3.570390e-002
1.535059e+003, 3.643572e-002
1.536988e+003, 3.641909e-002
1.538916e+003, 3.490587e-002
1.540845e+003, 3.524980e-002
1.542773e+003, 3.710876e-002
1.544702e+003, 3.850083e-002
1.546630e+003, 3.957171e-002
1.548559e+003, 4.028903e-002
1.550487e+003, 4.074832e-002
1.552416e+003, 4.096305e-002
1.554344e+003, 4.097391e-002
1.556273e+003, 4.087626e-002
1.558201e+003, 3.948024e-002
1.560130e+003, 4.047951e-002
1.562058e+003, 4.357288e-002
1.563986e+003, 4.502353e-002
1.565915e+003, 4.574506e-002
1.567843e+003, 4.605650e-002
1.569772e+003, 4.628222e-002
1.571700e+003, 4.743810e-002
1.573629e+003, 4.778803e-002
1.575557e+003, 4.699142e-002
1.577486e+003, 4.830551e-002
1.579414e+003, 5.036481e-002
1.581343e+003, 5.128271e-002
1.583271e+003, 5.202093e-002
1.585200e+003, 5.266831e-002
1.587128e+003, 5.325237e-002
1.589057e+003, 5.389062e-002
1.590985e+003, 5.473129e-002
1.592913e+003, 5.550219e-002
1.594842e+003, 5.630327e-002
1.596770e+003, 5.708363e-002
1.598699e+003, 5.779552e-002
1.600627e+003, 5.854925e-002
1.602556e+003, 5.915029e-002
1.604484e+003, 5.962775e-002
1.606413e+003, 6.011810e-002
1.608341e+003, 6.042457e-002
1.610270e+003, 6.079428e-002
1.612198e+003, 6.132983e-002
1.614127e+003, 6.130080e-002
1.616055e+003, 6.023775e-002
1.617984e+003, 6.087406e-002
1.619912e+003, 6.205157e-002
1.621840e+003, 6.165038e-002
1.623769e+003, 6.132802e-002
1.625697e+003, 6.159249e-002
1.627626e+003, 6.132874e-002
1.629554e+003, 6.109079e-002
1.631483e+003, 6.090320e-002
1.633411e+003, 5.955214e-002
1.635340e+003, 5.767449e-002
1.637268e+003, 5.786124e-002
1.639197e+003, 5.819981e-002
1.641125e+003, 5.748113e-002
1.643054e+003, 5.646509e-002
1.644982e+003, 5.450113e-002
1.646911e+003, 5.333312e-002
1.648839e+003, 5.328540e-002
1.650767e+003, 5.113734e-002
1.652696e+003, 4.750926e-002
1.654624e+003, 4.835475e-002
1.656553e+003, 4.985510e-002
1.658481e+003, 4.915611e-002
1.660410e+003, 4.778249e-002
1.662338e+003, 4.636868e-002
1.664267e+003, 4.579147e-002
1.666195e+003, 4.516517e-002
1.668124e+003, 4.344941e-002
1.670052e+003, 4.223197e-002
1.671981e+003, 4.187123e-002
1.673909e+003, 4.064007e-002
1.675838e+003, 3.945668e-002
1.677766e+003, 3.938942e-002
1.679694e+003, 3.865475e-002
1.681623e+003, 3.727261e-002
1.683551e+003, 3.450427e-002
1.685480e+003, 3.402851e-002
1.687408e+003, 3.518891e-002
1.689337e+003, 3.491988e-002
1.691265e+003, 3.448218e-002
1.693194e+003, 3.343140e-002
1.695122e+003, 3.079896e-002
1.697051e+003, 3.016223e-002
1.698979e+003, 2.931685e-002
1.700908e+003, 2.841272e-002
1.702836e+003, 2.956919e-002
1.704765e+003, 2.919046e-002
1.706693e+003, 2.886388e-002
1.708621e+003, 2.859666e-002
1.710550e+003, 2.829451e-002
1.712478e+003, 2.758683e-002
1.714407e+003, 2.646955e-002
1.716335e+003, 2.487865e-002
1.718264e+003, 2.459417e-002
1.720192e+003, 2.569527e-002
1.722121e+003, 2.587503e-002
1.724049e+003, 2.542052e-002
1.725978e+003, 2.510301e-002
1.727906e+003, 2.471127e-002
1.729835e+003, 2.419926e-002
1.731763e+003, 2.292710e-002
1.733692e+003, 2.115135e-002
1.735620e+003, 2.184380e-002
1.737548e+003, 2.265241e-002
1.739477e+003, 2.210258e-002
1.741405e+003, 2.205058e-002
1.743334e+003, 2.186208e-002
1.745262e+003, 2.179694e-002
1.747191e+003, 2.157412e-002
1.749119e+003, 2.106561e-002
1.751048e+003, 2.071762e-002
1.752976e+003, 2.150446e-002
1.754905e+003, 2.181043e-002
1.756833e+003, 2.171798e-002
1.758762e+003, 2.191891e-002
1.760690e+003, 2.149319e-002
1.762619e+003, 2.145324e-002
1.764547e+003, 2.202197e-002
1.766475e+003, 2.173982e-002
1.768404e+003, 2.125543e-002
1.770332e+003, 2.081100e-002
1.772261e+003, 2.019027e-002
1.774189e+003, 2.101192e-002
1.776118e+003, 2.183151e-002
1.778046e+003, 2.190481e-002
1.779975e+003, 2.160630e-002
1.781903e+003, 2.156883e-002
1.783832e+003, 2.144368e-002
1.785760e+003, 2.151482e-002
1.787689e+003, 2.200650e-002
1.789617e+003, 2.153693e-002
1.791546e+003, 2.043781e-002
1.793474e+003, 2.054146e-002
1.795402e+003, 2.127876e-002
1.797331e+003, 2.131951e-002
1.799259e+003, 2.111086e-002
1.801188e+003, 2.097488e-002
1.803116e+003, 2.115246e-002
1.805045e+003, 2.114070e-002
1.806973e+003, 2.121319e-002
1.808902e+003, 2.104351e-002
1.810830e+003, 2.102888e-002
1.812759e+003, 2.114896e-002
1.814687e+003, 2.112292e-002
1.816616e+003, 2.089875e-002
1.818544e+003, 2.110128e-002
1.820473e+003, 2.122089e-002
1.822401e+003, 2.116135e-002
1.824329e+003, 2.088905e-002
1.826258e+003, 2.086916e-002
1.828186e+003, 2.052960e-002
1.830115e+003, 2.033533e-002
1.832043e+003, 2.057098e-002
1.833972e+003, 2.040934e-002
1.835900e+003, 2.048007e-002
1.837829e+003, 2.064020e-002
1.839757e+003, 2.050740e-002
1.841686e+003, 2.042524e-002
1.843614e+003, 1.988412e-002
1.845543e+003, 2.001171e-002
1.847471e+003, 2.036385e-002
1.849400e+003, 2.047767e-002
1.851328e+003, 2.054279e-002
1.853256e+003, 2.023835e-002
1.855185e+003, 2.018600e-002
1.857113e+003, 2.039620e-002
1.859042e+003, 2.047970e-002
1.860970e+003, 2.038310e-002
1.862899e+003, 2.033970e-002
1.864827e+003, 2.004221e-002
1.866756e+003, 1.946290e-002
1.868684e+003, 1.908922e-002
1.870613e+003, 1.951542e-002
1.872541e+003, 1.977019e-002
1.874470e+003, 1.955631e-002
1.876398e+003, 1.945877e-002
1.878327e+003, 1.966083e-002
1.880255e+003, 1.987239e-002
1.882183e+003, 1.971734e-002
1.884112e+003, 1.947675e-002
1.886040e+003, 1.939286e-002
1.887969e+003, 1.922675e-002
1.889897e+003, 1.926686e-002
1.891826e+003, 1.975784e-002
1.893754e+003, 1.991118e-002
1.895683e+003, 1.974266e-002
1.897611e+003, 1.978523e-002
1.899540e+003, 1.974953e-002
1.901468e+003, 1.927886e-002
1.903397e+003, 1.925187e-002
1.905325e+003, 1.935174e-002
1.907254e+003, 1.904206e-002
1.909182e+003, 1.863602e-002
1.911110e+003, 1.891609e-002
1.913039e+003, 1.919166e-002
1.914967e+003, 1.909160e-002
1.916896e+003, 1.842243e-002
1.918824e+003, 1.851104e-002
1.920753e+003, 1.873720e-002
1.922681e+003, 1.826865e-002
1.924610e+003, 1.830563e-002
1.926538e+003, 1.863282e-002
1.928467e+003, 1.872770e-002
1.930395e+003, 1.860381e-002
1.932324e+003, 1.846211e-002
1.934252e+003, 1.842264e-002
1.936181e+003, 1.840527e-002
1.938109e+003, 1.843897e-002
1.940037e+003, 1.830465e-002
1.941966e+003, 1.809402e-002
1.943894e+003, 1.835146e-002
1.945823e+003, 1.850200e-002
1.947751e+003, 1.788302e-002
1.949680e+003, 1.765386e-002
1.951608e+003, 1.723180e-002
1.953537e+003, 1.660364e-002
1.955465e+003, 1.589682e-002
1.957394e+003, 1.675194e-002
1.959322e+003, 1.779313e-002
1.961251e+003, 1.780059e-002
1.963179e+003, 1.706437e-002
1.965108e+003, 1.658008e-002
1.967036e+003, 1.600223e-002
1.968964e+003, 1.517973e-002
1.970893e+003, 1.558293e-002
1.972821e+003, 1.610956e-002
1.974750e+003, 1.591993e-002
1.976678e+003, 1.628591e-002
1.978607e+003, 1.722922e-002
1.980535e+003, 1.770630e-002
1.982464e+003, 1.756995e-002
1.984392e+003, 1.757053e-002
1.986321e+003, 1.662038e-002
1.988249e+003, 1.572987e-002
1.990178e+003, 1.539617e-002
1.992106e+003, 1.606473e-002
1.994035e+003, 1.680032e-002
1.995963e+003, 1.666871e-002
1.997891e+003, 1.673777e-002
1.999820e+003, 1.710639e-002
2.001748e+003, 1.678614e-002
2.003677e+003, 1.547960e-002
2.005605e+003, 1.528870e-002
2.007534e+003, 1.666730e-002
2.009462e+003, 1.739440e-002
2.011391e+003, 1.639137e-002
2.013319e+003, 1.554810e-002
2.015248e+003, 1.518442e-002
2.017176e+003, 1.594042e-002
2.019105e+003, 1.643408e-002
2.021033e+003, 1.558828e-002
2.022962e+003, 1.538328e-002
2.024890e+003, 1.582464e-002
2.026818e+003, 1.608415e-002
2.028747e+003, 1.677754e-002
2.030675e+003, 1.702490e-002
2.032604e+003, 1.760386e-002
2.034532e+003, 1.757009e-002
2.036461e+003, 1.662738e-002
2.038389e+003, 1.709186e-002
2.040318e+003, 1.677341e-002
2.042246e+003, 1.640831e-002
2.044175e+003, 1.667873e-002
2.046103e+003, 1.603498e-002
2.048031e+003, 1.627020e-002
2.049960e+003, 1.718191e-002
2.051888e+003, 1.689809e-002
2.053817e+003, 1.659808e-002
2.055745e+003, 1.626207e-002
2.057674e+003, 1.658008e-002
2.059602e+003, 1.645154e-002
2.061531e+003, 1.604110e-002
2.063459e+003, 1.547383e-002
2.065388e+003, 1.551964e-002
2.067316e+003, 1.610924e-002
2.069245e+003, 1.664402e-002
2.071173e+003, 1.686085e-002
2.073102e+003, 1.671834e-002
2.075030e+003, 1.689076e-002
2.076958e+003, 1.672592e-002
2.078887e+003, 1.668935e-002
2.080815e+003, 1.683896e-002
2.082744e+003, 1.637433e-002
2.084672e+003, 1.663132e-002
2.086601e+003, 1.690585e-002
2.088529e+003, 1.720333e-002
2.090458e+003, 1.663165e-002
2.092386e+003, 1.602723e-002
2.094315e+003, 1.650215e-002
2.096243e+003, 1.714552e-002
2.098172e+003, 1.693579e-002
2.100100e+003, 1.665283e-002
2.102029e+003, 1.665348e-002
2.103957e+003, 1.702113e-002
2.105885e+003, 1.750888e-002
2.107814e+003, 1.739636e-002
2.109742e+003, 1.705131e-002
2.111671e+003, 1.737205e-002
2.113599e+003, 1.734168e-002
2.115528e+003, 1.732627e-002
2.117456e+003, 1.704862e-002
2.119385e+003, 1.672285e-002
2.121313e+003, 1.647085e-002
2.123242e+003, 1.673114e-002
2.125170e+003, 1.705889e-002
2.127099e+003, 1.696014e-002
2.129027e+003, 1.673164e-002
2.130956e+003, 1.655987e-002
2.132884e+003, 1.583613e-002
2.134813e+003, 1.547798e-002
2.136741e+003, 1.562170e-002
2.138669e+003, 1.637019e-002
2.140598e+003, 1.670710e-002
2.142526e+003, 1.634067e-002
2.144455e+003, 1.603832e-002
2.146383e+003, 1.660914e-002
2.148312e+003, 1.703859e-002
2.150240e+003, 1.667000e-002
2.152169e+003, 1.626685e-002
2.154097e+003, 1.672896e-002
2.156026e+003, 1.640164e-002
2.157954e+003, 1.728125e-002
2.159883e+003, 1.977519e-002
2.161811e+003, 2.015836e-002
2.163740e+003, 1.963019e-002
2.165668e+003, 1.965548e-002
2.167596e+003, 2.089303e-002
2.169525e+003, 2.111411e-002
2.171453e+003, 1.938641e-002
2.173382e+003, 1.989518e-002
2.175310e+003, 2.026396e-002
2.177239e+003, 2.051988e-002
2.179167e+003, 1.993171e-002
2.181096e+003, 1.922812e-002
2.183024e+003, 2.044891e-002
2.184953e+003, 2.165135e-002
2.186881e+003, 2.162023e-002
2.188810e+003, 2.106564e-002
2.190738e+003, 2.042842e-002
2.192667e+003, 2.001026e-002
2.194595e+003, 2.066971e-002
2.196523e+003, 2.101865e-002
2.198452e+003, 2.122864e-002
2.200380e+003, 2.185188e-002
2.202309e+003, 2.183384e-002
2.204237e+003, 2.140008e-002
2.206166e+003, 2.128349e-002
2.208094e+003, 2.163436e-002
2.210023e+003, 2.194777e-002
2.211951e+003, 2.201233e-002
2.213880e+003, 2.237787e-002
2.215808e+003, 2.296336e-002
2.217737e+003, 2.310364e-002
2.219665e+003, 2.273834e-002
2.221594e+003, 2.211541e-002
2.223522e+003, 2.204223e-002
2.225450e+003, 2.202110e-002
2.227379e+003, 2.200867e-002
2.229307e+003, 2.212124e-002
2.231236e+003, 2.243595e-002
2.233164e+003, 2.278946e-002
2.235093e+003, 2.378678e-002
2.237021e+003, 2.396997e-002
2.238950e+003, 2.422607e-002
2.240878e+003, 2.462787e-002
2.242807e+003, 2.414299e-002
2.244735e+003, 2.356362e-002
2.246664e+003, 2.344914e-002
2.248592e+003, 2.387230e-002
2.250521e+003, 2.468029e-002
2.252449e+003, 2.424249e-002
2.254377e+003, 2.380724e-002
2.256306e+003, 2.363025e-002
2.258234e+003, 2.372847e-002
2.260163e+003, 2.424174e-002
2.262091e+003, 2.425327e-002
2.264020e+003, 2.419775e-002
2.265948e+003, 2.439874e-002
2.267877e+003, 2.457048e-002
2.269805e+003, 2.490973e-002
2.271734e+003, 2.472749e-002
2.273662e+003, 2.516995e-002
2.275591e+003, 2.614715e-002
2.277519e+003, 2.607327e-002
2.279448e+003, 2.595321e-002
2.281376e+003, 2.589185e-002
2.283304e+003, 2.556287e-002
2.285233e+003, 2.562650e-002
2.287161e+003, 2.603386e-002
2.289090e+003, 2.589927e-002
2.291018e+003, 2.564140e-002
2.292947e+003, 2.540666e-002
2.294875e+003, 2.510906e-002
2.296804e+003, 2.516361e-002
2.298732e+003, 2.566754e-002
2.300661e+003, 2.646222e-002
2.302589e+003, 2.662668e-002
2.304518e+003, 2.640491e-002
2.306446e+003, 2.614831e-002
2.308375e+003, 2.602932e-002
2.310303e+003, 2.592713e-002
2.312231e+003, 2.607186e-002
2.314160e+003, 2.664483e-002
2.316088e+003, 2.720959e-002
2.318017e+003, 2.746913e-002
2.319945e+003, 2.789999e-002
2.321874e+003, 2.813364e-002
2.323802e+003, 2.825445e-002
2.325731e+003, 2.798357e-002
2.327659e+003, 2.759086e-002
2.329588e+003, 2.752398e-002
2.331516e+003, 2.740164e-002
2.333445e+003, 2.748341e-002
2.335373e+003, 2.748808e-002
2.337302e+003, 2.735045e-002
2.339230e+003, 2.735691e-002
2.341158e+003, 2.743624e-002
2.343087e+003, 2.751696e-002
2.345015e+003, 2.740230e-002
2.346944e+003, 2.733177e-002
2.348872e+003, 2.692229e-002
2.350801e+003, 2.678692e-002
2.352729e+003, 2.717201e-002
2.354658e+003, 2.742611e-002
2.356586e+003, 2.753039e-002
2.358515e+003, 2.760948e-002
2.360443e+003, 2.794582e-002
2.362372e+003, 2.823744e-002
2.364300e+003, 2.808980e-002
2.366229e+003, 2.783489e-002
2.368157e+003, 2.774832e-002
2.370085e+003, 2.772010e-002
2.372014e+003, 2.774912e-002
2.373942e+003, 2.734345e-002
2.375871e+003, 2.722291e-002
2.377799e+003, 2.730129e-002
2.379728e+003, 2.714717e-002
2.381656e+003, 2.733859e-002
2.383585e+003, 2.735495e-002
2.385513e+003, 2.724693e-002
2.387442e+003, 2.744693e-002
2.389370e+003, 2.765885e-002
2.391299e+003, 2.751974e-002
2.393227e+003, 2.750375e-002
2.395156e+003, 2.741895e-002
2.397084e+003, 2.726367e-002
2.399012e+003, 2.754508e-002
2.400941e+003, 2.822603e-002
2.402869e+003, 2.804870e-002
2.404798e+003, 2.765957e-002
2.406726e+003, 2.813428e-002
2.408655e+003, 2.852420e-002
2.410583e+003, 2.830994e-002
2.412512e+003, 2.835582e-002
2.414440e+003, 2.869884e-002
2.416369e+003, 2.895471e-002
2.418297e+003, 2.880258e-002
2.420226e+003, 2.853115e-002
2.422154e+003, 2.853951e-002
2.424083e+003, 2.900920e-002
2.426011e+003, 2.902833e-002
2.427939e+003, 2.922341e-002
2.429868e+003, 2.942066e-002
2.431796e+003, 2.946540e-002
2.433725e+003, 2.919245e-002
2.435653e+003, 2.939500e-002
2.437582e+003, 2.962507e-002
2.439510e+003, 2.987261e-002
2.441439e+003, 3.011130e-002
2.443367e+003, 2.990873e-002
2.445296e+003, 2.963893e-002
2.447224e+003, 2.986942e-002
2.449153e+003, 3.009244e-002
2.451081e+003, 3.019037e-002
2.453010e+003, 3.032022e-002
2.454938e+003, 3.029449e-002
2.456866e+003, 3.039693e-002
2.458795e+003, 3.052637e-002
2.460723e+003, 3.076023e-002
2.462652e+003, 3.063908e-002
2.464580e+003, 3.047601e-002
2.466509e+003, 3.047757e-002
2.468437e+003, 3.029398e-002
2.470366e+003, 3.034054e-002
2.472294e+003, 3.054850e-002
2.474223e+003, 3.060142e-002
2.476151e+003, 3.095003e-002
2.478080e+003, 3.092046e-002
2.480008e+003, 3.085471e-002
2.481937e+003, 3.123254e-002
2.483865e+003, 3.132881e-002
2.485793e+003, 3.143442e-002
2.487722e+003, 3.131914e-002
2.489650e+003, 3.125461e-002
2.491579e+003, 3.131669e-002
2.493507e+003, 3.155168e-002
2.495436e+003, 3.188407e-002
2.497364e+003, 3.209185e-002
2.499293e+003, 3.189069e-002
2.501221e+003, 3.168080e-002
2.503150e+003, 3.192914e-002
2.505078e+003, 3.210843e-002
2.507007e+003, 3.243457e-002
2.508935e+003, 3.268561e-002
2.510864e+003, 3.220363e-002
2.512792e+003, 3.211284e-002
2.514720e+003, 3.263005e-002
2.516649e+003, 3.278625e-002
2.518577e+003, 3.296607e-002
2.520506e+003, 3.283950e-002
2.522434e+003, 3.286624e-002
2.524363e+003, 3.292480e-002
2.526291e+003, 3.312133e-002
2.528220e+003, 3.362975e-002
2.530148e+003, 3.358917e-002
2.532077e+003, 3.342579e-002
2.534005e+003, 3.327937e-002
2.535934e+003, 3.314197e-002
2.537862e+003, 3.328191e-002
2.539791e+003, 3.341397e-002
2.541719e+003, 3.337388e-002
2.543647e+003, 3.352246e-002
2.545576e+003, 3.389845e-002
2.547504e+003, 3.400264e-002
2.549433e+003, 3.430051e-002
2.551361e+003, 3.441618e-002
2.553290e+003, 3.454995e-002
2.555218e+003, 3.478184e-002
2.557147e+003, 3.449296e-002
2.559075e+003, 3.419463e-002
2.561004e+003, 3.460048e-002
2.562932e+003, 3.482486e-002
2.564861e+003, 3.489989e-002
2.566789e+003, 3.496624e-002
2.568718e+003, 3.517378e-002
2.570646e+003, 3.543673e-002
2.572574e+003, 3.546842e-002
2.574503e+003, 3.530544e-002
2.576431e+003, 3.529708e-002
2.578360e+003, 3.556951e-002
2.580288e+003, 3.581886e-002
2.582217e+003, 3.592876e-002
2.584145e+003, 3.641016e-002
2.586074e+003, 3.645494e-002
2.588002e+003, 3.637106e-002
2.589931e+003, 3.628667e-002
2.591859e+003, 3.648603e-002
2.593788e+003, 3.690000e-002
2.595716e+003, 3.708029e-002
2.597645e+003, 3.712197e-002
2.599573e+003, 3.733157e-002
2.601501e+003, 3.745653e-002
2.603430e+003, 3.763384e-002
2.605358e+003, 3.767841e-002
2.607287e+003, 3.795361e-002
2.609215e+003, 3.848635e-002
2.611144e+003, 3.841071e-002
2.613072e+003, 3.847948e-002
2.615001e+003, 3.875535e-002
2.616929e+003, 3.892641e-002
2.618858e+003, 3.907749e-002
2.620786e+003, 3.938281e-002
2.622715e+003, 3.970283e-002
2.624643e+003, 4.007468e-002
2.626572e+003, 4.009007e-002
2.628500e+003, 4.016877e-002
2.630428e+003, 4.049562e-002
2.632357e+003, 4.063538e-002
2.634285e+003, 4.064678e-002
2.636214e+003, 4.057790e-002
2.638142e+003, 4.064390e-002
2.640071e+003, 4.096567e-002
2.641999e+003, 4.144928e-002
2.643928e+003, 4.186185e-002
2.645856e+003, 4.196957e-002
2.647785e+003, 4.212346e-002
2.649713e+003, 4.250991e-002
2.651642e+003, 4.276776e-002
2.653570e+003, 4.262834e-002
2.655499e+003, 4.237313e-002
2.657427e+003, 4.246392e-002
2.659355e+003, 4.292884e-002
2.661284e+003, 4.318548e-002
2.663212e+003, 4.291823e-002
2.665141e+003, 4.276090e-002
2.667069e+003, 4.309401e-002
2.668998e+003, 4.342744e-002
2.670926e+003, 4.356669e-002
2.672855e+003, 4.372624e-002
2.674783e+003, 4.399273e-002
2.676712e+003, 4.422832e-002
2.678640e+003, 4.461470e-002
2.680569e+003, 4.500089e-002
2.682497e+003, 4.502919e-002
2.684426e+003, 4.524167e-002
2.686354e+003, 4.532461e-002
2.688282e+003, 4.547790e-002
2.690211e+003, 4.570943e-002
2.692139e+003, 4.594766e-002
2.694068e+003, 4.626442e-002
2.695996e+003, 4.679098e-002
2.697925e+003, 4.712518e-002
2.699853e+003, 4.716642e-002
2.701782e+003, 4.743786e-002
2.703710e+003, 4.775896e-002
2.705639e+003, 4.796510e-002
2.707567e+003, 4.819359e-002
2.709496e+003, 4.829572e-002
2.711424e+003, 4.847744e-002
2.713353e+003, 4.895773e-002
2.715281e+003, 4.920347e-002
2.717209e+003, 4.913095e-002
2.719138e+003, 4.954767e-002
2.721066e+003, 5.007059e-002
2.722995e+003, 5.037972e-002
2.724923e+003, 5.048645e-002
2.726852e+003, 5.084552e-002
2.728780e+003, 5.124159e-002
2.730709e+003, 5.163044e-002
2.732637e+003, 5.194325e-002
2.734566e+003, 5.197557e-002
2.736494e+003, 5.229111e-002
2.738423e+003, 5.283694e-002
2.740351e+003, 5.308974e-002
2.742280e+003, 5.348856e-002
2.744208e+003, 5.383682e-002
2.746136e+003, 5.427641e-002
2.748065e+003, 5.460941e-002
2.749993e+003, 5.482991e-002
2.751922e+003, 5.494074e-002
2.753850e+003, 5.496959e-002
2.755779e+003, 5.544583e-002
2.757707e+003, 5.582262e-002
2.759636e+003, 5.594596e-002
2.761564e+003, 5.611258e-002
2.763493e+003, 5.667488e-002
2.765421e+003, 5.705925e-002
2.767350e+003, 5.749409e-002
2.769278e+003, 5.807675e-002
2.771207e+003, 5.821135e-002
2.773135e+003, 5.853550e-002
2.775063e+003, 5.910741e-002
2.776992e+003, 5.936351e-002
2.778920e+003, 5.924131e-002
2.780849e+003, 5.959601e-002
2.782777e+003, 6.018068e-002
2.784706e+003, 6.056691e-002
2.786634e+003, 6.113673e-002
2.788563e+003, 6.160457e-002
2.790491e+003, 6.179546e-002
2.792420e+003, 6.205512e-002
2.794348e+003, 6.244921e-002
2.796277e+003, 6.299018e-002
2.798205e+003, 6.347076e-002
2.800134e+003, 6.386197e-002
2.802062e+003, 6.409982e-002
2.803990e+003, 6.439740e-002
2.805919e+003, 6.485275e-002
2.807847e+003, 6.535994e-002
2.809776e+003, 6.579287e-002
2.811704e+003, 6.612240e-002
2.813633e+003, 6.667596e-002
2.815561e+003, 6.732032e-002
2.817490e+003, 6.770185e-002
2.819418e+003, 6.805074e-002
2.821347e+003, 6.867108e-002
2.823275e+003, 6.901477e-002
2.825204e+003, 6.932835e-002
2.827132e+003, 7.000462e-002
2.829061e+003, 7.064069e-002
2.830989e+003, 7.104526e-002
2.832917e+003, 7.148535e-002
2.834846e+003, 7.172765e-002
2.836774e+003, 7.213905e-002
2.838703e+003, 7.281853e-002
2.840631e+003, 7.311624e-002
2.842560e+003, 7.344715e-002
2.844488e+003, 7.396628e-002
2.846417e+003, 7.427040e-002
2.848345e+003, 7.426059e-002
2.850274e+003, 7.436895e-002
2.852202e+003, 7.522549e-002
2.854131e+003, 7.622962e-002
2.856059e+003, 7.706933e-002
2.857988e+003, 7.767065e-002
2.859916e+003, 7.787036e-002
2.861844e+003, 7.854471e-002
2.863773e+003, 7.953679e-002
2.865701e+003, 7.978228e-002
2.867630e+003, 8.027502e-002
2.869558e+003, 8.146387e-002
2.871487e+003, 8.224422e-002
2.873415e+003, 8.221518e-002
2.875344e+003, 8.219486e-002
2.877272e+003, 8.271185e-002
2.879201e+003, 8.340089e-002
2.881129e+003, 8.427768e-002
2.883058e+003, 8.525201e-002
2.884986e+003, 8.582228e-002
2.886915e+003, 8.598805e-002
2.888843e+003, 8.656175e-002
2.890771e+003, 8.754409e-002
2.892700e+003, 8.806790e-002
2.894628e+003, 8.850168e-002
2.896557e+003, 8.948402e-002
2.898485e+003, 9.008733e-002
2.900414e+003, 9.068606e-002
2.902342e+003, 9.177191e-002
2.904271e+003, 9.273695e-002
2.906199e+003, 9.305784e-002
2.908128e+003, 9.335750e-002
2.910056e+003, 9.375189e-002
2.911985e+003, 9.424917e-002
2.913913e+003, 9.475928e-002
2.915842e+003, 9.527323e-002
2.917770e+003, 9.591738e-002
2.919698e+003, 9.660418e-002
2.921627e+003, 9.788842e-002
2.923555e+003, 9.876056e-002
2.925484e+003, 9.924801e-002
2.927412e+003, 1.000700e-001
2.929341e+003, 1.007862e-001
2.931269e+003, 1.015561e-001
2.933198e+003, 1.022775e-001
2.935126e+003, 1.026326e-001
2.937055e+003, 1.032636e-001
2.938983e+003, 1.039740e-001
2.940912e+003, 1.046735e-001
2.942840e+003, 1.058473e-001
2.944769e+003, 1.066652e-001
2.946697e+003, 1.073933e-001
2.948625e+003, 1.080947e-001
2.950554e+003, 1.088265e-001
2.952482e+003, 1.098128e-001
2.954411e+003, 1.106401e-001
2.956339e+003, 1.113886e-001
2.958268e+003, 1.121695e-001
2.960196e+003, 1.128885e-001
2.962125e+003, 1.135445e-001
2.964053e+003, 1.141248e-001
2.965982e+003, 1.146740e-001
2.967910e+003, 1.156074e-001
2.969839e+003, 1.166454e-001
2.971767e+003, 1.172541e-001
2.973696e+003, 1.177920e-001
2.975624e+003, 1.184179e-001
2.977552e+003, 1.192787e-001
2.979481e+003, 1.200181e-001
2.981409e+003, 1.206867e-001
2.983338e+003, 1.217664e-001
2.985266e+003, 1.227160e-001
2.987195e+003, 1.238032e-001
2.989123e+003, 1.246408e-001
2.991052e+003, 1.253825e-001
2.992980e+003, 1.262846e-001
2.994909e+003, 1.271158e-001
2.996837e+003, 1.281606e-001
2.998766e+003, 1.288689e-001
3.000694e+003, 1.295062e-001
3.002623e+003, 1.302576e-001
3.004551e+003, 1.310290e-001
3.006479e+003, 1.324016e-001
3.008408e+003, 1.334914e-001
3.010336e+003, 1.343900e-001
3.012265e+003, 1.352413e-001
3.014193e+003, 1.361848e-001
3.016122e+003, 1.372405e-001
3.018050e+003, 1.375651e-001
3.019979e+003, 1.381171e-001
3.021907e+003, 1.389675e-001
3.023836e+003, 1.400218e-001
3.025764e+003, 1.411891e-001
3.027693e+003, 1.417722e-001
3.029621e+003, 1.425614e-001
3.031550e+003, 1.433085e-001
3.033478e+003, 1.439489e-001
3.035406e+003, 1.445614e-001
3.037335e+003, 1.453805e-001
3.039263e+003, 1.466464e-001
3.041192e+003, 1.471264e-001
3.043120e+003, 1.473963e-001
3.045049e+003, 1.483284e-001
3.046977e+003, 1.490768e-001
3.048906e+003, 1.495802e-001
3.050834e+003, 1.503677e-001
3.052763e+003, 1.511791e-001
3.054691e+003, 1.519226e-001
3.056620e+003, 1.528938e-001
3.058548e+003, 1.535971e-001
3.060477e+003, 1.536689e-001
3.062405e+003, 1.542274e-001
3.064333e+003, 1.548142e-001
3.066262e+003, 1.553330e-001
3.068190e+003, 1.559434e-001
3.070119e+003, 1.562403e-001
3.072047e+003, 1.567722e-001
3.073976e+003, 1.577222e-001
3.075904e+003, 1.585901e-001
3.077833e+003, 1.588739e-001
3.079761e+003, 1.588273e-001
3.081690e+003, 1.591941e-001
3.083618e+003, 1.599862e-001
3.085547e+003, 1.604533e-001
3.087475e+003, 1.607191e-001
3.089404e+003, 1.611498e-001
3.091332e+003, 1.614013e-001
3.093260e+003, 1.618828e-001
3.095189e+003, 1.626965e-001
3.097117e+003, 1.631041e-001
3.099046e+003, 1.627317e-001
3.100974e+003, 1.626816e-001
3.102903e+003, 1.630935e-001
3.104831e+003, 1.629035e-001
3.106760e+003, 1.626612e-001
3.108688e+003, 1.629859e-001
3.110617e+003, 1.629935e-001
3.112545e+003, 1.630631e-001
3.114474e+003, 1.630828e-001
3.116402e+003, 1.633033e-001
3.118331e+003, 1.631102e-001
3.120259e+003, 1.628851e-001
3.122188e+003, 1.626550e-001
3.124116e+003, 1.619533e-001
3.126044e+003, 1.617881e-001
3.127973e+003, 1.615838e-001
3.129901e+003, 1.609287e-001
3.131830e+003, 1.608838e-001
3.133758e+003, 1.609756e-001
3.135687e+003, 1.604608e-001
3.137615e+003, 1.603715e-001
3.139544e+003, 1.605569e-001
3.141472e+003, 1.599385e-001
3.143401e+003, 1.588085e-001
3.145329e+003, 1.578412e-001
3.147258e+003, 1.574381e-001
3.149186e+003, 1.570587e-001
3.151115e+003, 1.568208e-001
3.153043e+003, 1.563091e-001
3.154971e+003, 1.552391e-001
3.156900e+003, 1.545062e-001
3.158828e+003, 1.536166e-001
3.160757e+003, 1.531615e-001
3.162685e+003, 1.528791e-001
3.164614e+003, 1.519201e-001
3.166542e+003, 1.510028e-001
3.168471e+003, 1.502325e-001
3.170399e+003, 1.489471e-001
3.172328e+003, 1.483531e-001
3.174256e+003, 1.481002e-001
3.176185e+003, 1.472004e-001
3.178113e+003, 1.466875e-001
3.180042e+003, 1.458784e-001
3.181970e+003, 1.450768e-001
3.183898e+003, 1.441103e-001
3.185827e+003, 1.436116e-001
3.187755e+003, 1.430956e-001
3.189684e+003, 1.424299e-001
3.191612e+003, 1.419235e-001
3.193541e+003, 1.413820e-001
3.195469e+003, 1.403114e-001
3.197398e+003, 1.394861e-001
3.199326e+003, 1.390048e-001
3.201255e+003, 1.387623e-001
3.203183e+003, 1.381316e-001
3.205112e+003, 1.375085e-001
3.207040e+003, 1.369373e-001
3.208969e+003, 1.367474e-001
3.210897e+003, 1.364313e-001
3.212825e+003, 1.361276e-001
3.214754e+003, 1.359543e-001
3.216682e+003, 1.349278e-001
3.218611e+003, 1.338131e-001
3.220539e+003, 1.336545e-001
3.222468e+003, 1.334793e-001
3.224396e+003, 1.334847e-001
3.226325e+003, 1.328560e-001
3.228253e+003, 1.330277e-001
3.230182e+003, 1.330076e-001
3.232110e+003, 1.323749e-001
3.234039e+003, 1.319727e-001
3.235967e+003, 1.312976e-001
3.237896e+003, 1.310775e-001
3.239824e+003, 1.311141e-001
3.241752e+003, 1.311432e-001
3.243681e+003, 1.310157e-001
3.245609e+003, 1.302801e-001
3.247538e+003, 1.298806e-001
3.249466e+003, 1.295925e-001
3.251395e+003, 1.290971e-001
3.253323e+003, 1.286574e-001
3.255252e+003, 1.287047e-001
3.257180e+003, 1.288511e-001
3.259109e+003, 1.284822e-001
3.261037e+003, 1.278266e-001
3.262966e+003, 1.276878e-001
3.264894e+003, 1.276831e-001
3.266823e+003, 1.273386e-001
3.268751e+003, 1.265991e-001
3.270679e+003, 1.262398e-001
3.272608e+003, 1.267713e-001
3.274536e+003, 1.272080e-001
3.276465e+003, 1.263070e-001
3.278393e+003, 1.252914e-001
3.280322e+003, 1.248130e-001
3.282250e+003, 1.245078e-001
3.284179e+003, 1.244805e-001
3.286107e+003, 1.245509e-001
3.288036e+003, 1.250533e-001
3.289964e+003, 1.253816e-001
3.291893e+003, 1.252175e-001
3.293821e+003, 1.244639e-001
3.295750e+003, 1.238759e-001
3.297678e+003, 1.235188e-001
3.299606e+003, 1.231990e-001
3.301535e+003, 1.226749e-001
3.303463e+003, 1.225670e-001
3.305392e+003, 1.227401e-001
3.307320e+003, 1.224267e-001
3.309249e+003, 1.220877e-001
3.311177e+003, 1.217684e-001
3.313106e+003, 1.214993e-001
3.315034e+003, 1.212884e-001
3.316963e+003, 1.206399e-001
3.318891e+003, 1.199249e-001
3.320820e+003, 1.200490e-001
3.322748e+003, 1.203844e-001
3.324677e+003, 1.200477e-001
3.326605e+003, 1.194065e-001
3.328533e+003, 1.188720e-001
3.330462e+003, 1.186705e-001
3.332390e+003, 1.187207e-001
3.334319e+003, 1.191300e-001
3.336247e+003, 1.192858e-001
3.338176e+003, 1.187276e-001
3.340104e+003, 1.179379e-001
3.342033e+003, 1.173286e-001
3.343961e+003, 1.174764e-001
3.345890e+003, 1.174700e-001
3.347818e+003, 1.170245e-001
3.349747e+003, 1.169567e-001
3.351675e+003, 1.171704e-001
3.353604e+003, 1.173790e-001
3.355532e+003, 1.173898e-001
3.357460e+003, 1.173955e-001
3.359389e+003, 1.175346e-001
3.361317e+003, 1.174730e-001
3.363246e+003, 1.173539e-001
3.365174e+003, 1.173014e-001
3.367103e+003, 1.174924e-001
3.369031e+003, 1.180435e-001
3.370960e+003, 1.181055e-001
3.372888e+003, 1.182266e-001
3.374817e+003, 1.188692e-001
3.376745e+003, 1.193674e-001
3.378674e+003, 1.198666e-001
3.380602e+003, 1.201293e-001
3.382531e+003, 1.206436e-001
3.384459e+003, 1.218314e-001
3.386387e+003, 1.223030e-001
3.388316e+003, 1.227510e-001
3.390244e+003, 1.243279e-001
3.392173e+003, 1.255428e-001
3.394101e+003, 1.263896e-001
3.396030e+003, 1.270397e-001
3.397958e+003, 1.283483e-001
3.399887e+003, 1.296686e-001
3.401815e+003, 1.309233e-001
3.403744e+003, 1.319565e-001
3.405672e+003, 1.324639e-001
3.407601e+003, 1.330762e-001
3.409529e+003, 1.339900e-001
3.411458e+003, 1.347321e-001
3.413386e+003, 1.355461e-001
3.415314e+003, 1.362786e-001
3.417243e+003, 1.365704e-001
3.419171e+003, 1.368664e-001
3.421100e+003, 1.377595e-001
3.423028e+003, 1.379231e-001
3.424957e+003, 1.384078e-001
3.426885e+003, 1.390077e-001
3.428814e+003, 1.393600e-001
3.430742e+003, 1.400091e-001
3.432671e+003, 1.407172e-001
3.434599e+003, 1.414660e-001
3.436528e+003, 1.417104e-001
3.438456e+003, 1.413264e-001
3.440385e+003, 1.408043e-001
3.442313e+003, 1.402867e-001
3.444241e+003, 1.399288e-001
3.446170e+003, 1.393120e-001
3.448098e+003, 1.384266e-001
3.450027e+003, 1.379854e-001
3.451955e+003, 1.375681e-001
3.453884e+003, 1.359025e-001
3.455812e+003, 1.341367e-001
3.457741e+003, 1.329629e-001
3.459669e+003, 1.313058e-001
3.461598e+003, 1.287041e-001
3.463526e+003, 1.267299e-001
3.465455e+003, 1.255518e-001
3.467383e+003, 1.233475e-001
3.469312e+003, 1.207321e-001
3.471240e+003, 1.188730e-001
3.473168e+003, 1.176970e-001
3.475097e+003, 1.173899e-001
3.477025e+003, 1.167242e-001
3.478954e+003, 1.153508e-001
3.480882e+003, 1.144717e-001
3.482811e+003, 1.140952e-001
3.484739e+003, 1.133644e-001
3.486668e+003, 1.120892e-001
3.488596e+003, 1.101111e-001
3.490525e+003, 1.082398e-001
3.492453e+003, 1.061382e-001
3.494382e+003, 1.026943e-001
3.496310e+003, 9.930311e-002
3.498239e+003, 9.630240e-002
3.500167e+003, 9.361216e-002
3.502095e+003, 9.077033e-002
3.504024e+003, 8.808644e-002
3.505952e+003, 8.555310e-002
3.507881e+003, 8.298892e-002
3.509809e+003, 8.121112e-002
3.511738e+003, 8.015241e-002
3.513666e+003, 7.846116e-002
3.515595e+003, 7.597788e-002
3.517523e+003, 7.464270e-002
3.519452e+003, 7.419799e-002
3.521380e+003, 7.307905e-002
3.523309e+003, 7.233159e-002
3.525237e+003, 7.199167e-002
3.527166e+003, 7.132486e-002
3.529094e+003, 7.084372e-002
3.531022e+003, 7.023875e-002
3.532951e+003, 6.986582e-002
3.534879e+003, 6.962053e-002
3.536808e+003, 6.939445e-002
3.538736e+003, 6.921756e-002
3.540665e+003, 6.922075e-002
3.542593e+003, 6.868558e-002
3.544522e+003, 6.737918e-002
3.546450e+003, 6.680402e-002
3.548379e+003, 6.604049e-002
3.550307e+003, 6.417568e-002
3.552236e+003, 6.273586e-002
3.554164e+003, 6.172832e-002
3.556093e+003, 5.998398e-002
3.558021e+003, 5.818323e-002
3.559949e+003, 5.637348e-002
3.561878e+003, 5.421653e-002
3.563806e+003, 5.169409e-002
3.565735e+003, 4.876181e-002
3.567663e+003, 4.614773e-002
3.569592e+003, 4.507807e-002
3.571520e+003, 4.316007e-002
3.573449e+003, 4.105700e-002
3.575377e+003, 3.988677e-002
3.577306e+003, 3.851844e-002
3.579234e+003, 3.696661e-002
3.581163e+003, 3.555173e-002
3.583091e+003, 3.457741e-002
3.585020e+003, 3.278338e-002
3.586948e+003, 3.068414e-002
3.588876e+003, 2.978314e-002
3.590805e+003, 2.997989e-002
3.592733e+003, 2.980373e-002
3.594662e+003, 3.008104e-002
3.596590e+003, 3.022298e-002
3.598519e+003, 3.067050e-002
3.600447e+003, 3.182112e-002
3.602376e+003, 3.385380e-002
3.604304e+003, 3.653469e-002
3.606233e+003, 3.768703e-002
3.608161e+003, 3.754828e-002
3.610090e+003, 3.774570e-002
3.612018e+003, 3.654292e-002
3.613947e+003, 3.467112e-002
3.615875e+003, 3.135439e-002
3.617803e+003, 2.563845e-002
3.619732e+003, 2.186535e-002
3.621660e+003, 2.049284e-002
3.623589e+003, 1.858596e-002
3.625517e+003, 1.530906e-002
3.627446e+003, 1.053639e-002
3.629374e+003, 8.379482e-003
3.631303e+003, 9.487859e-003
3.633231e+003, 8.620627e-003
3.635160e+003, 7.388412e-003
3.637088e+003, 6.839428e-003
3.639017e+003, 6.694296e-003
3.640945e+003, 6.346235e-003
3.642874e+003, 5.440303e-003
3.644802e+003, 4.522773e-003
3.646730e+003, 2.203314e-003
3.648659e+003, -1.592015e-004
3.650587e+003, 6.177833e-004
3.652516e+003, 2.701758e-003
3.654444e+003, 1.536004e-003
3.656373e+003, 6.007986e-005
3.658301e+003, 9.861473e-004
3.660230e+003, 1.578542e-003
3.662158e+003, 1.051401e-003
3.664087e+003, 8.417435e-004
3.666015e+003, 1.283345e-003
3.667944e+003, -5.185423e-004
3.669872e+003, -3.860917e-003
3.671801e+003, -3.018836e-003
3.673729e+003, -2.673809e-003
3.675657e+003, -3.994760e-003
3.677586e+003, -2.660331e-003
3.679514e+003, -2.062246e-003
3.681443e+003, -1.800129e-003
3.683371e+003, -1.517312e-003
3.685300e+003, -1.943262e-003
3.687228e+003, -4.709632e-003
3.689157e+003, -4.871088e-003
3.691085e+003, -3.116021e-003
3.693014e+003, -2.449920e-003
3.694942e+003, -2.193211e-003
3.696871e+003, -1.735399e-003
3.698799e+003, -1.206440e-003
3.700728e+003, -1.767580e-003
3.702656e+003, -1.852029e-003
3.704584e+003, -1.122417e-003
3.706513e+003, -1.128110e-003
3.708441e+003, -2.523739e-003
3.710370e+003, -4.515397e-003
3.712298e+003, -4.999540e-003
3.714227e+003, -3.025422e-003
3.716155e+003, -2.205661e-003
3.718084e+003, -2.574417e-003
3.720012e+003, -3.285215e-003
3.721941e+003, -3.464450e-003
3.723869e+003, -3.152055e-003
3.725798e+003, -3.304315e-003
3.727726e+003, -3.088024e-003
3.729655e+003, -3.175663e-003
3.731583e+003, -4.462156e-003
3.733511e+003, -4.606523e-003
3.735440e+003, -5.141535e-003
3.737368e+003, -4.706551e-003
3.739297e+003, -3.087776e-003
3.741225e+003, -2.886583e-003
3.743154e+003, -7.314691e-003
3.745082e+003, -8.655868e-003
3.747011e+003, -5.665520e-003
3.748939e+003, -7.470095e-003
3.750868e+003, -8.652595e-003
3.752796e+003, -6.928521e-003
3.754725e+003, -3.504981e-003
3.756653e+003, -3.608522e-003
3.758582e+003, -3.976405e-003
3.760510e+003, -2.599203e-003
3.762438e+003, -1.225007e-003
3.764367e+003, -2.956240e-003
3.766295e+003, -2.860859e-003
3.768224e+003, -2.974991e-003
3.770152e+003, -3.414636e-003
3.772081e+003, -2.305985e-003
3.774009e+003, -2.344890e-003
3.775938e+003, -1.993368e-003
3.777866e+003, -2.204781e-003
3.779795e+003, -2.316353e-003
3.781723e+003, -1.610172e-003
3.783652e+003, -2.021250e-003
3.785580e+003, -1.850495e-003
3.787509e+003, -1.959624e-003
3.789437e+003, -1.965882e-003
3.791365e+003, -1.772006e-003
3.793294e+003, -2.247051e-003
3.795222e+003, -2.959429e-003
3.797151e+003, -2.647571e-003
3.799079e+003, -3.641189e-003
3.801008e+003, -5.923893e-003
3.802936e+003, -4.370295e-003
3.804865e+003, -3.655902e-003
3.806793e+003, -5.404070e-003
3.808722e+003, -3.409257e-003
3.810650e+003, -1.980008e-003
3.812579e+003, -2.440582e-003
3.814507e+003, -5.263195e-003
3.816436e+003, -6.395256e-003
3.818364e+003, -4.708676e-003
3.820292e+003, -5.410049e-003
3.822221e+003, -4.390600e-003
3.824149e+003, -2.760277e-003
3.826078e+003, -3.038923e-003
3.828006e+003, -2.810271e-003
3.829935e+003, -3.426106e-003
3.831863e+003, -3.952025e-003
3.833792e+003, -4.129897e-003
3.835720e+003, -5.757077e-003
3.837649e+003, -7.132132e-003
3.839577e+003, -5.334646e-003
3.841506e+003, -3.471816e-003
3.843434e+003, -2.628600e-003
3.845363e+003, -2.163235e-003
3.847291e+003, -1.990633e-003
3.849219e+003, -3.286890e-003
3.851148e+003, -7.083776e-003
3.853076e+003, -1.170051e-002
3.855005e+003, -8.318292e-003
3.856933e+003, -2.447168e-003
3.858862e+003, -1.290755e-003
3.860790e+003, -2.525702e-003
3.862719e+003, -3.949323e-003
3.864647e+003, -4.569350e-003
3.866576e+003, -3.725569e-003
3.868504e+003, -4.760743e-003
3.870433e+003, -5.062039e-003
3.872361e+003, -2.845571e-003
3.874290e+003, -2.435657e-003
3.876218e+003, -2.365142e-003
3.878146e+003, -3.411898e-003
3.880075e+003, -3.970557e-003
3.882003e+003, -3.167599e-003
3.883932e+003, -3.581278e-003
3.885860e+003, -4.507446e-003
3.887789e+003, -2.957083e-003
3.889717e+003, -2.623840e-003
3.891646e+003, -2.764931e-003
3.893574e+003, -1.593006e-003
3.895503e+003, -1.017512e-003
3.897431e+003, -2.010803e-003
3.899360e+003, -3.732409e-003
3.901288e+003, -4.042965e-003
3.903217e+003, -3.997310e-003
3.905145e+003, -3.569080e-003
3.907073e+003, -2.796281e-003
3.909002e+003, -1.923411e-003
3.910930e+003, -1.975311e-003
3.912859e+003, -1.938312e-003
3.914787e+003, -2.327872e-003
3.916716e+003, -2.542020e-003
3.918644e+003, -1.425162e-003
3.920573e+003, -1.442817e-003
3.922501e+003, -2.065407e-003
3.924430e+003, -2.108840e-003
3.926358e+003, -1.149861e-003
3.928287e+003, -1.213978e-003
3.930215e+003, -1.531755e-003
3.932144e+003, -2.161868e-003
3.934072e+003, -2.145038e-003
3.936000e+003, -1.346500e-003
3.937929e+003, -1.406165e-003
3.939857e+003, -1.206973e-003
3.941786e+003, -8.357542e-004
3.943714e+003, -1.130734e-003
3.945643e+003, -1.454446e-003
3.947571e+003, -1.465553e-003
3.949500e+003, -1.402942e-003
3.951428e+003, -2.167247e-003
3.953357e+003, -2.426104e-003
3.955285e+003, -1.571113e-003
3.957214e+003, -1.363663e-003
3.959142e+003, -1.948915e-003
3.961071e+003, -2.619591e-003
3.962999e+003, -2.877127e-003
3.964927e+003, -2.069692e-003
3.966856e+003, -1.276867e-003
3.968784e+003, -1.049285e-003
3.970713e+003, -1.048300e-003
3.972641e+003, -1.300252e-003
3.974570e+003, -1.548200e-003
3.976498e+003, -1.285992e-003
3.978427e+003, -1.563545e-003
3.980355e+003, -1.767954e-003
3.982284e+003, -1.442463e-003
3.984212e+003, -7.480726e-004
3.986141e+003, -5.821391e-004
3.988069e+003, -1.083197e-003
3.989998e+003, -1.270745e-003
3.991926e+003, -1.420108e-003
3.993854e+003, -2.028084e-003
3.995783e+003, -1.604564e-003
3.997711e+003, -1.722665e-003
3.999640e+003, -2.001165e-003
4.001568e+003, 0.000000e+000
##END=



