##NAMES=Sillimanite
##RRUFFID=R050601
##IDEAL CHEMISTRY=Al_2_OSiO_4_
##LOCALITY=Mogok, Burma
##OWNER=RRUFF
##SOURCE=Bill Larson
##DESCRIPTION=Tan colored cleavage fragment from a water worn pebble
##STATUS=The identification of this mineral has been confirmed by X-ray diffraction and chemical analysis
##URL=rruff.info/R050601
##MEASURED CHEMISTRY=(Al_1.99_Fe^3+^_0.01_)_Î£=2_Si_1.00_O_5_
399.1926, 0.2509851
401.1211, 0.2600110
403.0496, 0.2612611
404.9780, 0.2692774
406.9065, 0.2787262
408.8350, 0.2736959
410.7634, 0.2834329
412.6919, 0.2880044
414.6204, 0.2830242
416.5488, 0.2841020
418.4773, 0.2871617
420.4058, 0.2947242
422.3342, 0.3004321
424.2627, 0.2969860
426.1912, 0.2935594
428.1196, 0.3008070
430.0481, 0.3004749
431.9766, 0.2910772
433.9050, 0.2875761
435.8335, 0.2831440
437.7620, 0.2740748
439.6904, 0.2667461
441.6189, 0.2607823
443.5474, 0.2560593
445.4758, 0.2498056
447.4043, 0.2385149
449.3328, 0.2303942
451.2612, 0.2230336
453.1897, 0.2166948
455.1182, 0.2120854
457.0466, 0.2054894
458.9751, 0.2008662
460.9036, 0.1977050
462.8320, 0.1937060
464.7605, 0.1916883
466.6890, 0.1903325
468.6174, 0.1903829
470.5459, 0.1927494
472.4744, 0.1948743
474.4028, 0.1975716
476.3313, 0.2016373
478.2598, 0.2082836
480.1882, 0.2162799
482.1167, 0.2222271
484.0452, 0.2265969
485.9736, 0.2316887
487.9021, 0.2325826
489.8306, 0.2280323
491.7590, 0.2187278
493.6875, 0.2105011
495.6160, 0.2060340
497.5444, 0.2048534
499.4729, 0.2077251
501.4014, 0.2161200
503.3298, 0.2247305
505.2583, 0.2274138
507.1868, 0.2241790
509.1152, 0.2149711
511.0437, 0.2033235
512.9722, 0.1914251
514.9006, 0.1808465
516.8291, 0.1734271
518.7576, 0.1712856
520.6860, 0.1718645
522.6145, 0.1711348
524.5430, 0.1692484
526.4714, 0.1665139
528.3999, 0.1611815
530.3284, 0.1564353
532.2568, 0.1535181
534.1853, 0.1503971
536.1138, 0.1487109
538.0422, 0.1496945
539.9707, 0.1532211
541.8992, 0.1563897
543.8276, 0.1506201
545.7561, 0.1357383
547.6846, 0.1209211
549.6130, 0.1092264
551.5415, 0.1012268
553.4700, 9.9826612E-02
555.3984, 0.1043867
557.3269, 0.1123427
559.2554, 0.1213619
561.1838, 0.1287993
563.1123, 0.1346369
565.0408, 0.1401681
566.9692, 0.1450094
568.8977, 0.1495687
570.8262, 0.1541887
572.7546, 0.1578130
574.6831, 0.1603043
576.6116, 0.1622237
578.5400, 0.1645229
580.4685, 0.1664710
582.3970, 0.1679669
584.3254, 0.1688677
586.2539, 0.1693209
588.1824, 0.1701742
590.1108, 0.1704557
592.0393, 0.1700295
593.9678, 0.1700083
595.8962, 0.1698054
597.8247, 0.1699177
599.7532, 0.1689237
601.6816, 0.1667919
603.6101, 0.1632960
605.5386, 0.1577958
607.4670, 0.1524191
609.3955, 0.1480260
611.3240, 0.1440895
613.2524, 0.1401184
615.1809, 0.1348842
617.1094, 0.1300564
619.0378, 0.1258989
620.9663, 0.1224611
622.8948, 0.1193893
624.8232, 0.1169695
626.7517, 0.1157041
628.6802, 0.1158026
630.6086, 0.1164913
632.5371, 0.1162002
634.4656, 0.1126938
636.3940, 0.1050089
638.3225, 9.5731527E-02
640.2510, 8.6086512E-02
642.1794, 7.6732427E-02
644.1079, 6.7365833E-02
646.0364, 5.8017161E-02
647.9648, 4.9803410E-02
649.8933, 4.3868128E-02
651.8218, 4.0517841E-02
653.7502, 3.8812310E-02
655.6787, 3.8259801E-02
657.6072, 3.8640529E-02
659.5356, 4.0264782E-02
661.4641, 4.3459501E-02
663.3926, 4.7733970E-02
665.3210, 5.3002741E-02
667.2495, 5.9574571E-02
669.1780, 6.7909352E-02
671.1064, 7.7179000E-02
673.0349, 8.8181451E-02
674.9634, 0.1010957
676.8918, 0.1149265
678.8203, 0.1303976
680.7488, 0.1471702
682.6772, 0.1645313
684.6057, 0.1810710
686.5342, 0.1940578
688.4626, 0.2013515
690.3911, 0.2035413
692.3196, 0.2023862
694.2480, 0.1984003
696.1765, 0.1927413
698.1050, 0.1869167
700.0334, 0.1811497
701.9619, 0.1754904
703.8904, 0.1698954
705.8188, 0.1642234
707.7473, 0.1588338
709.6758, 0.1542868
711.6042, 0.1500237
713.5327, 0.1454477
715.4612, 0.1419714
717.3896, 0.1394267
719.3181, 0.1373261
721.2466, 0.1357644
723.1750, 0.1356306
725.1035, 0.1362091
727.0320, 0.1370343
728.9604, 0.1389342
730.8889, 0.1415121
732.8174, 0.1436334
734.7458, 0.1454146
736.6743, 0.1468200
738.6028, 0.1481877
740.5313, 0.1487639
742.4597, 0.1479311
744.3882, 0.1462966
746.3167, 0.1441511
748.2451, 0.1410641
750.1736, 0.1369424
752.1021, 0.1321076
754.0305, 0.1269664
755.9590, 0.1211708
757.8875, 0.1142370
759.8159, 0.1065996
761.7444, 9.9522293E-02
763.6729, 9.3466260E-02
765.6013, 8.8708296E-02
767.5298, 8.5279368E-02
769.4583, 8.2996741E-02
771.3867, 8.2573377E-02
773.3152, 8.3957471E-02
775.2437, 8.6304300E-02
777.1721, 8.9056797E-02
779.1006, 9.3096003E-02
781.0291, 9.8568067E-02
782.9575, 0.1042508
784.8860, 0.1104641
786.8145, 0.1179155
788.7429, 0.1261422
790.6714, 0.1344173
792.5999, 0.1443078
794.5283, 0.1556768
796.4568, 0.1675132
798.3853, 0.1805476
800.3137, 0.1951431
802.2422, 0.2108959
804.1707, 0.2264643
806.0991, 0.2412888
808.0276, 0.2544926
809.9561, 0.2640131
811.8845, 0.2687727
813.8130, 0.2665929
815.7415, 0.2593091
817.6699, 0.2487216
819.5984, 0.2349912
821.5269, 0.2209115
823.4553, 0.2070477
825.3838, 0.1933051
827.3123, 0.1813526
829.2407, 0.1703696
831.1692, 0.1598647
833.0977, 0.1506955
835.0261, 0.1424132
836.9546, 0.1344309
838.8831, 0.1264914
840.8115, 0.1188314
842.7400, 0.1109644
844.6685, 0.1031266
846.5969, 9.5984846E-02
848.5254, 8.8884063E-02
850.4539, 8.2431667E-02
852.3823, 7.7964157E-02
854.3108, 7.4753337E-02
856.2393, 7.2456412E-02
858.1677, 7.2245181E-02
860.0962, 7.3955864E-02
862.0247, 7.7477947E-02
863.9531, 8.3134897E-02
865.8816, 9.1634251E-02
867.8101, 0.1032935
869.7385, 0.1175811
871.6670, 0.1348887
873.5955, 0.1549229
875.5239, 0.1768725
877.4524, 0.1987750
879.3809, 0.2189925
881.3093, 0.2369435
883.2378, 0.2512909
885.1663, 0.2597890
887.0947, 0.2622271
889.0232, 0.2612955
890.9517, 0.2588907
892.8801, 0.2563944
894.8085, 0.2546487
896.7370, 0.2535037
898.6655, 0.2514731
900.5939, 0.2481123
902.5224, 0.2433870
904.4509, 0.2376982
906.3793, 0.2309896
908.3078, 0.2233911
910.2363, 0.2151602
912.1647, 0.2067273
914.0932, 0.1987274
916.0217, 0.1912910
917.9501, 0.1847472
919.8786, 0.1790769
921.8071, 0.1742480
923.7355, 0.1703017
925.6640, 0.1671283
927.5925, 0.1645087
929.5209, 0.1622903
931.4494, 0.1606001
933.3779, 0.1590355
935.3063, 0.1577381
937.2348, 0.1572107
939.1633, 0.1576843
941.0917, 0.1586725
943.0202, 0.1607735
944.9487, 0.1645830
946.8771, 0.1700500
948.8056, 0.1765667
950.7341, 0.1828509
952.6625, 0.1869605
954.5910, 0.1886870
956.5195, 0.1867300
958.4479, 0.1797109
960.3764, 0.1682075
962.3049, 0.1547526
964.2333, 0.1416435
966.1618, 0.1300138
968.0903, 0.1201696
970.0187, 0.1118352
971.9472, 0.1049092
973.8757, 9.8937869E-02
975.8041, 9.3949839E-02
977.7326, 8.9652359E-02
979.6611, 8.5781418E-02
981.5895, 8.2073651E-02
983.5180, 7.8714982E-02
985.4465, 7.6055117E-02
987.3749, 7.3091909E-02
989.3034, 6.9868252E-02
991.2319, 6.6799432E-02
993.1603, 6.3677147E-02
995.0888, 6.0487300E-02
997.0173, 5.7597190E-02
998.9457, 5.4835141E-02
1000.874, 5.1901609E-02
1002.803, 4.9080960E-02
1004.731, 4.6574511E-02
1006.660, 4.4097420E-02
1008.588, 4.1296631E-02
1010.517, 3.8812961E-02
1012.445, 3.6558781E-02
1014.373, 3.4434319E-02
1016.302, 3.2129891E-02
1018.230, 2.9949261E-02
1020.159, 2.7936660E-02
1022.087, 2.6140550E-02
1024.016, 2.4600470E-02
1025.944, 2.3090070E-02
1027.873, 2.1936370E-02
1029.801, 2.1047549E-02
1031.730, 2.0019280E-02
1033.658, 1.9041620E-02
1035.587, 1.8568929E-02
1037.515, 1.8095560E-02
1039.444, 1.7507480E-02
1041.372, 1.7132809E-02
1043.301, 1.7122500E-02
1045.229, 1.6976731E-02
1047.157, 1.6766069E-02
1049.086, 1.6496509E-02
1051.014, 1.6196489E-02
1052.943, 1.5821559E-02
1054.871, 1.5626550E-02
1056.800, 1.5255950E-02
1058.728, 1.5170620E-02
1060.657, 1.5381460E-02
1062.585, 1.5450860E-02
1064.514, 1.5239190E-02
1066.442, 1.5249380E-02
1068.371, 1.5338130E-02
1070.299, 1.5474030E-02
1072.228, 1.5685380E-02
1074.156, 1.5749371E-02
1076.084, 1.5784539E-02
1078.013, 1.6004071E-02
1079.941, 1.6206350E-02
1081.870, 1.6415879E-02
1083.798, 1.7123710E-02
1085.727, 1.7897740E-02
1087.655, 1.8107221E-02
1089.584, 1.8272519E-02
1091.512, 1.8753439E-02
1093.441, 1.9190351E-02
1095.369, 1.9805931E-02
1097.298, 2.0561630E-02
1099.226, 2.0992391E-02
1101.155, 2.1402961E-02
1103.083, 2.2136601E-02
1105.011, 2.2871960E-02
1106.940, 2.3560800E-02
1108.868, 2.4256609E-02
1110.797, 2.5281239E-02
1112.725, 2.6411351E-02
1114.654, 2.7333170E-02
1116.582, 2.8386030E-02
1118.511, 2.9339680E-02
1120.439, 3.0254761E-02
1122.368, 3.1827699E-02
1124.296, 3.3950590E-02
1126.225, 3.5879750E-02
1128.153, 3.7806250E-02
1130.082, 4.0107429E-02
1132.010, 4.2830810E-02
1133.938, 4.5704968E-02
1135.867, 4.8967630E-02
1137.795, 5.2337240E-02
1139.724, 5.5891272E-02
1141.652, 5.9835739E-02
1143.581, 6.4360641E-02
1145.509, 6.9641307E-02
1147.438, 7.5564153E-02
1149.366, 8.2183070E-02
1151.295, 8.9818373E-02
1153.223, 9.8545030E-02
1155.152, 0.1085741
1157.080, 0.1201854
1159.009, 0.1338099
1160.937, 0.1489650
1162.865, 0.1660232
1164.794, 0.1842097
1166.722, 0.2032271
1168.651, 0.2218241
1170.579, 0.2377731
1172.508, 0.2492187
1174.436, 0.2534903
1176.365, 0.2488799
1178.293, 0.2362938
1180.222, 0.2186908
1182.150, 0.1997316
1184.079, 0.1815815
1186.007, 0.1653932
1187.936, 0.1511905
1189.864, 0.1384232
1191.792, 0.1270137
1193.721, 0.1172194
1195.649, 0.1087294
1197.578, 0.1012079
1199.506, 9.4825611E-02
1201.435, 8.8953167E-02
1203.363, 8.3214693E-02
1205.292, 7.7635907E-02
1207.220, 7.2213553E-02
1209.149, 6.6822387E-02
1211.077, 6.1432399E-02
1213.006, 5.5805251E-02
1214.934, 5.0081272E-02
1216.863, 4.4382811E-02
1218.791, 3.8927209E-02
1220.719, 3.3754721E-02
1222.648, 2.8863650E-02
1224.576, 2.4441641E-02
1226.505, 2.0437829E-02
1228.433, 1.7345451E-02
1230.362, 1.4833770E-02
1232.290, 1.2768760E-02
1234.219, 1.1427760E-02
1236.147, 1.0150310E-02
1238.076, 9.2081083E-03
1240.004, 8.6263930E-03
1241.933, 7.9570310E-03
1243.861, 7.3802439E-03
1245.790, 6.7205620E-03
1247.718, 6.1534550E-03
1249.646, 5.7338788E-03
1251.575, 5.6440802E-03
1253.503, 5.3840009E-03
1255.432, 4.5863949E-03
1257.360, 4.2771720E-03
1259.289, 4.5206700E-03
1261.217, 4.3019159E-03
1263.146, 3.6696231E-03
1265.074, 3.4837211E-03
1267.003, 3.5108321E-03
1268.931, 3.6498189E-03
1270.860, 3.7100920E-03
1272.788, 3.5485509E-03
1274.717, 3.5467870E-03
1276.645, 3.5044739E-03
1278.573, 3.3610840E-03
1280.502, 3.2370440E-03
1282.430, 3.0674380E-03
1284.359, 2.8255859E-03
1286.287, 2.4934930E-03
1288.216, 2.3216440E-03
1290.144, 2.2726669E-03
1292.073, 2.1914749E-03
1294.001, 2.3040001E-03
1295.930, 2.0815961E-03
1297.858, 2.0497760E-03
1299.787, 2.1506031E-03
1301.715, 2.1978270E-03
1303.644, 2.1801391E-03
1305.572, 2.1820611E-03
1307.500, 2.0988339E-03
1309.429, 1.9857129E-03
1311.357, 2.0087820E-03
1313.286, 2.1360731E-03
1315.214, 2.1723669E-03
1317.143, 2.1158450E-03
1319.071, 2.0964390E-03
1321.000, 2.1166811E-03
1322.928, 2.0432670E-03
1324.857, 1.9740451E-03
1326.785, 1.9687130E-03
1328.714, 1.9650371E-03
1330.642, 1.8378820E-03
1332.571, 1.8412099E-03
1334.499, 1.9172040E-03
1336.427, 1.8834560E-03
1338.356, 1.7756280E-03
1340.284, 1.6377530E-03
1342.213, 1.5864610E-03
1344.141, 1.6040580E-03
1346.070, 1.3603880E-03
1347.998, 1.2942470E-03
1349.927, 1.4349460E-03
1351.855, 1.5492620E-03
1353.784, 1.4735360E-03
1355.712, 1.4951350E-03
1357.641, 1.4624920E-03
1359.569, 1.5722400E-03
1361.498, 1.6998220E-03
1363.426, 1.7227990E-03
1365.354, 1.9929430E-03
1367.283, 2.2823820E-03
1369.211, 1.9654799E-03
1371.140, 1.5980570E-03
1373.068, 1.7039110E-03
1374.997, 1.8334710E-03
1376.925, 1.4925040E-03
1378.854, 1.5757600E-03
1380.782, 1.9233840E-03
1382.711, 2.0145990E-03
1384.639, 1.9528740E-03
1386.568, 2.2267681E-03
1388.496, 2.4220380E-03
1390.424, 2.4832240E-03
1392.353, 2.4849081E-03
1394.281, 2.7909710E-03
1396.210, 3.0346010E-03
1398.138, 3.1457930E-03
1400.067, 3.0955300E-03
1401.995, 3.1136139E-03
1403.924, 3.1271549E-03
1405.852, 3.3067740E-03
1407.781, 3.5370749E-03
1409.709, 3.3174891E-03
1411.638, 3.4345740E-03
1413.566, 3.8184940E-03
1415.495, 3.7558430E-03
1417.423, 3.4963060E-03
1419.351, 3.5040900E-03
1421.280, 3.5471669E-03
1423.208, 3.8945090E-03
1425.137, 4.2151548E-03
1427.065, 4.0740538E-03
1428.994, 4.0704091E-03
1430.922, 4.2580450E-03
1432.851, 4.4852910E-03
1434.779, 4.5397892E-03
1436.708, 4.4671590E-03
1438.636, 4.1627008E-03
1440.565, 4.1463231E-03
1442.493, 4.2288592E-03
1444.422, 4.2156740E-03
1446.350, 4.2596590E-03
1448.278, 4.3625529E-03
1450.207, 4.2156270E-03
1452.135, 4.2588222E-03
1454.064, 4.2158770E-03
1455.992, 3.9221300E-03
1457.921, 3.9702472E-03
1459.849, 4.1511902E-03
1461.778, 3.9130058E-03
1463.706, 3.9523281E-03
1465.635, 4.0579122E-03
1467.563, 3.8974739E-03
1469.492, 4.0426701E-03
1471.420, 4.3905820E-03
1473.349, 4.3753479E-03
1475.277, 4.1384799E-03
1477.205, 4.1648750E-03
1479.134, 4.1449089E-03
1481.062, 4.0849219E-03
1482.991, 3.8319631E-03
1484.919, 3.7172290E-03
1486.848, 3.9847749E-03
1488.776, 4.0973122E-03
1490.705, 4.1974182E-03
1492.633, 3.8575749E-03
1494.562, 3.5554629E-03
1496.490, 3.7140290E-03
1498.419, 3.7551171E-03
1500.347, 3.7925011E-03
1502.276, 3.7553201E-03
1504.204, 3.6870590E-03
1506.132, 3.6583620E-03
1508.061, 3.5329161E-03
1509.989, 3.3612971E-03
1511.918, 3.4302471E-03
1513.846, 3.6663041E-03
1515.775, 3.4203681E-03
1517.703, 3.4556570E-03
1519.632, 3.3985020E-03
1521.560, 3.1518149E-03
1523.489, 3.1280150E-03
1525.417, 3.0613390E-03
1527.346, 2.9609930E-03
1529.274, 2.8543430E-03
1531.203, 2.7680669E-03
1533.131, 2.9255210E-03
1535.059, 2.9993979E-03
1536.988, 3.0590310E-03
1538.916, 3.0878680E-03
1540.845, 2.9819319E-03
1542.773, 2.9331900E-03
1544.702, 2.9721220E-03
1546.630, 2.9781500E-03
1548.559, 2.9890779E-03
1550.487, 2.6974911E-03
1552.416, 2.6053111E-03
1554.344, 2.9435500E-03
1556.273, 3.1713911E-03
1558.201, 3.3693509E-03
1560.130, 3.4433990E-03
1562.058, 3.2835491E-03
1563.986, 3.2079890E-03
1565.915, 3.2326409E-03
1567.843, 3.3175829E-03
1569.772, 3.3678690E-03
1571.700, 3.2667180E-03
1573.629, 3.1784191E-03
1575.557, 3.2373341E-03
1577.486, 2.9953020E-03
1579.414, 2.7976821E-03
1581.343, 3.0833590E-03
1583.271, 3.2106501E-03
1585.200, 2.8703220E-03
1587.128, 2.9695621E-03
1589.057, 2.8680540E-03
1590.985, 2.8658709E-03
1592.913, 3.0253381E-03
1594.842, 2.8332870E-03
1596.770, 2.7052430E-03
1598.699, 2.7539791E-03
1600.627, 2.7980360E-03
1602.556, 2.9789091E-03
1604.484, 2.9050810E-03
1606.413, 2.5626279E-03
1608.341, 2.4685259E-03
1610.270, 2.6729449E-03
1612.198, 2.7770190E-03
1614.127, 3.0009551E-03
1616.055, 3.1813779E-03
1617.984, 3.0486691E-03
1619.912, 2.9396981E-03
1621.840, 3.0696990E-03
1623.769, 3.0607581E-03
1625.697, 3.2034451E-03
1627.626, 3.1792910E-03
1629.554, 2.9192979E-03
1631.483, 2.9824099E-03
1633.411, 3.4000929E-03
1635.340, 3.3558700E-03
1637.268, 2.8741250E-03
1639.197, 2.5356140E-03
1641.125, 2.4600190E-03
1643.054, 3.1203481E-03
1644.982, 3.4532051E-03
1646.911, 3.3350410E-03
1648.839, 3.4816700E-03
1650.767, 3.6164559E-03
1652.696, 3.7928030E-03
1654.624, 3.7669709E-03
1656.553, 3.3447510E-03
1658.481, 3.2347599E-03
1660.410, 3.3753670E-03
1662.338, 3.2768629E-03
1664.267, 3.1493909E-03
1666.195, 3.3546251E-03
1668.124, 3.6235941E-03
1670.052, 3.6479710E-03
1671.981, 3.8294860E-03
1673.909, 4.0569641E-03
1675.838, 3.8852110E-03
1677.766, 3.4872270E-03
1679.694, 3.3594391E-03
1681.623, 3.7078541E-03
1683.551, 4.0336079E-03
1685.480, 3.8423270E-03
1687.408, 3.5913731E-03
1689.337, 3.6854260E-03
1691.265, 3.4132630E-03
1693.194, 3.2839801E-03
1695.122, 3.2260581E-03
1697.051, 3.3614449E-03
1698.979, 3.6391940E-03
1700.908, 3.5136950E-03
1702.836, 3.2473120E-03
1704.765, 3.1052539E-03
1706.693, 3.3263511E-03
1708.621, 3.7223760E-03
1710.550, 3.8688830E-03
1712.478, 3.5005980E-03
1714.407, 3.4382800E-03
1716.335, 3.7443819E-03
1718.264, 3.2131481E-03
1720.192, 2.7810340E-03
1722.121, 3.2035690E-03
1724.049, 3.3535790E-03
1725.978, 3.3923150E-03
1727.906, 3.8446051E-03
1729.835, 3.8494719E-03
1731.763, 3.6427020E-03
1733.692, 3.5129110E-03
1735.620, 2.9020321E-03
1737.548, 2.7300450E-03
1739.477, 2.2127100E-03
1741.405, 1.6913400E-03
1743.334, 2.0551891E-03
1745.262, 2.2781841E-03
1747.191, 1.9501470E-03
1749.119, 1.9123250E-03
1751.048, 2.1592330E-03
1752.976, 2.2842339E-03
1754.905, 2.3133419E-03
1756.833, 2.3470640E-03
1758.762, 2.6503890E-03
1760.690, 3.1397550E-03
1762.619, 2.9709779E-03
1764.547, 2.8032730E-03
1766.475, 3.1131641E-03
1768.404, 2.9134401E-03
1770.332, 2.9989381E-03
1772.261, 3.4782100E-03
1774.189, 3.1245740E-03
1776.118, 2.7709780E-03
1778.046, 3.0667740E-03
1779.975, 3.5568031E-03
1781.903, 3.5556150E-03
1783.832, 3.2963450E-03
1785.760, 3.3970100E-03
1787.689, 3.5387150E-03
1789.617, 3.4932711E-03
1791.546, 3.1522210E-03
1793.474, 2.9393530E-03
1795.402, 2.9028649E-03
1797.331, 3.2421099E-03
1799.259, 3.5984521E-03
1801.188, 3.6867920E-03
1803.116, 3.3205820E-03
1805.045, 3.2927210E-03
1806.973, 3.4429559E-03
1808.902, 3.5020760E-03
1810.830, 3.3287010E-03
1812.759, 2.9552230E-03
1814.687, 2.8730910E-03
1816.616, 3.0343181E-03
1818.544, 3.4693601E-03
1820.473, 3.1552729E-03
1822.401, 2.7734980E-03
1824.329, 2.8565079E-03
1826.258, 2.7035279E-03
1828.186, 2.4259230E-03
1830.115, 2.4528729E-03
1832.043, 2.7523551E-03
1833.972, 3.2961229E-03
1835.900, 3.1552019E-03
1837.829, 2.5052989E-03
1839.757, 2.6121959E-03
1841.686, 2.7490831E-03
1843.614, 3.2050731E-03
1845.543, 3.5174270E-03
1847.471, 3.2951829E-03
1849.400, 3.2003650E-03
1851.328, 2.7434099E-03
1853.256, 1.8923570E-03
1855.185, 1.9958729E-03
1857.113, 2.3528449E-03
1859.042, 2.9361451E-03
1860.970, 3.1433171E-03
1862.899, 3.0970031E-03
1864.827, 3.1111250E-03
1866.756, 2.4447171E-03
1868.684, 2.1175989E-03
1870.613, 2.5167880E-03
1872.541, 2.7144579E-03
1874.470, 2.4152619E-03
1876.398, 2.2343120E-03
1878.327, 2.5158669E-03
1880.255, 3.2874751E-03
1882.183, 3.5907689E-03
1884.112, 3.2098549E-03
1886.040, 3.3811070E-03
1887.969, 3.4802370E-03
1889.897, 2.6886021E-03
1891.826, 2.4642199E-03
1893.754, 1.3770850E-03
1895.683, 1.2674460E-03
1897.611, 2.2658759E-03
1899.540, 2.7585840E-03
1901.468, 2.7552531E-03
1903.397, 2.6361200E-03
1905.325, 2.4491940E-03
1907.254, 2.3353109E-03
1909.182, 2.0750200E-03
1911.110, 1.3713110E-03
1913.039, 3.9359790E-04
1914.967, 1.0668440E-03
1916.896, 1.6598270E-03
1918.824, 1.6490740E-03
1920.753, 1.7151400E-03
1922.681, 1.7618050E-03
1924.610, 1.3415230E-03
1926.538, 1.3717040E-03
1928.467, 1.8346630E-03
1930.395, 1.3983470E-03
1932.324, 1.1032471E-03
1934.252, 3.0576301E-04
1936.181, -3.4244571E-04
1938.109, -2.6434139E-04
1940.037, 6.6364411E-04
1941.966, 7.1233117E-05
1943.894, -2.1142850E-04
1945.823, 1.3346120E-03
1947.751, 1.5890340E-03
1949.680, 2.4741380E-03
1951.608, 2.9929150E-03
1953.537, 2.6160860E-03
1955.465, 1.2895711E-03
1957.394, -1.0834479E-03
1959.322, 1.3171470E-03
1961.251, 3.8410239E-03
1963.179, 1.9214720E-03
1965.108, 4.6430941E-04
1967.036, 1.7342640E-03
1968.964, 2.7582131E-03
1970.893, 2.4925440E-03
1972.821, 1.3152889E-03
1974.750, 2.3002240E-04
1976.678, 1.8108900E-03
1978.607, 3.1878231E-03
1980.535, 2.4017440E-03
1982.464, 1.3832310E-03
1984.392, 2.7544959E-03
1986.321, 4.0541622E-03
1988.249, 3.2748410E-03
1990.178, 2.6862540E-03
1992.106, 3.5186929E-03
1994.035, 3.8409200E-03
1995.963, 3.5753101E-03
1997.891, 9.7578060E-04
1999.820, -5.4333232E-05
2001.748, 1.9525740E-03
2003.677, 3.3281760E-03
2005.605, 3.3198390E-03
2007.534, 3.3564169E-03
2009.462, 4.5515150E-03
2011.391, 3.9109690E-03
2013.319, 2.5811910E-03
2015.248, 1.9850160E-03
2017.176, 3.2543249E-03
2019.105, 4.6044942E-03
2021.033, 4.1765501E-03
2022.962, 3.8556380E-03
2024.890, 4.8695672E-03
2026.818, 6.0418900E-03
2028.747, 5.2656978E-03
2030.675, 5.2297539E-03
2032.604, 6.2609678E-03
2034.532, 5.9820111E-03
2036.461, 4.9452279E-03
2038.389, 5.6980811E-03
2040.318, 5.8652190E-03
2042.246, 6.3161571E-03
2044.175, 8.4180012E-03
2046.103, 7.0465468E-03
2048.032, 6.1541861E-03
2049.960, 6.4243670E-03
2051.889, 6.2254062E-03
2053.817, 5.7131960E-03
2055.746, 5.8508771E-03
2057.674, 3.9623380E-03
2059.603, 3.5345890E-03
2061.531, 4.5671500E-03
2063.459, 5.4644071E-03
2065.388, 5.7083289E-03
2067.316, 6.1242660E-03
2069.245, 6.8429448E-03
2071.173, 7.0518190E-03
2073.102, 8.2506370E-03
2075.030, 8.6624436E-03
2076.959, 8.4372014E-03
2078.887, 8.0450531E-03
2080.816, 7.7844602E-03
2082.744, 7.2420868E-03
2084.673, 7.0316470E-03
2086.601, 7.1402332E-03
2088.530, 6.1319969E-03
2090.458, 5.7774791E-03
2092.386, 4.8753908E-03
2094.315, 4.1592028E-03
2096.243, 6.1451350E-03
2098.172, 8.0891009E-03
2100.100, 7.3001240E-03
2102.029, 5.1721800E-03
2103.957, 4.8592482E-03
2105.886, 5.6421212E-03
2107.814, 6.8186382E-03
2109.743, 7.5444998E-03
2111.671, 6.1166822E-03
2113.600, 5.4616309E-03
2115.528, 6.0674520E-03
2117.457, 7.1291472E-03
2119.385, 6.4612338E-03
2121.313, 5.3745210E-03
2123.242, 4.2720609E-03
2125.170, 5.2278470E-03
2127.099, 6.2642540E-03
2129.027, 5.2926741E-03
2130.956, 3.8315819E-03
2132.884, 2.5486511E-03
2134.813, 5.3890850E-03
2136.741, 7.3213722E-03
2138.670, 7.3263380E-03
2140.598, 4.7931471E-03
2142.527, 1.7793040E-03
2144.455, 3.9483281E-03
2146.384, 6.5835072E-03
2148.312, 5.2398909E-03
2150.240, 4.8664450E-03
2152.169, 4.7512511E-03
2154.097, 2.1838781E-03
2156.026, 2.7787650E-03
2157.954, 6.1602700E-03
2159.883, 1.0140650E-02
2161.811, 1.1277200E-02
2163.740, 1.0745820E-02
2165.668, 1.0272630E-02
2167.597, 1.0743910E-02
2169.525, 1.0683820E-02
2171.454, 7.4345111E-03
2173.382, 7.1567032E-03
2175.311, 9.2557464E-03
2177.239, 8.7132854E-03
2179.167, 8.3171548E-03
2181.096, 8.8355811E-03
2183.024, 8.1210854E-03
2184.953, 5.4557300E-03
2186.881, 4.3220720E-03
2188.810, 4.1578221E-03
2190.738, 5.1624300E-03
2192.667, 7.8249956E-03
2194.595, 8.3604855E-03
2196.524, 8.2530817E-03
2198.452, 7.4277599E-03
2200.381, 7.4945288E-03
2202.309, 7.0910198E-03
2204.238, 8.3685583E-03
2206.166, 8.1122182E-03
2208.094, 6.6180709E-03
2210.023, 7.0404648E-03
2211.951, 6.8212310E-03
2213.880, 6.2717050E-03
2215.808, 7.9103950E-03
2217.737, 7.4161240E-03
2219.665, 5.9946189E-03
2221.594, 5.6739030E-03
2223.522, 6.0617500E-03
2225.451, 4.9852948E-03
2227.379, 6.0149319E-03
2229.308, 6.2598740E-03
2231.236, 5.8890730E-03
2233.165, 6.0039749E-03
2235.093, 5.7714041E-03
2237.021, 4.9047540E-03
2238.950, 5.9695179E-03
2240.878, 6.9597159E-03
2242.807, 6.9710952E-03
2244.735, 6.8088518E-03
2246.664, 5.7847318E-03
2248.592, 6.0647209E-03
2250.521, 5.7299300E-03
2252.449, 4.8562218E-03
2254.378, 5.1425272E-03
2256.306, 6.8660080E-03
2258.235, 7.8473995E-03
2260.163, 7.2794859E-03
2262.092, 5.9482669E-03
2264.020, 7.5300732E-03
2265.948, 9.4724167E-03
2267.877, 8.4318956E-03
2269.805, 6.6833859E-03
2271.734, 5.8517060E-03
2273.662, 6.6177598E-03
2275.591, 6.6451579E-03
2277.519, 7.4542980E-03
2279.448, 8.1015676E-03
2281.376, 6.5929550E-03
2283.305, 6.0778819E-03
2285.233, 6.4743762E-03
2287.162, 6.8731350E-03
2289.090, 8.2352543E-03
2291.019, 8.5091302E-03
2292.947, 7.7478662E-03
2294.875, 7.8719445E-03
2296.804, 8.1364773E-03
2298.732, 8.1894612E-03
2300.661, 7.4354182E-03
2302.589, 6.8093380E-03
2304.518, 6.7699901E-03
2306.446, 6.4317128E-03
2308.375, 6.0928250E-03
2310.303, 5.7701101E-03
2312.232, 5.7198340E-03
2314.160, 6.0834871E-03
2316.089, 6.5510571E-03
2318.017, 6.9809398E-03
2319.946, 7.2727958E-03
2321.874, 8.3168950E-03
2323.802, 8.3394842E-03
2325.731, 7.1800980E-03
2327.659, 5.9850570E-03
2329.588, 6.0838172E-03
2331.516, 7.0135039E-03
2333.445, 6.9639520E-03
2335.373, 6.8730209E-03
2337.302, 6.4863451E-03
2339.230, 6.2492858E-03
2341.159, 6.1482950E-03
2343.087, 6.2808380E-03
2345.016, 6.0836170E-03
2346.944, 5.6160660E-03
2348.873, 4.9565681E-03
2350.801, 5.0194990E-03
2352.729, 5.2668122E-03
2354.658, 6.0135890E-03
2356.586, 6.9286120E-03
2358.515, 6.7766239E-03
2360.443, 6.0252170E-03
2362.372, 6.2037678E-03
2364.300, 6.7103701E-03
2366.229, 5.8012879E-03
2368.157, 5.1813121E-03
2370.086, 5.3652641E-03
2372.014, 5.6491080E-03
2373.942, 5.2464632E-03
2375.871, 5.0363219E-03
2377.799, 4.7612879E-03
2379.728, 4.7665760E-03
2381.656, 4.7195428E-03
2383.585, 4.9939449E-03
2385.513, 5.5906582E-03
2387.442, 5.6755892E-03
2389.370, 5.8485498E-03
2391.299, 4.9781022E-03
2393.227, 4.6926849E-03
2395.156, 5.2071209E-03
2397.084, 5.9536188E-03
2399.012, 6.0649011E-03
2400.941, 6.1213882E-03
2402.869, 5.8599748E-03
2404.798, 5.4588211E-03
2406.726, 5.6132739E-03
2408.655, 6.3462681E-03
2410.583, 6.7866598E-03
2412.512, 6.7079361E-03
2414.440, 6.6220788E-03
2416.369, 6.3219680E-03
2418.297, 5.9040450E-03
2420.226, 6.7752260E-03
2422.154, 8.1436932E-03
2424.083, 7.0505622E-03
2426.011, 6.7627830E-03
2427.939, 6.9978009E-03
2429.868, 6.1969222E-03
2431.796, 6.9111828E-03
2433.725, 7.0095239E-03
2435.653, 7.1320711E-03
2437.582, 7.2043161E-03
2439.510, 7.5706020E-03
2441.439, 7.9486668E-03
2443.367, 7.1231979E-03
2445.296, 6.7160828E-03
2447.224, 7.6241060E-03
2449.153, 7.9209646E-03
2451.081, 7.5687221E-03
2453.010, 8.1655271E-03
2454.938, 8.6091710E-03
2456.866, 8.2229935E-03
2458.795, 8.5977307E-03
2460.723, 8.6708041E-03
2462.652, 8.5191755E-03
2464.580, 7.9354839E-03
2466.509, 6.6944901E-03
2468.437, 5.9680622E-03
2470.366, 6.7102290E-03
2472.294, 8.3370404E-03
2474.223, 8.5864719E-03
2476.151, 8.4935958E-03
2478.080, 7.6377839E-03
2480.008, 6.1094132E-03
2481.937, 7.1771909E-03
2483.865, 8.8721653E-03
2485.793, 8.6419880E-03
2487.722, 9.4955526E-03
2489.650, 1.0536500E-02
2491.579, 9.7918957E-03
2493.507, 8.1632221E-03
2495.436, 7.5690402E-03
2497.364, 7.9619326E-03
2499.293, 8.1059868E-03
2501.221, 9.0397010E-03
2503.150, 9.1920346E-03
2505.078, 9.1185914E-03
2507.007, 9.3919374E-03
2508.935, 8.8710273E-03
2510.864, 8.9262426E-03
2512.792, 7.7169342E-03
2514.720, 7.4549508E-03
2516.649, 8.5104778E-03
2518.577, 9.1207745E-03
2520.506, 1.0404090E-02
2522.434, 1.0776030E-02
2524.363, 9.9503631E-03
2526.291, 8.5160062E-03
2528.220, 8.6169792E-03
2530.148, 8.6313263E-03
2532.077, 8.3249100E-03
2534.005, 9.2619890E-03
2535.934, 9.5975231E-03
2537.862, 9.1046328E-03
2539.791, 8.6759254E-03
2541.719, 8.3750263E-03
2543.647, 7.9805311E-03
2545.576, 8.8601960E-03
2547.504, 9.9371569E-03
2549.433, 9.9059837E-03
2551.361, 9.5359329E-03
2553.290, 8.7203328E-03
2555.218, 8.9515382E-03
2557.147, 9.2514772E-03
2559.075, 9.2040766E-03
2561.004, 9.6427565E-03
2562.932, 9.7223176E-03
2564.861, 9.4690444E-03
2566.789, 9.7135268E-03
2568.718, 9.4400235E-03
2570.646, 9.3148313E-03
2572.574, 1.0864380E-02
2574.503, 1.1159400E-02
2576.431, 1.1168450E-02
2578.360, 9.8316036E-03
2580.288, 8.8766543E-03
2582.217, 8.4832944E-03
2584.145, 8.7422663E-03
2586.074, 9.3353093E-03
2588.002, 9.4681727E-03
2589.931, 9.3455110E-03
2591.859, 9.8776193E-03
2593.788, 1.0754390E-02
2595.716, 1.1193320E-02
2597.645, 1.0883700E-02
2599.573, 1.0706720E-02
2601.501, 9.9694990E-03
2603.430, 8.9609614E-03
2605.358, 9.0002287E-03
2607.287, 9.2439475E-03
2609.215, 8.8541778E-03
2611.144, 8.6115412E-03
2613.072, 8.7330658E-03
2615.001, 9.1336314E-03
2616.929, 9.2413304E-03
2618.858, 8.6214188E-03
2620.786, 8.5171750E-03
2622.715, 9.8255863E-03
2624.643, 1.0835870E-02
2626.572, 1.1012630E-02
2628.500, 1.1817800E-02
2630.428, 1.1660300E-02
2632.357, 1.0082020E-02
2634.285, 9.5328446E-03
2636.214, 9.9256774E-03
2638.142, 1.0078430E-02
2640.071, 9.7355042E-03
2641.999, 1.0326430E-02
2643.928, 1.0771780E-02
2645.856, 1.0580810E-02
2647.785, 1.1075620E-02
2649.713, 1.1395310E-02
2651.642, 1.1105680E-02
2653.570, 1.0837960E-02
2655.499, 1.0792900E-02
2657.427, 1.0604510E-02
2659.355, 9.6191252E-03
2661.284, 9.5404768E-03
2663.212, 9.6568344E-03
2665.141, 1.0242600E-02
2667.069, 1.0879180E-02
2668.998, 1.0184260E-02
2670.926, 9.2365462E-03
2672.855, 9.3023134E-03
2674.783, 1.0057040E-02
2676.712, 1.0399910E-02
2678.640, 1.0083980E-02
2680.569, 9.3693621E-03
2682.497, 9.7761452E-03
2684.426, 1.0069250E-02
2686.354, 9.7042155E-03
2688.282, 1.0239160E-02
2690.211, 1.0656000E-02
2692.139, 1.0116810E-02
2694.068, 9.3285423E-03
2695.996, 9.0065142E-03
2697.925, 9.9554276E-03
2699.853, 1.0466080E-02
2701.782, 1.0959600E-02
2703.710, 9.8452903E-03
2705.639, 9.4097694E-03
2707.567, 1.0086610E-02
2709.496, 9.8012146E-03
2711.424, 9.8444158E-03
2713.353, 9.5466441E-03
2715.281, 9.4293579E-03
2717.209, 9.7182421E-03
2719.138, 9.8389676E-03
2721.066, 9.8940460E-03
2722.995, 1.0168720E-02
2724.923, 1.0020370E-02
2726.852, 9.5053036E-03
2728.780, 9.7649032E-03
2730.709, 9.3720034E-03
2732.637, 8.5050156E-03
2734.566, 9.0361964E-03
2736.494, 1.0221440E-02
2738.423, 1.0584250E-02
2740.351, 1.0402920E-02
2742.280, 1.0275500E-02
2744.208, 1.0141510E-02
2746.136, 1.0246200E-02
2748.065, 1.0771570E-02
2749.993, 1.1023000E-02
2751.922, 1.1176340E-02
2753.850, 9.9609140E-03
2755.779, 9.1712559E-03
2757.707, 9.9586165E-03
2759.636, 1.0981180E-02
2761.564, 1.0980830E-02
2763.493, 1.0261570E-02
2765.421, 1.0355450E-02
2767.350, 1.0065850E-02
2769.278, 9.6934261E-03
2771.207, 1.0110730E-02
2773.135, 1.0244170E-02
2775.063, 9.8973224E-03
2776.992, 9.5156720E-03
2778.920, 1.0146750E-02
2780.849, 1.0825870E-02
2782.777, 1.0371300E-02
2784.706, 9.2062391E-03
2786.634, 8.8345706E-03
2788.563, 9.9087320E-03
2790.491, 1.0658900E-02
2792.420, 1.0600780E-02
2794.348, 1.1679420E-02
2796.277, 1.2077910E-02
2798.205, 1.1172410E-02
2800.134, 1.0526200E-02
2802.062, 1.0519420E-02
2803.990, 1.1268880E-02
2805.919, 1.1380190E-02
2807.847, 1.0211140E-02
2809.776, 1.0213120E-02
2811.704, 1.1066410E-02
2813.633, 1.0802440E-02
2815.561, 9.5867580E-03
2817.490, 8.8437255E-03
2819.418, 9.3711447E-03
2821.347, 1.0234940E-02
2823.275, 1.1613270E-02
2825.204, 1.1684580E-02
2827.132, 9.9933092E-03
2829.061, 1.0031270E-02
2830.989, 1.0825360E-02
2832.917, 1.0938440E-02
2834.846, 1.1434340E-02
2836.774, 1.1191380E-02
2838.703, 1.0881580E-02
2840.631, 1.0183300E-02
2842.560, 1.0074070E-02
2844.488, 1.0085050E-02
2846.417, 1.0542350E-02
2848.345, 1.0793530E-02
2850.274, 1.0715700E-02
2852.202, 1.0760770E-02
2854.131, 1.0454450E-02
2856.059, 1.0292100E-02
2857.988, 1.0647910E-02
2859.916, 1.1543440E-02
2861.844, 1.1114590E-02
2863.773, 1.1122750E-02
2865.701, 1.1234710E-02
2867.630, 1.0302580E-02
2869.558, 9.4701620E-03
2871.487, 1.0552690E-02
2873.415, 1.1370530E-02
2875.344, 1.0680500E-02
2877.272, 1.0444360E-02
2879.201, 1.0671670E-02
2881.129, 1.1346280E-02
2883.058, 1.1699050E-02
2884.986, 1.1847140E-02
2886.915, 1.2158910E-02
2888.843, 1.1907990E-02
2890.771, 1.1417290E-02
2892.700, 1.0700680E-02
2894.628, 1.0170660E-02
2896.557, 9.7176693E-03
2898.485, 1.0742110E-02
2900.414, 1.2072270E-02
2902.342, 1.1222280E-02
2904.271, 1.0700300E-02
2906.199, 9.9044498E-03
2908.128, 9.5285578E-03
2910.056, 1.1043270E-02
2911.985, 1.1923000E-02
2913.913, 1.0464950E-02
2915.842, 8.8621834E-03
2917.770, 9.1362614E-03
2919.698, 1.0243130E-02
2921.627, 1.1038220E-02
2923.555, 1.0780900E-02
2925.484, 1.1966090E-02
2927.412, 1.2856760E-02
2929.341, 1.2773200E-02
2931.269, 1.2014740E-02
2933.198, 1.0396320E-02
2935.126, 1.0271720E-02
2937.055, 1.1610730E-02
2938.983, 1.1130660E-02
2940.912, 1.1336710E-02
2942.840, 1.1559790E-02
2944.769, 1.0781450E-02
2946.697, 1.0132070E-02
2948.625, 1.0207310E-02
2950.554, 1.0875730E-02
2952.482, 1.0800290E-02
2954.411, 1.0917340E-02
2956.339, 1.1222740E-02
2958.268, 1.1979880E-02
2960.196, 1.1938040E-02
2962.125, 1.2228520E-02
2964.053, 1.2830120E-02
2965.982, 1.2835490E-02
2967.910, 1.3421350E-02
2969.839, 1.3615760E-02
2971.767, 1.3463950E-02
2973.696, 1.1765400E-02
2975.624, 1.0449930E-02
2977.552, 1.0155010E-02
2979.481, 1.0971040E-02
2981.409, 1.2653180E-02
2983.338, 1.3424060E-02
2985.266, 1.3017040E-02
2987.195, 1.3272130E-02
2989.123, 1.3499350E-02
2991.052, 1.2450170E-02
2992.980, 1.2044260E-02
2994.909, 1.1867680E-02
2996.837, 1.1840050E-02
2998.766, 1.3453110E-02
3000.694, 1.2960240E-02
3002.623, 1.3128540E-02
3004.551, 1.3010780E-02
3006.479, 1.2273150E-02
3008.408, 1.1963880E-02
3010.336, 1.1870340E-02
3012.265, 1.3002590E-02
3014.193, 1.4581840E-02
3016.122, 1.3930270E-02
3018.050, 1.1605930E-02
3019.979, 1.0683850E-02
3021.907, 1.1493390E-02
3023.836, 1.2342050E-02
3025.764, 1.2859090E-02
3027.693, 1.3486030E-02
3029.621, 1.4177250E-02
3031.550, 1.3169100E-02
3033.478, 1.2187560E-02
3035.406, 1.2898120E-02
3037.335, 1.3878840E-02
3039.263, 1.3710040E-02
3041.192, 1.3430030E-02
3043.120, 1.3505350E-02
3045.049, 1.2863790E-02
3046.977, 1.1942840E-02
3048.906, 1.1211180E-02
3050.834, 1.1370550E-02
3052.763, 1.0805950E-02
3054.691, 1.1670390E-02
3056.620, 1.3178100E-02
3058.548, 1.4353210E-02
3060.477, 1.3993420E-02
3062.405, 1.2974530E-02
3064.333, 1.2365300E-02
3066.262, 1.2785890E-02
3068.190, 1.3567190E-02
3070.119, 1.3801000E-02
3072.047, 1.2156840E-02
3073.976, 1.1071410E-02
3075.904, 1.0695680E-02
3077.833, 1.1128470E-02
3079.761, 1.1217470E-02
3081.690, 1.1280550E-02
3083.618, 1.2020940E-02
3085.547, 1.1796560E-02
3087.475, 1.0850410E-02
3089.404, 1.1285530E-02
3091.332, 1.2471510E-02
3093.260, 1.3507510E-02
3095.189, 1.2160060E-02
3097.117, 1.2257570E-02
3099.046, 1.2920930E-02
3100.974, 1.3108230E-02
3102.903, 1.2431290E-02
3104.831, 1.1885100E-02
3106.760, 1.2690920E-02
3108.688, 1.3704030E-02
3110.617, 1.4620130E-02
3112.545, 1.4082830E-02
3114.474, 1.3851280E-02
3116.402, 1.2705730E-02
3118.331, 1.1184450E-02
3120.259, 1.0874230E-02
3122.188, 1.1288820E-02
3124.116, 1.1383500E-02
3126.044, 1.2188480E-02
3127.973, 1.3370930E-02
3129.901, 1.3697840E-02
3131.830, 1.2189570E-02
3133.758, 1.0445030E-02
3135.687, 1.1060720E-02
3137.615, 1.3283640E-02
3139.544, 1.4261120E-02
3141.472, 1.3770340E-02
3143.401, 1.2658020E-02
3145.329, 1.1376000E-02
3147.258, 1.0217880E-02
3149.186, 1.1160580E-02
3151.115, 1.3330420E-02
3153.043, 1.4516420E-02
3154.971, 1.4914670E-02
3156.900, 1.3657750E-02
3158.828, 1.2672860E-02
3160.757, 1.2881020E-02
3162.685, 1.3491960E-02
3164.614, 1.3785600E-02
3166.542, 1.4055790E-02
3168.471, 1.3859560E-02
3170.399, 1.3084470E-02
3172.328, 1.3082140E-02
3174.256, 1.3030000E-02
3176.185, 1.3461560E-02
3178.113, 1.4119380E-02
3180.042, 1.4207580E-02
3181.970, 1.5072360E-02
3183.898, 1.4227370E-02
3185.827, 1.4290700E-02
3187.755, 1.4595100E-02
3189.684, 1.4041490E-02
3191.612, 1.3419300E-02
3193.541, 1.4092040E-02
3195.469, 1.4684670E-02
3197.398, 1.4231500E-02
3199.326, 1.4775890E-02
3201.255, 1.3766090E-02
3203.183, 1.3675450E-02
3205.112, 1.4805290E-02
3207.040, 1.4693710E-02
3208.969, 1.4030470E-02
3210.897, 1.2301180E-02
3212.825, 1.2533050E-02
3214.754, 1.3246560E-02
3216.682, 1.3680770E-02
3218.611, 1.4508120E-02
3220.539, 1.4586360E-02
3222.468, 1.2809320E-02
3224.396, 1.1824320E-02
3226.325, 1.3642430E-02
3228.253, 1.3721560E-02
3230.182, 1.5120800E-02
3232.110, 1.7349159E-02
3234.039, 1.6313080E-02
3235.967, 1.3866300E-02
3237.896, 1.3233400E-02
3239.824, 1.4057710E-02
3241.752, 1.3968220E-02
3243.681, 1.3403520E-02
3245.609, 1.4589940E-02
3247.538, 1.4882520E-02
3249.466, 1.5289550E-02
3251.395, 1.6518019E-02
3253.323, 1.6509270E-02
3255.252, 1.4021160E-02
3257.180, 1.3697060E-02
3259.109, 1.7315440E-02
3261.037, 1.5878661E-02
3262.966, 1.4001650E-02
3264.894, 1.3616770E-02
3266.823, 1.5295500E-02
3268.751, 1.6833151E-02
3270.679, 1.7378340E-02
3272.608, 1.6148189E-02
3274.536, 1.4355950E-02
3276.465, 1.4141700E-02
3278.393, 1.4112830E-02
3280.322, 1.3747400E-02
3282.250, 1.3144860E-02
3284.179, 1.3708300E-02
3286.107, 1.4410970E-02
3288.036, 1.5841560E-02
3289.964, 1.6872460E-02
3291.893, 1.6422620E-02
3293.821, 1.6195349E-02
3295.750, 1.6533110E-02
3297.678, 1.5038090E-02
3299.606, 1.5052850E-02
3301.535, 1.5438340E-02
3303.463, 1.5408410E-02
3305.392, 1.4394100E-02
3307.320, 1.3831890E-02
3309.249, 1.3473560E-02
3311.177, 1.4789250E-02
3313.106, 1.5760889E-02
3315.034, 1.6447410E-02
3316.963, 1.6498329E-02
3318.891, 1.5910050E-02
3320.820, 1.5396610E-02
3322.748, 1.5685109E-02
3324.677, 1.5691761E-02
3326.605, 1.5488720E-02
3328.533, 1.5381650E-02
3330.462, 1.4296740E-02
3332.390, 1.3695840E-02
3334.319, 1.4662570E-02
3336.247, 1.4924790E-02
3338.176, 1.4735850E-02
3340.104, 1.4773540E-02
3342.033, 1.4464740E-02
3343.961, 1.4820940E-02
3345.890, 1.4980020E-02
3347.818, 1.4230660E-02
3349.747, 1.3993750E-02
3351.675, 1.3591480E-02
3353.604, 1.3574510E-02
3355.532, 1.3221560E-02
3357.460, 1.4271420E-02
3359.389, 1.4796660E-02
3361.317, 1.2126180E-02
3363.246, 1.1470540E-02
3365.174, 1.3613690E-02
3367.103, 1.6704841E-02
3369.031, 1.6601840E-02
3370.960, 1.5407490E-02
3372.888, 1.5544160E-02
3374.817, 1.6163560E-02
3376.745, 1.5291920E-02
3378.674, 1.5056900E-02
3380.602, 1.5936580E-02
3382.531, 1.6123001E-02
3384.459, 1.5461030E-02
3386.387, 1.5577450E-02
3388.316, 1.5878070E-02
3390.244, 1.4060410E-02
3392.173, 1.4344850E-02
3394.101, 1.6179290E-02
3396.030, 1.7174140E-02
3397.958, 1.7253719E-02
3399.887, 1.6686210E-02
3401.815, 1.6030891E-02
3403.744, 1.5460920E-02
3405.672, 1.6245849E-02
3407.601, 1.5368570E-02
3409.529, 1.3209760E-02
3411.458, 1.2613690E-02
3413.386, 1.4023820E-02
3415.314, 1.5503070E-02
3417.243, 1.5582080E-02
3419.171, 1.4272220E-02
3421.100, 1.3830440E-02
3423.028, 1.5222820E-02
3424.957, 1.8034151E-02
3426.885, 1.7633021E-02
3428.814, 1.5692700E-02
3430.742, 1.5576320E-02
3432.671, 1.5415550E-02
3434.599, 1.5417660E-02
3436.528, 1.5339920E-02
3438.456, 1.5460870E-02
3440.385, 1.4311400E-02
3442.313, 1.3425160E-02
3444.241, 1.4783320E-02
3446.170, 1.6227441E-02
3448.098, 1.5237590E-02
3450.027, 1.4746390E-02
3451.955, 1.4371540E-02
3453.884, 1.3753910E-02
3455.812, 1.4155010E-02
3457.741, 1.5202890E-02
3459.669, 1.5025410E-02
3461.598, 1.4756230E-02
3463.526, 1.6103610E-02
3465.455, 1.6916160E-02
3467.383, 1.6944280E-02
3469.312, 1.6734000E-02
3471.240, 1.6460480E-02
3473.168, 1.6528619E-02
3475.097, 1.6509971E-02
3477.025, 1.5871320E-02
3478.954, 1.5941281E-02
3480.882, 1.6036261E-02
3482.811, 1.7450610E-02
3484.739, 1.7436210E-02
3486.668, 1.6312329E-02
3488.596, 1.6127290E-02
3490.525, 1.5850900E-02
3492.453, 1.7517529E-02
3494.382, 1.7098460E-02
3496.310, 1.5871551E-02
3498.239, 1.8627340E-02
3500.167, 1.8307270E-02
3502.095, 1.5036210E-02
3504.024, 1.3699810E-02
3505.952, 1.4551780E-02
3507.881, 1.4399260E-02
3509.809, 1.6111109E-02
3511.738, 1.9645991E-02
3513.666, 1.8817339E-02
3515.595, 1.8280210E-02
3517.523, 1.7604141E-02
3519.452, 1.6779410E-02
3521.380, 1.7905790E-02
3523.309, 1.8500861E-02
3525.237, 1.8852580E-02
3527.166, 1.8793680E-02
3529.094, 1.7502720E-02
3531.022, 1.8479910E-02
3532.951, 1.8419860E-02
3534.879, 1.7915780E-02
3536.808, 1.5620020E-02
3538.736, 1.3578210E-02
3540.665, 1.6407119E-02
3542.593, 1.8713569E-02
3544.522, 1.6727131E-02
3546.450, 1.7464720E-02
3548.379, 1.7913179E-02
3550.307, 1.7939581E-02
3552.236, 2.0110659E-02
3554.164, 2.0276330E-02
3556.093, 1.6736349E-02
3558.021, 1.5034770E-02
3559.949, 1.6586740E-02
3561.878, 1.6998749E-02
3563.806, 1.7993219E-02
3565.735, 1.6378330E-02
3567.663, 1.6810531E-02
3569.592, 1.9643560E-02
3571.520, 1.9054091E-02
3573.449, 1.5285650E-02
3575.377, 1.3691670E-02
3577.306, 1.2785850E-02
3579.234, 1.0894940E-02
3581.163, 1.1447470E-02
3583.091, 1.2527530E-02
3585.020, 1.3576050E-02
3586.948, 1.6859820E-02
3588.876, 1.8082380E-02
3590.805, 1.7459940E-02
3592.733, 1.7793300E-02
3594.662, 1.7514709E-02
3596.590, 1.7863270E-02
3598.519, 1.6658099E-02
3600.447, 1.5869871E-02
3602.376, 1.3440830E-02
3604.304, 1.3260850E-02
3606.233, 1.5095520E-02
3608.161, 1.5700979E-02
3610.090, 1.7719081E-02
3612.018, 1.6846759E-02
3613.947, 1.4174160E-02
3615.875, 1.5869970E-02
3617.803, 1.7353270E-02
3619.732, 1.6889410E-02
3621.660, 1.5326950E-02
3623.589, 1.6747460E-02
3625.517, 1.8482961E-02
3627.446, 1.7820060E-02
3629.374, 1.8011380E-02
3631.303, 1.7091900E-02
3633.231, 1.7158911E-02
3635.160, 1.8986030E-02
3637.088, 1.8232999E-02
3639.017, 1.6993281E-02
3640.945, 1.5333890E-02
3642.874, 1.4746860E-02
3644.802, 1.6465580E-02
3646.730, 1.8287821E-02
3648.659, 1.9219400E-02
3650.587, 1.7365480E-02
3652.516, 1.5876761E-02
3654.444, 1.7447861E-02
3656.373, 1.8973719E-02
3658.301, 1.6439481E-02
3660.230, 1.2897730E-02
3662.158, 1.0200500E-02
3664.087, 1.4189640E-02
3666.015, 1.7614249E-02
3667.944, 1.6091369E-02
3669.872, 1.7161950E-02
3671.801, 1.6712081E-02
3673.729, 1.5183510E-02
3675.657, 1.4438320E-02
3677.586, 1.5127360E-02
3679.514, 1.4719340E-02
3681.443, 1.2363620E-02
3683.371, 1.4749060E-02
3685.300, 1.7577400E-02
3687.228, 1.5445660E-02
3689.157, 1.3697430E-02
3691.085, 1.4311100E-02
3693.014, 1.6596830E-02
3694.942, 1.6159860E-02
3696.871, 1.6518001E-02
3698.799, 1.9025460E-02
3700.728, 1.8456640E-02
3702.656, 1.5914779E-02
3704.584, 1.4818770E-02
3706.513, 1.6087160E-02
3708.441, 1.7466160E-02
3710.370, 1.6142890E-02
3712.298, 1.4566730E-02
3714.227, 1.5859621E-02
3716.155, 1.5427600E-02
3718.084, 1.4452570E-02
3720.012, 1.5673099E-02
3721.941, 1.7733701E-02
3723.869, 1.8574800E-02
3725.798, 1.7871780E-02
3727.726, 1.6474919E-02
3729.655, 1.6040441E-02
3731.583, 1.6086319E-02
3733.511, 1.8303830E-02
3735.440, 2.1601221E-02
3737.368, 2.0065021E-02
3739.297, 1.6866419E-02
3741.225, 1.6738219E-02
3743.154, 1.6599610E-02
3745.082, 1.5927460E-02
3747.011, 1.8130340E-02
3748.939, 1.9031610E-02
3750.868, 1.8238351E-02
3752.796, 1.7782539E-02
3754.725, 1.6371800E-02
3756.653, 1.8215381E-02
3758.582, 1.9718250E-02
3760.510, 1.9709200E-02
3762.438, 1.8430520E-02
3764.367, 1.7195661E-02
3766.295, 1.8236900E-02
3768.224, 1.8087540E-02
3770.152, 2.0492220E-02
3772.081, 1.9474231E-02
3774.009, 1.6954379E-02
3775.938, 1.7600929E-02
3777.866, 1.9109439E-02
3779.795, 1.6158311E-02
3781.723, 1.3739860E-02
3783.652, 1.9004390E-02
3785.580, 1.9690409E-02
3787.509, 1.7140821E-02
3789.437, 1.6434381E-02
3791.365, 1.8105259E-02
3793.294, 1.9202730E-02
3795.222, 1.8814960E-02
3797.151, 1.7424880E-02
3799.079, 1.8231060E-02
3801.008, 1.7650699E-02
3802.936, 1.8751880E-02
3804.865, 1.7889449E-02
3806.793, 1.5769370E-02
3808.722, 1.5816350E-02
3810.650, 1.3345420E-02
3812.579, 1.1606500E-02
3814.507, 1.5377360E-02
3816.436, 1.8315891E-02
3818.364, 1.9585541E-02
3820.292, 2.0058271E-02
3822.221, 2.2293910E-02
3824.149, 2.0890670E-02
3826.078, 1.9158490E-02
3828.006, 1.9474320E-02
3829.935, 2.0290401E-02
3831.863, 1.9793021E-02
3833.792, 1.9618791E-02
3835.720, 1.8607249E-02
3837.649, 1.7938189E-02
3839.577, 1.5740650E-02
3841.506, 1.5950050E-02
3843.434, 1.9230841E-02
3845.363, 1.9454069E-02
3847.291, 1.9462019E-02
3849.219, 1.9074010E-02
3851.148, 1.9667961E-02
3853.076, 2.0718539E-02
3855.005, 1.6809700E-02
3856.933, 1.4370380E-02
3858.862, 1.2639680E-02
3860.790, 1.3121420E-02
3862.719, 1.5579860E-02
3864.647, 1.7320810E-02
3866.576, 1.6970551E-02
3868.504, 1.6237499E-02
3870.433, 1.8343201E-02
3872.361, 2.1011390E-02
3874.290, 1.8752290E-02
3876.218, 1.8105110E-02
3878.146, 2.1155071E-02
3880.075, 2.1906910E-02
3882.003, 1.8864149E-02
3883.932, 1.5398120E-02
3885.860, 1.5221660E-02
3887.789, 1.6691919E-02
3889.717, 1.7947620E-02
3891.646, 1.6537370E-02
3893.574, 1.3858230E-02
3895.503, 1.3617860E-02
3897.431, 1.4527000E-02
3899.360, 1.5568420E-02
3901.288, 1.5229790E-02
3903.217, 1.5017960E-02
3905.145, 1.4817440E-02
3907.073, 1.5758749E-02
3909.002, 1.8963000E-02
3910.930, 2.1855200E-02
3912.859, 2.1762369E-02
3914.787, 1.9927220E-02
3916.716, 1.8267110E-02
3918.644, 1.8290021E-02
3920.573, 1.9071810E-02
3922.501, 2.0803301E-02
3924.430, 2.2228209E-02
3926.358, 1.7793261E-02
3928.287, 1.5153160E-02
3930.215, 1.4314420E-02
3932.144, 1.4381100E-02
3934.072, 1.6683569E-02
3936.000, 2.1262409E-02
3937.929, 2.3140069E-02
3939.857, 1.8951509E-02
3941.786, 2.0355400E-02
3943.714, 2.2885339E-02
3945.643, 2.4123600E-02
3947.571, 2.0405261E-02
3949.500, 1.7240779E-02
3951.428, 1.8162491E-02
3953.357, 1.9467231E-02
3955.285, 2.1450849E-02
3957.214, 1.9592449E-02
3959.142, 1.6774921E-02
3961.071, 1.6959630E-02
3962.999, 1.7385529E-02
3964.927, 1.8236890E-02
3966.856, 1.8743310E-02
3968.784, 1.8345140E-02
3970.713, 1.8718570E-02
3972.641, 1.7533140E-02
3974.570, 1.6328899E-02
3976.498, 1.6084781E-02
3978.427, 1.6766110E-02
3980.355, 1.8626170E-02
3982.284, 1.9286079E-02
3984.212, 2.0655710E-02
3986.141, 2.2279641E-02
3988.069, 2.0054519E-02
3989.998, 1.7883681E-02
3991.926, 1.7843550E-02
3993.854, 1.6697370E-02
3995.783, 1.4856860E-02
3997.711, 1.7386749E-02
3999.640, 1.7395141E-02
##END=



