##NAMES=Simpsonite
##RRUFFID=R050629
##IDEAL CHEMISTRY=Al_4_Ta^5+^_3_O_13_(OH)
##LOCALITY=Equador, Rio Grande do Norte, Brazil
##OWNER=RRUFF
##SOURCE=Gemological Center
##DESCRIPTION=Yellow fragment
##STATUS=The identification of this mineral has been confirmed by X-ray diffraction and chemical analysis
##URL=rruff.info/R050629
##MEASURED CHEMISTRY=Al_4.00_(Ta_2.93_Nb_0.07_)_Î£=3_O_13_(OH)
399.1926, 0.1284853
401.1211, 0.1160008
403.0496, 0.1165584
404.9780, 0.1170704
406.9065, 0.1215647
408.8350, 0.1257641
410.7634, 0.1283793
412.6919, 0.1292585
414.6204, 0.1271723
416.5488, 0.1277132
418.4773, 0.1311715
420.4058, 0.1334088
422.3342, 0.1325956
424.2627, 0.1348346
426.1912, 0.1362423
428.1196, 0.1355314
430.0481, 0.1340177
431.9766, 0.1316782
433.9050, 0.1303617
435.8335, 0.1306698
437.7620, 0.1291836
439.6904, 0.1261363
441.6189, 0.1250441
443.5474, 0.1221719
445.4758, 0.1181332
447.4043, 0.1126327
449.3328, 0.1070480
451.2612, 0.1006525
453.1897, 9.3255118E-02
455.1182, 8.7459482E-02
457.0466, 8.5078537E-02
458.9751, 8.6395018E-02
460.9036, 8.9420773E-02
462.8320, 9.2302799E-02
464.7605, 9.4484143E-02
466.6890, 9.7362392E-02
468.6174, 0.1006784
470.5459, 0.1032622
472.4744, 0.1072187
474.4028, 0.1100927
476.3313, 0.1097694
478.2598, 0.1086358
480.1882, 0.1068141
482.1167, 0.1039726
484.0452, 0.1042972
485.9736, 0.1078864
487.9021, 0.1110270
489.8306, 0.1128276
491.7590, 0.1141048
493.6875, 0.1144657
495.6160, 0.1141536
497.5444, 0.1126649
499.4729, 0.1117690
501.4014, 0.1103309
503.3298, 0.1077022
505.2583, 0.1039111
507.1868, 0.1005568
509.1152, 9.7222313E-02
511.0437, 9.4027780E-02
512.9722, 9.1665089E-02
514.9006, 9.0664446E-02
516.8291, 9.2370354E-02
518.7576, 9.6774057E-02
520.6860, 0.1017059
522.6145, 0.1050839
524.5430, 0.1060910
526.4714, 0.1053638
528.3999, 0.1037399
530.3284, 0.1010973
532.2568, 9.6968003E-02
534.1853, 9.3092047E-02
536.1138, 9.1468573E-02
538.0422, 9.1134883E-02
539.9707, 9.1763929E-02
541.8992, 9.3143813E-02
543.8276, 9.4475172E-02
545.7561, 9.5285147E-02
547.6846, 9.6390307E-02
549.6130, 9.7546481E-02
551.5415, 9.9850059E-02
553.4700, 0.1047190
555.3984, 0.1094343
557.3269, 0.1125060
559.2554, 0.1137661
561.1838, 0.1142819
563.1123, 0.1136455
565.0408, 0.1109039
566.9692, 0.1064729
568.8977, 0.1019362
570.8262, 9.7620517E-02
572.7546, 9.4405711E-02
574.6831, 9.3301818E-02
576.6116, 9.4781123E-02
578.5400, 9.7984023E-02
580.4685, 0.1013764
582.3970, 0.1031673
584.3254, 0.1037015
586.2539, 0.1030458
588.1824, 0.1016673
590.1108, 0.1002797
592.0393, 9.8376267E-02
593.9678, 9.7235873E-02
595.8962, 9.5835216E-02
597.8247, 9.3828224E-02
599.7532, 9.1853283E-02
601.6816, 8.9551121E-02
603.6101, 8.7357476E-02
605.5386, 8.5107893E-02
607.4670, 8.2327820E-02
609.3955, 8.0002658E-02
611.3240, 7.9165332E-02
613.2524, 7.9019427E-02
615.1809, 7.8873128E-02
617.1094, 8.0283202E-02
619.0378, 8.3149232E-02
620.9663, 8.7334633E-02
622.8948, 9.2291579E-02
624.8232, 9.6555188E-02
626.7517, 0.1001557
628.6802, 0.1031245
630.6086, 0.1059178
632.5371, 0.1090348
634.4656, 0.1125793
636.3940, 0.1161717
638.3225, 0.1193325
640.2510, 0.1223059
642.1794, 0.1247876
644.1079, 0.1263124
646.0364, 0.1271979
647.9648, 0.1275684
649.8933, 0.1269895
651.8218, 0.1257637
653.7502, 0.1236166
655.6787, 0.1215572
657.6072, 0.1194445
659.5356, 0.1172204
661.4641, 0.1149426
663.3926, 0.1126859
665.3210, 0.1105989
667.2495, 0.1083522
669.1780, 0.1058079
671.1064, 0.1036202
673.0349, 0.1015997
674.9634, 9.9507608E-02
676.8918, 9.7705111E-02
678.8203, 9.6292421E-02
680.7488, 9.4669782E-02
682.6772, 9.2878424E-02
684.6057, 9.1697857E-02
686.5342, 9.0439864E-02
688.4626, 8.8831291E-02
690.3911, 8.7240577E-02
692.3196, 8.5763827E-02
694.2480, 8.4258489E-02
696.1765, 8.2361422E-02
698.1050, 8.0938809E-02
700.0334, 7.9895139E-02
701.9619, 7.8004479E-02
703.8904, 7.6107450E-02
705.8188, 7.4403599E-02
707.7473, 7.3053807E-02
709.6758, 7.1409836E-02
711.6042, 6.9301948E-02
713.5327, 6.7520171E-02
715.4612, 6.6420257E-02
717.3896, 6.5096229E-02
719.3181, 6.3428909E-02
721.2466, 6.1680090E-02
723.1750, 5.9954628E-02
725.1035, 5.8154009E-02
727.0320, 5.6347869E-02
728.9604, 5.5005170E-02
730.8889, 5.3302210E-02
732.8174, 5.1517401E-02
734.7458, 4.9451791E-02
736.6743, 4.7434941E-02
738.6028, 4.5600951E-02
740.5313, 4.3725759E-02
742.4597, 4.1731540E-02
744.3882, 3.9947581E-02
746.3167, 3.8268499E-02
748.2451, 3.6457490E-02
750.1736, 3.4484848E-02
752.1021, 3.2795329E-02
754.0305, 3.1701770E-02
755.9590, 3.0893940E-02
757.8875, 3.0991491E-02
759.8159, 3.1982090E-02
761.7444, 3.3212490E-02
763.6729, 3.5442501E-02
765.6013, 3.8515661E-02
767.5298, 4.2438019E-02
769.4583, 4.7840621E-02
771.3867, 5.4124258E-02
773.3152, 6.0155030E-02
775.2437, 6.4717181E-02
777.1721, 6.7872867E-02
779.1006, 6.9772013E-02
781.0291, 6.9723383E-02
782.9575, 6.8195403E-02
784.8860, 6.5678582E-02
786.8145, 6.3172467E-02
788.7429, 6.0723830E-02
790.6714, 5.8170889E-02
792.5999, 5.6113761E-02
794.5283, 5.4690521E-02
796.4568, 5.3726710E-02
798.3853, 5.2962180E-02
800.3137, 5.2498579E-02
802.2422, 5.2252870E-02
804.1707, 5.2307010E-02
806.0991, 5.2704819E-02
808.0276, 5.2368369E-02
809.9561, 5.1951110E-02
811.8845, 5.1350899E-02
813.8130, 5.0339840E-02
815.7415, 4.9178708E-02
817.6699, 4.7494009E-02
819.5984, 4.5182161E-02
821.5269, 4.2455789E-02
823.4553, 3.9928969E-02
825.3838, 3.7523899E-02
827.3123, 3.5682380E-02
829.2407, 3.4393601E-02
831.1692, 3.2575071E-02
833.0977, 3.0449649E-02
835.0261, 2.9131619E-02
836.9546, 2.8110290E-02
838.8831, 2.6967170E-02
840.8115, 2.5949299E-02
842.7400, 2.5053561E-02
844.6685, 2.4020121E-02
846.5969, 2.2960801E-02
848.5254, 2.2160459E-02
850.4539, 2.1437520E-02
852.3823, 2.0925330E-02
854.3108, 2.0411739E-02
856.2393, 2.0004570E-02
858.1677, 1.9354761E-02
860.0962, 1.8826289E-02
862.0247, 1.8739300E-02
863.9531, 1.8682940E-02
865.8816, 1.8576249E-02
867.8101, 1.8403610E-02
869.7385, 1.8249320E-02
871.6670, 1.8175650E-02
873.5955, 1.8557729E-02
875.5239, 1.8987769E-02
877.4524, 1.9229179E-02
879.3809, 1.9969329E-02
881.3093, 2.1150090E-02
883.2378, 2.2777660E-02
885.1663, 2.5278689E-02
887.0947, 2.8308420E-02
889.0232, 3.1635851E-02
890.9517, 3.5350788E-02
892.8801, 3.9939981E-02
894.8085, 4.5391809E-02
896.7370, 5.1498570E-02
898.6655, 5.7540789E-02
900.5939, 6.2882312E-02
902.5224, 6.7306407E-02
904.4509, 7.0233308E-02
906.3793, 7.1274102E-02
908.3078, 7.0326321E-02
910.2363, 6.7726053E-02
912.1647, 6.4236768E-02
914.0932, 6.0581740E-02
916.0217, 5.7167441E-02
917.9501, 5.3712759E-02
919.8786, 4.9767472E-02
921.8071, 4.6097461E-02
923.7355, 4.2899162E-02
925.6640, 3.9734460E-02
927.5925, 3.6822990E-02
929.5209, 3.3773240E-02
931.4494, 3.0781180E-02
933.3779, 2.8186049E-02
935.3063, 2.5587261E-02
937.2348, 2.3252981E-02
939.1633, 2.0891400E-02
941.0917, 1.8648710E-02
943.0202, 1.6622970E-02
944.9487, 1.4971980E-02
946.8771, 1.3503370E-02
948.8056, 1.2082310E-02
950.7341, 1.1163940E-02
952.6625, 1.0416520E-02
954.5910, 9.4878376E-03
956.5195, 8.9888554E-03
958.4479, 8.6941291E-03
960.3764, 8.4060412E-03
962.3049, 7.9130949E-03
964.2333, 7.6079411E-03
966.1618, 7.4104979E-03
968.0903, 7.2086579E-03
970.0187, 7.3087900E-03
971.9472, 7.3755882E-03
973.8757, 7.1952790E-03
975.8041, 7.2426149E-03
977.7326, 7.4422061E-03
979.6611, 7.1460162E-03
981.5895, 6.8044108E-03
983.5180, 6.7938059E-03
985.4465, 6.7432700E-03
987.3749, 6.7926622E-03
989.3034, 7.0191212E-03
991.2319, 7.1964851E-03
993.1603, 7.2036930E-03
995.0888, 7.2300839E-03
997.0173, 7.2725518E-03
998.9457, 7.3833000E-03
1000.874, 7.5311190E-03
1002.803, 7.7396268E-03
1004.731, 8.1187179E-03
1006.660, 8.2949614E-03
1008.588, 8.7578278E-03
1010.517, 8.9777960E-03
1012.445, 8.9113908E-03
1014.373, 8.9635234E-03
1016.302, 9.0646343E-03
1018.230, 9.1957003E-03
1020.159, 9.0568373E-03
1022.087, 8.9841662E-03
1024.016, 8.8695697E-03
1025.944, 8.8023236E-03
1027.873, 9.1461083E-03
1029.801, 9.5759230E-03
1031.730, 9.8901540E-03
1033.658, 9.9259382E-03
1035.587, 9.8637091E-03
1037.515, 9.5745372E-03
1039.444, 9.3664611E-03
1041.372, 9.2783067E-03
1043.301, 9.1524292E-03
1045.229, 9.0006329E-03
1047.157, 8.9599090E-03
1049.086, 9.2169801E-03
1051.014, 9.3065985E-03
1052.943, 8.7910919E-03
1054.871, 8.3965231E-03
1056.800, 8.2823606E-03
1058.728, 7.8900326E-03
1060.657, 7.5117270E-03
1062.585, 7.4263369E-03
1064.514, 7.3477081E-03
1066.442, 7.2363489E-03
1068.371, 6.9228439E-03
1070.299, 6.8470128E-03
1072.228, 6.8297870E-03
1074.156, 6.6402210E-03
1076.084, 6.3409628E-03
1078.013, 6.0276282E-03
1079.941, 5.7536359E-03
1081.870, 5.6369151E-03
1083.798, 5.6613558E-03
1085.727, 5.5823429E-03
1087.655, 5.3306390E-03
1089.584, 4.9059801E-03
1091.512, 5.0260220E-03
1093.441, 5.1569971E-03
1095.369, 4.9072029E-03
1097.298, 4.7374172E-03
1099.226, 4.5714481E-03
1101.155, 4.6373052E-03
1103.083, 4.9330811E-03
1105.011, 4.9147028E-03
1106.940, 4.9235760E-03
1108.868, 4.9141138E-03
1110.797, 4.4647502E-03
1112.725, 4.1995542E-03
1114.654, 4.0701260E-03
1116.582, 3.9051650E-03
1118.511, 3.8866911E-03
1120.439, 3.6945301E-03
1122.368, 3.5076470E-03
1124.296, 3.4737531E-03
1126.225, 3.3959090E-03
1128.153, 3.2828311E-03
1130.082, 3.4962669E-03
1132.010, 3.3638021E-03
1133.938, 3.1946010E-03
1135.867, 3.2915620E-03
1137.795, 3.0584510E-03
1139.724, 2.9138310E-03
1141.652, 2.8199910E-03
1143.581, 2.4365520E-03
1145.509, 2.3079831E-03
1147.438, 2.2139051E-03
1149.366, 1.9405240E-03
1151.295, 2.0474950E-03
1153.223, 2.0292471E-03
1155.152, 1.8087960E-03
1157.080, 1.7718390E-03
1159.009, 1.6057920E-03
1160.937, 1.6140980E-03
1162.865, 1.6769670E-03
1164.794, 1.4018730E-03
1166.722, 1.4445890E-03
1168.651, 1.6482860E-03
1170.579, 1.5580150E-03
1172.508, 1.5776890E-03
1174.436, 1.6896710E-03
1176.365, 1.6948309E-03
1178.293, 1.7945280E-03
1180.222, 1.6919130E-03
1182.150, 1.5743190E-03
1184.079, 1.5063700E-03
1186.007, 1.4843880E-03
1187.936, 1.3213110E-03
1189.864, 1.2661460E-03
1191.792, 1.5171730E-03
1193.721, 1.5562440E-03
1195.649, 1.5009060E-03
1197.578, 1.7046120E-03
1199.506, 1.8003930E-03
1201.435, 1.6723610E-03
1203.363, 1.6307660E-03
1205.292, 1.8244660E-03
1207.220, 1.8329640E-03
1209.149, 1.7269501E-03
1211.077, 1.6945991E-03
1213.006, 1.5907780E-03
1214.934, 1.5886640E-03
1216.863, 1.5070350E-03
1218.791, 1.3771300E-03
1220.719, 1.3016150E-03
1222.648, 1.3135400E-03
1224.576, 1.2619230E-03
1226.505, 1.2886371E-03
1228.433, 1.5468770E-03
1230.362, 1.6844890E-03
1232.290, 1.4928110E-03
1234.219, 1.3639349E-03
1236.147, 1.1213870E-03
1238.076, 1.3160090E-03
1240.004, 1.6212401E-03
1241.933, 1.6530260E-03
1243.861, 1.5710160E-03
1245.790, 1.5684840E-03
1247.718, 1.4181880E-03
1249.646, 1.3216680E-03
1251.575, 1.2250270E-03
1253.503, 1.5098460E-03
1255.432, 1.6584340E-03
1257.360, 1.4883809E-03
1259.289, 1.4864380E-03
1261.217, 1.7134870E-03
1263.146, 1.6959120E-03
1265.074, 1.7370180E-03
1267.003, 1.9887839E-03
1268.931, 2.2043979E-03
1270.860, 2.0759001E-03
1272.788, 1.9794111E-03
1274.717, 2.2052040E-03
1276.645, 2.2726301E-03
1278.573, 2.3313230E-03
1280.502, 2.3621509E-03
1282.430, 2.2894139E-03
1284.359, 2.2573911E-03
1286.287, 2.1383639E-03
1288.216, 2.2257289E-03
1290.144, 2.1309161E-03
1292.073, 2.1817191E-03
1294.001, 2.3888610E-03
1295.930, 2.4731520E-03
1297.858, 2.4944120E-03
1299.787, 2.5822630E-03
1301.715, 2.7022271E-03
1303.644, 2.7215511E-03
1305.572, 2.6901960E-03
1307.500, 2.6622200E-03
1309.429, 2.6777859E-03
1311.357, 2.7951580E-03
1313.286, 2.9281070E-03
1315.214, 3.0226039E-03
1317.143, 3.1477460E-03
1319.071, 2.9528679E-03
1321.000, 2.8238920E-03
1322.928, 2.9063411E-03
1324.857, 3.0134760E-03
1326.785, 3.1093040E-03
1328.714, 3.1193569E-03
1330.642, 3.1779669E-03
1332.571, 3.3567240E-03
1334.499, 3.4056129E-03
1336.427, 3.3574870E-03
1338.356, 3.2101241E-03
1340.284, 3.0657100E-03
1342.213, 3.1551621E-03
1344.141, 3.2295540E-03
1346.070, 3.3028980E-03
1347.998, 3.4233951E-03
1349.927, 3.5020369E-03
1351.855, 3.4298110E-03
1353.784, 3.4349300E-03
1355.712, 3.2950719E-03
1357.641, 3.1828349E-03
1359.569, 3.2503600E-03
1361.498, 3.4692041E-03
1363.426, 3.5887780E-03
1365.354, 3.6276260E-03
1367.283, 3.5734519E-03
1369.211, 3.5983920E-03
1371.140, 3.5474719E-03
1373.068, 3.4326550E-03
1374.997, 3.3075381E-03
1376.925, 3.2901110E-03
1378.854, 3.1357449E-03
1380.782, 3.2067751E-03
1382.711, 3.5250529E-03
1384.639, 3.6677399E-03
1386.568, 3.8001151E-03
1388.496, 4.2187958E-03
1390.424, 4.3789800E-03
1392.353, 4.4730739E-03
1394.281, 4.5980080E-03
1396.210, 4.7386801E-03
1398.138, 4.7248690E-03
1400.067, 4.6619619E-03
1401.995, 4.5264680E-03
1403.924, 4.4639949E-03
1405.852, 4.5666099E-03
1407.781, 4.6576601E-03
1409.709, 4.9383109E-03
1411.638, 5.0745611E-03
1413.566, 4.8234542E-03
1415.495, 4.6550161E-03
1417.423, 4.4647660E-03
1419.351, 4.5228559E-03
1421.280, 4.6357499E-03
1423.208, 4.8314999E-03
1425.137, 4.9316180E-03
1427.065, 4.8552691E-03
1428.994, 4.8228428E-03
1430.922, 5.0317422E-03
1432.851, 5.0032968E-03
1434.779, 4.9624932E-03
1436.708, 4.7448762E-03
1438.636, 4.5284652E-03
1440.565, 4.7070179E-03
1442.493, 4.5748842E-03
1444.422, 4.3091062E-03
1446.350, 4.3788468E-03
1448.278, 4.4920682E-03
1450.207, 4.6738470E-03
1452.135, 4.5925239E-03
1454.064, 4.3690638E-03
1455.992, 4.2743110E-03
1457.921, 4.2266711E-03
1459.849, 4.2841719E-03
1461.778, 4.0858891E-03
1463.706, 4.0395409E-03
1465.635, 4.0110941E-03
1467.563, 4.1024028E-03
1469.492, 4.4986270E-03
1471.420, 5.1679560E-03
1473.349, 5.8764680E-03
1475.277, 6.1469609E-03
1477.205, 6.2697539E-03
1479.134, 6.3572791E-03
1481.062, 5.9706820E-03
1482.991, 5.7984982E-03
1484.919, 6.2317480E-03
1486.848, 6.6726571E-03
1488.776, 6.7494479E-03
1490.705, 6.8330122E-03
1492.633, 6.7822249E-03
1494.562, 6.9441842E-03
1496.490, 6.9470811E-03
1498.419, 6.7667742E-03
1500.347, 6.9639301E-03
1502.276, 7.0851850E-03
1504.204, 6.9636968E-03
1506.132, 6.9064531E-03
1508.061, 6.9981180E-03
1509.989, 7.3211789E-03
1511.918, 7.5378562E-03
1513.846, 7.5459979E-03
1515.775, 7.5306678E-03
1517.703, 7.5329752E-03
1519.632, 7.3476648E-03
1521.560, 7.2390842E-03
1523.489, 7.3057781E-03
1525.417, 7.5303130E-03
1527.346, 7.6576732E-03
1529.274, 7.9433275E-03
1531.203, 8.1467396E-03
1533.131, 7.8503722E-03
1535.059, 7.8277197E-03
1536.988, 8.0667399E-03
1538.916, 7.8928946E-03
1540.845, 7.9705687E-03
1542.773, 8.3437404E-03
1544.702, 8.4447637E-03
1546.630, 8.2203671E-03
1548.559, 8.0991648E-03
1550.487, 8.0069294E-03
1552.416, 8.0688912E-03
1554.344, 8.1774844E-03
1556.273, 8.2606021E-03
1558.201, 8.1455726E-03
1560.130, 8.2212118E-03
1562.058, 8.4510772E-03
1563.986, 8.3908364E-03
1565.915, 8.2334746E-03
1567.843, 8.4285177E-03
1569.772, 8.4475745E-03
1571.700, 8.5250754E-03
1573.629, 8.5825250E-03
1575.557, 8.4932428E-03
1577.486, 8.4996158E-03
1579.414, 8.4128911E-03
1581.343, 8.3278520E-03
1583.271, 8.5796025E-03
1585.200, 8.7063210E-03
1587.128, 8.4407246E-03
1589.057, 8.4628128E-03
1590.985, 8.5603958E-03
1592.913, 8.4183309E-03
1594.842, 8.2427207E-03
1596.770, 8.2855634E-03
1598.699, 8.4585575E-03
1600.627, 8.7562520E-03
1602.556, 9.0153813E-03
1604.484, 8.7153874E-03
1606.413, 8.6048217E-03
1608.341, 8.6375959E-03
1610.270, 8.7669110E-03
1612.198, 8.9891599E-03
1614.127, 8.8229496E-03
1616.055, 8.5824775E-03
1617.984, 8.8225892E-03
1619.912, 8.8693043E-03
1621.840, 8.9051137E-03
1623.769, 9.0801623E-03
1625.697, 9.1791274E-03
1627.626, 9.2868377E-03
1629.554, 9.2894156E-03
1631.483, 8.8647781E-03
1633.411, 8.6299460E-03
1635.340, 8.9256791E-03
1637.268, 8.9486213E-03
1639.197, 8.9159859E-03
1641.125, 9.4241938E-03
1643.054, 9.7252773E-03
1644.982, 9.5162112E-03
1646.911, 9.8267179E-03
1648.839, 9.9816946E-03
1650.767, 9.6788444E-03
1652.696, 9.4703846E-03
1654.624, 9.5846038E-03
1656.553, 9.8825796E-03
1658.481, 1.0004070E-02
1660.410, 9.9918274E-03
1662.338, 9.8328348E-03
1664.267, 9.8603414E-03
1666.195, 9.9952938E-03
1668.124, 9.5053632E-03
1670.052, 9.2449291E-03
1671.981, 9.8175975E-03
1673.909, 1.0193310E-02
1675.838, 1.0036700E-02
1677.766, 9.9004796E-03
1679.694, 9.9275438E-03
1681.623, 1.0104680E-02
1683.551, 9.9467197E-03
1685.480, 9.8915976E-03
1687.408, 1.0077990E-02
1689.337, 1.0032250E-02
1691.265, 1.0105970E-02
1693.194, 1.0331220E-02
1695.122, 1.0200430E-02
1697.051, 1.0159580E-02
1698.979, 1.0155780E-02
1700.908, 9.7750342E-03
1702.836, 9.4493842E-03
1704.765, 9.5185013E-03
1706.693, 9.3912911E-03
1708.621, 9.0992926E-03
1710.550, 8.8656358E-03
1712.478, 8.9005521E-03
1714.407, 9.0674218E-03
1716.335, 9.0901135E-03
1718.264, 9.1852238E-03
1720.192, 9.1150412E-03
1722.121, 9.1144014E-03
1724.049, 9.1750901E-03
1725.978, 9.2662349E-03
1727.906, 8.9289974E-03
1729.835, 8.2711875E-03
1731.763, 7.7224481E-03
1733.692, 7.0841541E-03
1735.620, 6.9996212E-03
1737.548, 6.8476731E-03
1739.477, 6.7951381E-03
1741.405, 7.0065302E-03
1743.334, 6.7750579E-03
1745.262, 6.4031570E-03
1747.191, 6.6723558E-03
1749.119, 7.3844618E-03
1751.048, 8.0529787E-03
1752.976, 8.5643819E-03
1754.905, 9.0144966E-03
1756.833, 9.7490838E-03
1758.762, 1.0310980E-02
1760.690, 1.0336410E-02
1762.619, 1.0641230E-02
1764.547, 1.1569620E-02
1766.475, 1.1863430E-02
1768.404, 1.1788970E-02
1770.332, 1.2103110E-02
1772.261, 1.2161270E-02
1774.189, 1.1946220E-02
1776.118, 1.2075290E-02
1778.046, 1.2278070E-02
1779.975, 1.2197370E-02
1781.903, 1.2314120E-02
1783.832, 1.2229930E-02
1785.760, 1.2018180E-02
1787.689, 1.2108890E-02
1789.617, 1.2149840E-02
1791.546, 1.2156180E-02
1793.474, 1.2289930E-02
1795.402, 1.2201440E-02
1797.331, 1.2380740E-02
1799.259, 1.2774800E-02
1801.188, 1.2589840E-02
1803.116, 1.2288890E-02
1805.045, 1.2847490E-02
1806.973, 1.3701980E-02
1808.902, 1.3770340E-02
1810.830, 1.3291560E-02
1812.759, 1.2905990E-02
1814.687, 1.2732290E-02
1816.616, 1.2742570E-02
1818.544, 1.2908900E-02
1820.473, 1.2818240E-02
1822.401, 1.2456510E-02
1824.329, 1.2654050E-02
1826.258, 1.2457050E-02
1828.186, 1.2608670E-02
1830.115, 1.3236700E-02
1832.043, 1.3090680E-02
1833.972, 1.2080580E-02
1835.900, 1.1910740E-02
1837.829, 1.2626300E-02
1839.757, 1.3533270E-02
1841.686, 1.3979980E-02
1843.614, 1.3621970E-02
1845.543, 1.3249120E-02
1847.471, 1.3188540E-02
1849.400, 1.2987850E-02
1851.328, 1.3408720E-02
1853.256, 1.3752930E-02
1855.185, 1.3616120E-02
1857.113, 1.3344450E-02
1859.042, 1.3352980E-02
1860.970, 1.3681850E-02
1862.899, 1.3514240E-02
1864.827, 1.3156680E-02
1866.756, 1.3030040E-02
1868.684, 1.3891160E-02
1870.613, 1.4662910E-02
1872.541, 1.4075750E-02
1874.470, 1.3489940E-02
1876.398, 1.3620510E-02
1878.327, 1.4230440E-02
1880.255, 1.4581060E-02
1882.183, 1.3393100E-02
1884.112, 1.3390710E-02
1886.040, 1.3642660E-02
1887.969, 1.3955360E-02
1889.897, 1.4416490E-02
1891.826, 1.4204190E-02
1893.754, 1.5029410E-02
1895.683, 1.5616360E-02
1897.611, 1.5230120E-02
1899.540, 1.4745020E-02
1901.468, 1.3785200E-02
1903.397, 1.3072410E-02
1905.325, 1.3500850E-02
1907.254, 1.4330120E-02
1909.182, 1.4583300E-02
1911.110, 1.4461870E-02
1913.039, 1.4527420E-02
1914.967, 1.5229170E-02
1916.896, 1.5917020E-02
1918.824, 1.5297790E-02
1920.753, 1.4978110E-02
1922.681, 1.4942100E-02
1924.610, 1.4693160E-02
1926.538, 1.4352980E-02
1928.467, 1.4704590E-02
1930.395, 1.5248940E-02
1932.324, 1.4416080E-02
1934.252, 1.3438060E-02
1936.181, 1.2951620E-02
1938.109, 1.3314400E-02
1940.037, 1.2671700E-02
1941.966, 1.2897400E-02
1943.894, 1.3631640E-02
1945.823, 1.3284800E-02
1947.751, 1.4309630E-02
1949.680, 1.5344640E-02
1951.608, 1.6133221E-02
1953.537, 1.5524170E-02
1955.465, 1.5881261E-02
1957.394, 1.6154069E-02
1959.322, 1.6191760E-02
1961.251, 1.7395480E-02
1963.179, 1.6768379E-02
1965.108, 1.6290210E-02
1967.036, 1.7457031E-02
1968.964, 1.8473530E-02
1970.893, 1.9876391E-02
1972.821, 1.7040750E-02
1974.750, 1.3532670E-02
1976.678, 1.5599810E-02
1978.607, 1.8307870E-02
1980.535, 1.8633129E-02
1982.464, 1.7407460E-02
1984.392, 1.6406311E-02
1986.321, 1.6081549E-02
1988.249, 1.6821479E-02
1990.178, 1.6976921E-02
1992.106, 1.6919261E-02
1994.035, 1.6584890E-02
1995.963, 1.6188661E-02
1997.891, 1.5636260E-02
1999.820, 1.6318791E-02
2001.748, 1.5302790E-02
2003.677, 1.4773910E-02
2005.605, 1.8074069E-02
2007.534, 1.8362660E-02
2009.462, 1.6092431E-02
2011.391, 1.4902440E-02
2013.319, 1.5475840E-02
2015.248, 1.8486280E-02
2017.176, 2.0147741E-02
2019.105, 1.6689690E-02
2021.033, 1.2606530E-02
2022.962, 1.4448870E-02
2024.890, 1.8615499E-02
2026.818, 1.9765889E-02
2028.747, 1.8309310E-02
2030.675, 1.8128270E-02
2032.604, 1.9149490E-02
2034.532, 1.9114690E-02
2036.461, 1.8552490E-02
2038.389, 1.7128410E-02
2040.318, 1.6512111E-02
2042.246, 1.9260250E-02
2044.175, 2.1112479E-02
2046.103, 1.9518010E-02
2048.032, 1.7308030E-02
2049.960, 1.6558111E-02
2051.889, 1.6751360E-02
2053.817, 1.8162610E-02
2055.746, 1.9401070E-02
2057.674, 1.8106680E-02
2059.603, 1.7302560E-02
2061.531, 1.8240860E-02
2063.459, 1.8180059E-02
2065.388, 1.7124919E-02
2067.316, 1.8478800E-02
2069.245, 1.9437030E-02
2071.173, 1.7793059E-02
2073.102, 1.7298670E-02
2075.030, 1.8774191E-02
2076.959, 1.9101501E-02
2078.887, 1.8554870E-02
2080.816, 1.8455479E-02
2082.744, 1.8297080E-02
2084.673, 1.7163239E-02
2086.601, 1.7334489E-02
2088.530, 1.9009460E-02
2090.458, 1.7839409E-02
2092.386, 1.6618390E-02
2094.315, 1.7990589E-02
2096.243, 1.7954310E-02
2098.172, 1.7922970E-02
2100.100, 2.0055439E-02
2102.029, 1.9706549E-02
2103.957, 1.8697301E-02
2105.886, 1.8526871E-02
2107.814, 1.7832980E-02
2109.743, 1.8090749E-02
2111.671, 1.9198300E-02
2113.600, 1.9116500E-02
2115.528, 1.8063219E-02
2117.457, 1.7738370E-02
2119.385, 1.8300150E-02
2121.313, 1.9096710E-02
2123.242, 1.9740740E-02
2125.170, 1.8599451E-02
2127.099, 1.8078569E-02
2129.027, 1.6705740E-02
2130.956, 1.5298100E-02
2132.884, 1.5603260E-02
2134.813, 1.7407440E-02
2136.741, 1.9395500E-02
2138.670, 2.0893570E-02
2140.598, 1.8471019E-02
2142.527, 1.6353199E-02
2144.455, 1.8714439E-02
2146.384, 1.9071279E-02
2148.312, 1.7158629E-02
2150.240, 1.7084420E-02
2152.169, 1.6414169E-02
2154.097, 1.4861060E-02
2156.026, 1.4743800E-02
2157.954, 2.2120239E-02
2159.883, 2.6068719E-02
2161.811, 1.9264881E-02
2163.740, 1.6494540E-02
2165.668, 1.9619310E-02
2167.597, 2.1593491E-02
2169.525, 1.9545410E-02
2171.454, 1.8261209E-02
2173.382, 1.9580521E-02
2175.311, 2.0257469E-02
2177.239, 1.9943230E-02
2179.167, 1.8720301E-02
2181.096, 1.9720631E-02
2183.024, 2.1052990E-02
2184.953, 2.1224830E-02
2186.881, 2.2397170E-02
2188.810, 2.3855880E-02
2190.738, 2.4180260E-02
2192.667, 2.0688510E-02
2194.595, 1.9039830E-02
2196.524, 2.1179980E-02
2198.452, 2.2168560E-02
2200.381, 2.1444630E-02
2202.309, 2.1557530E-02
2204.238, 1.9404130E-02
2206.166, 1.9427899E-02
2208.094, 2.1752611E-02
2210.023, 2.3915971E-02
2211.951, 2.3767341E-02
2213.880, 2.3513870E-02
2215.808, 2.4297779E-02
2217.737, 2.2633730E-02
2219.665, 2.0402230E-02
2221.594, 1.9659460E-02
2223.522, 2.1275731E-02
2225.451, 2.2096651E-02
2227.379, 2.2172580E-02
2229.308, 2.0195840E-02
2231.236, 1.8676070E-02
2233.165, 2.0765919E-02
2235.093, 2.3047451E-02
2237.021, 2.3178080E-02
2238.950, 2.1824770E-02
2240.878, 2.0546781E-02
2242.807, 2.0905390E-02
2244.735, 2.1283399E-02
2246.664, 2.1275049E-02
2248.592, 2.1394599E-02
2250.521, 2.2263320E-02
2252.449, 2.1703521E-02
2254.378, 2.0168090E-02
2256.306, 2.1838371E-02
2258.235, 2.2902969E-02
2260.163, 2.2392580E-02
2262.092, 2.2933871E-02
2264.020, 2.1912420E-02
2265.948, 1.9677261E-02
2267.877, 1.9788921E-02
2269.805, 2.1038720E-02
2271.734, 2.1816149E-02
2273.662, 2.1985101E-02
2275.591, 2.3168061E-02
2277.519, 2.3041930E-02
2279.448, 2.2327909E-02
2281.376, 2.1970730E-02
2283.305, 2.2774881E-02
2285.233, 2.3964500E-02
2287.162, 2.4390141E-02
2289.090, 2.3277000E-02
2291.019, 2.1998780E-02
2292.947, 2.2165591E-02
2294.875, 2.3066539E-02
2296.804, 2.2956571E-02
2298.732, 2.2053620E-02
2300.661, 2.2368001E-02
2302.589, 2.3701809E-02
2304.518, 2.3801571E-02
2306.446, 2.2892101E-02
2308.375, 2.2794571E-02
2310.303, 2.2817921E-02
2312.232, 2.2615340E-02
2314.160, 2.2722989E-02
2316.089, 2.2835260E-02
2318.017, 2.2508631E-02
2319.946, 2.2317410E-02
2321.874, 2.3184160E-02
2323.802, 2.3894221E-02
2325.731, 2.3298839E-02
2327.659, 2.2445630E-02
2329.588, 2.2059130E-02
2331.516, 2.2157369E-02
2333.445, 2.2054009E-02
2335.373, 2.2077611E-02
2337.302, 2.1883899E-02
2339.230, 2.1672390E-02
2341.159, 2.1695251E-02
2343.087, 2.1949340E-02
2345.016, 2.1995829E-02
2346.944, 2.1292740E-02
2348.873, 2.1268509E-02
2350.801, 2.1703450E-02
2352.729, 2.2368930E-02
2354.658, 2.2394920E-02
2356.586, 2.2134680E-02
2358.515, 2.1518851E-02
2360.443, 2.1687740E-02
2362.372, 2.2461729E-02
2364.300, 2.2756999E-02
2366.229, 2.2358891E-02
2368.157, 2.1854069E-02
2370.086, 2.1506460E-02
2372.014, 2.2112790E-02
2373.942, 2.1719940E-02
2375.871, 2.1653900E-02
2377.799, 2.2286100E-02
2379.728, 2.2346480E-02
2381.656, 2.2695180E-02
2383.585, 2.2266250E-02
2385.513, 2.1946739E-02
2387.442, 2.2067750E-02
2389.370, 2.1802559E-02
2391.299, 2.1850340E-02
2393.227, 2.1886021E-02
2395.156, 2.1817660E-02
2397.084, 2.1900279E-02
2399.012, 2.2281479E-02
2400.941, 2.3563050E-02
2402.869, 2.3634590E-02
2404.798, 2.2649150E-02
2406.726, 2.1777220E-02
2408.655, 2.2254210E-02
2410.583, 2.4147820E-02
2412.512, 2.4250250E-02
2414.440, 2.3396410E-02
2416.369, 2.2281401E-02
2418.297, 2.2188120E-02
2420.226, 2.2773720E-02
2422.154, 2.2758240E-02
2424.083, 2.3169421E-02
2426.011, 2.2693209E-02
2427.939, 2.2025350E-02
2429.868, 2.3166280E-02
2431.796, 2.4498859E-02
2433.725, 2.4130041E-02
2435.653, 2.2074319E-02
2437.582, 2.1709530E-02
2439.510, 2.2336019E-02
2441.439, 2.3538180E-02
2443.367, 2.3090510E-02
2445.296, 2.3349641E-02
2447.224, 2.2810111E-02
2449.153, 2.1767359E-02
2451.081, 2.2675980E-02
2453.010, 2.3433110E-02
2454.938, 2.4280200E-02
2456.866, 2.4021070E-02
2458.795, 2.3509029E-02
2460.723, 2.4562910E-02
2462.652, 2.4475290E-02
2464.580, 2.3349410E-02
2466.509, 2.3563480E-02
2468.437, 2.4469281E-02
2470.366, 2.3488469E-02
2472.294, 2.2625981E-02
2474.223, 2.2578159E-02
2476.151, 2.2189889E-02
2478.080, 2.1763600E-02
2480.008, 2.3532519E-02
2481.937, 2.4695139E-02
2483.865, 2.4436140E-02
2485.793, 2.4627930E-02
2487.722, 2.4617851E-02
2489.650, 2.3807419E-02
2491.579, 2.3026859E-02
2493.507, 2.3023160E-02
2495.436, 2.4463370E-02
2497.364, 2.5402671E-02
2499.293, 2.3552930E-02
2501.221, 2.1525560E-02
2503.150, 2.2407530E-02
2505.078, 2.3195110E-02
2507.007, 2.1748129E-02
2508.935, 2.1016940E-02
2510.864, 2.2418240E-02
2512.792, 2.3453670E-02
2514.720, 2.3523349E-02
2516.649, 2.2124959E-02
2518.577, 2.2402531E-02
2520.506, 2.4085060E-02
2522.434, 2.4368631E-02
2524.363, 2.3693450E-02
2526.291, 2.3869811E-02
2528.220, 2.4849620E-02
2530.148, 2.4446320E-02
2532.077, 2.2712041E-02
2534.005, 2.2546619E-02
2535.934, 2.4385810E-02
2537.862, 2.5053900E-02
2539.791, 2.4161549E-02
2541.719, 2.3326030E-02
2543.647, 2.3689231E-02
2545.576, 2.5119429E-02
2547.504, 2.4959739E-02
2549.433, 2.4408881E-02
2551.361, 2.4853401E-02
2553.290, 2.4314361E-02
2555.218, 2.3824399E-02
2557.147, 2.4742009E-02
2559.075, 2.4853360E-02
2561.004, 2.4324330E-02
2562.932, 2.4403840E-02
2564.861, 2.5237661E-02
2566.789, 2.5551250E-02
2568.718, 2.4807749E-02
2570.646, 2.4450120E-02
2572.574, 2.4518561E-02
2574.503, 2.4478260E-02
2576.431, 2.4045480E-02
2578.360, 2.4234399E-02
2580.288, 2.3707669E-02
2582.217, 2.3311680E-02
2584.145, 2.4416270E-02
2586.074, 2.5054490E-02
2588.002, 2.3798339E-02
2589.931, 2.4233369E-02
2591.859, 2.5042400E-02
2593.788, 2.4595210E-02
2595.716, 2.4788881E-02
2597.645, 2.4884369E-02
2599.573, 2.4146531E-02
2601.501, 2.3788219E-02
2603.430, 2.4853550E-02
2605.358, 2.5235681E-02
2607.287, 2.5029469E-02
2609.215, 2.5409980E-02
2611.144, 2.5729990E-02
2613.072, 2.4628971E-02
2615.001, 2.4597740E-02
2616.929, 2.5705580E-02
2618.858, 2.5340529E-02
2620.786, 2.4054220E-02
2622.715, 2.3560880E-02
2624.643, 2.4773311E-02
2626.572, 2.5246359E-02
2628.500, 2.4618641E-02
2630.428, 2.4976769E-02
2632.357, 2.5294751E-02
2634.285, 2.5216909E-02
2636.214, 2.4800230E-02
2638.142, 2.5271880E-02
2640.071, 2.5889670E-02
2641.999, 2.5013451E-02
2643.928, 2.4526220E-02
2645.856, 2.5996709E-02
2647.785, 2.6286351E-02
2649.713, 2.5728591E-02
2651.642, 2.5925770E-02
2653.570, 2.5497239E-02
2655.499, 2.5445430E-02
2657.427, 2.5170220E-02
2659.355, 2.5260450E-02
2661.284, 2.5925260E-02
2663.212, 2.5577350E-02
2665.141, 2.5018670E-02
2667.069, 2.4824310E-02
2668.998, 2.4306240E-02
2670.926, 2.3680611E-02
2672.855, 2.4560340E-02
2674.783, 2.6106890E-02
2676.712, 2.5907490E-02
2678.640, 2.5733590E-02
2680.569, 2.5465120E-02
2682.497, 2.5153350E-02
2684.426, 2.5645319E-02
2686.354, 2.5893340E-02
2688.282, 2.5669331E-02
2690.211, 2.4870779E-02
2692.139, 2.4814351E-02
2694.068, 2.5190700E-02
2695.996, 2.5051940E-02
2697.925, 2.5307970E-02
2699.853, 2.4696870E-02
2701.782, 2.4667880E-02
2703.710, 2.4357861E-02
2705.639, 2.4842860E-02
2707.567, 2.5627300E-02
2709.496, 2.5732420E-02
2711.424, 2.5380580E-02
2713.353, 2.6438801E-02
2715.281, 2.7067130E-02
2717.209, 2.5968960E-02
2719.138, 2.4727819E-02
2721.066, 2.4559550E-02
2722.995, 2.5127530E-02
2724.923, 2.5553109E-02
2726.852, 2.5498129E-02
2728.780, 2.5583079E-02
2730.709, 2.5641769E-02
2732.637, 2.5529440E-02
2734.566, 2.5168249E-02
2736.494, 2.5590980E-02
2738.423, 2.6104420E-02
2740.351, 2.5707850E-02
2742.280, 2.4834480E-02
2744.208, 2.4628069E-02
2746.136, 2.6132731E-02
2748.065, 2.5933580E-02
2749.993, 2.4832480E-02
2751.922, 2.5085820E-02
2753.850, 2.6905609E-02
2755.779, 2.7239650E-02
2757.707, 2.7467489E-02
2759.636, 2.7577970E-02
2761.564, 2.6492801E-02
2763.493, 2.5327040E-02
2765.421, 2.5859291E-02
2767.350, 2.7363259E-02
2769.278, 2.6676770E-02
2771.207, 2.6517849E-02
2773.135, 2.7271260E-02
2775.063, 2.6862711E-02
2776.992, 2.6201680E-02
2778.920, 2.6789790E-02
2780.849, 2.7408659E-02
2782.777, 2.7205169E-02
2784.706, 2.6148060E-02
2786.634, 2.6519559E-02
2788.563, 2.5942180E-02
2790.491, 2.5271310E-02
2792.420, 2.5459230E-02
2794.348, 2.6354140E-02
2796.277, 2.6396800E-02
2798.205, 2.6977720E-02
2800.134, 2.7230060E-02
2802.062, 2.6802290E-02
2803.990, 2.7534230E-02
2805.919, 2.7985100E-02
2807.847, 2.8075600E-02
2809.776, 2.8503230E-02
2811.704, 2.8173940E-02
2813.633, 2.7408510E-02
2815.561, 2.6659420E-02
2817.490, 2.5471570E-02
2819.418, 2.5772899E-02
2821.347, 2.6710860E-02
2823.275, 2.7585890E-02
2825.204, 2.7860010E-02
2827.132, 2.7183799E-02
2829.061, 2.7107580E-02
2830.989, 2.8326090E-02
2832.917, 2.8131630E-02
2834.846, 2.7347600E-02
2836.774, 2.6635939E-02
2838.703, 2.7271319E-02
2840.631, 2.6273530E-02
2842.560, 2.5610249E-02
2844.488, 2.6089501E-02
2846.417, 2.7337020E-02
2848.345, 2.7470300E-02
2850.274, 2.7442740E-02
2852.202, 2.7810579E-02
2854.131, 2.7565509E-02
2856.059, 2.7239639E-02
2857.988, 2.8961111E-02
2859.916, 2.9769970E-02
2861.844, 2.9032620E-02
2863.773, 2.8378971E-02
2865.701, 2.7358670E-02
2867.630, 2.5811460E-02
2869.558, 2.5802599E-02
2871.487, 2.7606221E-02
2873.415, 2.7924679E-02
2875.344, 2.6943220E-02
2877.272, 2.6755340E-02
2879.201, 2.6512200E-02
2881.129, 2.5715090E-02
2883.058, 2.5199410E-02
2884.986, 2.6013769E-02
2886.915, 2.7314520E-02
2888.843, 2.8559340E-02
2890.771, 2.8971961E-02
2892.700, 2.8008340E-02
2894.628, 2.6887150E-02
2896.557, 2.6479499E-02
2898.485, 2.7427331E-02
2900.414, 2.7660090E-02
2902.342, 2.6087269E-02
2904.271, 2.5294609E-02
2906.199, 2.5721950E-02
2908.128, 2.6791969E-02
2910.056, 2.7889861E-02
2911.985, 2.8445110E-02
2913.913, 2.9772330E-02
2915.842, 2.8916650E-02
2917.770, 2.7899981E-02
2919.698, 2.9728379E-02
2921.627, 2.9383039E-02
2923.555, 2.8630650E-02
2925.484, 3.0351819E-02
2927.412, 2.9586829E-02
2929.341, 2.7513590E-02
2931.269, 2.7536619E-02
2933.198, 2.9406760E-02
2935.126, 2.9866360E-02
2937.055, 2.9695019E-02
2938.983, 2.8051211E-02
2940.912, 2.7813381E-02
2942.840, 2.8443061E-02
2944.769, 2.8863249E-02
2946.697, 2.7700869E-02
2948.625, 2.7050640E-02
2950.554, 2.6194440E-02
2952.482, 2.7011950E-02
2954.411, 2.8021500E-02
2956.339, 2.8846869E-02
2958.268, 3.0197510E-02
2960.196, 2.9705830E-02
2962.125, 2.9860839E-02
2964.053, 3.0876869E-02
2965.982, 2.9238120E-02
2967.910, 2.8722810E-02
2969.839, 2.9233789E-02
2971.767, 3.0023240E-02
2973.696, 2.9273970E-02
2975.624, 2.9631110E-02
2977.552, 3.0288819E-02
2979.481, 3.0827841E-02
2981.409, 3.1122141E-02
2983.338, 3.1071940E-02
2985.266, 3.0782050E-02
2987.195, 3.0770089E-02
2989.123, 3.1101899E-02
2991.052, 3.0916421E-02
2992.980, 3.0228280E-02
2994.909, 3.0359620E-02
2996.837, 2.9981880E-02
2998.766, 2.9659661E-02
3000.694, 3.0467870E-02
3002.623, 3.0227520E-02
3004.551, 3.1198351E-02
3006.479, 3.1892009E-02
3008.408, 3.1279329E-02
3010.336, 3.0141700E-02
3012.265, 2.9572060E-02
3014.193, 3.0150101E-02
3016.122, 2.9703669E-02
3018.050, 2.8738130E-02
3019.979, 3.0850761E-02
3021.907, 3.1746801E-02
3023.836, 3.0433379E-02
3025.764, 3.0602491E-02
3027.693, 3.0758290E-02
3029.621, 3.0964740E-02
3031.550, 2.9320059E-02
3033.478, 2.9259659E-02
3035.406, 3.0299051E-02
3037.335, 2.9995920E-02
3039.263, 3.0066241E-02
3041.192, 3.0393161E-02
3043.120, 3.0147340E-02
3045.049, 2.8303711E-02
3046.977, 2.9424669E-02
3048.906, 3.0884029E-02
3050.834, 2.8788470E-02
3052.763, 2.7966199E-02
3054.691, 2.9934639E-02
3056.620, 3.0811859E-02
3058.548, 3.0984979E-02
3060.477, 2.9364809E-02
3062.405, 2.9075069E-02
3064.333, 3.0206580E-02
3066.262, 2.9249050E-02
3068.190, 2.8288979E-02
3070.119, 2.9334230E-02
3072.047, 3.0758411E-02
3073.976, 3.0368891E-02
3075.904, 3.0544771E-02
3077.833, 2.9517019E-02
3079.761, 2.9161099E-02
3081.690, 3.0237740E-02
3083.618, 3.1051921E-02
3085.547, 3.0264560E-02
3087.475, 2.9905880E-02
3089.404, 3.0538291E-02
3091.332, 3.0529169E-02
3093.260, 3.0665290E-02
3095.189, 3.0566979E-02
3097.117, 3.0889731E-02
3099.046, 3.1293809E-02
3100.974, 3.1274222E-02
3102.903, 3.2009300E-02
3104.831, 3.2736111E-02
3106.760, 3.1839412E-02
3108.688, 3.0771410E-02
3110.617, 3.1119499E-02
3112.545, 3.0892789E-02
3114.474, 2.9568600E-02
3116.402, 3.0238200E-02
3118.331, 3.0591140E-02
3120.259, 2.9836129E-02
3122.188, 2.8990669E-02
3124.116, 3.0102290E-02
3126.044, 3.1483758E-02
3127.973, 3.1512082E-02
3129.901, 3.2295730E-02
3131.830, 3.3695031E-02
3133.758, 3.3514660E-02
3135.687, 3.2136451E-02
3137.615, 3.1501949E-02
3139.544, 3.2843258E-02
3141.472, 3.3030190E-02
3143.401, 3.1989019E-02
3145.329, 3.1061390E-02
3147.258, 3.1000391E-02
3149.186, 3.1880759E-02
3151.115, 3.3115849E-02
3153.043, 3.2923460E-02
3154.971, 3.1885508E-02
3156.900, 3.1725470E-02
3158.828, 3.2069869E-02
3160.757, 3.1025520E-02
3162.685, 3.0429330E-02
3164.614, 3.0858010E-02
3166.542, 3.1712089E-02
3168.471, 3.1941779E-02
3170.399, 3.2164332E-02
3172.328, 3.2347132E-02
3174.256, 3.1414740E-02
3176.185, 3.0272171E-02
3178.113, 2.9879641E-02
3180.042, 3.0271560E-02
3181.970, 3.0113300E-02
3183.898, 3.0525580E-02
3185.827, 3.0715991E-02
3187.755, 3.2060839E-02
3189.684, 3.3053081E-02
3191.612, 3.2324769E-02
3193.541, 3.1172210E-02
3195.469, 3.1368639E-02
3197.398, 3.3096772E-02
3199.326, 3.4854401E-02
3201.255, 3.5312060E-02
3203.183, 3.4120459E-02
3205.112, 3.2658041E-02
3207.040, 3.2147251E-02
3208.969, 3.1692691E-02
3210.897, 3.1630330E-02
3212.825, 3.1204879E-02
3214.754, 3.1075260E-02
3216.682, 3.2247279E-02
3218.611, 3.2858148E-02
3220.539, 3.2122269E-02
3222.468, 3.2359481E-02
3224.396, 3.2195061E-02
3226.325, 3.3043280E-02
3228.253, 3.4565222E-02
3230.182, 3.5346840E-02
3232.110, 3.4368340E-02
3234.039, 3.4031671E-02
3235.967, 3.3943761E-02
3237.896, 3.2580499E-02
3239.824, 3.2221802E-02
3241.752, 3.2206800E-02
3243.681, 3.1645041E-02
3245.609, 3.2605290E-02
3247.538, 3.2110710E-02
3249.466, 3.1899590E-02
3251.395, 3.4865331E-02
3253.323, 3.5748210E-02
3255.252, 3.3844870E-02
3257.180, 3.3043079E-02
3259.109, 3.3208352E-02
3261.037, 3.4635630E-02
3262.966, 3.6549140E-02
3264.894, 3.5537109E-02
3266.823, 3.4510400E-02
3268.751, 3.4219641E-02
3270.679, 3.3819702E-02
3272.608, 3.4046650E-02
3274.536, 3.2312728E-02
3276.465, 3.3073150E-02
3278.393, 3.4698859E-02
3280.322, 3.6094040E-02
3282.250, 3.6585830E-02
3284.179, 3.5390440E-02
3286.107, 3.5009239E-02
3288.036, 3.6710460E-02
3289.964, 3.7246581E-02
3291.893, 3.7961699E-02
3293.821, 3.8009040E-02
3295.750, 3.9689820E-02
3297.678, 4.0075611E-02
3299.606, 3.8564950E-02
3301.535, 3.8337920E-02
3303.463, 4.0186219E-02
3305.392, 4.1363940E-02
3307.320, 4.0018909E-02
3309.249, 4.1032620E-02
3311.177, 4.1729391E-02
3313.106, 4.1948430E-02
3315.034, 4.3945581E-02
3316.963, 4.4898100E-02
3318.891, 4.5258120E-02
3320.820, 4.6170089E-02
3322.748, 4.8646919E-02
3324.677, 5.2854698E-02
3326.605, 5.2839968E-02
3328.533, 5.3178709E-02
3330.462, 5.7204429E-02
3332.390, 6.1287791E-02
3334.319, 6.1564170E-02
3336.247, 5.7934389E-02
3338.176, 5.1289432E-02
3340.104, 4.2920399E-02
3342.033, 3.4963321E-02
3343.961, 3.0695889E-02
3345.890, 3.0280890E-02
3347.818, 2.9005339E-02
3349.747, 2.5996029E-02
3351.675, 2.2648171E-02
3353.604, 2.4308320E-02
3355.532, 2.5823520E-02
3357.460, 2.4989231E-02
3359.389, 2.5401089E-02
3361.317, 2.4009580E-02
3363.246, 2.4501501E-02
3365.174, 2.5905211E-02
3367.103, 2.7207609E-02
3369.031, 2.6385389E-02
3370.960, 2.7124420E-02
3372.888, 2.9003330E-02
3374.817, 2.8277241E-02
3376.745, 2.7515341E-02
3378.674, 2.7399080E-02
3380.602, 2.7063260E-02
3382.531, 2.7686739E-02
3384.459, 2.7224930E-02
3386.387, 2.7159750E-02
3388.316, 2.7429810E-02
3390.244, 2.7681310E-02
3392.173, 2.7312860E-02
3394.101, 2.7260911E-02
3396.030, 2.6655840E-02
3397.958, 2.5899520E-02
3399.887, 2.6177021E-02
3401.815, 2.6282741E-02
3403.744, 2.5709840E-02
3405.672, 2.7636539E-02
3407.601, 2.9545059E-02
3409.529, 2.7983710E-02
3411.458, 2.7160250E-02
3413.386, 2.6566250E-02
3415.314, 2.5290331E-02
3417.243, 2.5941890E-02
3419.171, 2.9184770E-02
3421.100, 2.9106321E-02
3423.028, 2.7040649E-02
3424.957, 2.8582361E-02
3426.885, 2.8975621E-02
3428.814, 2.7331181E-02
3430.742, 2.6770430E-02
3432.671, 2.5590319E-02
3434.599, 2.5769910E-02
3436.528, 2.8576670E-02
3438.456, 3.2290291E-02
3440.385, 3.3341520E-02
3442.313, 3.1111140E-02
3444.241, 2.9958449E-02
3446.170, 2.9757170E-02
3448.098, 2.8571920E-02
3450.027, 2.8449250E-02
3451.955, 2.7627479E-02
3453.884, 2.7522160E-02
3455.812, 2.6368231E-02
3457.741, 2.8339820E-02
3459.669, 2.8364390E-02
3461.598, 2.7172239E-02
3463.526, 2.6313219E-02
3465.455, 2.5991609E-02
3467.383, 2.6993880E-02
3469.312, 2.8649051E-02
3471.240, 2.9800249E-02
3473.168, 2.8128561E-02
3475.097, 2.6166441E-02
3477.025, 2.6403351E-02
3478.954, 2.5848471E-02
3480.882, 2.6857341E-02
3482.811, 2.7509971E-02
3484.739, 2.6221421E-02
3486.668, 2.6640810E-02
3488.596, 2.7545780E-02
3490.525, 3.0716240E-02
3492.453, 3.3480529E-02
3494.382, 3.3673380E-02
3496.310, 3.0708751E-02
3498.239, 2.8113499E-02
3500.167, 2.6430020E-02
3502.095, 2.7964599E-02
3504.024, 3.2214750E-02
3505.952, 3.2672379E-02
3507.881, 3.0143850E-02
3509.809, 2.9983919E-02
3511.738, 3.1851821E-02
3513.666, 3.2159761E-02
3515.595, 3.0919731E-02
3517.523, 2.8399330E-02
3519.452, 2.7402321E-02
3521.380, 2.6833370E-02
3523.309, 2.6133601E-02
3525.237, 2.7961889E-02
3527.166, 2.8681381E-02
3529.094, 2.7636100E-02
3531.022, 3.0628180E-02
3532.951, 3.1850599E-02
3534.879, 3.0138250E-02
3536.808, 2.7526479E-02
3538.736, 2.5698289E-02
3540.665, 2.5242820E-02
3542.593, 2.6866719E-02
3544.522, 3.0016501E-02
3546.450, 3.1980220E-02
3548.379, 3.1169800E-02
3550.307, 2.8956341E-02
3552.236, 2.9701659E-02
3554.164, 2.9769771E-02
3556.093, 2.9325800E-02
3558.021, 3.0122770E-02
3559.949, 3.2195400E-02
3561.878, 3.2908659E-02
3563.806, 3.1937569E-02
3565.735, 2.9559810E-02
3567.663, 2.9079949E-02
3569.592, 3.0538190E-02
3571.520, 3.2244701E-02
3573.449, 3.4053050E-02
3575.377, 3.2557022E-02
3577.306, 3.1599171E-02
3579.234, 3.1436000E-02
3581.163, 3.2456920E-02
3583.091, 3.2328811E-02
3585.020, 3.3811349E-02
3586.948, 3.3661451E-02
3588.876, 3.2004070E-02
3590.805, 2.9793721E-02
3592.733, 2.7415009E-02
3594.662, 2.7153740E-02
3596.590, 2.8450189E-02
3598.519, 2.8673830E-02
3600.447, 2.7679199E-02
3602.376, 2.8485620E-02
3604.304, 3.1410161E-02
3606.233, 3.2362789E-02
3608.161, 2.9634330E-02
3610.090, 2.9677100E-02
3612.018, 3.0489611E-02
3613.947, 2.8971421E-02
3615.875, 2.9430561E-02
3617.803, 3.1848509E-02
3619.732, 3.1238111E-02
3621.660, 3.0465540E-02
3623.589, 3.1816859E-02
3625.517, 3.2039750E-02
3627.446, 3.0877709E-02
3629.374, 3.2514241E-02
3631.303, 3.3466879E-02
3633.231, 3.5348069E-02
3635.160, 3.6699541E-02
3637.088, 3.5224281E-02
3639.017, 3.3243641E-02
3640.945, 3.2395009E-02
3642.874, 3.2248560E-02
3644.802, 3.4310259E-02
3646.730, 3.4944318E-02
3648.659, 3.2726500E-02
3650.587, 3.2639951E-02
3652.516, 3.1825859E-02
3654.444, 3.1013681E-02
3656.373, 3.0331081E-02
3658.301, 3.0120870E-02
3660.230, 3.1827871E-02
3662.158, 3.3604629E-02
3664.087, 3.1869579E-02
3666.015, 2.9742749E-02
3667.944, 3.1566031E-02
3669.872, 3.2932650E-02
3671.801, 3.5517789E-02
3673.729, 3.5955209E-02
3675.657, 3.4365378E-02
3677.586, 3.1922601E-02
3679.514, 3.2356929E-02
3681.443, 3.6214359E-02
3683.371, 3.7707999E-02
3685.300, 3.4945820E-02
3687.228, 3.1692989E-02
3689.157, 3.1917669E-02
3691.085, 3.4662832E-02
3693.014, 3.6282621E-02
3694.942, 3.3988740E-02
3696.871, 3.3741761E-02
3698.799, 3.5150729E-02
3700.728, 3.3772081E-02
3702.656, 3.3931509E-02
3704.584, 3.3476502E-02
3706.513, 3.3230871E-02
3708.441, 3.4112040E-02
3710.370, 3.3606742E-02
3712.298, 3.0114111E-02
3714.227, 3.1443719E-02
3716.155, 3.5259418E-02
3718.084, 3.5642911E-02
3720.012, 3.5976581E-02
3721.941, 3.3797540E-02
3723.869, 3.4352262E-02
3725.798, 3.3871390E-02
3727.726, 3.0749381E-02
3729.655, 3.1355210E-02
3731.583, 3.3667199E-02
3733.511, 3.1450830E-02
3735.440, 3.0805189E-02
3737.368, 3.2980818E-02
3739.297, 3.3736039E-02
3741.225, 3.2222860E-02
3743.154, 2.8849250E-02
3745.082, 3.1094659E-02
3747.011, 3.2396551E-02
3748.939, 3.3429030E-02
3750.868, 3.3480860E-02
3752.796, 3.1497281E-02
3754.725, 3.1382449E-02
3756.653, 3.1636890E-02
3758.582, 3.0085349E-02
3760.510, 2.9897351E-02
3762.438, 3.1424809E-02
3764.367, 3.2681100E-02
3766.295, 3.4794621E-02
3768.224, 3.5291430E-02
3770.152, 3.2897521E-02
3772.081, 3.0698519E-02
3774.009, 3.0690011E-02
3775.938, 3.0836610E-02
3777.866, 3.3309828E-02
3779.795, 3.5543509E-02
3781.723, 3.4299720E-02
3783.652, 3.3815220E-02
3785.580, 3.1618729E-02
3787.509, 3.0769611E-02
3789.437, 3.4347121E-02
3791.365, 3.4012910E-02
3793.294, 3.5515949E-02
3795.222, 3.5923380E-02
3797.151, 3.1991921E-02
3799.079, 3.2626390E-02
3801.008, 3.5068609E-02
3802.936, 3.4032200E-02
3804.865, 3.5222549E-02
3806.793, 3.5033349E-02
3808.722, 3.2141779E-02
3810.650, 3.3634972E-02
3812.579, 3.6481749E-02
3814.507, 3.4022089E-02
3816.436, 3.3360992E-02
3818.364, 3.6700860E-02
3820.292, 3.7884660E-02
3822.221, 3.6246371E-02
3824.149, 3.3236191E-02
3826.078, 3.4658641E-02
3828.006, 3.7467338E-02
3829.935, 3.6620580E-02
3831.863, 3.5647709E-02
3833.792, 3.6409982E-02
3835.720, 3.3983890E-02
3837.649, 3.1923879E-02
3839.577, 3.2985479E-02
3841.506, 3.3431958E-02
3843.434, 3.4582209E-02
3845.363, 3.4961231E-02
3847.291, 3.6271881E-02
3849.219, 3.5851270E-02
3851.148, 3.4280509E-02
3853.076, 3.3553109E-02
3855.005, 3.5660349E-02
3856.933, 3.8799990E-02
3858.862, 3.6852080E-02
3860.790, 3.3972710E-02
3862.719, 3.3657320E-02
3864.647, 3.8319271E-02
3866.576, 3.9947581E-02
3868.504, 3.6020670E-02
3870.433, 3.2389421E-02
3872.361, 3.4431219E-02
3874.290, 3.6175270E-02
3876.218, 3.4928732E-02
3878.146, 3.5035189E-02
3880.075, 3.2485321E-02
3882.003, 3.3352450E-02
3883.932, 3.6525398E-02
3885.860, 3.5983000E-02
3887.789, 3.4017321E-02
3889.717, 3.3185929E-02
3891.646, 3.5263129E-02
3893.574, 3.7159711E-02
3895.503, 3.7111890E-02
3897.431, 3.8472190E-02
3899.360, 3.6123440E-02
3901.288, 3.2200038E-02
3903.217, 3.2523759E-02
3905.145, 3.0664589E-02
3907.073, 3.0117091E-02
3909.002, 3.3870190E-02
3910.930, 3.6578830E-02
3912.859, 3.6472078E-02
3914.787, 3.4613319E-02
3916.716, 3.6476601E-02
3918.644, 3.5419341E-02
3920.573, 3.3743579E-02
3922.501, 3.4417991E-02
3924.430, 3.6415201E-02
3926.358, 4.0783189E-02
3928.287, 3.8850810E-02
3930.215, 3.4803949E-02
3932.144, 3.1439848E-02
3934.072, 3.3735849E-02
3936.000, 3.7780341E-02
3937.929, 4.1004151E-02
3939.857, 3.9746288E-02
3941.786, 3.3947341E-02
3943.714, 3.4684259E-02
3945.643, 3.6429610E-02
3947.571, 3.7225459E-02
3949.500, 3.8519021E-02
3951.428, 3.9786100E-02
3953.357, 3.7720758E-02
3955.285, 3.2327581E-02
3957.214, 3.1245019E-02
3959.142, 3.5036549E-02
3961.071, 3.6731061E-02
3962.999, 3.4018058E-02
3964.927, 3.3006769E-02
3966.856, 3.4276810E-02
3968.784, 3.5412461E-02
3970.713, 3.7514951E-02
3972.641, 3.8915019E-02
3974.570, 3.8250320E-02
3976.498, 3.9016820E-02
3978.427, 4.0249810E-02
3980.355, 3.9901089E-02
3982.284, 3.7278280E-02
3984.212, 3.4028351E-02
3986.141, 3.1832710E-02
3988.069, 3.2527938E-02
3989.998, 3.5668410E-02
3991.926, 3.5277810E-02
3993.854, 3.3237461E-02
3995.783, 3.1015320E-02
3997.711, 3.5024531E-02
3999.640, 3.5041422E-02
##END=



