##NAMES=Smithsonite
##RRUFFID=R040051
##IDEAL CHEMISTRY=Zn^2+^CO_3_
##LOCALITY=Berg Aukas mine, Grootfontein, Namibia
##OWNER=RRUFF
##SOURCE=University of Arizona Mineral Museum
##DESCRIPTION=Yellowish brown botryoidal groups
##STATUS=The identification of this mineral has been confirmed by X-ray diffraction and chemical analysis
##URL=rruff.info/R040051
##MEASURED CHEMISTRY=(Zn_0.94_Ca_0.02_Mg_0.02_)C_1.01_O_3_
3.991926e+002, 0.000000e+000
4.011211e+002, 3.147089e-002
4.030496e+002, 3.163686e-002
4.049780e+002, 2.951521e-002
4.069065e+002, 2.749218e-002
4.088350e+002, 2.702116e-002
4.107634e+002, 2.573529e-002
4.126919e+002, 2.445064e-002
4.146204e+002, 2.385513e-002
4.165488e+002, 2.364611e-002
4.184773e+002, 2.137159e-002
4.204058e+002, 1.903462e-002
4.223342e+002, 1.805926e-002
4.242627e+002, 2.041815e-002
4.261912e+002, 1.962823e-002
4.281196e+002, 1.784736e-002
4.300481e+002, 1.686503e-002
4.319766e+002, 1.658806e-002
4.339050e+002, 1.683855e-002
4.358335e+002, 1.680236e-002
4.377620e+002, 1.650479e-002
4.396904e+002, 1.613322e-002
4.416189e+002, 1.563958e-002
4.435474e+002, 1.551980e-002
4.454758e+002, 1.542668e-002
4.474043e+002, 1.546639e-002
4.493328e+002, 1.580956e-002
4.512612e+002, 1.512680e-002
4.531897e+002, 1.510990e-002
4.551182e+002, 1.551389e-002
4.570466e+002, 1.612577e-002
4.589751e+002, 1.653884e-002
4.609036e+002, 1.653509e-002
4.628320e+002, 1.634310e-002
4.647605e+002, 1.561992e-002
4.666890e+002, 1.501647e-002
4.686174e+002, 1.492613e-002
4.705459e+002, 1.513539e-002
4.724744e+002, 1.592734e-002
4.744028e+002, 1.623047e-002
4.763313e+002, 1.550766e-002
4.782598e+002, 1.479045e-002
4.801882e+002, 1.508404e-002
4.821167e+002, 1.550271e-002
4.840452e+002, 1.563662e-002
4.859736e+002, 1.572904e-002
4.879021e+002, 1.520203e-002
4.898306e+002, 1.523438e-002
4.917590e+002, 1.546384e-002
4.936875e+002, 1.528969e-002
4.956160e+002, 1.519108e-002
4.975444e+002, 1.502182e-002
4.994729e+002, 1.491484e-002
5.014014e+002, 1.474244e-002
5.033298e+002, 1.462735e-002
5.052583e+002, 1.478788e-002
5.071868e+002, 1.477230e-002
5.091152e+002, 1.478672e-002
5.110437e+002, 1.495372e-002
5.129722e+002, 1.496369e-002
5.149006e+002, 1.472008e-002
5.168291e+002, 1.431978e-002
5.187576e+002, 1.396484e-002
5.206860e+002, 1.427718e-002
5.226145e+002, 1.464234e-002
5.245430e+002, 1.463386e-002
5.264714e+002, 1.485336e-002
5.283999e+002, 1.521951e-002
5.303284e+002, 1.517412e-002
5.322568e+002, 1.495792e-002
5.341853e+002, 1.529202e-002
5.361138e+002, 1.569092e-002
5.380422e+002, 1.567140e-002
5.399707e+002, 1.615090e-002
5.418992e+002, 1.678752e-002
5.438276e+002, 1.638762e-002
5.457561e+002, 1.611830e-002
5.476846e+002, 1.656657e-002
5.496130e+002, 1.672265e-002
5.515415e+002, 1.683061e-002
5.534700e+002, 1.692219e-002
5.553984e+002, 1.699759e-002
5.573269e+002, 1.713461e-002
5.592554e+002, 1.755756e-002
5.611838e+002, 1.796805e-002
5.631123e+002, 1.824408e-002
5.650408e+002, 1.846176e-002
5.669692e+002, 1.899260e-002
5.688977e+002, 1.920551e-002
5.708262e+002, 1.939905e-002
5.727546e+002, 2.020759e-002
5.746831e+002, 2.098576e-002
5.766116e+002, 2.134719e-002
5.785400e+002, 2.162749e-002
5.804685e+002, 2.125247e-002
5.823970e+002, 2.118681e-002
5.843254e+002, 2.157717e-002
5.862539e+002, 2.187881e-002
5.881824e+002, 2.230018e-002
5.901108e+002, 2.294232e-002
5.920393e+002, 2.401427e-002
5.939678e+002, 2.553839e-002
5.958962e+002, 2.668236e-002
5.978247e+002, 2.628136e-002
5.997532e+002, 2.516671e-002
6.016816e+002, 2.445417e-002
6.036101e+002, 2.435298e-002
6.055386e+002, 2.463722e-002
6.074670e+002, 2.490561e-002
6.093955e+002, 2.559558e-002
6.113240e+002, 2.691621e-002
6.132524e+002, 2.850040e-002
6.151809e+002, 2.979130e-002
6.171094e+002, 2.995667e-002
6.190378e+002, 2.875225e-002
6.209663e+002, 2.684019e-002
6.228948e+002, 2.495157e-002
6.248232e+002, 2.407497e-002
6.267517e+002, 2.386782e-002
6.286802e+002, 2.362720e-002
6.306086e+002, 2.354458e-002
6.325371e+002, 2.349662e-002
6.344656e+002, 2.344459e-002
6.363940e+002, 2.342666e-002
6.383225e+002, 2.386132e-002
6.402510e+002, 2.442387e-002
6.421794e+002, 2.464666e-002
6.441079e+002, 2.452539e-002
6.460364e+002, 2.456126e-002
6.479648e+002, 2.518539e-002
6.498933e+002, 2.565591e-002
6.518218e+002, 2.580057e-002
6.537502e+002, 2.603470e-002
6.556787e+002, 2.637115e-002
6.576072e+002, 2.691805e-002
6.595356e+002, 2.755696e-002
6.614641e+002, 2.798497e-002
6.633926e+002, 2.841529e-002
6.653210e+002, 2.876850e-002
6.672495e+002, 2.933962e-002
6.691780e+002, 3.027966e-002
6.711064e+002, 3.163782e-002
6.730349e+002, 3.317531e-002
6.749634e+002, 3.469897e-002
6.768918e+002, 3.609648e-002
6.788203e+002, 3.674791e-002
6.807488e+002, 3.618063e-002
6.826772e+002, 3.495806e-002
6.846057e+002, 3.391486e-002
6.865342e+002, 3.345766e-002
6.884626e+002, 3.336504e-002
6.903911e+002, 3.359548e-002
6.923196e+002, 3.368365e-002
6.942480e+002, 3.383765e-002
6.961765e+002, 3.433061e-002
6.981050e+002, 3.501554e-002
7.000334e+002, 3.583674e-002
7.019619e+002, 3.672910e-002
7.038904e+002, 3.740646e-002
7.058188e+002, 3.840922e-002
7.077473e+002, 3.957982e-002
7.096758e+002, 4.064255e-002
7.116042e+002, 4.203541e-002
7.135327e+002, 4.385739e-002
7.154612e+002, 4.537507e-002
7.173896e+002, 4.680088e-002
7.193181e+002, 4.879179e-002
7.212466e+002, 5.101208e-002
7.231750e+002, 5.365685e-002
7.251035e+002, 5.696984e-002
7.270320e+002, 6.114953e-002
7.289604e+002, 6.620111e-002
7.308889e+002, 7.258900e-002
7.328174e+002, 8.102158e-002
7.347458e+002, 9.270500e-002
7.366743e+002, 1.098918e-001
7.386028e+002, 1.362070e-001
7.405313e+002, 1.738170e-001
7.424597e+002, 2.095159e-001
7.443882e+002, 2.007359e-001
7.463167e+002, 1.411664e-001
7.482451e+002, 8.365357e-002
7.501736e+002, 5.212738e-002
7.521021e+002, 3.814208e-002
7.540305e+002, 3.160246e-002
7.559590e+002, 2.859997e-002
7.578875e+002, 2.735001e-002
7.598159e+002, 2.692719e-002
7.617444e+002, 2.723428e-002
7.636729e+002, 2.792552e-002
7.656013e+002, 2.854202e-002
7.675298e+002, 2.903180e-002
7.694583e+002, 2.976623e-002
7.713867e+002, 3.065403e-002
7.733152e+002, 3.161279e-002
7.752437e+002, 3.237597e-002
7.771721e+002, 3.318770e-002
7.791006e+002, 3.434686e-002
7.810291e+002, 3.516522e-002
7.829575e+002, 3.586144e-002
7.848860e+002, 3.670014e-002
7.868145e+002, 3.758183e-002
7.887429e+002, 3.835450e-002
7.906714e+002, 3.936413e-002
7.925999e+002, 4.057808e-002
7.945283e+002, 4.155783e-002
7.964568e+002, 4.242700e-002
7.983853e+002, 4.345696e-002
8.003137e+002, 4.463134e-002
8.022422e+002, 4.570359e-002
8.041707e+002, 4.696523e-002
8.060991e+002, 4.847102e-002
8.080276e+002, 4.979042e-002
8.099561e+002, 5.141925e-002
8.118845e+002, 5.315378e-002
8.138130e+002, 5.494649e-002
8.157415e+002, 5.689616e-002
8.176699e+002, 5.905725e-002
8.195984e+002, 6.161850e-002
8.215269e+002, 6.448640e-002
8.234553e+002, 6.735706e-002
8.253838e+002, 7.058363e-002
8.273123e+002, 7.431852e-002
8.292407e+002, 7.879845e-002
8.311692e+002, 8.359004e-002
8.330977e+002, 8.914561e-002
8.350261e+002, 9.648411e-002
8.369546e+002, 1.063719e-001
8.388831e+002, 1.215597e-001
8.408115e+002, 1.322155e-001
8.427400e+002, 1.271858e-001
8.446685e+002, 1.289789e-001
8.465969e+002, 1.425944e-001
8.485254e+002, 1.596673e-001
8.504539e+002, 1.789798e-001
8.523823e+002, 2.001613e-001
8.543108e+002, 2.238861e-001
8.562393e+002, 2.512242e-001
8.581677e+002, 2.812247e-001
8.600962e+002, 3.115528e-001
8.620247e+002, 3.351354e-001
8.639531e+002, 3.442843e-001
8.658816e+002, 3.396823e-001
8.678101e+002, 3.243482e-001
8.697385e+002, 2.999911e-001
8.716670e+002, 2.678502e-001
8.735955e+002, 2.296040e-001
8.755239e+002, 1.888883e-001
8.774524e+002, 1.488442e-001
8.793809e+002, 1.117513e-001
8.813093e+002, 8.174892e-002
8.832378e+002, 6.176111e-002
8.851663e+002, 5.130360e-002
8.870947e+002, 4.720904e-002
8.890232e+002, 4.616780e-002
8.909517e+002, 4.624124e-002
8.928801e+002, 4.691800e-002
8.948085e+002, 4.761732e-002
8.967370e+002, 4.819424e-002
8.986655e+002, 4.873925e-002
9.005939e+002, 4.937195e-002
9.025224e+002, 5.013295e-002
9.044509e+002, 5.065483e-002
9.063793e+002, 5.112834e-002
9.083078e+002, 5.182528e-002
9.102363e+002, 5.231454e-002
9.121647e+002, 5.260540e-002
9.140932e+002, 5.289466e-002
9.160217e+002, 5.322952e-002
9.179501e+002, 5.343511e-002
9.198786e+002, 5.354276e-002
9.218071e+002, 5.356397e-002
9.237355e+002, 5.388198e-002
9.256640e+002, 5.438545e-002
9.275925e+002, 5.495479e-002
9.295209e+002, 5.549497e-002
9.314494e+002, 5.607567e-002
9.333779e+002, 5.658898e-002
9.353063e+002, 5.683758e-002
9.372348e+002, 5.695274e-002
9.391633e+002, 5.697465e-002
9.410917e+002, 5.711493e-002
9.430202e+002, 5.709742e-002
9.449487e+002, 5.689936e-002
9.468771e+002, 5.684980e-002
9.488056e+002, 5.703409e-002
9.507341e+002, 5.713663e-002
9.526625e+002, 5.720123e-002
9.545910e+002, 5.739027e-002
9.565195e+002, 5.753312e-002
9.584479e+002, 5.770199e-002
9.603764e+002, 5.775803e-002
9.623049e+002, 5.789730e-002
9.642333e+002, 5.817727e-002
9.661618e+002, 5.856095e-002
9.680903e+002, 5.889286e-002
9.700187e+002, 5.940134e-002
9.719472e+002, 6.003967e-002
9.738757e+002, 6.040129e-002
9.758041e+002, 6.077743e-002
9.777326e+002, 6.114267e-002
9.796611e+002, 6.139433e-002
9.815895e+002, 6.169523e-002
9.835180e+002, 6.190099e-002
9.854465e+002, 6.181438e-002
9.873749e+002, 6.190317e-002
9.893034e+002, 6.213716e-002
9.912319e+002, 6.210600e-002
9.931603e+002, 6.229156e-002
9.950888e+002, 6.266739e-002
9.970173e+002, 6.308825e-002
9.989457e+002, 6.345635e-002
1.000874e+003, 6.363489e-002
1.002803e+003, 6.400258e-002
1.004731e+003, 6.453610e-002
1.006660e+003, 6.505369e-002
1.008588e+003, 6.552687e-002
1.010517e+003, 6.610096e-002
1.012445e+003, 6.672276e-002
1.014373e+003, 6.717839e-002
1.016302e+003, 6.772163e-002
1.018230e+003, 6.827953e-002
1.020159e+003, 6.904385e-002
1.022087e+003, 6.979775e-002
1.024016e+003, 7.038321e-002
1.025944e+003, 7.096342e-002
1.027873e+003, 7.168114e-002
1.029801e+003, 7.240709e-002
1.031730e+003, 7.328337e-002
1.033658e+003, 7.387713e-002
1.035587e+003, 7.449751e-002
1.037515e+003, 7.516229e-002
1.039444e+003, 7.573378e-002
1.041372e+003, 7.631146e-002
1.043301e+003, 7.702261e-002
1.045229e+003, 7.779624e-002
1.047157e+003, 7.831576e-002
1.049086e+003, 7.889900e-002
1.051014e+003, 7.977057e-002
1.052943e+003, 8.059330e-002
1.054871e+003, 8.140386e-002
1.056800e+003, 8.219426e-002
1.058728e+003, 8.292315e-002
1.060657e+003, 8.353525e-002
1.062585e+003, 8.422314e-002
1.064514e+003, 8.519772e-002
1.066442e+003, 8.611028e-002
1.068371e+003, 8.713632e-002
1.070299e+003, 8.824790e-002
1.072228e+003, 8.928443e-002
1.074156e+003, 9.032031e-002
1.076084e+003, 9.145543e-002
1.078013e+003, 9.266700e-002
1.079941e+003, 9.375779e-002
1.081870e+003, 9.475411e-002
1.083798e+003, 9.570547e-002
1.085727e+003, 9.679493e-002
1.087655e+003, 9.800543e-002
1.089584e+003, 9.917441e-002
1.091512e+003, 1.002983e-001
1.093441e+003, 1.013524e-001
1.095369e+003, 1.023156e-001
1.097298e+003, 1.035811e-001
1.099226e+003, 1.048819e-001
1.101155e+003, 1.064944e-001
1.103083e+003, 1.080021e-001
1.105011e+003, 1.093090e-001
1.106940e+003, 1.108397e-001
1.108868e+003, 1.123966e-001
1.110797e+003, 1.140750e-001
1.112725e+003, 1.157249e-001
1.114654e+003, 1.173933e-001
1.116582e+003, 1.194077e-001
1.118511e+003, 1.213042e-001
1.120439e+003, 1.227089e-001
1.122368e+003, 1.239169e-001
1.124296e+003, 1.251041e-001
1.126225e+003, 1.263190e-001
1.128153e+003, 1.276382e-001
1.130082e+003, 1.286454e-001
1.132010e+003, 1.295130e-001
1.133938e+003, 1.303223e-001
1.135867e+003, 1.314324e-001
1.137795e+003, 1.325322e-001
1.139724e+003, 1.336908e-001
1.141652e+003, 1.348774e-001
1.143581e+003, 1.361990e-001
1.145509e+003, 1.379429e-001
1.147438e+003, 1.398530e-001
1.149366e+003, 1.418630e-001
1.151295e+003, 1.439350e-001
1.153223e+003, 1.461027e-001
1.155152e+003, 1.485662e-001
1.157080e+003, 1.506771e-001
1.159009e+003, 1.524982e-001
1.160937e+003, 1.542448e-001
1.162865e+003, 1.556027e-001
1.164794e+003, 1.565744e-001
1.166722e+003, 1.573288e-001
1.168651e+003, 1.578535e-001
1.170579e+003, 1.582446e-001
1.172508e+003, 1.584273e-001
1.174436e+003, 1.583311e-001
1.176365e+003, 1.579237e-001
1.178293e+003, 1.573501e-001
1.180222e+003, 1.570439e-001
1.182150e+003, 1.567605e-001
1.184079e+003, 1.561833e-001
1.186007e+003, 1.557593e-001
1.187936e+003, 1.555569e-001
1.189864e+003, 1.551053e-001
1.191792e+003, 1.545528e-001
1.193721e+003, 1.539750e-001
1.195649e+003, 1.535672e-001
1.197578e+003, 1.533276e-001
1.199506e+003, 1.531405e-001
1.201435e+003, 1.529286e-001
1.203363e+003, 1.528234e-001
1.205292e+003, 1.531421e-001
1.207220e+003, 1.537586e-001
1.209149e+003, 1.545499e-001
1.211077e+003, 1.555525e-001
1.213006e+003, 1.568166e-001
1.214934e+003, 1.581706e-001
1.216863e+003, 1.595075e-001
1.218791e+003, 1.607356e-001
1.220719e+003, 1.617540e-001
1.222648e+003, 1.628182e-001
1.224576e+003, 1.638174e-001
1.226505e+003, 1.648454e-001
1.228433e+003, 1.662353e-001
1.230362e+003, 1.678213e-001
1.232290e+003, 1.693840e-001
1.234219e+003, 1.709040e-001
1.236147e+003, 1.725021e-001
1.238076e+003, 1.740369e-001
1.240004e+003, 1.756640e-001
1.241933e+003, 1.774981e-001
1.243861e+003, 1.795501e-001
1.245790e+003, 1.815877e-001
1.247718e+003, 1.836327e-001
1.249646e+003, 1.856189e-001
1.251575e+003, 1.877543e-001
1.253503e+003, 1.901016e-001
1.255432e+003, 1.922763e-001
1.257360e+003, 1.942943e-001
1.259289e+003, 1.966247e-001
1.261217e+003, 1.990905e-001
1.263146e+003, 2.014351e-001
1.265074e+003, 2.038703e-001
1.267003e+003, 2.066569e-001
1.268931e+003, 2.095875e-001
1.270860e+003, 2.125154e-001
1.272788e+003, 2.153645e-001
1.274717e+003, 2.179635e-001
1.276645e+003, 2.206858e-001
1.278573e+003, 2.239329e-001
1.280502e+003, 2.270100e-001
1.282430e+003, 2.298807e-001
1.284359e+003, 2.330351e-001
1.286287e+003, 2.364222e-001
1.288216e+003, 2.398992e-001
1.290144e+003, 2.432431e-001
1.292073e+003, 2.463920e-001
1.294001e+003, 2.497577e-001
1.295930e+003, 2.532218e-001
1.297858e+003, 2.568067e-001
1.299787e+003, 2.604998e-001
1.301715e+003, 2.641745e-001
1.303644e+003, 2.678736e-001
1.305572e+003, 2.717959e-001
1.307500e+003, 2.759433e-001
1.309429e+003, 2.800736e-001
1.311357e+003, 2.842189e-001
1.313286e+003, 2.884337e-001
1.315214e+003, 2.929812e-001
1.317143e+003, 2.976559e-001
1.319071e+003, 3.021688e-001
1.321000e+003, 3.068106e-001
1.322928e+003, 3.117020e-001
1.324857e+003, 3.164219e-001
1.326785e+003, 3.213648e-001
1.328714e+003, 3.266662e-001
1.330642e+003, 3.318580e-001
1.332571e+003, 3.371487e-001
1.334499e+003, 3.423955e-001
1.336427e+003, 3.473848e-001
1.338356e+003, 3.526504e-001
1.340284e+003, 3.584282e-001
1.342213e+003, 3.645504e-001
1.344141e+003, 3.707861e-001
1.346070e+003, 3.774755e-001
1.347998e+003, 3.846664e-001
1.349927e+003, 3.919006e-001
1.351855e+003, 3.990071e-001
1.353784e+003, 4.063590e-001
1.355712e+003, 4.138139e-001
1.357641e+003, 4.213030e-001
1.359569e+003, 4.289402e-001
1.361498e+003, 4.365555e-001
1.363426e+003, 4.441560e-001
1.365354e+003, 4.521019e-001
1.367283e+003, 4.603282e-001
1.369211e+003, 4.686195e-001
1.371140e+003, 4.772246e-001
1.373068e+003, 4.861431e-001
1.374997e+003, 4.950736e-001
1.376925e+003, 5.042231e-001
1.378854e+003, 5.131730e-001
1.380782e+003, 5.217389e-001
1.382711e+003, 5.294082e-001
1.384639e+003, 5.348704e-001
1.386568e+003, 5.396667e-001
1.388496e+003, 5.473983e-001
1.390424e+003, 5.577461e-001
1.392353e+003, 5.672915e-001
1.394281e+003, 5.750986e-001
1.396210e+003, 5.812363e-001
1.398138e+003, 5.867253e-001
1.400067e+003, 5.918119e-001
1.401995e+003, 5.959866e-001
1.403924e+003, 5.977592e-001
1.405852e+003, 5.971217e-001
1.407781e+003, 5.951396e-001
1.409709e+003, 5.914626e-001
1.411638e+003, 5.862231e-001
1.413566e+003, 5.801529e-001
1.415495e+003, 5.728062e-001
1.417423e+003, 5.647504e-001
1.419351e+003, 5.558546e-001
1.421280e+003, 5.459954e-001
1.423208e+003, 5.355243e-001
1.425137e+003, 5.251107e-001
1.427065e+003, 5.145273e-001
1.428994e+003, 5.036505e-001
1.430922e+003, 4.929737e-001
1.432851e+003, 4.827516e-001
1.434779e+003, 4.726505e-001
1.436708e+003, 4.625514e-001
1.438636e+003, 4.525753e-001
1.440565e+003, 4.432890e-001
1.442493e+003, 4.344446e-001
1.444422e+003, 4.258357e-001
1.446350e+003, 4.170875e-001
1.448278e+003, 4.081862e-001
1.450207e+003, 3.997003e-001
1.452135e+003, 3.913755e-001
1.454064e+003, 3.828571e-001
1.455992e+003, 3.744982e-001
1.457921e+003, 3.660876e-001
1.459849e+003, 3.581061e-001
1.461778e+003, 3.503112e-001
1.463706e+003, 3.426684e-001
1.465635e+003, 3.350893e-001
1.467563e+003, 3.276668e-001
1.469492e+003, 3.203496e-001
1.471420e+003, 3.129869e-001
1.473349e+003, 3.056773e-001
1.475277e+003, 2.990652e-001
1.477205e+003, 2.921666e-001
1.479134e+003, 2.849375e-001
1.481062e+003, 2.777881e-001
1.482991e+003, 2.709187e-001
1.484919e+003, 2.640994e-001
1.486848e+003, 2.569951e-001
1.488776e+003, 2.499411e-001
1.490705e+003, 2.431298e-001
1.492633e+003, 2.363197e-001
1.494562e+003, 2.296744e-001
1.496490e+003, 2.230169e-001
1.498419e+003, 2.164796e-001
1.500347e+003, 2.101252e-001
1.502276e+003, 2.038567e-001
1.504204e+003, 1.970721e-001
1.506132e+003, 1.902882e-001
1.508061e+003, 1.839637e-001
1.509989e+003, 1.777484e-001
1.511918e+003, 1.713310e-001
1.513846e+003, 1.651562e-001
1.515775e+003, 1.592639e-001
1.517703e+003, 1.531742e-001
1.519632e+003, 1.468593e-001
1.521560e+003, 1.406740e-001
1.523489e+003, 1.349893e-001
1.525417e+003, 1.296328e-001
1.527346e+003, 1.241544e-001
1.529274e+003, 1.186918e-001
1.531203e+003, 1.134852e-001
1.533131e+003, 1.083637e-001
1.535059e+003, 1.035400e-001
1.536988e+003, 9.897643e-002
1.538916e+003, 9.427343e-002
1.540845e+003, 8.972538e-002
1.542773e+003, 8.540662e-002
1.544702e+003, 8.137471e-002
1.546630e+003, 7.717798e-002
1.548559e+003, 7.308920e-002
1.550487e+003, 6.888917e-002
1.552416e+003, 6.498837e-002
1.554344e+003, 6.092210e-002
1.556273e+003, 5.715042e-002
1.558201e+003, 5.331923e-002
1.560130e+003, 4.956656e-002
1.562058e+003, 4.628564e-002
1.563986e+003, 4.307074e-002
1.565915e+003, 3.998537e-002
1.567843e+003, 3.723886e-002
1.569772e+003, 3.439717e-002
1.571700e+003, 3.202336e-002
1.573629e+003, 3.021607e-002
1.575557e+003, 2.853931e-002
1.577486e+003, 2.723802e-002
1.579414e+003, 2.674158e-002
1.581343e+003, 2.644974e-002
1.583271e+003, 2.649553e-002
1.585200e+003, 2.633387e-002
1.587128e+003, 2.610684e-002
1.589057e+003, 2.600807e-002
1.590985e+003, 2.573196e-002
1.592913e+003, 2.536016e-002
1.594842e+003, 2.515115e-002
1.596770e+003, 2.531250e-002
1.598699e+003, 2.551662e-002
1.600627e+003, 2.556205e-002
1.602556e+003, 2.555371e-002
1.604484e+003, 2.549688e-002
1.606413e+003, 2.515432e-002
1.608341e+003, 2.453509e-002
1.610270e+003, 2.396851e-002
1.612198e+003, 2.305111e-002
1.614127e+003, 2.201177e-002
1.616055e+003, 2.093454e-002
1.617984e+003, 1.983400e-002
1.619912e+003, 1.912027e-002
1.621840e+003, 1.834996e-002
1.623769e+003, 1.772554e-002
1.625697e+003, 1.715719e-002
1.627626e+003, 1.640989e-002
1.629554e+003, 1.562834e-002
1.631483e+003, 1.499263e-002
1.633411e+003, 1.446476e-002
1.635340e+003, 1.400134e-002
1.637268e+003, 1.374422e-002
1.639197e+003, 1.359584e-002
1.641125e+003, 1.329411e-002
1.643054e+003, 1.294737e-002
1.644982e+003, 1.272408e-002
1.646911e+003, 1.233170e-002
1.648839e+003, 1.216322e-002
1.650767e+003, 1.206774e-002
1.652696e+003, 1.166279e-002
1.654624e+003, 1.143798e-002
1.656553e+003, 1.143924e-002
1.658481e+003, 1.122335e-002
1.660410e+003, 1.109526e-002
1.662338e+003, 1.102973e-002
1.664267e+003, 1.066895e-002
1.666195e+003, 1.058878e-002
1.668124e+003, 1.069834e-002
1.670052e+003, 1.058809e-002
1.671981e+003, 1.048649e-002
1.673909e+003, 1.022283e-002
1.675838e+003, 9.958299e-003
1.677766e+003, 9.768900e-003
1.679694e+003, 9.409794e-003
1.681623e+003, 9.344876e-003
1.683551e+003, 9.383105e-003
1.685480e+003, 8.948764e-003
1.687408e+003, 8.857983e-003
1.689337e+003, 9.074555e-003
1.691265e+003, 9.030888e-003
1.693194e+003, 8.700797e-003
1.695122e+003, 8.449539e-003
1.697051e+003, 8.087511e-003
1.698979e+003, 8.114669e-003
1.700908e+003, 7.732819e-003
1.702836e+003, 7.550566e-003
1.704765e+003, 7.430930e-003
1.706693e+003, 7.498833e-003
1.708621e+003, 7.412354e-003
1.710550e+003, 7.176008e-003
1.712478e+003, 6.995329e-003
1.714407e+003, 6.804656e-003
1.716335e+003, 6.448109e-003
1.718264e+003, 6.315746e-003
1.720192e+003, 6.550459e-003
1.722121e+003, 6.818129e-003
1.724049e+003, 6.918166e-003
1.725978e+003, 6.845844e-003
1.727906e+003, 6.888020e-003
1.729835e+003, 6.866338e-003
1.731763e+003, 6.699943e-003
1.733692e+003, 6.671692e-003
1.735620e+003, 6.751650e-003
1.737548e+003, 6.977195e-003
1.739477e+003, 6.662431e-003
1.741405e+003, 6.390914e-003
1.743334e+003, 6.415979e-003
1.745262e+003, 6.455825e-003
1.747191e+003, 6.483906e-003
1.749119e+003, 6.558064e-003
1.751048e+003, 6.632147e-003
1.752976e+003, 6.599893e-003
1.754905e+003, 6.595632e-003
1.756833e+003, 7.054446e-003
1.758762e+003, 7.548459e-003
1.760690e+003, 7.552972e-003
1.762619e+003, 7.446695e-003
1.764547e+003, 7.670175e-003
1.766475e+003, 7.810962e-003
1.768404e+003, 7.881483e-003
1.770332e+003, 8.154613e-003
1.772261e+003, 8.356679e-003
1.774189e+003, 8.313071e-003
1.776118e+003, 8.260305e-003
1.778046e+003, 8.489436e-003
1.779975e+003, 8.635450e-003
1.781903e+003, 8.882375e-003
1.783832e+003, 9.323962e-003
1.785760e+003, 9.198925e-003
1.787689e+003, 9.100398e-003
1.789617e+003, 9.335394e-003
1.791546e+003, 9.667887e-003
1.793474e+003, 1.049801e-002
1.795402e+003, 1.138895e-002
1.797331e+003, 1.191064e-002
1.799259e+003, 1.263872e-002
1.801188e+003, 1.376074e-002
1.803116e+003, 1.515065e-002
1.805045e+003, 1.652348e-002
1.806973e+003, 1.740429e-002
1.808902e+003, 1.776475e-002
1.810830e+003, 1.805600e-002
1.812759e+003, 1.801212e-002
1.814687e+003, 1.769838e-002
1.816616e+003, 1.730429e-002
1.818544e+003, 1.746467e-002
1.820473e+003, 1.779689e-002
1.822401e+003, 1.725636e-002
1.824329e+003, 1.643310e-002
1.826258e+003, 1.545214e-002
1.828186e+003, 1.451147e-002
1.830115e+003, 1.348613e-002
1.832043e+003, 1.239638e-002
1.833972e+003, 1.125536e-002
1.835900e+003, 1.011436e-002
1.837829e+003, 9.857124e-003
1.839757e+003, 9.008897e-003
1.841686e+003, 8.020688e-003
1.843614e+003, 7.805933e-003
1.845543e+003, 7.567357e-003
1.847471e+003, 7.380061e-003
1.849400e+003, 7.480813e-003
1.851328e+003, 7.383566e-003
1.853256e+003, 7.203288e-003
1.855185e+003, 7.143403e-003
1.857113e+003, 7.043464e-003
1.859042e+003, 6.925445e-003
1.860970e+003, 6.601901e-003
1.862899e+003, 6.886942e-003
1.864827e+003, 6.932613e-003
1.866756e+003, 6.671051e-003
1.868684e+003, 6.937060e-003
1.870613e+003, 7.356993e-003
1.872541e+003, 7.024664e-003
1.874470e+003, 6.745171e-003
1.876398e+003, 7.147186e-003
1.878327e+003, 6.829171e-003
1.880255e+003, 6.949456e-003
1.882183e+003, 6.844520e-003
1.884112e+003, 6.239149e-003
1.886040e+003, 6.632657e-003
1.887969e+003, 6.880914e-003
1.889897e+003, 6.857034e-003
1.891826e+003, 6.800073e-003
1.893754e+003, 7.040956e-003
1.895683e+003, 7.259215e-003
1.897611e+003, 7.172792e-003
1.899540e+003, 7.258581e-003
1.901468e+003, 7.706875e-003
1.903397e+003, 7.624487e-003
1.905325e+003, 6.905583e-003
1.907254e+003, 7.345198e-003
1.909182e+003, 7.218855e-003
1.911110e+003, 6.994312e-003
1.913039e+003, 6.761962e-003
1.914967e+003, 7.183395e-003
1.916896e+003, 7.981996e-003
1.918824e+003, 7.958591e-003
1.920753e+003, 7.680500e-003
1.922681e+003, 7.641064e-003
1.924610e+003, 7.565390e-003
1.926538e+003, 7.224252e-003
1.928467e+003, 6.155192e-003
1.930395e+003, 5.390714e-003
1.932324e+003, 6.226511e-003
1.934252e+003, 7.090951e-003
1.936181e+003, 7.281916e-003
1.938109e+003, 7.993466e-003
1.940037e+003, 8.877086e-003
1.941966e+003, 8.552963e-003
1.943894e+003, 7.942752e-003
1.945823e+003, 7.407031e-003
1.947751e+003, 7.332844e-003
1.949680e+003, 7.777737e-003
1.951608e+003, 7.179746e-003
1.953537e+003, 6.493578e-003
1.955465e+003, 7.174750e-003
1.957394e+003, 9.274864e-003
1.959322e+003, 8.767787e-003
1.961251e+003, 7.140768e-003
1.963179e+003, 7.297069e-003
1.965108e+003, 7.573408e-003
1.967036e+003, 6.657435e-003
1.968964e+003, 5.433149e-003
1.970893e+003, 6.487514e-003
1.972821e+003, 7.874711e-003
1.974750e+003, 8.035832e-003
1.976678e+003, 9.660165e-003
1.978607e+003, 1.193742e-002
1.980535e+003, 1.178196e-002
1.982464e+003, 1.104492e-002
1.984392e+003, 9.616240e-003
1.986321e+003, 8.551848e-003
1.988249e+003, 7.757301e-003
1.990178e+003, 7.691571e-003
1.992106e+003, 8.391896e-003
1.994035e+003, 8.312956e-003
1.995963e+003, 8.805634e-003
1.997891e+003, 8.015349e-003
1.999820e+003, 7.295246e-003
2.001748e+003, 6.719673e-003
2.003677e+003, 7.388407e-003
2.005605e+003, 8.242212e-003
2.007534e+003, 8.038756e-003
2.009462e+003, 7.712108e-003
2.011391e+003, 8.003294e-003
2.013319e+003, 8.603099e-003
2.015248e+003, 8.350843e-003
2.017176e+003, 7.564727e-003
2.019105e+003, 8.054441e-003
2.021033e+003, 8.917904e-003
2.022962e+003, 9.300414e-003
2.024890e+003, 8.567966e-003
2.026818e+003, 8.065310e-003
2.028747e+003, 8.112761e-003
2.030675e+003, 9.413265e-003
2.032604e+003, 1.008765e-002
2.034532e+003, 1.115790e-002
2.036461e+003, 1.059826e-002
2.038389e+003, 9.525168e-003
2.040318e+003, 9.304302e-003
2.042246e+003, 1.029390e-002
2.044175e+003, 1.100968e-002
2.046103e+003, 1.182504e-002
2.048032e+003, 1.289710e-002
2.049960e+003, 1.310358e-002
2.051889e+003, 1.084711e-002
2.053817e+003, 9.966053e-003
2.055746e+003, 1.043375e-002
2.057674e+003, 1.051697e-002
2.059603e+003, 9.862508e-003
2.061531e+003, 9.200160e-003
2.063459e+003, 9.496054e-003
2.065388e+003, 9.551286e-003
2.067316e+003, 1.009967e-002
2.069245e+003, 1.131624e-002
2.071173e+003, 1.223186e-002
2.073102e+003, 1.146095e-002
2.075030e+003, 1.065579e-002
2.076959e+003, 1.063039e-002
2.078887e+003, 1.177978e-002
2.080816e+003, 1.188906e-002
2.082744e+003, 1.091358e-002
2.084673e+003, 1.074885e-002
2.086601e+003, 1.141437e-002
2.088530e+003, 1.199351e-002
2.090458e+003, 1.148885e-002
2.092386e+003, 1.065828e-002
2.094315e+003, 1.011108e-002
2.096243e+003, 1.050521e-002
2.098172e+003, 1.073945e-002
2.100100e+003, 1.050813e-002
2.102029e+003, 1.134453e-002
2.103957e+003, 1.159905e-002
2.105886e+003, 1.140950e-002
2.107814e+003, 1.203540e-002
2.109743e+003, 1.219799e-002
2.111671e+003, 1.138630e-002
2.113600e+003, 1.154831e-002
2.115528e+003, 1.217320e-002
2.117457e+003, 1.233126e-002
2.119385e+003, 1.207656e-002
2.121313e+003, 1.143616e-002
2.123242e+003, 1.060948e-002
2.125170e+003, 1.070695e-002
2.127099e+003, 1.096839e-002
2.129027e+003, 9.169836e-003
2.130956e+003, 7.334673e-003
2.132884e+003, 8.369776e-003
2.134813e+003, 1.066057e-002
2.136741e+003, 1.227718e-002
2.138670e+003, 1.185810e-002
2.140598e+003, 9.768332e-003
2.142527e+003, 9.256156e-003
2.144455e+003, 8.185057e-003
2.146384e+003, 6.874014e-003
2.148312e+003, 6.802461e-003
2.150240e+003, 8.185361e-003
2.152169e+003, 7.785911e-003
2.154097e+003, 6.822506e-003
2.156026e+003, 4.545859e-003
2.157954e+003, 5.675620e-003
2.159883e+003, 1.174054e-002
2.161811e+003, 1.292727e-002
2.163740e+003, 1.115726e-002
2.165668e+003, 1.007768e-002
2.167597e+003, 1.091706e-002
2.169525e+003, 1.235222e-002
2.171454e+003, 1.071175e-002
2.173382e+003, 9.132020e-003
2.175311e+003, 1.038398e-002
2.177239e+003, 1.058985e-002
2.179167e+003, 1.129103e-002
2.181096e+003, 1.218784e-002
2.183024e+003, 9.570371e-003
2.184953e+003, 8.765961e-003
2.186881e+003, 9.644226e-003
2.188810e+003, 1.119194e-002
2.190738e+003, 1.291408e-002
2.192667e+003, 1.185981e-002
2.194595e+003, 1.009749e-002
2.196524e+003, 1.166066e-002
2.198452e+003, 1.369327e-002
2.200381e+003, 1.211941e-002
2.202309e+003, 1.257518e-002
2.204238e+003, 1.480098e-002
2.206166e+003, 1.572200e-002
2.208094e+003, 1.442972e-002
2.210023e+003, 1.243147e-002
2.211951e+003, 1.185398e-002
2.213880e+003, 1.124718e-002
2.215808e+003, 1.044491e-002
2.217737e+003, 1.040073e-002
2.219665e+003, 1.153846e-002
2.221594e+003, 1.274116e-002
2.223522e+003, 1.356186e-002
2.225451e+003, 1.411700e-002
2.227379e+003, 1.439694e-002
2.229308e+003, 1.299989e-002
2.231236e+003, 1.189970e-002
2.233165e+003, 1.200655e-002
2.235093e+003, 1.204008e-002
2.237021e+003, 1.294132e-002
2.238950e+003, 1.351658e-002
2.240878e+003, 1.303385e-002
2.242807e+003, 1.295202e-002
2.244735e+003, 1.288135e-002
2.246664e+003, 1.312586e-002
2.248592e+003, 1.372343e-002
2.250521e+003, 1.383736e-002
2.252449e+003, 1.323028e-002
2.254378e+003, 1.333625e-002
2.256306e+003, 1.456892e-002
2.258235e+003, 1.476418e-002
2.260163e+003, 1.493723e-002
2.262092e+003, 1.497411e-002
2.264020e+003, 1.471385e-002
2.265948e+003, 1.411773e-002
2.267877e+003, 1.459343e-002
2.269805e+003, 1.602139e-002
2.271734e+003, 1.671476e-002
2.273662e+003, 1.599800e-002
2.275591e+003, 1.484637e-002
2.277519e+003, 1.451912e-002
2.279448e+003, 1.591857e-002
2.281376e+003, 1.673048e-002
2.283305e+003, 1.677464e-002
2.285233e+003, 1.677031e-002
2.287162e+003, 1.693894e-002
2.289090e+003, 1.666562e-002
2.291019e+003, 1.609415e-002
2.292947e+003, 1.658727e-002
2.294875e+003, 1.666332e-002
2.296804e+003, 1.667790e-002
2.298732e+003, 1.692623e-002
2.300661e+003, 1.652497e-002
2.302589e+003, 1.636848e-002
2.304518e+003, 1.677218e-002
2.306446e+003, 1.670152e-002
2.308375e+003, 1.725806e-002
2.310303e+003, 1.804456e-002
2.312232e+003, 1.814132e-002
2.314160e+003, 1.798330e-002
2.316089e+003, 1.794493e-002
2.318017e+003, 1.790623e-002
2.319946e+003, 1.796353e-002
2.321874e+003, 1.851317e-002
2.323802e+003, 1.870516e-002
2.325731e+003, 1.774774e-002
2.327659e+003, 1.703291e-002
2.329588e+003, 1.681662e-002
2.331516e+003, 1.706141e-002
2.333445e+003, 1.692428e-002
2.335373e+003, 1.663686e-002
2.337302e+003, 1.706185e-002
2.339230e+003, 1.714619e-002
2.341159e+003, 1.676988e-002
2.343087e+003, 1.670577e-002
2.345016e+003, 1.662271e-002
2.346944e+003, 1.699192e-002
2.348873e+003, 1.755491e-002
2.350801e+003, 1.721509e-002
2.352729e+003, 1.680947e-002
2.354658e+003, 1.734516e-002
2.356586e+003, 1.743382e-002
2.358515e+003, 1.716723e-002
2.360443e+003, 1.684471e-002
2.362372e+003, 1.633157e-002
2.364300e+003, 1.609864e-002
2.366229e+003, 1.600264e-002
2.368157e+003, 1.607651e-002
2.370086e+003, 1.617200e-002
2.372014e+003, 1.644506e-002
2.373942e+003, 1.653235e-002
2.375871e+003, 1.663096e-002
2.377799e+003, 1.653375e-002
2.379728e+003, 1.698850e-002
2.381656e+003, 1.721966e-002
2.383585e+003, 1.730920e-002
2.385513e+003, 1.724516e-002
2.387442e+003, 1.757675e-002
2.389370e+003, 1.808687e-002
2.391299e+003, 1.808957e-002
2.393227e+003, 1.715136e-002
2.395156e+003, 1.680656e-002
2.397084e+003, 1.719659e-002
2.399012e+003, 1.730265e-002
2.400941e+003, 1.740632e-002
2.402869e+003, 1.747463e-002
2.404798e+003, 1.744120e-002
2.406726e+003, 1.747302e-002
2.408655e+003, 1.764926e-002
2.410583e+003, 1.734583e-002
2.412512e+003, 1.730403e-002
2.414440e+003, 1.783339e-002
2.416369e+003, 1.797110e-002
2.418297e+003, 1.811970e-002
2.420226e+003, 1.736857e-002
2.422154e+003, 1.731984e-002
2.424083e+003, 1.793950e-002
2.426011e+003, 1.763935e-002
2.427939e+003, 1.875488e-002
2.429868e+003, 1.933535e-002
2.431796e+003, 1.812568e-002
2.433725e+003, 1.793375e-002
2.435653e+003, 1.883755e-002
2.437582e+003, 1.933404e-002
2.439510e+003, 1.909747e-002
2.441439e+003, 1.862005e-002
2.443367e+003, 1.822452e-002
2.445296e+003, 1.881349e-002
2.447224e+003, 1.946098e-002
2.449153e+003, 1.941400e-002
2.451081e+003, 1.945344e-002
2.453010e+003, 2.031224e-002
2.454938e+003, 2.057921e-002
2.456866e+003, 2.019285e-002
2.458795e+003, 2.048663e-002
2.460723e+003, 2.062446e-002
2.462652e+003, 2.076591e-002
2.464580e+003, 2.130827e-002
2.466509e+003, 2.077169e-002
2.468437e+003, 2.053495e-002
2.470366e+003, 2.191261e-002
2.472294e+003, 2.303323e-002
2.474223e+003, 2.332361e-002
2.476151e+003, 2.330943e-002
2.478080e+003, 2.438618e-002
2.480008e+003, 2.603413e-002
2.481937e+003, 2.754441e-002
2.483865e+003, 2.822761e-002
2.485793e+003, 3.043087e-002
2.487722e+003, 3.220219e-002
2.489650e+003, 3.272793e-002
2.491579e+003, 3.393127e-002
2.493507e+003, 3.420889e-002
2.495436e+003, 3.371866e-002
2.497364e+003, 3.285330e-002
2.499293e+003, 3.122544e-002
2.501221e+003, 3.084650e-002
2.503150e+003, 3.004147e-002
2.505078e+003, 2.880819e-002
2.507007e+003, 2.952105e-002
2.508935e+003, 2.961876e-002
2.510864e+003, 2.914265e-002
2.512792e+003, 2.870396e-002
2.514720e+003, 2.847323e-002
2.516649e+003, 2.732398e-002
2.518577e+003, 2.586140e-002
2.520506e+003, 2.459808e-002
2.522434e+003, 2.431102e-002
2.524363e+003, 2.524230e-002
2.526291e+003, 2.592287e-002
2.528220e+003, 2.507747e-002
2.530148e+003, 2.423957e-002
2.532077e+003, 2.379722e-002
2.534005e+003, 2.290994e-002
2.535934e+003, 2.182472e-002
2.537862e+003, 2.118029e-002
2.539791e+003, 2.086573e-002
2.541719e+003, 2.101959e-002
2.543647e+003, 2.071156e-002
2.545576e+003, 2.079610e-002
2.547504e+003, 2.092411e-002
2.549433e+003, 2.164668e-002
2.551361e+003, 2.234118e-002
2.553290e+003, 2.228401e-002
2.555218e+003, 2.137425e-002
2.557147e+003, 2.074378e-002
2.559075e+003, 2.056213e-002
2.561004e+003, 2.046560e-002
2.562932e+003, 2.065013e-002
2.564861e+003, 2.082844e-002
2.566789e+003, 2.145829e-002
2.568718e+003, 2.194053e-002
2.570646e+003, 2.225517e-002
2.572574e+003, 2.251736e-002
2.574503e+003, 2.235957e-002
2.576431e+003, 2.240193e-002
2.578360e+003, 2.237137e-002
2.580288e+003, 2.229050e-002
2.582217e+003, 2.267519e-002
2.584145e+003, 2.229421e-002
2.586074e+003, 2.071290e-002
2.588002e+003, 2.060064e-002
2.589931e+003, 2.184108e-002
2.591859e+003, 2.253685e-002
2.593788e+003, 2.181507e-002
2.595716e+003, 2.092689e-002
2.597645e+003, 2.138295e-002
2.599573e+003, 2.167423e-002
2.601501e+003, 2.204720e-002
2.603430e+003, 2.233345e-002
2.605358e+003, 2.141055e-002
2.607287e+003, 2.153883e-002
2.609215e+003, 2.165266e-002
2.611144e+003, 2.092276e-002
2.613072e+003, 2.142312e-002
2.615001e+003, 2.223653e-002
2.616929e+003, 2.135666e-002
2.618858e+003, 2.077326e-002
2.620786e+003, 2.135938e-002
2.622715e+003, 2.148242e-002
2.624643e+003, 2.169604e-002
2.626572e+003, 2.162284e-002
2.628500e+003, 2.078358e-002
2.630428e+003, 2.029913e-002
2.632357e+003, 2.101696e-002
2.634285e+003, 2.156039e-002
2.636214e+003, 2.133845e-002
2.638142e+003, 2.095827e-002
2.640071e+003, 2.121060e-002
2.641999e+003, 2.170087e-002
2.643928e+003, 2.151049e-002
2.645856e+003, 2.103009e-002
2.647785e+003, 2.114273e-002
2.649713e+003, 2.123879e-002
2.651642e+003, 2.123304e-002
2.653570e+003, 2.131341e-002
2.655499e+003, 2.124295e-002
2.657427e+003, 2.089815e-002
2.659355e+003, 2.055735e-002
2.661284e+003, 2.084794e-002
2.663212e+003, 2.125369e-002
2.665141e+003, 2.117797e-002
2.667069e+003, 2.080923e-002
2.668998e+003, 2.063233e-002
2.670926e+003, 2.107731e-002
2.672855e+003, 2.058444e-002
2.674783e+003, 2.020333e-002
2.676712e+003, 2.011736e-002
2.678640e+003, 2.068916e-002
2.680569e+003, 2.121454e-002
2.682497e+003, 2.100941e-002
2.684426e+003, 2.060266e-002
2.686354e+003, 2.032305e-002
2.688282e+003, 2.031916e-002
2.690211e+003, 2.056994e-002
2.692139e+003, 2.039079e-002
2.694068e+003, 2.018178e-002
2.695996e+003, 2.014042e-002
2.697925e+003, 2.079343e-002
2.699853e+003, 2.099462e-002
2.701782e+003, 2.080530e-002
2.703710e+003, 2.061244e-002
2.705639e+003, 2.084677e-002
2.707567e+003, 2.113196e-002
2.709496e+003, 2.119893e-002
2.711424e+003, 2.122563e-002
2.713353e+003, 2.089861e-002
2.715281e+003, 2.066787e-002
2.717209e+003, 2.132510e-002
2.719138e+003, 2.184931e-002
2.721066e+003, 2.163899e-002
2.722995e+003, 2.125916e-002
2.724923e+003, 2.071600e-002
2.726852e+003, 2.102667e-002
2.728780e+003, 2.129071e-002
2.730709e+003, 2.099480e-002
2.732637e+003, 2.093636e-002
2.734566e+003, 2.059670e-002
2.736494e+003, 2.093057e-002
2.738423e+003, 2.145620e-002
2.740351e+003, 2.104232e-002
2.742280e+003, 2.094698e-002
2.744208e+003, 2.093099e-002
2.746136e+003, 2.089662e-002
2.748065e+003, 2.153991e-002
2.749993e+003, 2.157376e-002
2.751922e+003, 2.148333e-002
2.753850e+003, 2.169294e-002
2.755779e+003, 2.166006e-002
2.757707e+003, 2.138840e-002
2.759636e+003, 2.126448e-002
2.761564e+003, 2.162550e-002
2.763493e+003, 2.211021e-002
2.765421e+003, 2.247802e-002
2.767350e+003, 2.249360e-002
2.769278e+003, 2.193257e-002
2.771207e+003, 2.137869e-002
2.773135e+003, 2.169253e-002
2.775063e+003, 2.159097e-002
2.776992e+003, 2.166377e-002
2.778920e+003, 2.188648e-002
2.780849e+003, 2.226408e-002
2.782777e+003, 2.264145e-002
2.784706e+003, 2.238397e-002
2.786634e+003, 2.215250e-002
2.788563e+003, 2.261669e-002
2.790491e+003, 2.274906e-002
2.792420e+003, 2.264816e-002
2.794348e+003, 2.281427e-002
2.796277e+003, 2.292897e-002
2.798205e+003, 2.319452e-002
2.800134e+003, 2.341167e-002
2.802062e+003, 2.377132e-002
2.803990e+003, 2.420669e-002
2.805919e+003, 2.433108e-002
2.807847e+003, 2.473216e-002
2.809776e+003, 2.491047e-002
2.811704e+003, 2.515865e-002
2.813633e+003, 2.546963e-002
2.815561e+003, 2.603426e-002
2.817490e+003, 2.631799e-002
2.819418e+003, 2.637524e-002
2.821347e+003, 2.595483e-002
2.823275e+003, 2.581722e-002
2.825204e+003, 2.601861e-002
2.827132e+003, 2.653546e-002
2.829061e+003, 2.699396e-002
2.830989e+003, 2.696452e-002
2.832917e+003, 2.643141e-002
2.834846e+003, 2.662734e-002
2.836774e+003, 2.771542e-002
2.838703e+003, 2.774369e-002
2.840631e+003, 2.745819e-002
2.842560e+003, 2.802493e-002
2.844488e+003, 2.879561e-002
2.846417e+003, 2.851118e-002
2.848345e+003, 2.750930e-002
2.850274e+003, 2.728268e-002
2.852202e+003, 2.743766e-002
2.854131e+003, 2.768528e-002
2.856059e+003, 2.740645e-002
2.857988e+003, 2.680735e-002
2.859916e+003, 2.689836e-002
2.861844e+003, 2.683578e-002
2.863773e+003, 2.706108e-002
2.865701e+003, 2.701361e-002
2.867630e+003, 2.623766e-002
2.869558e+003, 2.574289e-002
2.871487e+003, 2.554682e-002
2.873415e+003, 2.533670e-002
2.875344e+003, 2.580540e-002
2.877272e+003, 2.704289e-002
2.879201e+003, 2.716104e-002
2.881129e+003, 2.656739e-002
2.883058e+003, 2.642194e-002
2.884986e+003, 2.587661e-002
2.886915e+003, 2.586637e-002
2.888843e+003, 2.650155e-002
2.890771e+003, 2.642631e-002
2.892700e+003, 2.605706e-002
2.894628e+003, 2.603918e-002
2.896557e+003, 2.661702e-002
2.898485e+003, 2.679002e-002
2.900414e+003, 2.635292e-002
2.902342e+003, 2.619899e-002
2.904271e+003, 2.641921e-002
2.906199e+003, 2.691690e-002
2.908128e+003, 2.688269e-002
2.910056e+003, 2.659955e-002
2.911985e+003, 2.676854e-002
2.913913e+003, 2.691191e-002
2.915842e+003, 2.648233e-002
2.917770e+003, 2.637655e-002
2.919698e+003, 2.694320e-002
2.921627e+003, 2.710577e-002
2.923555e+003, 2.726865e-002
2.925484e+003, 2.798048e-002
2.927412e+003, 2.755081e-002
2.929341e+003, 2.671902e-002
2.931269e+003, 2.724385e-002
2.933198e+003, 2.708922e-002
2.935126e+003, 2.798711e-002
2.937055e+003, 2.894739e-002
2.938983e+003, 2.859548e-002
2.940912e+003, 2.824539e-002
2.942840e+003, 2.874350e-002
2.944769e+003, 2.923853e-002
2.946697e+003, 2.866684e-002
2.948625e+003, 2.815527e-002
2.950554e+003, 2.801240e-002
2.952482e+003, 2.809610e-002
2.954411e+003, 2.798249e-002
2.956339e+003, 2.811328e-002
2.958268e+003, 2.855228e-002
2.960196e+003, 2.851714e-002
2.962125e+003, 2.866658e-002
2.964053e+003, 2.864226e-002
2.965982e+003, 2.852173e-002
2.967910e+003, 2.916459e-002
2.969839e+003, 2.931358e-002
2.971767e+003, 2.910258e-002
2.973696e+003, 2.878975e-002
2.975624e+003, 2.916152e-002
2.977552e+003, 3.009630e-002
2.979481e+003, 2.979551e-002
2.981409e+003, 2.954877e-002
2.983338e+003, 2.988395e-002
2.985266e+003, 2.984902e-002
2.987195e+003, 2.931825e-002
2.989123e+003, 2.875500e-002
2.991052e+003, 2.850223e-002
2.992980e+003, 2.898942e-002
2.994909e+003, 2.894672e-002
2.996837e+003, 2.931599e-002
2.998766e+003, 3.031621e-002
3.000694e+003, 2.963950e-002
3.002623e+003, 2.933728e-002
3.004551e+003, 2.973310e-002
3.006479e+003, 2.948754e-002
3.008408e+003, 2.938962e-002
3.010336e+003, 2.896804e-002
3.012265e+003, 2.856502e-002
3.014193e+003, 2.840101e-002
3.016122e+003, 2.819768e-002
3.018050e+003, 2.825495e-002
3.019979e+003, 2.909664e-002
3.021907e+003, 2.944080e-002
3.023836e+003, 2.933879e-002
3.025764e+003, 2.934048e-002
3.027693e+003, 2.845244e-002
3.029621e+003, 2.751272e-002
3.031550e+003, 2.924324e-002
3.033478e+003, 2.954202e-002
3.035406e+003, 2.922193e-002
3.037335e+003, 3.002119e-002
3.039263e+003, 3.030318e-002
3.041192e+003, 2.990036e-002
3.043120e+003, 2.974141e-002
3.045049e+003, 3.015265e-002
3.046977e+003, 2.963610e-002
3.048906e+003, 2.878022e-002
3.050834e+003, 2.909619e-002
3.052763e+003, 3.007154e-002
3.054691e+003, 3.040875e-002
3.056620e+003, 3.014580e-002
3.058548e+003, 3.019239e-002
3.060477e+003, 3.100131e-002
3.062405e+003, 3.142359e-002
3.064333e+003, 3.120096e-002
3.066262e+003, 3.089104e-002
3.068190e+003, 3.114355e-002
3.070119e+003, 3.215899e-002
3.072047e+003, 3.228461e-002
3.073976e+003, 3.142646e-002
3.075904e+003, 3.117949e-002
3.077833e+003, 3.193790e-002
3.079761e+003, 3.299466e-002
3.081690e+003, 3.349914e-002
3.083618e+003, 3.272687e-002
3.085547e+003, 3.277374e-002
3.087475e+003, 3.293313e-002
3.089404e+003, 3.351875e-002
3.091332e+003, 3.452870e-002
3.093260e+003, 3.370026e-002
3.095189e+003, 3.267775e-002
3.097117e+003, 3.263460e-002
3.099046e+003, 3.327883e-002
3.100974e+003, 3.337758e-002
3.102903e+003, 3.373078e-002
3.104831e+003, 3.447640e-002
3.106760e+003, 3.435219e-002
3.108688e+003, 3.401633e-002
3.110617e+003, 3.450269e-002
3.112545e+003, 3.455444e-002
3.114474e+003, 3.452069e-002
3.116402e+003, 3.517270e-002
3.118331e+003, 3.540530e-002
3.120259e+003, 3.505591e-002
3.122188e+003, 3.516760e-002
3.124116e+003, 3.573038e-002
3.126044e+003, 3.595333e-002
3.127973e+003, 3.597710e-002
3.129901e+003, 3.629195e-002
3.131830e+003, 3.616649e-002
3.133758e+003, 3.547313e-002
3.135687e+003, 3.579892e-002
3.137615e+003, 3.607893e-002
3.139544e+003, 3.601576e-002
3.141472e+003, 3.714364e-002
3.143401e+003, 3.850955e-002
3.145329e+003, 3.811270e-002
3.147258e+003, 3.616324e-002
3.149186e+003, 3.541880e-002
3.151115e+003, 3.637793e-002
3.153043e+003, 3.748282e-002
3.154971e+003, 3.732892e-002
3.156900e+003, 3.792080e-002
3.158828e+003, 3.855710e-002
3.160757e+003, 3.739887e-002
3.162685e+003, 3.751259e-002
3.164614e+003, 3.789295e-002
3.166542e+003, 3.780128e-002
3.168471e+003, 3.820377e-002
3.170399e+003, 3.760883e-002
3.172328e+003, 3.724914e-002
3.174256e+003, 3.781997e-002
3.176185e+003, 3.857543e-002
3.178113e+003, 3.883722e-002
3.180042e+003, 3.812609e-002
3.181970e+003, 3.830324e-002
3.183898e+003, 3.874419e-002
3.185827e+003, 3.773673e-002
3.187755e+003, 3.772463e-002
3.189684e+003, 3.776407e-002
3.191612e+003, 3.696080e-002
3.193541e+003, 3.631776e-002
3.195469e+003, 3.804540e-002
3.197398e+003, 3.886030e-002
3.199326e+003, 3.845767e-002
3.201255e+003, 3.822963e-002
3.203183e+003, 3.822854e-002
3.205112e+003, 3.869109e-002
3.207040e+003, 3.868269e-002
3.208969e+003, 3.814503e-002
3.210897e+003, 3.853375e-002
3.212825e+003, 3.853326e-002
3.214754e+003, 3.795098e-002
3.216682e+003, 3.736430e-002
3.218611e+003, 3.866272e-002
3.220539e+003, 3.960769e-002
3.222468e+003, 3.950839e-002
3.224396e+003, 3.962116e-002
3.226325e+003, 3.938777e-002
3.228253e+003, 3.922299e-002
3.230182e+003, 3.849366e-002
3.232110e+003, 3.950819e-002
3.234039e+003, 4.076992e-002
3.235967e+003, 4.051356e-002
3.237896e+003, 3.992445e-002
3.239824e+003, 3.989113e-002
3.241752e+003, 4.087159e-002
3.243681e+003, 4.125874e-002
3.245609e+003, 4.116612e-002
3.247538e+003, 4.078181e-002
3.249466e+003, 4.091298e-002
3.251395e+003, 4.059761e-002
3.253323e+003, 4.056300e-002
3.255252e+003, 4.049226e-002
3.257180e+003, 4.098844e-002
3.259109e+003, 4.052823e-002
3.261037e+003, 4.012175e-002
3.262966e+003, 4.093526e-002
3.264894e+003, 4.137440e-002
3.266823e+003, 4.124216e-002
3.268751e+003, 4.118076e-002
3.270679e+003, 4.020850e-002
3.272608e+003, 3.995984e-002
3.274536e+003, 4.034420e-002
3.276465e+003, 4.024299e-002
3.278393e+003, 4.021271e-002
3.280322e+003, 4.119831e-002
3.282250e+003, 4.158416e-002
3.284179e+003, 4.139551e-002
3.286107e+003, 4.092447e-002
3.288036e+003, 4.099558e-002
3.289964e+003, 4.152241e-002
3.291893e+003, 4.239917e-002
3.293821e+003, 4.256409e-002
3.295750e+003, 4.195578e-002
3.297678e+003, 4.125446e-002
3.299606e+003, 4.149037e-002
3.301535e+003, 4.231694e-002
3.303463e+003, 4.256229e-002
3.305392e+003, 4.207177e-002
3.307320e+003, 4.114095e-002
3.309249e+003, 4.239243e-002
3.311177e+003, 4.225680e-002
3.313106e+003, 4.052975e-002
3.315034e+003, 4.096249e-002
3.316963e+003, 4.191452e-002
3.318891e+003, 4.161649e-002
3.320820e+003, 4.168496e-002
3.322748e+003, 4.134147e-002
3.324677e+003, 4.158087e-002
3.326605e+003, 4.248115e-002
3.328533e+003, 4.252986e-002
3.330462e+003, 4.182031e-002
3.332390e+003, 4.260575e-002
3.334319e+003, 4.364590e-002
3.336247e+003, 4.449073e-002
3.338176e+003, 4.426715e-002
3.340104e+003, 4.317062e-002
3.342033e+003, 4.283749e-002
3.343961e+003, 4.270439e-002
3.345890e+003, 4.252079e-002
3.347818e+003, 4.283338e-002
3.349747e+003, 4.352429e-002
3.351675e+003, 4.359984e-002
3.353604e+003, 4.277225e-002
3.355532e+003, 4.171988e-002
3.357460e+003, 4.165420e-002
3.359389e+003, 4.198169e-002
3.361317e+003, 4.175240e-002
3.363246e+003, 4.216739e-002
3.365174e+003, 4.236535e-002
3.367103e+003, 4.279655e-002
3.369031e+003, 4.257280e-002
3.370960e+003, 4.209516e-002
3.372888e+003, 4.145905e-002
3.374817e+003, 4.172225e-002
3.376745e+003, 4.215069e-002
3.378674e+003, 4.292711e-002
3.380602e+003, 4.423510e-002
3.382531e+003, 4.510581e-002
3.384459e+003, 4.448346e-002
3.386387e+003, 4.330329e-002
3.388316e+003, 4.329036e-002
3.390244e+003, 4.350027e-002
3.392173e+003, 4.283909e-002
3.394101e+003, 4.213858e-002
3.396030e+003, 4.347584e-002
3.397958e+003, 4.386555e-002
3.399887e+003, 4.292430e-002
3.401815e+003, 4.277691e-002
3.403744e+003, 4.343257e-002
3.405672e+003, 4.447308e-002
3.407601e+003, 4.458515e-002
3.409529e+003, 4.405532e-002
3.411458e+003, 4.363309e-002
3.413386e+003, 4.319884e-002
3.415314e+003, 4.287484e-002
3.417243e+003, 4.270313e-002
3.419171e+003, 4.333752e-002
3.421100e+003, 4.341044e-002
3.423028e+003, 4.354201e-002
3.424957e+003, 4.364909e-002
3.426885e+003, 4.241138e-002
3.428814e+003, 4.263894e-002
3.430742e+003, 4.350007e-002
3.432671e+003, 4.265318e-002
3.434599e+003, 4.183657e-002
3.436528e+003, 4.286059e-002
3.438456e+003, 4.363016e-002
3.440385e+003, 4.363201e-002
3.442313e+003, 4.332294e-002
3.444241e+003, 4.308821e-002
3.446170e+003, 4.251983e-002
3.448098e+003, 4.230950e-002
3.450027e+003, 4.331024e-002
3.451955e+003, 4.418992e-002
3.453884e+003, 4.431382e-002
3.455812e+003, 4.313295e-002
3.457741e+003, 4.244038e-002
3.459669e+003, 4.192575e-002
3.461598e+003, 4.169279e-002
3.463526e+003, 4.133767e-002
3.465455e+003, 4.141442e-002
3.467383e+003, 4.155522e-002
3.469312e+003, 4.166414e-002
3.471240e+003, 4.260928e-002
3.473168e+003, 4.324138e-002
3.475097e+003, 4.252603e-002
3.477025e+003, 4.308869e-002
3.478954e+003, 4.475685e-002
3.480882e+003, 4.480598e-002
3.482811e+003, 4.406256e-002
3.484739e+003, 4.421274e-002
3.486668e+003, 4.495312e-002
3.488596e+003, 4.408262e-002
3.490525e+003, 4.342338e-002
3.492453e+003, 4.435796e-002
3.494382e+003, 4.391453e-002
3.496310e+003, 4.144359e-002
3.498239e+003, 4.134415e-002
3.500167e+003, 4.198058e-002
3.502095e+003, 4.158900e-002
3.504024e+003, 4.168232e-002
3.505952e+003, 4.224239e-002
3.507881e+003, 4.165004e-002
3.509809e+003, 4.244649e-002
3.511738e+003, 4.408274e-002
3.513666e+003, 4.316871e-002
3.515595e+003, 4.225996e-002
3.517523e+003, 4.222124e-002
3.519452e+003, 4.263557e-002
3.521380e+003, 4.265156e-002
3.523309e+003, 4.186050e-002
3.525237e+003, 4.195461e-002
3.527166e+003, 4.183593e-002
3.529094e+003, 4.142016e-002
3.531022e+003, 4.212582e-002
3.532951e+003, 4.215905e-002
3.534879e+003, 4.194342e-002
3.536808e+003, 4.324324e-002
3.538736e+003, 4.381107e-002
3.540665e+003, 4.171415e-002
3.542593e+003, 4.032551e-002
3.544522e+003, 4.161569e-002
3.546450e+003, 4.168568e-002
3.548379e+003, 4.081183e-002
3.550307e+003, 4.196519e-002
3.552236e+003, 4.354490e-002
3.554164e+003, 4.327603e-002
3.556093e+003, 4.096691e-002
3.558021e+003, 3.984537e-002
3.559949e+003, 4.158709e-002
3.561878e+003, 4.174283e-002
3.563806e+003, 4.007439e-002
3.565735e+003, 4.018008e-002
3.567663e+003, 4.027585e-002
3.569592e+003, 4.038885e-002
3.571520e+003, 4.013727e-002
3.573449e+003, 3.977853e-002
3.575377e+003, 4.077183e-002
3.577306e+003, 4.126347e-002
3.579234e+003, 4.099841e-002
3.581163e+003, 4.008567e-002
3.583091e+003, 4.120186e-002
3.585020e+003, 4.160121e-002
3.586948e+003, 4.180042e-002
3.588876e+003, 4.165403e-002
3.590805e+003, 3.990015e-002
3.592733e+003, 3.859808e-002
3.594662e+003, 3.865186e-002
3.596590e+003, 3.882030e-002
3.598519e+003, 3.929978e-002
3.600447e+003, 3.896271e-002
3.602376e+003, 3.890954e-002
3.604304e+003, 4.041099e-002
3.606233e+003, 4.138228e-002
3.608161e+003, 3.944885e-002
3.610090e+003, 3.816513e-002
3.612018e+003, 4.042160e-002
3.613947e+003, 4.283991e-002
3.615875e+003, 4.288642e-002
3.617803e+003, 4.116231e-002
3.619732e+003, 3.986391e-002
3.621660e+003, 3.990837e-002
3.623589e+003, 4.022448e-002
3.625517e+003, 3.865611e-002
3.627446e+003, 3.682462e-002
3.629374e+003, 3.660077e-002
3.631303e+003, 3.811681e-002
3.633231e+003, 3.790709e-002
3.635160e+003, 3.744743e-002
3.637088e+003, 3.825197e-002
3.639017e+003, 3.889699e-002
3.640945e+003, 4.046203e-002
3.642874e+003, 4.322209e-002
3.644802e+003, 4.191093e-002
3.646730e+003, 3.865753e-002
3.648659e+003, 3.755081e-002
3.650587e+003, 3.771890e-002
3.652516e+003, 3.775718e-002
3.654444e+003, 3.653055e-002
3.656373e+003, 3.605948e-002
3.658301e+003, 3.686895e-002
3.660230e+003, 3.820569e-002
3.662158e+003, 3.868916e-002
3.664087e+003, 3.870418e-002
3.666015e+003, 3.890532e-002
3.667944e+003, 4.019735e-002
3.669872e+003, 4.040721e-002
3.671801e+003, 3.983761e-002
3.673729e+003, 4.021575e-002
3.675657e+003, 3.914009e-002
3.677586e+003, 3.983537e-002
3.679514e+003, 4.016756e-002
3.681443e+003, 3.932923e-002
3.683371e+003, 3.870664e-002
3.685300e+003, 3.878520e-002
3.687228e+003, 4.138616e-002
3.689157e+003, 4.093827e-002
3.691085e+003, 4.061313e-002
3.693014e+003, 4.105658e-002
3.694942e+003, 3.969177e-002
3.696871e+003, 3.802731e-002
3.698799e+003, 3.802649e-002
3.700728e+003, 3.873221e-002
3.702656e+003, 4.001892e-002
3.704584e+003, 4.051464e-002
3.706513e+003, 4.010968e-002
3.708441e+003, 3.976405e-002
3.710370e+003, 3.909450e-002
3.712298e+003, 3.868907e-002
3.714227e+003, 4.077863e-002
3.716155e+003, 4.103288e-002
3.718084e+003, 3.955502e-002
3.720012e+003, 3.828765e-002
3.721941e+003, 3.814195e-002
3.723869e+003, 4.033859e-002
3.725798e+003, 4.177318e-002
3.727726e+003, 4.066577e-002
3.729655e+003, 4.075142e-002
3.731583e+003, 4.260846e-002
3.733511e+003, 4.199348e-002
3.735440e+003, 4.182908e-002
3.737368e+003, 4.296980e-002
3.739297e+003, 4.094341e-002
3.741225e+003, 4.032931e-002
3.743154e+003, 4.172809e-002
3.745082e+003, 4.100461e-002
3.747011e+003, 4.122850e-002
3.748939e+003, 3.971596e-002
3.750868e+003, 4.022923e-002
3.752796e+003, 4.000446e-002
3.754725e+003, 4.048069e-002
3.756653e+003, 4.129262e-002
3.758582e+003, 4.068740e-002
3.760510e+003, 4.071248e-002
3.762438e+003, 4.216422e-002
3.764367e+003, 4.162327e-002
3.766295e+003, 3.960689e-002
3.768224e+003, 3.978752e-002
3.770152e+003, 4.178545e-002
3.772081e+003, 4.218918e-002
3.774009e+003, 4.154518e-002
3.775938e+003, 4.087235e-002
3.777866e+003, 4.038148e-002
3.779795e+003, 4.188944e-002
3.781723e+003, 4.390802e-002
3.783652e+003, 4.444156e-002
3.785580e+003, 4.464687e-002
3.787509e+003, 4.489114e-002
3.789437e+003, 4.457740e-002
3.791365e+003, 4.431277e-002
3.793294e+003, 4.478322e-002
3.795222e+003, 4.596538e-002
3.797151e+003, 4.514385e-002
3.799079e+003, 4.398178e-002
3.801008e+003, 4.251402e-002
3.802936e+003, 4.225910e-002
3.804865e+003, 4.303196e-002
3.806793e+003, 4.170676e-002
3.808722e+003, 4.078984e-002
3.810650e+003, 4.265776e-002
3.812579e+003, 4.334053e-002
3.814507e+003, 4.079914e-002
3.816436e+003, 4.002983e-002
3.818364e+003, 4.215084e-002
3.820292e+003, 4.300278e-002
3.822221e+003, 4.321349e-002
3.824149e+003, 4.348417e-002
3.826078e+003, 4.332861e-002
3.828006e+003, 4.279270e-002
3.829935e+003, 4.243984e-002
3.831863e+003, 4.243396e-002
3.833792e+003, 4.435644e-002
3.835720e+003, 4.448007e-002
3.837649e+003, 4.195654e-002
3.839577e+003, 4.153721e-002
3.841506e+003, 4.098010e-002
3.843434e+003, 4.064805e-002
3.845363e+003, 4.282017e-002
3.847291e+003, 4.247406e-002
3.849219e+003, 4.211848e-002
3.851148e+003, 4.387103e-002
3.853076e+003, 4.394135e-002
3.855005e+003, 4.386238e-002
3.856933e+003, 4.378869e-002
3.858862e+003, 4.403692e-002
3.860790e+003, 4.327714e-002
3.862719e+003, 4.170116e-002
3.864647e+003, 4.263568e-002
3.866576e+003, 4.523900e-002
3.868504e+003, 4.463318e-002
3.870433e+003, 4.248156e-002
3.872361e+003, 4.226595e-002
3.874290e+003, 4.338887e-002
3.876218e+003, 4.358224e-002
3.878146e+003, 4.299936e-002
3.880075e+003, 4.238858e-002
3.882003e+003, 4.391702e-002
3.883932e+003, 4.488748e-002
3.885860e+003, 4.518573e-002
3.887789e+003, 4.470492e-002
3.889717e+003, 4.394960e-002
3.891646e+003, 4.251691e-002
3.893574e+003, 4.257108e-002
3.895503e+003, 4.454323e-002
3.897431e+003, 4.597634e-002
3.899360e+003, 4.523713e-002
3.901288e+003, 4.329913e-002
3.903217e+003, 4.344786e-002
3.905145e+003, 4.462931e-002
3.907073e+003, 4.531468e-002
3.909002e+003, 4.508362e-002
3.910930e+003, 4.477622e-002
3.912859e+003, 4.332772e-002
3.914787e+003, 4.297224e-002
3.916716e+003, 4.390604e-002
3.918644e+003, 4.387406e-002
3.920573e+003, 4.407659e-002
3.922501e+003, 4.398866e-002
3.924430e+003, 4.267863e-002
3.926358e+003, 4.294807e-002
3.928287e+003, 4.304703e-002
3.930215e+003, 4.237977e-002
3.932144e+003, 4.279676e-002
3.934072e+003, 4.520657e-002
3.936000e+003, 4.586794e-002
3.937929e+003, 4.381419e-002
3.939857e+003, 4.315106e-002
3.941786e+003, 4.493172e-002
3.943714e+003, 4.536509e-002
3.945643e+003, 4.698158e-002
3.947571e+003, 4.820076e-002
3.949500e+003, 4.685080e-002
3.951428e+003, 4.627066e-002
3.953357e+003, 4.623262e-002
3.955285e+003, 4.632609e-002
3.957214e+003, 4.774065e-002
3.959142e+003, 4.772641e-002
3.961071e+003, 4.639433e-002
3.962999e+003, 4.648405e-002
3.964927e+003, 4.754241e-002
3.966856e+003, 4.725797e-002
3.968784e+003, 4.607778e-002
3.970713e+003, 4.747482e-002
3.972641e+003, 4.809042e-002
3.974570e+003, 4.576250e-002
3.976498e+003, 4.646763e-002
3.978427e+003, 4.611349e-002
3.980355e+003, 4.496573e-002
3.982284e+003, 4.529142e-002
3.984212e+003, 4.594828e-002
3.986141e+003, 4.521859e-002
3.988069e+003, 4.397304e-002
3.989998e+003, 4.387970e-002
3.991926e+003, 4.572418e-002
3.993854e+003, 4.643467e-002
3.995783e+003, 4.654494e-002
3.997711e+003, 4.646064e-002
3.999640e+003, 4.648368e-002
##END=



