##NAMES=Spessartine
##RRUFFID=R050063
##IDEAL CHEMISTRY=Mn^2+^_3_Al_2_(SiO_4_)_3_
##LOCALITY=Fujian Province, China
##OWNER=RRUFF
##SOURCE=Rock Currier
##DESCRIPTION=Reddish brown crystals
##STATUS=The identification of this mineral has been confirmed by X-ray diffraction and chemical analysis
##URL=rruff.info/R050063
##MEASURED CHEMISTRY=(Mn_2.72_Fe_0.24_Ca_0.04_)_Σ=3_(Al_1.95_Fe^3+^_0.05_)_Σ=2_(Si_1.00_O_4_)_2.75_(F_0.58_(OH)_0.42_)_Σ=1_; trace amounts of Mg; OH estimated by charge balance
3.991926e+002, 0.000000e+000
4.011211e+002, 2.369100e-001
4.030496e+002, 2.380669e-001
4.049780e+002, 2.408921e-001
4.069065e+002, 2.470598e-001
4.088350e+002, 2.530069e-001
4.107634e+002, 2.566603e-001
4.126919e+002, 2.585694e-001
4.146204e+002, 2.658262e-001
4.165488e+002, 2.740780e-001
4.184773e+002, 2.804993e-001
4.204058e+002, 2.835390e-001
4.223342e+002, 2.890678e-001
4.242627e+002, 2.893985e-001
4.261912e+002, 2.880237e-001
4.281196e+002, 2.908375e-001
4.300481e+002, 2.952504e-001
4.319766e+002, 2.958920e-001
4.339050e+002, 2.930748e-001
4.358335e+002, 2.892298e-001
4.377620e+002, 2.855126e-001
4.396904e+002, 2.830009e-001
4.416189e+002, 2.782867e-001
4.435474e+002, 2.711170e-001
4.454758e+002, 2.640942e-001
4.474043e+002, 2.576708e-001
4.493328e+002, 2.522067e-001
4.512612e+002, 2.486946e-001
4.531897e+002, 2.476570e-001
4.551182e+002, 2.491045e-001
4.570466e+002, 2.502532e-001
4.589751e+002, 2.490597e-001
4.609036e+002, 2.449890e-001
4.628320e+002, 2.400006e-001
4.647605e+002, 2.338667e-001
4.666890e+002, 2.267862e-001
4.686174e+002, 2.212587e-001
4.705459e+002, 2.150338e-001
4.724744e+002, 2.075233e-001
4.744028e+002, 2.004998e-001
4.763313e+002, 1.942013e-001
4.782598e+002, 1.892466e-001
4.801882e+002, 1.844227e-001
4.821167e+002, 1.779270e-001
4.840452e+002, 1.718698e-001
4.859736e+002, 1.673206e-001
4.879021e+002, 1.628350e-001
4.898306e+002, 1.578774e-001
4.917590e+002, 1.523614e-001
4.936875e+002, 1.466003e-001
4.956160e+002, 1.411576e-001
4.975444e+002, 1.358063e-001
4.994729e+002, 1.298629e-001
5.014014e+002, 1.236347e-001
5.033298e+002, 1.180331e-001
5.052583e+002, 1.132718e-001
5.071868e+002, 1.087005e-001
5.091152e+002, 1.052841e-001
5.110437e+002, 1.016231e-001
5.129722e+002, 9.759494e-002
5.149006e+002, 9.429248e-002
5.168291e+002, 9.186976e-002
5.187576e+002, 9.084450e-002
5.206860e+002, 9.114404e-002
5.226145e+002, 9.093460e-002
5.245430e+002, 9.124884e-002
5.264714e+002, 9.182744e-002
5.283999e+002, 9.199341e-002
5.303284e+002, 9.162995e-002
5.322568e+002, 9.164508e-002
5.341853e+002, 9.252709e-002
5.361138e+002, 9.358737e-002
5.380422e+002, 9.540148e-002
5.399707e+002, 9.916199e-002
5.418992e+002, 1.038540e-001
5.438276e+002, 1.097460e-001
5.457561e+002, 1.176077e-001
5.476846e+002, 1.262128e-001
5.496130e+002, 1.347446e-001
5.515415e+002, 1.436083e-001
5.534700e+002, 1.522504e-001
5.553984e+002, 1.603960e-001
5.573269e+002, 1.669923e-001
5.592554e+002, 1.709607e-001
5.611838e+002, 1.714837e-001
5.631123e+002, 1.689816e-001
5.650408e+002, 1.641866e-001
5.669692e+002, 1.571655e-001
5.688977e+002, 1.479864e-001
5.708262e+002, 1.379550e-001
5.727546e+002, 1.277706e-001
5.746831e+002, 1.176539e-001
5.766116e+002, 1.082229e-001
5.785400e+002, 9.936229e-002
5.804685e+002, 9.125019e-002
5.823970e+002, 8.404487e-002
5.843254e+002, 7.672475e-002
5.862539e+002, 6.992435e-002
5.881824e+002, 6.467632e-002
5.901108e+002, 5.983067e-002
5.920393e+002, 5.548927e-002
5.939678e+002, 5.225514e-002
5.958962e+002, 4.948439e-002
5.978247e+002, 4.692918e-002
5.997532e+002, 4.459859e-002
6.016816e+002, 4.271838e-002
6.036101e+002, 4.149836e-002
6.055386e+002, 4.048335e-002
6.074670e+002, 3.981765e-002
6.093955e+002, 3.924662e-002
6.113240e+002, 3.909717e-002
6.132524e+002, 3.938097e-002
6.151809e+002, 4.026633e-002
6.171094e+002, 4.203785e-002
6.190378e+002, 4.484454e-002
6.209663e+002, 4.842728e-002
6.228948e+002, 5.203857e-002
6.248232e+002, 5.510770e-002
6.267517e+002, 5.691154e-002
6.286802e+002, 5.608771e-002
6.306086e+002, 5.252939e-002
6.325371e+002, 4.780932e-002
6.344656e+002, 4.274108e-002
6.363940e+002, 3.824953e-002
6.383225e+002, 3.456985e-002
6.402510e+002, 3.145510e-002
6.421794e+002, 2.933952e-002
6.441079e+002, 2.809319e-002
6.460364e+002, 2.703836e-002
6.479648e+002, 2.648157e-002
6.498933e+002, 2.608931e-002
6.518218e+002, 2.557991e-002
6.537502e+002, 2.529621e-002
6.556787e+002, 2.491323e-002
6.576072e+002, 2.455358e-002
6.595356e+002, 2.482739e-002
6.614641e+002, 2.513597e-002
6.633926e+002, 2.513570e-002
6.653210e+002, 2.504864e-002
6.672495e+002, 2.530380e-002
6.691780e+002, 2.521388e-002
6.711064e+002, 2.479926e-002
6.730349e+002, 2.442368e-002
6.749634e+002, 2.456259e-002
6.768918e+002, 2.514336e-002
6.788203e+002, 2.543230e-002
6.807488e+002, 2.570068e-002
6.826772e+002, 2.586229e-002
6.846057e+002, 2.580971e-002
6.865342e+002, 2.613098e-002
6.884626e+002, 2.663835e-002
6.903911e+002, 2.708839e-002
6.923196e+002, 2.772456e-002
6.942480e+002, 2.850301e-002
6.961765e+002, 2.917314e-002
6.981050e+002, 2.996127e-002
7.000334e+002, 3.064163e-002
7.019619e+002, 3.118296e-002
7.038904e+002, 3.210442e-002
7.058188e+002, 3.340172e-002
7.077473e+002, 3.462449e-002
7.096758e+002, 3.588862e-002
7.116042e+002, 3.708087e-002
7.135327e+002, 3.844279e-002
7.154612e+002, 4.010480e-002
7.173896e+002, 4.158787e-002
7.193181e+002, 4.283230e-002
7.212466e+002, 4.400406e-002
7.231750e+002, 4.492608e-002
7.251035e+002, 4.553447e-002
7.270320e+002, 4.588811e-002
7.289604e+002, 4.637416e-002
7.308889e+002, 4.688594e-002
7.328174e+002, 4.729519e-002
7.347458e+002, 4.741729e-002
7.366743e+002, 4.780657e-002
7.386028e+002, 4.878861e-002
7.405313e+002, 4.959136e-002
7.424597e+002, 5.036824e-002
7.443882e+002, 5.134477e-002
7.463167e+002, 5.215462e-002
7.482451e+002, 5.283399e-002
7.501736e+002, 5.328216e-002
7.521021e+002, 5.423273e-002
7.540305e+002, 5.577339e-002
7.559590e+002, 5.752532e-002
7.578875e+002, 5.926427e-002
7.598159e+002, 6.104431e-002
7.617444e+002, 6.318419e-002
7.636729e+002, 6.567688e-002
7.656013e+002, 6.843250e-002
7.675298e+002, 7.155909e-002
7.694583e+002, 7.474013e-002
7.713867e+002, 7.799070e-002
7.733152e+002, 8.185930e-002
7.752437e+002, 8.594313e-002
7.771721e+002, 8.993589e-002
7.791006e+002, 9.434210e-002
7.810291e+002, 9.894276e-002
7.829575e+002, 1.036235e-001
7.848860e+002, 1.086538e-001
7.868145e+002, 1.137194e-001
7.887429e+002, 1.187754e-001
7.906714e+002, 1.242496e-001
7.925999e+002, 1.297705e-001
7.945283e+002, 1.350792e-001
7.964568e+002, 1.410311e-001
7.983853e+002, 1.473380e-001
8.003137e+002, 1.534483e-001
8.022422e+002, 1.593985e-001
8.041707e+002, 1.657851e-001
8.060991e+002, 1.727286e-001
8.080276e+002, 1.795141e-001
8.099561e+002, 1.865619e-001
8.118845e+002, 1.941378e-001
8.138130e+002, 2.017329e-001
8.157415e+002, 2.094387e-001
8.176699e+002, 2.173439e-001
8.195984e+002, 2.252087e-001
8.215269e+002, 2.333346e-001
8.234553e+002, 2.414108e-001
8.253838e+002, 2.489309e-001
8.273123e+002, 2.560150e-001
8.292407e+002, 2.626883e-001
8.311692e+002, 2.689204e-001
8.330977e+002, 2.745425e-001
8.350261e+002, 2.801687e-001
8.369546e+002, 2.852045e-001
8.388831e+002, 2.891119e-001
8.408115e+002, 2.919537e-001
8.427400e+002, 2.941756e-001
8.446685e+002, 2.959715e-001
8.465969e+002, 2.971329e-001
8.485254e+002, 2.978168e-001
8.504539e+002, 2.983495e-001
8.523823e+002, 2.980696e-001
8.543108e+002, 2.969406e-001
8.562393e+002, 2.950705e-001
8.581677e+002, 2.923569e-001
8.600962e+002, 2.889391e-001
8.620247e+002, 2.846463e-001
8.639531e+002, 2.799448e-001
8.658816e+002, 2.744409e-001
8.678101e+002, 2.685585e-001
8.697385e+002, 2.628708e-001
8.716670e+002, 2.576425e-001
8.735955e+002, 2.535881e-001
8.755239e+002, 2.508848e-001
8.774524e+002, 2.488992e-001
8.793809e+002, 2.471981e-001
8.813093e+002, 2.448565e-001
8.832378e+002, 2.419148e-001
8.851663e+002, 2.380913e-001
8.870947e+002, 2.328677e-001
8.890232e+002, 2.264493e-001
8.909517e+002, 2.193024e-001
8.928801e+002, 2.114112e-001
8.948085e+002, 2.032570e-001
8.967370e+002, 1.953577e-001
8.986655e+002, 1.879786e-001
9.005939e+002, 1.809465e-001
9.025224e+002, 1.738999e-001
9.044509e+002, 1.670830e-001
9.063793e+002, 1.604387e-001
9.083078e+002, 1.541530e-001
9.102363e+002, 1.481689e-001
9.121647e+002, 1.428295e-001
9.140932e+002, 1.387573e-001
9.160217e+002, 1.359900e-001
9.179501e+002, 1.342159e-001
9.198786e+002, 1.335435e-001
9.218071e+002, 1.344953e-001
9.237355e+002, 1.376223e-001
9.256640e+002, 1.428242e-001
9.275925e+002, 1.507124e-001
9.295209e+002, 1.614677e-001
9.314494e+002, 1.739899e-001
9.333779e+002, 1.878445e-001
9.353063e+002, 2.020235e-001
9.372348e+002, 2.148738e-001
9.391633e+002, 2.256250e-001
9.410917e+002, 2.338127e-001
9.430202e+002, 2.389638e-001
9.449487e+002, 2.417274e-001
9.468771e+002, 2.420444e-001
9.488056e+002, 2.399843e-001
9.507341e+002, 2.361685e-001
9.526625e+002, 2.305097e-001
9.545910e+002, 2.233428e-001
9.565195e+002, 2.151080e-001
9.584479e+002, 2.062714e-001
9.603764e+002, 1.971827e-001
9.623049e+002, 1.881084e-001
9.642333e+002, 1.794383e-001
9.661618e+002, 1.710704e-001
9.680903e+002, 1.628929e-001
9.700187e+002, 1.546299e-001
9.719472e+002, 1.464968e-001
9.738757e+002, 1.385028e-001
9.758041e+002, 1.307080e-001
9.777326e+002, 1.234379e-001
9.796611e+002, 1.166250e-001
9.815895e+002, 1.101918e-001
9.835180e+002, 1.044218e-001
9.854465e+002, 9.965543e-002
9.873749e+002, 9.566086e-002
9.893034e+002, 9.183276e-002
9.912319e+002, 8.817457e-002
9.931603e+002, 8.478269e-002
9.950888e+002, 8.136845e-002
9.970173e+002, 7.796886e-002
9.989457e+002, 7.420235e-002
1.000874e+003, 7.008649e-002
1.002803e+003, 6.603923e-002
1.004731e+003, 6.184631e-002
1.006660e+003, 5.750989e-002
1.008588e+003, 5.345141e-002
1.010517e+003, 4.946482e-002
1.012445e+003, 4.564962e-002
1.014373e+003, 4.216865e-002
1.016302e+003, 3.908208e-002
1.018230e+003, 3.620626e-002
1.020159e+003, 3.366387e-002
1.022087e+003, 3.141173e-002
1.024016e+003, 2.953626e-002
1.025944e+003, 2.793228e-002
1.027873e+003, 2.643407e-002
1.029801e+003, 2.480085e-002
1.031730e+003, 2.345879e-002
1.033658e+003, 2.243106e-002
1.035587e+003, 2.122928e-002
1.037515e+003, 2.015206e-002
1.039444e+003, 1.958680e-002
1.041372e+003, 1.914424e-002
1.043301e+003, 1.850855e-002
1.045229e+003, 1.791115e-002
1.047157e+003, 1.733178e-002
1.049086e+003, 1.682019e-002
1.051014e+003, 1.627165e-002
1.052943e+003, 1.603824e-002
1.054871e+003, 1.581486e-002
1.056800e+003, 1.520113e-002
1.058728e+003, 1.464203e-002
1.060657e+003, 1.426098e-002
1.062585e+003, 1.409723e-002
1.064514e+003, 1.403807e-002
1.066442e+003, 1.374379e-002
1.068371e+003, 1.346377e-002
1.070299e+003, 1.324114e-002
1.072228e+003, 1.291850e-002
1.074156e+003, 1.273627e-002
1.076084e+003, 1.252641e-002
1.078013e+003, 1.232739e-002
1.079941e+003, 1.190749e-002
1.081870e+003, 1.143621e-002
1.083798e+003, 1.120394e-002
1.085727e+003, 1.115611e-002
1.087655e+003, 1.089207e-002
1.089584e+003, 1.049105e-002
1.091512e+003, 1.018739e-002
1.093441e+003, 9.953063e-003
1.095369e+003, 9.861211e-003
1.097298e+003, 9.628838e-003
1.099226e+003, 9.277890e-003
1.101155e+003, 9.179697e-003
1.103083e+003, 9.446071e-003
1.105011e+003, 9.342936e-003
1.106940e+003, 9.103497e-003
1.108868e+003, 9.100514e-003
1.110797e+003, 8.903493e-003
1.112725e+003, 8.530739e-003
1.114654e+003, 8.339129e-003
1.116582e+003, 8.211477e-003
1.118511e+003, 8.282888e-003
1.120439e+003, 8.182043e-003
1.122368e+003, 7.898150e-003
1.124296e+003, 7.862282e-003
1.126225e+003, 7.600422e-003
1.128153e+003, 7.348282e-003
1.130082e+003, 7.192077e-003
1.132010e+003, 7.027663e-003
1.133938e+003, 6.827772e-003
1.135867e+003, 6.700424e-003
1.137795e+003, 6.680504e-003
1.139724e+003, 6.581817e-003
1.141652e+003, 6.553628e-003
1.143581e+003, 6.454842e-003
1.145509e+003, 6.264713e-003
1.147438e+003, 5.863907e-003
1.149366e+003, 5.733792e-003
1.151295e+003, 5.632701e-003
1.153223e+003, 5.639800e-003
1.155152e+003, 5.547220e-003
1.157080e+003, 5.293112e-003
1.159009e+003, 5.089324e-003
1.160937e+003, 5.038017e-003
1.162865e+003, 5.082914e-003
1.164794e+003, 4.991249e-003
1.166722e+003, 4.917804e-003
1.168651e+003, 4.687845e-003
1.170579e+003, 4.287161e-003
1.172508e+003, 4.322646e-003
1.174436e+003, 4.348128e-003
1.176365e+003, 4.187526e-003
1.178293e+003, 4.147050e-003
1.180222e+003, 4.061322e-003
1.182150e+003, 3.910077e-003
1.184079e+003, 3.641704e-003
1.186007e+003, 3.408655e-003
1.187936e+003, 3.494307e-003
1.189864e+003, 3.689762e-003
1.191792e+003, 3.746285e-003
1.193721e+003, 3.672080e-003
1.195649e+003, 3.558880e-003
1.197578e+003, 3.493867e-003
1.199506e+003, 3.390485e-003
1.201435e+003, 3.424142e-003
1.203363e+003, 3.474572e-003
1.205292e+003, 3.355765e-003
1.207220e+003, 3.363730e-003
1.209149e+003, 3.259971e-003
1.211077e+003, 3.073864e-003
1.213006e+003, 3.107736e-003
1.214934e+003, 3.241081e-003
1.216863e+003, 3.325253e-003
1.218791e+003, 3.339252e-003
1.220719e+003, 3.290481e-003
1.222648e+003, 3.133792e-003
1.224576e+003, 3.101495e-003
1.226505e+003, 3.172385e-003
1.228433e+003, 3.261350e-003
1.230362e+003, 3.332843e-003
1.232290e+003, 3.303663e-003
1.234219e+003, 3.400323e-003
1.236147e+003, 3.501463e-003
1.238076e+003, 3.394550e-003
1.240004e+003, 3.252638e-003
1.241933e+003, 3.337072e-003
1.243861e+003, 3.295954e-003
1.245790e+003, 3.340897e-003
1.247718e+003, 3.600919e-003
1.249646e+003, 3.763264e-003
1.251575e+003, 3.724915e-003
1.253503e+003, 3.651569e-003
1.255432e+003, 3.766657e-003
1.257360e+003, 3.764489e-003
1.259289e+003, 3.491815e-003
1.261217e+003, 3.571769e-003
1.263146e+003, 3.772929e-003
1.265074e+003, 3.668711e-003
1.267003e+003, 3.528023e-003
1.268931e+003, 3.620935e-003
1.270860e+003, 3.754609e-003
1.272788e+003, 3.783406e-003
1.274717e+003, 3.865329e-003
1.276645e+003, 4.031103e-003
1.278573e+003, 4.092592e-003
1.280502e+003, 4.102087e-003
1.282430e+003, 4.123543e-003
1.284359e+003, 4.061554e-003
1.286287e+003, 4.052335e-003
1.288216e+003, 3.986142e-003
1.290144e+003, 3.877007e-003
1.292073e+003, 4.036161e-003
1.294001e+003, 4.094430e-003
1.295930e+003, 4.047464e-003
1.297858e+003, 4.022068e-003
1.299787e+003, 4.151739e-003
1.301715e+003, 4.232026e-003
1.303644e+003, 4.258484e-003
1.305572e+003, 4.493944e-003
1.307500e+003, 4.674140e-003
1.309429e+003, 4.499343e-003
1.311357e+003, 4.249259e-003
1.313286e+003, 4.477289e-003
1.315214e+003, 4.860335e-003
1.317143e+003, 4.786474e-003
1.319071e+003, 4.542108e-003
1.321000e+003, 4.518293e-003
1.322928e+003, 4.589836e-003
1.324857e+003, 4.717793e-003
1.326785e+003, 4.786806e-003
1.328714e+003, 4.598542e-003
1.330642e+003, 4.606552e-003
1.332571e+003, 4.783527e-003
1.334499e+003, 4.969686e-003
1.336427e+003, 5.165442e-003
1.338356e+003, 5.054731e-003
1.340284e+003, 4.731014e-003
1.342213e+003, 4.698556e-003
1.344141e+003, 4.791501e-003
1.346070e+003, 4.917036e-003
1.347998e+003, 5.164881e-003
1.349927e+003, 5.204934e-003
1.351855e+003, 5.032726e-003
1.353784e+003, 5.281562e-003
1.355712e+003, 5.499817e-003
1.357641e+003, 5.541598e-003
1.359569e+003, 5.553395e-003
1.361498e+003, 5.482460e-003
1.363426e+003, 5.699557e-003
1.365354e+003, 5.673741e-003
1.367283e+003, 5.435705e-003
1.369211e+003, 5.680078e-003
1.371140e+003, 5.906404e-003
1.373068e+003, 5.722941e-003
1.374997e+003, 5.636102e-003
1.376925e+003, 5.748795e-003
1.378854e+003, 5.608887e-003
1.380782e+003, 5.448534e-003
1.382711e+003, 5.489320e-003
1.384639e+003, 5.509523e-003
1.386568e+003, 5.427026e-003
1.388496e+003, 5.550706e-003
1.390424e+003, 5.617740e-003
1.392353e+003, 5.789091e-003
1.394281e+003, 5.772408e-003
1.396210e+003, 5.798144e-003
1.398138e+003, 5.853415e-003
1.400067e+003, 5.834990e-003
1.401995e+003, 5.773821e-003
1.403924e+003, 5.724736e-003
1.405852e+003, 5.897291e-003
1.407781e+003, 6.077893e-003
1.409709e+003, 5.893818e-003
1.411638e+003, 5.796136e-003
1.413566e+003, 5.870087e-003
1.415495e+003, 5.939443e-003
1.417423e+003, 6.072404e-003
1.419351e+003, 6.077030e-003
1.421280e+003, 5.893994e-003
1.423208e+003, 6.141239e-003
1.425137e+003, 6.283453e-003
1.427065e+003, 6.063625e-003
1.428994e+003, 6.056337e-003
1.430922e+003, 6.203740e-003
1.432851e+003, 6.167070e-003
1.434779e+003, 6.145646e-003
1.436708e+003, 6.225253e-003
1.438636e+003, 6.360112e-003
1.440565e+003, 6.537753e-003
1.442493e+003, 6.368088e-003
1.444422e+003, 6.153494e-003
1.446350e+003, 6.300068e-003
1.448278e+003, 6.536413e-003
1.450207e+003, 6.596393e-003
1.452135e+003, 6.750848e-003
1.454064e+003, 6.690267e-003
1.455992e+003, 6.500185e-003
1.457921e+003, 6.686097e-003
1.459849e+003, 6.806666e-003
1.461778e+003, 6.717988e-003
1.463706e+003, 6.794816e-003
1.465635e+003, 6.770850e-003
1.467563e+003, 6.674171e-003
1.469492e+003, 6.529817e-003
1.471420e+003, 6.293955e-003
1.473349e+003, 6.171586e-003
1.475277e+003, 6.256565e-003
1.477205e+003, 6.183341e-003
1.479134e+003, 6.193441e-003
1.481062e+003, 6.303857e-003
1.482991e+003, 6.193721e-003
1.484919e+003, 6.128264e-003
1.486848e+003, 5.950443e-003
1.488776e+003, 5.796709e-003
1.490705e+003, 5.996681e-003
1.492633e+003, 6.095922e-003
1.494562e+003, 5.901201e-003
1.496490e+003, 5.765344e-003
1.498419e+003, 5.674030e-003
1.500347e+003, 5.694188e-003
1.502276e+003, 5.712444e-003
1.504204e+003, 5.598183e-003
1.506132e+003, 5.543242e-003
1.508061e+003, 5.630221e-003
1.509989e+003, 5.580864e-003
1.511918e+003, 5.542898e-003
1.513846e+003, 5.662869e-003
1.515775e+003, 5.663129e-003
1.517703e+003, 5.429045e-003
1.519632e+003, 5.556383e-003
1.521560e+003, 5.743383e-003
1.523489e+003, 5.876835e-003
1.525417e+003, 5.849774e-003
1.527346e+003, 5.849648e-003
1.529274e+003, 5.916915e-003
1.531203e+003, 5.835199e-003
1.533131e+003, 5.803045e-003
1.535059e+003, 5.982005e-003
1.536988e+003, 6.071880e-003
1.538916e+003, 5.953453e-003
1.540845e+003, 5.773763e-003
1.542773e+003, 5.898419e-003
1.544702e+003, 6.128818e-003
1.546630e+003, 6.427788e-003
1.548559e+003, 6.558594e-003
1.550487e+003, 6.320668e-003
1.552416e+003, 6.332181e-003
1.554344e+003, 6.693843e-003
1.556273e+003, 7.112136e-003
1.558201e+003, 7.276043e-003
1.560130e+003, 7.494766e-003
1.562058e+003, 7.673972e-003
1.563986e+003, 7.795147e-003
1.565915e+003, 8.024884e-003
1.567843e+003, 8.073407e-003
1.569772e+003, 7.926182e-003
1.571700e+003, 7.968968e-003
1.573629e+003, 7.851694e-003
1.575557e+003, 7.972556e-003
1.577486e+003, 8.172401e-003
1.579414e+003, 8.242074e-003
1.581343e+003, 8.343153e-003
1.583271e+003, 8.674726e-003
1.585200e+003, 9.053654e-003
1.587128e+003, 9.145992e-003
1.589057e+003, 9.081756e-003
1.590985e+003, 9.113176e-003
1.592913e+003, 9.153453e-003
1.594842e+003, 8.944007e-003
1.596770e+003, 8.719174e-003
1.598699e+003, 8.719608e-003
1.600627e+003, 8.682119e-003
1.602556e+003, 8.549620e-003
1.604484e+003, 8.615275e-003
1.606413e+003, 8.703646e-003
1.608341e+003, 8.774064e-003
1.610270e+003, 8.977472e-003
1.612198e+003, 9.057645e-003
1.614127e+003, 8.874553e-003
1.616055e+003, 8.925844e-003
1.617984e+003, 8.926550e-003
1.619912e+003, 8.701428e-003
1.621840e+003, 8.573405e-003
1.623769e+003, 8.630771e-003
1.625697e+003, 8.688264e-003
1.627626e+003, 8.815447e-003
1.629554e+003, 8.630781e-003
1.631483e+003, 8.595699e-003
1.633411e+003, 8.408461e-003
1.635340e+003, 8.103932e-003
1.637268e+003, 8.055778e-003
1.639197e+003, 8.146145e-003
1.641125e+003, 8.036295e-003
1.643054e+003, 8.016780e-003
1.644982e+003, 8.112252e-003
1.646911e+003, 7.979761e-003
1.648839e+003, 7.980905e-003
1.650767e+003, 7.967357e-003
1.652696e+003, 7.780063e-003
1.654624e+003, 7.992412e-003
1.656553e+003, 8.354913e-003
1.658481e+003, 8.378113e-003
1.660410e+003, 8.239523e-003
1.662338e+003, 8.313079e-003
1.664267e+003, 8.648223e-003
1.666195e+003, 8.763198e-003
1.668124e+003, 8.824139e-003
1.670052e+003, 8.805353e-003
1.671981e+003, 8.681359e-003
1.673909e+003, 8.416898e-003
1.675838e+003, 8.301917e-003
1.677766e+003, 8.367452e-003
1.679694e+003, 8.312018e-003
1.681623e+003, 8.331513e-003
1.683551e+003, 8.401255e-003
1.685480e+003, 8.568709e-003
1.687408e+003, 8.612996e-003
1.689337e+003, 8.784473e-003
1.691265e+003, 9.048656e-003
1.693194e+003, 9.043162e-003
1.695122e+003, 8.914732e-003
1.697051e+003, 8.973950e-003
1.698979e+003, 9.024598e-003
1.700908e+003, 9.001082e-003
1.702836e+003, 9.188491e-003
1.704765e+003, 9.326725e-003
1.706693e+003, 9.692227e-003
1.708621e+003, 9.954154e-003
1.710550e+003, 9.971876e-003
1.712478e+003, 9.666664e-003
1.714407e+003, 9.514580e-003
1.716335e+003, 9.309536e-003
1.718264e+003, 9.320403e-003
1.720192e+003, 9.453123e-003
1.722121e+003, 9.690811e-003
1.724049e+003, 9.962488e-003
1.725978e+003, 9.903501e-003
1.727906e+003, 9.695107e-003
1.729835e+003, 9.376400e-003
1.731763e+003, 8.950300e-003
1.733692e+003, 8.866913e-003
1.735620e+003, 8.953844e-003
1.737548e+003, 8.872654e-003
1.739477e+003, 8.640951e-003
1.741405e+003, 8.435732e-003
1.743334e+003, 8.593796e-003
1.745262e+003, 8.860779e-003
1.747191e+003, 8.775115e-003
1.749119e+003, 8.570439e-003
1.751048e+003, 8.713221e-003
1.752976e+003, 8.681973e-003
1.754905e+003, 8.696449e-003
1.756833e+003, 8.944771e-003
1.758762e+003, 8.959681e-003
1.760690e+003, 8.673526e-003
1.762619e+003, 8.476962e-003
1.764547e+003, 8.609581e-003
1.766475e+003, 8.802873e-003
1.768404e+003, 8.619875e-003
1.770332e+003, 8.378599e-003
1.772261e+003, 8.321256e-003
1.774189e+003, 8.607595e-003
1.776118e+003, 8.808591e-003
1.778046e+003, 9.158556e-003
1.779975e+003, 9.137955e-003
1.781903e+003, 8.998943e-003
1.783832e+003, 9.199762e-003
1.785760e+003, 9.012543e-003
1.787689e+003, 8.983785e-003
1.789617e+003, 9.095309e-003
1.791546e+003, 8.862627e-003
1.793474e+003, 8.307274e-003
1.795402e+003, 8.190549e-003
1.797331e+003, 8.600676e-003
1.799259e+003, 8.858620e-003
1.801188e+003, 8.835357e-003
1.803116e+003, 8.861639e-003
1.805045e+003, 8.990970e-003
1.806973e+003, 8.951673e-003
1.808902e+003, 8.287438e-003
1.810830e+003, 7.925811e-003
1.812759e+003, 8.328571e-003
1.814687e+003, 8.193308e-003
1.816616e+003, 8.545035e-003
1.818544e+003, 9.372513e-003
1.820473e+003, 9.134393e-003
1.822401e+003, 8.653694e-003
1.824329e+003, 8.679544e-003
1.826258e+003, 8.616941e-003
1.828186e+003, 8.880222e-003
1.830115e+003, 9.077763e-003
1.832043e+003, 8.927423e-003
1.833972e+003, 8.760913e-003
1.835900e+003, 9.077665e-003
1.837829e+003, 8.885545e-003
1.839757e+003, 8.770945e-003
1.841686e+003, 9.157450e-003
1.843614e+003, 8.978159e-003
1.845543e+003, 8.938774e-003
1.847471e+003, 8.886984e-003
1.849400e+003, 8.490467e-003
1.851328e+003, 8.609937e-003
1.853256e+003, 8.974703e-003
1.855185e+003, 9.257480e-003
1.857113e+003, 8.957895e-003
1.859042e+003, 8.266241e-003
1.860970e+003, 8.146821e-003
1.862899e+003, 8.508455e-003
1.864827e+003, 8.472078e-003
1.866756e+003, 8.658377e-003
1.868684e+003, 8.556148e-003
1.870613e+003, 8.583554e-003
1.872541e+003, 8.448357e-003
1.874470e+003, 8.169977e-003
1.876398e+003, 7.751954e-003
1.878327e+003, 7.798926e-003
1.880255e+003, 7.958369e-003
1.882183e+003, 7.557970e-003
1.884112e+003, 7.212212e-003
1.886040e+003, 7.417481e-003
1.887969e+003, 7.692651e-003
1.889897e+003, 7.701868e-003
1.891826e+003, 6.966267e-003
1.893754e+003, 7.144068e-003
1.895683e+003, 7.145674e-003
1.897611e+003, 6.880399e-003
1.899540e+003, 6.718384e-003
1.901468e+003, 7.173536e-003
1.903397e+003, 7.705348e-003
1.905325e+003, 7.093875e-003
1.907254e+003, 6.991145e-003
1.909182e+003, 7.688081e-003
1.911110e+003, 7.491553e-003
1.913039e+003, 7.657172e-003
1.914967e+003, 7.451689e-003
1.916896e+003, 7.394695e-003
1.918824e+003, 7.323943e-003
1.920753e+003, 6.712109e-003
1.922681e+003, 6.394887e-003
1.924610e+003, 6.322412e-003
1.926538e+003, 6.218174e-003
1.928467e+003, 5.979339e-003
1.930395e+003, 5.943688e-003
1.932324e+003, 5.584058e-003
1.934252e+003, 5.464261e-003
1.936181e+003, 6.255897e-003
1.938109e+003, 6.507665e-003
1.940037e+003, 6.437670e-003
1.941966e+003, 5.730535e-003
1.943894e+003, 6.056273e-003
1.945823e+003, 6.266468e-003
1.947751e+003, 5.763909e-003
1.949680e+003, 5.479321e-003
1.951608e+003, 6.086052e-003
1.953537e+003, 6.267922e-003
1.955465e+003, 5.881582e-003
1.957394e+003, 5.058203e-003
1.959322e+003, 4.231170e-003
1.961251e+003, 4.757927e-003
1.963179e+003, 5.349603e-003
1.965108e+003, 6.285403e-003
1.967036e+003, 6.764598e-003
1.968964e+003, 6.223565e-003
1.970893e+003, 6.479173e-003
1.972821e+003, 6.202998e-003
1.974750e+003, 5.662460e-003
1.976678e+003, 6.153233e-003
1.978607e+003, 9.874897e-003
1.980535e+003, 1.149279e-002
1.982464e+003, 1.053208e-002
1.984392e+003, 8.957734e-003
1.986321e+003, 8.564553e-003
1.988249e+003, 8.737629e-003
1.990178e+003, 8.427046e-003
1.992106e+003, 8.146578e-003
1.994035e+003, 8.018443e-003
1.995963e+003, 8.440902e-003
1.997891e+003, 8.649326e-003
1.999820e+003, 9.120219e-003
2.001748e+003, 9.435634e-003
2.003677e+003, 9.674099e-003
2.005605e+003, 9.465073e-003
2.007534e+003, 9.519505e-003
2.009462e+003, 9.060699e-003
2.011391e+003, 8.677075e-003
2.013319e+003, 9.928079e-003
2.015248e+003, 9.645575e-003
2.017176e+003, 8.846869e-003
2.019105e+003, 9.689894e-003
2.021033e+003, 8.882249e-003
2.022962e+003, 9.084448e-003
2.024890e+003, 1.102805e-002
2.026818e+003, 1.088986e-002
2.028747e+003, 9.457525e-003
2.030675e+003, 8.841117e-003
2.032604e+003, 1.008505e-002
2.034532e+003, 1.233659e-002
2.036461e+003, 1.284639e-002
2.038389e+003, 1.169154e-002
2.040318e+003, 1.127031e-002
2.042246e+003, 1.412646e-002
2.044175e+003, 1.542347e-002
2.046103e+003, 1.445353e-002
2.048032e+003, 1.432205e-002
2.049960e+003, 1.417858e-002
2.051889e+003, 1.335788e-002
2.053817e+003, 1.266021e-002
2.055746e+003, 1.185809e-002
2.057674e+003, 1.127025e-002
2.059603e+003, 1.262316e-002
2.061531e+003, 1.226143e-002
2.063459e+003, 1.165202e-002
2.065388e+003, 1.223964e-002
2.067316e+003, 1.258961e-002
2.069245e+003, 1.246776e-002
2.071173e+003, 1.254228e-002
2.073102e+003, 1.386120e-002
2.075030e+003, 1.509963e-002
2.076959e+003, 1.438848e-002
2.078887e+003, 1.438345e-002
2.080816e+003, 1.472454e-002
2.082744e+003, 1.394610e-002
2.084673e+003, 1.337725e-002
2.086601e+003, 1.381772e-002
2.088530e+003, 1.330895e-002
2.090458e+003, 1.274142e-002
2.092386e+003, 1.154465e-002
2.094315e+003, 1.120843e-002
2.096243e+003, 1.251822e-002
2.098172e+003, 1.282355e-002
2.100100e+003, 1.228174e-002
2.102029e+003, 1.214864e-002
2.103957e+003, 1.328008e-002
2.105886e+003, 1.358971e-002
2.107814e+003, 1.190133e-002
2.109743e+003, 1.157845e-002
2.111671e+003, 1.159715e-002
2.113600e+003, 1.268562e-002
2.115528e+003, 1.389478e-002
2.117457e+003, 1.260960e-002
2.119385e+003, 1.184070e-002
2.121313e+003, 1.202636e-002
2.123242e+003, 1.126673e-002
2.125170e+003, 1.111719e-002
2.127099e+003, 1.110991e-002
2.129027e+003, 1.076223e-002
2.130956e+003, 9.604799e-003
2.132884e+003, 9.957673e-003
2.134813e+003, 1.063791e-002
2.136741e+003, 9.936359e-003
2.138670e+003, 1.054379e-002
2.140598e+003, 1.169228e-002
2.142527e+003, 1.224139e-002
2.144455e+003, 1.142732e-002
2.146384e+003, 1.053567e-002
2.148312e+003, 1.167342e-002
2.150240e+003, 1.092624e-002
2.152169e+003, 9.070778e-003
2.154097e+003, 8.668532e-003
2.156026e+003, 8.700686e-003
2.157954e+003, 1.039851e-002
2.159883e+003, 1.541412e-002
2.161811e+003, 1.500137e-002
2.163740e+003, 1.628868e-002
2.165668e+003, 1.791614e-002
2.167597e+003, 1.562919e-002
2.169525e+003, 1.321665e-002
2.171454e+003, 1.314593e-002
2.173382e+003, 1.304398e-002
2.175311e+003, 1.239293e-002
2.177239e+003, 1.231194e-002
2.179167e+003, 1.325104e-002
2.181096e+003, 1.193822e-002
2.183024e+003, 1.109421e-002
2.184953e+003, 1.225939e-002
2.186881e+003, 1.458962e-002
2.188810e+003, 1.493497e-002
2.190738e+003, 1.465835e-002
2.192667e+003, 1.539994e-002
2.194595e+003, 1.323294e-002
2.196524e+003, 1.196320e-002
2.198452e+003, 1.381403e-002
2.200381e+003, 1.523628e-002
2.202309e+003, 1.551636e-002
2.204238e+003, 1.475092e-002
2.206166e+003, 1.438749e-002
2.208094e+003, 1.403723e-002
2.210023e+003, 1.343626e-002
2.211951e+003, 1.258564e-002
2.213880e+003, 1.254538e-002
2.215808e+003, 1.371983e-002
2.217737e+003, 1.331690e-002
2.219665e+003, 1.413243e-002
2.221594e+003, 1.459260e-002
2.223522e+003, 1.437205e-002
2.225451e+003, 1.562565e-002
2.227379e+003, 1.632879e-002
2.229308e+003, 1.435316e-002
2.231236e+003, 1.423720e-002
2.233165e+003, 1.738516e-002
2.235093e+003, 1.730245e-002
2.237021e+003, 1.413625e-002
2.238950e+003, 1.422319e-002
2.240878e+003, 1.562690e-002
2.242807e+003, 1.526590e-002
2.244735e+003, 1.665493e-002
2.246664e+003, 1.743865e-002
2.248592e+003, 1.624396e-002
2.250521e+003, 1.501951e-002
2.252449e+003, 1.433633e-002
2.254378e+003, 1.507848e-002
2.256306e+003, 1.673023e-002
2.258235e+003, 1.607942e-002
2.260163e+003, 1.459691e-002
2.262092e+003, 1.499356e-002
2.264020e+003, 1.596151e-002
2.265948e+003, 1.572402e-002
2.267877e+003, 1.606901e-002
2.269805e+003, 1.609717e-002
2.271734e+003, 1.614469e-002
2.273662e+003, 1.637684e-002
2.275591e+003, 1.659855e-002
2.277519e+003, 1.658555e-002
2.279448e+003, 1.631782e-002
2.281376e+003, 1.660104e-002
2.283305e+003, 1.697477e-002
2.285233e+003, 1.708859e-002
2.287162e+003, 1.711436e-002
2.289090e+003, 1.678958e-002
2.291019e+003, 1.653660e-002
2.292947e+003, 1.673167e-002
2.294875e+003, 1.649765e-002
2.296804e+003, 1.642870e-002
2.298732e+003, 1.709503e-002
2.300661e+003, 1.672369e-002
2.302589e+003, 1.637437e-002
2.304518e+003, 1.681784e-002
2.306446e+003, 1.742167e-002
2.308375e+003, 1.737125e-002
2.310303e+003, 1.689664e-002
2.312232e+003, 1.709567e-002
2.314160e+003, 1.770266e-002
2.316089e+003, 1.745211e-002
2.318017e+003, 1.693056e-002
2.319946e+003, 1.710176e-002
2.321874e+003, 1.762021e-002
2.323802e+003, 1.781655e-002
2.325731e+003, 1.703930e-002
2.327659e+003, 1.642773e-002
2.329588e+003, 1.633894e-002
2.331516e+003, 1.617430e-002
2.333445e+003, 1.617024e-002
2.335373e+003, 1.652380e-002
2.337302e+003, 1.682129e-002
2.339230e+003, 1.673150e-002
2.341159e+003, 1.665692e-002
2.343087e+003, 1.662371e-002
2.345016e+003, 1.618137e-002
2.346944e+003, 1.571875e-002
2.348873e+003, 1.550992e-002
2.350801e+003, 1.561490e-002
2.352729e+003, 1.571167e-002
2.354658e+003, 1.565388e-002
2.356586e+003, 1.632825e-002
2.358515e+003, 1.692617e-002
2.360443e+003, 1.688865e-002
2.362372e+003, 1.631729e-002
2.364300e+003, 1.565936e-002
2.366229e+003, 1.537569e-002
2.368157e+003, 1.517963e-002
2.370086e+003, 1.489805e-002
2.372014e+003, 1.513912e-002
2.373942e+003, 1.558703e-002
2.375871e+003, 1.587490e-002
2.377799e+003, 1.580802e-002
2.379728e+003, 1.550861e-002
2.381656e+003, 1.587465e-002
2.383585e+003, 1.625981e-002
2.385513e+003, 1.589912e-002
2.387442e+003, 1.558760e-002
2.389370e+003, 1.540042e-002
2.391299e+003, 1.590257e-002
2.393227e+003, 1.589591e-002
2.395156e+003, 1.628286e-002
2.397084e+003, 1.658835e-002
2.399012e+003, 1.664782e-002
2.400941e+003, 1.664560e-002
2.402869e+003, 1.588968e-002
2.404798e+003, 1.596533e-002
2.406726e+003, 1.654070e-002
2.408655e+003, 1.633197e-002
2.410583e+003, 1.593184e-002
2.412512e+003, 1.640108e-002
2.414440e+003, 1.684360e-002
2.416369e+003, 1.651789e-002
2.418297e+003, 1.603678e-002
2.420226e+003, 1.601592e-002
2.422154e+003, 1.626028e-002
2.424083e+003, 1.625445e-002
2.426011e+003, 1.630787e-002
2.427939e+003, 1.670768e-002
2.429868e+003, 1.682629e-002
2.431796e+003, 1.607289e-002
2.433725e+003, 1.593641e-002
2.435653e+003, 1.694684e-002
2.437582e+003, 1.797120e-002
2.439510e+003, 1.770662e-002
2.441439e+003, 1.742575e-002
2.443367e+003, 1.699462e-002
2.445296e+003, 1.664476e-002
2.447224e+003, 1.643003e-002
2.449153e+003, 1.636192e-002
2.451081e+003, 1.631791e-002
2.453010e+003, 1.679588e-002
2.454938e+003, 1.718100e-002
2.456866e+003, 1.708139e-002
2.458795e+003, 1.635822e-002
2.460723e+003, 1.699050e-002
2.462652e+003, 1.759230e-002
2.464580e+003, 1.718645e-002
2.466509e+003, 1.673375e-002
2.468437e+003, 1.687591e-002
2.470366e+003, 1.669135e-002
2.472294e+003, 1.625898e-002
2.474223e+003, 1.581327e-002
2.476151e+003, 1.609445e-002
2.478080e+003, 1.621002e-002
2.480008e+003, 1.688038e-002
2.481937e+003, 1.726729e-002
2.483865e+003, 1.732879e-002
2.485793e+003, 1.782881e-002
2.487722e+003, 1.806745e-002
2.489650e+003, 1.739930e-002
2.491579e+003, 1.687160e-002
2.493507e+003, 1.635062e-002
2.495436e+003, 1.568239e-002
2.497364e+003, 1.635207e-002
2.499293e+003, 1.755870e-002
2.501221e+003, 1.757978e-002
2.503150e+003, 1.697106e-002
2.505078e+003, 1.671498e-002
2.507007e+003, 1.717187e-002
2.508935e+003, 1.753675e-002
2.510864e+003, 1.737060e-002
2.512792e+003, 1.684094e-002
2.514720e+003, 1.716837e-002
2.516649e+003, 1.739568e-002
2.518577e+003, 1.784204e-002
2.520506e+003, 1.827439e-002
2.522434e+003, 1.771002e-002
2.524363e+003, 1.759157e-002
2.526291e+003, 1.760890e-002
2.528220e+003, 1.695173e-002
2.530148e+003, 1.691432e-002
2.532077e+003, 1.730458e-002
2.534005e+003, 1.754574e-002
2.535934e+003, 1.742991e-002
2.537862e+003, 1.687719e-002
2.539791e+003, 1.690566e-002
2.541719e+003, 1.791850e-002
2.543647e+003, 1.843487e-002
2.545576e+003, 1.859852e-002
2.547504e+003, 1.837993e-002
2.549433e+003, 1.829122e-002
2.551361e+003, 1.865197e-002
2.553290e+003, 1.732660e-002
2.555218e+003, 1.661720e-002
2.557147e+003, 1.802237e-002
2.559075e+003, 1.833026e-002
2.561004e+003, 1.833440e-002
2.562932e+003, 1.832750e-002
2.564861e+003, 1.743646e-002
2.566789e+003, 1.848925e-002
2.568718e+003, 1.939594e-002
2.570646e+003, 1.884842e-002
2.572574e+003, 1.824960e-002
2.574503e+003, 1.800345e-002
2.576431e+003, 1.781617e-002
2.578360e+003, 1.840717e-002
2.580288e+003, 1.880619e-002
2.582217e+003, 1.819490e-002
2.584145e+003, 1.788826e-002
2.586074e+003, 1.868641e-002
2.588002e+003, 1.863552e-002
2.589931e+003, 1.811589e-002
2.591859e+003, 1.792890e-002
2.593788e+003, 1.843718e-002
2.595716e+003, 1.867392e-002
2.597645e+003, 1.914934e-002
2.599573e+003, 1.881716e-002
2.601501e+003, 1.860055e-002
2.603430e+003, 1.916766e-002
2.605358e+003, 1.883987e-002
2.607287e+003, 1.898532e-002
2.609215e+003, 1.963416e-002
2.611144e+003, 1.935284e-002
2.613072e+003, 1.924496e-002
2.615001e+003, 2.002683e-002
2.616929e+003, 1.989318e-002
2.618858e+003, 1.955113e-002
2.620786e+003, 1.992058e-002
2.622715e+003, 1.921574e-002
2.624643e+003, 1.890384e-002
2.626572e+003, 1.894439e-002
2.628500e+003, 1.877573e-002
2.630428e+003, 1.851675e-002
2.632357e+003, 1.876437e-002
2.634285e+003, 1.972434e-002
2.636214e+003, 1.968806e-002
2.638142e+003, 1.923146e-002
2.640071e+003, 1.992962e-002
2.641999e+003, 2.001967e-002
2.643928e+003, 1.964958e-002
2.645856e+003, 1.931444e-002
2.647785e+003, 1.936521e-002
2.649713e+003, 1.962465e-002
2.651642e+003, 1.984319e-002
2.653570e+003, 1.989229e-002
2.655499e+003, 1.930668e-002
2.657427e+003, 1.852382e-002
2.659355e+003, 1.844762e-002
2.661284e+003, 1.854188e-002
2.663212e+003, 1.853602e-002
2.665141e+003, 1.836782e-002
2.667069e+003, 1.847587e-002
2.668998e+003, 1.857810e-002
2.670926e+003, 1.821737e-002
2.672855e+003, 1.806141e-002
2.674783e+003, 1.838793e-002
2.676712e+003, 1.868295e-002
2.678640e+003, 1.875730e-002
2.680569e+003, 1.850564e-002
2.682497e+003, 1.824979e-002
2.684426e+003, 1.811076e-002
2.686354e+003, 1.809733e-002
2.688282e+003, 1.874781e-002
2.690211e+003, 1.920828e-002
2.692139e+003, 1.888850e-002
2.694068e+003, 1.825187e-002
2.695996e+003, 1.833718e-002
2.697925e+003, 1.846145e-002
2.699853e+003, 1.865194e-002
2.701782e+003, 1.895453e-002
2.703710e+003, 1.877533e-002
2.705639e+003, 1.872922e-002
2.707567e+003, 1.901506e-002
2.709496e+003, 1.931894e-002
2.711424e+003, 1.899830e-002
2.713353e+003, 1.816266e-002
2.715281e+003, 1.862705e-002
2.717209e+003, 1.932199e-002
2.719138e+003, 1.886441e-002
2.721066e+003, 1.866264e-002
2.722995e+003, 1.895036e-002
2.724923e+003, 1.935898e-002
2.726852e+003, 1.954835e-002
2.728780e+003, 1.877568e-002
2.730709e+003, 1.851437e-002
2.732637e+003, 1.844864e-002
2.734566e+003, 1.875835e-002
2.736494e+003, 1.888865e-002
2.738423e+003, 1.881735e-002
2.740351e+003, 1.873199e-002
2.742280e+003, 1.837661e-002
2.744208e+003, 1.857757e-002
2.746136e+003, 1.920685e-002
2.748065e+003, 1.936615e-002
2.749993e+003, 1.901888e-002
2.751922e+003, 1.851487e-002
2.753850e+003, 1.861539e-002
2.755779e+003, 1.895964e-002
2.757707e+003, 1.938483e-002
2.759636e+003, 1.973086e-002
2.761564e+003, 1.991131e-002
2.763493e+003, 1.992530e-002
2.765421e+003, 1.946669e-002
2.767350e+003, 1.936832e-002
2.769278e+003, 1.951303e-002
2.771207e+003, 1.966454e-002
2.773135e+003, 1.927700e-002
2.775063e+003, 1.854775e-002
2.776992e+003, 1.870144e-002
2.778920e+003, 1.902431e-002
2.780849e+003, 1.903455e-002
2.782777e+003, 1.881822e-002
2.784706e+003, 1.919328e-002
2.786634e+003, 1.931640e-002
2.788563e+003, 1.920485e-002
2.790491e+003, 1.920774e-002
2.792420e+003, 1.928766e-002
2.794348e+003, 1.922974e-002
2.796277e+003, 1.975582e-002
2.798205e+003, 2.004961e-002
2.800134e+003, 1.985876e-002
2.802062e+003, 1.922582e-002
2.803990e+003, 1.881411e-002
2.805919e+003, 1.931213e-002
2.807847e+003, 1.898018e-002
2.809776e+003, 1.897277e-002
2.811704e+003, 1.931622e-002
2.813633e+003, 1.912980e-002
2.815561e+003, 1.957176e-002
2.817490e+003, 1.994678e-002
2.819418e+003, 1.947546e-002
2.821347e+003, 1.950696e-002
2.823275e+003, 2.045557e-002
2.825204e+003, 2.014664e-002
2.827132e+003, 1.949649e-002
2.829061e+003, 1.995366e-002
2.830989e+003, 2.077015e-002
2.832917e+003, 2.087977e-002
2.834846e+003, 2.000124e-002
2.836774e+003, 1.926834e-002
2.838703e+003, 1.996443e-002
2.840631e+003, 2.124773e-002
2.842560e+003, 2.163837e-002
2.844488e+003, 2.115599e-002
2.846417e+003, 2.042331e-002
2.848345e+003, 2.040942e-002
2.850274e+003, 2.078878e-002
2.852202e+003, 2.007413e-002
2.854131e+003, 1.975930e-002
2.856059e+003, 2.028993e-002
2.857988e+003, 2.046476e-002
2.859916e+003, 2.025053e-002
2.861844e+003, 2.026397e-002
2.863773e+003, 2.017330e-002
2.865701e+003, 2.056684e-002
2.867630e+003, 2.072409e-002
2.869558e+003, 2.094833e-002
2.871487e+003, 2.049077e-002
2.873415e+003, 1.990264e-002
2.875344e+003, 2.044613e-002
2.877272e+003, 2.122451e-002
2.879201e+003, 2.171286e-002
2.881129e+003, 2.128168e-002
2.883058e+003, 2.143796e-002
2.884986e+003, 2.215132e-002
2.886915e+003, 2.172561e-002
2.888843e+003, 2.120063e-002
2.890771e+003, 2.205204e-002
2.892700e+003, 2.214588e-002
2.894628e+003, 2.201800e-002
2.896557e+003, 2.193224e-002
2.898485e+003, 2.129043e-002
2.900414e+003, 2.032708e-002
2.902342e+003, 2.089976e-002
2.904271e+003, 2.181170e-002
2.906199e+003, 2.226231e-002
2.908128e+003, 2.214966e-002
2.910056e+003, 2.183910e-002
2.911985e+003, 2.212063e-002
2.913913e+003, 2.219769e-002
2.915842e+003, 2.190840e-002
2.917770e+003, 2.188761e-002
2.919698e+003, 2.271552e-002
2.921627e+003, 2.245013e-002
2.923555e+003, 2.263609e-002
2.925484e+003, 2.378072e-002
2.927412e+003, 2.358088e-002
2.929341e+003, 2.250841e-002
2.931269e+003, 2.252530e-002
2.933198e+003, 2.225153e-002
2.935126e+003, 2.185085e-002
2.937055e+003, 2.204941e-002
2.938983e+003, 2.215543e-002
2.940912e+003, 2.289213e-002
2.942840e+003, 2.274755e-002
2.944769e+003, 2.231134e-002
2.946697e+003, 2.246627e-002
2.948625e+003, 2.180154e-002
2.950554e+003, 2.093949e-002
2.952482e+003, 2.043002e-002
2.954411e+003, 2.034630e-002
2.956339e+003, 2.098427e-002
2.958268e+003, 2.111607e-002
2.960196e+003, 2.094275e-002
2.962125e+003, 2.124703e-002
2.964053e+003, 2.136477e-002
2.965982e+003, 2.137961e-002
2.967910e+003, 2.179238e-002
2.969839e+003, 2.183863e-002
2.971767e+003, 2.195413e-002
2.973696e+003, 2.155014e-002
2.975624e+003, 2.056943e-002
2.977552e+003, 2.040315e-002
2.979481e+003, 2.096314e-002
2.981409e+003, 2.152407e-002
2.983338e+003, 2.180639e-002
2.985266e+003, 2.195737e-002
2.987195e+003, 2.190069e-002
2.989123e+003, 2.204265e-002
2.991052e+003, 2.176872e-002
2.992980e+003, 2.176725e-002
2.994909e+003, 2.186968e-002
2.996837e+003, 2.143399e-002
2.998766e+003, 2.113464e-002
3.000694e+003, 2.177717e-002
3.002623e+003, 2.176280e-002
3.004551e+003, 2.091564e-002
3.006479e+003, 2.077739e-002
3.008408e+003, 2.140853e-002
3.010336e+003, 2.194615e-002
3.012265e+003, 2.151623e-002
3.014193e+003, 2.096674e-002
3.016122e+003, 2.044531e-002
3.018050e+003, 2.071299e-002
3.019979e+003, 2.186619e-002
3.021907e+003, 2.150383e-002
3.023836e+003, 2.090511e-002
3.025764e+003, 2.068131e-002
3.027693e+003, 2.077099e-002
3.029621e+003, 2.101124e-002
3.031550e+003, 2.153121e-002
3.033478e+003, 2.155856e-002
3.035406e+003, 2.094476e-002
3.037335e+003, 2.078261e-002
3.039263e+003, 2.120909e-002
3.041192e+003, 2.154558e-002
3.043120e+003, 2.180136e-002
3.045049e+003, 2.164046e-002
3.046977e+003, 2.154691e-002
3.048906e+003, 2.159304e-002
3.050834e+003, 2.068907e-002
3.052763e+003, 2.074777e-002
3.054691e+003, 2.182777e-002
3.056620e+003, 2.235329e-002
3.058548e+003, 2.239178e-002
3.060477e+003, 2.231934e-002
3.062405e+003, 2.191258e-002
3.064333e+003, 2.191600e-002
3.066262e+003, 2.202110e-002
3.068190e+003, 2.249522e-002
3.070119e+003, 2.260530e-002
3.072047e+003, 2.101242e-002
3.073976e+003, 2.099091e-002
3.075904e+003, 2.155649e-002
3.077833e+003, 2.172947e-002
3.079761e+003, 2.185122e-002
3.081690e+003, 2.125384e-002
3.083618e+003, 2.160270e-002
3.085547e+003, 2.288299e-002
3.087475e+003, 2.314934e-002
3.089404e+003, 2.296840e-002
3.091332e+003, 2.266521e-002
3.093260e+003, 2.307144e-002
3.095189e+003, 2.263568e-002
3.097117e+003, 2.180794e-002
3.099046e+003, 2.258872e-002
3.100974e+003, 2.381363e-002
3.102903e+003, 2.312523e-002
3.104831e+003, 2.146694e-002
3.106760e+003, 2.092467e-002
3.108688e+003, 2.135261e-002
3.110617e+003, 2.199660e-002
3.112545e+003, 2.191145e-002
3.114474e+003, 2.253953e-002
3.116402e+003, 2.271643e-002
3.118331e+003, 2.197406e-002
3.120259e+003, 2.204050e-002
3.122188e+003, 2.206890e-002
3.124116e+003, 2.191496e-002
3.126044e+003, 2.159152e-002
3.127973e+003, 2.210658e-002
3.129901e+003, 2.240883e-002
3.131830e+003, 2.237463e-002
3.133758e+003, 2.264918e-002
3.135687e+003, 2.278344e-002
3.137615e+003, 2.369802e-002
3.139544e+003, 2.416803e-002
3.141472e+003, 2.410073e-002
3.143401e+003, 2.440738e-002
3.145329e+003, 2.409585e-002
3.147258e+003, 2.405703e-002
3.149186e+003, 2.311075e-002
3.151115e+003, 2.225690e-002
3.153043e+003, 2.282652e-002
3.154971e+003, 2.295680e-002
3.156900e+003, 2.278516e-002
3.158828e+003, 2.261191e-002
3.160757e+003, 2.223938e-002
3.162685e+003, 2.281577e-002
3.164614e+003, 2.366739e-002
3.166542e+003, 2.276538e-002
3.168471e+003, 2.203837e-002
3.170399e+003, 2.274394e-002
3.172328e+003, 2.325750e-002
3.174256e+003, 2.344498e-002
3.176185e+003, 2.322682e-002
3.178113e+003, 2.296153e-002
3.180042e+003, 2.370190e-002
3.181970e+003, 2.429534e-002
3.183898e+003, 2.371813e-002
3.185827e+003, 2.302860e-002
3.187755e+003, 2.294319e-002
3.189684e+003, 2.421825e-002
3.191612e+003, 2.464406e-002
3.193541e+003, 2.435999e-002
3.195469e+003, 2.401570e-002
3.197398e+003, 2.390669e-002
3.199326e+003, 2.344073e-002
3.201255e+003, 2.344470e-002
3.203183e+003, 2.317632e-002
3.205112e+003, 2.356271e-002
3.207040e+003, 2.423521e-002
3.208969e+003, 2.375778e-002
3.210897e+003, 2.326226e-002
3.212825e+003, 2.408029e-002
3.214754e+003, 2.415746e-002
3.216682e+003, 2.351178e-002
3.218611e+003, 2.406040e-002
3.220539e+003, 2.507582e-002
3.222468e+003, 2.532538e-002
3.224396e+003, 2.381301e-002
3.226325e+003, 2.331362e-002
3.228253e+003, 2.467965e-002
3.230182e+003, 2.589666e-002
3.232110e+003, 2.564479e-002
3.234039e+003, 2.520870e-002
3.235967e+003, 2.544894e-002
3.237896e+003, 2.601535e-002
3.239824e+003, 2.638378e-002
3.241752e+003, 2.580987e-002
3.243681e+003, 2.473512e-002
3.245609e+003, 2.393570e-002
3.247538e+003, 2.403089e-002
3.249466e+003, 2.506435e-002
3.251395e+003, 2.567376e-002
3.253323e+003, 2.497687e-002
3.255252e+003, 2.495827e-002
3.257180e+003, 2.547521e-002
3.259109e+003, 2.432751e-002
3.261037e+003, 2.341815e-002
3.262966e+003, 2.489928e-002
3.264894e+003, 2.499215e-002
3.266823e+003, 2.395627e-002
3.268751e+003, 2.482554e-002
3.270679e+003, 2.531802e-002
3.272608e+003, 2.455660e-002
3.274536e+003, 2.521175e-002
3.276465e+003, 2.555582e-002
3.278393e+003, 2.509518e-002
3.280322e+003, 2.478439e-002
3.282250e+003, 2.476076e-002
3.284179e+003, 2.469801e-002
3.286107e+003, 2.557330e-002
3.288036e+003, 2.599038e-002
3.289964e+003, 2.585182e-002
3.291893e+003, 2.544061e-002
3.293821e+003, 2.491483e-002
3.295750e+003, 2.563281e-002
3.297678e+003, 2.546998e-002
3.299606e+003, 2.578740e-002
3.301535e+003, 2.570404e-002
3.303463e+003, 2.536880e-002
3.305392e+003, 2.507360e-002
3.307320e+003, 2.585495e-002
3.309249e+003, 2.609777e-002
3.311177e+003, 2.524447e-002
3.313106e+003, 2.578389e-002
3.315034e+003, 2.580009e-002
3.316963e+003, 2.499461e-002
3.318891e+003, 2.495723e-002
3.320820e+003, 2.592082e-002
3.322748e+003, 2.705286e-002
3.324677e+003, 2.676521e-002
3.326605e+003, 2.567393e-002
3.328533e+003, 2.542796e-002
3.330462e+003, 2.479250e-002
3.332390e+003, 2.454763e-002
3.334319e+003, 2.510160e-002
3.336247e+003, 2.491838e-002
3.338176e+003, 2.541340e-002
3.340104e+003, 2.553591e-002
3.342033e+003, 2.548274e-002
3.343961e+003, 2.714342e-002
3.345890e+003, 2.763113e-002
3.347818e+003, 2.654648e-002
3.349747e+003, 2.642748e-002
3.351675e+003, 2.742404e-002
3.353604e+003, 2.678373e-002
3.355532e+003, 2.535391e-002
3.357460e+003, 2.574153e-002
3.359389e+003, 2.623905e-002
3.361317e+003, 2.643009e-002
3.363246e+003, 2.731306e-002
3.365174e+003, 2.784377e-002
3.367103e+003, 2.757167e-002
3.369031e+003, 2.708084e-002
3.370960e+003, 2.631103e-002
3.372888e+003, 2.559090e-002
3.374817e+003, 2.698076e-002
3.376745e+003, 2.767613e-002
3.378674e+003, 2.659498e-002
3.380602e+003, 2.586732e-002
3.382531e+003, 2.638119e-002
3.384459e+003, 2.748013e-002
3.386387e+003, 2.793661e-002
3.388316e+003, 2.795550e-002
3.390244e+003, 2.765101e-002
3.392173e+003, 2.851229e-002
3.394101e+003, 2.887234e-002
3.396030e+003, 2.830792e-002
3.397958e+003, 2.746840e-002
3.399887e+003, 2.736434e-002
3.401815e+003, 2.597642e-002
3.403744e+003, 2.678716e-002
3.405672e+003, 2.800432e-002
3.407601e+003, 2.699807e-002
3.409529e+003, 2.641144e-002
3.411458e+003, 2.615289e-002
3.413386e+003, 2.623517e-002
3.415314e+003, 2.719350e-002
3.417243e+003, 2.597980e-002
3.419171e+003, 2.488181e-002
3.421100e+003, 2.536562e-002
3.423028e+003, 2.619544e-002
3.424957e+003, 2.707924e-002
3.426885e+003, 2.637492e-002
3.428814e+003, 2.584439e-002
3.430742e+003, 2.557712e-002
3.432671e+003, 2.623187e-002
3.434599e+003, 2.692007e-002
3.436528e+003, 2.749097e-002
3.438456e+003, 2.851708e-002
3.440385e+003, 2.750304e-002
3.442313e+003, 2.637221e-002
3.444241e+003, 2.621039e-002
3.446170e+003, 2.592529e-002
3.448098e+003, 2.577099e-002
3.450027e+003, 2.571949e-002
3.451955e+003, 2.652453e-002
3.453884e+003, 2.696557e-002
3.455812e+003, 2.582926e-002
3.457741e+003, 2.456565e-002
3.459669e+003, 2.461356e-002
3.461598e+003, 2.637720e-002
3.463526e+003, 2.830615e-002
3.465455e+003, 2.823143e-002
3.467383e+003, 2.771541e-002
3.469312e+003, 2.710932e-002
3.471240e+003, 2.664720e-002
3.473168e+003, 2.633100e-002
3.475097e+003, 2.708045e-002
3.477025e+003, 2.746551e-002
3.478954e+003, 2.578025e-002
3.480882e+003, 2.496711e-002
3.482811e+003, 2.604073e-002
3.484739e+003, 2.663022e-002
3.486668e+003, 2.615678e-002
3.488596e+003, 2.620121e-002
3.490525e+003, 2.585308e-002
3.492453e+003, 2.498471e-002
3.494382e+003, 2.570435e-002
3.496310e+003, 2.605907e-002
3.498239e+003, 2.681672e-002
3.500167e+003, 2.747059e-002
3.502095e+003, 2.663419e-002
3.504024e+003, 2.607105e-002
3.505952e+003, 2.645553e-002
3.507881e+003, 2.759130e-002
3.509809e+003, 2.867483e-002
3.511738e+003, 2.720302e-002
3.513666e+003, 2.522002e-002
3.515595e+003, 2.555724e-002
3.517523e+003, 2.666712e-002
3.519452e+003, 2.675274e-002
3.521380e+003, 2.511330e-002
3.523309e+003, 2.483279e-002
3.525237e+003, 2.701348e-002
3.527166e+003, 2.680480e-002
3.529094e+003, 2.601615e-002
3.531022e+003, 2.581484e-002
3.532951e+003, 2.492757e-002
3.534879e+003, 2.460568e-002
3.536808e+003, 2.607977e-002
3.538736e+003, 2.693448e-002
3.540665e+003, 2.727538e-002
3.542593e+003, 2.657389e-002
3.544522e+003, 2.595827e-002
3.546450e+003, 2.744071e-002
3.548379e+003, 2.912612e-002
3.550307e+003, 2.852164e-002
3.552236e+003, 2.633924e-002
3.554164e+003, 2.518528e-002
3.556093e+003, 2.588584e-002
3.558021e+003, 2.755514e-002
3.559949e+003, 2.841970e-002
3.561878e+003, 2.869078e-002
3.563806e+003, 2.957973e-002
3.565735e+003, 3.001830e-002
3.567663e+003, 3.090414e-002
3.569592e+003, 3.254905e-002
3.571520e+003, 3.353836e-002
3.573449e+003, 3.531387e-002
3.575377e+003, 3.745253e-002
3.577306e+003, 3.883683e-002
3.579234e+003, 3.770572e-002
3.581163e+003, 3.391154e-002
3.583091e+003, 3.125506e-002
3.585020e+003, 3.026375e-002
3.586948e+003, 2.938695e-002
3.588876e+003, 2.720656e-002
3.590805e+003, 2.673987e-002
3.592733e+003, 2.808000e-002
3.594662e+003, 2.714175e-002
3.596590e+003, 2.521689e-002
3.598519e+003, 2.547688e-002
3.600447e+003, 2.644040e-002
3.602376e+003, 2.750261e-002
3.604304e+003, 2.695045e-002
3.606233e+003, 2.605964e-002
3.608161e+003, 2.675228e-002
3.610090e+003, 2.630073e-002
3.612018e+003, 2.461389e-002
3.613947e+003, 2.365348e-002
3.615875e+003, 2.426535e-002
3.617803e+003, 2.443431e-002
3.619732e+003, 2.550935e-002
3.621660e+003, 2.701958e-002
3.623589e+003, 2.688806e-002
3.625517e+003, 2.552668e-002
3.627446e+003, 2.391694e-002
3.629374e+003, 2.489648e-002
3.631303e+003, 2.842605e-002
3.633231e+003, 2.776162e-002
3.635160e+003, 2.668284e-002
3.637088e+003, 2.549932e-002
3.639017e+003, 2.326493e-002
3.640945e+003, 2.230117e-002
3.642874e+003, 2.313372e-002
3.644802e+003, 2.297519e-002
3.646730e+003, 2.121332e-002
3.648659e+003, 2.116763e-002
3.650587e+003, 1.990708e-002
3.652516e+003, 1.847783e-002
3.654444e+003, 1.969370e-002
3.656373e+003, 2.100207e-002
3.658301e+003, 2.119092e-002
3.660230e+003, 2.132742e-002
3.662158e+003, 2.095179e-002
3.664087e+003, 2.031452e-002
3.666015e+003, 2.034102e-002
3.667944e+003, 2.067263e-002
3.669872e+003, 2.147511e-002
3.671801e+003, 2.063180e-002
3.673729e+003, 2.078116e-002
3.675657e+003, 2.170564e-002
3.677586e+003, 2.325801e-002
3.679514e+003, 2.180068e-002
3.681443e+003, 2.113734e-002
3.683371e+003, 2.231574e-002
3.685300e+003, 2.340242e-002
3.687228e+003, 2.174874e-002
3.689157e+003, 1.975523e-002
3.691085e+003, 2.024288e-002
3.693014e+003, 2.150047e-002
3.694942e+003, 2.147786e-002
3.696871e+003, 2.039640e-002
3.698799e+003, 2.023842e-002
3.700728e+003, 2.069145e-002
3.702656e+003, 1.990211e-002
3.704584e+003, 2.111051e-002
3.706513e+003, 2.145531e-002
3.708441e+003, 2.249126e-002
3.710370e+003, 2.410270e-002
3.712298e+003, 2.388775e-002
3.714227e+003, 2.300045e-002
3.716155e+003, 2.288378e-002
3.718084e+003, 2.322937e-002
3.720012e+003, 2.236304e-002
3.721941e+003, 2.167376e-002
3.723869e+003, 2.253395e-002
3.725798e+003, 2.259609e-002
3.727726e+003, 2.190103e-002
3.729655e+003, 2.151103e-002
3.731583e+003, 2.182657e-002
3.733511e+003, 2.216631e-002
3.735440e+003, 2.159468e-002
3.737368e+003, 2.154737e-002
3.739297e+003, 2.142684e-002
3.741225e+003, 2.078773e-002
3.743154e+003, 2.069979e-002
3.745082e+003, 2.076632e-002
3.747011e+003, 2.299472e-002
3.748939e+003, 2.239085e-002
3.750868e+003, 2.194225e-002
3.752796e+003, 2.245162e-002
3.754725e+003, 2.406412e-002
3.756653e+003, 2.437316e-002
3.758582e+003, 2.330258e-002
3.760510e+003, 2.221399e-002
3.762438e+003, 2.300332e-002
3.764367e+003, 2.339605e-002
3.766295e+003, 2.312597e-002
3.768224e+003, 2.161105e-002
3.770152e+003, 2.137530e-002
3.772081e+003, 2.231904e-002
3.774009e+003, 2.377882e-002
3.775938e+003, 2.410831e-002
3.777866e+003, 2.392874e-002
3.779795e+003, 2.495935e-002
3.781723e+003, 2.551512e-002
3.783652e+003, 2.378310e-002
3.785580e+003, 2.357279e-002
3.787509e+003, 2.179879e-002
3.789437e+003, 2.053561e-002
3.791365e+003, 2.330757e-002
3.793294e+003, 2.394931e-002
3.795222e+003, 2.344941e-002
3.797151e+003, 2.341975e-002
3.799079e+003, 2.474690e-002
3.801008e+003, 2.495763e-002
3.802936e+003, 2.424644e-002
3.804865e+003, 2.398136e-002
3.806793e+003, 2.239995e-002
3.808722e+003, 2.168757e-002
3.810650e+003, 2.349551e-002
3.812579e+003, 2.473749e-002
3.814507e+003, 2.395836e-002
3.816436e+003, 2.442545e-002
3.818364e+003, 2.650034e-002
3.820292e+003, 2.449650e-002
3.822221e+003, 2.274916e-002
3.824149e+003, 2.570708e-002
3.826078e+003, 2.397961e-002
3.828006e+003, 2.198640e-002
3.829935e+003, 2.215762e-002
3.831863e+003, 2.196628e-002
3.833792e+003, 2.423215e-002
3.835720e+003, 2.491732e-002
3.837649e+003, 2.378373e-002
3.839577e+003, 2.152148e-002
3.841506e+003, 2.136488e-002
3.843434e+003, 2.292407e-002
3.845363e+003, 2.359468e-002
3.847291e+003, 2.290367e-002
3.849219e+003, 2.317585e-002
3.851148e+003, 2.314457e-002
3.853076e+003, 2.092178e-002
3.855005e+003, 2.077488e-002
3.856933e+003, 2.231501e-002
3.858862e+003, 2.179664e-002
3.860790e+003, 2.129488e-002
3.862719e+003, 2.202474e-002
3.864647e+003, 2.258804e-002
3.866576e+003, 2.165060e-002
3.868504e+003, 2.119864e-002
3.870433e+003, 2.152257e-002
3.872361e+003, 2.244246e-002
3.874290e+003, 2.205988e-002
3.876218e+003, 2.224812e-002
3.878146e+003, 2.407805e-002
3.880075e+003, 2.339210e-002
3.882003e+003, 2.341902e-002
3.883932e+003, 2.391013e-002
3.885860e+003, 2.378436e-002
3.887789e+003, 2.468633e-002
3.889717e+003, 2.545607e-002
3.891646e+003, 2.392427e-002
3.893574e+003, 2.307945e-002
3.895503e+003, 2.399669e-002
3.897431e+003, 2.418126e-002
3.899360e+003, 2.178164e-002
3.901288e+003, 2.126810e-002
3.903217e+003, 2.277894e-002
3.905145e+003, 2.358392e-002
3.907073e+003, 2.347744e-002
3.909002e+003, 2.248911e-002
3.910930e+003, 2.214942e-002
3.912859e+003, 2.187460e-002
3.914787e+003, 2.341153e-002
3.916716e+003, 2.566510e-002
3.918644e+003, 2.465245e-002
3.920573e+003, 2.368944e-002
3.922501e+003, 2.444049e-002
3.924430e+003, 2.408119e-002
3.926358e+003, 2.217085e-002
3.928287e+003, 2.205054e-002
3.930215e+003, 2.322027e-002
3.932144e+003, 2.260526e-002
3.934072e+003, 2.176784e-002
3.936000e+003, 2.106336e-002
3.937929e+003, 2.029228e-002
3.939857e+003, 2.079830e-002
3.941786e+003, 2.289358e-002
3.943714e+003, 2.427187e-002
3.945643e+003, 2.474199e-002
3.947571e+003, 2.391727e-002
3.949500e+003, 2.246005e-002
3.951428e+003, 2.223569e-002
3.953357e+003, 2.199946e-002
3.955285e+003, 2.271039e-002
3.957214e+003, 2.455068e-002
3.959142e+003, 2.644963e-002
3.961071e+003, 2.515065e-002
3.962999e+003, 2.244053e-002
3.964927e+003, 2.252294e-002
3.966856e+003, 2.395885e-002
3.968784e+003, 2.513230e-002
3.970713e+003, 2.534967e-002
3.972641e+003, 2.443665e-002
3.974570e+003, 2.273972e-002
3.976498e+003, 2.153877e-002
3.978427e+003, 2.120302e-002
3.980355e+003, 2.368932e-002
3.982284e+003, 2.386207e-002
3.984212e+003, 2.304099e-002
3.986141e+003, 2.461869e-002
3.988069e+003, 2.540492e-002
3.989998e+003, 2.348759e-002
3.991926e+003, 2.313586e-002
3.993854e+003, 2.450743e-002
3.995783e+003, 2.439211e-002
3.997711e+003, 2.474834e-002
3.999640e+003, 2.476183e-002
##END=



