##NAMES=Spinel
##RRUFFID=R050259
##IDEAL CHEMISTRY=MgAl_2_O_4_
##LOCALITY=Mogok, Burma
##OWNER=RRUFF
##SOURCE=Marcus Origlieri
##DESCRIPTION=Purple cut gemstone
##STATUS=The identification of this mineral has been confirmed by X-ray diffraction and chemical analysis
##URL=rruff.info/R050259
##MEASURED CHEMISTRY=(Mg_0.99_Zn_0.01_)_Σ=1_(Al_1.98_Fe^3+^_0.02_)_Σ=2_O_4_; trace amounts of Cr
5.014013e+001, 1.544973e-002
5.206860e+001, 6.711865e-003
5.399707e+001, 5.628236e-003
5.592553e+001, 6.915987e-003
5.785400e+001, 1.162892e-002
5.978246e+001, 1.113634e-002
6.171093e+001, 8.911205e-003
6.363940e+001, 9.480161e-003
6.556786e+001, 1.100807e-002
6.749633e+001, 1.207220e-002
6.942480e+001, 1.096804e-002
7.135326e+001, 1.023496e-002
7.328172e+001, 1.120911e-002
7.521019e+001, 1.264524e-002
7.713866e+001, 1.357340e-002
7.906712e+001, 1.478878e-002
8.099559e+001, 1.527294e-002
8.292406e+001, 1.560059e-002
8.485252e+001, 1.573307e-002
8.678099e+001, 1.558378e-002
8.870946e+001, 1.628132e-002
9.063792e+001, 1.739799e-002
9.256638e+001, 1.804830e-002
9.449485e+001, 1.804178e-002
9.642332e+001, 1.893848e-002
9.835178e+001, 1.904855e-002
1.002803e+002, 1.887577e-002
1.022087e+002, 1.931228e-002
1.041372e+002, 1.993207e-002
1.060657e+002, 2.034783e-002
1.079941e+002, 2.146164e-002
1.099226e+002, 2.172231e-002
1.118510e+002, 2.145349e-002
1.137795e+002, 2.144480e-002
1.157080e+002, 2.206130e-002
1.176364e+002, 2.269014e-002
1.195649e+002, 2.348809e-002
1.214934e+002, 2.370987e-002
1.234218e+002, 2.350057e-002
1.253503e+002, 2.392625e-002
1.272788e+002, 2.520861e-002
1.292072e+002, 2.672613e-002
1.311357e+002, 2.717637e-002
1.330642e+002, 2.763280e-002
1.349926e+002, 2.787547e-002
1.369211e+002, 2.767004e-002
1.388496e+002, 2.820415e-002
1.407780e+002, 2.911325e-002
1.427065e+002, 2.973906e-002
1.446350e+002, 2.986667e-002
1.465634e+002, 2.998985e-002
1.484919e+002, 3.046714e-002
1.504204e+002, 3.092173e-002
1.523488e+002, 3.162570e-002
1.542773e+002, 3.169472e-002
1.562058e+002, 3.143335e-002
1.581342e+002, 3.156788e-002
1.600627e+002, 3.174837e-002
1.619912e+002, 3.176782e-002
1.639196e+002, 3.209238e-002
1.658481e+002, 3.250472e-002
1.677766e+002, 3.283002e-002
1.697050e+002, 3.313717e-002
1.716335e+002, 3.295453e-002
1.735620e+002, 3.298180e-002
1.754904e+002, 3.323239e-002
1.774189e+002, 3.363561e-002
1.793474e+002, 3.420360e-002
1.812758e+002, 3.466535e-002
1.832043e+002, 3.464186e-002
1.851328e+002, 3.482314e-002
1.870612e+002, 3.486227e-002
1.889897e+002, 3.475800e-002
1.909182e+002, 3.512837e-002
1.928466e+002, 3.561927e-002
1.947751e+002, 3.609880e-002
1.967036e+002, 3.622588e-002
1.986320e+002, 3.615904e-002
2.005605e+002, 3.647777e-002
2.024890e+002, 3.673996e-002
2.044174e+002, 3.670500e-002
2.063459e+002, 3.689822e-002
2.082744e+002, 3.733363e-002
2.102028e+002, 3.763985e-002
2.121313e+002, 3.776152e-002
2.140598e+002, 3.806079e-002
2.159882e+002, 3.813708e-002
2.179167e+002, 3.801986e-002
2.198452e+002, 3.850865e-002
2.217736e+002, 3.903538e-002
2.237021e+002, 3.938439e-002
2.256305e+002, 3.953443e-002
2.275590e+002, 3.966383e-002
2.294875e+002, 4.005391e-002
2.314159e+002, 4.000886e-002
2.333444e+002, 3.966356e-002
2.352729e+002, 3.971744e-002
2.372013e+002, 3.962812e-002
2.391298e+002, 3.973418e-002
2.410583e+002, 4.015107e-002
2.429867e+002, 4.047320e-002
2.449152e+002, 4.064722e-002
2.468437e+002, 4.079919e-002
2.487721e+002, 4.092580e-002
2.507006e+002, 4.118152e-002
2.526291e+002, 4.132915e-002
2.545575e+002, 4.149159e-002
2.564860e+002, 4.172801e-002
2.584145e+002, 4.201639e-002
2.603429e+002, 4.242642e-002
2.622714e+002, 4.282045e-002
2.641999e+002, 4.304484e-002
2.661283e+002, 4.318955e-002
2.680568e+002, 4.346986e-002
2.699853e+002, 4.395683e-002
2.719137e+002, 4.424116e-002
2.738422e+002, 4.430499e-002
2.757707e+002, 4.433223e-002
2.776991e+002, 4.481736e-002
2.796276e+002, 4.500302e-002
2.815561e+002, 4.496550e-002
2.834845e+002, 4.549604e-002
2.854130e+002, 4.573618e-002
2.873415e+002, 4.553614e-002
2.892699e+002, 4.580974e-002
2.911984e+002, 4.593966e-002
2.931269e+002, 4.603286e-002
2.950553e+002, 4.644575e-002
2.969838e+002, 4.696924e-002
2.989123e+002, 4.731704e-002
3.008407e+002, 4.745150e-002
3.027692e+002, 4.757796e-002
3.046977e+002, 4.701943e-002
3.066261e+002, 4.592496e-002
3.085546e+002, 4.459673e-002
3.104831e+002, 4.281808e-002
3.124115e+002, 4.124973e-002
3.143400e+002, 4.125172e-002
3.162685e+002, 4.275170e-002
3.181969e+002, 4.397541e-002
3.201254e+002, 4.486442e-002
3.220539e+002, 4.601924e-002
3.239823e+002, 4.682757e-002
3.259108e+002, 4.730431e-002
3.278392e+002, 4.759176e-002
3.297677e+002, 4.782522e-002
3.316962e+002, 4.836436e-002
3.336246e+002, 4.839065e-002
3.355531e+002, 4.829817e-002
3.374816e+002, 4.875677e-002
3.394100e+002, 4.932357e-002
3.413385e+002, 4.970932e-002
3.432670e+002, 4.977014e-002
3.451954e+002, 4.981497e-002
3.471239e+002, 5.019873e-002
3.490524e+002, 5.032865e-002
3.509808e+002, 5.051748e-002
3.529093e+002, 5.085575e-002
3.548378e+002, 5.113256e-002
3.567662e+002, 5.126996e-002
3.586947e+002, 5.149810e-002
3.606232e+002, 5.178056e-002
3.625516e+002, 5.195377e-002
3.644801e+002, 5.187296e-002
3.664086e+002, 5.209579e-002
3.683370e+002, 5.249690e-002
3.702655e+002, 5.281773e-002
3.721940e+002, 5.302458e-002
3.741224e+002, 5.306569e-002
3.760509e+002, 5.313146e-002
3.779794e+002, 5.352654e-002
3.799078e+002, 5.354202e-002
3.818363e+002, 5.364760e-002
3.837648e+002, 5.387679e-002
3.856932e+002, 5.368299e-002
3.876217e+002, 5.355679e-002
3.895502e+002, 5.388552e-002
3.914786e+002, 5.411485e-002
3.934071e+002, 5.420529e-002
3.953356e+002, 5.447703e-002
3.972640e+002, 5.455707e-002
3.991925e+002, 5.449942e-002
4.011210e+002, 5.489464e-002
4.030494e+002, 5.513750e-002
4.049779e+002, 5.531825e-002
4.069064e+002, 5.550338e-002
4.088348e+002, 5.563005e-002
4.107633e+002, 5.586400e-002
4.126917e+002, 5.608608e-002
4.146202e+002, 5.616151e-002
4.165487e+002, 5.616639e-002
4.184771e+002, 5.623350e-002
4.204056e+002, 5.651901e-002
4.223341e+002, 5.685629e-002
4.242625e+002, 5.699080e-002
4.261910e+002, 5.708165e-002
4.281195e+002, 5.719849e-002
4.300479e+002, 5.732671e-002
4.319764e+002, 5.759116e-002
4.339049e+002, 5.784567e-002
4.358333e+002, 5.801676e-002
4.377618e+002, 5.809353e-002
4.396903e+002, 5.800410e-002
4.416187e+002, 5.768743e-002
4.435472e+002, 5.774195e-002
4.454757e+002, 5.803661e-002
4.474041e+002, 5.839520e-002
4.493326e+002, 5.833845e-002
4.512611e+002, 5.825400e-002
4.531895e+002, 5.826009e-002
4.551180e+002, 5.810479e-002
4.570465e+002, 5.795359e-002
4.589749e+002, 5.790479e-002
4.609034e+002, 5.768479e-002
4.628319e+002, 5.716571e-002
4.647603e+002, 5.695570e-002
4.666888e+002, 5.720050e-002
4.686173e+002, 5.722891e-002
4.705457e+002, 5.664870e-002
4.724742e+002, 5.560916e-002
4.744027e+002, 5.520398e-002
4.763311e+002, 5.522763e-002
4.782596e+002, 5.556224e-002
4.801881e+002, 5.551907e-002
4.821165e+002, 5.563556e-002
4.840450e+002, 5.620642e-002
4.859735e+002, 5.655800e-002
4.879019e+002, 5.684813e-002
4.898304e+002, 5.679151e-002
4.917589e+002, 5.679117e-002
4.936873e+002, 5.715925e-002
4.956158e+002, 5.797799e-002
4.975443e+002, 5.850271e-002
4.994727e+002, 5.881030e-002
5.014012e+002, 5.910304e-002
5.033297e+002, 5.862249e-002
5.052581e+002, 5.878770e-002
5.071866e+002, 5.926202e-002
5.091151e+002, 5.905316e-002
5.110435e+002, 5.868077e-002
5.129720e+002, 5.883717e-002
5.149005e+002, 5.926048e-002
5.168289e+002, 5.976713e-002
5.187574e+002, 6.028180e-002
5.206859e+002, 6.069723e-002
5.226143e+002, 6.038632e-002
5.245428e+002, 6.014334e-002
5.264713e+002, 5.996476e-002
5.283997e+002, 5.994264e-002
5.303282e+002, 6.008861e-002
5.322567e+002, 5.996016e-002
5.341851e+002, 5.983737e-002
5.361136e+002, 5.993499e-002
5.380421e+002, 6.004718e-002
5.399705e+002, 6.016371e-002
5.418990e+002, 6.013163e-002
5.438275e+002, 6.001273e-002
5.457559e+002, 5.978018e-002
5.476844e+002, 5.969913e-002
5.496129e+002, 5.958669e-002
5.515413e+002, 5.952195e-002
5.534698e+002, 5.947613e-002
5.553983e+002, 5.918351e-002
5.573267e+002, 5.871574e-002
5.592552e+002, 5.847820e-002
5.611837e+002, 5.813790e-002
5.631121e+002, 5.785967e-002
5.650406e+002, 5.746170e-002
5.669691e+002, 5.677300e-002
5.688975e+002, 5.622323e-002
5.708260e+002, 5.616171e-002
5.727545e+002, 5.616737e-002
5.746829e+002, 5.645843e-002
5.766114e+002, 5.726891e-002
5.785399e+002, 5.769182e-002
5.804683e+002, 5.772026e-002
5.823968e+002, 5.769279e-002
5.843253e+002, 5.722911e-002
5.862537e+002, 5.624509e-002
5.881822e+002, 5.551689e-002
5.901107e+002, 5.471709e-002
5.920391e+002, 5.337950e-002
5.939676e+002, 5.207854e-002
5.958961e+002, 5.032678e-002
5.978245e+002, 4.850777e-002
5.997530e+002, 4.653520e-002
6.016815e+002, 4.507049e-002
6.036099e+002, 4.377025e-002
6.055384e+002, 4.212718e-002
6.074669e+002, 4.127777e-002
6.093953e+002, 4.138581e-002
6.113238e+002, 4.026426e-002
6.132523e+002, 3.896528e-002
6.151807e+002, 3.912246e-002
6.171091e+002, 3.953921e-002
6.190376e+002, 3.930927e-002
6.209661e+002, 3.955587e-002
6.228945e+002, 4.055693e-002
6.248230e+002, 4.294691e-002
6.267515e+002, 4.604539e-002
6.286799e+002, 4.904925e-002
6.306084e+002, 5.154258e-002
6.325369e+002, 5.395146e-002
6.344653e+002, 5.603142e-002
6.363938e+002, 5.777551e-002
6.383223e+002, 5.956304e-002
6.402507e+002, 6.105669e-002
6.421792e+002, 6.228762e-002
6.441077e+002, 6.363887e-002
6.460361e+002, 6.460137e-002
6.479646e+002, 6.549800e-002
6.498931e+002, 6.621511e-002
6.518215e+002, 6.653753e-002
6.537500e+002, 6.687047e-002
6.556785e+002, 6.751784e-002
6.576069e+002, 6.838202e-002
6.595354e+002, 6.883562e-002
6.614639e+002, 6.827146e-002
6.633923e+002, 6.806482e-002
6.653208e+002, 6.881144e-002
6.672493e+002, 6.955590e-002
6.691777e+002, 6.969168e-002
6.711062e+002, 6.998120e-002
6.730347e+002, 7.021204e-002
6.749631e+002, 7.084861e-002
6.768916e+002, 7.123619e-002
6.788201e+002, 7.127950e-002
6.807485e+002, 7.087637e-002
6.826770e+002, 7.077083e-002
6.846055e+002, 7.090993e-002
6.865339e+002, 7.109374e-002
6.884624e+002, 7.101214e-002
6.903909e+002, 7.144762e-002
6.923193e+002, 7.188251e-002
6.942478e+002, 7.234863e-002
6.961763e+002, 7.179533e-002
6.981047e+002, 7.174852e-002
7.000332e+002, 7.218442e-002
##END=



