##NAMES=Spodumene
##RRUFFID=R050252
##IDEAL CHEMISTRY=LiAlSi_2_O_6_
##LOCALITY=Minas Gerais, Brazil
##OWNER=RRUFF
##SOURCE=Marcus Origlieri
##DESCRIPTION=Pale lavendar cleavage fragment
##STATUS=The identification of this mineral has been confirmed by X-ray diffraction and chemical analysis
##URL=rruff.info/R050252
##MEASURED CHEMISTRY=Li_1.00_Al_1.00_Si_2.00_O_6_
5.014013e+001, -2.497812e-003
5.206860e+001, -2.670148e-003
5.399707e+001, 1.078661e-003
5.592553e+001, 3.801482e-003
5.785400e+001, 6.779727e-003
5.978246e+001, 4.121604e-003
6.171093e+001, 1.449395e-003
6.363940e+001, 1.241919e-003
6.556786e+001, 2.194319e-003
6.749633e+001, 3.221023e-003
6.942480e+001, 2.897775e-003
7.135326e+001, 3.504124e-003
7.328172e+001, 3.190316e-003
7.521019e+001, 2.943313e-003
7.713866e+001, 3.033671e-003
7.906712e+001, 3.610695e-003
8.099559e+001, 5.206212e-003
8.292406e+001, 5.755763e-003
8.485252e+001, 5.689748e-003
8.678099e+001, 6.253983e-003
8.870946e+001, 6.436508e-003
9.063792e+001, 5.617952e-003
9.256638e+001, 4.981485e-003
9.449485e+001, 5.710062e-003
9.642332e+001, 6.016261e-003
9.835178e+001, 6.170393e-003
1.002803e+002, 6.410646e-003
1.022087e+002, 6.475739e-003
1.041372e+002, 6.511339e-003
1.060657e+002, 6.742115e-003
1.079941e+002, 6.459442e-003
1.099226e+002, 6.270086e-003
1.118510e+002, 6.541040e-003
1.137795e+002, 6.871691e-003
1.157080e+002, 6.949509e-003
1.176364e+002, 6.960152e-003
1.195649e+002, 7.288546e-003
1.214934e+002, 7.788412e-003
1.234218e+002, 7.657724e-003
1.253503e+002, 7.904463e-003
1.272788e+002, 8.350061e-003
1.292072e+002, 8.453792e-003
1.311357e+002, 8.412937e-003
1.330642e+002, 8.286268e-003
1.349926e+002, 8.355345e-003
1.369211e+002, 8.658267e-003
1.388496e+002, 9.086710e-003
1.407780e+002, 9.036044e-003
1.427065e+002, 9.192476e-003
1.446350e+002, 9.539269e-003
1.465634e+002, 9.251230e-003
1.484919e+002, 9.267504e-003
1.504204e+002, 9.720690e-003
1.523488e+002, 9.986609e-003
1.542773e+002, 1.064175e-002
1.562058e+002, 1.092772e-002
1.581342e+002, 1.103511e-002
1.600627e+002, 1.115853e-002
1.619912e+002, 1.089905e-002
1.639196e+002, 1.111619e-002
1.658481e+002, 1.166407e-002
1.677766e+002, 1.227490e-002
1.697050e+002, 1.252594e-002
1.716335e+002, 1.235005e-002
1.735620e+002, 1.243787e-002
1.754904e+002, 1.288514e-002
1.774189e+002, 1.320595e-002
1.793474e+002, 1.333772e-002
1.812758e+002, 1.362340e-002
1.832043e+002, 1.389517e-002
1.851328e+002, 1.372248e-002
1.870612e+002, 1.371494e-002
1.889897e+002, 1.403959e-002
1.909182e+002, 1.469912e-002
1.928466e+002, 1.554299e-002
1.947751e+002, 1.592100e-002
1.967036e+002, 1.593145e-002
1.986320e+002, 1.621576e-002
2.005605e+002, 1.668439e-002
2.024890e+002, 1.716944e-002
2.044174e+002, 1.725406e-002
2.063459e+002, 1.750873e-002
2.082744e+002, 1.815602e-002
2.102028e+002, 1.852912e-002
2.121313e+002, 1.896442e-002
2.140598e+002, 1.952512e-002
2.159882e+002, 1.967769e-002
2.179167e+002, 2.012838e-002
2.198452e+002, 2.064176e-002
2.217736e+002, 2.129913e-002
2.237021e+002, 2.218755e-002
2.256305e+002, 2.288573e-002
2.275590e+002, 2.357944e-002
2.294875e+002, 2.422126e-002
2.314159e+002, 2.482357e-002
2.333444e+002, 2.496050e-002
2.352729e+002, 2.456303e-002
2.372013e+002, 2.406021e-002
2.391298e+002, 2.319429e-002
2.410583e+002, 2.271404e-002
2.429867e+002, 2.275308e-002
2.449152e+002, 2.295697e-002
2.468437e+002, 2.298700e-002
2.487721e+002, 2.291204e-002
2.507006e+002, 2.232005e-002
2.526291e+002, 2.184397e-002
2.545575e+002, 2.133114e-002
2.564860e+002, 2.056769e-002
2.584145e+002, 1.984374e-002
2.603429e+002, 1.989092e-002
2.622714e+002, 2.032287e-002
2.641999e+002, 2.095967e-002
2.661283e+002, 2.210780e-002
2.680568e+002, 2.328922e-002
2.699853e+002, 2.425936e-002
2.719137e+002, 2.522471e-002
2.738422e+002, 2.593778e-002
2.757707e+002, 2.632353e-002
2.776991e+002, 2.626655e-002
2.796276e+002, 2.585202e-002
2.815561e+002, 2.530018e-002
2.834845e+002, 2.456901e-002
2.854130e+002, 2.411779e-002
2.873415e+002, 2.368816e-002
2.892699e+002, 2.354362e-002
2.911984e+002, 2.347662e-002
2.931269e+002, 2.331195e-002
2.950553e+002, 2.341931e-002
2.969838e+002, 2.382340e-002
2.989123e+002, 2.439997e-002
3.008407e+002, 2.523297e-002
3.027692e+002, 2.632463e-002
3.046977e+002, 2.649863e-002
3.066261e+002, 2.609370e-002
3.085546e+002, 2.538095e-002
3.104831e+002, 2.474676e-002
3.124115e+002, 2.462382e-002
3.143400e+002, 2.475125e-002
3.162685e+002, 2.470720e-002
3.181969e+002, 2.493733e-002
3.201254e+002, 2.498739e-002
3.220539e+002, 2.468179e-002
3.239823e+002, 2.418427e-002
3.259108e+002, 2.376065e-002
3.278392e+002, 2.369807e-002
3.297677e+002, 2.332193e-002
3.316962e+002, 2.322513e-002
3.336246e+002, 2.375139e-002
3.355531e+002, 2.422290e-002
3.374816e+002, 2.449404e-002
3.394100e+002, 2.467198e-002
3.413385e+002, 2.464340e-002
3.432670e+002, 2.460103e-002
3.451954e+002, 2.462786e-002
3.471239e+002, 2.454362e-002
3.490524e+002, 2.502424e-002
3.509808e+002, 2.559787e-002
3.529093e+002, 2.577783e-002
3.548378e+002, 2.599088e-002
3.567662e+002, 2.666659e-002
3.586947e+002, 2.720014e-002
3.606232e+002, 2.779104e-002
3.625516e+002, 2.842224e-002
3.644801e+002, 2.914732e-002
3.664086e+002, 3.008557e-002
3.683370e+002, 3.082650e-002
3.702655e+002, 3.121120e-002
3.721940e+002, 3.212655e-002
3.741224e+002, 3.327230e-002
3.760509e+002, 3.356220e-002
3.779794e+002, 3.336956e-002
3.799078e+002, 3.295699e-002
3.818363e+002, 3.167986e-002
3.837648e+002, 3.003781e-002
3.856932e+002, 2.866720e-002
3.876217e+002, 2.783160e-002
3.895502e+002, 2.786732e-002
3.914786e+002, 2.860825e-002
3.934071e+002, 2.984472e-002
3.953356e+002, 3.136155e-002
3.972640e+002, 3.289376e-002
3.991925e+002, 3.416003e-002
4.011210e+002, 3.433297e-002
4.030494e+002, 3.342452e-002
4.049779e+002, 3.190568e-002
4.069064e+002, 3.022345e-002
4.088348e+002, 2.931114e-002
4.107633e+002, 2.920857e-002
4.126917e+002, 2.933995e-002
4.146202e+002, 2.985483e-002
4.165487e+002, 3.054528e-002
4.184771e+002, 3.105321e-002
4.204056e+002, 3.136900e-002
4.223341e+002, 3.181892e-002
4.242625e+002, 3.276373e-002
4.261910e+002, 3.343892e-002
4.281195e+002, 3.394985e-002
4.300479e+002, 3.479865e-002
4.319764e+002, 3.550929e-002
4.339049e+002, 3.607621e-002
4.358333e+002, 3.661202e-002
4.377618e+002, 3.715927e-002
4.396903e+002, 3.777614e-002
4.416187e+002, 3.871781e-002
4.435472e+002, 3.942433e-002
4.454757e+002, 4.005452e-002
4.474041e+002, 4.067013e-002
4.493326e+002, 4.128145e-002
4.512611e+002, 4.197395e-002
4.531895e+002, 4.270624e-002
4.551180e+002, 4.329668e-002
4.570465e+002, 4.350825e-002
4.589749e+002, 4.398091e-002
4.609034e+002, 4.478779e-002
4.628319e+002, 4.594143e-002
4.647603e+002, 4.669396e-002
4.666888e+002, 4.710772e-002
4.686173e+002, 4.781210e-002
4.705457e+002, 4.816719e-002
4.724742e+002, 4.835473e-002
4.744027e+002, 4.857824e-002
4.763311e+002, 4.874469e-002
4.782596e+002, 4.876999e-002
4.801881e+002, 4.837200e-002
4.821165e+002, 4.792636e-002
4.840450e+002, 4.739529e-002
4.859735e+002, 4.696655e-002
4.879019e+002, 4.675245e-002
4.898304e+002, 4.616949e-002
4.917589e+002, 4.571295e-002
4.936873e+002, 4.547869e-002
4.956158e+002, 4.527357e-002
4.975443e+002, 4.529429e-002
4.994727e+002, 4.514367e-002
5.014012e+002, 4.532835e-002
5.033297e+002, 4.529626e-002
5.052581e+002, 4.489299e-002
5.071866e+002, 4.443427e-002
5.091151e+002, 4.368790e-002
5.110435e+002, 4.283341e-002
5.129720e+002, 4.199953e-002
5.149005e+002, 4.131338e-002
5.168289e+002, 4.118235e-002
5.187574e+002, 4.117306e-002
5.206859e+002, 4.125043e-002
5.226143e+002, 4.102117e-002
5.245428e+002, 4.091510e-002
5.264713e+002, 4.117852e-002
5.283997e+002, 4.117411e-002
5.303282e+002, 4.104477e-002
5.322567e+002, 4.073111e-002
5.341851e+002, 4.054740e-002
5.361136e+002, 4.055170e-002
5.380421e+002, 4.038747e-002
5.399705e+002, 4.034251e-002
5.418990e+002, 4.006572e-002
5.438275e+002, 3.980120e-002
5.457559e+002, 3.916890e-002
5.476844e+002, 3.873279e-002
5.496129e+002, 3.833958e-002
5.515413e+002, 3.742804e-002
5.534698e+002, 3.639822e-002
5.553983e+002, 3.578998e-002
5.573267e+002, 3.566105e-002
5.592552e+002, 3.558138e-002
5.611837e+002, 3.526611e-002
5.631121e+002, 3.518868e-002
5.650406e+002, 3.561506e-002
5.669691e+002, 3.619719e-002
5.688975e+002, 3.667072e-002
5.708260e+002, 3.719488e-002
5.727545e+002, 3.750719e-002
5.746829e+002, 3.799676e-002
5.766114e+002, 3.880484e-002
5.785399e+002, 3.924902e-002
5.804683e+002, 3.962164e-002
5.823968e+002, 4.015885e-002
5.843253e+002, 4.057697e-002
5.862537e+002, 4.089572e-002
5.881822e+002, 4.108977e-002
5.901107e+002, 4.134079e-002
5.920391e+002, 4.133251e-002
5.939676e+002, 4.127102e-002
5.958961e+002, 4.108394e-002
5.978245e+002, 4.076652e-002
5.997530e+002, 4.016403e-002
6.016815e+002, 3.983884e-002
6.036099e+002, 3.960577e-002
6.055384e+002, 3.862244e-002
6.074669e+002, 3.769115e-002
6.093953e+002, 3.747930e-002
6.113238e+002, 3.715687e-002
6.132523e+002, 3.724218e-002
6.151807e+002, 3.768951e-002
6.171091e+002, 3.682899e-002
6.190376e+002, 3.591038e-002
6.209661e+002, 3.565516e-002
6.228945e+002, 3.605249e-002
6.248230e+002, 3.718154e-002
6.267515e+002, 3.849545e-002
6.286799e+002, 3.988394e-002
6.306084e+002, 4.122595e-002
6.325369e+002, 4.247578e-002
6.344653e+002, 4.294424e-002
6.363938e+002, 4.297584e-002
6.383223e+002, 4.339657e-002
6.402507e+002, 4.379734e-002
6.421792e+002, 4.404762e-002
6.441077e+002, 4.422999e-002
6.460361e+002, 4.424517e-002
6.479646e+002, 4.434093e-002
6.498931e+002, 4.422694e-002
6.518215e+002, 4.373100e-002
6.537500e+002, 4.275838e-002
6.556785e+002, 4.178772e-002
6.576069e+002, 4.115297e-002
6.595354e+002, 4.089197e-002
6.614639e+002, 4.052979e-002
6.633923e+002, 3.992334e-002
6.653208e+002, 3.968722e-002
6.672493e+002, 3.958798e-002
6.691777e+002, 3.947936e-002
6.711062e+002, 3.940766e-002
6.730347e+002, 3.903416e-002
6.749631e+002, 3.867782e-002
6.768916e+002, 3.886506e-002
6.788201e+002, 3.929295e-002
6.807485e+002, 3.929337e-002
6.826770e+002, 3.899194e-002
6.846055e+002, 3.842240e-002
6.865339e+002, 3.803851e-002
6.884624e+002, 3.823655e-002
6.903909e+002, 3.907944e-002
6.923193e+002, 3.946678e-002
6.942478e+002, 3.901464e-002
6.961763e+002, 3.933569e-002
6.981047e+002, 3.969733e-002
7.000332e+002, 4.040601e-002
##END=



