##NAMES=Staurolite
##RRUFFID=R050079
##IDEAL CHEMISTRY=Fe^2+^_2_Al_9_Si_4_O_23_(OH)
##LOCALITY=Keivy, Kola Peninsula, Russia
##OWNER=RRUFF
##SOURCE=Rock Currier
##DESCRIPTION=Brown cruciform twins
##STATUS=The identification of this mineral has been confirmed by X-ray diffraction and chemical analysis
##URL=rruff.info/R050079
##MEASURED CHEMISTRY=(Fe^2+^_0.77_Mg_0.23_)_2_(Al_0.99_Ti_0.01_)_9_(Si_0.99_Al_0.01_)_4_O_20_(O_0.76_(OH)_0.24_)_4_
3.991926e+002, 1.664781e-001
4.011211e+002, 1.447538e-001
4.030496e+002, 1.454497e-001
4.049780e+002, 1.393616e-001
4.069065e+002, 1.450089e-001
4.088350e+002, 1.527197e-001
4.107634e+002, 1.621729e-001
4.126919e+002, 1.690019e-001
4.146204e+002, 1.719854e-001
4.165488e+002, 1.739671e-001
4.184773e+002, 1.782078e-001
4.204058e+002, 1.863396e-001
4.223342e+002, 1.912835e-001
4.242627e+002, 1.892267e-001
4.261912e+002, 1.885413e-001
4.281196e+002, 1.917273e-001
4.300481e+002, 1.941841e-001
4.319766e+002, 1.930878e-001
4.339050e+002, 1.926687e-001
4.358335e+002, 1.920281e-001
4.377620e+002, 1.912407e-001
4.396904e+002, 1.884518e-001
4.416189e+002, 1.877986e-001
4.435474e+002, 1.871210e-001
4.454758e+002, 1.876977e-001
4.474043e+002, 1.902332e-001
4.493328e+002, 1.925231e-001
4.512612e+002, 1.984634e-001
4.531897e+002, 2.045107e-001
4.551182e+002, 2.083704e-001
4.570466e+002, 2.110035e-001
4.589751e+002, 2.118910e-001
4.609036e+002, 2.105716e-001
4.628320e+002, 2.081652e-001
4.647605e+002, 2.069032e-001
4.666890e+002, 2.064697e-001
4.686174e+002, 2.038675e-001
4.705459e+002, 2.003214e-001
4.724744e+002, 1.982223e-001
4.744028e+002, 1.949532e-001
4.763313e+002, 1.911804e-001
4.782598e+002, 1.889704e-001
4.801882e+002, 1.863697e-001
4.821167e+002, 1.823861e-001
4.840452e+002, 1.791435e-001
4.859736e+002, 1.767849e-001
4.879021e+002, 1.744324e-001
4.898306e+002, 1.705145e-001
4.917590e+002, 1.663777e-001
4.936875e+002, 1.635925e-001
4.956160e+002, 1.605386e-001
4.975444e+002, 1.570059e-001
4.994729e+002, 1.537286e-001
5.014014e+002, 1.501879e-001
5.033298e+002, 1.474741e-001
5.052583e+002, 1.458123e-001
5.071868e+002, 1.448414e-001
5.091152e+002, 1.444753e-001
5.110437e+002, 1.445486e-001
5.129722e+002, 1.441477e-001
5.149006e+002, 1.440559e-001
5.168291e+002, 1.444001e-001
5.187576e+002, 1.438369e-001
5.206860e+002, 1.424866e-001
5.226145e+002, 1.404914e-001
5.245430e+002, 1.390544e-001
5.264714e+002, 1.383733e-001
5.283999e+002, 1.376266e-001
5.303284e+002, 1.357065e-001
5.322568e+002, 1.332428e-001
5.341853e+002, 1.321156e-001
5.361138e+002, 1.309265e-001
5.380422e+002, 1.293067e-001
5.399707e+002, 1.284135e-001
5.418992e+002, 1.279620e-001
5.438276e+002, 1.265106e-001
5.457561e+002, 1.255423e-001
5.476846e+002, 1.249709e-001
5.496130e+002, 1.240432e-001
5.515415e+002, 1.228051e-001
5.534700e+002, 1.212637e-001
5.553984e+002, 1.208634e-001
5.573269e+002, 1.214518e-001
5.592554e+002, 1.221385e-001
5.611838e+002, 1.222686e-001
5.631123e+002, 1.221834e-001
5.650408e+002, 1.226635e-001
5.669692e+002, 1.232859e-001
5.688977e+002, 1.242048e-001
5.708262e+002, 1.251521e-001
5.727546e+002, 1.265448e-001
5.746831e+002, 1.282912e-001
5.766116e+002, 1.298564e-001
5.785400e+002, 1.314039e-001
5.804685e+002, 1.331145e-001
5.823970e+002, 1.345842e-001
5.843254e+002, 1.361966e-001
5.862539e+002, 1.369899e-001
5.881824e+002, 1.373153e-001
5.901108e+002, 1.375321e-001
5.920393e+002, 1.379230e-001
5.939678e+002, 1.382230e-001
5.958962e+002, 1.381795e-001
5.978247e+002, 1.378640e-001
5.997532e+002, 1.373438e-001
6.016816e+002, 1.364903e-001
6.036101e+002, 1.358386e-001
6.055386e+002, 1.356230e-001
6.074670e+002, 1.354870e-001
6.093955e+002, 1.351884e-001
6.113240e+002, 1.348894e-001
6.132524e+002, 1.345195e-001
6.151809e+002, 1.341404e-001
6.171094e+002, 1.341936e-001
6.190378e+002, 1.343543e-001
6.209663e+002, 1.339361e-001
6.228948e+002, 1.335032e-001
6.248232e+002, 1.331875e-001
6.267517e+002, 1.330132e-001
6.286802e+002, 1.325394e-001
6.306086e+002, 1.320577e-001
6.325371e+002, 1.322209e-001
6.344656e+002, 1.326369e-001
6.363940e+002, 1.327521e-001
6.383225e+002, 1.326424e-001
6.402510e+002, 1.320941e-001
6.421794e+002, 1.316492e-001
6.441079e+002, 1.310207e-001
6.460364e+002, 1.299421e-001
6.479648e+002, 1.289129e-001
6.498933e+002, 1.278557e-001
6.518218e+002, 1.267622e-001
6.537502e+002, 1.261302e-001
6.556787e+002, 1.249778e-001
6.576072e+002, 1.233499e-001
6.595356e+002, 1.222325e-001
6.614641e+002, 1.212004e-001
6.633926e+002, 1.199695e-001
6.653210e+002, 1.186388e-001
6.672495e+002, 1.177341e-001
6.691780e+002, 1.165424e-001
6.711064e+002, 1.152481e-001
6.730349e+002, 1.142121e-001
6.749634e+002, 1.133978e-001
6.768918e+002, 1.129517e-001
6.788203e+002, 1.126099e-001
6.807488e+002, 1.121535e-001
6.826772e+002, 1.116316e-001
6.846057e+002, 1.113544e-001
6.865342e+002, 1.114980e-001
6.884626e+002, 1.113143e-001
6.903911e+002, 1.111223e-001
6.923196e+002, 1.107966e-001
6.942480e+002, 1.089051e-001
6.961765e+002, 1.045289e-001
6.981050e+002, 9.914261e-002
7.000334e+002, 9.406691e-002
7.019619e+002, 9.002239e-002
7.038904e+002, 8.690783e-002
7.058188e+002, 8.430032e-002
7.077473e+002, 8.177360e-002
7.096758e+002, 7.932242e-002
7.116042e+002, 7.700298e-002
7.135327e+002, 7.490119e-002
7.154612e+002, 7.276108e-002
7.173896e+002, 7.074226e-002
7.193181e+002, 6.914608e-002
7.212466e+002, 6.733588e-002
7.231750e+002, 6.558771e-002
7.251035e+002, 6.422698e-002
7.270320e+002, 6.289721e-002
7.289604e+002, 6.172108e-002
7.308889e+002, 6.040815e-002
7.328174e+002, 5.959596e-002
7.347458e+002, 5.901179e-002
7.366743e+002, 5.820937e-002
7.386028e+002, 5.754523e-002
7.405313e+002, 5.681517e-002
7.424597e+002, 5.660503e-002
7.443882e+002, 5.686395e-002
7.463167e+002, 5.701959e-002
7.482451e+002, 5.695022e-002
7.501736e+002, 5.700926e-002
7.521021e+002, 5.733120e-002
7.540305e+002, 5.779595e-002
7.559590e+002, 5.827076e-002
7.578875e+002, 5.873706e-002
7.598159e+002, 5.922555e-002
7.617444e+002, 5.975318e-002
7.636729e+002, 6.031458e-002
7.656013e+002, 6.145620e-002
7.675298e+002, 6.305791e-002
7.694583e+002, 6.474696e-002
7.713867e+002, 6.694008e-002
7.733152e+002, 6.966369e-002
7.752437e+002, 7.248308e-002
7.771721e+002, 7.437198e-002
7.791006e+002, 7.490277e-002
7.810291e+002, 7.340563e-002
7.829575e+002, 7.069600e-002
7.848860e+002, 6.845967e-002
7.868145e+002, 6.736448e-002
7.887429e+002, 6.743577e-002
7.906714e+002, 6.900058e-002
7.925999e+002, 7.146570e-002
7.945283e+002, 7.432690e-002
7.964568e+002, 7.676246e-002
7.983853e+002, 7.678681e-002
8.003137e+002, 7.446899e-002
8.022422e+002, 7.041035e-002
8.041707e+002, 6.535498e-002
8.060991e+002, 6.052860e-002
8.080276e+002, 5.691360e-002
8.099561e+002, 5.498544e-002
8.118845e+002, 5.426550e-002
8.138130e+002, 5.442799e-002
8.157415e+002, 5.535991e-002
8.176699e+002, 5.685021e-002
8.195984e+002, 5.879766e-002
8.215269e+002, 6.088769e-002
8.234553e+002, 6.272297e-002
8.253838e+002, 6.458852e-002
8.273123e+002, 6.593584e-002
8.292407e+002, 6.720226e-002
8.311692e+002, 6.853829e-002
8.330977e+002, 6.979347e-002
8.350261e+002, 7.128327e-002
8.369546e+002, 7.265116e-002
8.388831e+002, 7.375149e-002
8.408115e+002, 7.448868e-002
8.427400e+002, 7.507276e-002
8.446685e+002, 7.569247e-002
8.465969e+002, 7.631334e-002
8.485254e+002, 7.690189e-002
8.504539e+002, 7.722425e-002
8.523823e+002, 7.745409e-002
8.543108e+002, 7.757779e-002
8.562393e+002, 7.751759e-002
8.581677e+002, 7.752568e-002
8.600962e+002, 7.768310e-002
8.620247e+002, 7.785463e-002
8.639531e+002, 7.840505e-002
8.658816e+002, 7.907213e-002
8.678101e+002, 7.985938e-002
8.697385e+002, 8.105715e-002
8.716670e+002, 8.236547e-002
8.735955e+002, 8.338151e-002
8.755239e+002, 8.471266e-002
8.774524e+002, 8.616292e-002
8.793809e+002, 8.756834e-002
8.813093e+002, 8.917523e-002
8.832378e+002, 9.077264e-002
8.851663e+002, 9.284545e-002
8.870947e+002, 9.462383e-002
8.890232e+002, 9.594446e-002
8.909517e+002, 9.772589e-002
8.928801e+002, 9.914003e-002
8.948085e+002, 9.992217e-002
8.967370e+002, 1.007999e-001
8.986655e+002, 1.018245e-001
9.005939e+002, 1.026800e-001
9.025224e+002, 1.030828e-001
9.044509e+002, 1.038239e-001
9.063793e+002, 1.051958e-001
9.083078e+002, 1.064669e-001
9.102363e+002, 1.075629e-001
9.121647e+002, 1.087750e-001
9.140932e+002, 1.102998e-001
9.160217e+002, 1.119993e-001
9.179501e+002, 1.135122e-001
9.198786e+002, 1.150874e-001
9.218071e+002, 1.168692e-001
9.237355e+002, 1.184694e-001
9.256640e+002, 1.203433e-001
9.275925e+002, 1.220144e-001
9.295209e+002, 1.234975e-001
9.314494e+002, 1.249712e-001
9.333779e+002, 1.261450e-001
9.353063e+002, 1.272056e-001
9.372348e+002, 1.283952e-001
9.391633e+002, 1.297578e-001
9.410917e+002, 1.307870e-001
9.430202e+002, 1.313079e-001
9.449487e+002, 1.319968e-001
9.468771e+002, 1.327475e-001
9.488056e+002, 1.334188e-001
9.507341e+002, 1.345922e-001
9.526625e+002, 1.356613e-001
9.545910e+002, 1.364656e-001
9.565195e+002, 1.373232e-001
9.584479e+002, 1.382043e-001
9.603764e+002, 1.390073e-001
9.623049e+002, 1.398360e-001
9.642333e+002, 1.406544e-001
9.661618e+002, 1.412506e-001
9.680903e+002, 1.416280e-001
9.700187e+002, 1.418782e-001
9.719472e+002, 1.420538e-001
9.738757e+002, 1.419107e-001
9.758041e+002, 1.416873e-001
9.777326e+002, 1.417102e-001
9.796611e+002, 1.416150e-001
9.815895e+002, 1.414954e-001
9.835180e+002, 1.416428e-001
9.854465e+002, 1.416223e-001
9.873749e+002, 1.417002e-001
9.893034e+002, 1.416856e-001
9.912319e+002, 1.415428e-001
9.931603e+002, 1.410988e-001
9.950888e+002, 1.406478e-001
9.970173e+002, 1.403485e-001
9.989457e+002, 1.402158e-001
1.000874e+003, 1.402117e-001
1.002803e+003, 1.402196e-001
1.004731e+003, 1.400528e-001
1.006660e+003, 1.397917e-001
1.008588e+003, 1.399550e-001
1.010517e+003, 1.398914e-001
1.012445e+003, 1.392368e-001
1.014373e+003, 1.386978e-001
1.016302e+003, 1.382814e-001
1.018230e+003, 1.374242e-001
1.020159e+003, 1.358976e-001
1.022087e+003, 1.344254e-001
1.024016e+003, 1.330952e-001
1.025944e+003, 1.316938e-001
1.027873e+003, 1.300110e-001
1.029801e+003, 1.280483e-001
1.031730e+003, 1.260989e-001
1.033658e+003, 1.244781e-001
1.035587e+003, 1.228180e-001
1.037515e+003, 1.209269e-001
1.039444e+003, 1.186756e-001
1.041372e+003, 1.165839e-001
1.043301e+003, 1.149216e-001
1.045229e+003, 1.136011e-001
1.047157e+003, 1.123202e-001
1.049086e+003, 1.109174e-001
1.051014e+003, 1.095345e-001
1.052943e+003, 1.086869e-001
1.054871e+003, 1.080753e-001
1.056800e+003, 1.072290e-001
1.058728e+003, 1.058321e-001
1.060657e+003, 1.041280e-001
1.062585e+003, 1.022390e-001
1.064514e+003, 1.000671e-001
1.066442e+003, 9.780680e-002
1.068371e+003, 9.596191e-002
1.070299e+003, 9.472211e-002
1.072228e+003, 9.445424e-002
1.074156e+003, 9.500428e-002
1.076084e+003, 9.577941e-002
1.078013e+003, 9.648768e-002
1.079941e+003, 9.722399e-002
1.081870e+003, 9.787904e-002
1.083798e+003, 9.827648e-002
1.085727e+003, 9.818991e-002
1.087655e+003, 9.780166e-002
1.089584e+003, 9.748278e-002
1.091512e+003, 9.669527e-002
1.093441e+003, 9.547915e-002
1.095369e+003, 9.420186e-002
1.097298e+003, 9.267468e-002
1.099226e+003, 9.077371e-002
1.101155e+003, 8.888972e-002
1.103083e+003, 8.739951e-002
1.105011e+003, 8.579629e-002
1.106940e+003, 8.398078e-002
1.108868e+003, 8.223172e-002
1.110797e+003, 8.051644e-002
1.112725e+003, 7.873049e-002
1.114654e+003, 7.709334e-002
1.116582e+003, 7.544090e-002
1.118511e+003, 7.368147e-002
1.120439e+003, 7.209542e-002
1.122368e+003, 7.039802e-002
1.124296e+003, 6.877148e-002
1.126225e+003, 6.691799e-002
1.128153e+003, 6.475032e-002
1.130082e+003, 6.287535e-002
1.132010e+003, 6.126334e-002
1.133938e+003, 5.968209e-002
1.135867e+003, 5.785278e-002
1.137795e+003, 5.614918e-002
1.139724e+003, 5.480771e-002
1.141652e+003, 5.359250e-002
1.143581e+003, 5.225324e-002
1.145509e+003, 5.059991e-002
1.147438e+003, 4.880589e-002
1.149366e+003, 4.749436e-002
1.151295e+003, 4.617577e-002
1.153223e+003, 4.474082e-002
1.155152e+003, 4.377447e-002
1.157080e+003, 4.367333e-002
1.159009e+003, 4.482516e-002
1.160937e+003, 4.674933e-002
1.162865e+003, 4.794871e-002
1.164794e+003, 4.780075e-002
1.166722e+003, 4.650029e-002
1.168651e+003, 4.456723e-002
1.170579e+003, 4.258795e-002
1.172508e+003, 4.091660e-002
1.174436e+003, 3.930964e-002
1.176365e+003, 3.775575e-002
1.178293e+003, 3.634454e-002
1.180222e+003, 3.535753e-002
1.182150e+003, 3.449358e-002
1.184079e+003, 3.339698e-002
1.186007e+003, 3.230292e-002
1.187936e+003, 3.154504e-002
1.189864e+003, 3.066956e-002
1.191792e+003, 2.961147e-002
1.193721e+003, 2.866695e-002
1.195649e+003, 2.778575e-002
1.197578e+003, 2.698418e-002
1.199506e+003, 2.580158e-002
1.201435e+003, 2.452065e-002
1.203363e+003, 2.322305e-002
1.205292e+003, 2.201748e-002
1.207220e+003, 2.101978e-002
1.209149e+003, 1.962364e-002
1.211077e+003, 1.809690e-002
1.213006e+003, 1.683569e-002
1.214934e+003, 1.582201e-002
1.216863e+003, 1.474311e-002
1.218791e+003, 1.351154e-002
1.220719e+003, 1.239324e-002
1.222648e+003, 1.165896e-002
1.224576e+003, 1.098954e-002
1.226505e+003, 1.040770e-002
1.228433e+003, 9.885983e-003
1.230362e+003, 9.419182e-003
1.232290e+003, 9.049816e-003
1.234219e+003, 8.819381e-003
1.236147e+003, 8.709160e-003
1.238076e+003, 8.610534e-003
1.240004e+003, 8.257228e-003
1.241933e+003, 8.023895e-003
1.243861e+003, 7.922051e-003
1.245790e+003, 7.823627e-003
1.247718e+003, 7.745737e-003
1.249646e+003, 7.551129e-003
1.251575e+003, 7.297334e-003
1.253503e+003, 7.020110e-003
1.255432e+003, 6.904000e-003
1.257360e+003, 6.894376e-003
1.259289e+003, 6.699638e-003
1.261217e+003, 6.441996e-003
1.263146e+003, 6.435568e-003
1.265074e+003, 6.422761e-003
1.267003e+003, 6.317037e-003
1.268931e+003, 6.313088e-003
1.270860e+003, 6.200168e-003
1.272788e+003, 6.067485e-003
1.274717e+003, 6.047679e-003
1.276645e+003, 6.094955e-003
1.278573e+003, 5.974947e-003
1.280502e+003, 5.928305e-003
1.282430e+003, 5.947643e-003
1.284359e+003, 5.511967e-003
1.286287e+003, 5.035876e-003
1.288216e+003, 4.938170e-003
1.290144e+003, 5.024430e-003
1.292073e+003, 5.106637e-003
1.294001e+003, 4.923861e-003
1.295930e+003, 4.663611e-003
1.297858e+003, 4.560646e-003
1.299787e+003, 4.692666e-003
1.301715e+003, 4.776056e-003
1.303644e+003, 4.437339e-003
1.305572e+003, 4.285375e-003
1.307500e+003, 4.417909e-003
1.309429e+003, 4.346287e-003
1.311357e+003, 4.271179e-003
1.313286e+003, 4.509792e-003
1.315214e+003, 4.706840e-003
1.317143e+003, 4.524915e-003
1.319071e+003, 4.195962e-003
1.321000e+003, 3.913966e-003
1.322928e+003, 3.920690e-003
1.324857e+003, 3.890302e-003
1.326785e+003, 3.833417e-003
1.328714e+003, 3.706684e-003
1.330642e+003, 3.809459e-003
1.332571e+003, 4.011927e-003
1.334499e+003, 4.075197e-003
1.336427e+003, 3.955073e-003
1.338356e+003, 3.773293e-003
1.340284e+003, 3.620114e-003
1.342213e+003, 3.811786e-003
1.344141e+003, 4.106645e-003
1.346070e+003, 3.963919e-003
1.347998e+003, 3.824185e-003
1.349927e+003, 3.847475e-003
1.351855e+003, 3.880790e-003
1.353784e+003, 3.843940e-003
1.355712e+003, 3.618332e-003
1.357641e+003, 3.672274e-003
1.359569e+003, 3.794872e-003
1.361498e+003, 3.727405e-003
1.363426e+003, 3.914224e-003
1.365354e+003, 4.119069e-003
1.367283e+003, 4.073812e-003
1.369211e+003, 3.873810e-003
1.371140e+003, 3.835069e-003
1.373068e+003, 4.002328e-003
1.374997e+003, 3.867601e-003
1.376925e+003, 3.806635e-003
1.378854e+003, 3.952077e-003
1.380782e+003, 3.762038e-003
1.382711e+003, 3.581967e-003
1.384639e+003, 3.684048e-003
1.386568e+003, 3.783624e-003
1.388496e+003, 3.747682e-003
1.390424e+003, 3.784375e-003
1.392353e+003, 4.021743e-003
1.394281e+003, 3.989588e-003
1.396210e+003, 3.820807e-003
1.398138e+003, 3.785491e-003
1.400067e+003, 3.833537e-003
1.401995e+003, 3.965429e-003
1.403924e+003, 4.122429e-003
1.405852e+003, 4.177561e-003
1.407781e+003, 4.039756e-003
1.409709e+003, 3.807546e-003
1.411638e+003, 3.935779e-003
1.413566e+003, 3.946305e-003
1.415495e+003, 3.801224e-003
1.417423e+003, 3.831904e-003
1.419351e+003, 4.097844e-003
1.421280e+003, 4.043089e-003
1.423208e+003, 3.932202e-003
1.425137e+003, 4.064244e-003
1.427065e+003, 3.989522e-003
1.428994e+003, 4.029951e-003
1.430922e+003, 4.286635e-003
1.432851e+003, 4.240588e-003
1.434779e+003, 4.186334e-003
1.436708e+003, 4.373624e-003
1.438636e+003, 4.307285e-003
1.440565e+003, 4.211449e-003
1.442493e+003, 4.218983e-003
1.444422e+003, 4.110246e-003
1.446350e+003, 4.218186e-003
1.448278e+003, 4.295112e-003
1.450207e+003, 4.532058e-003
1.452135e+003, 4.777964e-003
1.454064e+003, 4.608029e-003
1.455992e+003, 4.362608e-003
1.457921e+003, 4.540357e-003
1.459849e+003, 4.633277e-003
1.461778e+003, 4.490641e-003
1.463706e+003, 4.343265e-003
1.465635e+003, 4.532587e-003
1.467563e+003, 4.752560e-003
1.469492e+003, 4.879515e-003
1.471420e+003, 4.837080e-003
1.473349e+003, 4.616266e-003
1.475277e+003, 4.518901e-003
1.477205e+003, 4.444000e-003
1.479134e+003, 4.500589e-003
1.481062e+003, 4.696249e-003
1.482991e+003, 4.594278e-003
1.484919e+003, 4.385347e-003
1.486848e+003, 4.293632e-003
1.488776e+003, 4.448538e-003
1.490705e+003, 4.741245e-003
1.492633e+003, 4.740272e-003
1.494562e+003, 4.346907e-003
1.496490e+003, 4.238212e-003
1.498419e+003, 4.360842e-003
1.500347e+003, 4.389996e-003
1.502276e+003, 4.236876e-003
1.504204e+003, 3.900084e-003
1.506132e+003, 3.681859e-003
1.508061e+003, 3.725215e-003
1.509989e+003, 3.862513e-003
1.511918e+003, 4.048120e-003
1.513846e+003, 4.237059e-003
1.515775e+003, 4.278187e-003
1.517703e+003, 4.120115e-003
1.519632e+003, 4.173410e-003
1.521560e+003, 4.230446e-003
1.523489e+003, 4.522464e-003
1.525417e+003, 4.549850e-003
1.527346e+003, 4.289242e-003
1.529274e+003, 4.172145e-003
1.531203e+003, 4.275386e-003
1.533131e+003, 4.322588e-003
1.535059e+003, 4.348850e-003
1.536988e+003, 4.169853e-003
1.538916e+003, 4.080600e-003
1.540845e+003, 3.910548e-003
1.542773e+003, 3.829197e-003
1.544702e+003, 3.995846e-003
1.546630e+003, 3.988075e-003
1.548559e+003, 4.215596e-003
1.550487e+003, 4.342256e-003
1.552416e+003, 4.143528e-003
1.554344e+003, 4.346685e-003
1.556273e+003, 4.550515e-003
1.558201e+003, 4.472562e-003
1.560130e+003, 4.655764e-003
1.562058e+003, 4.806035e-003
1.563986e+003, 4.805569e-003
1.565915e+003, 5.111048e-003
1.567843e+003, 5.219322e-003
1.569772e+003, 5.120015e-003
1.571700e+003, 5.128027e-003
1.573629e+003, 4.983275e-003
1.575557e+003, 4.837571e-003
1.577486e+003, 4.905790e-003
1.579414e+003, 5.240512e-003
1.581343e+003, 5.601203e-003
1.583271e+003, 5.782026e-003
1.585200e+003, 5.708640e-003
1.587128e+003, 5.801214e-003
1.589057e+003, 6.255440e-003
1.590985e+003, 6.354069e-003
1.592913e+003, 6.208712e-003
1.594842e+003, 6.013192e-003
1.596770e+003, 5.939501e-003
1.598699e+003, 6.110468e-003
1.600627e+003, 6.139521e-003
1.602556e+003, 6.108834e-003
1.604484e+003, 6.281523e-003
1.606413e+003, 6.306648e-003
1.608341e+003, 6.487881e-003
1.610270e+003, 6.635618e-003
1.612198e+003, 6.565334e-003
1.614127e+003, 6.424493e-003
1.616055e+003, 6.669711e-003
1.617984e+003, 6.680046e-003
1.619912e+003, 6.570420e-003
1.621840e+003, 6.384457e-003
1.623769e+003, 6.368613e-003
1.625697e+003, 6.455071e-003
1.627626e+003, 6.670091e-003
1.629554e+003, 6.516111e-003
1.631483e+003, 6.391021e-003
1.633411e+003, 6.084288e-003
1.635340e+003, 5.668584e-003
1.637268e+003, 5.586438e-003
1.639197e+003, 5.846852e-003
1.641125e+003, 6.030560e-003
1.643054e+003, 6.159623e-003
1.644982e+003, 6.090507e-003
1.646911e+003, 5.919984e-003
1.648839e+003, 5.782128e-003
1.650767e+003, 5.789075e-003
1.652696e+003, 5.676999e-003
1.654624e+003, 5.667153e-003
1.656553e+003, 5.826597e-003
1.658481e+003, 5.984343e-003
1.660410e+003, 6.029054e-003
1.662338e+003, 6.186659e-003
1.664267e+003, 6.494954e-003
1.666195e+003, 6.535131e-003
1.668124e+003, 6.335839e-003
1.670052e+003, 6.489224e-003
1.671981e+003, 6.519005e-003
1.673909e+003, 6.133117e-003
1.675838e+003, 5.849945e-003
1.677766e+003, 6.167675e-003
1.679694e+003, 6.563424e-003
1.681623e+003, 6.441614e-003
1.683551e+003, 6.340600e-003
1.685480e+003, 6.436957e-003
1.687408e+003, 6.256187e-003
1.689337e+003, 6.231158e-003
1.691265e+003, 6.486277e-003
1.693194e+003, 6.714520e-003
1.695122e+003, 6.235933e-003
1.697051e+003, 5.772707e-003
1.698979e+003, 6.103172e-003
1.700908e+003, 6.051237e-003
1.702836e+003, 5.873544e-003
1.704765e+003, 6.083009e-003
1.706693e+003, 6.259530e-003
1.708621e+003, 6.284354e-003
1.710550e+003, 6.224703e-003
1.712478e+003, 5.984472e-003
1.714407e+003, 5.745361e-003
1.716335e+003, 5.784463e-003
1.718264e+003, 6.077688e-003
1.720192e+003, 6.321589e-003
1.722121e+003, 6.355201e-003
1.724049e+003, 6.185345e-003
1.725978e+003, 6.283788e-003
1.727906e+003, 6.067307e-003
1.729835e+003, 5.521846e-003
1.731763e+003, 5.070839e-003
1.733692e+003, 5.119768e-003
1.735620e+003, 5.234366e-003
1.737548e+003, 5.166978e-003
1.739477e+003, 4.644082e-003
1.741405e+003, 4.279615e-003
1.743334e+003, 4.458721e-003
1.745262e+003, 4.439539e-003
1.747191e+003, 4.285236e-003
1.749119e+003, 4.469482e-003
1.751048e+003, 4.573097e-003
1.752976e+003, 4.269766e-003
1.754905e+003, 4.565704e-003
1.756833e+003, 4.851104e-003
1.758762e+003, 5.019966e-003
1.760690e+003, 5.180894e-003
1.762619e+003, 5.272382e-003
1.764547e+003, 5.500240e-003
1.766475e+003, 5.392263e-003
1.768404e+003, 5.231446e-003
1.770332e+003, 5.183571e-003
1.772261e+003, 4.930915e-003
1.774189e+003, 5.255246e-003
1.776118e+003, 5.294525e-003
1.778046e+003, 5.030119e-003
1.779975e+003, 5.103934e-003
1.781903e+003, 5.188040e-003
1.783832e+003, 5.606036e-003
1.785760e+003, 5.730005e-003
1.787689e+003, 5.358542e-003
1.789617e+003, 5.278141e-003
1.791546e+003, 5.458330e-003
1.793474e+003, 5.165198e-003
1.795402e+003, 5.009094e-003
1.797331e+003, 5.264390e-003
1.799259e+003, 5.325996e-003
1.801188e+003, 5.531862e-003
1.803116e+003, 5.792231e-003
1.805045e+003, 5.724212e-003
1.806973e+003, 5.421152e-003
1.808902e+003, 4.932522e-003
1.810830e+003, 4.783941e-003
1.812759e+003, 5.125056e-003
1.814687e+003, 4.981183e-003
1.816616e+003, 4.546518e-003
1.818544e+003, 4.917605e-003
1.820473e+003, 5.431957e-003
1.822401e+003, 5.201991e-003
1.824329e+003, 4.983652e-003
1.826258e+003, 5.138271e-003
1.828186e+003, 5.263016e-003
1.830115e+003, 4.957972e-003
1.832043e+003, 4.634857e-003
1.833972e+003, 4.324313e-003
1.835900e+003, 4.328610e-003
1.837829e+003, 4.473885e-003
1.839757e+003, 4.782947e-003
1.841686e+003, 4.862885e-003
1.843614e+003, 4.307800e-003
1.845543e+003, 4.432292e-003
1.847471e+003, 4.653200e-003
1.849400e+003, 4.732313e-003
1.851328e+003, 4.550165e-003
1.853256e+003, 4.246898e-003
1.855185e+003, 4.669301e-003
1.857113e+003, 4.775374e-003
1.859042e+003, 4.555889e-003
1.860970e+003, 4.707962e-003
1.862899e+003, 4.809370e-003
1.864827e+003, 4.925502e-003
1.866756e+003, 5.154158e-003
1.868684e+003, 5.042948e-003
1.870613e+003, 4.387143e-003
1.872541e+003, 4.418981e-003
1.874470e+003, 4.893933e-003
1.876398e+003, 4.957831e-003
1.878327e+003, 4.872252e-003
1.880255e+003, 5.307596e-003
1.882183e+003, 5.354194e-003
1.884112e+003, 4.464509e-003
1.886040e+003, 4.120052e-003
1.887969e+003, 4.361283e-003
1.889897e+003, 3.845786e-003
1.891826e+003, 3.220876e-003
1.893754e+003, 3.373073e-003
1.895683e+003, 3.895307e-003
1.897611e+003, 3.888074e-003
1.899540e+003, 3.077845e-003
1.901468e+003, 2.856540e-003
1.903397e+003, 3.314285e-003
1.905325e+003, 3.791147e-003
1.907254e+003, 4.211097e-003
1.909182e+003, 3.965240e-003
1.911110e+003, 3.137269e-003
1.913039e+003, 3.635314e-003
1.914967e+003, 3.441251e-003
1.916896e+003, 2.391872e-003
1.918824e+003, 2.393162e-003
1.920753e+003, 2.545772e-003
1.922681e+003, 1.863874e-003
1.924610e+003, 1.339462e-003
1.926538e+003, 1.396826e-003
1.928467e+003, 1.356274e-003
1.930395e+003, 1.541449e-003
1.932324e+003, 2.431195e-003
1.934252e+003, 2.379085e-003
1.936181e+003, 2.253603e-003
1.938109e+003, 4.961227e-004
1.940037e+003, -1.435786e-004
1.941966e+003, 6.604473e-004
1.943894e+003, 1.056950e-003
1.945823e+003, 3.969938e-004
1.947751e+003, -2.617916e-004
1.949680e+003, -1.583835e-003
1.951608e+003, -1.756680e-003
1.953537e+003, 2.465241e-004
1.955465e+003, 1.177763e-003
1.957394e+003, -3.353644e-004
1.959322e+003, -6.580108e-005
1.961251e+003, -7.132522e-005
1.963179e+003, -1.423902e-003
1.965108e+003, -5.376005e-004
1.967036e+003, 2.214411e-004
1.968964e+003, -2.191843e-003
1.970893e+003, -3.872566e-003
1.972821e+003, -2.891848e-003
1.974750e+003, -3.204792e-003
1.976678e+003, -1.839624e-003
1.978607e+003, 2.252151e-003
1.980535e+003, 2.096173e-003
1.982464e+003, 4.809155e-004
1.984392e+003, 5.247084e-004
1.986321e+003, 7.221964e-004
1.988249e+003, 3.178538e-004
1.990178e+003, -4.086685e-004
1.992106e+003, 3.226183e-005
1.994035e+003, -1.376184e-004
1.995963e+003, -6.987037e-004
1.997891e+003, -1.136162e-003
1.999820e+003, -2.389805e-003
2.001748e+003, -2.693843e-003
2.003677e+003, -1.119199e-003
2.005605e+003, -1.193242e-003
2.007534e+003, -1.789991e-003
2.009462e+003, -2.424814e-003
2.011391e+003, -6.491287e-004
2.013319e+003, 1.220926e-003
2.015248e+003, 1.546373e-004
2.017176e+003, -2.930616e-003
2.019105e+003, -2.977626e-003
2.021033e+003, -3.844290e-003
2.022962e+003, -4.808434e-003
2.024890e+003, -4.070735e-003
2.026818e+003, -1.719838e-003
2.028747e+003, -1.900874e-003
2.030675e+003, -2.583052e-003
2.032604e+003, -8.793246e-004
2.034532e+003, 8.778127e-004
2.036461e+003, 1.800120e-003
2.038389e+003, 1.331626e-003
2.040318e+003, -6.522415e-004
2.042246e+003, -1.024581e-003
2.044175e+003, 3.747872e-004
2.046103e+003, 7.632766e-004
2.048032e+003, 1.475470e-003
2.049960e+003, 2.497302e-003
2.051889e+003, 2.089435e-003
2.053817e+003, 1.561500e-003
2.055746e+003, 1.678290e-003
2.057674e+003, 1.823036e-003
2.059603e+003, 2.767502e-003
2.061531e+003, 2.425343e-003
2.063459e+003, 1.570201e-003
2.065388e+003, 8.443529e-004
2.067316e+003, 1.297015e-003
2.069245e+003, 2.877116e-003
2.071173e+003, 3.763455e-003
2.073102e+003, 3.227488e-003
2.075030e+003, 4.047609e-003
2.076959e+003, 3.727343e-003
2.078887e+003, 3.081265e-003
2.080816e+003, 3.374637e-003
2.082744e+003, 3.858385e-003
2.084673e+003, 3.998561e-003
2.086601e+003, 3.846158e-003
2.088530e+003, 2.784078e-003
2.090458e+003, 3.115549e-003
2.092386e+003, 2.987565e-003
2.094315e+003, 1.723512e-003
2.096243e+003, 2.438276e-003
2.098172e+003, 3.366614e-003
2.100100e+003, 3.266306e-003
2.102029e+003, 3.675098e-003
2.103957e+003, 3.539720e-003
2.105886e+003, 3.405130e-003
2.107814e+003, 3.108707e-003
2.109743e+003, 3.708148e-003
2.111671e+003, 2.982461e-003
2.113600e+003, 1.733765e-003
2.115528e+003, 1.431190e-003
2.117457e+003, 1.046309e-003
2.119385e+003, 1.048197e-003
2.121313e+003, 1.641980e-003
2.123242e+003, 1.584684e-003
2.125170e+003, 1.825266e-003
2.127099e+003, 1.625530e-003
2.129027e+003, 6.634434e-004
2.130956e+003, -2.380915e-004
2.132884e+003, -5.256949e-004
2.134813e+003, -9.759566e-004
2.136741e+003, -8.069123e-004
2.138670e+003, 1.878094e-004
2.140598e+003, 7.900481e-005
2.142527e+003, -1.887428e-004
2.144455e+003, 9.558832e-004
2.146384e+003, -1.110334e-003
2.148312e+003, -3.263658e-003
2.150240e+003, -3.982150e-003
2.152169e+003, -5.090497e-003
2.154097e+003, -4.168696e-003
2.156026e+003, -5.966716e-003
2.157954e+003, -4.072489e-003
2.159883e+003, 1.914778e-003
2.161811e+003, 2.667437e-003
2.163740e+003, 1.770820e-003
2.165668e+003, 1.837240e-003
2.167597e+003, 5.675963e-004
2.169525e+003, -1.908554e-003
2.171454e+003, -2.517596e-003
2.173382e+003, -2.575880e-003
2.175311e+003, -8.200231e-005
2.177239e+003, 1.875364e-003
2.179167e+003, -7.639537e-004
2.181096e+003, -1.692020e-003
2.183024e+003, 5.601712e-004
2.184953e+003, 1.212659e-003
2.186881e+003, 2.793662e-003
2.188810e+003, 3.039212e-003
2.190738e+003, 2.470919e-003
2.192667e+003, 3.944073e-003
2.194595e+003, 2.412781e-003
2.196524e+003, 3.000030e-004
2.198452e+003, 1.170274e-003
2.200381e+003, 1.889252e-003
2.202309e+003, 8.061666e-004
2.204238e+003, -4.057089e-004
2.206166e+003, 4.520566e-004
2.208094e+003, 1.990331e-004
2.210023e+003, 5.901830e-004
2.211951e+003, 1.618250e-003
2.213880e+003, 2.693805e-003
2.215808e+003, 1.362029e-003
2.217737e+003, 1.272977e-003
2.219665e+003, 3.386038e-003
2.221594e+003, 2.889588e-003
2.223522e+003, 2.028217e-003
2.225451e+003, 2.937848e-003
2.227379e+003, 3.314940e-003
2.229308e+003, 2.821776e-003
2.231236e+003, 2.889194e-003
2.233165e+003, 4.700251e-003
2.235093e+003, 5.619408e-003
2.237021e+003, 3.795797e-003
2.238950e+003, 3.458280e-003
2.240878e+003, 3.687444e-003
2.242807e+003, 2.313674e-003
2.244735e+003, 2.672842e-003
2.246664e+003, 4.423330e-003
2.248592e+003, 4.370926e-003
2.250521e+003, 3.930610e-003
2.252449e+003, 3.923383e-003
2.254378e+003, 3.424949e-003
2.256306e+003, 4.311570e-003
2.258235e+003, 5.154692e-003
2.260163e+003, 4.829933e-003
2.262092e+003, 4.841698e-003
2.264020e+003, 5.556039e-003
2.265948e+003, 6.218112e-003
2.267877e+003, 5.950393e-003
2.269805e+003, 5.760615e-003
2.271734e+003, 6.147456e-003
2.273662e+003, 7.062376e-003
2.275591e+003, 7.451354e-003
2.277519e+003, 6.279556e-003
2.279448e+003, 6.036859e-003
2.281376e+003, 7.660171e-003
2.283305e+003, 8.271574e-003
2.285233e+003, 8.102999e-003
2.287162e+003, 7.582121e-003
2.289090e+003, 7.502875e-003
2.291019e+003, 7.715829e-003
2.292947e+003, 7.462364e-003
2.294875e+003, 7.143794e-003
2.296804e+003, 7.599721e-003
2.298732e+003, 7.500622e-003
2.300661e+003, 7.583466e-003
2.302589e+003, 8.485926e-003
2.304518e+003, 8.441838e-003
2.306446e+003, 8.357576e-003
2.308375e+003, 8.292138e-003
2.310303e+003, 8.479370e-003
2.312232e+003, 8.749977e-003
2.314160e+003, 8.932782e-003
2.316089e+003, 9.053456e-003
2.318017e+003, 9.070721e-003
2.319946e+003, 9.260667e-003
2.321874e+003, 9.351818e-003
2.323802e+003, 9.400565e-003
2.325731e+003, 7.985045e-003
2.327659e+003, 7.191406e-003
2.329588e+003, 7.422407e-003
2.331516e+003, 7.221260e-003
2.333445e+003, 7.456492e-003
2.335373e+003, 8.061228e-003
2.337302e+003, 7.740264e-003
2.339230e+003, 7.305518e-003
2.341159e+003, 6.954554e-003
2.343087e+003, 7.214618e-003
2.345016e+003, 7.868169e-003
2.346944e+003, 7.984357e-003
2.348873e+003, 7.571924e-003
2.350801e+003, 7.058478e-003
2.352729e+003, 7.124366e-003
2.354658e+003, 7.295711e-003
2.356586e+003, 7.228422e-003
2.358515e+003, 7.642312e-003
2.360443e+003, 8.436136e-003
2.362372e+003, 8.163620e-003
2.364300e+003, 7.233587e-003
2.366229e+003, 7.224695e-003
2.368157e+003, 7.225619e-003
2.370086e+003, 6.450722e-003
2.372014e+003, 6.574239e-003
2.373942e+003, 6.730364e-003
2.375871e+003, 6.706280e-003
2.377799e+003, 7.079175e-003
2.379728e+003, 6.851448e-003
2.381656e+003, 7.494184e-003
2.383585e+003, 7.994451e-003
2.385513e+003, 6.660174e-003
2.387442e+003, 6.166643e-003
2.389370e+003, 6.856035e-003
2.391299e+003, 7.470123e-003
2.393227e+003, 7.199126e-003
2.395156e+003, 6.457452e-003
2.397084e+003, 6.715734e-003
2.399012e+003, 7.224090e-003
2.400941e+003, 7.565704e-003
2.402869e+003, 8.006223e-003
2.404798e+003, 8.392078e-003
2.406726e+003, 8.290370e-003
2.408655e+003, 7.899517e-003
2.410583e+003, 7.658263e-003
2.412512e+003, 6.910492e-003
2.414440e+003, 6.829438e-003
2.416369e+003, 7.593607e-003
2.418297e+003, 7.459986e-003
2.420226e+003, 7.301164e-003
2.422154e+003, 7.513109e-003
2.424083e+003, 7.221738e-003
2.426011e+003, 6.911980e-003
2.427939e+003, 8.057900e-003
2.429868e+003, 9.354073e-003
2.431796e+003, 8.956580e-003
2.433725e+003, 8.098102e-003
2.435653e+003, 8.476153e-003
2.437582e+003, 8.830685e-003
2.439510e+003, 8.863633e-003
2.441439e+003, 8.985458e-003
2.443367e+003, 8.486911e-003
2.445296e+003, 9.006142e-003
2.447224e+003, 8.551341e-003
2.449153e+003, 7.840265e-003
2.451081e+003, 7.885368e-003
2.453010e+003, 8.157948e-003
2.454938e+003, 8.454444e-003
2.456866e+003, 8.499095e-003
2.458795e+003, 8.134572e-003
2.460723e+003, 8.876342e-003
2.462652e+003, 9.405803e-003
2.464580e+003, 8.622056e-003
2.466509e+003, 7.374722e-003
2.468437e+003, 7.010722e-003
2.470366e+003, 7.503932e-003
2.472294e+003, 8.109557e-003
2.474223e+003, 8.787557e-003
2.476151e+003, 8.010169e-003
2.478080e+003, 7.276542e-003
2.480008e+003, 8.048092e-003
2.481937e+003, 7.969831e-003
2.483865e+003, 7.673490e-003
2.485793e+003, 8.236424e-003
2.487722e+003, 8.684874e-003
2.489650e+003, 8.177089e-003
2.491579e+003, 8.453387e-003
2.493507e+003, 8.186502e-003
2.495436e+003, 7.392284e-003
2.497364e+003, 8.052607e-003
2.499293e+003, 8.838811e-003
2.501221e+003, 8.491525e-003
2.503150e+003, 7.634349e-003
2.505078e+003, 7.471667e-003
2.507007e+003, 8.337276e-003
2.508935e+003, 9.069430e-003
2.510864e+003, 8.752045e-003
2.512792e+003, 7.863955e-003
2.514720e+003, 7.137171e-003
2.516649e+003, 7.614144e-003
2.518577e+003, 7.898701e-003
2.520506e+003, 7.218027e-003
2.522434e+003, 7.857561e-003
2.524363e+003, 8.181677e-003
2.526291e+003, 7.432175e-003
2.528220e+003, 7.436103e-003
2.530148e+003, 7.964084e-003
2.532077e+003, 8.436551e-003
2.534005e+003, 8.133858e-003
2.535934e+003, 8.096646e-003
2.537862e+003, 8.166023e-003
2.539791e+003, 8.305119e-003
2.541719e+003, 8.635375e-003
2.543647e+003, 9.015147e-003
2.545576e+003, 9.454448e-003
2.547504e+003, 8.876922e-003
2.549433e+003, 8.769286e-003
2.551361e+003, 9.574303e-003
2.553290e+003, 9.207606e-003
2.555218e+003, 9.135162e-003
2.557147e+003, 9.409301e-003
2.559075e+003, 9.221190e-003
2.561004e+003, 9.444761e-003
2.562932e+003, 9.645406e-003
2.564861e+003, 9.235177e-003
2.566789e+003, 9.162261e-003
2.568718e+003, 9.183777e-003
2.570646e+003, 8.119660e-003
2.572574e+003, 8.095104e-003
2.574503e+003, 8.433612e-003
2.576431e+003, 8.924564e-003
2.578360e+003, 9.385298e-003
2.580288e+003, 9.710941e-003
2.582217e+003, 8.987474e-003
2.584145e+003, 8.168882e-003
2.586074e+003, 8.666939e-003
2.588002e+003, 9.475324e-003
2.589931e+003, 8.985815e-003
2.591859e+003, 8.895742e-003
2.593788e+003, 9.256884e-003
2.595716e+003, 8.860489e-003
2.597645e+003, 8.779427e-003
2.599573e+003, 9.494169e-003
2.601501e+003, 1.006132e-002
2.603430e+003, 9.513733e-003
2.605358e+003, 8.897112e-003
2.607287e+003, 9.564284e-003
2.609215e+003, 9.931389e-003
2.611144e+003, 9.715111e-003
2.613072e+003, 1.009690e-002
2.615001e+003, 1.045353e-002
2.616929e+003, 9.986429e-003
2.618858e+003, 9.882742e-003
2.620786e+003, 1.014328e-002
2.622715e+003, 9.359431e-003
2.624643e+003, 9.327802e-003
2.626572e+003, 9.702906e-003
2.628500e+003, 9.898284e-003
2.630428e+003, 9.348354e-003
2.632357e+003, 8.967508e-003
2.634285e+003, 9.913307e-003
2.636214e+003, 1.043561e-002
2.638142e+003, 1.008448e-002
2.640071e+003, 1.033645e-002
2.641999e+003, 1.093063e-002
2.643928e+003, 1.132583e-002
2.645856e+003, 1.101269e-002
2.647785e+003, 1.042779e-002
2.649713e+003, 1.046107e-002
2.651642e+003, 1.047921e-002
2.653570e+003, 1.049470e-002
2.655499e+003, 1.026447e-002
2.657427e+003, 9.762686e-003
2.659355e+003, 9.629028e-003
2.661284e+003, 9.654129e-003
2.663212e+003, 9.839474e-003
2.665141e+003, 9.476084e-003
2.667069e+003, 9.598628e-003
2.668998e+003, 9.460240e-003
2.670926e+003, 9.107421e-003
2.672855e+003, 9.127450e-003
2.674783e+003, 8.987973e-003
2.676712e+003, 8.995222e-003
2.678640e+003, 8.953138e-003
2.680569e+003, 8.704645e-003
2.682497e+003, 8.618074e-003
2.684426e+003, 8.883212e-003
2.686354e+003, 9.667586e-003
2.688282e+003, 1.010681e-002
2.690211e+003, 1.034886e-002
2.692139e+003, 1.015763e-002
2.694068e+003, 9.736395e-003
2.695996e+003, 9.078470e-003
2.697925e+003, 8.644102e-003
2.699853e+003, 9.478370e-003
2.701782e+003, 1.001544e-002
2.703710e+003, 9.790525e-003
2.705639e+003, 9.788334e-003
2.707567e+003, 9.823105e-003
2.709496e+003, 9.804718e-003
2.711424e+003, 9.180894e-003
2.713353e+003, 8.416308e-003
2.715281e+003, 9.024405e-003
2.717209e+003, 9.823504e-003
2.719138e+003, 9.834368e-003
2.721066e+003, 9.627491e-003
2.722995e+003, 9.605275e-003
2.724923e+003, 1.001538e-002
2.726852e+003, 1.052799e-002
2.728780e+003, 1.015421e-002
2.730709e+003, 9.536386e-003
2.732637e+003, 9.466911e-003
2.734566e+003, 9.701960e-003
2.736494e+003, 9.559711e-003
2.738423e+003, 9.693915e-003
2.740351e+003, 9.292864e-003
2.742280e+003, 8.268159e-003
2.744208e+003, 8.683335e-003
2.746136e+003, 9.710672e-003
2.748065e+003, 9.954376e-003
2.749993e+003, 9.913148e-003
2.751922e+003, 9.733648e-003
2.753850e+003, 9.730868e-003
2.755779e+003, 9.992987e-003
2.757707e+003, 9.863081e-003
2.759636e+003, 9.875455e-003
2.761564e+003, 9.780952e-003
2.763493e+003, 9.960215e-003
2.765421e+003, 9.974940e-003
2.767350e+003, 1.001692e-002
2.769278e+003, 1.021042e-002
2.771207e+003, 9.984958e-003
2.773135e+003, 9.483597e-003
2.775063e+003, 9.921480e-003
2.776992e+003, 1.033123e-002
2.778920e+003, 9.928302e-003
2.780849e+003, 1.007008e-002
2.782777e+003, 1.004252e-002
2.784706e+003, 9.980681e-003
2.786634e+003, 9.250755e-003
2.788563e+003, 9.455275e-003
2.790491e+003, 1.001120e-002
2.792420e+003, 1.026949e-002
2.794348e+003, 1.018573e-002
2.796277e+003, 9.799683e-003
2.798205e+003, 9.591090e-003
2.800134e+003, 9.615563e-003
2.802062e+003, 1.023385e-002
2.803990e+003, 1.021440e-002
2.805919e+003, 9.715365e-003
2.807847e+003, 9.574953e-003
2.809776e+003, 9.812877e-003
2.811704e+003, 1.009401e-002
2.813633e+003, 1.016053e-002
2.815561e+003, 1.054775e-002
2.817490e+003, 1.062519e-002
2.819418e+003, 1.009783e-002
2.821347e+003, 9.972835e-003
2.823275e+003, 1.051632e-002
2.825204e+003, 1.088907e-002
2.827132e+003, 1.089361e-002
2.829061e+003, 1.060874e-002
2.830989e+003, 1.058039e-002
2.832917e+003, 1.032583e-002
2.834846e+003, 9.949623e-003
2.836774e+003, 1.022897e-002
2.838703e+003, 1.088143e-002
2.840631e+003, 1.097747e-002
2.842560e+003, 1.103283e-002
2.844488e+003, 1.141186e-002
2.846417e+003, 1.103398e-002
2.848345e+003, 1.073842e-002
2.850274e+003, 1.105566e-002
2.852202e+003, 1.163059e-002
2.854131e+003, 1.179975e-002
2.856059e+003, 1.139373e-002
2.857988e+003, 1.054282e-002
2.859916e+003, 9.823319e-003
2.861844e+003, 1.006820e-002
2.863773e+003, 1.050208e-002
2.865701e+003, 1.069618e-002
2.867630e+003, 1.079218e-002
2.869558e+003, 1.135313e-002
2.871487e+003, 1.148768e-002
2.873415e+003, 1.127812e-002
2.875344e+003, 1.121417e-002
2.877272e+003, 1.111622e-002
2.879201e+003, 1.131390e-002
2.881129e+003, 1.091645e-002
2.883058e+003, 1.085555e-002
2.884986e+003, 1.127146e-002
2.886915e+003, 1.074574e-002
2.888843e+003, 1.106281e-002
2.890771e+003, 1.164967e-002
2.892700e+003, 1.216856e-002
2.894628e+003, 1.201106e-002
2.896557e+003, 1.226311e-002
2.898485e+003, 1.217243e-002
2.900414e+003, 1.142059e-002
2.902342e+003, 1.112341e-002
2.904271e+003, 1.131595e-002
2.906199e+003, 1.141169e-002
2.908128e+003, 1.201680e-002
2.910056e+003, 1.202234e-002
2.911985e+003, 1.188872e-002
2.913913e+003, 1.225333e-002
2.915842e+003, 1.229372e-002
2.917770e+003, 1.198216e-002
2.919698e+003, 1.220925e-002
2.921627e+003, 1.214137e-002
2.923555e+003, 1.238337e-002
2.925484e+003, 1.239438e-002
2.927412e+003, 1.221766e-002
2.929341e+003, 1.180366e-002
2.931269e+003, 1.166662e-002
2.933198e+003, 1.115643e-002
2.935126e+003, 1.098961e-002
2.937055e+003, 1.149548e-002
2.938983e+003, 1.101361e-002
2.940912e+003, 1.046027e-002
2.942840e+003, 1.084564e-002
2.944769e+003, 1.100187e-002
2.946697e+003, 1.117996e-002
2.948625e+003, 1.091251e-002
2.950554e+003, 1.061984e-002
2.952482e+003, 1.050758e-002
2.954411e+003, 1.094889e-002
2.956339e+003, 1.117246e-002
2.958268e+003, 1.100733e-002
2.960196e+003, 1.037575e-002
2.962125e+003, 1.017193e-002
2.964053e+003, 1.085440e-002
2.965982e+003, 1.185860e-002
2.967910e+003, 1.166786e-002
2.969839e+003, 1.114725e-002
2.971767e+003, 1.112929e-002
2.973696e+003, 1.150840e-002
2.975624e+003, 1.126236e-002
2.977552e+003, 1.085307e-002
2.979481e+003, 1.121476e-002
2.981409e+003, 1.161269e-002
2.983338e+003, 1.134342e-002
2.985266e+003, 1.146382e-002
2.987195e+003, 1.107545e-002
2.989123e+003, 1.115699e-002
2.991052e+003, 1.140162e-002
2.992980e+003, 1.170574e-002
2.994909e+003, 1.159788e-002
2.996837e+003, 1.090404e-002
2.998766e+003, 1.080092e-002
3.000694e+003, 1.153456e-002
3.002623e+003, 1.183225e-002
3.004551e+003, 1.150935e-002
3.006479e+003, 1.071000e-002
3.008408e+003, 1.117244e-002
3.010336e+003, 1.149074e-002
3.012265e+003, 1.048181e-002
3.014193e+003, 1.089587e-002
3.016122e+003, 1.095600e-002
3.018050e+003, 1.043603e-002
3.019979e+003, 1.088851e-002
3.021907e+003, 1.081608e-002
3.023836e+003, 1.137131e-002
3.025764e+003, 1.119176e-002
3.027693e+003, 1.077809e-002
3.029621e+003, 1.144503e-002
3.031550e+003, 1.160295e-002
3.033478e+003, 1.097823e-002
3.035406e+003, 1.064205e-002
3.037335e+003, 1.061467e-002
3.039263e+003, 1.026062e-002
3.041192e+003, 1.036781e-002
3.043120e+003, 9.867005e-003
3.045049e+003, 9.453195e-003
3.046977e+003, 9.697966e-003
3.048906e+003, 9.534223e-003
3.050834e+003, 9.651990e-003
3.052763e+003, 1.032444e-002
3.054691e+003, 1.087929e-002
3.056620e+003, 1.086521e-002
3.058548e+003, 1.133901e-002
3.060477e+003, 1.172279e-002
3.062405e+003, 1.150755e-002
3.064333e+003, 1.154224e-002
3.066262e+003, 1.159403e-002
3.068190e+003, 1.246289e-002
3.070119e+003, 1.227637e-002
3.072047e+003, 1.175466e-002
3.073976e+003, 1.199094e-002
3.075904e+003, 1.152581e-002
3.077833e+003, 1.193356e-002
3.079761e+003, 1.256283e-002
3.081690e+003, 1.210704e-002
3.083618e+003, 1.167128e-002
3.085547e+003, 1.122692e-002
3.087475e+003, 1.161047e-002
3.089404e+003, 1.232292e-002
3.091332e+003, 1.243898e-002
3.093260e+003, 1.253928e-002
3.095189e+003, 1.204705e-002
3.097117e+003, 1.120502e-002
3.099046e+003, 1.132306e-002
3.100974e+003, 1.214908e-002
3.102903e+003, 1.202276e-002
3.104831e+003, 1.131928e-002
3.106760e+003, 1.139202e-002
3.108688e+003, 1.155613e-002
3.110617e+003, 1.105238e-002
3.112545e+003, 1.124322e-002
3.114474e+003, 1.257991e-002
3.116402e+003, 1.200465e-002
3.118331e+003, 1.127280e-002
3.120259e+003, 1.236811e-002
3.122188e+003, 1.261426e-002
3.124116e+003, 1.184092e-002
3.126044e+003, 1.117955e-002
3.127973e+003, 1.101023e-002
3.129901e+003, 1.135804e-002
3.131830e+003, 1.144234e-002
3.133758e+003, 1.098466e-002
3.135687e+003, 1.144166e-002
3.137615e+003, 1.212435e-002
3.139544e+003, 1.294966e-002
3.141472e+003, 1.294029e-002
3.143401e+003, 1.289489e-002
3.145329e+003, 1.256796e-002
3.147258e+003, 1.238728e-002
3.149186e+003, 1.245933e-002
3.151115e+003, 1.242650e-002
3.153043e+003, 1.300504e-002
3.154971e+003, 1.311475e-002
3.156900e+003, 1.255582e-002
3.158828e+003, 1.214000e-002
3.160757e+003, 1.265490e-002
3.162685e+003, 1.400670e-002
3.164614e+003, 1.387850e-002
3.166542e+003, 1.315046e-002
3.168471e+003, 1.244485e-002
3.170399e+003, 1.192403e-002
3.172328e+003, 1.276753e-002
3.174256e+003, 1.355398e-002
3.176185e+003, 1.308851e-002
3.178113e+003, 1.223109e-002
3.180042e+003, 1.176948e-002
3.181970e+003, 1.277971e-002
3.183898e+003, 1.327842e-002
3.185827e+003, 1.296170e-002
3.187755e+003, 1.268389e-002
3.189684e+003, 1.265282e-002
3.191612e+003, 1.298622e-002
3.193541e+003, 1.362607e-002
3.195469e+003, 1.361426e-002
3.197398e+003, 1.251086e-002
3.199326e+003, 1.289784e-002
3.201255e+003, 1.391609e-002
3.203183e+003, 1.352606e-002
3.205112e+003, 1.261889e-002
3.207040e+003, 1.285408e-002
3.208969e+003, 1.248517e-002
3.210897e+003, 1.131233e-002
3.212825e+003, 1.245414e-002
3.214754e+003, 1.326550e-002
3.216682e+003, 1.300909e-002
3.218611e+003, 1.278450e-002
3.220539e+003, 1.303753e-002
3.222468e+003, 1.372476e-002
3.224396e+003, 1.328392e-002
3.226325e+003, 1.381705e-002
3.228253e+003, 1.399477e-002
3.230182e+003, 1.382901e-002
3.232110e+003, 1.398707e-002
3.234039e+003, 1.379935e-002
3.235967e+003, 1.515200e-002
3.237896e+003, 1.623583e-002
3.239824e+003, 1.538465e-002
3.241752e+003, 1.414274e-002
3.243681e+003, 1.305971e-002
3.245609e+003, 1.245467e-002
3.247538e+003, 1.248362e-002
3.249466e+003, 1.381843e-002
3.251395e+003, 1.387765e-002
3.253323e+003, 1.320084e-002
3.255252e+003, 1.296413e-002
3.257180e+003, 1.362951e-002
3.259109e+003, 1.428452e-002
3.261037e+003, 1.430447e-002
3.262966e+003, 1.429852e-002
3.264894e+003, 1.386774e-002
3.266823e+003, 1.345919e-002
3.268751e+003, 1.453923e-002
3.270679e+003, 1.641749e-002
3.272608e+003, 1.638341e-002
3.274536e+003, 1.642878e-002
3.276465e+003, 1.547159e-002
3.278393e+003, 1.453620e-002
3.280322e+003, 1.424009e-002
3.282250e+003, 1.495131e-002
3.284179e+003, 1.512638e-002
3.286107e+003, 1.489054e-002
3.288036e+003, 1.435276e-002
3.289964e+003, 1.417327e-002
3.291893e+003, 1.411389e-002
3.293821e+003, 1.471343e-002
3.295750e+003, 1.647592e-002
3.297678e+003, 1.676913e-002
3.299606e+003, 1.625575e-002
3.301535e+003, 1.649608e-002
3.303463e+003, 1.601905e-002
3.305392e+003, 1.505630e-002
3.307320e+003, 1.474576e-002
3.309249e+003, 1.527090e-002
3.311177e+003, 1.514742e-002
3.313106e+003, 1.625825e-002
3.315034e+003, 1.571233e-002
3.316963e+003, 1.386744e-002
3.318891e+003, 1.470687e-002
3.320820e+003, 1.592202e-002
3.322748e+003, 1.554382e-002
3.324677e+003, 1.506812e-002
3.326605e+003, 1.452851e-002
3.328533e+003, 1.570253e-002
3.330462e+003, 1.622609e-002
3.332390e+003, 1.587368e-002
3.334319e+003, 1.558295e-002
3.336247e+003, 1.552675e-002
3.338176e+003, 1.642856e-002
3.340104e+003, 1.647474e-002
3.342033e+003, 1.634955e-002
3.343961e+003, 1.717204e-002
3.345890e+003, 1.803716e-002
3.347818e+003, 1.794020e-002
3.349747e+003, 1.726913e-002
3.351675e+003, 1.673965e-002
3.353604e+003, 1.655003e-002
3.355532e+003, 1.644069e-002
3.357460e+003, 1.709603e-002
3.359389e+003, 1.794520e-002
3.361317e+003, 1.887843e-002
3.363246e+003, 1.928243e-002
3.365174e+003, 1.844715e-002
3.367103e+003, 1.741170e-002
3.369031e+003, 1.728493e-002
3.370960e+003, 1.818129e-002
3.372888e+003, 1.818984e-002
3.374817e+003, 1.853058e-002
3.376745e+003, 1.935843e-002
3.378674e+003, 1.955364e-002
3.380602e+003, 1.938834e-002
3.382531e+003, 1.849632e-002
3.384459e+003, 1.915703e-002
3.386387e+003, 2.002366e-002
3.388316e+003, 1.969578e-002
3.390244e+003, 2.131967e-002
3.392173e+003, 2.157800e-002
3.394101e+003, 2.113914e-002
3.396030e+003, 2.063294e-002
3.397958e+003, 2.069260e-002
3.399887e+003, 2.118787e-002
3.401815e+003, 2.163378e-002
3.403744e+003, 2.150351e-002
3.405672e+003, 2.139575e-002
3.407601e+003, 2.143484e-002
3.409529e+003, 2.185757e-002
3.411458e+003, 2.268930e-002
3.413386e+003, 2.433733e-002
3.415314e+003, 2.441267e-002
3.417243e+003, 2.254212e-002
3.419171e+003, 2.162518e-002
3.421100e+003, 2.126156e-002
3.423028e+003, 2.204683e-002
3.424957e+003, 2.347206e-002
3.426885e+003, 2.298718e-002
3.428814e+003, 2.252340e-002
3.430742e+003, 2.108525e-002
3.432671e+003, 2.117723e-002
3.434599e+003, 2.241625e-002
3.436528e+003, 2.319194e-002
3.438456e+003, 2.278601e-002
3.440385e+003, 2.261875e-002
3.442313e+003, 2.311723e-002
3.444241e+003, 2.175347e-002
3.446170e+003, 2.053297e-002
3.448098e+003, 2.092061e-002
3.450027e+003, 2.061791e-002
3.451955e+003, 2.023250e-002
3.453884e+003, 2.015957e-002
3.455812e+003, 2.019423e-002
3.457741e+003, 2.001137e-002
3.459669e+003, 1.961188e-002
3.461598e+003, 2.043130e-002
3.463526e+003, 2.150955e-002
3.465455e+003, 1.981783e-002
3.467383e+003, 1.821565e-002
3.469312e+003, 1.910240e-002
3.471240e+003, 2.048631e-002
3.473168e+003, 1.971982e-002
3.475097e+003, 1.904945e-002
3.477025e+003, 1.909106e-002
3.478954e+003, 1.738211e-002
3.480882e+003, 1.613807e-002
3.482811e+003, 1.639905e-002
3.484739e+003, 1.702664e-002
3.486668e+003, 1.734046e-002
3.488596e+003, 1.632436e-002
3.490525e+003, 1.524200e-002
3.492453e+003, 1.507846e-002
3.494382e+003, 1.527684e-002
3.496310e+003, 1.598108e-002
3.498239e+003, 1.555285e-002
3.500167e+003, 1.396293e-002
3.502095e+003, 1.370772e-002
3.504024e+003, 1.354184e-002
3.505952e+003, 1.356591e-002
3.507881e+003, 1.509305e-002
3.509809e+003, 1.573745e-002
3.511738e+003, 1.436897e-002
3.513666e+003, 1.364336e-002
3.515595e+003, 1.365083e-002
3.517523e+003, 1.350466e-002
3.519452e+003, 1.347748e-002
3.521380e+003, 1.268491e-002
3.523309e+003, 1.259352e-002
3.525237e+003, 1.328635e-002
3.527166e+003, 1.347126e-002
3.529094e+003, 1.308008e-002
3.531022e+003, 1.293834e-002
3.532951e+003, 1.128887e-002
3.534879e+003, 1.105056e-002
3.536808e+003, 1.330936e-002
3.538736e+003, 1.382163e-002
3.540665e+003, 1.350799e-002
3.542593e+003, 1.321037e-002
3.544522e+003, 1.276330e-002
3.546450e+003, 1.392818e-002
3.548379e+003, 1.446295e-002
3.550307e+003, 1.305795e-002
3.552236e+003, 1.247728e-002
3.554164e+003, 1.269499e-002
3.556093e+003, 1.257580e-002
3.558021e+003, 1.356682e-002
3.559949e+003, 1.427456e-002
3.561878e+003, 1.425087e-002
3.563806e+003, 1.341584e-002
3.565735e+003, 1.254785e-002
3.567663e+003, 1.201406e-002
3.569592e+003, 1.230477e-002
3.571520e+003, 1.230187e-002
3.573449e+003, 1.317519e-002
3.575377e+003, 1.326622e-002
3.577306e+003, 1.244324e-002
3.579234e+003, 1.200300e-002
3.581163e+003, 1.233708e-002
3.583091e+003, 1.239607e-002
3.585020e+003, 1.300606e-002
3.586948e+003, 1.260776e-002
3.588876e+003, 1.189115e-002
3.590805e+003, 1.176117e-002
3.592733e+003, 1.187756e-002
3.594662e+003, 1.228396e-002
3.596590e+003, 1.255220e-002
3.598519e+003, 1.291017e-002
3.600447e+003, 1.268613e-002
3.602376e+003, 1.295859e-002
3.604304e+003, 1.239438e-002
3.606233e+003, 1.178938e-002
3.608161e+003, 1.253149e-002
3.610090e+003, 1.241389e-002
3.612018e+003, 1.287815e-002
3.613947e+003, 1.197011e-002
3.615875e+003, 1.061737e-002
3.617803e+003, 9.908605e-003
3.619732e+003, 1.014663e-002
3.621660e+003, 1.230498e-002
3.623589e+003, 1.363782e-002
3.625517e+003, 1.313031e-002
3.627446e+003, 1.293320e-002
3.629374e+003, 1.547731e-002
3.631303e+003, 1.644846e-002
3.633231e+003, 1.518343e-002
3.635160e+003, 1.509004e-002
3.637088e+003, 1.499840e-002
3.639017e+003, 1.211399e-002
3.640945e+003, 9.848803e-003
3.642874e+003, 1.220845e-002
3.644802e+003, 1.606673e-002
3.646730e+003, 1.623740e-002
3.648659e+003, 1.569531e-002
3.650587e+003, 1.404729e-002
3.652516e+003, 1.305813e-002
3.654444e+003, 1.253567e-002
3.656373e+003, 1.214542e-002
3.658301e+003, 1.168621e-002
3.660230e+003, 1.188097e-002
3.662158e+003, 1.202126e-002
3.664087e+003, 1.198583e-002
3.666015e+003, 1.120935e-002
3.667944e+003, 1.000617e-002
3.669872e+003, 1.227268e-002
3.671801e+003, 1.337377e-002
3.673729e+003, 1.077393e-002
3.675657e+003, 1.039203e-002
3.677586e+003, 1.154982e-002
3.679514e+003, 1.193630e-002
3.681443e+003, 1.322365e-002
3.683371e+003, 1.315532e-002
3.685300e+003, 1.220293e-002
3.687228e+003, 1.004903e-002
3.689157e+003, 7.983431e-003
3.691085e+003, 9.471785e-003
3.693014e+003, 1.139719e-002
3.694942e+003, 1.034425e-002
3.696871e+003, 9.746818e-003
3.698799e+003, 1.027979e-002
3.700728e+003, 9.632701e-003
3.702656e+003, 8.956383e-003
3.704584e+003, 7.967926e-003
3.706513e+003, 8.586998e-003
3.708441e+003, 9.159417e-003
3.710370e+003, 9.084611e-003
3.712298e+003, 8.943445e-003
3.714227e+003, 9.859530e-003
3.716155e+003, 1.073103e-002
3.718084e+003, 1.041250e-002
3.720012e+003, 1.031994e-002
3.721941e+003, 1.017378e-002
3.723869e+003, 1.000328e-002
3.725798e+003, 1.023426e-002
3.727726e+003, 9.989100e-003
3.729655e+003, 8.543830e-003
3.731583e+003, 8.368569e-003
3.733511e+003, 1.039205e-002
3.735440e+003, 1.022325e-002
3.737368e+003, 9.331034e-003
3.739297e+003, 9.882901e-003
3.741225e+003, 9.349635e-003
3.743154e+003, 9.511065e-003
3.745082e+003, 1.054093e-002
3.747011e+003, 9.176975e-003
3.748939e+003, 7.549006e-003
3.750868e+003, 7.643643e-003
3.752796e+003, 8.756047e-003
3.754725e+003, 1.027665e-002
3.756653e+003, 1.046681e-002
3.758582e+003, 9.176278e-003
3.760510e+003, 8.437946e-003
3.762438e+003, 1.010480e-002
3.764367e+003, 1.018996e-002
3.766295e+003, 1.006178e-002
3.768224e+003, 1.052968e-002
3.770152e+003, 1.096505e-002
3.772081e+003, 1.043233e-002
3.774009e+003, 9.777094e-003
3.775938e+003, 9.930040e-003
3.777866e+003, 1.035045e-002
3.779795e+003, 1.088199e-002
3.781723e+003, 1.105499e-002
3.783652e+003, 1.074371e-002
3.785580e+003, 1.123292e-002
3.787509e+003, 1.059906e-002
3.789437e+003, 9.544417e-003
3.791365e+003, 1.029022e-002
3.793294e+003, 9.419477e-003
3.795222e+003, 7.985718e-003
3.797151e+003, 9.068853e-003
3.799079e+003, 9.846921e-003
3.801008e+003, 1.102334e-002
3.802936e+003, 1.088089e-002
3.804865e+003, 1.047739e-002
3.806793e+003, 9.741441e-003
3.808722e+003, 1.008827e-002
3.810650e+003, 1.177656e-002
3.812579e+003, 1.293665e-002
3.814507e+003, 1.273209e-002
3.816436e+003, 1.260619e-002
3.818364e+003, 1.469965e-002
3.820292e+003, 1.450681e-002
3.822221e+003, 1.319904e-002
3.824149e+003, 1.384357e-002
3.826078e+003, 1.330717e-002
3.828006e+003, 1.033112e-002
3.829935e+003, 9.052375e-003
3.831863e+003, 9.097807e-003
3.833792e+003, 1.057334e-002
3.835720e+003, 1.167185e-002
3.837649e+003, 1.076095e-002
3.839577e+003, 1.095187e-002
3.841506e+003, 1.108492e-002
3.843434e+003, 1.105332e-002
3.845363e+003, 1.060057e-002
3.847291e+003, 1.002818e-002
3.849219e+003, 9.438760e-003
3.851148e+003, 9.292164e-003
3.853076e+003, 8.581303e-003
3.855005e+003, 8.244677e-003
3.856933e+003, 8.155764e-003
3.858862e+003, 9.679756e-003
3.860790e+003, 1.022797e-002
3.862719e+003, 1.006589e-002
3.864647e+003, 9.040744e-003
3.866576e+003, 9.073248e-003
3.868504e+003, 9.029061e-003
3.870433e+003, 7.120923e-003
3.872361e+003, 7.624174e-003
3.874290e+003, 1.050270e-002
3.876218e+003, 1.208100e-002
3.878146e+003, 1.096783e-002
3.880075e+003, 8.563950e-003
3.882003e+003, 9.570793e-003
3.883932e+003, 1.038409e-002
3.885860e+003, 9.388279e-003
3.887789e+003, 1.101076e-002
3.889717e+003, 1.257981e-002
3.891646e+003, 1.273416e-002
3.893574e+003, 1.005209e-002
3.895503e+003, 9.847228e-003
3.897431e+003, 1.025050e-002
3.899360e+003, 8.783553e-003
3.901288e+003, 8.516449e-003
3.903217e+003, 8.967439e-003
3.905145e+003, 8.539255e-003
3.907073e+003, 7.841742e-003
3.909002e+003, 9.282072e-003
3.910930e+003, 1.060642e-002
3.912859e+003, 1.052775e-002
3.914787e+003, 9.478190e-003
3.916716e+003, 1.058968e-002
3.918644e+003, 9.962474e-003
3.920573e+003, 7.804912e-003
3.922501e+003, 7.317672e-003
3.924430e+003, 9.213544e-003
3.926358e+003, 9.441487e-003
3.928287e+003, 8.159880e-003
3.930215e+003, 9.004476e-003
3.932144e+003, 1.083165e-002
3.934072e+003, 1.056304e-002
3.936000e+003, 8.911461e-003
3.937929e+003, 8.378085e-003
3.939857e+003, 8.908631e-003
3.941786e+003, 9.756118e-003
3.943714e+003, 1.051676e-002
3.945643e+003, 9.881360e-003
3.947571e+003, 8.842045e-003
3.949500e+003, 9.781118e-003
3.951428e+003, 9.882815e-003
3.953357e+003, 1.095634e-002
3.955285e+003, 1.204682e-002
3.957214e+003, 1.130853e-002
3.959142e+003, 1.097676e-002
3.961071e+003, 9.710433e-003
3.962999e+003, 1.043088e-002
3.964927e+003, 1.205731e-002
3.966856e+003, 1.271373e-002
3.968784e+003, 1.186590e-002
3.970713e+003, 1.124631e-002
3.972641e+003, 1.171540e-002
3.974570e+003, 1.051429e-002
3.976498e+003, 9.870522e-003
3.978427e+003, 1.056182e-002
3.980355e+003, 1.136602e-002
3.982284e+003, 1.184404e-002
3.984212e+003, 1.109035e-002
3.986141e+003, 1.142984e-002
3.988069e+003, 1.162455e-002
3.989998e+003, 9.133078e-003
3.991926e+003, 9.233578e-003
3.993854e+003, 1.057070e-002
3.995783e+003, 9.914536e-003
3.997711e+003, 9.106908e-003
3.999640e+003, 9.111301e-003
##END=



