##NAMES=Stephanite
##RRUFFID=R050143
##IDEAL CHEMISTRY=Ag^1+^_5_Sb^3+^S^2-^_4_
##LOCALITY=Proano mine, Fresnillo, Zacatecas, Mexico
##OWNER=RRUFF
##SOURCE=Dave Bunk Minerals
##DESCRIPTION=Group of black pseudohexagonal crystals
##STATUS=The identification of this mineral has been confirmed by X-ray diffraction and chemical analysis
##URL=rruff.info/R050143
##MEASURED CHEMISTRY=Ag_5.00_Sb_1.00_S_4.00_
3.991926e+002, 2.247319e-001
4.011211e+002, 2.265543e-001
4.030495e+002, 2.275385e-001
4.049780e+002, 2.285221e-001
4.069065e+002, 2.320923e-001
4.088349e+002, 2.355182e-001
4.107634e+002, 2.420807e-001
4.126919e+002, 2.432459e-001
4.146203e+002, 2.425902e-001
4.165488e+002, 2.404036e-001
4.184773e+002, 2.414978e-001
4.204057e+002, 2.445590e-001
4.223342e+002, 2.453601e-001
4.242627e+002, 2.479859e-001
4.261911e+002, 2.512645e-001
4.281196e+002, 2.505352e-001
4.300481e+002, 2.534509e-001
4.319765e+002, 2.570957e-001
4.339050e+002, 2.574604e-001
4.358335e+002, 2.567314e-001
4.377619e+002, 2.570218e-001
4.396904e+002, 2.581869e-001
4.416189e+002, 2.595740e-001
4.435473e+002, 2.621977e-001
4.454758e+002, 2.624897e-001
4.474043e+002, 2.624876e-001
4.493327e+002, 2.649665e-001
4.512612e+002, 2.669362e-001
4.531897e+002, 2.674458e-001
4.551181e+002, 2.683919e-001
4.570466e+002, 2.697051e-001
4.589751e+002, 2.708708e-001
4.609035e+002, 2.717463e-001
4.628320e+002, 2.711633e-001
4.647605e+002, 2.717465e-001
4.666889e+002, 2.750990e-001
4.686174e+002, 2.765572e-001
4.705459e+002, 2.753908e-001
4.724743e+002, 2.761194e-001
4.744028e+002, 2.785986e-001
4.763313e+002, 2.790361e-001
4.782597e+002, 2.788897e-001
4.801882e+002, 2.807844e-001
4.821167e+002, 2.816595e-001
4.840451e+002, 2.823884e-001
4.859736e+002, 2.850118e-001
4.879021e+002, 2.863244e-001
4.898305e+002, 2.867619e-001
4.917590e+002, 2.866165e-001
4.936875e+002, 2.885100e-001
4.956159e+002, 2.898246e-001
4.975444e+002, 2.911353e-001
4.994729e+002, 2.920099e-001
5.014013e+002, 2.927392e-001
5.033298e+002, 2.936871e-001
5.052583e+002, 2.939044e-001
5.071867e+002, 2.962337e-001
5.091152e+002, 2.971136e-001
5.110437e+002, 2.979894e-001
5.129721e+002, 2.988619e-001
5.149006e+002, 2.988616e-001
5.168290e+002, 2.997358e-001
5.187575e+002, 3.010488e-001
5.206860e+002, 3.023607e-001
5.226144e+002, 3.029448e-001
5.245429e+002, 3.035272e-001
5.264714e+002, 3.041098e-001
5.283998e+002, 3.046934e-001
5.303283e+002, 3.055662e-001
5.322568e+002, 3.062970e-001
5.341852e+002, 3.070265e-001
5.361137e+002, 3.073165e-001
5.380422e+002, 3.076088e-001
5.399706e+002, 3.084843e-001
5.418991e+002, 3.108142e-001
5.438276e+002, 3.128544e-001
5.457560e+002, 3.129545e-001
5.476845e+002, 3.130513e-001
5.496130e+002, 3.131488e-001
5.515414e+002, 3.132469e-001
5.534699e+002, 3.133427e-001
5.553984e+002, 3.134401e-001
5.573268e+002, 3.148974e-001
5.592553e+002, 3.163553e-001
5.611838e+002, 3.170359e-001
5.631122e+002, 3.177173e-001
5.650407e+002, 3.183976e-001
5.669692e+002, 3.186885e-001
5.688976e+002, 3.189806e-001
5.708261e+002, 3.213121e-001
5.727546e+002, 3.218962e-001
5.746830e+002, 3.220413e-001
5.766115e+002, 3.221884e-001
5.785400e+002, 3.227704e-001
5.804684e+002, 3.221871e-001
5.823969e+002, 3.233534e-001
5.843254e+002, 3.245211e-001
5.862538e+002, 3.259774e-001
5.881823e+002, 3.264634e-001
5.901108e+002, 3.269507e-001
5.920392e+002, 3.274352e-001
5.939677e+002, 3.280175e-001
5.958962e+002, 3.286005e-001
5.978246e+002, 3.296220e-001
5.997531e+002, 3.306432e-001
6.016816e+002, 3.312260e-001
6.036100e+002, 3.318091e-001
6.055385e+002, 3.328284e-001
6.074670e+002, 3.338480e-001
6.093954e+002, 3.342392e-001
6.113239e+002, 3.346283e-001
6.132524e+002, 3.350166e-001
6.151808e+002, 3.360362e-001
6.171093e+002, 3.370561e-001
6.190378e+002, 3.376394e-001
6.209662e+002, 3.382235e-001
6.228947e+002, 3.389526e-001
6.248232e+002, 3.396823e-001
6.267516e+002, 3.405568e-001
6.286801e+002, 3.414302e-001
6.306086e+002, 3.421586e-001
6.325370e+002, 3.428886e-001
6.344655e+002, 3.435449e-001
6.363940e+002, 3.442002e-001
6.383224e+002, 3.448554e-001
6.402509e+002, 3.455115e-001
6.421794e+002, 3.456587e-001
6.441078e+002, 3.458041e-001
6.460363e+002, 3.462406e-001
6.479648e+002, 3.466777e-001
6.498932e+002, 3.468727e-001
6.518217e+002, 3.470677e-001
6.537502e+002, 3.472623e-001
6.556786e+002, 3.471643e-001
6.576071e+002, 3.470673e-001
6.595356e+002, 3.469706e-001
6.614641e+002, 3.471642e-001
6.633925e+002, 3.473582e-001
6.653210e+002, 3.475523e-001
6.672495e+002, 3.481347e-001
6.691779e+002, 3.487179e-001
6.711064e+002, 3.491569e-001
6.730349e+002, 3.495946e-001
6.749633e+002, 3.500305e-001
6.768918e+002, 3.504678e-001
6.788203e+002, 3.509060e-001
6.807487e+002, 3.513428e-001
6.826772e+002, 3.513429e-001
6.846057e+002, 3.513434e-001
6.865341e+002, 3.515376e-001
6.884626e+002, 3.517329e-001
6.903911e+002, 3.519273e-001
6.923195e+002, 3.525090e-001
6.942480e+002, 3.530925e-001
6.961765e+002, 3.539667e-001
6.981049e+002, 3.542585e-001
7.000334e+002, 3.545495e-001
7.019619e+002, 3.548430e-001
7.038903e+002, 3.557168e-001
7.058188e+002, 3.561537e-001
7.077473e+002, 3.565920e-001
7.096757e+002, 3.571757e-001
7.116042e+002, 3.577574e-001
7.135327e+002, 3.580488e-001
7.154611e+002, 3.583409e-001
7.173896e+002, 3.586323e-001
7.193181e+002, 3.592155e-001
7.212465e+002, 3.597995e-001
7.231750e+002, 3.602365e-001
7.251035e+002, 3.606719e-001
7.270319e+002, 3.609645e-001
7.289604e+002, 3.612565e-001
7.308889e+002, 3.615483e-001
7.328173e+002, 3.620349e-001
7.347458e+002, 3.625208e-001
7.366743e+002, 3.630055e-001
7.386027e+002, 3.635878e-001
7.405312e+002, 3.641711e-001
7.424597e+002, 3.644640e-001
7.443881e+002, 3.647561e-001
7.463166e+002, 3.650472e-001
7.482451e+002, 3.653389e-001
7.501735e+002, 3.660676e-001
7.521020e+002, 3.667960e-001
7.540305e+002, 3.670882e-001
7.559589e+002, 3.673801e-001
7.578874e+002, 3.676722e-001
7.598159e+002, 3.679629e-001
7.617443e+002, 3.682541e-001
7.636728e+002, 3.689348e-001
7.656013e+002, 3.696157e-001
7.675297e+002, 3.702956e-001
7.694582e+002, 3.704902e-001
7.713867e+002, 3.706848e-001
7.733151e+002, 3.708802e-001
7.752436e+002, 3.717543e-001
7.771721e+002, 3.726283e-001
7.791005e+002, 3.733078e-001
7.810290e+002, 3.739877e-001
7.829575e+002, 3.746673e-001
7.848859e+002, 3.747655e-001
7.868144e+002, 3.748634e-001
7.887429e+002, 3.749605e-001
7.906713e+002, 3.761250e-001
7.925998e+002, 3.772910e-001
7.945283e+002, 3.776814e-001
7.964567e+002, 3.780700e-001
7.983852e+002, 3.784588e-001
8.003137e+002, 3.790425e-001
8.022421e+002, 3.796258e-001
8.041706e+002, 3.802076e-001
8.060991e+002, 3.804985e-001
8.080275e+002, 3.807905e-001
8.099560e+002, 3.815185e-001
8.118845e+002, 3.822467e-001
8.138129e+002, 3.825393e-001
8.157414e+002, 3.828318e-001
8.176699e+002, 3.828325e-001
8.195983e+002, 3.828325e-001
8.215268e+002, 3.834152e-001
8.234553e+002, 3.839981e-001
8.253837e+002, 3.845812e-001
8.273122e+002, 3.851635e-001
8.292407e+002, 3.850666e-001
8.311691e+002, 3.849699e-001
8.330976e+002, 3.848744e-001
8.350261e+002, 3.857487e-001
8.369545e+002, 3.866235e-001
8.388830e+002, 3.868427e-001
8.408115e+002, 3.870614e-001
8.427399e+002, 3.872795e-001
8.446684e+002, 3.874972e-001
8.465969e+002, 3.876915e-001
8.485253e+002, 3.878866e-001
8.504538e+002, 3.880813e-001
8.523823e+002, 3.883727e-001
8.543107e+002, 3.886642e-001
8.562392e+002, 3.889565e-001
8.581677e+002, 3.898285e-001
8.600961e+002, 3.907026e-001
8.620246e+002, 3.915786e-001
8.639531e+002, 3.922600e-001
8.658815e+002, 3.929399e-001
8.678100e+002, 3.936192e-001
8.697385e+002, 3.940082e-001
8.716669e+002, 3.943974e-001
8.735954e+002, 3.947861e-001
8.755239e+002, 3.949313e-001
8.774523e+002, 3.950767e-001
8.793808e+002, 3.952225e-001
8.813093e+002, 3.953684e-001
8.832377e+002, 3.953691e-001
8.851662e+002, 3.953694e-001
8.870947e+002, 3.959517e-001
8.890231e+002, 3.965344e-001
8.909516e+002, 3.971174e-001
8.928801e+002, 3.977006e-001
8.948085e+002, 3.982838e-001
8.967370e+002, 3.986106e-001
8.986655e+002, 3.992232e-001
9.005939e+002, 3.997549e-001
9.025224e+002, 3.999723e-001
9.044509e+002, 4.001977e-001
9.063793e+002, 4.008454e-001
9.083078e+002, 4.018095e-001
9.102363e+002, 4.026498e-001
9.121647e+002, 4.030502e-001
9.140932e+002, 4.030806e-001
9.160217e+002, 4.028708e-001
9.179501e+002, 4.034108e-001
9.198786e+002, 4.043258e-001
9.218071e+002, 4.053313e-001
9.237355e+002, 4.061045e-001
9.256640e+002, 4.062546e-001
9.275925e+002, 4.061927e-001
9.295209e+002, 4.065403e-001
9.314494e+002, 4.071127e-001
9.333779e+002, 4.076834e-001
9.353063e+002, 4.079521e-001
9.372348e+002, 4.084194e-001
9.391633e+002, 4.092737e-001
9.410917e+002, 4.102432e-001
9.430202e+002, 4.109995e-001
9.449487e+002, 4.115674e-001
9.468771e+002, 4.122106e-001
9.488056e+002, 4.131517e-001
9.507341e+002, 4.139716e-001
9.526625e+002, 4.146276e-001
9.545910e+002, 4.147498e-001
9.565195e+002, 4.150374e-001
9.584479e+002, 4.151363e-001
9.603764e+002, 4.149903e-001
9.623049e+002, 4.151131e-001
9.642333e+002, 4.152000e-001
9.661618e+002, 4.151118e-001
9.680903e+002, 4.154049e-001
9.700187e+002, 4.158486e-001
9.719472e+002, 4.161778e-001
9.738757e+002, 4.166728e-001
9.758041e+002, 4.172364e-001
9.777326e+002, 4.176733e-001
9.796611e+002, 4.184319e-001
9.815895e+002, 4.193223e-001
9.835180e+002, 4.200520e-001
9.854465e+002, 4.207233e-001
9.873749e+002, 4.215081e-001
9.893034e+002, 4.222628e-001
9.912319e+002, 4.227741e-001
9.931603e+002, 4.236861e-001
9.950888e+002, 4.244010e-001
9.970173e+002, 4.250505e-001
9.989457e+002, 4.262714e-001
1.000874e+003, 4.272832e-001
1.002803e+003, 4.280784e-001
1.004731e+003, 4.289600e-001
1.006660e+003, 4.298373e-001
1.008588e+003, 4.306022e-001
1.010517e+003, 4.315124e-001
1.012445e+003, 4.323720e-001
1.014373e+003, 4.332594e-001
1.016302e+003, 4.337613e-001
1.018230e+003, 4.341068e-001
1.020159e+003, 4.343360e-001
1.022087e+003, 4.348840e-001
1.024016e+003, 4.350859e-001
1.025944e+003, 4.349195e-001
1.027873e+003, 4.350645e-001
1.029801e+003, 4.351436e-001
1.031730e+003, 4.352178e-001
1.033658e+003, 4.355212e-001
1.035587e+003, 4.357493e-001
1.037515e+003, 4.361042e-001
1.039443e+003, 4.364839e-001
1.041372e+003, 4.369765e-001
1.043300e+003, 4.376432e-001
1.045229e+003, 4.385712e-001
1.047157e+003, 4.395013e-001
1.049086e+003, 4.407149e-001
1.051014e+003, 4.413221e-001
1.052943e+003, 4.412276e-001
1.054871e+003, 4.410395e-001
1.056800e+003, 4.414994e-001
1.058728e+003, 4.416926e-001
1.060657e+003, 4.416606e-001
1.062585e+003, 4.419236e-001
1.064514e+003, 4.423225e-001
1.066442e+003, 4.426339e-001
1.068370e+003, 4.431710e-001
1.070299e+003, 4.433231e-001
1.072227e+003, 4.429131e-001
1.074156e+003, 4.427333e-001
1.076084e+003, 4.432897e-001
1.078013e+003, 4.438239e-001
1.079941e+003, 4.441664e-001
1.081870e+003, 4.445623e-001
1.083798e+003, 4.450210e-001
1.085727e+003, 4.455088e-001
1.087655e+003, 4.460873e-001
1.089584e+003, 4.465746e-001
1.091512e+003, 4.471367e-001
1.093441e+003, 4.476694e-001
1.095369e+003, 4.479150e-001
1.097297e+003, 4.481697e-001
1.099226e+003, 4.489796e-001
1.101154e+003, 4.494440e-001
1.103083e+003, 4.498675e-001
1.105011e+003, 4.506874e-001
1.106940e+003, 4.511490e-001
1.108868e+003, 4.514477e-001
1.110797e+003, 4.514107e-001
1.112725e+003, 4.514039e-001
1.114654e+003, 4.515397e-001
1.116582e+003, 4.515925e-001
1.118511e+003, 4.516890e-001
1.120439e+003, 4.514483e-001
1.122368e+003, 4.513431e-001
1.124296e+003, 4.513185e-001
1.126224e+003, 4.515141e-001
1.128153e+003, 4.515346e-001
1.130081e+003, 4.517483e-001
1.132010e+003, 4.522399e-001
1.133938e+003, 4.527889e-001
1.135867e+003, 4.533474e-001
1.137795e+003, 4.538431e-001
1.139724e+003, 4.544837e-001
1.141652e+003, 4.552718e-001
1.143581e+003, 4.556618e-001
1.145509e+003, 4.559315e-001
1.147438e+003, 4.560605e-001
1.149366e+003, 4.563455e-001
1.151295e+003, 4.564720e-001
1.153223e+003, 4.565080e-001
1.155151e+003, 4.566014e-001
1.157080e+003, 4.565923e-001
1.159008e+003, 4.567077e-001
1.160937e+003, 4.567800e-001
1.162865e+003, 4.568288e-001
1.164794e+003, 4.569686e-001
1.166722e+003, 4.572302e-001
1.168651e+003, 4.574001e-001
1.170579e+003, 4.577677e-001
1.172508e+003, 4.582734e-001
1.174436e+003, 4.583566e-001
1.176365e+003, 4.585219e-001
1.178293e+003, 4.589926e-001
1.180222e+003, 4.593208e-001
1.182150e+003, 4.596388e-001
1.184078e+003, 4.601444e-001
1.186007e+003, 4.605344e-001
1.187935e+003, 4.611081e-001
1.189864e+003, 4.618231e-001
1.191792e+003, 4.624621e-001
1.193721e+003, 4.628788e-001
1.195649e+003, 4.632213e-001
1.197578e+003, 4.635780e-001
1.199506e+003, 4.639826e-001
1.201435e+003, 4.642775e-001
1.203363e+003, 4.645119e-001
1.205292e+003, 4.648553e-001
1.207220e+003, 4.650314e-001
1.209149e+003, 4.652554e-001
1.211077e+003, 4.656199e-001
1.213005e+003, 4.659849e-001
1.214934e+003, 4.662099e-001
1.216862e+003, 4.665464e-001
1.218791e+003, 4.667854e-001
1.220719e+003, 4.668039e-001
1.222648e+003, 4.670222e-001
1.224576e+003, 4.672804e-001
1.226505e+003, 4.673950e-001
1.228433e+003, 4.676230e-001
1.230362e+003, 4.680786e-001
1.232290e+003, 4.684174e-001
1.234219e+003, 4.685682e-001
1.236147e+003, 4.687681e-001
1.238076e+003, 4.690770e-001
1.240004e+003, 4.692744e-001
1.241932e+003, 4.694546e-001
1.243861e+003, 4.698666e-001
1.245789e+003, 4.703217e-001
1.247718e+003, 4.706680e-001
1.249646e+003, 4.708430e-001
1.251575e+003, 4.711042e-001
1.253503e+003, 4.711829e-001
1.255432e+003, 4.711551e-001
1.257360e+003, 4.712947e-001
1.259289e+003, 4.714777e-001
1.261217e+003, 4.713960e-001
1.263146e+003, 4.713565e-001
1.265074e+003, 4.717058e-001
1.267003e+003, 4.719574e-001
1.268931e+003, 4.723834e-001
1.270859e+003, 4.726936e-001
1.272788e+003, 4.732262e-001
1.274716e+003, 4.737690e-001
1.276645e+003, 4.739455e-001
1.278573e+003, 4.742600e-001
1.280502e+003, 4.750482e-001
1.282430e+003, 4.757057e-001
1.284359e+003, 4.760533e-001
1.286287e+003, 4.761716e-001
1.288216e+003, 4.766357e-001
1.290144e+003, 4.771791e-001
1.292073e+003, 4.777771e-001
1.294001e+003, 4.782586e-001
1.295930e+003, 4.783912e-001
1.297858e+003, 4.784396e-001
1.299786e+003, 4.788920e-001
1.301715e+003, 4.793954e-001
1.303643e+003, 4.796302e-001
1.305572e+003, 4.800876e-001
1.307500e+003, 4.806152e-001
1.309429e+003, 4.810816e-001
1.311357e+003, 4.813189e-001
1.313286e+003, 4.813414e-001
1.315214e+003, 4.815374e-001
1.317143e+003, 4.820147e-001
1.319071e+003, 4.822274e-001
1.321000e+003, 4.825135e-001
1.322928e+003, 4.830592e-001
1.324857e+003, 4.835699e-001
1.326785e+003, 4.840418e-001
1.328714e+003, 4.842553e-001
1.330642e+003, 4.847528e-001
1.332570e+003, 4.853725e-001
1.334499e+003, 4.858673e-001
1.336427e+003, 4.862275e-001
1.338356e+003, 4.864776e-001
1.340284e+003, 4.870457e-001
1.342213e+003, 4.876924e-001
1.344141e+003, 4.882081e-001
1.346070e+003, 4.885288e-001
1.347998e+003, 4.887768e-001
1.349927e+003, 4.892891e-001
1.351855e+003, 4.896593e-001
1.353784e+003, 4.900888e-001
1.355712e+003, 4.904833e-001
1.357641e+003, 4.911225e-001
1.359569e+003, 4.916207e-001
1.361497e+003, 4.921484e-001
1.363426e+003, 4.927997e-001
1.365354e+003, 4.933254e-001
1.367283e+003, 4.937125e-001
1.369211e+003, 4.942485e-001
1.371140e+003, 4.946598e-001
1.373068e+003, 4.952210e-001
1.374997e+003, 4.960120e-001
1.376925e+003, 4.967616e-001
1.378854e+003, 4.972789e-001
1.380782e+003, 4.977362e-001
1.382711e+003, 4.981113e-001
1.384639e+003, 4.984338e-001
1.386568e+003, 4.989806e-001
1.388496e+003, 4.996484e-001
1.390424e+003, 5.000551e-001
1.392353e+003, 5.007073e-001
1.394281e+003, 5.013146e-001
1.396210e+003, 5.019325e-001
1.398138e+003, 5.024135e-001
1.400067e+003, 5.027289e-001
1.401995e+003, 5.029984e-001
1.403924e+003, 5.034677e-001
1.405852e+003, 5.039288e-001
1.407781e+003, 5.044277e-001
1.409709e+003, 5.049230e-001
1.411638e+003, 5.053425e-001
1.413566e+003, 5.054188e-001
1.415495e+003, 5.054997e-001
1.417423e+003, 5.064018e-001
1.419351e+003, 5.071046e-001
1.421280e+003, 5.072082e-001
1.423208e+003, 5.073593e-001
1.425137e+003, 5.077267e-001
1.427065e+003, 5.079978e-001
1.428994e+003, 5.082670e-001
1.430922e+003, 5.087891e-001
1.432851e+003, 5.089576e-001
1.434779e+003, 5.089740e-001
1.436708e+003, 5.093654e-001
1.438636e+003, 5.097930e-001
1.440565e+003, 5.098630e-001
1.442493e+003, 5.099890e-001
1.444422e+003, 5.103704e-001
1.446350e+003, 5.109169e-001
1.448278e+003, 5.109481e-001
1.450207e+003, 5.109878e-001
1.452135e+003, 5.112673e-001
1.454064e+003, 5.113818e-001
1.455992e+003, 5.117609e-001
1.457921e+003, 5.120331e-001
1.459849e+003, 5.118285e-001
1.461778e+003, 5.117586e-001
1.463706e+003, 5.116721e-001
1.465635e+003, 5.116912e-001
1.467563e+003, 5.118784e-001
1.469492e+003, 5.120537e-001
1.471420e+003, 5.119694e-001
1.473349e+003, 5.117347e-001
1.475277e+003, 5.114132e-001
1.477205e+003, 5.114948e-001
1.479134e+003, 5.116743e-001
1.481062e+003, 5.118679e-001
1.482991e+003, 5.118914e-001
1.484919e+003, 5.121386e-001
1.486848e+003, 5.123547e-001
1.488776e+003, 5.124596e-001
1.490705e+003, 5.127190e-001
1.492633e+003, 5.130371e-001
1.494562e+003, 5.132686e-001
1.496490e+003, 5.135260e-001
1.498419e+003, 5.136810e-001
1.500347e+003, 5.140166e-001
1.502276e+003, 5.144175e-001
1.504204e+003, 5.149965e-001
1.506132e+003, 5.154815e-001
1.508061e+003, 5.154070e-001
1.509989e+003, 5.154366e-001
1.511918e+003, 5.156765e-001
1.513846e+003, 5.156546e-001
1.515775e+003, 5.159176e-001
1.517703e+003, 5.162022e-001
1.519632e+003, 5.164160e-001
1.521560e+003, 5.165932e-001
1.523489e+003, 5.169053e-001
1.525417e+003, 5.171958e-001
1.527346e+003, 5.174012e-001
1.529274e+003, 5.178053e-001
1.531203e+003, 5.181183e-001
1.533131e+003, 5.186428e-001
1.535059e+003, 5.190572e-001
1.536988e+003, 5.192795e-001
1.538916e+003, 5.195886e-001
1.540845e+003, 5.198367e-001
1.542773e+003, 5.200334e-001
1.544702e+003, 5.201815e-001
1.546630e+003, 5.205744e-001
1.548559e+003, 5.210846e-001
1.550487e+003, 5.212303e-001
1.552416e+003, 5.212517e-001
1.554344e+003, 5.214238e-001
1.556273e+003, 5.218277e-001
1.558201e+003, 5.227950e-001
1.560130e+003, 5.233538e-001
1.562058e+003, 5.233345e-001
1.563986e+003, 5.235189e-001
1.565915e+003, 5.240333e-001
1.567843e+003, 5.241711e-001
1.569772e+003, 5.241129e-001
1.571700e+003, 5.243032e-001
1.573629e+003, 5.245205e-001
1.575557e+003, 5.250590e-001
1.577486e+003, 5.258626e-001
1.579414e+003, 5.262114e-001
1.581343e+003, 5.262981e-001
1.583271e+003, 5.267594e-001
1.585200e+003, 5.272719e-001
1.587128e+003, 5.274267e-001
1.589057e+003, 5.276553e-001
1.590985e+003, 5.280843e-001
1.592913e+003, 5.285612e-001
1.594842e+003, 5.285656e-001
1.596770e+003, 5.286956e-001
1.598699e+003, 5.291891e-001
1.600627e+003, 5.295345e-001
1.602556e+003, 5.299078e-001
1.604484e+003, 5.303379e-001
1.606413e+003, 5.306302e-001
1.608341e+003, 5.308179e-001
1.610270e+003, 5.312191e-001
1.612198e+003, 5.315976e-001
1.614127e+003, 5.318109e-001
1.616055e+003, 5.320922e-001
1.617984e+003, 5.322103e-001
1.619912e+003, 5.323496e-001
1.621840e+003, 5.328031e-001
1.623769e+003, 5.330866e-001
1.625697e+003, 5.336129e-001
1.627626e+003, 5.341924e-001
1.629554e+003, 5.342208e-001
1.631483e+003, 5.343897e-001
1.633411e+003, 5.348752e-001
1.635340e+003, 5.354099e-001
1.637268e+003, 5.356701e-001
1.639197e+003, 5.358301e-001
1.641125e+003, 5.360538e-001
1.643054e+003, 5.364173e-001
1.644982e+003, 5.365799e-001
1.646911e+003, 5.371524e-001
1.648839e+003, 5.376707e-001
1.650767e+003, 5.378568e-001
1.652696e+003, 5.383428e-001
1.654624e+003, 5.385275e-001
1.656553e+003, 5.386692e-001
1.658481e+003, 5.391204e-001
1.660410e+003, 5.392145e-001
1.662338e+003, 5.392123e-001
1.664267e+003, 5.396303e-001
1.666195e+003, 5.403715e-001
1.668124e+003, 5.410396e-001
1.670052e+003, 5.412171e-001
1.671981e+003, 5.411316e-001
1.673909e+003, 5.413193e-001
1.675838e+003, 5.418460e-001
1.677766e+003, 5.424402e-001
1.679694e+003, 5.425397e-001
1.681623e+003, 5.426087e-001
1.683551e+003, 5.428177e-001
1.685480e+003, 5.428546e-001
1.687408e+003, 5.429731e-001
1.689337e+003, 5.434400e-001
1.691265e+003, 5.439329e-001
1.693194e+003, 5.444232e-001
1.695122e+003, 5.446277e-001
1.697051e+003, 5.447228e-001
1.698979e+003, 5.450578e-001
1.700908e+003, 5.453827e-001
1.702836e+003, 5.454823e-001
1.704765e+003, 5.461175e-001
1.706693e+003, 5.465845e-001
1.708621e+003, 5.469804e-001
1.710550e+003, 5.471522e-001
1.712478e+003, 5.471974e-001
1.714407e+003, 5.476272e-001
1.716335e+003, 5.485991e-001
1.718264e+003, 5.490870e-001
1.720192e+003, 5.489788e-001
1.722121e+003, 5.491452e-001
1.724049e+003, 5.495631e-001
1.725978e+003, 5.502362e-001
1.727906e+003, 5.506262e-001
1.729835e+003, 5.506449e-001
1.731763e+003, 5.507164e-001
1.733692e+003, 5.511779e-001
1.735620e+003, 5.515707e-001
1.737548e+003, 5.517216e-001
1.739477e+003, 5.519477e-001
1.741405e+003, 5.517985e-001
1.743334e+003, 5.517175e-001
1.745262e+003, 5.515231e-001
1.747191e+003, 5.515289e-001
1.749119e+003, 5.516225e-001
1.751048e+003, 5.519841e-001
1.752976e+003, 5.520487e-001
1.754905e+003, 5.521886e-001
1.756833e+003, 5.523713e-001
1.758762e+003, 5.525166e-001
1.760690e+003, 5.524529e-001
1.762619e+003, 5.527108e-001
1.764547e+003, 5.529747e-001
1.766475e+003, 5.531963e-001
1.768404e+003, 5.531055e-001
1.770332e+003, 5.533224e-001
1.772261e+003, 5.537721e-001
1.774189e+003, 5.539892e-001
1.776118e+003, 5.540128e-001
1.778046e+003, 5.539973e-001
1.779975e+003, 5.542966e-001
1.781903e+003, 5.545970e-001
1.783832e+003, 5.551049e-001
1.785760e+003, 5.555888e-001
1.787689e+003, 5.555451e-001
1.789617e+003, 5.558619e-001
1.791546e+003, 5.561355e-001
1.793474e+003, 5.556944e-001
1.795402e+003, 5.554317e-001
1.797331e+003, 5.557951e-001
1.799259e+003, 5.560917e-001
1.801188e+003, 5.562651e-001
1.803116e+003, 5.567989e-001
1.805045e+003, 5.570512e-001
1.806973e+003, 5.567115e-001
1.808902e+003, 5.570612e-001
1.810830e+003, 5.575046e-001
1.812759e+003, 5.574500e-001
1.814687e+003, 5.572577e-001
1.816616e+003, 5.571842e-001
1.818544e+003, 5.576987e-001
1.820473e+003, 5.580127e-001
1.822401e+003, 5.582003e-001
1.824329e+003, 5.588712e-001
1.826258e+003, 5.587347e-001
1.828186e+003, 5.586529e-001
1.830115e+003, 5.590971e-001
1.832043e+003, 5.595503e-001
1.833972e+003, 5.597347e-001
1.835900e+003, 5.601856e-001
1.837829e+003, 5.607867e-001
1.839757e+003, 5.609446e-001
1.841686e+003, 5.608859e-001
1.843614e+003, 5.608553e-001
1.845543e+003, 5.608594e-001
1.847471e+003, 5.611729e-001
1.849400e+003, 5.610217e-001
1.851328e+003, 5.614539e-001
1.853256e+003, 5.622507e-001
1.855185e+003, 5.623839e-001
1.857113e+003, 5.626594e-001
1.859042e+003, 5.628763e-001
1.860970e+003, 5.622448e-001
1.862899e+003, 5.623665e-001
1.864827e+003, 5.637890e-001
1.866756e+003, 5.645960e-001
1.868684e+003, 5.641034e-001
1.870613e+003, 5.638176e-001
1.872541e+003, 5.636373e-001
1.874470e+003, 5.637907e-001
1.876398e+003, 5.641162e-001
1.878327e+003, 5.644429e-001
1.880255e+003, 5.647689e-001
1.882183e+003, 5.650427e-001
1.884112e+003, 5.653169e-001
1.886040e+003, 5.655881e-001
1.887969e+003, 5.658599e-001
1.889897e+003, 5.661327e-001
1.891826e+003, 5.664047e-001
1.893754e+003, 5.666769e-001
1.895683e+003, 5.669507e-001
1.897611e+003, 5.672234e-001
1.899540e+003, 5.674955e-001
1.901468e+003, 5.677698e-001
1.903397e+003, 5.680436e-001
1.905325e+003, 5.683143e-001
1.907254e+003, 5.685865e-001
1.909182e+003, 5.688621e-001
1.911110e+003, 5.691360e-001
1.913039e+003, 5.694071e-001
1.914967e+003, 5.696785e-001
1.916896e+003, 5.699515e-001
1.918824e+003, 5.702257e-001
1.920753e+003, 5.704983e-001
1.922681e+003, 5.707697e-001
1.924610e+003, 5.710440e-001
1.926538e+003, 5.713162e-001
1.928467e+003, 5.715868e-001
1.930395e+003, 5.718595e-001
1.932324e+003, 5.721309e-001
1.934252e+003, 5.724024e-001
1.936181e+003, 5.726764e-001
1.938109e+003, 5.729492e-001
1.940037e+003, 5.732207e-001
1.941966e+003, 5.734928e-001
1.943894e+003, 5.737647e-001
1.945823e+003, 5.740367e-001
1.947751e+003, 5.743077e-001
1.949680e+003, 5.745786e-001
1.951608e+003, 5.748523e-001
1.953537e+003, 5.751241e-001
1.955465e+003, 5.753969e-001
1.957394e+003, 5.756630e-001
1.959322e+003, 5.759276e-001
1.961251e+003, 5.761979e-001
1.963179e+003, 5.764729e-001
1.965108e+003, 5.767448e-001
1.967036e+003, 5.770198e-001
1.968964e+003, 5.772955e-001
1.970893e+003, 5.775622e-001
1.972821e+003, 5.778299e-001
1.974750e+003, 5.781008e-001
1.976678e+003, 5.783743e-001
1.978607e+003, 5.786528e-001
1.980535e+003, 5.789307e-001
1.982464e+003, 5.792048e-001
1.984392e+003, 5.794784e-001
1.986321e+003, 5.797558e-001
1.988249e+003, 5.800350e-001
1.990178e+003, 5.803075e-001
1.992106e+003, 5.805735e-001
1.994035e+003, 5.808471e-001
1.995963e+003, 5.811207e-001
1.997891e+003, 5.813886e-001
1.999820e+003, 5.816587e-001
2.001748e+003, 5.819350e-001
2.003677e+003, 5.822115e-001
2.005605e+003, 5.824798e-001
2.007534e+003, 5.827436e-001
2.009462e+003, 5.830139e-001
2.011391e+003, 5.832891e-001
2.013319e+003, 5.835639e-001
2.015248e+003, 5.838391e-001
2.017176e+003, 5.841107e-001
2.019105e+003, 5.843838e-001
2.021033e+003, 5.846593e-001
2.022962e+003, 5.849339e-001
2.024890e+003, 5.852045e-001
2.026818e+003, 5.854774e-001
2.028747e+003, 5.857429e-001
2.030675e+003, 5.860132e-001
2.032604e+003, 5.862890e-001
2.034532e+003, 5.865685e-001
2.036461e+003, 5.868539e-001
2.038389e+003, 5.871313e-001
2.040318e+003, 5.874015e-001
2.042246e+003, 5.876735e-001
2.044175e+003, 5.879500e-001
2.046103e+003, 5.882291e-001
2.048031e+003, 5.885058e-001
2.049960e+003, 5.887812e-001
2.051888e+003, 5.890554e-001
2.053817e+003, 5.893307e-001
2.055745e+003, 5.896064e-001
2.057674e+003, 5.898778e-001
2.059602e+003, 5.901553e-001
2.061531e+003, 5.904349e-001
2.063459e+003, 5.907121e-001
2.065388e+003, 5.909856e-001
2.067316e+003, 5.912572e-001
2.069245e+003, 5.915284e-001
2.071173e+003, 5.917999e-001
2.073102e+003, 5.920755e-001
2.075030e+003, 5.923484e-001
2.076958e+003, 5.926254e-001
2.078887e+003, 5.929016e-001
2.080815e+003, 5.931723e-001
2.082744e+003, 5.934466e-001
2.084672e+003, 5.937198e-001
2.086601e+003, 5.939941e-001
2.088529e+003, 5.942679e-001
2.090458e+003, 5.945409e-001
2.092386e+003, 5.948115e-001
2.094315e+003, 5.950840e-001
2.096243e+003, 5.953577e-001
2.098172e+003, 5.956300e-001
2.100100e+003, 5.959035e-001
2.102029e+003, 5.961788e-001
2.103957e+003, 5.964519e-001
2.105885e+003, 5.967242e-001
2.107814e+003, 5.969989e-001
2.109742e+003, 5.972756e-001
2.111671e+003, 5.975497e-001
2.113599e+003, 5.978221e-001
2.115528e+003, 5.980934e-001
2.117456e+003, 5.983672e-001
2.119385e+003, 5.986409e-001
2.121313e+003, 5.989146e-001
2.123242e+003, 5.991831e-001
2.125170e+003, 5.994517e-001
2.127099e+003, 5.997244e-001
2.129027e+003, 5.999942e-001
2.130956e+003, 6.002623e-001
2.132884e+003, 6.005337e-001
2.134813e+003, 6.008067e-001
2.136741e+003, 6.010778e-001
2.138669e+003, 6.013494e-001
2.140598e+003, 6.016195e-001
2.142526e+003, 6.018902e-001
2.144455e+003, 6.021614e-001
2.146383e+003, 6.024318e-001
2.148312e+003, 6.026994e-001
2.150240e+003, 6.029704e-001
2.152169e+003, 6.032391e-001
2.154097e+003, 6.034970e-001
2.156026e+003, 6.037596e-001
2.157954e+003, 6.040317e-001
2.159883e+003, 6.043146e-001
2.161811e+003, 6.046004e-001
2.163740e+003, 6.048799e-001
2.165668e+003, 6.051518e-001
2.167596e+003, 6.054260e-001
2.169525e+003, 6.057007e-001
2.171453e+003, 6.059799e-001
2.173382e+003, 6.062518e-001
2.175310e+003, 6.065270e-001
2.177239e+003, 6.068009e-001
2.179167e+003, 6.070718e-001
2.181096e+003, 6.073467e-001
2.183024e+003, 6.076227e-001
2.184953e+003, 6.078972e-001
2.186881e+003, 6.081748e-001
2.188810e+003, 6.084493e-001
2.190738e+003, 6.087278e-001
2.192667e+003, 6.090069e-001
2.194595e+003, 6.092758e-001
2.196523e+003, 6.095431e-001
2.198452e+003, 6.098189e-001
2.200380e+003, 6.100942e-001
2.202309e+003, 6.103671e-001
2.204237e+003, 6.106424e-001
2.206166e+003, 6.109206e-001
2.208094e+003, 6.111966e-001
2.210023e+003, 6.114673e-001
2.211951e+003, 6.117412e-001
2.213880e+003, 6.120175e-001
2.215808e+003, 6.122916e-001
2.217737e+003, 6.125617e-001
2.219665e+003, 6.128330e-001
2.221594e+003, 6.131099e-001
2.223522e+003, 6.133870e-001
2.225450e+003, 6.136625e-001
2.227379e+003, 6.139362e-001
2.229307e+003, 6.142086e-001
2.231236e+003, 6.144831e-001
2.233164e+003, 6.147571e-001
2.235093e+003, 6.150287e-001
2.237021e+003, 6.153020e-001
2.238950e+003, 6.155744e-001
2.240878e+003, 6.158494e-001
2.242807e+003, 6.161264e-001
2.244735e+003, 6.164014e-001
2.246664e+003, 6.166746e-001
2.248592e+003, 6.169447e-001
2.250521e+003, 6.172171e-001
2.252449e+003, 6.174945e-001
2.254377e+003, 6.177716e-001
2.256306e+003, 6.180475e-001
2.258234e+003, 6.183231e-001
2.260163e+003, 6.185967e-001
2.262091e+003, 6.188700e-001
2.264020e+003, 6.191442e-001
2.265948e+003, 6.194190e-001
2.267877e+003, 6.196946e-001
2.269805e+003, 6.199648e-001
2.271734e+003, 6.202351e-001
2.273662e+003, 6.205082e-001
2.275591e+003, 6.207826e-001
2.277519e+003, 6.210585e-001
2.279448e+003, 6.213348e-001
2.281376e+003, 6.216097e-001
2.283304e+003, 6.218862e-001
2.285233e+003, 6.221613e-001
2.287161e+003, 6.224362e-001
2.289090e+003, 6.227115e-001
2.291018e+003, 6.229852e-001
2.292947e+003, 6.232586e-001
2.294875e+003, 6.235332e-001
2.296804e+003, 6.238080e-001
2.298732e+003, 6.240819e-001
2.300661e+003, 6.243526e-001
2.302589e+003, 6.246253e-001
2.304518e+003, 6.249006e-001
2.306446e+003, 6.251766e-001
2.308375e+003, 6.254518e-001
2.310303e+003, 6.257260e-001
2.312231e+003, 6.259989e-001
2.314160e+003, 6.262723e-001
2.316088e+003, 6.265466e-001
2.318017e+003, 6.268209e-001
2.319945e+003, 6.270947e-001
2.321874e+003, 6.273701e-001
2.323802e+003, 6.276458e-001
2.325731e+003, 6.279189e-001
2.327659e+003, 6.281906e-001
2.329588e+003, 6.284636e-001
2.331516e+003, 6.287377e-001
2.333445e+003, 6.290109e-001
2.335373e+003, 6.292834e-001
2.337302e+003, 6.295572e-001
2.339230e+003, 6.298313e-001
2.341158e+003, 6.301047e-001
2.343087e+003, 6.303760e-001
2.345015e+003, 6.305974e-001
2.346944e+003, 6.308182e-001
2.348872e+003, 6.310410e-001
2.350801e+003, 6.312642e-001
2.352729e+003, 6.314881e-001
2.354658e+003, 6.317113e-001
2.356586e+003, 6.319335e-001
2.358515e+003, 6.321564e-001
2.360443e+003, 6.323781e-001
2.362372e+003, 6.325991e-001
2.364300e+003, 6.328192e-001
2.366229e+003, 6.330408e-001
2.368157e+003, 6.332625e-001
2.370085e+003, 6.334835e-001
2.372014e+003, 6.337048e-001
2.373942e+003, 6.339260e-001
2.375871e+003, 6.341478e-001
2.377799e+003, 6.343707e-001
2.379728e+003, 6.345920e-001
2.381656e+003, 6.348131e-001
2.383585e+003, 6.350356e-001
2.385513e+003, 6.352559e-001
2.387442e+003, 6.354770e-001
2.389370e+003, 6.356993e-001
2.391299e+003, 6.359221e-001
2.393227e+003, 6.361437e-001
2.395156e+003, 6.363658e-001
2.397084e+003, 6.365901e-001
2.399012e+003, 6.368124e-001
2.400941e+003, 6.370329e-001
2.402869e+003, 6.372575e-001
2.404798e+003, 6.374808e-001
2.406726e+003, 6.377010e-001
2.408655e+003, 6.379220e-001
2.410583e+003, 6.381430e-001
2.412512e+003, 6.383645e-001
2.414440e+003, 6.385863e-001
2.416369e+003, 6.388082e-001
2.418297e+003, 6.390312e-001
2.420226e+003, 6.392557e-001
2.422154e+003, 6.394789e-001
2.424083e+003, 6.396987e-001
2.426011e+003, 6.399593e-001
2.427939e+003, 6.402211e-001
2.429868e+003, 6.404825e-001
2.431796e+003, 6.407436e-001
2.433725e+003, 6.410075e-001
2.435653e+003, 6.406066e-001
2.437582e+003, 6.394821e-001
2.439510e+003, 6.403354e-001
2.441439e+003, 6.417267e-001
2.443367e+003, 6.420870e-001
2.445296e+003, 6.424010e-001
2.447224e+003, 6.429219e-001
2.449153e+003, 6.428784e-001
2.451081e+003, 6.426645e-001
2.453010e+003, 6.435332e-001
2.454938e+003, 6.444484e-001
2.456866e+003, 6.440755e-001
2.458795e+003, 6.434419e-001
2.460723e+003, 6.435999e-001
2.462652e+003, 6.443827e-001
2.464580e+003, 6.446234e-001
2.466509e+003, 6.447133e-001
2.468437e+003, 6.454431e-001
2.470366e+003, 6.455714e-001
2.472294e+003, 6.450598e-001
2.474223e+003, 6.451887e-001
2.476151e+003, 6.460280e-001
2.478080e+003, 6.465828e-001
2.480008e+003, 6.463565e-001
2.481937e+003, 6.475428e-001
2.483865e+003, 6.477392e-001
2.485793e+003, 6.473866e-001
2.487722e+003, 6.475376e-001
2.489650e+003, 6.475662e-001
2.491579e+003, 6.479033e-001
2.493507e+003, 6.486095e-001
2.495436e+003, 6.492556e-001
2.497364e+003, 6.485614e-001
2.499293e+003, 6.490406e-001
2.501221e+003, 6.497943e-001
2.503150e+003, 6.495009e-001
2.505078e+003, 6.492567e-001
2.507007e+003, 6.489760e-001
2.508935e+003, 6.490374e-001
2.510864e+003, 6.501579e-001
2.512792e+003, 6.508236e-001
2.514720e+003, 6.516324e-001
2.516649e+003, 6.518544e-001
2.518577e+003, 6.509367e-001
2.520506e+003, 6.500903e-001
2.522434e+003, 6.506447e-001
2.524363e+003, 6.507524e-001
2.526291e+003, 6.508599e-001
2.528220e+003, 6.518474e-001
2.530148e+003, 6.530350e-001
2.532077e+003, 6.538127e-001
2.534005e+003, 6.539457e-001
2.535934e+003, 6.537038e-001
2.537862e+003, 6.535007e-001
2.539791e+003, 6.536159e-001
2.541719e+003, 6.535699e-001
2.543647e+003, 6.533371e-001
2.545576e+003, 6.543154e-001
2.547504e+003, 6.549771e-001
2.549433e+003, 6.550096e-001
2.551361e+003, 6.555771e-001
2.553290e+003, 6.558573e-001
2.555218e+003, 6.558731e-001
2.557147e+003, 6.560397e-001
2.559075e+003, 6.561567e-001
2.561004e+003, 6.560518e-001
2.562932e+003, 6.568855e-001
2.564861e+003, 6.569954e-001
2.566789e+003, 6.574678e-001
2.568718e+003, 6.578618e-001
2.570646e+003, 6.585641e-001
2.572574e+003, 6.594176e-001
2.574503e+003, 6.593239e-001
2.576431e+003, 6.593290e-001
2.578360e+003, 6.596131e-001
2.580288e+003, 6.595116e-001
2.582217e+003, 6.603801e-001
2.584145e+003, 6.610894e-001
2.586074e+003, 6.616086e-001
2.588002e+003, 6.622180e-001
2.589931e+003, 6.620045e-001
2.591859e+003, 6.620172e-001
2.593788e+003, 6.623020e-001
2.595716e+003, 6.624897e-001
2.597645e+003, 6.622564e-001
2.599573e+003, 6.624393e-001
2.601501e+003, 6.638970e-001
2.603430e+003, 6.648558e-001
2.605358e+003, 6.645293e-001
2.607287e+003, 6.647956e-001
2.609215e+003, 6.657032e-001
2.611144e+003, 6.666405e-001
2.613072e+003, 6.671332e-001
2.615001e+003, 6.669297e-001
2.616929e+003, 6.673201e-001
2.618858e+003, 6.674263e-001
2.620786e+003, 6.672232e-001
2.622715e+003, 6.682402e-001
2.624643e+003, 6.692716e-001
2.626572e+003, 6.694854e-001
2.628500e+003, 6.697739e-001
2.630428e+003, 6.700289e-001
2.632357e+003, 6.699787e-001
2.634285e+003, 6.709008e-001
2.636214e+003, 6.721231e-001
2.638142e+003, 6.716357e-001
2.640071e+003, 6.710197e-001
2.641999e+003, 6.712437e-001
2.643928e+003, 6.719941e-001
2.645856e+003, 6.723141e-001
2.647785e+003, 6.728947e-001
2.649713e+003, 6.733165e-001
2.651642e+003, 6.732954e-001
2.653570e+003, 6.733670e-001
2.655499e+003, 6.739017e-001
2.657427e+003, 6.743693e-001
2.659355e+003, 6.745120e-001
2.661284e+003, 6.745263e-001
2.663212e+003, 6.746732e-001
2.665141e+003, 6.752657e-001
2.667069e+003, 6.756210e-001
2.668998e+003, 6.759260e-001
2.670926e+003, 6.762873e-001
2.672855e+003, 6.765598e-001
2.674783e+003, 6.765543e-001
2.676712e+003, 6.765468e-001
2.678640e+003, 6.770015e-001
2.680569e+003, 6.775560e-001
2.682497e+003, 6.777849e-001
2.684426e+003, 6.781367e-001
2.686354e+003, 6.782958e-001
2.688282e+003, 6.786512e-001
2.690211e+003, 6.790295e-001
2.692139e+003, 6.794677e-001
2.694068e+003, 6.796634e-001
2.695996e+003, 6.795307e-001
2.697925e+003, 6.794581e-001
2.699853e+003, 6.797329e-001
2.701782e+003, 6.803095e-001
2.703710e+003, 6.811082e-001
2.705639e+003, 6.809101e-001
2.707567e+003, 6.808930e-001
2.709496e+003, 6.818930e-001
2.711424e+003, 6.825468e-001
2.713353e+003, 6.824065e-001
2.715281e+003, 6.827633e-001
2.717209e+003, 6.829599e-001
2.719138e+003, 6.832216e-001
2.721066e+003, 6.836694e-001
2.722995e+003, 6.835648e-001
2.724923e+003, 6.837616e-001
2.726852e+003, 6.843165e-001
2.728780e+003, 6.845146e-001
2.730709e+003, 6.845427e-001
2.732637e+003, 6.848583e-001
2.734566e+003, 6.849744e-001
2.736494e+003, 6.846121e-001
2.738423e+003, 6.848602e-001
2.740351e+003, 6.855146e-001
2.742280e+003, 6.862510e-001
2.744208e+003, 6.865025e-001
2.746136e+003, 6.865181e-001
2.748065e+003, 6.866710e-001
2.749993e+003, 6.868060e-001
2.751922e+003, 6.874466e-001
2.753850e+003, 6.876594e-001
2.755779e+003, 6.874369e-001
2.757707e+003, 6.872827e-001
2.759636e+003, 6.873258e-001
2.761564e+003, 6.882268e-001
2.763493e+003, 6.889966e-001
2.765421e+003, 6.889189e-001
2.767350e+003, 6.889975e-001
2.769278e+003, 6.889262e-001
2.771207e+003, 6.892647e-001
2.773135e+003, 6.899462e-001
2.775063e+003, 6.899657e-001
2.776992e+003, 6.902499e-001
2.778920e+003, 6.906090e-001
2.780849e+003, 6.904653e-001
2.782777e+003, 6.906123e-001
2.784706e+003, 6.911650e-001
2.786634e+003, 6.914626e-001
2.788563e+003, 6.914322e-001
2.790491e+003, 6.920434e-001
2.792420e+003, 6.931577e-001
2.794348e+003, 6.933688e-001
2.796277e+003, 6.932267e-001
2.798205e+003, 6.932392e-001
2.800134e+003, 6.933551e-001
2.802062e+003, 6.938697e-001
2.803990e+003, 6.941960e-001
2.805919e+003, 6.948336e-001
2.807847e+003, 6.954222e-001
2.809776e+003, 6.957272e-001
2.811704e+003, 6.962011e-001
2.813633e+003, 6.967390e-001
2.815561e+003, 6.970611e-001
2.817490e+003, 6.969956e-001
2.819418e+003, 6.974599e-001
2.821347e+003, 6.977634e-001
2.823275e+003, 6.976343e-001
2.825204e+003, 6.976876e-001
2.827132e+003, 6.978150e-001
2.829061e+003, 6.984803e-001
2.830989e+003, 6.993946e-001
2.832917e+003, 6.992604e-001
2.834846e+003, 6.993020e-001
2.836774e+003, 7.001407e-001
2.838703e+003, 7.007726e-001
2.840631e+003, 7.015410e-001
2.842560e+003, 7.026993e-001
2.844488e+003, 7.032589e-001
2.846417e+003, 7.032261e-001
2.848345e+003, 7.038766e-001
2.850274e+003, 7.050191e-001
2.852202e+003, 7.053641e-001
2.854131e+003, 7.051146e-001
2.856059e+003, 7.052600e-001
2.857988e+003, 7.058681e-001
2.859916e+003, 7.057173e-001
2.861844e+003, 7.052897e-001
2.863773e+003, 7.056317e-001
2.865701e+003, 7.058589e-001
2.867630e+003, 7.060356e-001
2.869558e+003, 7.058994e-001
2.871487e+003, 7.058218e-001
2.873415e+003, 7.064551e-001
2.875344e+003, 7.062002e-001
2.877272e+003, 7.062399e-001
2.879201e+003, 7.069545e-001
2.881129e+003, 7.076551e-001
2.883058e+003, 7.081160e-001
2.884986e+003, 7.084721e-001
2.886915e+003, 7.076554e-001
2.888843e+003, 7.078994e-001
2.890771e+003, 7.089949e-001
2.892700e+003, 7.089241e-001
2.894628e+003, 7.094116e-001
2.896557e+003, 7.101889e-001
2.898485e+003, 7.104853e-001
2.900414e+003, 7.111282e-001
2.902342e+003, 7.117752e-001
2.904271e+003, 7.120426e-001
2.906199e+003, 7.121404e-001
2.908128e+003, 7.128458e-001
2.910056e+003, 7.138056e-001
2.911985e+003, 7.145248e-001
2.913913e+003, 7.151632e-001
2.915842e+003, 7.158911e-001
2.917770e+003, 7.154452e-001
2.919698e+003, 7.150615e-001
2.921627e+003, 7.163241e-001
2.923555e+003, 7.164420e-001
2.925484e+003, 7.164081e-001
2.927412e+003, 7.176102e-001
2.929341e+003, 7.175630e-001
2.931269e+003, 7.166711e-001
2.933198e+003, 7.160687e-001
2.935126e+003, 7.157158e-001
2.937055e+003, 7.160380e-001
2.938983e+003, 7.156907e-001
2.940912e+003, 7.159727e-001
2.942840e+003, 7.158105e-001
2.944769e+003, 7.154689e-001
2.946697e+003, 7.154501e-001
2.948625e+003, 7.153633e-001
2.950554e+003, 7.160112e-001
2.952482e+003, 7.168807e-001
2.954411e+003, 7.173325e-001
2.956339e+003, 7.174313e-001
2.958268e+003, 7.171859e-001
2.960196e+003, 7.165332e-001
2.962125e+003, 7.168010e-001
2.964053e+003, 7.168208e-001
2.965982e+003, 7.159687e-001
2.967910e+003, 7.158341e-001
2.969839e+003, 7.161623e-001
2.971767e+003, 7.159885e-001
2.973696e+003, 7.157710e-001
2.975624e+003, 7.158118e-001
2.977552e+003, 7.157300e-001
2.979481e+003, 7.154684e-001
2.981409e+003, 7.154319e-001
2.983338e+003, 7.150752e-001
2.985266e+003, 7.157349e-001
2.987195e+003, 7.166606e-001
2.989123e+003, 7.167914e-001
2.991052e+003, 7.167646e-001
2.992980e+003, 7.173439e-001
2.994909e+003, 7.176912e-001
2.996837e+003, 7.178636e-001
2.998766e+003, 7.182744e-001
3.000694e+003, 7.180188e-001
3.002623e+003, 7.176533e-001
3.004551e+003, 7.183434e-001
3.006479e+003, 7.197136e-001
3.008408e+003, 7.202948e-001
3.010336e+003, 7.203521e-001
3.012265e+003, 7.200969e-001
3.014193e+003, 7.212347e-001
3.016122e+003, 7.228016e-001
3.018050e+003, 7.222428e-001
3.019979e+003, 7.215091e-001
3.021907e+003, 7.218307e-001
3.023836e+003, 7.223191e-001
3.025764e+003, 7.222345e-001
3.027693e+003, 7.221137e-001
3.029621e+003, 7.225774e-001
3.031550e+003, 7.228431e-001
3.033478e+003, 7.231413e-001
3.035406e+003, 7.233558e-001
3.037335e+003, 7.242186e-001
3.039263e+003, 7.243872e-001
3.041192e+003, 7.248122e-001
3.043120e+003, 7.246601e-001
3.045049e+003, 7.242014e-001
3.046977e+003, 7.243974e-001
3.048906e+003, 7.247620e-001
3.050834e+003, 7.250555e-001
3.052763e+003, 7.258328e-001
3.054691e+003, 7.267961e-001
3.056620e+003, 7.266656e-001
3.058548e+003, 7.258794e-001
3.060477e+003, 7.263977e-001
3.062405e+003, 7.267274e-001
3.064333e+003, 7.267597e-001
3.066262e+003, 7.274810e-001
3.068190e+003, 7.273397e-001
3.070119e+003, 7.277524e-001
3.072047e+003, 7.281867e-001
3.073976e+003, 7.288216e-001
3.075904e+003, 7.303826e-001
3.077833e+003, 7.304450e-001
3.079761e+003, 7.300789e-001
3.081690e+003, 7.299193e-001
3.083618e+003, 7.298991e-001
3.085547e+003, 7.310793e-001
3.087475e+003, 7.312306e-001
3.089404e+003, 7.299315e-001
3.091332e+003, 7.301207e-001
3.093260e+003, 7.308039e-001
3.095189e+003, 7.316115e-001
3.097117e+003, 7.327338e-001
3.099046e+003, 7.335530e-001
3.100974e+003, 7.331379e-001
3.102903e+003, 7.322150e-001
3.104831e+003, 7.323292e-001
3.106760e+003, 7.334006e-001
3.108688e+003, 7.339225e-001
3.110617e+003, 7.342435e-001
3.112545e+003, 7.346284e-001
3.114474e+003, 7.352710e-001
3.116402e+003, 7.348433e-001
3.118331e+003, 7.352006e-001
3.120259e+003, 7.364520e-001
3.122188e+003, 7.374026e-001
3.124116e+003, 7.373576e-001
3.126044e+003, 7.371258e-001
3.127973e+003, 7.364872e-001
3.129901e+003, 7.364776e-001
3.131830e+003, 7.375472e-001
3.133758e+003, 7.375650e-001
3.135687e+003, 7.381698e-001
3.137615e+003, 7.388408e-001
3.139544e+003, 7.388630e-001
3.141472e+003, 7.380047e-001
3.143401e+003, 7.384999e-001
3.145329e+003, 7.396207e-001
3.147258e+003, 7.402574e-001
3.149186e+003, 7.407047e-001
3.151115e+003, 7.403700e-001
3.153043e+003, 7.399935e-001
3.154971e+003, 7.406342e-001
3.156900e+003, 7.406079e-001
3.158828e+003, 7.402468e-001
3.160757e+003, 7.411091e-001
3.162685e+003, 7.415336e-001
3.164614e+003, 7.414288e-001
3.166542e+003, 7.421247e-001
3.168471e+003, 7.432849e-001
3.170399e+003, 7.424536e-001
3.172328e+003, 7.412232e-001
3.174256e+003, 7.414619e-001
3.176185e+003, 7.418348e-001
3.178113e+003, 7.420105e-001
3.180042e+003, 7.418573e-001
3.181970e+003, 7.423322e-001
3.183898e+003, 7.441196e-001
3.185827e+003, 7.448730e-001
3.187755e+003, 7.448437e-001
3.189684e+003, 7.450603e-001
3.191612e+003, 7.447963e-001
3.193541e+003, 7.448798e-001
3.195469e+003, 7.445843e-001
3.197398e+003, 7.448796e-001
3.199326e+003, 7.457812e-001
3.201255e+003, 7.462434e-001
3.203183e+003, 7.469941e-001
3.205112e+003, 7.468480e-001
3.207040e+003, 7.459726e-001
3.208969e+003, 7.466508e-001
3.210897e+003, 7.479879e-001
3.212825e+003, 7.484561e-001
3.214754e+003, 7.480201e-001
3.216682e+003, 7.478119e-001
3.218611e+003, 7.487985e-001
3.220539e+003, 7.494141e-001
3.222468e+003, 7.493849e-001
3.224396e+003, 7.494709e-001
3.226325e+003, 7.493183e-001
3.228253e+003, 7.486300e-001
3.230182e+003, 7.480772e-001
3.232110e+003, 7.491753e-001
3.234039e+003, 7.501157e-001
3.235967e+003, 7.504787e-001
3.237896e+003, 7.508952e-001
3.239824e+003, 7.512370e-001
3.241752e+003, 7.520084e-001
3.243681e+003, 7.521770e-001
3.245609e+003, 7.522761e-001
3.247538e+003, 7.531725e-001
3.249466e+003, 7.530530e-001
3.251395e+003, 7.536553e-001
3.253323e+003, 7.544718e-001
3.255252e+003, 7.544464e-001
3.257180e+003, 7.552195e-001
3.259109e+003, 7.556381e-001
3.261037e+003, 7.549918e-001
3.262966e+003, 7.545182e-001
3.264894e+003, 7.551553e-001
3.266823e+003, 7.546775e-001
3.268751e+003, 7.553295e-001
3.270679e+003, 7.573811e-001
3.272608e+003, 7.573989e-001
3.274536e+003, 7.565047e-001
3.276465e+003, 7.569032e-001
3.278393e+003, 7.581331e-001
3.280322e+003, 7.585937e-001
3.282250e+003, 7.584244e-001
3.284179e+003, 7.578195e-001
3.286107e+003, 7.573236e-001
3.288036e+003, 7.575942e-001
3.289964e+003, 7.579181e-001
3.291893e+003, 7.592839e-001
3.293821e+003, 7.605307e-001
3.295750e+003, 7.606707e-001
3.297678e+003, 7.613815e-001
3.299606e+003, 7.615893e-001
3.301535e+003, 7.605370e-001
3.303463e+003, 7.601148e-001
3.305392e+003, 7.612809e-001
3.307320e+003, 7.621288e-001
3.309249e+003, 7.627827e-001
3.311177e+003, 7.618670e-001
3.313106e+003, 7.611804e-001
3.315034e+003, 7.626529e-001
3.316963e+003, 7.637153e-001
3.318891e+003, 7.629426e-001
3.320820e+003, 7.622934e-001
3.322748e+003, 7.630113e-001
3.324677e+003, 7.636642e-001
3.326605e+003, 7.639787e-001
3.328533e+003, 7.644420e-001
3.330462e+003, 7.642961e-001
3.332390e+003, 7.644554e-001
3.334319e+003, 7.649043e-001
3.336247e+003, 7.649997e-001
3.338176e+003, 7.644396e-001
3.340104e+003, 7.648009e-001
3.342033e+003, 7.654445e-001
3.343961e+003, 7.653840e-001
3.345890e+003, 7.655656e-001
3.347818e+003, 7.661021e-001
3.349747e+003, 7.658775e-001
3.351675e+003, 7.660695e-001
3.353604e+003, 7.672701e-001
3.355532e+003, 7.678874e-001
3.357460e+003, 7.669584e-001
3.359389e+003, 7.665206e-001
3.361317e+003, 7.667319e-001
3.363246e+003, 7.672866e-001
3.365174e+003, 7.677593e-001
3.367103e+003, 7.679028e-001
3.369031e+003, 7.684623e-001
3.370960e+003, 7.694052e-001
3.372888e+003, 7.705176e-001
3.374817e+003, 7.695857e-001
3.376745e+003, 7.685829e-001
3.378674e+003, 7.694755e-001
3.380602e+003, 7.704932e-001
3.382531e+003, 7.702496e-001
3.384459e+003, 7.695259e-001
3.386387e+003, 7.701921e-001
3.388316e+003, 7.708969e-001
3.390244e+003, 7.703548e-001
3.392173e+003, 7.702874e-001
3.394101e+003, 7.703441e-001
3.396030e+003, 7.710110e-001
3.397958e+003, 7.723208e-001
3.399887e+003, 7.733769e-001
3.401815e+003, 7.729651e-001
3.403744e+003, 7.723570e-001
3.405672e+003, 7.728848e-001
3.407601e+003, 7.743989e-001
3.409529e+003, 7.741379e-001
3.411458e+003, 7.729564e-001
3.413386e+003, 7.733862e-001
3.415314e+003, 7.735664e-001
3.417243e+003, 7.740663e-001
3.419171e+003, 7.756170e-001
3.421100e+003, 7.758561e-001
3.423028e+003, 7.760470e-001
3.424957e+003, 7.768466e-001
3.426885e+003, 7.776901e-001
3.428814e+003, 7.780093e-001
3.430742e+003, 7.774361e-001
3.432671e+003, 7.783339e-001
3.434599e+003, 7.791857e-001
3.436528e+003, 7.789776e-001
3.438456e+003, 7.789046e-001
3.440385e+003, 7.792217e-001
3.442313e+003, 7.798398e-001
3.444241e+003, 7.794123e-001
3.446170e+003, 7.787742e-001
3.448098e+003, 7.793372e-001
3.450027e+003, 7.804434e-001
3.451955e+003, 7.802179e-001
3.453884e+003, 7.807125e-001
3.455812e+003, 7.812684e-001
3.457741e+003, 7.811225e-001
3.459669e+003, 7.813687e-001
3.461598e+003, 7.803674e-001
3.463526e+003, 7.791584e-001
3.465455e+003, 7.800117e-001
3.467383e+003, 7.813107e-001
3.469312e+003, 7.818428e-001
3.471240e+003, 7.814976e-001
3.473168e+003, 7.813525e-001
3.475097e+003, 7.820957e-001
3.477025e+003, 7.819471e-001
3.478954e+003, 7.815701e-001
3.480882e+003, 7.823374e-001
3.482811e+003, 7.823029e-001
3.484739e+003, 7.825063e-001
3.486668e+003, 7.827538e-001
3.488596e+003, 7.828493e-001
3.490525e+003, 7.831503e-001
3.492453e+003, 7.839735e-001
3.494382e+003, 7.841748e-001
3.496310e+003, 7.826100e-001
3.498239e+003, 7.817190e-001
3.500167e+003, 7.823217e-001
3.502095e+003, 7.822310e-001
3.504024e+003, 7.819350e-001
3.505952e+003, 7.835190e-001
3.507881e+003, 7.845916e-001
3.509809e+003, 7.837361e-001
3.511738e+003, 7.837193e-001
3.513666e+003, 7.847134e-001
3.515595e+003, 7.847867e-001
3.517523e+003, 7.852905e-001
3.519452e+003, 7.871380e-001
3.521380e+003, 7.879490e-001
3.523309e+003, 7.876750e-001
3.525237e+003, 7.875978e-001
3.527166e+003, 7.877620e-001
3.529094e+003, 7.871231e-001
3.531022e+003, 7.859412e-001
3.532951e+003, 7.865780e-001
3.534879e+003, 7.878895e-001
3.536808e+003, 7.880260e-001
3.538736e+003, 7.871760e-001
3.540665e+003, 7.864412e-001
3.542593e+003, 7.867778e-001
3.544522e+003, 7.872379e-001
3.546450e+003, 7.870620e-001
3.548379e+003, 7.887713e-001
3.550307e+003, 7.896389e-001
3.552236e+003, 7.888343e-001
3.554164e+003, 7.880213e-001
3.556093e+003, 7.872875e-001
3.558021e+003, 7.870635e-001
3.559949e+003, 7.893088e-001
3.561878e+003, 7.901776e-001
3.563806e+003, 7.898772e-001
3.565735e+003, 7.907615e-001
3.567663e+003, 7.900698e-001
3.569592e+003, 7.893025e-001
3.571520e+003, 7.908365e-001
3.573449e+003, 7.914734e-001
3.575377e+003, 7.906877e-001
3.577306e+003, 7.909853e-001
3.579234e+003, 7.925430e-001
3.581163e+003, 7.938583e-001
3.583091e+003, 7.936146e-001
3.585020e+003, 7.930221e-001
3.586948e+003, 7.925758e-001
3.588876e+003, 7.922806e-001
3.590805e+003, 7.923317e-001
3.592733e+003, 7.936435e-001
3.594662e+003, 7.942158e-001
3.596590e+003, 7.940128e-001
3.598519e+003, 7.955328e-001
3.600447e+003, 7.965279e-001
3.602376e+003, 7.952646e-001
3.604304e+003, 7.937015e-001
3.606233e+003, 7.952238e-001
3.608161e+003, 7.959930e-001
3.610090e+003, 7.965800e-001
3.612018e+003, 7.980189e-001
3.613947e+003, 7.974024e-001
3.615875e+003, 7.964478e-001
3.617803e+003, 7.971502e-001
3.619732e+003, 7.971982e-001
3.621660e+003, 7.966404e-001
3.623589e+003, 7.987481e-001
3.625517e+003, 8.002067e-001
3.627446e+003, 7.983332e-001
3.629374e+003, 7.982022e-001
3.631303e+003, 7.991563e-001
3.633231e+003, 7.987429e-001
3.635160e+003, 7.983962e-001
3.637088e+003, 7.975495e-001
3.639017e+003, 7.984809e-001
3.640945e+003, 7.997609e-001
3.642874e+003, 8.007131e-001
3.644802e+003, 8.019708e-001
3.646730e+003, 8.033959e-001
3.648659e+003, 8.031917e-001
3.650587e+003, 8.022531e-001
3.652516e+003, 8.018111e-001
3.654444e+003, 8.015006e-001
3.656373e+003, 8.013442e-001
3.658301e+003, 8.016166e-001
3.660230e+003, 8.019243e-001
3.662158e+003, 8.017491e-001
3.664087e+003, 8.022275e-001
3.666015e+003, 8.033470e-001
3.667944e+003, 8.038273e-001
3.669872e+003, 8.047125e-001
3.671801e+003, 8.051222e-001
3.673729e+003, 8.042364e-001
3.675657e+003, 8.035392e-001
3.677586e+003, 8.045415e-001
3.679514e+003, 8.054198e-001
3.681443e+003, 8.051780e-001
3.683371e+003, 8.063443e-001
3.685300e+003, 8.065481e-001
3.687228e+003, 8.069759e-001
3.689157e+003, 8.075109e-001
3.691085e+003, 8.086386e-001
3.693014e+003, 8.086740e-001
3.694942e+003, 8.089809e-001
3.696871e+003, 8.101734e-001
3.698799e+003, 8.094770e-001
3.700728e+003, 8.098325e-001
3.702656e+003, 8.101970e-001
3.704584e+003, 8.107442e-001
3.706513e+003, 8.114026e-001
3.708441e+003, 8.115464e-001
3.710370e+003, 8.122388e-001
3.712298e+003, 8.118543e-001
3.714227e+003, 8.111064e-001
3.716155e+003, 8.117235e-001
3.718084e+003, 8.105420e-001
3.720012e+003, 8.112025e-001
3.721941e+003, 8.141150e-001
3.723869e+003, 8.148197e-001
3.725798e+003, 8.145619e-001
3.727726e+003, 8.149936e-001
3.729655e+003, 8.154203e-001
3.731583e+003, 8.170481e-001
3.733511e+003, 8.189165e-001
3.735440e+003, 8.179780e-001
3.737368e+003, 8.169146e-001
3.739297e+003, 8.169270e-001
3.741225e+003, 8.172343e-001
3.743154e+003, 8.175349e-001
3.745082e+003, 8.175018e-001
3.747011e+003, 8.182651e-001
3.748939e+003, 8.201682e-001
3.750868e+003, 8.198541e-001
3.752796e+003, 8.184432e-001
3.754725e+003, 8.172286e-001
3.756653e+003, 8.175262e-001
3.758582e+003, 8.170087e-001
3.760510e+003, 8.171094e-001
3.762438e+003, 8.180987e-001
3.764367e+003, 8.174378e-001
3.766295e+003, 8.179415e-001
3.768224e+003, 8.186597e-001
3.770152e+003, 8.198477e-001
3.772081e+003, 8.201103e-001
3.774009e+003, 8.202615e-001
3.775938e+003, 8.198234e-001
3.777866e+003, 8.209004e-001
3.779795e+003, 8.217523e-001
3.781723e+003, 8.211266e-001
3.783652e+003, 8.210033e-001
3.785580e+003, 8.196500e-001
3.787509e+003, 8.205972e-001
3.789437e+003, 8.239657e-001
3.791365e+003, 8.253990e-001
3.793294e+003, 8.246630e-001
3.795222e+003, 8.250082e-001
3.797151e+003, 8.250537e-001
3.799079e+003, 8.233396e-001
3.801008e+003, 8.244090e-001
3.802936e+003, 8.243547e-001
3.804865e+003, 8.248163e-001
3.806793e+003, 8.259636e-001
3.808722e+003, 8.258971e-001
3.810650e+003, 8.261757e-001
3.812579e+003, 8.258459e-001
3.814507e+003, 8.269131e-001
3.816436e+003, 8.258402e-001
3.818364e+003, 8.257022e-001
3.820292e+003, 8.279240e-001
3.822221e+003, 8.288646e-001
3.824149e+003, 8.274076e-001
3.826078e+003, 8.273140e-001
3.828006e+003, 8.290307e-001
3.829935e+003, 8.291770e-001
3.831863e+003, 8.291475e-001
3.833792e+003, 8.288448e-001
3.835720e+003, 8.287872e-001
3.837649e+003, 8.300003e-001
3.839577e+003, 8.309165e-001
3.841506e+003, 8.316110e-001
3.843434e+003, 8.308477e-001
3.845363e+003, 8.314224e-001
3.847291e+003, 8.320199e-001
3.849219e+003, 8.325781e-001
3.851148e+003, 8.333493e-001
3.853076e+003, 8.335944e-001
3.855005e+003, 8.329327e-001
3.856933e+003, 8.326467e-001
3.858862e+003, 8.329352e-001
3.860790e+003, 8.336902e-001
3.862719e+003, 8.351477e-001
3.864647e+003, 8.367825e-001
3.866576e+003, 8.372442e-001
3.868504e+003, 8.367100e-001
3.870433e+003, 8.354858e-001
3.872361e+003, 8.364856e-001
3.874290e+003, 8.358984e-001
3.876218e+003, 8.336034e-001
3.878146e+003, 8.339702e-001
3.880075e+003, 8.355961e-001
3.882003e+003, 8.371298e-001
3.883932e+003, 8.366516e-001
3.885860e+003, 8.360784e-001
3.887789e+003, 8.359333e-001
3.889717e+003, 8.359476e-001
3.891646e+003, 8.359336e-001
3.893574e+003, 8.374947e-001
3.895503e+003, 8.398454e-001
3.897431e+003, 8.414577e-001
3.899360e+003, 8.413886e-001
3.901288e+003, 8.403326e-001
3.903217e+003, 8.392426e-001
3.905145e+003, 8.402342e-001
3.907073e+003, 8.412585e-001
3.909002e+003, 8.409311e-001
3.910930e+003, 8.420784e-001
3.912859e+003, 8.427730e-001
3.914787e+003, 8.416456e-001
3.916716e+003, 8.419127e-001
3.918644e+003, 8.426024e-001
3.920573e+003, 8.404916e-001
3.922501e+003, 8.385470e-001
3.924430e+003, 8.409325e-001
3.926358e+003, 8.441435e-001
3.928287e+003, 8.448464e-001
3.930215e+003, 8.429208e-001
3.932144e+003, 8.428010e-001
3.934072e+003, 8.439100e-001
3.936000e+003, 8.448007e-001
3.937929e+003, 8.455358e-001
3.939857e+003, 8.449463e-001
3.941786e+003, 8.448105e-001
3.943714e+003, 8.451510e-001
3.945643e+003, 8.457377e-001
3.947571e+003, 8.465641e-001
3.949500e+003, 8.464804e-001
3.951428e+003, 8.477749e-001
3.953357e+003, 8.478001e-001
3.955285e+003, 8.479161e-001
3.957214e+003, 8.482530e-001
3.959142e+003, 8.479350e-001
3.961071e+003, 8.462432e-001
3.962999e+003, 8.470841e-001
3.964927e+003, 8.484740e-001
3.966856e+003, 8.496709e-001
3.968784e+003, 8.500749e-001
3.970713e+003, 8.507702e-001
3.972641e+003, 8.510760e-001
3.974570e+003, 8.497320e-001
3.976498e+003, 8.496489e-001
3.978427e+003, 8.499913e-001
3.980355e+003, 8.511038e-001
3.982284e+003, 8.512179e-001
3.984212e+003, 8.498996e-001
3.986141e+003, 8.500865e-001
3.988069e+003, 8.498835e-001
3.989998e+003, 8.507212e-001
3.991926e+003, 8.521680e-001
3.993854e+003, 8.530085e-001
3.995783e+003, 8.533957e-001
3.997711e+003, 8.538550e-001
3.999640e+003, 8.531255e-001
4.001568e+003, 0.000000e+000
##END=



