##NAMES=Stephanite
##RRUFFID=R050309
##IDEAL CHEMISTRY=Ag^1+^_5_Sb^3+^S^2-^_4_
##LOCALITY=Sonora, Mexico
##OWNER=RRUFF
##SOURCE=Eugene Schlepp
##DESCRIPTION=Black fragment in quartz, associated with pyrargyrite. Electron microscope image shows two fine-scale phases.
##STATUS=The identification of this mineral is confirmed by single-crystal X-ray diffraction and chemical analysis.
##URL=rruff.info/R050309
##MEASURED CHEMISTRY=Ag_5.22_(Sb_0.93_As_0.10_)_Î£=1.03_S_4.00_
399.1926, 0.2040037
401.1211, 0.2116564
403.0496, 0.2126739
404.9780, 0.2144336
406.9065, 0.2171159
408.8350, 0.2202028
410.7634, 0.2235592
412.6919, 0.2239033
414.6204, 0.2283192
416.5488, 0.2344457
418.4773, 0.2369451
420.4058, 0.2397708
422.3342, 0.2424169
424.2627, 0.2405513
426.1912, 0.2438351
428.1196, 0.2455712
430.0481, 0.2448523
431.9766, 0.2455946
433.9050, 0.2471071
435.8335, 0.2502836
437.7620, 0.2542856
439.6904, 0.2541515
441.6189, 0.2538902
443.5474, 0.2539662
445.4758, 0.2581901
447.4043, 0.2634549
449.3328, 0.2650201
451.2612, 0.2650627
453.1897, 0.2666940
455.1182, 0.2702906
457.0466, 0.2725827
458.9751, 0.2738024
460.9036, 0.2739036
462.8320, 0.2740033
464.7605, 0.2759669
466.6890, 0.2790980
468.6174, 0.2812160
470.5459, 0.2825701
472.4744, 0.2827972
474.4028, 0.2829719
476.3313, 0.2855664
478.2598, 0.2867782
480.1882, 0.2856827
482.1167, 0.2847712
484.0452, 0.2853028
485.9736, 0.2875662
487.9021, 0.2893513
489.8306, 0.2912572
491.7590, 0.2931957
493.6875, 0.2939216
495.6160, 0.2966385
497.5444, 0.2998591
499.4729, 0.3001615
501.4014, 0.3016543
503.3298, 0.3039729
505.2583, 0.3045257
507.1868, 0.3062367
509.1152, 0.3077863
511.0437, 0.3085144
512.9722, 0.3111199
514.9006, 0.3121273
516.8291, 0.3132389
518.7576, 0.3144868
520.6860, 0.3148448
522.6145, 0.3158793
524.5430, 0.3164537
526.4714, 0.3173482
528.3999, 0.3178197
530.3284, 0.3207269
532.2568, 0.3236770
534.1853, 0.3240331
536.1138, 0.3243523
538.0422, 0.3256070
539.9707, 0.3259509
541.8992, 0.3267113
543.8276, 0.3291977
545.7561, 0.3300027
547.6846, 0.3316555
549.6130, 0.3350973
551.5415, 0.3370720
553.4700, 0.3387222
555.3984, 0.3389698
557.3269, 0.3380369
559.2554, 0.3382175
561.1838, 0.3382351
563.1123, 0.3377457
565.0408, 0.3392809
566.9692, 0.3391882
568.8977, 0.3404907
570.8262, 0.3429575
572.7546, 0.3428885
574.6831, 0.3439158
576.6116, 0.3452647
578.5400, 0.3471610
580.4685, 0.3489195
582.3970, 0.3484184
584.3254, 0.3480785
586.2539, 0.3503056
588.1824, 0.3521066
590.1108, 0.3525802
592.0393, 0.3535912
593.9678, 0.3548548
595.8962, 0.3570241
597.8247, 0.3578126
599.7532, 0.3588293
601.6816, 0.3599806
603.6101, 0.3601999
605.5386, 0.3606183
607.4670, 0.3623679
609.3955, 0.3629458
611.3240, 0.3632496
613.2524, 0.3645973
615.1809, 0.3652592
617.1094, 0.3663207
619.0378, 0.3668140
620.9663, 0.3666656
622.8948, 0.3674936
624.8232, 0.3690341
626.7517, 0.3700683
628.6802, 0.3723152
630.6086, 0.3737376
632.5371, 0.3745481
634.4656, 0.3754299
636.3940, 0.3760998
638.3225, 0.3759724
640.2510, 0.3751953
642.1794, 0.3755037
644.1079, 0.3768985
646.0364, 0.3781600
647.9648, 0.3779454
649.8933, 0.3788369
651.8218, 0.3805600
653.7502, 0.3807329
655.6787, 0.3807042
657.6072, 0.3816504
659.5356, 0.3833131
661.4641, 0.3835032
663.3926, 0.3833274
665.3210, 0.3825364
667.2495, 0.3836423
669.1780, 0.3847368
671.1064, 0.3863859
673.0349, 0.3872097
674.9634, 0.3865651
676.8918, 0.3871419
678.8203, 0.3873071
680.7488, 0.3878636
682.6772, 0.3886613
684.6057, 0.3893340
686.5342, 0.3900310
688.4626, 0.3908758
690.3911, 0.3923719
692.3196, 0.3932192
694.2480, 0.3933400
696.1765, 0.3945410
698.1050, 0.3953706
700.0334, 0.3957186
701.9619, 0.3969376
703.8904, 0.3978433
705.8188, 0.3985414
707.7473, 0.3989047
709.6758, 0.3990569
711.6042, 0.4001724
713.5327, 0.4007309
715.4612, 0.4006152
717.3896, 0.4015987
719.3181, 0.4023883
721.2466, 0.4029239
723.1750, 0.4037855
725.1035, 0.4038113
727.0320, 0.4042427
728.9604, 0.4053663
730.8889, 0.4061259
732.8174, 0.4072434
734.7458, 0.4074022
736.6743, 0.4075196
738.6028, 0.4085381
740.5313, 0.4108151
742.4597, 0.4124354
744.3882, 0.4132597
746.3167, 0.4133566
748.2451, 0.4135501
750.1736, 0.4142259
752.1021, 0.4159288
754.0305, 0.4177892
755.9590, 0.4191503
757.8875, 0.4203092
759.8159, 0.4219636
761.7444, 0.4232887
763.6729, 0.4245611
765.6013, 0.4251243
767.5298, 0.4257552
769.4583, 0.4270172
771.3867, 0.4274329
773.3152, 0.4279758
775.2437, 0.4288352
777.1721, 0.4290217
779.1006, 0.4288072
781.0291, 0.4289396
782.9575, 0.4292172
784.8860, 0.4294606
786.8145, 0.4298530
788.7429, 0.4304881
790.6714, 0.4303918
792.5999, 0.4302479
794.5283, 0.4310170
796.4568, 0.4318141
798.3853, 0.4321035
800.3137, 0.4321258
802.2422, 0.4321837
804.1707, 0.4322827
806.0991, 0.4329827
808.0276, 0.4332398
809.9561, 0.4329304
811.8845, 0.4336613
813.8130, 0.4349767
815.7415, 0.4352799
817.6699, 0.4351792
819.5984, 0.4358280
821.5269, 0.4362041
823.4553, 0.4360578
825.3838, 0.4367346
827.3123, 0.4377714
829.2407, 0.4382080
831.1692, 0.4378585
833.0977, 0.4380364
835.0261, 0.4386658
836.9546, 0.4391018
838.8831, 0.4388931
840.8115, 0.4385332
842.7400, 0.4386877
844.6685, 0.4389518
846.5969, 0.4392262
848.5254, 0.4396194
850.4539, 0.4400015
852.3823, 0.4396806
854.3108, 0.4398686
856.2393, 0.4413898
858.1677, 0.4419260
860.0962, 0.4418786
862.0247, 0.4416978
863.9531, 0.4410379
865.8816, 0.4406359
867.8101, 0.4412912
869.7385, 0.4424786
871.6670, 0.4437518
873.5955, 0.4442998
875.5239, 0.4446075
877.4524, 0.4451241
879.3809, 0.4447098
881.3093, 0.4444436
883.2378, 0.4456450
885.1663, 0.4460301
887.0947, 0.4462862
889.0232, 0.4468268
890.9517, 0.4471746
892.8801, 0.4470624
894.8086, 0.4472446
896.7371, 0.4477696
898.6655, 0.4492699
900.5940, 0.4499916
902.5225, 0.4497603
904.4509, 0.4507660
906.3794, 0.4516445
908.3079, 0.4518904
910.2363, 0.4522281
912.1648, 0.4524888
914.0933, 0.4529203
916.0217, 0.4539671
917.9502, 0.4549866
919.8787, 0.4557092
921.8071, 0.4563409
923.7356, 0.4569384
925.6641, 0.4574182
927.5925, 0.4571794
929.5210, 0.4575871
931.4495, 0.4585318
933.3779, 0.4589817
935.3064, 0.4591596
937.2349, 0.4595167
939.1633, 0.4596311
941.0918, 0.4603598
943.0203, 0.4609867
944.9487, 0.4617031
946.8772, 0.4625520
948.8057, 0.4627535
950.7341, 0.4628980
952.6626, 0.4631598
954.5911, 0.4638661
956.5195, 0.4645091
958.4480, 0.4647689
960.3765, 0.4650407
962.3049, 0.4658630
964.2334, 0.4661634
966.1619, 0.4666366
968.0903, 0.4671848
970.0188, 0.4674415
971.9473, 0.4681637
973.8757, 0.4687204
975.8042, 0.4694790
977.7327, 0.4702300
979.6611, 0.4706596
981.5896, 0.4711658
983.5181, 0.4717806
985.4465, 0.4725981
987.3750, 0.4735966
989.3035, 0.4745840
991.2319, 0.4752097
993.1604, 0.4752719
995.0889, 0.4753815
997.0173, 0.4756312
998.9458, 0.4762867
1000.874, 0.4770068
1002.803, 0.4780325
1004.731, 0.4788865
1006.660, 0.4791382
1008.588, 0.4799173
1010.517, 0.4811684
1012.445, 0.4824405
1014.374, 0.4828413
1016.302, 0.4828657
1018.230, 0.4827704
1020.159, 0.4829427
1022.087, 0.4838044
1024.016, 0.4842055
1025.944, 0.4845159
1027.873, 0.4854007
1029.801, 0.4860117
1031.730, 0.4861619
1033.658, 0.4870115
1035.587, 0.4876423
1037.515, 0.4876692
1039.444, 0.4879255
1041.372, 0.4887258
1043.301, 0.4894660
1045.229, 0.4892806
1047.157, 0.4895291
1049.086, 0.4904124
1051.014, 0.4905470
1052.943, 0.4903916
1054.871, 0.4910905
1056.800, 0.4915452
1058.728, 0.4914763
1060.657, 0.4919615
1062.585, 0.4927601
1064.514, 0.4941657
1066.442, 0.4948732
1068.371, 0.4948184
1070.299, 0.4953057
1072.228, 0.4958375
1074.156, 0.4963405
1076.084, 0.4971403
1078.013, 0.4974056
1079.941, 0.4976704
1081.870, 0.4985087
1083.798, 0.4988186
1085.727, 0.4995143
1087.655, 0.4999853
1089.584, 0.5000279
1091.512, 0.5003361
1093.441, 0.5000205
1095.369, 0.5002050
1097.298, 0.5008405
1099.226, 0.5012156
1101.155, 0.5011854
1103.083, 0.5014807
1105.011, 0.5023280
1106.940, 0.5024861
1108.868, 0.5026041
1110.797, 0.5035095
1112.725, 0.5040569
1114.654, 0.5044116
1116.582, 0.5045173
1118.511, 0.5042266
1120.439, 0.5045037
1122.368, 0.5057887
1124.296, 0.5067614
1126.225, 0.5077365
1128.153, 0.5081708
1130.082, 0.5083186
1132.010, 0.5091064
1133.938, 0.5104723
1135.867, 0.5112360
1137.795, 0.5119246
1139.724, 0.5126193
1141.652, 0.5128080
1143.581, 0.5127728
1145.509, 0.5132706
1147.438, 0.5138577
1149.366, 0.5137662
1151.295, 0.5136413
1153.223, 0.5139714
1155.152, 0.5145893
1157.080, 0.5145940
1159.009, 0.5145130
1160.937, 0.5144292
1162.865, 0.5140609
1164.794, 0.5139080
1166.722, 0.5138628
1168.651, 0.5138890
1170.579, 0.5141394
1172.508, 0.5143998
1174.436, 0.5148982
1176.365, 0.5154209
1178.293, 0.5156125
1180.222, 0.5164387
1182.150, 0.5175118
1184.079, 0.5181860
1186.007, 0.5188966
1187.936, 0.5197136
1189.864, 0.5203206
1191.792, 0.5207146
1193.721, 0.5209427
1195.649, 0.5211860
1197.578, 0.5217549
1199.506, 0.5224398
1201.435, 0.5230761
1203.363, 0.5235860
1205.292, 0.5241767
1207.220, 0.5244043
1209.149, 0.5244014
1211.077, 0.5248470
1213.006, 0.5249273
1214.934, 0.5250121
1216.863, 0.5257037
1218.791, 0.5263728
1220.719, 0.5261782
1222.648, 0.5262482
1224.576, 0.5266487
1226.505, 0.5272551
1228.433, 0.5277461
1230.362, 0.5279163
1232.290, 0.5276117
1234.219, 0.5281472
1236.147, 0.5289537
1238.076, 0.5292182
1240.004, 0.5291864
1241.933, 0.5291406
1243.861, 0.5294769
1245.790, 0.5295202
1247.718, 0.5299031
1249.646, 0.5302079
1251.575, 0.5296543
1253.503, 0.5298134
1255.432, 0.5303580
1257.360, 0.5308299
1259.289, 0.5308616
1261.217, 0.5307719
1263.146, 0.5308923
1265.074, 0.5309252
1267.003, 0.5306793
1268.931, 0.5309344
1270.860, 0.5312936
1272.788, 0.5318643
1274.717, 0.5325080
1276.645, 0.5327669
1278.573, 0.5328630
1280.502, 0.5333872
1282.430, 0.5342043
1284.359, 0.5347155
1286.287, 0.5350264
1288.216, 0.5356572
1290.144, 0.5365401
1292.073, 0.5372617
1294.001, 0.5372034
1295.930, 0.5373932
1297.858, 0.5377786
1299.787, 0.5381854
1301.715, 0.5387087
1303.644, 0.5389025
1305.572, 0.5391704
1307.500, 0.5398819
1309.429, 0.5401925
1311.357, 0.5402368
1313.286, 0.5404707
1315.214, 0.5406576
1317.143, 0.5411890
1319.071, 0.5422404
1321.000, 0.5425483
1322.928, 0.5424480
1324.857, 0.5430898
1326.785, 0.5436634
1328.714, 0.5435643
1330.642, 0.5439619
1332.571, 0.5451301
1334.499, 0.5459288
1336.427, 0.5461268
1338.356, 0.5464299
1340.284, 0.5465882
1342.213, 0.5466872
1344.141, 0.5472309
1346.070, 0.5478932
1347.998, 0.5485955
1349.927, 0.5489349
1351.855, 0.5488783
1353.784, 0.5495183
1355.712, 0.5498933
1357.641, 0.5500370
1359.569, 0.5506868
1361.498, 0.5510876
1363.426, 0.5519906
1365.354, 0.5524634
1367.283, 0.5525353
1369.211, 0.5528661
1371.140, 0.5532210
1373.068, 0.5531883
1374.997, 0.5532383
1376.925, 0.5538055
1378.854, 0.5543360
1380.782, 0.5548675
1382.711, 0.5555723
1384.639, 0.5559767
1386.568, 0.5569909
1388.496, 0.5580100
1390.425, 0.5585206
1392.353, 0.5586706
1394.281, 0.5591105
1396.210, 0.5599957
1398.138, 0.5606798
1400.067, 0.5612155
1401.995, 0.5614589
1403.924, 0.5618289
1405.852, 0.5630549
1407.781, 0.5643238
1409.709, 0.5646918
1411.638, 0.5653625
1413.566, 0.5665089
1415.495, 0.5670517
1417.423, 0.5677118
1419.352, 0.5684283
1421.280, 0.5686402
1423.208, 0.5691164
1425.137, 0.5698190
1427.065, 0.5699434
1428.994, 0.5698576
1430.922, 0.5700530
1432.851, 0.5703552
1434.779, 0.5703666
1436.708, 0.5707250
1438.636, 0.5716118
1440.565, 0.5726631
1442.493, 0.5729396
1444.422, 0.5727821
1446.350, 0.5730153
1448.279, 0.5735390
1450.207, 0.5737516
1452.135, 0.5739364
1454.064, 0.5741332
1455.992, 0.5739291
1457.921, 0.5741280
1459.849, 0.5747531
1461.778, 0.5751092
1463.706, 0.5748568
1465.635, 0.5746471
1467.563, 0.5757812
1469.492, 0.5777887
1471.420, 0.5793980
1473.349, 0.5801269
1475.277, 0.5805666
1477.206, 0.5813314
1479.134, 0.5814073
1481.063, 0.5815973
1482.991, 0.5822409
1484.919, 0.5823960
1486.848, 0.5821861
1488.776, 0.5826827
1490.705, 0.5830697
1492.633, 0.5831202
1494.562, 0.5831667
1496.490, 0.5832884
1498.419, 0.5833805
1500.347, 0.5840974
1502.276, 0.5844293
1504.204, 0.5847456
1506.133, 0.5847620
1508.061, 0.5842608
1509.990, 0.5845458
1511.918, 0.5850781
1513.846, 0.5847604
1515.775, 0.5838111
1517.703, 0.5839431
1519.632, 0.5846601
1521.560, 0.5851707
1523.489, 0.5851803
1525.417, 0.5853473
1527.346, 0.5858536
1529.274, 0.5857611
1531.203, 0.5857280
1533.131, 0.5858503
1535.060, 0.5856000
1536.988, 0.5856241
1538.917, 0.5861208
1540.845, 0.5864750
1542.773, 0.5863983
1544.702, 0.5869808
1546.630, 0.5878342
1548.559, 0.5880284
1550.487, 0.5880750
1552.416, 0.5881848
1554.344, 0.5884900
1556.273, 0.5892742
1558.201, 0.5901209
1560.130, 0.5898564
1562.058, 0.5895861
1563.987, 0.5900276
1565.915, 0.5906106
1567.844, 0.5907797
1569.772, 0.5909042
1571.700, 0.5913041
1573.629, 0.5917627
1575.557, 0.5922937
1577.486, 0.5925090
1579.414, 0.5926063
1581.343, 0.5931618
1583.271, 0.5938018
1585.200, 0.5939450
1587.128, 0.5940757
1589.057, 0.5947559
1590.985, 0.5951457
1592.914, 0.5954438
1594.842, 0.5958207
1596.771, 0.5960745
1598.699, 0.5964553
1600.627, 0.5967622
1602.556, 0.5972256
1604.484, 0.5976804
1606.413, 0.5984678
1608.341, 0.5986626
1610.270, 0.5987088
1612.198, 0.5985683
1614.127, 0.5984060
1616.055, 0.5990779
1617.984, 0.5998355
1619.912, 0.6004348
1621.841, 0.6004905
1623.769, 0.6000204
1625.698, 0.6001711
1627.626, 0.6008570
1629.554, 0.6016801
1631.483, 0.6020526
1633.411, 0.6022041
1635.340, 0.6026250
1637.268, 0.6031628
1639.197, 0.6031939
1641.125, 0.6036072
1643.054, 0.6038734
1644.982, 0.6038719
1646.911, 0.6042866
1648.839, 0.6047711
1650.768, 0.6052470
1652.696, 0.6055026
1654.625, 0.6063528
1656.553, 0.6066121
1658.481, 0.6060767
1660.410, 0.6061591
1662.338, 0.6067768
1664.267, 0.6073768
1666.195, 0.6079719
1668.124, 0.6079697
1670.052, 0.6078928
1671.981, 0.6078283
1673.909, 0.6083320
1675.838, 0.6095861
1677.766, 0.6104396
1679.695, 0.6104259
1681.623, 0.6108144
1683.552, 0.6112579
1685.480, 0.6111681
1687.408, 0.6115190
1689.337, 0.6117115
1691.265, 0.6120563
1693.194, 0.6119609
1695.122, 0.6118648
1697.051, 0.6122979
1698.979, 0.6122401
1700.908, 0.6115792
1702.836, 0.6110450
1704.765, 0.6109980
1706.693, 0.6103089
1708.622, 0.6102675
1710.550, 0.6110464
1712.479, 0.6116473
1714.407, 0.6120296
1716.335, 0.6119202
1718.264, 0.6127945
1720.192, 0.6139978
1722.121, 0.6151388
1724.049, 0.6156054
1725.978, 0.6155866
1727.906, 0.6159988
1729.835, 0.6163426
1731.763, 0.6158811
1733.692, 0.6154080
1735.620, 0.6143685
1737.549, 0.6141576
1739.477, 0.6144515
1741.406, 0.6136420
1743.334, 0.6137195
1745.262, 0.6148779
1747.191, 0.6158323
1749.119, 0.6165577
1751.048, 0.6176571
1752.976, 0.6191631
1754.905, 0.6212160
1756.833, 0.6222702
1758.762, 0.6232853
1760.690, 0.6245392
1762.619, 0.6248557
1764.547, 0.6256471
1766.476, 0.6268904
1768.404, 0.6270710
1770.333, 0.6268710
1772.261, 0.6274545
1774.189, 0.6282789
1776.118, 0.6290438
1778.046, 0.6293709
1779.975, 0.6293087
1781.903, 0.6297352
1783.832, 0.6296065
1785.760, 0.6289988
1787.689, 0.6291685
1789.617, 0.6304696
1791.546, 0.6314197
1793.474, 0.6309673
1795.403, 0.6303289
1797.331, 0.6308588
1799.260, 0.6317694
1801.188, 0.6312755
1803.116, 0.6306914
1805.045, 0.6309232
1806.973, 0.6314411
1808.902, 0.6318763
1810.830, 0.6319790
1812.759, 0.6322864
1814.687, 0.6327865
1816.616, 0.6333212
1818.544, 0.6333932
1820.473, 0.6332513
1822.401, 0.6335841
1824.330, 0.6336902
1826.258, 0.6338092
1828.187, 0.6336867
1830.115, 0.6341596
1832.043, 0.6349459
1833.972, 0.6366425
1835.900, 0.6366239
1837.829, 0.6363931
1839.757, 0.6360456
1841.686, 0.6363208
1843.614, 0.6366839
1845.543, 0.6367252
1847.471, 0.6360092
1849.400, 0.6348581
1851.328, 0.6362145
1853.257, 0.6386383
1855.185, 0.6394841
1857.114, 0.6387193
1859.042, 0.6381532
1860.970, 0.6389269
1862.899, 0.6395584
1864.827, 0.6394051
1866.756, 0.6410497
1868.684, 0.6425859
1870.613, 0.6426224
1872.541, 0.6422485
1874.470, 0.6416082
1876.398, 0.6414750
1878.327, 0.6427729
1880.255, 0.6425093
1882.184, 0.6404001
1884.112, 0.6415139
1886.041, 0.6440574
1887.969, 0.6440688
1889.897, 0.6424672
1891.826, 0.6440405
1893.754, 0.6441687
1895.683, 0.6435050
1897.611, 0.6441559
1899.540, 0.6446915
1901.468, 0.6460265
1903.397, 0.6458216
1905.325, 0.6448658
1907.254, 0.6442300
1909.182, 0.6436927
1911.111, 0.6449422
1913.039, 0.6463661
1914.968, 0.6458129
1916.896, 0.6467295
1918.824, 0.6467425
1920.753, 0.6451069
1922.681, 0.6438413
1924.610, 0.6429718
1926.538, 0.6436077
1928.467, 0.6445423
1930.395, 0.6466783
1932.324, 0.6461767
1934.252, 0.6452492
1936.181, 0.6435966
1938.109, 0.6426055
1940.038, 0.6428821
1941.966, 0.6439984
1943.895, 0.6450641
1945.823, 0.6443243
1947.751, 0.6456972
1949.680, 0.6472284
1951.608, 0.6463243
1953.537, 0.6440536
1955.465, 0.6434500
1957.394, 0.6441794
1959.322, 0.6419373
1961.251, 0.6389220
1963.179, 0.6360624
1965.108, 0.6366931
1967.036, 0.6379057
1968.965, 0.6323690
1970.893, 0.6305070
1972.822, 0.6347827
1974.750, 0.6386244
1976.678, 0.6397166
1978.607, 0.6418266
1980.535, 0.6450276
1982.464, 0.6449535
1984.392, 0.6446689
1986.321, 0.6409195
1988.249, 0.6415576
1990.178, 0.6422905
1992.106, 0.6418412
1994.035, 0.6459364
1995.963, 0.6486297
1997.892, 0.6475278
1999.820, 0.6459742
2001.749, 0.6439027
2003.677, 0.6465371
2005.605, 0.6455847
2007.534, 0.6403917
2009.462, 0.6421872
2011.391, 0.6434970
2013.319, 0.6427251
2015.248, 0.6389703
2017.176, 0.6393362
2019.105, 0.6406320
2021.033, 0.6386359
2022.962, 0.6384008
2024.890, 0.6368378
2026.819, 0.6378019
2028.747, 0.6400754
2030.676, 0.6401259
2032.604, 0.6397965
2034.532, 0.6445802
2036.461, 0.6449972
2038.389, 0.6427349
2040.318, 0.6467466
2042.246, 0.6504703
2044.175, 0.6540395
2046.103, 0.6535409
2048.032, 0.6541321
2049.960, 0.6590593
2051.889, 0.6610273
2053.817, 0.6600209
2055.746, 0.6588505
2057.674, 0.6591585
2059.603, 0.6593671
2061.531, 0.6616057
2063.459, 0.6641973
2065.388, 0.6621765
2067.316, 0.6614149
2069.245, 0.6630397
2071.173, 0.6638583
2073.102, 0.6635158
2075.030, 0.6655051
2076.959, 0.6684500
2078.887, 0.6687347
2080.816, 0.6680310
2082.744, 0.6685326
2084.673, 0.6695243
2086.601, 0.6690997
2088.530, 0.6695783
2090.458, 0.6702608
2092.386, 0.6687179
2094.315, 0.6690015
2096.243, 0.6714062
2098.172, 0.6692878
2100.100, 0.6688890
2102.029, 0.6724882
2103.957, 0.6746220
2105.886, 0.6737360
2107.814, 0.6738973
2109.743, 0.6736895
2111.671, 0.6741710
2113.600, 0.6752314
2115.528, 0.6772915
2117.457, 0.6769440
2119.385, 0.6776664
2121.313, 0.6771938
2123.242, 0.6744028
2125.170, 0.6734725
2127.099, 0.6756545
2129.027, 0.6762372
2130.956, 0.6728411
2132.884, 0.6703784
2134.813, 0.6702679
2136.741, 0.6699803
2138.670, 0.6693761
2140.598, 0.6695178
2142.527, 0.6673036
2144.455, 0.6654302
2146.384, 0.6655848
2148.312, 0.6652798
2150.240, 0.6655492
2152.169, 0.6670652
2154.097, 0.6644850
2156.026, 0.6599872
2157.954, 0.6564026
2159.883, 0.6556379
2161.811, 0.6548643
2163.740, 0.6588153
2165.668, 0.6667264
2167.597, 0.6692035
2169.525, 0.6720397
2171.454, 0.6743920
2173.382, 0.6737244
2175.311, 0.6701447
2177.239, 0.6684372
2179.167, 0.6704202
2181.096, 0.6715907
2183.024, 0.6729534
2184.953, 0.6741696
2186.881, 0.6733164
2188.810, 0.6747991
2190.738, 0.6750897
2192.667, 0.6778435
2194.595, 0.6833887
2196.524, 0.6870592
2198.452, 0.6843669
2200.381, 0.6804809
2202.309, 0.6820635
2204.238, 0.6829956
2206.166, 0.6824391
2208.094, 0.6808420
2210.023, 0.6793767
2211.951, 0.6837310
2213.880, 0.6863561
2215.808, 0.6864122
2217.737, 0.6861110
2219.665, 0.6864784
2221.594, 0.6884234
2223.522, 0.6897259
2225.451, 0.6916153
2227.379, 0.6947961
2229.308, 0.6903242
2231.236, 0.6878679
2233.165, 0.6911666
2235.093, 0.6897805
2237.021, 0.6899059
2238.950, 0.6916010
2240.878, 0.6930578
2242.807, 0.6954499
2244.735, 0.6956691
2246.664, 0.6948848
2248.592, 0.6957246
2250.521, 0.6950331
2252.449, 0.6953548
2254.378, 0.6977310
2256.306, 0.7001892
2258.235, 0.7022386
2260.163, 0.7025846
2262.092, 0.7010838
2264.020, 0.6998312
2265.948, 0.7019385
2267.877, 0.7024998
2269.805, 0.7022204
2271.734, 0.7037708
2273.662, 0.7046752
2275.591, 0.7066391
2277.519, 0.7076908
2279.448, 0.7071039
2281.376, 0.7095518
2283.305, 0.7122481
2285.233, 0.7118369
2287.162, 0.7129665
2289.090, 0.7132503
2291.019, 0.7134859
2292.947, 0.7123805
2294.875, 0.7127170
2296.804, 0.7147591
2298.732, 0.7151089
2300.661, 0.7148422
2302.589, 0.7151756
2304.518, 0.7148896
2306.446, 0.7152048
2308.375, 0.7170882
2310.303, 0.7172604
2312.232, 0.7169324
2314.160, 0.7173477
2316.089, 0.7192135
2318.017, 0.7190253
2319.946, 0.7194285
2321.874, 0.7211019
2323.802, 0.7220399
2325.731, 0.7220002
2327.659, 0.7208228
2329.588, 0.7209998
2331.516, 0.7220534
2333.445, 0.7223534
2335.373, 0.7215959
2337.302, 0.7220594
2339.230, 0.7229049
2341.159, 0.7236260
2343.087, 0.7241438
2345.016, 0.7233000
2346.944, 0.7237005
2348.873, 0.7239906
2350.801, 0.7238671
2352.729, 0.7237010
2354.658, 0.7245772
2356.586, 0.7263024
2358.515, 0.7266445
2360.443, 0.7254744
2362.372, 0.7253599
2364.300, 0.7263147
2366.229, 0.7269601
2368.157, 0.7269084
2370.086, 0.7261820
2372.014, 0.7258209
2373.943, 0.7252330
2375.871, 0.7259156
2377.800, 0.7263901
2379.728, 0.7263807
2381.656, 0.7265003
2383.585, 0.7265160
2385.513, 0.7265441
2387.442, 0.7269483
2389.370, 0.7278864
2391.299, 0.7284265
2393.227, 0.7279484
2395.156, 0.7286937
2397.084, 0.7288136
2399.013, 0.7291340
2400.941, 0.7296241
2402.870, 0.7288454
2404.798, 0.7282602
2406.727, 0.7276692
2408.655, 0.7286799
2410.583, 0.7301375
2412.512, 0.7310649
2414.440, 0.7308347
2416.369, 0.7298937
2418.297, 0.7306707
2420.226, 0.7345564
2422.154, 0.7350698
2424.083, 0.7338890
2426.011, 0.7343685
2427.940, 0.7350343
2429.868, 0.7346838
2431.797, 0.7334100
2433.725, 0.7335173
2435.654, 0.7342280
2437.582, 0.7340649
2439.510, 0.7338392
2441.439, 0.7345676
2443.367, 0.7360064
2445.296, 0.7369980
2447.224, 0.7369804
2449.153, 0.7365172
2451.081, 0.7369582
2453.010, 0.7378715
2454.938, 0.7388664
2456.867, 0.7393774
2458.795, 0.7399074
2460.724, 0.7404290
2462.652, 0.7404764
2464.581, 0.7396041
2466.509, 0.7387352
2468.438, 0.7409897
2470.366, 0.7428262
2472.294, 0.7410668
2474.223, 0.7401704
2476.151, 0.7402763
2478.080, 0.7396376
2480.008, 0.7401060
2481.937, 0.7424003
2483.865, 0.7439391
2485.794, 0.7427514
2487.722, 0.7413867
2489.651, 0.7432371
2491.579, 0.7452666
2493.508, 0.7461558
2495.436, 0.7441743
2497.365, 0.7433724
2499.293, 0.7443774
2501.221, 0.7449557
2503.150, 0.7466643
2505.078, 0.7474025
2507.007, 0.7465078
2508.935, 0.7472323
2510.864, 0.7487227
2512.792, 0.7486626
2514.721, 0.7496605
2516.649, 0.7510150
2518.578, 0.7489759
2520.506, 0.7490586
2522.435, 0.7507900
2524.363, 0.7501809
2526.292, 0.7489172
2528.220, 0.7483501
2530.148, 0.7493014
2532.077, 0.7514138
2534.005, 0.7524488
2535.934, 0.7509023
2537.862, 0.7501081
2539.791, 0.7506863
2541.719, 0.7527477
2543.648, 0.7530039
2545.576, 0.7548839
2547.505, 0.7567078
2549.433, 0.7538285
2551.362, 0.7528343
2553.290, 0.7556244
2555.219, 0.7561334
2557.147, 0.7549774
2559.075, 0.7556387
2561.004, 0.7565246
2562.932, 0.7560328
2564.861, 0.7556736
2566.789, 0.7575240
2568.718, 0.7596079
2570.646, 0.7596327
2572.575, 0.7587212
2574.503, 0.7590609
2576.432, 0.7606444
2578.360, 0.7611389
2580.289, 0.7609254
2582.217, 0.7612423
2584.146, 0.7621707
2586.074, 0.7627257
2588.002, 0.7623845
2589.931, 0.7617894
2591.859, 0.7617575
2593.788, 0.7624834
2595.716, 0.7624673
2597.645, 0.7624632
2599.573, 0.7637082
2601.502, 0.7640693
2603.430, 0.7640362
2605.359, 0.7643809
2607.287, 0.7634979
2609.216, 0.7646388
2611.144, 0.7647884
2613.073, 0.7638665
2615.001, 0.7642580
2616.929, 0.7655787
2618.858, 0.7671074
2620.786, 0.7676596
2622.715, 0.7673752
2624.643, 0.7673032
2626.572, 0.7698177
2628.500, 0.7713349
2630.429, 0.7713805
2632.357, 0.7703248
2634.286, 0.7702439
2636.214, 0.7707210
2638.143, 0.7719372
2640.071, 0.7719861
2642.000, 0.7719416
2643.928, 0.7735890
2645.856, 0.7732161
2647.785, 0.7729177
2649.713, 0.7734950
2651.642, 0.7739787
2653.570, 0.7736473
2655.499, 0.7739424
2657.427, 0.7744302
2659.356, 0.7744839
2661.284, 0.7753655
2663.213, 0.7758265
2665.141, 0.7758865
2667.070, 0.7771987
2668.998, 0.7776948
2670.927, 0.7771899
2672.855, 0.7776196
2674.783, 0.7772399
2676.712, 0.7776919
2678.640, 0.7768990
2680.569, 0.7765573
2682.497, 0.7768963
2684.426, 0.7779758
2686.354, 0.7786353
2688.283, 0.7790399
2690.211, 0.7806413
2692.140, 0.7818511
2694.068, 0.7820329
2695.997, 0.7818104
2697.925, 0.7810187
2699.854, 0.7806201
2701.782, 0.7798033
2703.710, 0.7803584
2705.639, 0.7829777
2707.567, 0.7831954
2709.496, 0.7835023
2711.424, 0.7838187
2713.353, 0.7841308
2715.281, 0.7843869
2717.210, 0.7847260
2719.138, 0.7850344
2721.067, 0.7853045
2722.995, 0.7855947
2724.924, 0.7858379
2726.852, 0.7861830
2728.781, 0.7864400
2730.709, 0.7867268
2732.637, 0.7870371
2734.566, 0.7872981
2736.494, 0.7876639
2738.423, 0.7879037
2740.351, 0.7882665
2742.280, 0.7885385
2744.208, 0.7887774
2746.137, 0.7890527
2748.065, 0.7893528
2749.994, 0.7897264
2751.922, 0.7899514
2753.851, 0.7902389
2755.779, 0.7905756
2757.708, 0.7908282
2759.636, 0.7911382
2761.564, 0.7914111
2763.493, 0.7917616
2765.421, 0.7920173
2767.350, 0.7923170
2769.278, 0.7925646
2771.207, 0.7928913
2773.135, 0.7931585
2775.064, 0.7935324
2776.992, 0.7938150
2778.921, 0.7940674
2780.849, 0.7943653
2782.778, 0.7946931
2784.706, 0.7949122
2786.635, 0.7952802
2788.563, 0.7955534
2790.491, 0.7958509
2792.420, 0.7961086
2794.348, 0.7964054
2796.277, 0.7966576
2798.205, 0.7970043
2800.134, 0.7972742
2802.062, 0.7975501
2803.991, 0.7979043
2805.919, 0.7981720
2807.848, 0.7984055
2809.776, 0.7987242
2811.705, 0.7989967
2813.633, 0.7993286
2815.562, 0.7996057
2817.490, 0.7999108
2819.418, 0.8001869
2821.347, 0.8004825
2823.275, 0.8007802
2825.204, 0.8010352
2827.132, 0.8013688
2829.061, 0.8016412
2830.989, 0.8019882
2832.918, 0.8022313
2834.846, 0.8024930
2836.775, 0.8028311
2838.703, 0.8031285
2840.632, 0.8034365
2842.560, 0.8036383
2844.489, 0.8039860
2846.417, 0.8041850
2848.345, 0.8044835
2850.274, 0.8047237
2852.202, 0.8049535
2854.131, 0.8053060
2856.059, 0.8055534
2857.988, 0.8058987
2859.916, 0.8062282
2861.845, 0.8064802
2863.773, 0.8068014
2865.702, 0.8071280
2867.630, 0.8074176
2869.559, 0.8077614
2871.487, 0.8080767
2873.416, 0.8083791
2875.344, 0.8086757
2877.272, 0.8089486
2879.201, 0.8091725
2881.129, 0.8094702
2883.058, 0.8098425
2884.986, 0.8100896
2886.915, 0.8103818
2888.843, 0.8107156
2890.772, 0.8109593
2892.700, 0.8112780
2894.629, 0.8115553
2896.557, 0.8117688
2898.486, 0.8120618
2900.414, 0.8123671
2902.343, 0.8127139
2904.271, 0.8129691
2906.199, 0.8132865
2908.128, 0.8134662
2910.056, 0.8137283
2911.985, 0.8140692
2913.913, 0.8143325
2915.842, 0.8145390
2917.770, 0.8148555
2919.699, 0.8150414
2921.627, 0.8153639
2923.556, 0.8156356
2925.484, 0.8159475
2927.413, 0.8162158
2929.341, 0.8165870
2931.270, 0.8168970
2933.198, 0.8172315
2935.126, 0.8175216
2937.055, 0.8178542
2938.983, 0.8182179
2940.912, 0.8184428
2942.840, 0.8187777
2944.769, 0.8190711
2946.697, 0.8193923
2948.626, 0.8197302
2950.554, 0.8200409
2952.483, 0.8202729
2954.411, 0.8206123
2956.340, 0.8208590
2958.268, 0.8211475
2960.197, 0.8214501
2962.125, 0.8217605
2964.053, 0.8221051
2965.982, 0.8223279
2967.910, 0.8226439
2969.839, 0.8229187
2971.767, 0.8232583
2973.696, 0.8236315
2975.624, 0.8238770
2977.553, 0.8241335
2979.481, 0.8244762
2981.410, 0.8247510
2983.338, 0.8250951
2985.267, 0.8253443
2987.195, 0.8256031
2989.124, 0.8259667
2991.052, 0.8262215
2992.980, 0.8265657
2994.909, 0.8268304
2996.837, 0.8271453
2998.766, 0.8273869
3000.694, 0.8276902
3002.623, 0.8279712
3004.551, 0.8283142
3006.480, 0.8285224
3008.408, 0.8288379
3010.337, 0.8291811
3012.265, 0.8294942
3014.194, 0.8297418
3016.122, 0.8300853
3018.051, 0.8303915
3019.979, 0.8306462
3021.907, 0.8309027
3023.836, 0.8312631
3025.764, 0.8314633
3027.693, 0.8318148
3029.621, 0.8321075
3031.550, 0.8324378
3033.478, 0.8327499
3035.407, 0.8329979
3037.335, 0.8333126
3039.264, 0.8336154
3041.192, 0.8339006
3043.121, 0.8341814
3045.049, 0.8345255
3046.978, 0.8347486
3048.906, 0.8350745
3050.834, 0.8353767
3052.763, 0.8356600
3054.691, 0.8359671
3056.620, 0.8361675
3058.548, 0.8365395
3060.477, 0.8367767
3062.405, 0.8371149
3064.334, 0.8374013
3066.262, 0.8376760
3068.191, 0.8379796
3070.119, 0.8382732
3072.048, 0.8385568
3073.976, 0.8389258
3075.905, 0.8391768
3077.833, 0.8395029
3079.761, 0.8397580
3081.690, 0.8400781
3083.618, 0.8403336
3085.547, 0.8406205
3087.475, 0.8408850
3089.404, 0.8411651
3091.332, 0.8415201
3093.261, 0.8417863
3095.189, 0.8420396
3097.118, 0.8424041
3099.046, 0.8426276
3100.975, 0.8429852
3102.903, 0.8432487
3104.832, 0.8435591
3106.760, 0.8438898
3108.688, 0.8441812
3110.617, 0.8444275
3112.545, 0.8447096
3114.474, 0.8450183
3116.402, 0.8453063
3118.331, 0.8456482
3120.259, 0.8459311
3122.188, 0.8461685
3124.116, 0.8464516
3126.045, 0.8467385
3127.973, 0.8470252
3129.902, 0.8473569
3131.830, 0.8476722
3133.759, 0.8479319
3135.687, 0.8481962
3137.615, 0.8485273
3139.544, 0.8488423
3141.472, 0.8490907
3143.401, 0.8494323
3145.329, 0.8497100
3147.258, 0.8499897
3149.186, 0.8503451
3151.115, 0.8502682
3153.043, 0.8493873
3154.972, 0.8504026
3156.900, 0.8492144
3158.829, 0.8494570
3160.757, 0.8521349
3162.686, 0.8526695
3164.614, 0.8517310
3166.542, 0.8493900
3168.471, 0.8488643
3170.399, 0.8494550
3172.328, 0.8505633
3174.256, 0.8538036
3176.185, 0.8563442
3178.113, 0.8548996
3180.042, 0.8549061
3181.970, 0.8585593
3183.899, 0.8567876
3185.827, 0.8549360
3187.756, 0.8556308
3189.684, 0.8553249
3191.613, 0.8568227
3193.541, 0.8589500
3195.469, 0.8582587
3197.398, 0.8564371
3199.326, 0.8564435
3201.255, 0.8576929
3203.183, 0.8573761
3205.112, 0.8580422
3207.040, 0.8573765
3208.969, 0.8556589
3210.897, 0.8565198
3212.826, 0.8586283
3214.754, 0.8604596
3216.683, 0.8607634
3218.611, 0.8612506
3220.540, 0.8624973
3222.468, 0.8620843
3224.396, 0.8634907
3226.325, 0.8634732
3228.253, 0.8624231
3230.182, 0.8617163
3232.110, 0.8620152
3234.039, 0.8636732
3235.967, 0.8622979
3237.896, 0.8622042
3239.824, 0.8650823
3241.753, 0.8651846
3243.681, 0.8633505
3245.610, 0.8640233
3247.538, 0.8639265
3249.467, 0.8656133
3251.395, 0.8671059
3253.323, 0.8680441
3255.252, 0.8678266
3257.180, 0.8665993
3259.109, 0.8663664
3261.037, 0.8659478
3262.966, 0.8652079
3264.894, 0.8674663
3266.823, 0.8710601
3268.751, 0.8697578
3270.680, 0.8662526
3272.608, 0.8664942
3274.537, 0.8707385
3276.465, 0.8726463
3278.394, 0.8714870
3280.322, 0.8683129
3282.250, 0.8687794
3284.179, 0.8719876
3286.107, 0.8727770
3288.036, 0.8733838
3289.964, 0.8728657
3291.893, 0.8714213
3293.821, 0.8721591
3295.750, 0.8739030
3297.678, 0.8754464
3299.607, 0.8770434
3301.535, 0.8767368
3303.464, 0.8735445
3305.392, 0.8741577
3307.321, 0.8793185
3309.249, 0.8813362
3311.177, 0.8774186
3313.106, 0.8750492
3315.034, 0.8736902
3316.963, 0.8758391
3318.891, 0.8759178
3320.820, 0.8775323
3322.748, 0.8821283
3324.677, 0.8839930
3326.605, 0.8828669
3328.534, 0.8801205
3330.462, 0.8772613
3332.391, 0.8773146
3334.319, 0.8801732
3336.248, 0.8830740
3338.176, 0.8821691
3340.104, 0.8813894
3342.033, 0.8828781
3343.961, 0.8844223
3345.890, 0.8837083
3347.818, 0.8827962
3349.747, 0.8820083
3351.675, 0.8809868
3353.604, 0.8838912
3355.532, 0.8839719
3357.461, 0.8835655
3359.389, 0.8833219
3361.318, 0.8836550
3363.246, 0.8837470
3365.175, 0.8844119
3367.103, 0.8864436
3369.031, 0.8873766
3370.960, 0.8851792
3372.888, 0.8848889
3374.817, 0.8890126
3376.745, 0.8902131
3378.674, 0.8883410
3380.602, 0.8869165
3382.531, 0.8879424
3384.459, 0.8915092
3386.388, 0.8919312
3388.316, 0.8901905
3390.245, 0.8915325
3392.173, 0.8903022
3394.102, 0.8869437
3396.030, 0.8900983
3397.958, 0.8924261
3399.887, 0.8915698
3401.815, 0.8903152
3403.744, 0.8903902
3405.672, 0.8926772
3407.601, 0.8954583
3409.529, 0.8950632
3411.458, 0.8958780
3413.386, 0.8963690
3415.315, 0.8955717
3417.243, 0.8967643
3419.172, 0.8973565
3421.100, 0.8982368
3423.029, 0.8997703
3424.957, 0.8993576
3426.885, 0.8969172
3428.814, 0.8956046
3430.742, 0.8968325
3432.671, 0.8991550
3434.599, 0.8960365
3436.528, 0.8965490
3438.456, 0.8979045
3440.385, 0.8957099
3442.313, 0.8949203
3444.242, 0.8963038
3446.170, 0.8992472
3448.099, 0.9008516
3450.027, 0.9000413
3451.956, 0.8992242
3453.884, 0.9030946
3455.813, 0.9050075
3457.741, 0.9044971
3459.669, 0.9056399
3461.598, 0.9048588
3463.526, 0.9048884
3465.455, 0.9066283
3467.383, 0.9055931
3469.312, 0.9047527
3471.240, 0.9050969
3473.169, 0.9079051
3475.097, 0.9075465
3477.026, 0.9048836
3478.954, 0.9041317
3480.883, 0.9046082
3482.811, 0.9085451
3484.740, 0.9127018
3486.668, 0.9138389
3488.596, 0.9109105
3490.525, 0.9082911
3492.453, 0.9095672
3494.382, 0.9094234
3496.310, 0.9109743
3498.239, 0.9129241
3500.167, 0.9121293
3502.096, 0.9085404
3504.024, 0.9087599
3505.953, 0.9110747
3507.881, 0.9117473
3509.810, 0.9116995
3511.738, 0.9121217
3513.667, 0.9143890
3515.595, 0.9148474
3517.523, 0.9155179
3519.452, 0.9150143
3521.380, 0.9147343
3523.309, 0.9133883
3525.237, 0.9155510
3527.166, 0.9139562
3529.094, 0.9119143
3531.023, 0.9131188
3532.951, 0.9153641
3534.880, 0.9189630
3536.808, 0.9162821
3538.737, 0.9143550
3540.665, 0.9184134
3542.594, 0.9201314
3544.522, 0.9173040
3546.450, 0.9175715
3548.379, 0.9163957
3550.307, 0.9148949
3552.236, 0.9190446
3554.164, 0.9217792
3556.093, 0.9218181
3558.021, 0.9232193
3559.950, 0.9227118
3561.878, 0.9220178
3563.807, 0.9205995
3565.735, 0.9188276
3567.664, 0.9223228
3569.592, 0.9245207
3571.521, 0.9189231
3573.449, 0.9194421
3575.377, 0.9242893
3577.306, 0.9285264
3579.234, 0.9259725
3581.163, 0.9249778
3583.091, 0.9294132
3585.020, 0.9285555
3586.948, 0.9274995
3588.877, 0.9264196
3590.805, 0.9263709
3592.734, 0.9269469
3594.662, 0.9267771
3596.591, 0.9288772
3598.519, 0.9307894
3600.448, 0.9273852
3602.376, 0.9265184
3604.304, 0.9297981
3606.233, 0.9345382
3608.161, 0.9340168
3610.090, 0.9308330
3612.018, 0.9313457
3613.947, 0.9337435
3615.875, 0.9335468
3617.804, 0.9354424
3619.732, 0.9354455
3621.661, 0.9347131
3623.589, 0.9322463
3625.518, 0.9301187
3627.446, 0.9317279
3629.375, 0.9364339
3631.303, 0.9399882
3633.231, 0.9359031
3635.160, 0.9365680
3637.088, 0.9385561
3639.017, 0.9368412
3640.945, 0.9337109
3642.874, 0.9390703
3644.802, 0.9412526
3646.731, 0.9438610
3648.659, 0.9428256
3650.588, 0.9387399
3652.516, 0.9426711
3654.445, 0.9436123
3656.373, 0.9436383
3658.302, 0.9445281
3660.230, 0.9420692
3662.158, 0.9418709
3664.087, 0.9419596
3666.015, 0.9426278
3667.944, 0.9430729
3669.872, 0.9438239
3671.801, 0.9436281
3673.729, 0.9431869
3675.658, 0.9440296
3677.586, 0.9442779
3679.515, 0.9449764
3681.443, 0.9464486
3683.372, 0.9454610
3685.300, 0.9459514
3687.229, 0.9491597
3689.157, 0.9500799
3691.085, 0.9475687
3693.014, 0.9445895
3694.942, 0.9447111
3696.871, 0.9437206
3698.799, 0.9433350
3700.728, 0.9463800
3702.656, 0.9490747
3704.585, 0.9481493
3706.513, 0.9491206
3708.442, 0.9483681
3710.370, 0.9454437
3712.299, 0.9503647
3714.227, 0.9538416
3716.156, 0.9531462
3718.084, 0.9548459
3720.012, 0.9546989
3721.941, 0.9538105
3723.869, 0.9513537
3725.798, 0.9502242
3727.726, 0.9521781
3729.655, 0.9508459
3731.583, 0.9543565
3733.512, 0.9613089
3735.440, 0.9613236
3737.369, 0.9569741
3739.297, 0.9540206
3741.226, 0.9538628
3743.154, 0.9584175
3745.083, 0.9611930
3747.011, 0.9611402
3748.939, 0.9613669
3750.868, 0.9621211
3752.796, 0.9607791
3754.725, 0.9609519
3756.653, 0.9608136
3758.582, 0.9578976
3760.510, 0.9580570
3762.439, 0.9619279
3764.367, 0.9630436
3766.296, 0.9621369
3768.224, 0.9589962
3770.153, 0.9607362
3772.081, 0.9626383
3774.010, 0.9645138
3775.938, 0.9656872
3777.866, 0.9634492
3779.795, 0.9659786
3781.723, 0.9696518
3783.652, 0.9658548
3785.580, 0.9681360
3787.509, 0.9730267
3789.437, 0.9701698
3791.366, 0.9682024
3793.294, 0.9708226
3795.223, 0.9722509
3797.151, 0.9711572
3799.080, 0.9721431
3801.008, 0.9734454
3802.937, 0.9706110
3804.865, 0.9632177
3806.793, 0.9685385
3808.722, 0.9762037
3810.650, 0.9729502
3812.579, 0.9713995
3814.507, 0.9746946
3816.436, 0.9738775
3818.364, 0.9718007
3820.293, 0.9702454
3822.221, 0.9724963
3824.150, 0.9728990
3826.078, 0.9728799
3828.007, 0.9729869
3829.935, 0.9727075
3831.864, 0.9754298
3833.792, 0.9782473
3835.720, 0.9782580
3837.649, 0.9768463
3839.577, 0.9774905
3841.506, 0.9804770
3843.434, 0.9802940
3845.363, 0.9768420
3847.291, 0.9745250
3849.220, 0.9795011
3851.148, 0.9838608
3853.077, 0.9816948
3855.005, 0.9815437
3856.934, 0.9811565
3858.862, 0.9808317
3860.791, 0.9799021
3862.719, 0.9804111
3864.647, 0.9816721
3866.576, 0.9851483
3868.504, 0.9837399
3870.433, 0.9844844
3872.361, 0.9826830
3874.290, 0.9845781
3876.218, 0.9857430
3878.147, 0.9824621
3880.075, 0.9834935
3882.004, 0.9867337
3883.932, 0.9873740
3885.861, 0.9879907
3887.789, 0.9879565
3889.718, 0.9912374
3891.646, 0.9913208
3893.574, 0.9871427
3895.503, 0.9903216
3897.431, 0.9988368
3899.360, 0.9944302
3901.288, 0.9897392
3903.217, 0.9922578
3905.145, 0.9943038
3907.074, 0.9928761
3909.002, 0.9893721
3910.931, 0.9877660
3912.859, 0.9899514
3914.788, 0.9890960
3916.716, 0.9851621
3918.645, 0.9870418
3920.573, 0.9920854
3922.501, 0.9919255
3924.430, 0.9930341
3926.358, 0.9915369
3928.287, 0.9935396
3930.215, 0.9951885
3932.144, 0.9947590
3934.072, 0.9965717
3936.001, 0.9986144
3937.929, 0.9982447
3939.858, 0.9972302
3941.786, 0.9969716
3943.715, 0.9980428
3945.643, 0.9997368
3947.572, 0.9965138
3949.500, 0.9959256
3951.428, 1.001356
3953.357, 1.003743
3955.285, 1.004416
3957.214, 1.004382
3959.142, 1.005383
3961.071, 1.003307
3962.999, 0.9971894
3964.928, 0.9964845
3966.856, 1.003674
3968.785, 1.004121
3970.713, 0.9936022
3972.642, 0.9888565
3974.570, 0.9967896
3976.499, 1.004631
3978.427, 1.003113
3980.355, 1.005593
3982.284, 1.004631
3984.212, 0.9998889
3986.141, 1.001334
3988.069, 1.004450
3989.998, 1.004314
3991.926, 1.004242
3993.855, 1.006933
3995.783, 1.008742
3997.712, 1.010296
3999.640, 1.010463
##END=



