##NAMES=Stibiotantalite
##RRUFFID=R050232
##IDEAL CHEMISTRY=Sb^3+^Ta^5+^O_4_
##LOCALITY=Himalaya mine, Mesa Grande, San Diego County, California, USA
##OWNER=RRUFF
##SOURCE=Marcus Origlieri
##DESCRIPTION=Brown crystal fragment
##STATUS=The identification of this mineral has been confirmed by X-ray diffraction and chemical analysis
##URL=rruff.info/R050232
##MEASURED CHEMISTRY=lighter and darker phases: Sb_1.00_(Ta_0.72_Nb_0.28_)_Î£=1_O_4_
3.721941e+002, 0.000000e+000
3.741225e+002, 1.899135e-001
3.760510e+002, 1.707815e-001
3.779795e+002, 1.523610e-001
3.799079e+002, 1.470943e-001
3.818364e+002, 1.541521e-001
3.837649e+002, 1.641299e-001
3.856933e+002, 1.642737e-001
3.876218e+002, 1.681187e-001
3.895503e+002, 1.762878e-001
3.914787e+002, 1.920701e-001
3.934072e+002, 2.093211e-001
3.953357e+002, 2.181144e-001
3.972641e+002, 2.278036e-001
3.991926e+002, 2.462122e-001
4.011211e+002, 2.497996e-001
4.030495e+002, 2.458284e-001
4.049780e+002, 2.484631e-001
4.069065e+002, 2.442058e-001
4.088349e+002, 2.379095e-001
4.107634e+002, 2.317445e-001
4.126919e+002, 2.304935e-001
4.146203e+002, 2.249695e-001
4.165488e+002, 2.203849e-001
4.184773e+002, 2.150054e-001
4.204057e+002, 2.112511e-001
4.223342e+002, 2.054711e-001
4.242627e+002, 2.015088e-001
4.261911e+002, 1.977948e-001
4.281196e+002, 1.934099e-001
4.300481e+002, 1.889915e-001
4.319765e+002, 1.842407e-001
4.339050e+002, 1.809934e-001
4.358335e+002, 1.807372e-001
4.377619e+002, 1.829199e-001
4.396904e+002, 1.879526e-001
4.416189e+002, 1.933334e-001
4.435473e+002, 2.010270e-001
4.454758e+002, 2.126003e-001
4.474043e+002, 2.239738e-001
4.493327e+002, 2.333447e-001
4.512612e+002, 2.437520e-001
4.531897e+002, 2.515282e-001
4.551181e+002, 2.580641e-001
4.570466e+002, 2.653812e-001
4.589751e+002, 2.710845e-001
4.609035e+002, 2.751708e-001
4.628320e+002, 2.786475e-001
4.647605e+002, 2.796459e-001
4.666889e+002, 2.793783e-001
4.686174e+002, 2.784853e-001
4.705459e+002, 2.779069e-001
4.724743e+002, 2.783910e-001
4.744028e+002, 2.798066e-001
4.763313e+002, 2.777689e-001
4.782597e+002, 2.744177e-001
4.801882e+002, 2.723978e-001
4.821167e+002, 2.715371e-001
4.840451e+002, 2.714584e-001
4.859736e+002, 2.705654e-001
4.879021e+002, 2.707852e-001
4.898305e+002, 2.722855e-001
4.917590e+002, 2.738066e-001
4.936875e+002, 2.760660e-001
4.956159e+002, 2.793076e-001
4.975444e+002, 2.828324e-001
4.994729e+002, 2.863388e-001
5.014013e+002, 2.906160e-001
5.033298e+002, 2.957015e-001
5.052583e+002, 3.016147e-001
5.071867e+002, 3.073603e-001
5.091152e+002, 3.129286e-001
5.110437e+002, 3.182088e-001
5.129721e+002, 3.233978e-001
5.149006e+002, 3.281406e-001
5.168290e+002, 3.318895e-001
5.187575e+002, 3.357361e-001
5.206860e+002, 3.401719e-001
5.226144e+002, 3.432056e-001
5.245429e+002, 3.464361e-001
5.264714e+002, 3.498667e-001
5.283998e+002, 3.511026e-001
5.303283e+002, 3.516284e-001
5.322568e+002, 3.531030e-001
5.341852e+002, 3.553551e-001
5.361137e+002, 3.569427e-001
5.380422e+002, 3.569649e-001
5.399706e+002, 3.575186e-001
5.418991e+002, 3.574097e-001
5.438276e+002, 3.565912e-001
5.457560e+002, 3.558625e-001
5.476845e+002, 3.556925e-001
5.496130e+002, 3.547522e-001
5.515414e+002, 3.546820e-001
5.534699e+002, 3.536360e-001
5.553984e+002, 3.504269e-001
5.573268e+002, 3.485099e-001
5.592553e+002, 3.461216e-001
5.611838e+002, 3.431292e-001
5.631122e+002, 3.413470e-001
5.650407e+002, 3.397139e-001
5.669692e+002, 3.366304e-001
5.688976e+002, 3.335030e-001
5.708261e+002, 3.309515e-001
5.727546e+002, 3.282012e-001
5.746830e+002, 3.247654e-001
5.766115e+002, 3.212708e-001
5.785400e+002, 3.183698e-001
5.804684e+002, 3.153766e-001
5.823969e+002, 3.119639e-001
5.843254e+002, 3.083403e-001
5.862538e+002, 3.048954e-001
5.881823e+002, 3.019153e-001
5.901108e+002, 2.986036e-001
5.920392e+002, 2.949293e-001
5.939677e+002, 2.908296e-001
5.958962e+002, 2.869417e-001
5.978246e+002, 2.824009e-001
5.997531e+002, 2.774513e-001
6.016816e+002, 2.731017e-001
6.036100e+002, 2.683440e-001
6.055385e+002, 2.626442e-001
6.074670e+002, 2.573460e-001
6.093954e+002, 2.529192e-001
6.113239e+002, 2.481907e-001
6.132524e+002, 2.433289e-001
6.151808e+002, 2.391941e-001
6.171093e+002, 2.348564e-001
6.190378e+002, 2.304082e-001
6.209662e+002, 2.266224e-001
6.228947e+002, 2.234056e-001
6.248232e+002, 2.202550e-001
6.267516e+002, 2.171463e-001
6.286801e+002, 2.144180e-001
6.306086e+002, 2.118608e-001
6.325370e+002, 2.092605e-001
6.344655e+002, 2.066888e-001
6.363940e+002, 2.041862e-001
6.383224e+002, 2.017088e-001
6.402509e+002, 1.983780e-001
6.421794e+002, 1.950498e-001
6.441078e+002, 1.919142e-001
6.460363e+002, 1.890241e-001
6.479648e+002, 1.862979e-001
6.498932e+002, 1.838772e-001
6.518217e+002, 1.815665e-001
6.537502e+002, 1.796209e-001
6.556786e+002, 1.780700e-001
6.576071e+002, 1.766826e-001
6.595356e+002, 1.752846e-001
6.614641e+002, 1.743413e-001
6.633925e+002, 1.739600e-001
6.653210e+002, 1.742017e-001
6.672495e+002, 1.750081e-001
6.691779e+002, 1.764198e-001
6.711064e+002, 1.785347e-001
6.730349e+002, 1.810265e-001
6.749633e+002, 1.836324e-001
6.768918e+002, 1.861434e-001
6.788203e+002, 1.886004e-001
6.807487e+002, 1.907856e-001
6.826772e+002, 1.920893e-001
6.846057e+002, 1.928426e-001
6.865341e+002, 1.931846e-001
6.884626e+002, 1.924192e-001
6.903911e+002, 1.906697e-001
6.923195e+002, 1.879404e-001
6.942480e+002, 1.844109e-001
6.961765e+002, 1.804212e-001
6.981049e+002, 1.759342e-001
7.000334e+002, 1.713521e-001
7.019619e+002, 1.667653e-001
7.038903e+002, 1.623958e-001
7.058188e+002, 1.580782e-001
7.077473e+002, 1.536286e-001
7.096757e+002, 1.493757e-001
7.116042e+002, 1.456048e-001
7.135327e+002, 1.423060e-001
7.154611e+002, 1.390467e-001
7.173896e+002, 1.356124e-001
7.193181e+002, 1.326353e-001
7.212465e+002, 1.300731e-001
7.231750e+002, 1.274046e-001
7.251035e+002, 1.249479e-001
7.270319e+002, 1.227868e-001
7.289604e+002, 1.206153e-001
7.308889e+002, 1.186868e-001
7.328173e+002, 1.169644e-001
7.347458e+002, 1.151213e-001
7.366743e+002, 1.133281e-001
7.386027e+002, 1.116452e-001
7.405312e+002, 1.101112e-001
7.424597e+002, 1.087017e-001
7.443881e+002, 1.070225e-001
7.463166e+002, 1.052524e-001
7.482451e+002, 1.035807e-001
7.501735e+002, 1.018678e-001
7.521020e+002, 9.998659e-002
7.540305e+002, 9.770918e-002
7.559589e+002, 9.521833e-002
7.578874e+002, 9.269110e-002
7.598159e+002, 9.003990e-002
7.617443e+002, 8.723143e-002
7.636728e+002, 8.427285e-002
7.656013e+002, 8.128780e-002
7.675297e+002, 7.827055e-002
7.694582e+002, 7.508922e-002
7.713867e+002, 7.163890e-002
7.733151e+002, 6.855829e-002
7.752436e+002, 6.582672e-002
7.771721e+002, 6.281298e-002
7.791005e+002, 5.989204e-002
7.810290e+002, 5.721907e-002
7.829575e+002, 5.450744e-002
7.848859e+002, 5.160812e-002
7.868144e+002, 4.877368e-002
7.887429e+002, 4.589884e-002
7.906713e+002, 4.279474e-002
7.925998e+002, 3.992932e-002
7.945283e+002, 3.733897e-002
7.964567e+002, 3.472982e-002
7.983852e+002, 3.206979e-002
8.003137e+002, 2.956004e-002
8.022421e+002, 2.722341e-002
8.041706e+002, 2.491441e-002
8.060991e+002, 2.265468e-002
8.080275e+002, 2.070235e-002
8.099560e+002, 1.904978e-002
8.118845e+002, 1.749349e-002
8.138129e+002, 1.601195e-002
8.157414e+002, 1.466683e-002
8.176699e+002, 1.363149e-002
8.195983e+002, 1.264694e-002
8.215268e+002, 1.187453e-002
8.234553e+002, 1.110810e-002
8.253837e+002, 1.020292e-002
8.273122e+002, 9.445045e-003
8.292407e+002, 8.877832e-003
8.311691e+002, 8.417901e-003
8.330976e+002, 8.030264e-003
8.350261e+002, 7.493144e-003
8.369545e+002, 6.949848e-003
8.388830e+002, 6.488351e-003
8.408115e+002, 6.123416e-003
8.427399e+002, 5.790532e-003
8.446684e+002, 5.462460e-003
8.465969e+002, 5.215572e-003
8.485253e+002, 4.904009e-003
8.504538e+002, 4.622217e-003
8.523823e+002, 4.297085e-003
8.543107e+002, 4.073145e-003
8.562392e+002, 4.102591e-003
8.581677e+002, 3.910132e-003
8.600961e+002, 3.584167e-003
8.620246e+002, 3.402982e-003
8.639531e+002, 3.244886e-003
8.658815e+002, 3.065256e-003
8.678100e+002, 2.882160e-003
8.697385e+002, 2.786150e-003
8.716669e+002, 2.788583e-003
8.735954e+002, 2.844116e-003
8.755239e+002, 2.804881e-003
8.774523e+002, 2.715191e-003
8.793808e+002, 2.703700e-003
8.813093e+002, 2.676079e-003
8.832377e+002, 2.687052e-003
8.851662e+002, 2.710352e-003
8.870947e+002, 2.812248e-003
8.890231e+002, 2.862070e-003
8.909516e+002, 2.937427e-003
8.928801e+002, 3.113307e-003
8.948085e+002, 3.165858e-003
8.967370e+002, 3.308417e-003
8.986655e+002, 3.488118e-003
9.005939e+002, 3.513753e-003
9.025224e+002, 3.574638e-003
9.044509e+002, 3.735084e-003
9.063793e+002, 3.827870e-003
9.083078e+002, 3.868271e-003
9.102363e+002, 4.005112e-003
9.121647e+002, 4.317971e-003
9.140932e+002, 4.538486e-003
9.160217e+002, 4.580755e-003
9.179501e+002, 4.619405e-003
9.198786e+002, 4.438166e-003
9.218071e+002, 4.283212e-003
9.237355e+002, 4.208937e-003
9.256640e+002, 4.193854e-003
9.275925e+002, 3.991283e-003
9.295209e+002, 3.516313e-003
9.314494e+002, 3.091693e-003
9.333779e+002, 2.833707e-003
9.353063e+002, 2.511041e-003
9.372348e+002, 2.210950e-003
9.391633e+002, 1.861142e-003
9.410917e+002, 1.518978e-003
9.430202e+002, 1.231279e-003
9.449487e+002, 1.045646e-003
9.468771e+002, 8.606017e-004
9.488056e+002, 5.987398e-004
9.507341e+002, 4.303288e-004
9.526625e+002, 3.579166e-004
9.545910e+002, 3.426280e-004
9.565195e+002, 2.820753e-004
9.584479e+002, 2.286118e-004
9.603764e+002, 1.227129e-004
9.623049e+002, 2.813712e-005
9.642333e+002, 5.742535e-005
9.661618e+002, 1.205765e-004
9.680903e+002, 1.114365e-004
9.700187e+002, 1.988672e-004
9.719472e+002, 2.100468e-004
9.738757e+002, 2.197716e-004
9.758041e+002, 3.509466e-004
9.777326e+002, 4.790276e-004
9.796611e+002, 6.005336e-004
9.815895e+002, 6.199721e-004
9.835180e+002, 5.458519e-004
9.854465e+002, 6.516930e-004
9.873749e+002, 9.283256e-004
9.893034e+002, 1.132548e-003
9.912319e+002, 1.202364e-003
9.931603e+002, 1.398666e-003
9.950888e+002, 1.520080e-003
9.970173e+002, 1.481021e-003
9.989457e+002, 1.521317e-003
1.000874e+003, 1.671569e-003
1.002803e+003, 1.653135e-003
1.004731e+003, 1.680359e-003
1.006660e+003, 1.861559e-003
1.008588e+003, 2.047092e-003
1.010517e+003, 2.048371e-003
1.012445e+003, 2.054246e-003
1.014373e+003, 2.311524e-003
1.016302e+003, 2.461081e-003
1.018230e+003, 2.386317e-003
1.020159e+003, 2.397694e-003
1.022087e+003, 2.434310e-003
1.024016e+003, 2.306012e-003
1.025944e+003, 2.169551e-003
1.027873e+003, 2.202816e-003
1.029801e+003, 2.300756e-003
1.031730e+003, 2.396593e-003
1.033658e+003, 2.392683e-003
1.035587e+003, 2.338059e-003
1.037515e+003, 2.306797e-003
1.039443e+003, 2.388513e-003
1.041372e+003, 2.339685e-003
1.043300e+003, 2.186451e-003
1.045229e+003, 2.133090e-003
1.047157e+003, 2.075080e-003
1.049086e+003, 1.937998e-003
1.051014e+003, 1.719465e-003
1.052943e+003, 1.633869e-003
1.054871e+003, 1.795309e-003
1.056800e+003, 1.758086e-003
1.058728e+003, 1.469702e-003
1.060657e+003, 1.241267e-003
1.062585e+003, 1.034562e-003
1.064514e+003, 8.879248e-004
1.066442e+003, 8.588508e-004
1.068370e+003, 9.346250e-004
1.070299e+003, 8.101501e-004
1.072227e+003, 3.920011e-004
1.074156e+003, 2.157297e-004
1.076084e+003, 2.751816e-004
1.078013e+003, 3.958344e-004
1.079941e+003, 3.906768e-004
1.081870e+003, 3.185719e-004
1.083798e+003, 2.748035e-004
1.085727e+003, 3.312044e-004
1.087655e+003, 3.730785e-004
1.089584e+003, 3.097132e-004
1.091512e+003, 1.713056e-004
1.093441e+003, 6.884336e-005
1.095369e+003, 1.380593e-005
1.097297e+003, 7.442199e-005
1.099226e+003, 9.498186e-005
1.101154e+003, 2.053753e-004
1.103083e+003, 2.151746e-004
1.105011e+003, 2.184883e-004
1.106940e+003, 3.678668e-004
1.108868e+003, 3.605615e-004
1.110797e+003, 2.827477e-004
1.112725e+003, 1.737513e-004
1.114654e+003, 1.233537e-004
1.116582e+003, 2.946444e-004
1.118511e+003, 3.936701e-004
1.120439e+003, 3.799107e-004
1.122368e+003, 3.604721e-004
1.124296e+003, 2.488848e-004
1.126224e+003, 2.013166e-004
1.128153e+003, 7.113442e-005
1.130081e+003, -2.097711e-005
1.132010e+003, 4.503131e-005
1.133938e+003, 2.119504e-005
1.135867e+003, -2.330169e-006
1.137795e+003, -3.882498e-005
1.139724e+003, -1.439750e-004
1.141652e+003, -1.892261e-004
1.143581e+003, -3.986806e-005
1.145509e+003, 1.006946e-004
1.147438e+003, -2.645515e-005
1.149366e+003, -1.730490e-004
1.151295e+003, -2.066214e-004
1.153223e+003, -2.318863e-004
1.155151e+003, -1.750942e-004
1.157080e+003, -2.308842e-004
1.159008e+003, -3.338326e-004
1.160937e+003, -4.274938e-004
1.162865e+003, -5.424637e-004
1.164794e+003, -6.059147e-004
1.166722e+003, -6.406438e-004
1.168651e+003, -6.688330e-004
1.170579e+003, -7.690247e-004
1.172508e+003, -8.855555e-004
1.174436e+003, -9.329747e-004
1.176365e+003, -9.126160e-004
1.178293e+003, -8.670017e-004
1.180222e+003, -9.178873e-004
1.182150e+003, -9.104218e-004
1.184078e+003, -8.930732e-004
1.186007e+003, -8.575544e-004
1.187935e+003, -8.060914e-004
1.189864e+003, -6.871708e-004
1.191792e+003, -6.464496e-004
1.193721e+003, -6.391760e-004
1.195649e+003, -5.576201e-004
1.197578e+003, -6.308276e-004
1.199506e+003, -7.286482e-004
1.201435e+003, -7.496979e-004
1.203363e+003, -7.781591e-004
1.205292e+003, -7.550735e-004
1.207220e+003, -6.845891e-004
1.209149e+003, -6.313380e-004
1.211077e+003, -5.238652e-004
1.213005e+003, -5.317684e-004
1.214934e+003, -5.853157e-004
1.216862e+003, -5.594790e-004
1.218791e+003, -4.631672e-004
1.220719e+003, -4.017688e-004
1.222648e+003, -3.830399e-004
1.224576e+003, -3.404748e-004
1.226505e+003, -2.986919e-004
1.228433e+003, -3.361013e-004
1.230362e+003, -4.346445e-004
1.232290e+003, -2.811812e-004
1.234219e+003, -1.480393e-004
1.236147e+003, -2.593957e-004
1.238076e+003, -1.347214e-004
1.240004e+003, -3.168732e-005
1.241932e+003, -1.146607e-004
1.243861e+003, -1.014285e-004
1.245789e+003, -4.130229e-005
1.247718e+003, 1.583993e-005
1.249646e+003, 2.219900e-004
1.251575e+003, 2.423972e-004
1.253503e+003, 1.988858e-004
1.255432e+003, 1.520291e-004
1.257360e+003, 1.803190e-004
1.259289e+003, 2.177991e-004
1.261217e+003, 1.887754e-004
1.263146e+003, 2.322644e-004
1.265074e+003, 2.606101e-004
1.267003e+003, 2.490170e-004
1.268931e+003, 2.898201e-004
1.270859e+003, 4.410632e-004
1.272788e+003, 5.387925e-004
1.274716e+003, 5.126707e-004
1.276645e+003, 4.306771e-004
1.278573e+003, 4.475340e-004
1.280502e+003, 3.436841e-004
1.282430e+003, 2.530478e-004
1.284359e+003, 3.213212e-004
1.286287e+003, 3.391281e-004
1.288216e+003, 2.396032e-004
1.290144e+003, 1.804940e-004
1.292073e+003, 1.455769e-004
1.294001e+003, 6.923079e-005
1.295930e+003, 7.361174e-006
1.297858e+003, -4.220009e-005
1.299786e+003, -1.413040e-004
1.301715e+003, -3.231354e-004
1.303643e+003, -5.746596e-004
1.305572e+003, -6.519817e-004
1.307500e+003, -3.161617e-004
1.309429e+003, -1.347400e-004
1.311357e+003, -4.498661e-005
1.313286e+003, -6.735325e-006
1.315214e+003, -1.212172e-004
1.317143e+003, -2.577119e-004
1.319071e+003, -4.386976e-004
1.321000e+003, -4.075617e-004
1.322928e+003, -3.044195e-004
1.324857e+003, -3.507771e-004
1.326785e+003, -4.808418e-004
1.328714e+003, -5.382635e-004
1.330642e+003, -5.717985e-004
1.332570e+003, -6.542504e-004
1.334499e+003, -5.918182e-004
1.336427e+003, -6.361417e-004
1.338356e+003, -5.849749e-004
1.340284e+003, -3.953204e-004
1.342213e+003, -4.357100e-004
1.344141e+003, -3.910698e-004
1.346070e+003, -4.050583e-004
1.347998e+003, -4.070774e-004
1.349927e+003, -4.395470e-004
1.351855e+003, -4.344620e-004
1.353784e+003, -4.143976e-004
1.355712e+003, -2.580732e-004
1.357641e+003, -2.536923e-004
1.359569e+003, -3.402904e-004
1.361497e+003, -2.885275e-004
1.363426e+003, -4.138052e-004
1.365354e+003, -3.697686e-004
1.367283e+003, -3.143847e-004
1.369211e+003, -3.748052e-004
1.371140e+003, -3.968924e-004
1.373068e+003, -4.351251e-004
1.374997e+003, -4.028939e-004
1.376925e+003, -4.352592e-004
1.378854e+003, -5.473681e-004
1.380782e+003, -8.267574e-004
1.382711e+003, -1.227736e-003
1.384639e+003, -1.500212e-003
1.386568e+003, -1.757022e-003
1.388496e+003, -2.046265e-003
1.390424e+003, -2.238929e-003
1.392353e+003, -2.231892e-003
1.394281e+003, -2.129406e-003
1.396210e+003, -2.257027e-003
1.398138e+003, -2.510969e-003
1.400067e+003, -2.584863e-003
1.401995e+003, -2.612483e-003
1.403924e+003, -2.708644e-003
1.405852e+003, -2.744697e-003
1.407781e+003, -2.972566e-003
1.409709e+003, -3.139991e-003
1.411638e+003, -3.171597e-003
1.413566e+003, -3.172752e-003
1.415495e+003, -3.310334e-003
1.417423e+003, -3.344093e-003
1.419351e+003, -3.482390e-003
1.421280e+003, -3.535263e-003
1.423208e+003, -3.375482e-003
1.425137e+003, -3.199764e-003
1.427065e+003, -3.386207e-003
1.428994e+003, -3.536027e-003
1.430922e+003, -3.307760e-003
1.432851e+003, -3.050167e-003
1.434779e+003, -3.040366e-003
1.436708e+003, -3.039088e-003
1.438636e+003, -2.978478e-003
1.440565e+003, -2.839539e-003
1.442493e+003, -2.706766e-003
1.444422e+003, -2.557639e-003
1.446350e+003, -2.459615e-003
1.448278e+003, -2.348136e-003
1.450207e+003, -2.022445e-003
1.452135e+003, -1.755223e-003
1.454064e+003, -1.612715e-003
1.455992e+003, -1.478378e-003
1.457921e+003, -1.135550e-003
1.459849e+003, -7.049069e-004
1.461778e+003, -5.849600e-004
1.463706e+003, -5.302392e-004
1.465635e+003, -4.723631e-004
1.467563e+003, -4.402772e-004
1.469492e+003, -5.258061e-004
1.471420e+003, -5.609281e-004
1.473349e+003, -5.098432e-004
1.475277e+003, -4.917905e-004
1.477205e+003, -5.345196e-004
1.479134e+003, -5.046353e-004
1.481062e+003, -3.391951e-004
1.482991e+003, -1.649708e-004
1.484919e+003, -1.253672e-004
1.486848e+003, -1.469851e-004
1.488776e+003, -3.688037e-004
1.490705e+003, -5.225763e-004
1.492633e+003, -4.334226e-004
1.494562e+003, -6.002784e-004
1.496490e+003, -7.573888e-004
1.498419e+003, -8.428618e-004
1.500347e+003, -9.281784e-004
1.502276e+003, -1.057342e-003
1.504204e+003, -1.295537e-003
1.506132e+003, -1.372978e-003
1.508061e+003, -1.264118e-003
1.509989e+003, -1.328073e-003
1.511918e+003, -1.434498e-003
1.513846e+003, -1.272924e-003
1.515775e+003, -1.212545e-003
1.517703e+003, -1.189195e-003
1.519632e+003, -1.233257e-003
1.521560e+003, -1.324959e-003
1.523489e+003, -1.252726e-003
1.525417e+003, -1.132607e-003
1.527346e+003, -1.033723e-003
1.529274e+003, -1.015224e-003
1.531203e+003, -1.051329e-003
1.533131e+003, -1.128457e-003
1.535059e+003, -1.144826e-003
1.536988e+003, -1.067422e-003
1.538916e+003, -9.838417e-004
1.540845e+003, -9.795576e-004
1.542773e+003, -1.018606e-003
1.544702e+003, -8.999407e-004
1.546630e+003, -7.733628e-004
1.548559e+003, -7.669255e-004
1.550487e+003, -6.915331e-004
1.552416e+003, -8.038655e-004
1.554344e+003, -8.380711e-004
1.556273e+003, -7.878020e-004
1.558201e+003, -8.871779e-004
1.560130e+003, -8.378997e-004
1.562058e+003, -6.307364e-004
1.563986e+003, -5.596727e-004
1.565915e+003, -7.222369e-004
1.567843e+003, -8.885711e-004
1.569772e+003, -8.265078e-004
1.571700e+003, -7.337108e-004
1.573629e+003, -8.031651e-004
1.575557e+003, -9.541065e-004
1.577486e+003, -9.257197e-004
1.579414e+003, -8.506030e-004
1.581343e+003, -8.869395e-004
1.583271e+003, -9.000078e-004
1.585200e+003, -8.106604e-004
1.587128e+003, -6.354600e-004
1.589057e+003, -6.449446e-004
1.590985e+003, -7.438958e-004
1.592913e+003, -8.403063e-004
1.594842e+003, -7.645413e-004
1.596770e+003, -5.931109e-004
1.598699e+003, -5.330518e-004
1.600627e+003, -5.274191e-004
1.602556e+003, -6.303713e-004
1.604484e+003, -6.070659e-004
1.606413e+003, -5.928800e-004
1.608341e+003, -6.231666e-004
1.610270e+003, -6.848574e-004
1.612198e+003, -6.385744e-004
1.614127e+003, -6.101727e-004
1.616055e+003, -7.604286e-004
1.617984e+003, -6.897673e-004
1.619912e+003, -4.345626e-004
1.621840e+003, -4.367381e-004
1.623769e+003, -5.466491e-004
1.625697e+003, -4.726723e-004
1.627626e+003, -4.906952e-004
1.629554e+003, -5.921945e-004
1.631483e+003, -6.560534e-004
1.633411e+003, -6.404743e-004
1.635340e+003, -7.376522e-004
1.637268e+003, -9.182170e-004
1.639197e+003, -1.024306e-003
1.641125e+003, -1.068555e-003
1.643054e+003, -8.953288e-004
1.644982e+003, -8.039176e-004
1.646911e+003, -9.354576e-004
1.648839e+003, -1.063667e-003
1.650767e+003, -1.367494e-003
1.652696e+003, -1.629561e-003
1.654624e+003, -1.451768e-003
1.656553e+003, -1.351774e-003
1.658481e+003, -1.465648e-003
1.660410e+003, -1.529120e-003
1.662338e+003, -1.575746e-003
1.664267e+003, -1.708537e-003
1.666195e+003, -1.759917e-003
1.668124e+003, -1.781262e-003
1.670052e+003, -1.782134e-003
1.671981e+003, -1.817919e-003
1.673909e+003, -1.856282e-003
1.675838e+003, -1.755461e-003
1.677766e+003, -1.679406e-003
1.679694e+003, -1.758836e-003
1.681623e+003, -1.705684e-003
1.683551e+003, -1.593649e-003
1.685480e+003, -1.517370e-003
1.687408e+003, -1.494884e-003
1.689337e+003, -1.481794e-003
1.691265e+003, -1.490101e-003
1.693194e+003, -1.501605e-003
1.695122e+003, -1.535349e-003
1.697051e+003, -1.553640e-003
1.698979e+003, -1.704291e-003
1.700908e+003, -1.703590e-003
1.702836e+003, -1.406834e-003
1.704765e+003, -1.428142e-003
1.706693e+003, -1.474001e-003
1.708621e+003, -1.345158e-003
1.710550e+003, -1.339316e-003
1.712478e+003, -1.428440e-003
1.714407e+003, -1.439840e-003
1.716335e+003, -1.571447e-003
1.718264e+003, -1.392864e-003
1.720192e+003, -1.246639e-003
1.722121e+003, -1.400150e-003
1.724049e+003, -1.539588e-003
1.725978e+003, -1.548648e-003
1.727906e+003, -1.449242e-003
1.729835e+003, -1.421340e-003
1.731763e+003, -1.571715e-003
1.733692e+003, -1.736715e-003
1.735620e+003, -1.806147e-003
1.737548e+003, -1.893349e-003
1.739477e+003, -2.061747e-003
1.741405e+003, -2.254739e-003
1.743334e+003, -2.675511e-003
1.745262e+003, -3.273740e-003
1.747191e+003, -3.435522e-003
1.749119e+003, -3.377587e-003
1.751048e+003, -3.320478e-003
1.752976e+003, -3.090478e-003
1.754905e+003, -2.977505e-003
1.756833e+003, -2.880134e-003
1.758762e+003, -2.894498e-003
1.760690e+003, -2.640747e-003
1.762619e+003, -2.171107e-003
1.764547e+003, -2.095766e-003
1.766475e+003, -2.358735e-003
1.768404e+003, -2.569325e-003
1.770332e+003, -2.389088e-003
1.772261e+003, -2.059788e-003
1.774189e+003, -2.027854e-003
1.776118e+003, -2.124995e-003
1.778046e+003, -2.060413e-003
1.779975e+003, -2.124175e-003
1.781903e+003, -2.062790e-003
1.783832e+003, -2.016596e-003
1.785760e+003, -2.046019e-003
1.787689e+003, -2.122566e-003
1.789617e+003, -2.138712e-003
1.791546e+003, -2.062887e-003
1.793474e+003, -1.960598e-003
1.795402e+003, -1.830801e-003
1.797331e+003, -1.775935e-003
1.799259e+003, -1.846716e-003
1.801188e+003, -1.778506e-003
1.803116e+003, -1.770690e-003
1.805045e+003, -1.826659e-003
1.806973e+003, -1.782738e-003
1.808902e+003, -1.929916e-003
1.810830e+003, -1.721866e-003
1.812759e+003, -1.476228e-003
1.814687e+003, -1.578793e-003
1.816616e+003, -1.708761e-003
1.818544e+003, -1.686454e-003
1.820473e+003, -1.287229e-003
1.822401e+003, -1.142576e-003
1.824329e+003, -1.590870e-003
1.826258e+003, -1.579061e-003
1.828186e+003, -1.279749e-003
1.830115e+003, -1.162753e-003
1.832043e+003, -1.050629e-003
1.833972e+003, -1.148723e-003
1.835900e+003, -1.287907e-003
1.837829e+003, -1.101062e-003
1.839757e+003, -9.914190e-004
1.841686e+003, -1.243688e-003
1.843614e+003, -1.397863e-003
1.845543e+003, -1.201808e-003
1.847471e+003, -1.242414e-003
1.849400e+003, -1.352705e-003
1.851328e+003, -1.274630e-003
1.853256e+003, -9.827539e-004
1.855185e+003, -1.157254e-003
1.857113e+003, -1.225606e-003
1.859042e+003, -1.377538e-003
1.860970e+003, -1.606226e-003
1.862899e+003, -1.235656e-003
1.864827e+003, -9.836033e-004
1.866756e+003, -1.103811e-003
1.868684e+003, -1.321159e-003
1.870613e+003, -1.466356e-003
1.872541e+003, -1.375817e-003
1.874470e+003, -1.435399e-003
1.876398e+003, -1.283057e-003
1.878327e+003, -1.403078e-003
1.880255e+003, -1.515791e-003
1.882183e+003, -1.395404e-003
1.884112e+003, -1.564018e-003
1.886040e+003, -1.287743e-003
1.887969e+003, -1.097657e-003
1.889897e+003, -1.682974e-003
1.891826e+003, -2.090506e-003
1.893754e+003, -1.838379e-003
1.895683e+003, -1.525313e-003
1.897611e+003, -1.365751e-003
1.899540e+003, -1.311362e-003
1.901468e+003, -1.430005e-003
1.903397e+003, -1.387857e-003
1.905325e+003, -1.323923e-003
1.907254e+003, -1.016706e-003
1.909182e+003, -1.005597e-003
1.911110e+003, -1.279093e-003
1.913039e+003, -1.822151e-003
1.914967e+003, -2.309658e-003
1.916896e+003, -1.958571e-003
1.918824e+003, -1.037538e-003
1.920753e+003, -1.061775e-003
1.922681e+003, -1.864225e-003
1.924610e+003, -2.433643e-003
1.926538e+003, -2.263233e-003
1.928467e+003, -1.961015e-003
1.930395e+003, -1.713537e-003
1.932324e+003, -1.473464e-003
1.934252e+003, -1.563966e-003
1.936181e+003, -1.882605e-003
1.938109e+003, -1.959510e-003
1.940037e+003, -1.845822e-003
1.941966e+003, -1.151301e-003
1.943894e+003, -1.424238e-003
1.945823e+003, -1.558140e-003
1.947751e+003, -8.848906e-004
1.949680e+003, -6.475076e-004
1.951608e+003, -1.612298e-003
1.953537e+003, -2.328746e-003
1.955465e+003, -1.741260e-003
1.957394e+003, -7.473603e-004
1.959322e+003, -9.811670e-004
1.961251e+003, -1.439050e-003
1.963179e+003, -1.178056e-003
1.965108e+003, -1.165882e-003
1.967036e+003, -8.126050e-004
1.968964e+003, -9.995103e-004
1.970893e+003, -1.134783e-003
1.972821e+003, -1.109242e-003
1.974750e+003, -1.607597e-003
1.976678e+003, -1.050487e-003
1.978607e+003, 1.978427e-004
1.980535e+003, -4.799962e-004
1.982464e+003, -8.306205e-004
1.984392e+003, 8.568168e-006
1.986321e+003, 1.239806e-003
1.988249e+003, 8.059591e-004
1.990178e+003, 2.502203e-004
1.992106e+003, 2.668798e-004
1.994035e+003, -4.533082e-004
1.995963e+003, -2.010047e-003
1.997891e+003, -1.912504e-003
1.999820e+003, -8.225292e-004
2.001748e+003, -1.283243e-003
2.003677e+003, -2.627581e-003
2.005605e+003, -1.620606e-003
2.007534e+003, -6.802827e-004
2.009462e+003, -9.147823e-004
2.011391e+003, -1.229510e-003
2.013319e+003, -1.913071e-003
2.015248e+003, -1.574039e-003
2.017176e+003, -9.185672e-004
2.019105e+003, -1.226380e-003
2.021033e+003, -1.867652e-003
2.022962e+003, -1.621589e-003
2.024890e+003, 2.420396e-004
2.026818e+003, 1.226723e-003
2.028747e+003, 5.766451e-004
2.030675e+003, 1.212150e-003
2.032604e+003, 4.084110e-004
2.034532e+003, 2.413690e-004
2.036461e+003, 4.529208e-004
2.038389e+003, 2.250820e-004
2.040318e+003, -6.474406e-004
2.042246e+003, -1.317084e-003
2.044175e+003, -1.470268e-003
2.046103e+003, -8.089840e-004
2.048031e+003, -4.999191e-004
2.049960e+003, 4.351139e-005
2.051888e+003, -7.722676e-004
2.053817e+003, -1.841411e-003
2.055745e+003, -2.690539e-003
2.057674e+003, -2.411142e-003
2.059602e+003, -2.095461e-003
2.061531e+003, -1.336813e-003
2.063459e+003, -5.558729e-004
2.065388e+003, -1.066521e-003
2.067316e+003, -1.196146e-003
2.069245e+003, -1.033142e-003
2.071173e+003, -1.166388e-003
2.073102e+003, -1.499593e-003
2.075030e+003, -1.642078e-003
2.076958e+003, -8.717328e-004
2.078887e+003, -5.968809e-004
2.080815e+003, -1.041546e-003
2.082744e+003, -1.760274e-003
2.084672e+003, -1.909643e-003
2.086601e+003, -2.170652e-003
2.088529e+003, -2.552882e-003
2.090458e+003, -2.723172e-003
2.092386e+003, -3.476694e-003
2.094315e+003, -3.233522e-003
2.096243e+003, -2.585098e-003
2.098172e+003, -2.591431e-003
2.100100e+003, -1.992851e-003
2.102029e+003, -1.812741e-003
2.103957e+003, -1.736999e-003
2.105885e+003, -1.810029e-003
2.107814e+003, -2.318323e-003
2.109742e+003, -2.098009e-003
2.111671e+003, -2.314106e-003
2.113599e+003, -2.567962e-003
2.115528e+003, -2.811462e-003
2.117456e+003, -2.747849e-003
2.119385e+003, -2.786279e-003
2.121313e+003, -2.994478e-003
2.123242e+003, -2.839044e-003
2.125170e+003, -2.339602e-003
2.127099e+003, -2.596155e-003
2.129027e+003, -3.451705e-003
2.130956e+003, -3.094926e-003
2.132884e+003, -2.155364e-003
2.134813e+003, -2.426371e-003
2.136741e+003, -2.737850e-003
2.138669e+003, -2.774611e-003
2.140598e+003, -2.501503e-003
2.142526e+003, -1.950592e-003
2.144455e+003, -2.107739e-003
2.146383e+003, -2.272129e-003
2.148312e+003, -2.918482e-003
2.150240e+003, -3.099903e-003
2.152169e+003, -2.254814e-003
2.154097e+003, -8.776933e-004
2.156026e+003, -9.367168e-004
2.157954e+003, -8.507967e-004
2.159883e+003, 1.355901e-003
2.161811e+003, 2.040610e-003
2.163740e+003, 1.439393e-003
2.165668e+003, 1.585990e-003
2.167596e+003, 8.786619e-004
2.169525e+003, -3.936142e-004
2.171453e+003, -1.843423e-004
2.173382e+003, 1.935661e-005
2.175310e+003, 2.428889e-005
2.177239e+003, -7.154942e-004
2.179167e+003, -1.538023e-003
2.181096e+003, -4.968792e-004
2.183024e+003, 1.660615e-003
2.184953e+003, 2.495736e-003
2.186881e+003, 1.610443e-003
2.188810e+003, 2.030879e-004
2.190738e+003, -1.159862e-003
2.192667e+003, -7.071197e-004
2.194595e+003, 6.201565e-004
2.196523e+003, 9.307563e-004
2.198452e+003, 5.729049e-004
2.200380e+003, -2.617836e-004
2.202309e+003, -6.677061e-004
2.204237e+003, -7.755011e-004
2.206166e+003, -3.213733e-004
2.208094e+003, 3.655851e-004
2.210023e+003, 4.364550e-005
2.211951e+003, -3.258735e-004
2.213880e+003, -2.674907e-004
2.215808e+003, -2.457350e-004
2.217737e+003, -3.327280e-004
2.219665e+003, -7.319748e-004
2.221594e+003, -2.904236e-004
2.223522e+003, -1.673698e-004
2.225450e+003, -6.009340e-004
2.227379e+003, -1.177788e-003
2.229307e+003, -1.047254e-003
2.231236e+003, -1.228034e-003
2.233164e+003, -1.022562e-003
2.235093e+003, -6.912351e-004
2.237021e+003, -7.599741e-004
2.238950e+003, -1.287416e-003
2.240878e+003, -1.111731e-003
2.242807e+003, -6.086677e-004
2.244735e+003, -8.600652e-004
2.246664e+003, -6.703585e-004
2.248592e+003, -4.142970e-004
2.250521e+003, -7.209033e-004
2.252449e+003, -1.284733e-003
2.254377e+003, -1.025319e-003
2.256306e+003, -3.759861e-004
2.258234e+003, -3.075153e-004
2.260163e+003, -6.867200e-004
2.262091e+003, -1.326904e-003
2.264020e+003, -1.455024e-003
2.265948e+003, -1.590356e-003
2.267877e+003, -1.291707e-003
2.269805e+003, -8.807480e-004
2.271734e+003, -8.585304e-004
2.273662e+003, -6.486475e-004
2.275591e+003, -1.014918e-003
2.277519e+003, -1.508236e-003
2.279448e+003, -1.076758e-003
2.281376e+003, -6.169975e-004
2.283304e+003, -3.640205e-004
2.285233e+003, 1.737475e-005
2.287161e+003, -3.496855e-004
2.289090e+003, -9.398609e-004
2.291018e+003, -8.852184e-004
2.292947e+003, -7.231832e-004
2.294875e+003, -1.294494e-003
2.296804e+003, -1.434192e-003
2.298732e+003, -1.424968e-003
2.300661e+003, -1.664639e-003
2.302589e+003, -1.974970e-003
2.304518e+003, -2.012104e-003
2.306446e+003, -1.907185e-003
2.308375e+003, -1.886293e-003
2.310303e+003, -1.828581e-003
2.312231e+003, -1.718983e-003
2.314160e+003, -1.666293e-003
2.316088e+003, -1.737311e-003
2.318017e+003, -2.006888e-003
2.319945e+003, -1.545995e-003
2.321874e+003, -1.035482e-003
2.323802e+003, -1.108348e-003
2.325731e+003, -1.328021e-003
2.327659e+003, -1.658931e-003
2.329588e+003, -2.041712e-003
2.331516e+003, -2.043635e-003
2.333445e+003, -1.705393e-003
2.335373e+003, -1.073778e-003
2.337302e+003, -9.983033e-004
2.339230e+003, -1.561448e-003
2.341158e+003, -1.723886e-003
2.343087e+003, -1.986504e-003
2.345015e+003, -2.391279e-003
2.346944e+003, -2.407357e-003
2.348872e+003, -2.350196e-003
2.350801e+003, -2.174735e-003
2.352729e+003, -1.945138e-003
2.354658e+003, -1.566514e-003
2.356586e+003, -1.279667e-003
2.358515e+003, -1.138508e-003
2.360443e+003, -1.113236e-003
2.362372e+003, -1.126975e-003
2.364300e+003, -1.157269e-003
2.366229e+003, -1.293823e-003
2.368157e+003, -1.347616e-003
2.370085e+003, -1.556963e-003
2.372014e+003, -2.017111e-003
2.373942e+003, -2.331138e-003
2.375871e+003, -2.104998e-003
2.377799e+003, -1.661897e-003
2.379728e+003, -2.173126e-003
2.381656e+003, -2.482235e-003
2.383585e+003, -2.378985e-003
2.385513e+003, -2.285019e-003
2.387442e+003, -2.269194e-003
2.389370e+003, -2.191588e-003
2.391299e+003, -2.108321e-003
2.393227e+003, -2.300665e-003
2.395156e+003, -2.422318e-003
2.397084e+003, -2.370879e-003
2.399012e+003, -2.334073e-003
2.400941e+003, -2.195761e-003
2.402869e+003, -2.273366e-003
2.404798e+003, -2.182007e-003
2.406726e+003, -1.852676e-003
2.408655e+003, -1.417786e-003
2.410583e+003, -1.858354e-003
2.412512e+003, -2.362892e-003
2.414440e+003, -2.275452e-003
2.416369e+003, -2.219766e-003
2.418297e+003, -1.929104e-003
2.420226e+003, -1.522020e-003
2.422154e+003, -1.522005e-003
2.424083e+003, -1.445785e-003
2.426011e+003, -1.554430e-003
2.427939e+003, -1.555264e-003
2.429868e+003, -1.638710e-003
2.431796e+003, -1.611114e-003
2.433725e+003, -1.783758e-003
2.435653e+003, -1.655325e-003
2.437582e+003, -1.106024e-003
2.439510e+003, -7.863641e-004
2.441439e+003, -1.001492e-003
2.443367e+003, -1.107156e-003
2.445296e+003, -6.970465e-004
2.447224e+003, -1.054958e-003
2.449153e+003, -1.649320e-003
2.451081e+003, -1.043290e-003
2.453010e+003, -9.347945e-004
2.454938e+003, -8.141696e-004
2.456866e+003, -4.507899e-004
2.458795e+003, -4.096925e-004
2.460723e+003, -7.113814e-004
2.462652e+003, -1.004800e-003
2.464580e+003, -1.009762e-003
2.466509e+003, -8.411705e-004
2.468437e+003, -1.111060e-003
2.470366e+003, -1.253784e-003
2.472294e+003, -6.664544e-004
2.474223e+003, -4.072487e-005
2.476151e+003, -1.019984e-004
2.478080e+003, -3.885031e-004
2.480008e+003, -6.218106e-004
2.481937e+003, -6.664544e-004
2.483865e+003, -4.952103e-004
2.485793e+003, -3.232360e-004
2.487722e+003, -1.140237e-004
2.489650e+003, 7.756054e-005
2.491579e+003, -1.137108e-004
2.493507e+003, -4.433393e-004
2.495436e+003, -3.594160e-004
2.497364e+003, -3.364235e-004
2.499293e+003, -9.995699e-005
2.501221e+003, -3.254414e-005
2.503150e+003, -3.699064e-004
2.505078e+003, -2.192706e-004
2.507007e+003, 2.871305e-004
2.508935e+003, 6.681681e-005
2.510864e+003, -4.417002e-004
2.512792e+003, -4.942864e-004
2.514720e+003, -9.621680e-005
2.516649e+003, 1.695156e-004
2.518577e+003, -1.226366e-004
2.520506e+003, -7.198304e-004
2.522434e+003, -9.995550e-004
2.524363e+003, -7.614046e-004
2.526291e+003, -4.398525e-004
2.528220e+003, 2.659112e-004
2.530148e+003, 5.718172e-004
2.532077e+003, 5.421340e-004
2.534005e+003, 8.073151e-004
2.535934e+003, 6.494969e-004
2.537862e+003, 2.122521e-004
2.539791e+003, 3.628433e-004
2.541719e+003, 1.043379e-004
2.543647e+003, 1.636595e-004
2.545576e+003, 2.971441e-004
2.547504e+003, -6.362796e-006
2.549433e+003, -5.423725e-004
2.551361e+003, -1.564175e-004
2.553290e+003, 1.618862e-004
2.555218e+003, -9.731948e-005
2.557147e+003, -4.551858e-004
2.559075e+003, 2.364814e-004
2.561004e+003, 3.720969e-004
2.562932e+003, -2.671182e-004
2.564861e+003, -1.038462e-004
2.566789e+003, 4.585385e-004
2.568718e+003, 5.830079e-004
2.570646e+003, 7.045567e-004
2.572574e+003, 9.418726e-004
2.574503e+003, 5.929470e-004
2.576431e+003, 2.603233e-005
2.578360e+003, 1.372844e-004
2.580288e+003, 5.364418e-004
2.582217e+003, 5.241632e-004
2.584145e+003, 4.937053e-004
2.586074e+003, 6.657839e-004
2.588002e+003, 7.216036e-004
2.589931e+003, 5.823374e-004
2.591859e+003, 7.403642e-004
2.593788e+003, 1.175433e-003
2.595716e+003, 7.164031e-004
2.597645e+003, 2.920032e-004
2.599573e+003, 1.779795e-004
2.601501e+003, 2.108514e-005
2.603430e+003, 7.665157e-005
2.605358e+003, 5.283356e-004
2.607287e+003, 1.113907e-003
2.609215e+003, 1.377657e-003
2.611144e+003, 1.163602e-003
2.613072e+003, 8.614361e-004
2.615001e+003, 6.933659e-004
2.616929e+003, 6.940961e-004
2.618858e+003, 1.047239e-003
2.620786e+003, 9.022504e-004
2.622715e+003, 7.376075e-004
2.624643e+003, 6.821454e-004
2.626572e+003, 5.106032e-004
2.628500e+003, 6.345958e-004
2.630428e+003, 3.928542e-004
2.632357e+003, -7.663667e-005
2.634285e+003, -4.023015e-004
2.636214e+003, -2.392679e-004
2.638142e+003, 5.053878e-004
2.640071e+003, 7.476807e-004
2.641999e+003, 4.537404e-004
2.643928e+003, 6.602854e-004
2.645856e+003, 8.279979e-004
2.647785e+003, 5.691648e-004
2.649713e+003, 5.955994e-005
2.651642e+003, 1.828372e-005
2.653570e+003, 1.271516e-004
2.655499e+003, 2.330095e-004
2.657427e+003, 2.503991e-004
2.659355e+003, 2.324730e-004
2.661284e+003, 9.073317e-005
2.663212e+003, -8.682907e-005
2.665141e+003, -2.762079e-004
2.667069e+003, -5.763918e-004
2.668998e+003, -6.839037e-004
2.670926e+003, -3.695637e-004
2.672855e+003, -2.014041e-004
2.674783e+003, -1.427233e-004
2.676712e+003, -7.949769e-005
2.678640e+003, 2.335906e-004
2.680569e+003, 2.363175e-004
2.682497e+003, -1.271963e-004
2.684426e+003, -3.154874e-004
2.686354e+003, 1.341552e-004
2.688282e+003, 3.986508e-004
2.690211e+003, 2.384633e-004
2.692139e+003, 2.901703e-004
2.694068e+003, 3.772527e-004
2.695996e+003, 2.228767e-004
2.697925e+003, 1.153648e-004
2.699853e+003, 6.094575e-006
2.701782e+003, -7.477403e-005
2.703710e+003, 3.295839e-004
2.705639e+003, 4.099756e-004
2.707567e+003, 1.494139e-004
2.709496e+003, 7.748604e-006
2.711424e+003, 6.943941e-005
2.713353e+003, 3.491491e-004
2.715281e+003, 3.415346e-004
2.717209e+003, 2.961755e-004
2.719138e+003, 3.667623e-004
2.721066e+003, 2.615452e-004
2.722995e+003, 3.209859e-004
2.724923e+003, 6.030351e-004
2.726852e+003, 7.784814e-004
2.728780e+003, 8.006692e-004
2.730709e+003, 5.686581e-004
2.732637e+003, 5.555749e-004
2.734566e+003, 7.463545e-004
2.736494e+003, 1.129642e-003
2.738423e+003, 8.200258e-004
2.740351e+003, 3.575534e-004
2.742280e+003, 7.109344e-004
2.744208e+003, 1.113594e-003
2.746136e+003, 8.899570e-004
2.748065e+003, 9.046197e-004
2.749993e+003, 1.090854e-003
2.751922e+003, 1.094028e-003
2.753850e+003, 1.009151e-003
2.755779e+003, 1.113728e-003
2.757707e+003, 1.198530e-003
2.759636e+003, 1.205415e-003
2.761564e+003, 1.126707e-003
2.763493e+003, 1.173779e-003
2.765421e+003, 1.596645e-003
2.767350e+003, 1.605585e-003
2.769278e+003, 1.611501e-003
2.771207e+003, 1.595497e-003
2.773135e+003, 1.336530e-003
2.775063e+003, 1.128942e-003
2.776992e+003, 1.426399e-003
2.778920e+003, 1.658171e-003
2.780849e+003, 1.832575e-003
2.782777e+003, 1.727819e-003
2.784706e+003, 1.929387e-003
2.786634e+003, 1.927450e-003
2.788563e+003, 1.789227e-003
2.790491e+003, 1.805067e-003
2.792420e+003, 1.674831e-003
2.794348e+003, 1.735613e-003
2.796277e+003, 2.020419e-003
2.798205e+003, 2.214894e-003
2.800134e+003, 2.419695e-003
2.802062e+003, 2.789021e-003
2.803990e+003, 2.730250e-003
2.805919e+003, 2.802178e-003
2.807847e+003, 2.678588e-003
2.809776e+003, 2.628788e-003
2.811704e+003, 2.947226e-003
2.813633e+003, 2.906501e-003
2.815561e+003, 2.890706e-003
2.817490e+003, 3.031641e-003
2.819418e+003, 2.990931e-003
2.821347e+003, 3.076851e-003
2.823275e+003, 3.386945e-003
2.825204e+003, 3.450066e-003
2.827132e+003, 3.405005e-003
2.829061e+003, 3.420442e-003
2.830989e+003, 3.856599e-003
2.832917e+003, 4.217491e-003
2.834846e+003, 4.104897e-003
2.836774e+003, 4.452929e-003
2.838703e+003, 4.673585e-003
2.840631e+003, 4.818931e-003
2.842560e+003, 4.733846e-003
2.844488e+003, 4.525900e-003
2.846417e+003, 4.187211e-003
2.848345e+003, 3.652364e-003
2.850274e+003, 3.239483e-003
2.852202e+003, 3.362030e-003
2.854131e+003, 3.350243e-003
2.856059e+003, 3.707722e-003
2.857988e+003, 4.041910e-003
2.859916e+003, 4.308954e-003
2.861844e+003, 4.543513e-003
2.863773e+003, 4.547074e-003
2.865701e+003, 4.467934e-003
2.867630e+003, 4.383877e-003
2.869558e+003, 4.066899e-003
2.871487e+003, 4.146725e-003
2.873415e+003, 4.216477e-003
2.875344e+003, 4.371226e-003
2.877272e+003, 4.674017e-003
2.879201e+003, 4.902467e-003
2.881129e+003, 4.780769e-003
2.883058e+003, 4.715174e-003
2.884986e+003, 4.984602e-003
2.886915e+003, 5.531818e-003
2.888843e+003, 5.837634e-003
2.890771e+003, 5.710348e-003
2.892700e+003, 5.326778e-003
2.894628e+003, 5.218536e-003
2.896557e+003, 5.581006e-003
2.898485e+003, 5.951971e-003
2.900414e+003, 6.363332e-003
2.902342e+003, 6.461442e-003
2.904271e+003, 6.186083e-003
2.906199e+003, 5.915090e-003
2.908128e+003, 6.341755e-003
2.910056e+003, 6.833717e-003
2.911985e+003, 6.556675e-003
2.913913e+003, 6.567016e-003
2.915842e+003, 6.321460e-003
2.917770e+003, 5.909324e-003
2.919698e+003, 5.900800e-003
2.921627e+003, 5.431429e-003
2.923555e+003, 4.903421e-003
2.925484e+003, 5.049527e-003
2.927412e+003, 4.925966e-003
2.929341e+003, 4.452243e-003
2.931269e+003, 4.256636e-003
2.933198e+003, 3.888369e-003
2.935126e+003, 3.396124e-003
2.937055e+003, 3.288418e-003
2.938983e+003, 3.340036e-003
2.940912e+003, 3.790870e-003
2.942840e+003, 4.059523e-003
2.944769e+003, 4.486457e-003
2.946697e+003, 4.479483e-003
2.948625e+003, 4.465431e-003
2.950554e+003, 4.298687e-003
2.952482e+003, 4.608527e-003
2.954411e+003, 5.041346e-003
2.956339e+003, 4.557520e-003
2.958268e+003, 4.375517e-003
2.960196e+003, 5.006984e-003
2.962125e+003, 5.279973e-003
2.964053e+003, 4.622638e-003
2.965982e+003, 3.823951e-003
2.967910e+003, 3.410354e-003
2.969839e+003, 3.003076e-003
2.971767e+003, 2.415329e-003
2.973696e+003, 2.138853e-003
2.975624e+003, 2.323985e-003
2.977552e+003, 1.575649e-003
2.979481e+003, 1.553863e-003
2.981409e+003, 2.193019e-003
2.983338e+003, 2.153873e-003
2.985266e+003, 2.162457e-003
2.987195e+003, 1.721233e-003
2.989123e+003, 1.409918e-003
2.991052e+003, 1.286477e-003
2.992980e+003, 1.577258e-003
2.994909e+003, 1.976907e-003
2.996837e+003, 2.005532e-003
2.998766e+003, 2.216160e-003
3.000694e+003, 2.512857e-003
3.002623e+003, 2.695531e-003
3.004551e+003, 2.576590e-003
3.006479e+003, 2.398252e-003
3.008408e+003, 2.296135e-003
3.010336e+003, 2.437726e-003
3.012265e+003, 1.624241e-003
3.014193e+003, 1.144856e-004
3.016122e+003, -1.537830e-003
3.018050e+003, -8.471608e-004
3.019979e+003, 1.781553e-003
3.021907e+003, 2.577126e-003
3.023836e+003, 2.446458e-003
3.025764e+003, 2.521887e-003
3.027693e+003, 3.013968e-003
3.029621e+003, 3.150746e-003
3.031550e+003, 2.700195e-003
3.033478e+003, 2.773419e-003
3.035406e+003, 2.817318e-003
3.037335e+003, 2.865314e-003
3.039263e+003, 3.288403e-003
3.041192e+003, 3.615201e-003
3.043120e+003, 3.589317e-003
3.045049e+003, 3.386885e-003
3.046977e+003, 3.007010e-003
3.048906e+003, 2.965912e-003
3.050834e+003, 3.351808e-003
3.052763e+003, 3.466129e-003
3.054691e+003, 3.060892e-003
3.056620e+003, 2.535596e-003
3.058548e+003, 2.869219e-003
3.060477e+003, 3.790990e-003
3.062405e+003, 4.249781e-003
3.064333e+003, 3.923312e-003
3.066262e+003, 2.952084e-003
3.068190e+003, 3.229201e-003
3.070119e+003, 4.234418e-003
3.072047e+003, 4.312307e-003
3.073976e+003, 3.390819e-003
3.075904e+003, 2.337545e-003
3.077833e+003, 2.931491e-003
3.079761e+003, 3.962547e-003
3.081690e+003, 4.019037e-003
3.083618e+003, 3.771663e-003
3.085547e+003, 3.531456e-003
3.087475e+003, 4.268080e-003
3.089404e+003, 4.453659e-003
3.091332e+003, 4.115388e-003
3.093260e+003, 4.273131e-003
3.095189e+003, 4.251704e-003
3.097117e+003, 4.360989e-003
3.099046e+003, 4.434869e-003
3.100974e+003, 4.540876e-003
3.102903e+003, 4.021689e-003
3.104831e+003, 3.741235e-003
3.106760e+003, 4.611760e-003
3.108688e+003, 5.356252e-003
3.110617e+003, 5.133256e-003
3.112545e+003, 4.391924e-003
3.114474e+003, 4.486144e-003
3.116402e+003, 4.673392e-003
3.118331e+003, 4.367784e-003
3.120259e+003, 4.168466e-003
3.122188e+003, 4.373774e-003
3.124116e+003, 5.022243e-003
3.126044e+003, 5.538747e-003
3.127973e+003, 5.503982e-003
3.129901e+003, 5.587369e-003
3.131830e+003, 5.559638e-003
3.133758e+003, 5.232826e-003
3.135687e+003, 5.067989e-003
3.137615e+003, 5.245209e-003
3.139544e+003, 5.849659e-003
3.141472e+003, 6.158412e-003
3.143401e+003, 5.524650e-003
3.145329e+003, 5.343467e-003
3.147258e+003, 5.631536e-003
3.149186e+003, 5.793989e-003
3.151115e+003, 5.774021e-003
3.153043e+003, 5.606189e-003
3.154971e+003, 5.514339e-003
3.156900e+003, 5.955681e-003
3.158828e+003, 6.398886e-003
3.160757e+003, 6.178752e-003
3.162685e+003, 5.567342e-003
3.164614e+003, 5.697489e-003
3.166542e+003, 5.523175e-003
3.168471e+003, 5.455315e-003
3.170399e+003, 5.719006e-003
3.172328e+003, 5.991429e-003
3.174256e+003, 6.101519e-003
3.176185e+003, 6.110638e-003
3.178113e+003, 6.137386e-003
3.180042e+003, 5.936816e-003
3.181970e+003, 6.260335e-003
3.183898e+003, 5.964920e-003
3.185827e+003, 4.975393e-003
3.187755e+003, 5.900085e-003
3.189684e+003, 6.570533e-003
3.191612e+003, 5.903468e-003
3.193541e+003, 6.131247e-003
3.195469e+003, 7.071614e-003
3.197398e+003, 7.104591e-003
3.199326e+003, 6.358266e-003
3.201255e+003, 6.216675e-003
3.203183e+003, 6.423444e-003
3.205112e+003, 6.379575e-003
3.207040e+003, 5.414709e-003
3.208969e+003, 4.865140e-003
3.210897e+003, 5.787969e-003
3.212825e+003, 6.511658e-003
3.214754e+003, 6.214872e-003
3.216682e+003, 5.918711e-003
3.218611e+003, 6.270379e-003
3.220539e+003, 6.685510e-003
3.222468e+003, 6.832451e-003
3.224396e+003, 6.795034e-003
3.226325e+003, 5.696625e-003
3.228253e+003, 5.098000e-003
3.230182e+003, 5.253792e-003
3.232110e+003, 5.629227e-003
3.234039e+003, 5.987987e-003
3.235967e+003, 5.660653e-003
3.237896e+003, 5.358875e-003
3.239824e+003, 5.899921e-003
3.241752e+003, 6.232679e-003
3.243681e+003, 5.895346e-003
3.245609e+003, 5.702421e-003
3.247538e+003, 5.837455e-003
3.249466e+003, 5.737200e-003
3.251395e+003, 5.991280e-003
3.253323e+003, 6.579459e-003
3.255252e+003, 6.237626e-003
3.257180e+003, 5.645990e-003
3.259109e+003, 5.691156e-003
3.261037e+003, 6.419972e-003
3.262966e+003, 6.486490e-003
3.264894e+003, 5.627856e-003
3.266823e+003, 5.745173e-003
3.268751e+003, 5.820036e-003
3.270679e+003, 5.498543e-003
3.272608e+003, 5.625129e-003
3.274536e+003, 5.606353e-003
3.276465e+003, 5.560070e-003
3.278393e+003, 5.160496e-003
3.280322e+003, 5.492106e-003
3.282250e+003, 5.895019e-003
3.284179e+003, 6.174326e-003
3.286107e+003, 5.916387e-003
3.288036e+003, 5.578771e-003
3.289964e+003, 5.191386e-003
3.291893e+003, 5.536720e-003
3.293821e+003, 6.087765e-003
3.295750e+003, 6.193653e-003
3.297678e+003, 6.064296e-003
3.299606e+003, 5.887911e-003
3.301535e+003, 5.392313e-003
3.303463e+003, 5.323470e-003
3.305392e+003, 5.364060e-003
3.307320e+003, 5.500630e-003
3.309249e+003, 6.044894e-003
3.311177e+003, 6.093681e-003
3.313106e+003, 6.029412e-003
3.315034e+003, 5.731940e-003
3.316963e+003, 4.919857e-003
3.318891e+003, 4.594564e-003
3.320820e+003, 5.156651e-003
3.322748e+003, 5.860850e-003
3.324677e+003, 6.216899e-003
3.326605e+003, 6.127894e-003
3.328533e+003, 5.441964e-003
3.330462e+003, 5.055159e-003
3.332390e+003, 5.272985e-003
3.334319e+003, 5.033538e-003
3.336247e+003, 4.974380e-003
3.338176e+003, 5.323455e-003
3.340104e+003, 5.305350e-003
3.342033e+003, 4.854307e-003
3.343961e+003, 4.893482e-003
3.345890e+003, 5.485609e-003
3.347818e+003, 5.583748e-003
3.349747e+003, 5.496308e-003
3.351675e+003, 5.061984e-003
3.353604e+003, 5.265698e-003
3.355532e+003, 5.603746e-003
3.357460e+003, 5.719766e-003
3.359389e+003, 6.060168e-003
3.361317e+003, 5.865470e-003
3.363246e+003, 4.847631e-003
3.365174e+003, 4.447028e-003
3.367103e+003, 4.975423e-003
3.369031e+003, 5.113170e-003
3.370960e+003, 4.792467e-003
3.372888e+003, 4.211351e-003
3.374817e+003, 4.921913e-003
3.376745e+003, 5.416200e-003
3.378674e+003, 5.053774e-003
3.380602e+003, 4.900098e-003
3.382531e+003, 4.817277e-003
3.384459e+003, 4.467264e-003
3.386387e+003, 4.490197e-003
3.388316e+003, 4.464358e-003
3.390244e+003, 4.700541e-003
3.392173e+003, 4.616380e-003
3.394101e+003, 3.952771e-003
3.396030e+003, 3.800854e-003
3.397958e+003, 4.374057e-003
3.399887e+003, 4.766300e-003
3.401815e+003, 4.574537e-003
3.403744e+003, 3.985316e-003
3.405672e+003, 3.404260e-003
3.407601e+003, 3.702328e-003
3.409529e+003, 4.393741e-003
3.411458e+003, 4.314467e-003
3.413386e+003, 4.289314e-003
3.415314e+003, 4.037067e-003
3.417243e+003, 4.041657e-003
3.419171e+003, 3.900990e-003
3.421100e+003, 3.498808e-003
3.423028e+003, 4.231498e-003
3.424957e+003, 4.903242e-003
3.426885e+003, 4.018053e-003
3.428814e+003, 3.542051e-003
3.430742e+003, 3.480002e-003
3.432671e+003, 3.620684e-003
3.434599e+003, 4.176959e-003
3.436528e+003, 3.710046e-003
3.438456e+003, 3.081053e-003
3.440385e+003, 3.368631e-003
3.442313e+003, 3.517017e-003
3.444241e+003, 3.933460e-003
3.446170e+003, 3.578603e-003
3.448098e+003, 3.115892e-003
3.450027e+003, 2.600998e-003
3.451955e+003, 2.795339e-003
3.453884e+003, 3.270403e-003
3.455812e+003, 3.531158e-003
3.457741e+003, 3.899261e-003
3.459669e+003, 3.871351e-003
3.461598e+003, 3.388822e-003
3.463526e+003, 3.659770e-003
3.465455e+003, 3.942654e-003
3.467383e+003, 3.132582e-003
3.469312e+003, 2.873823e-003
3.471240e+003, 3.159732e-003
3.473168e+003, 2.864599e-003
3.475097e+003, 2.480671e-003
3.477025e+003, 2.387568e-003
3.478954e+003, 2.344534e-003
3.480882e+003, 1.959652e-003
3.482811e+003, 2.184093e-003
3.484739e+003, 2.678171e-003
3.486668e+003, 2.624720e-003
3.488596e+003, 2.552003e-003
3.490525e+003, 2.321944e-003
3.492453e+003, 2.267092e-003
3.494382e+003, 2.367660e-003
3.496310e+003, 2.082407e-003
3.498239e+003, 2.104685e-003
3.500167e+003, 2.325326e-003
3.502095e+003, 2.467066e-003
3.504024e+003, 2.396956e-003
3.505952e+003, 1.862407e-003
3.507881e+003, 1.696065e-003
3.509809e+003, 1.262248e-003
3.511738e+003, 1.421645e-003
3.513666e+003, 1.435950e-003
3.515595e+003, 1.048207e-003
3.517523e+003, 1.176521e-003
3.519452e+003, 1.484513e-003
3.521380e+003, 1.549631e-003
3.523309e+003, 1.754403e-003
3.525237e+003, 1.743734e-003
3.527166e+003, 1.831487e-003
3.529094e+003, 1.446396e-003
3.531022e+003, 1.815945e-003
3.532951e+003, 1.163900e-003
3.534879e+003, 5.832165e-004
3.536808e+003, 8.046031e-004
3.538736e+003, 1.208261e-003
3.540665e+003, 1.563028e-003
3.542593e+003, 1.545280e-003
3.544522e+003, 1.523465e-003
3.546450e+003, 1.358852e-003
3.548379e+003, 1.219466e-003
3.550307e+003, 1.014724e-003
3.552236e+003, 6.113946e-004
3.554164e+003, 4.276782e-004
3.556093e+003, 7.204711e-005
3.558021e+003, 2.132356e-004
3.559949e+003, -2.446175e-004
3.561878e+003, -2.002269e-004
3.563806e+003, 7.051229e-004
3.565735e+003, 5.767345e-004
3.567663e+003, 3.573149e-004
3.569592e+003, 7.144809e-004
3.571520e+003, 4.858375e-004
3.573449e+003, -8.657575e-005
3.575377e+003, -6.176829e-004
3.577306e+003, -4.083514e-004
3.579234e+003, 3.344864e-004
3.581163e+003, 1.462221e-003
3.583091e+003, 1.764119e-003
3.585020e+003, 5.206615e-004
3.586948e+003, -7.560849e-004
3.588876e+003, -7.296354e-004
3.590805e+003, -1.044869e-004
3.592733e+003, -7.491410e-004
3.594662e+003, -1.038328e-003
3.596590e+003, -5.759597e-004
3.598519e+003, -9.523779e-004
3.600447e+003, -1.059070e-003
3.602376e+003, -2.162009e-004
3.604304e+003, 3.599077e-004
3.606233e+003, 9.937435e-004
3.608161e+003, 5.430281e-004
3.610090e+003, -5.871058e-004
3.612018e+003, -1.168057e-003
3.613947e+003, -1.379997e-003
3.615875e+003, -1.243576e-003
3.617803e+003, -8.118153e-004
3.619732e+003, -1.047879e-003
3.621660e+003, -7.365048e-004
3.623589e+003, -9.028763e-004
3.625517e+003, -4.128367e-004
3.627446e+003, 4.788637e-004
3.629374e+003, 1.160353e-004
3.631303e+003, -7.175356e-004
3.633231e+003, -1.014173e-003
3.635160e+003, -1.129329e-003
3.637088e+003, -1.155257e-003
3.639017e+003, -9.350181e-004
3.640945e+003, -1.020446e-003
3.642874e+003, -1.337230e-003
3.644802e+003, -6.387234e-004
3.646730e+003, -4.837215e-004
3.648659e+003, -7.830709e-004
3.650587e+003, -4.333109e-004
3.652516e+003, 4.786253e-005
3.654444e+003, -2.104938e-004
3.656373e+003, -5.051196e-004
3.658301e+003, -7.262081e-004
3.660230e+003, -1.001894e-003
3.662158e+003, -5.762875e-004
3.664087e+003, -1.589209e-004
3.666015e+003, 2.051890e-005
3.667944e+003, 1.665950e-005
3.669872e+003, 2.749562e-004
3.671801e+003, -1.599938e-004
3.673729e+003, -1.140520e-003
3.675657e+003, -7.057488e-004
3.677586e+003, -1.396984e-004
3.679514e+003, -9.956807e-004
3.681443e+003, -9.462535e-004
3.683371e+003, -9.763092e-004
3.685300e+003, -1.035511e-003
3.687228e+003, -1.206920e-003
3.689157e+003, -1.192734e-003
3.691085e+003, -1.034826e-003
3.693014e+003, -1.047134e-003
3.694942e+003, -1.012504e-003
3.696871e+003, -1.312107e-003
3.698799e+003, -1.076236e-003
3.700728e+003, -6.572455e-004
3.702656e+003, -6.336421e-004
3.704584e+003, -2.839118e-004
3.706513e+003, 3.713816e-004
3.708441e+003, 8.916855e-005
3.710370e+003, -4.092604e-004
3.712298e+003, -4.280359e-004
3.714227e+003, -2.199709e-004
3.716155e+003, -5.035698e-004
3.718084e+003, 1.797229e-004
3.720012e+003, 3.062189e-004
3.721941e+003, 3.283322e-004
3.723869e+003, 1.394391e-003
3.725798e+003, 1.382291e-003
3.727726e+003, 7.290691e-004
3.729655e+003, -1.372695e-004
3.731583e+003, -1.017019e-003
3.733511e+003, -9.449869e-004
3.735440e+003, -8.458346e-004
3.737368e+003, -9.217411e-004
3.739297e+003, 1.135319e-004
3.741225e+003, 5.110800e-004
3.743154e+003, -3.575683e-004
3.745082e+003, -4.985631e-004
3.747011e+003, -5.383790e-005
3.748939e+003, -1.572073e-005
3.750868e+003, 5.272329e-004
3.752796e+003, 5.298257e-004
3.754725e+003, 4.613400e-005
3.756653e+003, 2.098829e-004
3.758582e+003, -7.090271e-004
3.760510e+003, -7.470250e-004
3.762438e+003, -7.496774e-005
3.764367e+003, -1.859665e-004
3.766295e+003, -3.421456e-004
3.768224e+003, 5.599856e-005
3.770152e+003, -5.182028e-004
3.772081e+003, -7.743090e-004
3.774009e+003, -1.168400e-004
3.775938e+003, -6.273389e-004
3.777866e+003, -5.445182e-004
3.779795e+003, -4.142374e-004
3.781723e+003, -3.389418e-004
3.783652e+003, 2.382249e-004
3.785580e+003, -5.528331e-006
3.787509e+003, -8.437037e-005
3.789437e+003, 4.000813e-004
3.791365e+003, 2.508909e-004
3.793294e+003, 6.844252e-004
3.795222e+003, 7.356554e-004
3.797151e+003, 2.884716e-004
3.799079e+003, 6.943792e-004
3.801008e+003, 3.854781e-004
3.802936e+003, 2.151579e-004
3.804865e+003, 2.737343e-004
3.806793e+003, -5.922616e-004
3.808722e+003, -7.356554e-004
3.810650e+003, 4.505366e-004
3.812579e+003, 6.257892e-004
3.814507e+003, -3.209114e-004
3.816436e+003, -2.868176e-004
3.818364e+003, -6.245077e-004
3.820292e+003, -6.120950e-004
3.822221e+003, -3.225952e-004
3.824149e+003, 1.406968e-004
3.826078e+003, 7.267296e-005
3.828006e+003, -4.338920e-004
3.829935e+003, -8.555651e-004
3.831863e+003, -1.213118e-003
3.833792e+003, -1.074463e-003
3.835720e+003, -1.833588e-004
3.837649e+003, 4.137903e-004
3.839577e+003, 1.603365e-005
3.841506e+003, -6.107092e-004
3.843434e+003, -3.716648e-004
3.845363e+003, -5.151480e-004
3.847291e+003, -1.288295e-003
3.849219e+003, -1.854122e-003
3.851148e+003, -1.274183e-003
3.853076e+003, -6.163567e-004
3.855005e+003, -4.812926e-004
3.856933e+003, 8.489192e-005
3.858862e+003, 1.672506e-004
3.860790e+003, -2.953857e-004
3.862719e+003, -5.728006e-005
3.864647e+003, -1.779646e-004
3.866576e+003, -4.666895e-004
3.868504e+003, -4.027933e-004
3.870433e+003, -4.536510e-004
3.872361e+003, -1.588166e-004
3.874290e+003, 4.182458e-004
3.876218e+003, 8.428991e-004
3.878146e+003, 5.088896e-004
3.880075e+003, -3.434569e-004
3.882003e+003, -3.341436e-004
3.883932e+003, 6.444752e-005
3.885860e+003, 1.469851e-004
3.887789e+003, -1.784861e-004
3.889717e+003, -1.674294e-004
3.891646e+003, 3.404021e-004
3.893574e+003, -3.354102e-004
3.895503e+003, -4.753470e-004
3.897431e+003, 6.702691e-004
3.899360e+003, 1.202315e-003
3.901288e+003, 3.933758e-004
3.903217e+003, 7.607043e-005
3.905145e+003, 2.065003e-004
3.907073e+003, 3.066510e-004
3.909002e+003, 5.276501e-005
3.910930e+003, 3.587604e-004
3.912859e+003, 2.572685e-004
3.914787e+003, -3.058761e-004
3.916716e+003, 1.194626e-004
3.918644e+003, 6.727129e-004
3.920573e+003, 5.397201e-005
3.922501e+003, -6.282479e-004
3.924430e+003, -4.325211e-004
3.926358e+003, 9.812415e-005
3.928287e+003, 7.388592e-004
3.930215e+003, 8.633584e-004
3.932144e+003, -2.727360e-004
3.934072e+003, -7.327944e-004
3.936000e+003, -9.682477e-004
3.937929e+003, -6.517917e-004
3.939857e+003, 1.057833e-004
3.941786e+003, -4.051328e-004
3.943714e+003, -3.088266e-004
3.945643e+003, 5.180240e-004
3.947571e+003, 1.198545e-003
3.949500e+003, 8.291751e-004
3.951428e+003, -8.913875e-005
3.953357e+003, -8.362830e-004
3.955285e+003, -9.834468e-004
3.957214e+003, -7.804930e-004
3.959142e+003, -6.361008e-004
3.961071e+003, 1.811981e-005
3.962999e+003, -6.672591e-004
3.964927e+003, -1.126021e-003
3.966856e+003, -5.678385e-004
3.968784e+003, -3.612489e-004
3.970713e+003, -8.890033e-005
3.972641e+003, 2.508759e-004
3.974570e+003, 6.830096e-004
3.976498e+003, 4.380643e-004
3.978427e+003, -1.094639e-004
3.980355e+003, 2.102554e-004
3.982284e+003, -2.784729e-004
3.984212e+003, -7.346421e-004
3.986141e+003, -5.713850e-004
3.988069e+003, -3.674775e-004
3.989998e+003, 4.151165e-004
3.991926e+003, 5.705208e-004
3.993854e+003, -1.048595e-004
3.995783e+003, -4.462302e-004
3.997711e+003, -2.014637e-005
3.999640e+003, 5.087256e-005
##END=



