##NAMES=Stibiotantalite
##RRUFFID=R050232
##IDEAL CHEMISTRY=Sb^3+^Ta^5+^O_4_
##LOCALITY=Himalaya mine, Mesa Grande, San Diego County, California, USA
##OWNER=RRUFF
##SOURCE=Marcus Origlieri
##DESCRIPTION=Brown crystal fragment
##STATUS=The identification of this mineral has been confirmed by X-ray diffraction and chemical analysis
##URL=rruff.info/R050232
##MEASURED CHEMISTRY=lighter and darker phases: Sb_1.00_(Ta_0.72_Nb_0.28_)_Î£=1_O_4_
5.014013e+001, 4.478814e-002
5.206860e+001, 5.608826e-002
5.399707e+001, 1.032875e-001
5.592553e+001, 4.122015e-002
5.785400e+001, 2.962718e-002
5.978246e+001, 2.643303e-002
6.171093e+001, 2.958334e-002
6.363940e+001, 3.964342e-002
6.556786e+001, 3.800429e-002
6.749633e+001, 3.835216e-002
6.942480e+001, 3.760464e-002
7.135326e+001, 4.035009e-002
7.328172e+001, 4.093336e-002
7.521019e+001, 4.024591e-002
7.713866e+001, 4.088755e-002
7.906712e+001, 4.487667e-002
8.099559e+001, 4.655120e-002
8.292406e+001, 4.824450e-002
8.485252e+001, 4.666015e-002
8.678099e+001, 4.514799e-002
8.870946e+001, 4.773567e-002
9.063792e+001, 5.034318e-002
9.256638e+001, 4.931679e-002
9.449485e+001, 5.023569e-002
9.642332e+001, 5.020212e-002
9.835178e+001, 5.235212e-002
1.002803e+002, 5.291266e-002
1.022087e+002, 5.387103e-002
1.041372e+002, 5.394911e-002
1.060657e+002, 5.408825e-002
1.079941e+002, 5.558564e-002
1.099226e+002, 5.839493e-002
1.118510e+002, 5.920348e-002
1.137795e+002, 6.056843e-002
1.157080e+002, 6.335167e-002
1.176364e+002, 6.546556e-002
1.195649e+002, 6.477932e-002
1.214934e+002, 6.597428e-002
1.234218e+002, 6.712201e-002
1.253503e+002, 6.764342e-002
1.272788e+002, 6.875224e-002
1.292072e+002, 7.166833e-002
1.311357e+002, 7.385349e-002
1.330642e+002, 7.538777e-002
1.349926e+002, 7.564051e-002
1.369211e+002, 7.613180e-002
1.388496e+002, 7.490833e-002
1.407780e+002, 7.557137e-002
1.427065e+002, 7.657483e-002
1.446350e+002, 7.749449e-002
1.465634e+002, 7.729822e-002
1.484919e+002, 7.895389e-002
1.504204e+002, 7.903759e-002
1.523488e+002, 7.871804e-002
1.542773e+002, 7.956430e-002
1.562058e+002, 8.094809e-002
1.581342e+002, 8.088508e-002
1.600627e+002, 8.160809e-002
1.619912e+002, 8.109941e-002
1.639196e+002, 8.185717e-002
1.658481e+002, 8.358621e-002
1.677766e+002, 8.571344e-002
1.697050e+002, 8.656324e-002
1.716335e+002, 8.670245e-002
1.735620e+002, 8.697449e-002
1.754904e+002, 8.761841e-002
1.774189e+002, 8.732639e-002
1.793474e+002, 8.769101e-002
1.812758e+002, 8.801772e-002
1.832043e+002, 8.928836e-002
1.851328e+002, 9.024752e-002
1.870612e+002, 9.235164e-002
1.889897e+002, 9.441107e-002
1.909182e+002, 9.606761e-002
1.928466e+002, 9.805965e-002
1.947751e+002, 9.927712e-002
1.967036e+002, 9.901869e-002
1.986320e+002, 9.868682e-002
2.005605e+002, 9.796257e-002
2.024890e+002, 9.740377e-002
2.044174e+002, 9.674498e-002
2.063459e+002, 9.693845e-002
2.082744e+002, 9.683793e-002
2.102028e+002, 9.694161e-002
2.121313e+002, 9.730508e-002
2.140598e+002, 9.868180e-002
2.159882e+002, 9.903829e-002
2.179167e+002, 9.963167e-002
2.198452e+002, 9.996386e-002
2.217736e+002, 1.010897e-001
2.237021e+002, 1.027074e-001
2.256305e+002, 1.040530e-001
2.275590e+002, 1.050656e-001
2.294875e+002, 1.060743e-001
2.314159e+002, 1.064844e-001
2.333444e+002, 1.067884e-001
2.352729e+002, 1.065633e-001
2.372013e+002, 1.071108e-001
2.391298e+002, 1.078089e-001
2.410583e+002, 1.088718e-001
2.429867e+002, 1.102142e-001
2.449152e+002, 1.124864e-001
2.468437e+002, 1.138211e-001
2.487721e+002, 1.143221e-001
2.507006e+002, 1.139487e-001
2.526291e+002, 1.127266e-001
2.545575e+002, 1.110560e-001
2.564860e+002, 1.097949e-001
2.584145e+002, 1.079140e-001
2.603429e+002, 1.070270e-001
2.622714e+002, 1.071279e-001
2.641999e+002, 1.078355e-001
2.661283e+002, 1.089011e-001
2.680568e+002, 1.109748e-001
2.699853e+002, 1.136163e-001
2.719137e+002, 1.167075e-001
2.738422e+002, 1.200586e-001
2.757707e+002, 1.233483e-001
2.776991e+002, 1.258103e-001
2.796276e+002, 1.285151e-001
2.815561e+002, 1.307034e-001
2.834845e+002, 1.325710e-001
2.854130e+002, 1.344469e-001
2.873415e+002, 1.362375e-001
2.892699e+002, 1.376087e-001
2.911984e+002, 1.391429e-001
2.931269e+002, 1.398577e-001
2.950553e+002, 1.400069e-001
2.969838e+002, 1.405772e-001
2.989123e+002, 1.414122e-001
3.008407e+002, 1.411010e-001
3.027692e+002, 1.411731e-001
3.046977e+002, 1.414651e-001
3.066261e+002, 1.422617e-001
3.085546e+002, 1.425656e-001
3.104831e+002, 1.428165e-001
3.124115e+002, 1.429587e-001
3.143400e+002, 1.436610e-001
3.162685e+002, 1.439016e-001
3.181969e+002, 1.435068e-001
3.201254e+002, 1.437461e-001
3.220539e+002, 1.448928e-001
3.239823e+002, 1.456955e-001
3.259108e+002, 1.464459e-001
3.278392e+002, 1.472034e-001
3.297677e+002, 1.478326e-001
3.316962e+002, 1.485481e-001
3.336246e+002, 1.492632e-001
3.355531e+002, 1.494477e-001
3.374816e+002, 1.491611e-001
3.394100e+002, 1.486238e-001
3.413385e+002, 1.486163e-001
3.432670e+002, 1.478853e-001
3.451954e+002, 1.474577e-001
3.471239e+002, 1.467142e-001
3.490524e+002, 1.460773e-001
3.509808e+002, 1.444071e-001
3.529093e+002, 1.427834e-001
3.548378e+002, 1.414405e-001
3.567662e+002, 1.403299e-001
3.586947e+002, 1.388863e-001
3.606232e+002, 1.374101e-001
3.625516e+002, 1.356817e-001
3.644801e+002, 1.342978e-001
3.664086e+002, 1.328221e-001
3.683370e+002, 1.309202e-001
3.702655e+002, 1.288241e-001
3.721940e+002, 1.269291e-001
3.741224e+002, 1.244048e-001
3.760509e+002, 1.215799e-001
3.779794e+002, 1.186435e-001
3.799078e+002, 1.164195e-001
3.818363e+002, 1.147216e-001
3.837648e+002, 1.145717e-001
3.856932e+002, 1.160728e-001
3.876217e+002, 1.190731e-001
3.895502e+002, 1.231468e-001
3.914786e+002, 1.283585e-001
3.934071e+002, 1.338452e-001
3.953356e+002, 1.388165e-001
3.972640e+002, 1.429400e-001
3.991925e+002, 1.463939e-001
4.011210e+002, 1.490142e-001
4.030494e+002, 1.510216e-001
4.049779e+002, 1.518779e-001
4.069064e+002, 1.516226e-001
4.088348e+002, 1.509736e-001
4.107633e+002, 1.503592e-001
4.126917e+002, 1.489723e-001
4.146202e+002, 1.479144e-001
4.165487e+002, 1.469887e-001
4.184771e+002, 1.457140e-001
4.204056e+002, 1.436802e-001
4.223341e+002, 1.419695e-001
4.242625e+002, 1.403390e-001
4.261910e+002, 1.386978e-001
4.281195e+002, 1.368987e-001
4.300479e+002, 1.352085e-001
4.319764e+002, 1.337985e-001
4.339049e+002, 1.330947e-001
4.358333e+002, 1.324971e-001
4.377618e+002, 1.323909e-001
4.396903e+002, 1.334590e-001
4.416187e+002, 1.357680e-001
4.435472e+002, 1.384497e-001
4.454757e+002, 1.418921e-001
4.474041e+002, 1.458758e-001
4.493326e+002, 1.498117e-001
4.512611e+002, 1.534609e-001
4.531895e+002, 1.568406e-001
4.551180e+002, 1.594467e-001
4.570465e+002, 1.621474e-001
4.589749e+002, 1.645050e-001
4.609034e+002, 1.663442e-001
4.628319e+002, 1.675985e-001
4.647603e+002, 1.691325e-001
4.666888e+002, 1.702109e-001
4.686173e+002, 1.708867e-001
4.705457e+002, 1.712129e-001
4.724742e+002, 1.708450e-001
4.744027e+002, 1.706200e-001
4.763311e+002, 1.711001e-001
4.782596e+002, 1.709688e-001
4.801881e+002, 1.704928e-001
4.821165e+002, 1.704987e-001
4.840450e+002, 1.705822e-001
4.859735e+002, 1.704338e-001
4.879019e+002, 1.702064e-001
4.898304e+002, 1.706042e-001
4.917589e+002, 1.712633e-001
4.936873e+002, 1.720292e-001
4.956158e+002, 1.731048e-001
4.975443e+002, 1.741095e-001
4.994727e+002, 1.755858e-001
5.014012e+002, 1.772430e-001
5.033297e+002, 1.791840e-001
5.052581e+002, 1.810237e-001
5.071866e+002, 1.832589e-001
5.091151e+002, 1.848471e-001
5.110435e+002, 1.862339e-001
5.129720e+002, 1.884258e-001
5.149005e+002, 1.906532e-001
5.168289e+002, 1.930278e-001
5.187574e+002, 1.956098e-001
5.206859e+002, 1.971639e-001
5.226143e+002, 1.982000e-001
5.245428e+002, 1.997273e-001
5.264713e+002, 2.020940e-001
5.283997e+002, 2.036764e-001
5.303282e+002, 2.043666e-001
5.322567e+002, 2.047471e-001
5.341851e+002, 2.064100e-001
5.361136e+002, 2.082006e-001
5.380421e+002, 2.091292e-001
5.399705e+002, 2.093013e-001
5.418990e+002, 2.094745e-001
5.438275e+002, 2.101450e-001
5.457559e+002, 2.112333e-001
5.476844e+002, 2.119944e-001
5.496129e+002, 2.123775e-001
5.515413e+002, 2.126307e-001
5.534698e+002, 2.128686e-001
5.553983e+002, 2.133423e-001
5.573267e+002, 2.136076e-001
5.592552e+002, 2.135626e-001
5.611837e+002, 2.130789e-001
5.631121e+002, 2.127051e-001
5.650406e+002, 2.131854e-001
5.669691e+002, 2.131641e-001
5.688975e+002, 2.127942e-001
5.708260e+002, 2.126886e-001
5.727545e+002, 2.128406e-001
5.746829e+002, 2.130014e-001
5.766114e+002, 2.122893e-001
5.785399e+002, 2.111484e-001
5.804683e+002, 2.104500e-001
5.823968e+002, 2.100419e-001
5.843253e+002, 2.099040e-001
5.862537e+002, 2.094608e-001
5.881822e+002, 2.087566e-001
5.901107e+002, 2.081812e-001
5.920391e+002, 2.069886e-001
5.939676e+002, 2.055696e-001
5.958961e+002, 2.044203e-001
5.978245e+002, 2.032533e-001
5.997530e+002, 2.022287e-001
6.016815e+002, 2.008723e-001
6.036099e+002, 1.985851e-001
6.055384e+002, 1.955454e-001
6.074669e+002, 1.939062e-001
6.093953e+002, 1.923348e-001
6.113238e+002, 1.911252e-001
6.132523e+002, 1.896996e-001
6.151807e+002, 1.877686e-001
6.171091e+002, 1.856549e-001
6.190376e+002, 1.837852e-001
6.209661e+002, 1.825839e-001
6.228945e+002, 1.822042e-001
6.248230e+002, 1.819755e-001
6.267515e+002, 1.816391e-001
6.286799e+002, 1.823859e-001
6.306084e+002, 1.829723e-001
6.325369e+002, 1.828393e-001
6.344653e+002, 1.818971e-001
6.363938e+002, 1.804615e-001
6.383223e+002, 1.794034e-001
6.402507e+002, 1.779435e-001
6.421792e+002, 1.768572e-001
6.441077e+002, 1.760520e-001
6.460361e+002, 1.747373e-001
6.479646e+002, 1.734084e-001
6.498931e+002, 1.720388e-001
6.518215e+002, 1.710471e-001
6.537500e+002, 1.703956e-001
6.556785e+002, 1.694289e-001
6.576069e+002, 1.685473e-001
6.595354e+002, 1.683221e-001
6.614639e+002, 1.678499e-001
6.633923e+002, 1.676176e-001
6.653208e+002, 1.680474e-001
6.672493e+002, 1.683064e-001
6.691777e+002, 1.693520e-001
6.711062e+002, 1.706105e-001
6.730347e+002, 1.718961e-001
6.749631e+002, 1.737375e-001
6.768916e+002, 1.754261e-001
6.788201e+002, 1.772714e-001
6.807485e+002, 1.790803e-001
6.826770e+002, 1.800463e-001
6.846055e+002, 1.803790e-001
6.865339e+002, 1.805469e-001
6.884624e+002, 1.810875e-001
6.903909e+002, 1.805308e-001
6.923193e+002, 1.795692e-001
6.942478e+002, 1.788829e-001
6.961763e+002, 1.771928e-001
6.981047e+002, 1.733397e-001
7.000332e+002, 1.707621e-001
##END=



