##NAMES=Stilbite-Ca
##RRUFFID=R050012
##IDEAL CHEMISTRY=NaCa_4_(Si_27_Al_9_)O_72_&#183;28H_2_O
##LOCALITY=Harborville, Nova Scotia, Canada
##OWNER=RRUFF
##SOURCE=University of Arizona Mineral Museum
##DESCRIPTION=Globular aggregate of thin tabular white single crystals
##STATUS=The identification of this mineral has been confirmed by X-ray diffraction and chemical analysis
##URL=rruff.info/R050012
##MEASURED CHEMISTRY=(Na_1.50_K_0.03_)_Σ=1.53_Ca_4.15_(Si_26.17_Al_9.83_)O_72_·27.91H_2_O; H_2_O estimated by difference
3.991926e+002, 1.343257e-001
4.011211e+002, 1.371969e-001
4.030496e+002, 1.378564e-001
4.049780e+002, 1.353163e-001
4.069065e+002, 1.359668e-001
4.088350e+002, 1.360783e-001
4.107634e+002, 1.365889e-001
4.126919e+002, 1.393987e-001
4.146204e+002, 1.409647e-001
4.165488e+002, 1.413085e-001
4.184773e+002, 1.417825e-001
4.204058e+002, 1.443861e-001
4.223342e+002, 1.468100e-001
4.242627e+002, 1.466835e-001
4.261912e+002, 1.481072e-001
4.281196e+002, 1.500616e-001
4.300481e+002, 1.504642e-001
4.319766e+002, 1.494966e-001
4.339050e+002, 1.506087e-001
4.358335e+002, 1.499165e-001
4.377620e+002, 1.485299e-001
4.396904e+002, 1.470111e-001
4.416189e+002, 1.451095e-001
4.435474e+002, 1.430404e-001
4.454758e+002, 1.408325e-001
4.474043e+002, 1.382865e-001
4.493328e+002, 1.356482e-001
4.512612e+002, 1.329881e-001
4.531897e+002, 1.311124e-001
4.551182e+002, 1.289174e-001
4.570466e+002, 1.260431e-001
4.589751e+002, 1.246745e-001
4.609036e+002, 1.237777e-001
4.628320e+002, 1.226703e-001
4.647605e+002, 1.212387e-001
4.666890e+002, 1.193454e-001
4.686174e+002, 1.176932e-001
4.705459e+002, 1.155887e-001
4.724744e+002, 1.135528e-001
4.744028e+002, 1.115613e-001
4.763313e+002, 1.106222e-001
4.782598e+002, 1.097079e-001
4.801882e+002, 1.076294e-001
4.821167e+002, 1.053906e-001
4.840452e+002, 1.056761e-001
4.859736e+002, 1.061345e-001
4.879021e+002, 1.061959e-001
4.898306e+002, 1.062405e-001
4.917590e+002, 1.065003e-001
4.936875e+002, 1.068822e-001
4.956160e+002, 1.066547e-001
4.975444e+002, 1.068831e-001
4.994729e+002, 1.075380e-001
5.014014e+002, 1.074150e-001
5.033298e+002, 1.070171e-001
5.052583e+002, 1.072983e-001
5.071868e+002, 1.080741e-001
5.091152e+002, 1.084290e-001
5.110437e+002, 1.082455e-001
5.129722e+002, 1.080113e-001
5.149006e+002, 1.085666e-001
5.168291e+002, 1.089941e-001
5.187576e+002, 1.094628e-001
5.206860e+002, 1.106653e-001
5.226145e+002, 1.121015e-001
5.245430e+002, 1.138027e-001
5.264714e+002, 1.152423e-001
5.283999e+002, 1.167941e-001
5.303284e+002, 1.181937e-001
5.322568e+002, 1.189163e-001
5.341853e+002, 1.199976e-001
5.361138e+002, 1.208477e-001
5.380422e+002, 1.216209e-001
5.399707e+002, 1.224671e-001
5.418992e+002, 1.229382e-001
5.438276e+002, 1.231562e-001
5.457561e+002, 1.234098e-001
5.476846e+002, 1.227803e-001
5.496130e+002, 1.220650e-001
5.515415e+002, 1.212955e-001
5.534700e+002, 1.196130e-001
5.553984e+002, 1.182905e-001
5.573269e+002, 1.173765e-001
5.592554e+002, 1.164948e-001
5.611838e+002, 1.148150e-001
5.631123e+002, 1.125661e-001
5.650408e+002, 1.107096e-001
5.669692e+002, 1.088745e-001
5.688977e+002, 1.062821e-001
5.708262e+002, 1.036125e-001
5.727546e+002, 1.014418e-001
5.746831e+002, 9.942599e-002
5.766116e+002, 9.715395e-002
5.785400e+002, 9.494261e-002
5.804685e+002, 9.252887e-002
5.823970e+002, 9.012835e-002
5.843254e+002, 8.715252e-002
5.862539e+002, 8.407266e-002
5.881824e+002, 8.194821e-002
5.901108e+002, 7.975028e-002
5.920393e+002, 7.679334e-002
5.939678e+002, 7.376353e-002
5.958962e+002, 7.098827e-002
5.978247e+002, 6.832804e-002
5.997532e+002, 6.573942e-002
6.016816e+002, 6.283628e-002
6.036101e+002, 5.998833e-002
6.055386e+002, 5.731512e-002
6.074670e+002, 5.486240e-002
6.093955e+002, 5.260538e-002
6.113240e+002, 5.033955e-002
6.132524e+002, 4.775632e-002
6.151809e+002, 4.597136e-002
6.171094e+002, 4.445128e-002
6.190378e+002, 4.309595e-002
6.209663e+002, 4.197758e-002
6.228948e+002, 4.080570e-002
6.248232e+002, 3.987634e-002
6.267517e+002, 3.942940e-002
6.286802e+002, 3.929262e-002
6.306086e+002, 3.902897e-002
6.325371e+002, 3.861583e-002
6.344656e+002, 3.810772e-002
6.363940e+002, 3.796778e-002
6.383225e+002, 3.823433e-002
6.402510e+002, 3.807753e-002
6.421794e+002, 3.797299e-002
6.441079e+002, 3.834403e-002
6.460364e+002, 3.859604e-002
6.479648e+002, 3.895585e-002
6.498933e+002, 3.935573e-002
6.518218e+002, 3.968298e-002
6.537502e+002, 4.007011e-002
6.556787e+002, 4.025102e-002
6.576072e+002, 4.029518e-002
6.595356e+002, 4.073976e-002
6.614641e+002, 4.112555e-002
6.633926e+002, 4.145765e-002
6.653210e+002, 4.180505e-002
6.672495e+002, 4.258337e-002
6.691780e+002, 4.280935e-002
6.711064e+002, 4.268365e-002
6.730349e+002, 4.275799e-002
6.749634e+002, 4.362359e-002
6.768918e+002, 4.511627e-002
6.788203e+002, 4.564103e-002
6.807488e+002, 4.519231e-002
6.826772e+002, 4.426870e-002
6.846057e+002, 4.365978e-002
6.865342e+002, 4.362160e-002
6.884626e+002, 4.387092e-002
6.903911e+002, 4.407390e-002
6.923196e+002, 4.440219e-002
6.942480e+002, 4.464729e-002
6.961765e+002, 4.487877e-002
6.981050e+002, 4.518995e-002
7.000334e+002, 4.527956e-002
7.019619e+002, 4.525245e-002
7.038904e+002, 4.534851e-002
7.058188e+002, 4.546526e-002
7.077473e+002, 4.555037e-002
7.096758e+002, 4.525593e-002
7.116042e+002, 4.489077e-002
7.135327e+002, 4.498056e-002
7.154612e+002, 4.514659e-002
7.173896e+002, 4.471697e-002
7.193181e+002, 4.421251e-002
7.212466e+002, 4.407109e-002
7.231750e+002, 4.378577e-002
7.251035e+002, 4.314727e-002
7.270320e+002, 4.275644e-002
7.289604e+002, 4.266886e-002
7.308889e+002, 4.253726e-002
7.328174e+002, 4.221945e-002
7.347458e+002, 4.152745e-002
7.366743e+002, 4.094930e-002
7.386028e+002, 4.081317e-002
7.405313e+002, 4.023520e-002
7.424597e+002, 3.960007e-002
7.443882e+002, 3.925309e-002
7.463167e+002, 3.870966e-002
7.482451e+002, 3.795528e-002
7.501736e+002, 3.696251e-002
7.521021e+002, 3.643437e-002
7.540305e+002, 3.619489e-002
7.559590e+002, 3.587981e-002
7.578875e+002, 3.578113e-002
7.598159e+002, 3.568441e-002
7.617444e+002, 3.551226e-002
7.636729e+002, 3.558937e-002
7.656013e+002, 3.595072e-002
7.675298e+002, 3.603284e-002
7.694583e+002, 3.614362e-002
7.713867e+002, 3.639736e-002
7.733152e+002, 3.666810e-002
7.752437e+002, 3.681033e-002
7.771721e+002, 3.687942e-002
7.791006e+002, 3.681158e-002
7.810291e+002, 3.671290e-002
7.829575e+002, 3.638251e-002
7.848860e+002, 3.583892e-002
7.868145e+002, 3.530951e-002
7.887429e+002, 3.475942e-002
7.906714e+002, 3.431552e-002
7.925999e+002, 3.396618e-002
7.945283e+002, 3.344293e-002
7.964568e+002, 3.258946e-002
7.983853e+002, 3.164543e-002
8.003137e+002, 3.079097e-002
8.022422e+002, 2.965666e-002
8.041707e+002, 2.826870e-002
8.060991e+002, 2.705154e-002
8.080276e+002, 2.582368e-002
8.099561e+002, 2.459696e-002
8.118845e+002, 2.349506e-002
8.138130e+002, 2.268011e-002
8.157415e+002, 2.176451e-002
8.176699e+002, 2.088555e-002
8.195984e+002, 2.039128e-002
8.215269e+002, 2.002920e-002
8.234553e+002, 1.968528e-002
8.253838e+002, 1.950274e-002
8.273123e+002, 1.935799e-002
8.292407e+002, 1.927370e-002
8.311692e+002, 1.938582e-002
8.330977e+002, 1.960402e-002
8.350261e+002, 2.037415e-002
8.369546e+002, 2.166094e-002
8.388831e+002, 2.307174e-002
8.408115e+002, 2.347429e-002
8.427400e+002, 2.251607e-002
8.446685e+002, 2.154694e-002
8.465969e+002, 2.148544e-002
8.485254e+002, 2.153828e-002
8.504539e+002, 2.161765e-002
8.523823e+002, 2.217963e-002
8.543108e+002, 2.275980e-002
8.562393e+002, 2.314950e-002
8.581677e+002, 2.364640e-002
8.600962e+002, 2.430524e-002
8.620247e+002, 2.496830e-002
8.639531e+002, 2.561996e-002
8.658816e+002, 2.620208e-002
8.678101e+002, 2.674805e-002
8.697385e+002, 2.733398e-002
8.716670e+002, 2.799307e-002
8.735955e+002, 2.877876e-002
8.755239e+002, 2.984891e-002
8.774524e+002, 3.078956e-002
8.793809e+002, 3.143061e-002
8.813093e+002, 3.209655e-002
8.832378e+002, 3.321440e-002
8.851663e+002, 3.455995e-002
8.870947e+002, 3.564081e-002
8.890232e+002, 3.650065e-002
8.909517e+002, 3.775905e-002
8.928801e+002, 3.894481e-002
8.948085e+002, 4.005212e-002
8.967370e+002, 4.145549e-002
8.986655e+002, 4.329727e-002
9.005939e+002, 4.494774e-002
9.025224e+002, 4.652720e-002
9.044509e+002, 4.820609e-002
9.063793e+002, 5.013071e-002
9.083078e+002, 5.225839e-002
9.102363e+002, 5.448472e-002
9.121647e+002, 5.689399e-002
9.140932e+002, 5.924922e-002
9.160217e+002, 6.208919e-002
9.179501e+002, 6.509319e-002
9.198786e+002, 6.786292e-002
9.218071e+002, 7.085994e-002
9.237355e+002, 7.451978e-002
9.256640e+002, 7.861660e-002
9.275925e+002, 8.273392e-002
9.295209e+002, 8.696290e-002
9.314494e+002, 9.128306e-002
9.333779e+002, 9.594931e-002
9.353063e+002, 1.011087e-001
9.372348e+002, 1.063199e-001
9.391633e+002, 1.121339e-001
9.410917e+002, 1.185450e-001
9.430202e+002, 1.248196e-001
9.449487e+002, 1.315448e-001
9.468771e+002, 1.387461e-001
9.488056e+002, 1.459409e-001
9.507341e+002, 1.535664e-001
9.526625e+002, 1.613263e-001
9.545910e+002, 1.695119e-001
9.565195e+002, 1.777644e-001
9.584479e+002, 1.856692e-001
9.603764e+002, 1.935770e-001
9.623049e+002, 2.012853e-001
9.642333e+002, 2.087905e-001
9.661618e+002, 2.158560e-001
9.680903e+002, 2.221748e-001
9.700187e+002, 2.278974e-001
9.719472e+002, 2.332468e-001
9.738757e+002, 2.381065e-001
9.758041e+002, 2.423092e-001
9.777326e+002, 2.458831e-001
9.796611e+002, 2.489228e-001
9.815895e+002, 2.514676e-001
9.835180e+002, 2.535146e-001
9.854465e+002, 2.555178e-001
9.873749e+002, 2.575567e-001
9.893034e+002, 2.587917e-001
9.912319e+002, 2.592651e-001
9.931603e+002, 2.597800e-001
9.950888e+002, 2.601477e-001
9.970173e+002, 2.604537e-001
9.989457e+002, 2.605769e-001
1.000874e+003, 2.603123e-001
1.002803e+003, 2.598952e-001
1.004731e+003, 2.591913e-001
1.006660e+003, 2.583435e-001
1.008588e+003, 2.573175e-001
1.010517e+003, 2.558246e-001
1.012445e+003, 2.541454e-001
1.014373e+003, 2.522992e-001
1.016302e+003, 2.503683e-001
1.018230e+003, 2.478783e-001
1.020159e+003, 2.450757e-001
1.022087e+003, 2.424495e-001
1.024016e+003, 2.394705e-001
1.025944e+003, 2.359453e-001
1.027873e+003, 2.323951e-001
1.029801e+003, 2.285946e-001
1.031730e+003, 2.248925e-001
1.033658e+003, 2.211617e-001
1.035587e+003, 2.170121e-001
1.037515e+003, 2.124942e-001
1.039444e+003, 2.082400e-001
1.041372e+003, 2.040251e-001
1.043301e+003, 1.993831e-001
1.045229e+003, 1.947391e-001
1.047157e+003, 1.903935e-001
1.049086e+003, 1.859704e-001
1.051014e+003, 1.812500e-001
1.052943e+003, 1.764938e-001
1.054871e+003, 1.716499e-001
1.056800e+003, 1.665318e-001
1.058728e+003, 1.615092e-001
1.060657e+003, 1.563738e-001
1.062585e+003, 1.511052e-001
1.064514e+003, 1.458457e-001
1.066442e+003, 1.404638e-001
1.068371e+003, 1.354601e-001
1.070299e+003, 1.303575e-001
1.072228e+003, 1.252991e-001
1.074156e+003, 1.209253e-001
1.076084e+003, 1.169658e-001
1.078013e+003, 1.132325e-001
1.079941e+003, 1.096501e-001
1.081870e+003, 1.063790e-001
1.083798e+003, 1.035821e-001
1.085727e+003, 1.011536e-001
1.087655e+003, 9.871456e-002
1.089584e+003, 9.642769e-002
1.091512e+003, 9.453255e-002
1.093441e+003, 9.286901e-002
1.095369e+003, 9.132659e-002
1.097298e+003, 9.016711e-002
1.099226e+003, 8.912823e-002
1.101155e+003, 8.831856e-002
1.103083e+003, 8.804587e-002
1.105011e+003, 8.784385e-002
1.106940e+003, 8.761108e-002
1.108868e+003, 8.764627e-002
1.110797e+003, 8.784258e-002
1.112725e+003, 8.806144e-002
1.114654e+003, 8.844321e-002
1.116582e+003, 8.908822e-002
1.118511e+003, 8.996884e-002
1.120439e+003, 9.071497e-002
1.122368e+003, 9.141025e-002
1.124296e+003, 9.230591e-002
1.126225e+003, 9.279641e-002
1.128153e+003, 9.304135e-002
1.130082e+003, 9.320826e-002
1.132010e+003, 9.312593e-002
1.133938e+003, 9.287558e-002
1.135867e+003, 9.254517e-002
1.137795e+003, 9.197789e-002
1.139724e+003, 9.114763e-002
1.141652e+003, 9.017649e-002
1.143581e+003, 8.896995e-002
1.145509e+003, 8.742023e-002
1.147438e+003, 8.591200e-002
1.149366e+003, 8.449458e-002
1.151295e+003, 8.275192e-002
1.153223e+003, 8.099780e-002
1.155152e+003, 7.921355e-002
1.157080e+003, 7.732590e-002
1.159009e+003, 7.555964e-002
1.160937e+003, 7.376388e-002
1.162865e+003, 7.216661e-002
1.164794e+003, 7.077307e-002
1.166722e+003, 6.932317e-002
1.168651e+003, 6.755664e-002
1.170579e+003, 6.565329e-002
1.172508e+003, 6.408960e-002
1.174436e+003, 6.275108e-002
1.176365e+003, 6.134930e-002
1.178293e+003, 5.967324e-002
1.180222e+003, 5.793991e-002
1.182150e+003, 5.611154e-002
1.184079e+003, 5.408566e-002
1.186007e+003, 5.203572e-002
1.187936e+003, 4.989576e-002
1.189864e+003, 4.773824e-002
1.191792e+003, 4.536613e-002
1.193721e+003, 4.274314e-002
1.195649e+003, 4.000871e-002
1.197578e+003, 3.724239e-002
1.199506e+003, 3.445729e-002
1.201435e+003, 3.187315e-002
1.203363e+003, 2.955124e-002
1.205292e+003, 2.725160e-002
1.207220e+003, 2.504274e-002
1.209149e+003, 2.290459e-002
1.211077e+003, 2.103052e-002
1.213006e+003, 1.942864e-002
1.214934e+003, 1.804339e-002
1.216863e+003, 1.687592e-002
1.218791e+003, 1.579073e-002
1.220719e+003, 1.465502e-002
1.222648e+003, 1.358458e-002
1.224576e+003, 1.276359e-002
1.226505e+003, 1.204364e-002
1.228433e+003, 1.135566e-002
1.230362e+003, 1.065205e-002
1.232290e+003, 1.010783e-002
1.234219e+003, 9.786135e-003
1.236147e+003, 9.435865e-003
1.238076e+003, 8.942761e-003
1.240004e+003, 8.359734e-003
1.241933e+003, 7.960324e-003
1.243861e+003, 7.599019e-003
1.245790e+003, 7.219019e-003
1.247718e+003, 7.168353e-003
1.249646e+003, 7.278522e-003
1.251575e+003, 7.015629e-003
1.253503e+003, 6.577504e-003
1.255432e+003, 6.404498e-003
1.257360e+003, 6.147925e-003
1.259289e+003, 5.706759e-003
1.261217e+003, 5.558583e-003
1.263146e+003, 5.599597e-003
1.265074e+003, 5.297685e-003
1.267003e+003, 4.889757e-003
1.268931e+003, 4.842527e-003
1.270860e+003, 4.971139e-003
1.272788e+003, 4.993698e-003
1.274717e+003, 4.819190e-003
1.276645e+003, 4.803936e-003
1.278573e+003, 4.867509e-003
1.280502e+003, 4.892988e-003
1.282430e+003, 4.887831e-003
1.284359e+003, 4.721050e-003
1.286287e+003, 4.590311e-003
1.288216e+003, 4.439663e-003
1.290144e+003, 4.290699e-003
1.292073e+003, 4.376914e-003
1.294001e+003, 4.437227e-003
1.295930e+003, 4.393348e-003
1.297858e+003, 4.357550e-003
1.299787e+003, 4.557251e-003
1.301715e+003, 4.652248e-003
1.303644e+003, 4.547527e-003
1.305572e+003, 4.598202e-003
1.307500e+003, 4.697260e-003
1.309429e+003, 4.558952e-003
1.311357e+003, 4.410427e-003
1.313286e+003, 4.554864e-003
1.315214e+003, 4.785443e-003
1.317143e+003, 4.730057e-003
1.319071e+003, 4.568644e-003
1.321000e+003, 4.522895e-003
1.322928e+003, 4.668777e-003
1.324857e+003, 4.946308e-003
1.326785e+003, 4.946584e-003
1.328714e+003, 4.636466e-003
1.330642e+003, 4.516521e-003
1.332571e+003, 4.696283e-003
1.334499e+003, 4.902815e-003
1.336427e+003, 4.981863e-003
1.338356e+003, 4.919523e-003
1.340284e+003, 4.763622e-003
1.342213e+003, 4.751308e-003
1.344141e+003, 4.804180e-003
1.346070e+003, 4.919937e-003
1.347998e+003, 5.047882e-003
1.349927e+003, 5.099674e-003
1.351855e+003, 5.107908e-003
1.353784e+003, 5.383316e-003
1.355712e+003, 5.720103e-003
1.357641e+003, 5.963814e-003
1.359569e+003, 6.132604e-003
1.361498e+003, 6.121312e-003
1.363426e+003, 6.375744e-003
1.365354e+003, 6.595922e-003
1.367283e+003, 6.625081e-003
1.369211e+003, 7.023262e-003
1.371140e+003, 7.508957e-003
1.373068e+003, 7.566060e-003
1.374997e+003, 7.701790e-003
1.376925e+003, 8.215279e-003
1.378854e+003, 8.715356e-003
1.380782e+003, 9.078927e-003
1.382711e+003, 9.443901e-003
1.384639e+003, 1.000734e-002
1.386568e+003, 1.056049e-002
1.388496e+003, 1.111699e-002
1.390424e+003, 1.172349e-002
1.392353e+003, 1.231978e-002
1.394281e+003, 1.273181e-002
1.396210e+003, 1.312967e-002
1.398138e+003, 1.348689e-002
1.400067e+003, 1.369175e-002
1.401995e+003, 1.376482e-002
1.403924e+003, 1.395051e-002
1.405852e+003, 1.428614e-002
1.407781e+003, 1.438168e-002
1.409709e+003, 1.401901e-002
1.411638e+003, 1.367081e-002
1.413566e+003, 1.347932e-002
1.415495e+003, 1.332013e-002
1.417423e+003, 1.339632e-002
1.419351e+003, 1.354298e-002
1.421280e+003, 1.335128e-002
1.423208e+003, 1.336485e-002
1.425137e+003, 1.356329e-002
1.427065e+003, 1.358803e-002
1.428994e+003, 1.377192e-002
1.430922e+003, 1.411104e-002
1.432851e+003, 1.424048e-002
1.434779e+003, 1.433903e-002
1.436708e+003, 1.451766e-002
1.438636e+003, 1.462540e-002
1.440565e+003, 1.464784e-002
1.442493e+003, 1.438093e-002
1.444422e+003, 1.413409e-002
1.446350e+003, 1.400129e-002
1.448278e+003, 1.385379e-002
1.450207e+003, 1.378103e-002
1.452135e+003, 1.357822e-002
1.454064e+003, 1.310651e-002
1.455992e+003, 1.268429e-002
1.457921e+003, 1.261002e-002
1.459849e+003, 1.232378e-002
1.461778e+003, 1.171788e-002
1.463706e+003, 1.131893e-002
1.465635e+003, 1.106597e-002
1.467563e+003, 1.083964e-002
1.469492e+003, 1.045591e-002
1.471420e+003, 9.906595e-003
1.473349e+003, 9.603018e-003
1.475277e+003, 9.393418e-003
1.477205e+003, 8.914989e-003
1.479134e+003, 8.506428e-003
1.481062e+003, 8.346723e-003
1.482991e+003, 8.024308e-003
1.484919e+003, 7.564582e-003
1.486848e+003, 7.219512e-003
1.488776e+003, 6.769098e-003
1.490705e+003, 6.626450e-003
1.492633e+003, 6.603188e-003
1.494562e+003, 6.167690e-003
1.496490e+003, 5.893825e-003
1.498419e+003, 5.910834e-003
1.500347e+003, 5.888719e-003
1.502276e+003, 5.760094e-003
1.504204e+003, 5.305006e-003
1.506132e+003, 5.120466e-003
1.508061e+003, 5.227487e-003
1.509989e+003, 5.038979e-003
1.511918e+003, 4.868184e-003
1.513846e+003, 4.990800e-003
1.515775e+003, 4.965575e-003
1.517703e+003, 4.590627e-003
1.519632e+003, 4.476133e-003
1.521560e+003, 4.657841e-003
1.523489e+003, 4.902417e-003
1.525417e+003, 4.924499e-003
1.527346e+003, 4.920224e-003
1.529274e+003, 4.851055e-003
1.531203e+003, 4.797422e-003
1.533131e+003, 4.956456e-003
1.535059e+003, 5.143122e-003
1.536988e+003, 5.156666e-003
1.538916e+003, 4.925879e-003
1.540845e+003, 4.936369e-003
1.542773e+003, 5.182453e-003
1.544702e+003, 5.262490e-003
1.546630e+003, 5.401639e-003
1.548559e+003, 5.533306e-003
1.550487e+003, 5.558477e-003
1.552416e+003, 5.701743e-003
1.554344e+003, 6.069737e-003
1.556273e+003, 6.351457e-003
1.558201e+003, 6.422022e-003
1.560130e+003, 6.728964e-003
1.562058e+003, 7.083392e-003
1.563986e+003, 7.249332e-003
1.565915e+003, 7.530645e-003
1.567843e+003, 7.514276e-003
1.569772e+003, 7.311966e-003
1.571700e+003, 7.488199e-003
1.573629e+003, 7.542657e-003
1.575557e+003, 7.693635e-003
1.577486e+003, 8.157467e-003
1.579414e+003, 8.430959e-003
1.581343e+003, 8.507277e-003
1.583271e+003, 8.812893e-003
1.585200e+003, 9.148329e-003
1.587128e+003, 9.441633e-003
1.589057e+003, 9.754183e-003
1.590985e+003, 9.890128e-003
1.592913e+003, 1.022374e-002
1.594842e+003, 1.049563e-002
1.596770e+003, 1.073625e-002
1.598699e+003, 1.113033e-002
1.600627e+003, 1.137010e-002
1.602556e+003, 1.186387e-002
1.604484e+003, 1.288335e-002
1.606413e+003, 1.389846e-002
1.608341e+003, 1.480897e-002
1.610270e+003, 1.591933e-002
1.612198e+003, 1.735524e-002
1.614127e+003, 1.895521e-002
1.616055e+003, 2.091439e-002
1.617984e+003, 2.276198e-002
1.619912e+003, 2.455299e-002
1.621840e+003, 2.679674e-002
1.623769e+003, 2.944907e-002
1.625697e+003, 3.199876e-002
1.627626e+003, 3.439859e-002
1.629554e+003, 3.598473e-002
1.631483e+003, 3.735990e-002
1.633411e+003, 3.841040e-002
1.635340e+003, 3.876858e-002
1.637268e+003, 3.889868e-002
1.639197e+003, 3.868594e-002
1.641125e+003, 3.758061e-002
1.643054e+003, 3.641778e-002
1.644982e+003, 3.529064e-002
1.646911e+003, 3.383001e-002
1.648839e+003, 3.230337e-002
1.650767e+003, 3.066479e-002
1.652696e+003, 2.898492e-002
1.654624e+003, 2.774900e-002
1.656553e+003, 2.669779e-002
1.658481e+003, 2.518515e-002
1.660410e+003, 2.378857e-002
1.662338e+003, 2.280520e-002
1.664267e+003, 2.182802e-002
1.666195e+003, 2.065118e-002
1.668124e+003, 1.942065e-002
1.670052e+003, 1.843128e-002
1.671981e+003, 1.736769e-002
1.673909e+003, 1.610680e-002
1.675838e+003, 1.507531e-002
1.677766e+003, 1.433451e-002
1.679694e+003, 1.367244e-002
1.681623e+003, 1.307300e-002
1.683551e+003, 1.238584e-002
1.685480e+003, 1.179538e-002
1.687408e+003, 1.131213e-002
1.689337e+003, 1.098673e-002
1.691265e+003, 1.053733e-002
1.693194e+003, 1.003114e-002
1.695122e+003, 9.395813e-003
1.697051e+003, 8.700143e-003
1.698979e+003, 8.283870e-003
1.700908e+003, 7.948076e-003
1.702836e+003, 7.535722e-003
1.704765e+003, 7.188568e-003
1.706693e+003, 7.071869e-003
1.708621e+003, 7.106692e-003
1.710550e+003, 6.868576e-003
1.712478e+003, 6.016619e-003
1.714407e+003, 5.491559e-003
1.716335e+003, 5.249086e-003
1.718264e+003, 4.793745e-003
1.720192e+003, 4.669134e-003
1.722121e+003, 4.952737e-003
1.724049e+003, 5.049135e-003
1.725978e+003, 4.977360e-003
1.727906e+003, 4.538436e-003
1.729835e+003, 4.224782e-003
1.731763e+003, 4.027783e-003
1.733692e+003, 3.810813e-003
1.735620e+003, 3.466753e-003
1.737548e+003, 3.289381e-003
1.739477e+003, 2.994467e-003
1.741405e+003, 2.645356e-003
1.743334e+003, 2.576083e-003
1.745262e+003, 2.696404e-003
1.747191e+003, 2.906225e-003
1.749119e+003, 2.980982e-003
1.751048e+003, 2.829898e-003
1.752976e+003, 2.688854e-003
1.754905e+003, 2.852777e-003
1.756833e+003, 3.139356e-003
1.758762e+003, 3.270398e-003
1.760690e+003, 3.052998e-003
1.762619e+003, 2.746653e-003
1.764547e+003, 3.018794e-003
1.766475e+003, 3.415668e-003
1.768404e+003, 3.087730e-003
1.770332e+003, 2.797545e-003
1.772261e+003, 2.557471e-003
1.774189e+003, 2.748932e-003
1.776118e+003, 2.888127e-003
1.778046e+003, 3.018009e-003
1.779975e+003, 3.133327e-003
1.781903e+003, 3.164516e-003
1.783832e+003, 3.282143e-003
1.785760e+003, 3.202461e-003
1.787689e+003, 2.973564e-003
1.789617e+003, 2.896957e-003
1.791546e+003, 3.000550e-003
1.793474e+003, 2.679978e-003
1.795402e+003, 2.409043e-003
1.797331e+003, 2.522728e-003
1.799259e+003, 2.683277e-003
1.801188e+003, 2.908339e-003
1.803116e+003, 2.756043e-003
1.805045e+003, 2.544966e-003
1.806973e+003, 2.667297e-003
1.808902e+003, 2.430133e-003
1.810830e+003, 2.055947e-003
1.812759e+003, 2.090841e-003
1.814687e+003, 1.820439e-003
1.816616e+003, 1.949507e-003
1.818544e+003, 2.773432e-003
1.820473e+003, 2.825439e-003
1.822401e+003, 2.344105e-003
1.824329e+003, 2.339168e-003
1.826258e+003, 2.443781e-003
1.828186e+003, 2.285739e-003
1.830115e+003, 1.934949e-003
1.832043e+003, 1.981881e-003
1.833972e+003, 1.924952e-003
1.835900e+003, 1.977719e-003
1.837829e+003, 2.006497e-003
1.839757e+003, 2.134849e-003
1.841686e+003, 2.640922e-003
1.843614e+003, 2.407706e-003
1.845543e+003, 1.918186e-003
1.847471e+003, 2.007907e-003
1.849400e+003, 2.123943e-003
1.851328e+003, 2.049142e-003
1.853256e+003, 2.038434e-003
1.855185e+003, 2.258072e-003
1.857113e+003, 2.142342e-003
1.859042e+003, 1.669277e-003
1.860970e+003, 1.353448e-003
1.862899e+003, 1.587069e-003
1.864827e+003, 1.748075e-003
1.866756e+003, 1.639052e-003
1.868684e+003, 1.200952e-003
1.870613e+003, 1.194117e-003
1.872541e+003, 1.538424e-003
1.874470e+003, 1.638444e-003
1.876398e+003, 1.335205e-003
1.878327e+003, 1.379333e-003
1.880255e+003, 1.251772e-003
1.882183e+003, 6.703624e-004
1.884112e+003, 2.157387e-004
1.886040e+003, 5.147019e-004
1.887969e+003, 1.029644e-003
1.889897e+003, 1.061978e-003
1.891826e+003, 2.002644e-004
1.893754e+003, -1.069508e-006
1.895683e+003, 2.262444e-004
1.897611e+003, 1.166078e-004
1.899540e+003, 1.010912e-004
1.901468e+003, 2.945111e-004
1.903397e+003, 7.098127e-004
1.905325e+003, 6.797466e-004
1.907254e+003, 9.126064e-004
1.909182e+003, 8.923995e-004
1.911110e+003, 3.812230e-004
1.913039e+003, -6.206184e-005
1.914967e+003, -1.474006e-004
1.916896e+003, 1.180449e-004
1.918824e+003, -6.409726e-004
1.920753e+003, -1.132897e-003
1.922681e+003, -5.971790e-004
1.924610e+003, -2.662641e-004
1.926538e+003, -1.033247e-003
1.928467e+003, -2.163041e-003
1.930395e+003, -2.087476e-003
1.932324e+003, -1.747210e-003
1.934252e+003, -1.278960e-003
1.936181e+003, -5.549085e-004
1.938109e+003, -1.219952e-003
1.940037e+003, -1.983661e-003
1.941966e+003, -2.467028e-003
1.943894e+003, -2.389578e-003
1.945823e+003, -2.378776e-003
1.947751e+003, -2.879583e-003
1.949680e+003, -3.295324e-003
1.951608e+003, -3.259731e-003
1.953537e+003, -2.822095e-003
1.955465e+003, -3.307175e-003
1.957394e+003, -4.681812e-003
1.959322e+003, -5.106685e-003
1.961251e+003, -4.545331e-003
1.963179e+003, -4.492437e-003
1.965108e+003, -3.586439e-003
1.967036e+003, -3.251982e-003
1.968964e+003, -5.314582e-003
1.970893e+003, -6.676035e-003
1.972821e+003, -5.993127e-003
1.974750e+003, -5.560321e-003
1.976678e+003, -5.719586e-003
1.978607e+003, -2.505767e-003
1.980535e+003, -3.529165e-004
1.982464e+003, -1.189044e-003
1.984392e+003, -3.335104e-003
1.986321e+003, -4.274388e-003
1.988249e+003, -3.852928e-003
1.990178e+003, -4.433570e-003
1.992106e+003, -5.378939e-003
1.994035e+003, -5.858837e-003
1.995963e+003, -5.251601e-003
1.997891e+003, -4.713071e-003
1.999820e+003, -4.408536e-003
2.001748e+003, -5.528482e-003
2.003677e+003, -4.961513e-003
2.005605e+003, -3.702043e-003
2.007534e+003, -3.265977e-003
2.009462e+003, -4.776916e-003
2.011391e+003, -5.648251e-003
2.013319e+003, -5.224017e-003
2.015248e+003, -5.897658e-003
2.017176e+003, -5.263307e-003
2.019105e+003, -4.614594e-003
2.021033e+003, -5.417123e-003
2.022962e+003, -5.825776e-003
2.024890e+003, -5.832253e-003
2.026818e+003, -5.121713e-003
2.028747e+003, -4.660704e-003
2.030675e+003, -5.690483e-003
2.032604e+003, -4.263925e-003
2.034532e+003, -2.468170e-003
2.036461e+003, -2.578281e-003
2.038389e+003, -2.484724e-003
2.040318e+003, -2.252721e-003
2.042246e+003, -1.045320e-003
2.044175e+003, 2.922009e-004
2.046103e+003, -2.148155e-005
2.048032e+003, -7.711619e-004
2.049960e+003, -5.829920e-004
2.051889e+003, -3.712499e-004
2.053817e+003, -6.646697e-004
2.055746e+003, -8.450054e-004
2.057674e+003, -4.434516e-004
2.059603e+003, -2.493903e-004
2.061531e+003, -1.110313e-003
2.063459e+003, -1.670532e-003
2.065388e+003, -1.392754e-003
2.067316e+003, -8.760279e-004
2.069245e+003, -9.245072e-004
2.071173e+003, -5.872641e-004
2.073102e+003, 9.693442e-004
2.075030e+003, 1.812001e-003
2.076959e+003, 7.992125e-004
2.078887e+003, 7.099736e-004
2.080816e+003, 9.065298e-004
2.082744e+003, 9.114263e-004
2.084673e+003, 9.182089e-004
2.086601e+003, 5.190300e-004
2.088530e+003, 3.187112e-004
2.090458e+003, 1.559114e-004
2.092386e+003, -1.153694e-003
2.094315e+003, -1.845410e-003
2.096243e+003, -1.600093e-004
2.098172e+003, 1.079821e-003
2.100100e+003, 9.428740e-004
2.102029e+003, 7.318726e-004
2.103957e+003, 7.829023e-004
2.105886e+003, 6.591110e-004
2.107814e+003, -2.425913e-004
2.109743e+003, 3.088305e-004
2.111671e+003, 7.126015e-004
2.113600e+003, 9.889698e-004
2.115528e+003, 1.517089e-003
2.117457e+003, 3.129735e-004
2.119385e+003, -5.296465e-004
2.121313e+003, 1.499341e-004
2.123242e+003, -2.695936e-004
2.125170e+003, -7.974876e-004
2.127099e+003, -3.169968e-004
2.129027e+003, -4.709946e-004
2.130956e+003, -2.160775e-003
2.132884e+003, -2.356908e-003
2.134813e+003, -1.563271e-003
2.136741e+003, -1.691563e-003
2.138670e+003, -7.369623e-004
2.140598e+003, 1.561594e-004
2.142527e+003, -1.403861e-004
2.144455e+003, -2.265863e-003
2.146384e+003, -3.603547e-003
2.148312e+003, -1.300928e-003
2.150240e+003, -1.676698e-003
2.152169e+003, -4.269446e-003
2.154097e+003, -3.950808e-003
2.156026e+003, -3.776324e-003
2.157954e+003, -1.964573e-003
2.159883e+003, 2.079308e-003
2.161811e+003, 1.875279e-003
2.163740e+003, 2.281633e-003
2.165668e+003, 2.907339e-003
2.167597e+003, 2.564020e-003
2.169525e+003, 4.319631e-004
2.171454e+003, -1.515681e-005
2.173382e+003, 9.346687e-004
2.175311e+003, 1.575361e-003
2.177239e+003, 1.224280e-003
2.179167e+003, -4.239855e-004
2.181096e+003, -1.611459e-003
2.183024e+003, -8.531025e-004
2.184953e+003, 4.094798e-004
2.186881e+003, 1.559119e-003
2.188810e+003, 5.647609e-004
2.190738e+003, 4.457760e-004
2.192667e+003, 1.993983e-003
2.194595e+003, 1.965278e-003
2.196524e+003, 1.329472e-003
2.198452e+003, 1.526217e-003
2.200381e+003, 1.711791e-003
2.202309e+003, 2.550897e-003
2.204238e+003, 2.477515e-003
2.206166e+003, 1.703181e-003
2.208094e+003, 2.065540e-003
2.210023e+003, 1.408263e-003
2.211951e+003, 9.285595e-005
2.213880e+003, 6.735694e-004
2.215808e+003, 1.519190e-003
2.217737e+003, 1.746888e-003
2.219665e+003, 2.566837e-003
2.221594e+003, 3.403792e-003
2.223522e+003, 4.399232e-003
2.225451e+003, 4.966340e-003
2.227379e+003, 4.300420e-003
2.229308e+003, 2.377232e-003
2.231236e+003, 1.768414e-003
2.233165e+003, 3.215512e-003
2.235093e+003, 3.840816e-003
2.237021e+003, 2.314904e-003
2.238950e+003, 2.354582e-003
2.240878e+003, 2.987158e-003
2.242807e+003, 1.923941e-003
2.244735e+003, 2.399003e-003
2.246664e+003, 3.008148e-003
2.248592e+003, 2.498235e-003
2.250521e+003, 1.794627e-003
2.252449e+003, 1.715057e-003
2.254378e+003, 1.707775e-003
2.256306e+003, 2.395716e-003
2.258235e+003, 2.675275e-003
2.260163e+003, 1.942816e-003
2.262092e+003, 1.827251e-003
2.264020e+003, 2.978628e-003
2.265948e+003, 3.294379e-003
2.267877e+003, 3.629215e-003
2.269805e+003, 4.197389e-003
2.271734e+003, 4.023076e-003
2.273662e+003, 3.206288e-003
2.275591e+003, 3.564734e-003
2.277519e+003, 4.064756e-003
2.279448e+003, 4.103098e-003
2.281376e+003, 4.561354e-003
2.283305e+003, 4.683673e-003
2.285233e+003, 4.495242e-003
2.287162e+003, 5.256018e-003
2.289090e+003, 5.661757e-003
2.291019e+003, 5.305953e-003
2.292947e+003, 4.871302e-003
2.294875e+003, 4.676744e-003
2.296804e+003, 4.877907e-003
2.298732e+003, 5.381139e-003
2.300661e+003, 5.401911e-003
2.302589e+003, 5.212160e-003
2.304518e+003, 5.114697e-003
2.306446e+003, 5.464289e-003
2.308375e+003, 5.746830e-003
2.310303e+003, 5.587944e-003
2.312232e+003, 5.945537e-003
2.314160e+003, 6.299191e-003
2.316089e+003, 6.053050e-003
2.318017e+003, 6.193392e-003
2.319946e+003, 6.430455e-003
2.321874e+003, 6.766711e-003
2.323802e+003, 6.614379e-003
2.325731e+003, 5.819495e-003
2.327659e+003, 5.293731e-003
2.329588e+003, 5.127420e-003
2.331516e+003, 4.886388e-003
2.333445e+003, 4.747403e-003
2.335373e+003, 4.920358e-003
2.337302e+003, 5.252191e-003
2.339230e+003, 5.233630e-003
2.341159e+003, 4.873549e-003
2.343087e+003, 4.716103e-003
2.345016e+003, 4.719700e-003
2.346944e+003, 4.145741e-003
2.348873e+003, 3.735115e-003
2.350801e+003, 4.016034e-003
2.352729e+003, 4.343086e-003
2.354658e+003, 4.424995e-003
2.356586e+003, 4.633344e-003
2.358515e+003, 4.914277e-003
2.360443e+003, 5.140958e-003
2.362372e+003, 4.876084e-003
2.364300e+003, 4.104760e-003
2.366229e+003, 3.648281e-003
2.368157e+003, 3.650065e-003
2.370086e+003, 3.680537e-003
2.372014e+003, 3.658127e-003
2.373942e+003, 3.545363e-003
2.375871e+003, 3.503407e-003
2.377799e+003, 3.692414e-003
2.379728e+003, 3.416259e-003
2.381656e+003, 3.806509e-003
2.383585e+003, 4.578940e-003
2.385513e+003, 3.987886e-003
2.387442e+003, 3.230711e-003
2.389370e+003, 3.571235e-003
2.391299e+003, 3.787821e-003
2.393227e+003, 2.861429e-003
2.395156e+003, 3.244701e-003
2.397084e+003, 3.921263e-003
2.399012e+003, 4.485001e-003
2.400941e+003, 4.405931e-003
2.402869e+003, 3.767303e-003
2.404798e+003, 4.006381e-003
2.406726e+003, 4.596771e-003
2.408655e+003, 4.579720e-003
2.410583e+003, 4.442727e-003
2.412512e+003, 4.462461e-003
2.414440e+003, 4.942138e-003
2.416369e+003, 5.153966e-003
2.418297e+003, 4.659436e-003
2.420226e+003, 4.132093e-003
2.422154e+003, 3.932378e-003
2.424083e+003, 3.981677e-003
2.426011e+003, 4.182172e-003
2.427939e+003, 4.744386e-003
2.429868e+003, 5.251165e-003
2.431796e+003, 4.844830e-003
2.433725e+003, 4.699824e-003
2.435653e+003, 5.283334e-003
2.437582e+003, 5.404696e-003
2.439510e+003, 5.008074e-003
2.441439e+003, 4.908788e-003
2.443367e+003, 4.914836e-003
2.445296e+003, 5.355462e-003
2.447224e+003, 5.728350e-003
2.449153e+003, 6.092295e-003
2.451081e+003, 5.895092e-003
2.453010e+003, 5.508365e-003
2.454938e+003, 5.659743e-003
2.456866e+003, 5.518811e-003
2.458795e+003, 4.940654e-003
2.460723e+003, 5.108637e-003
2.462652e+003, 5.219177e-003
2.464580e+003, 4.545319e-003
2.466509e+003, 4.639928e-003
2.468437e+003, 5.166161e-003
2.470366e+003, 5.568550e-003
2.472294e+003, 5.635447e-003
2.474223e+003, 4.805984e-003
2.476151e+003, 4.899357e-003
2.478080e+003, 4.926920e-003
2.480008e+003, 5.212689e-003
2.481937e+003, 5.084336e-003
2.483865e+003, 4.774166e-003
2.485793e+003, 5.268178e-003
2.487722e+003, 5.120925e-003
2.489650e+003, 4.543289e-003
2.491579e+003, 4.794950e-003
2.493507e+003, 4.595179e-003
2.495436e+003, 4.019079e-003
2.497364e+003, 4.353042e-003
2.499293e+003, 5.043981e-003
2.501221e+003, 5.000378e-003
2.503150e+003, 4.025782e-003
2.505078e+003, 3.834681e-003
2.507007e+003, 4.459876e-003
2.508935e+003, 4.996605e-003
2.510864e+003, 5.179602e-003
2.512792e+003, 4.990816e-003
2.514720e+003, 4.925463e-003
2.516649e+003, 5.078675e-003
2.518577e+003, 5.527094e-003
2.520506e+003, 5.794079e-003
2.522434e+003, 5.565519e-003
2.524363e+003, 5.303408e-003
2.526291e+003, 4.731137e-003
2.528220e+003, 4.368666e-003
2.530148e+003, 4.594600e-003
2.532077e+003, 4.992978e-003
2.534005e+003, 5.456767e-003
2.535934e+003, 5.016971e-003
2.537862e+003, 4.862111e-003
2.539791e+003, 5.651015e-003
2.541719e+003, 6.301135e-003
2.543647e+003, 5.949749e-003
2.545576e+003, 6.238136e-003
2.547504e+003, 6.033693e-003
2.549433e+003, 5.983168e-003
2.551361e+003, 6.310735e-003
2.553290e+003, 5.322968e-003
2.555218e+003, 4.841891e-003
2.557147e+003, 5.231726e-003
2.559075e+003, 5.512735e-003
2.561004e+003, 5.713928e-003
2.562932e+003, 5.563951e-003
2.564861e+003, 5.257903e-003
2.566789e+003, 6.270865e-003
2.568718e+003, 7.267796e-003
2.570646e+003, 6.709712e-003
2.572574e+003, 5.409917e-003
2.574503e+003, 4.863273e-003
2.576431e+003, 5.199831e-003
2.578360e+003, 5.908511e-003
2.580288e+003, 6.244105e-003
2.582217e+003, 6.148109e-003
2.584145e+003, 5.695896e-003
2.586074e+003, 6.218817e-003
2.588002e+003, 6.366627e-003
2.589931e+003, 5.721179e-003
2.591859e+003, 5.793241e-003
2.593788e+003, 5.846865e-003
2.595716e+003, 5.849211e-003
2.597645e+003, 6.419351e-003
2.599573e+003, 6.737945e-003
2.601501e+003, 6.998027e-003
2.603430e+003, 7.457313e-003
2.605358e+003, 6.714435e-003
2.607287e+003, 6.349770e-003
2.609215e+003, 6.949172e-003
2.611144e+003, 6.829677e-003
2.613072e+003, 6.338546e-003
2.615001e+003, 6.537733e-003
2.616929e+003, 6.914454e-003
2.618858e+003, 7.107237e-003
2.620786e+003, 7.475937e-003
2.622715e+003, 6.584839e-003
2.624643e+003, 6.753847e-003
2.626572e+003, 7.518318e-003
2.628500e+003, 6.894199e-003
2.630428e+003, 5.971213e-003
2.632357e+003, 5.721353e-003
2.634285e+003, 6.411655e-003
2.636214e+003, 6.732693e-003
2.638142e+003, 6.821201e-003
2.640071e+003, 7.682669e-003
2.641999e+003, 8.230647e-003
2.643928e+003, 7.420846e-003
2.645856e+003, 6.741927e-003
2.647785e+003, 6.614692e-003
2.649713e+003, 6.675457e-003
2.651642e+003, 7.452768e-003
2.653570e+003, 8.113575e-003
2.655499e+003, 7.265393e-003
2.657427e+003, 6.697456e-003
2.659355e+003, 6.664784e-003
2.661284e+003, 6.371174e-003
2.663212e+003, 6.648853e-003
2.665141e+003, 6.414761e-003
2.667069e+003, 6.111452e-003
2.668998e+003, 5.955518e-003
2.670926e+003, 5.498828e-003
2.672855e+003, 5.179399e-003
2.674783e+003, 5.518174e-003
2.676712e+003, 6.261406e-003
2.678640e+003, 6.559766e-003
2.680569e+003, 6.483075e-003
2.682497e+003, 6.050891e-003
2.684426e+003, 6.058915e-003
2.686354e+003, 6.334320e-003
2.688282e+003, 6.842577e-003
2.690211e+003, 6.837211e-003
2.692139e+003, 6.347456e-003
2.694068e+003, 5.871819e-003
2.695996e+003, 6.304426e-003
2.697925e+003, 6.596044e-003
2.699853e+003, 6.454983e-003
2.701782e+003, 6.805262e-003
2.703710e+003, 6.834308e-003
2.705639e+003, 6.753808e-003
2.707567e+003, 6.903297e-003
2.709496e+003, 6.991470e-003
2.711424e+003, 6.814501e-003
2.713353e+003, 6.434483e-003
2.715281e+003, 6.621290e-003
2.717209e+003, 6.741087e-003
2.719138e+003, 6.399693e-003
2.721066e+003, 6.324548e-003
2.722995e+003, 6.443385e-003
2.724923e+003, 7.257470e-003
2.726852e+003, 7.980745e-003
2.728780e+003, 7.397808e-003
2.730709e+003, 6.816921e-003
2.732637e+003, 6.480679e-003
2.734566e+003, 6.450172e-003
2.736494e+003, 6.729785e-003
2.738423e+003, 6.719983e-003
2.740351e+003, 6.618571e-003
2.742280e+003, 6.348557e-003
2.744208e+003, 6.580878e-003
2.746136e+003, 7.195613e-003
2.748065e+003, 7.236266e-003
2.749993e+003, 6.922537e-003
2.751922e+003, 6.629355e-003
2.753850e+003, 6.898565e-003
2.755779e+003, 7.330253e-003
2.757707e+003, 7.457647e-003
2.759636e+003, 7.393282e-003
2.761564e+003, 7.423032e-003
2.763493e+003, 7.404476e-003
2.765421e+003, 6.974456e-003
2.767350e+003, 7.166323e-003
2.769278e+003, 7.571511e-003
2.771207e+003, 7.632522e-003
2.773135e+003, 7.249598e-003
2.775063e+003, 7.186087e-003
2.776992e+003, 7.174314e-003
2.778920e+003, 6.969695e-003
2.780849e+003, 7.014751e-003
2.782777e+003, 6.420881e-003
2.784706e+003, 7.077029e-003
2.786634e+003, 7.584880e-003
2.788563e+003, 7.038838e-003
2.790491e+003, 7.123871e-003
2.792420e+003, 7.622639e-003
2.794348e+003, 7.553748e-003
2.796277e+003, 7.519600e-003
2.798205e+003, 7.792656e-003
2.800134e+003, 7.822105e-003
2.802062e+003, 7.303524e-003
2.803990e+003, 6.459993e-003
2.805919e+003, 6.762457e-003
2.807847e+003, 7.214370e-003
2.809776e+003, 7.482403e-003
2.811704e+003, 7.519308e-003
2.813633e+003, 7.397699e-003
2.815561e+003, 7.632362e-003
2.817490e+003, 7.381180e-003
2.819418e+003, 6.940083e-003
2.821347e+003, 7.223098e-003
2.823275e+003, 7.870349e-003
2.825204e+003, 7.746664e-003
2.827132e+003, 7.381219e-003
2.829061e+003, 7.897905e-003
2.830989e+003, 8.223647e-003
2.832917e+003, 7.823799e-003
2.834846e+003, 7.051636e-003
2.836774e+003, 6.894149e-003
2.838703e+003, 7.483808e-003
2.840631e+003, 8.377253e-003
2.842560e+003, 8.468123e-003
2.844488e+003, 8.290866e-003
2.846417e+003, 7.565730e-003
2.848345e+003, 7.340300e-003
2.850274e+003, 7.880000e-003
2.852202e+003, 7.492489e-003
2.854131e+003, 7.164807e-003
2.856059e+003, 7.892763e-003
2.857988e+003, 8.622115e-003
2.859916e+003, 8.360671e-003
2.861844e+003, 8.157160e-003
2.863773e+003, 7.999558e-003
2.865701e+003, 8.136719e-003
2.867630e+003, 8.190791e-003
2.869558e+003, 8.618724e-003
2.871487e+003, 8.355752e-003
2.873415e+003, 7.934720e-003
2.875344e+003, 8.387871e-003
2.877272e+003, 9.175426e-003
2.879201e+003, 9.742942e-003
2.881129e+003, 9.490257e-003
2.883058e+003, 9.492092e-003
2.884986e+003, 1.002234e-002
2.886915e+003, 9.666977e-003
2.888843e+003, 9.203922e-003
2.890771e+003, 9.922031e-003
2.892700e+003, 1.029062e-002
2.894628e+003, 1.038375e-002
2.896557e+003, 1.029383e-002
2.898485e+003, 1.002746e-002
2.900414e+003, 9.419551e-003
2.902342e+003, 1.002638e-002
2.904271e+003, 1.029579e-002
2.906199e+003, 9.975873e-003
2.908128e+003, 9.667131e-003
2.910056e+003, 9.024838e-003
2.911985e+003, 9.203164e-003
2.913913e+003, 9.469071e-003
2.915842e+003, 9.156478e-003
2.917770e+003, 9.569424e-003
2.919698e+003, 1.035040e-002
2.921627e+003, 1.020272e-002
2.923555e+003, 9.914382e-003
2.925484e+003, 1.097960e-002
2.927412e+003, 1.125698e-002
2.929341e+003, 1.066436e-002
2.931269e+003, 1.133500e-002
2.933198e+003, 1.185053e-002
2.935126e+003, 1.120441e-002
2.937055e+003, 1.074889e-002
2.938983e+003, 1.081908e-002
2.940912e+003, 1.140001e-002
2.942840e+003, 1.140833e-002
2.944769e+003, 1.160621e-002
2.946697e+003, 1.194065e-002
2.948625e+003, 1.151355e-002
2.950554e+003, 1.081387e-002
2.952482e+003, 1.032998e-002
2.954411e+003, 1.003805e-002
2.956339e+003, 1.046309e-002
2.958268e+003, 1.068810e-002
2.960196e+003, 1.103048e-002
2.962125e+003, 1.153822e-002
2.964053e+003, 1.151420e-002
2.965982e+003, 1.189062e-002
2.967910e+003, 1.244120e-002
2.969839e+003, 1.241565e-002
2.971767e+003, 1.253834e-002
2.973696e+003, 1.290183e-002
2.975624e+003, 1.223840e-002
2.977552e+003, 1.165966e-002
2.979481e+003, 1.173760e-002
2.981409e+003, 1.256692e-002
2.983338e+003, 1.294412e-002
2.985266e+003, 1.317476e-002
2.987195e+003, 1.297646e-002
2.989123e+003, 1.267385e-002
2.991052e+003, 1.302279e-002
2.992980e+003, 1.374042e-002
2.994909e+003, 1.419624e-002
2.996837e+003, 1.361514e-002
2.998766e+003, 1.323308e-002
3.000694e+003, 1.370082e-002
3.002623e+003, 1.412014e-002
3.004551e+003, 1.386174e-002
3.006479e+003, 1.367091e-002
3.008408e+003, 1.439997e-002
3.010336e+003, 1.467904e-002
3.012265e+003, 1.375601e-002
3.014193e+003, 1.337618e-002
3.016122e+003, 1.370148e-002
3.018050e+003, 1.426929e-002
3.019979e+003, 1.545304e-002
3.021907e+003, 1.557163e-002
3.023836e+003, 1.525222e-002
3.025764e+003, 1.506554e-002
3.027693e+003, 1.544150e-002
3.029621e+003, 1.557077e-002
3.031550e+003, 1.584118e-002
3.033478e+003, 1.600675e-002
3.035406e+003, 1.524411e-002
3.037335e+003, 1.530990e-002
3.039263e+003, 1.539323e-002
3.041192e+003, 1.519891e-002
3.043120e+003, 1.605604e-002
3.045049e+003, 1.599882e-002
3.046977e+003, 1.563325e-002
3.048906e+003, 1.581074e-002
3.050834e+003, 1.549469e-002
3.052763e+003, 1.592344e-002
3.054691e+003, 1.735466e-002
3.056620e+003, 1.756631e-002
3.058548e+003, 1.722136e-002
3.060477e+003, 1.812555e-002
3.062405e+003, 1.856329e-002
3.064333e+003, 1.799113e-002
3.066262e+003, 1.835771e-002
3.068190e+003, 1.875133e-002
3.070119e+003, 1.880518e-002
3.072047e+003, 1.829128e-002
3.073976e+003, 1.793073e-002
3.075904e+003, 1.830730e-002
3.077833e+003, 1.891517e-002
3.079761e+003, 1.901627e-002
3.081690e+003, 1.819215e-002
3.083618e+003, 1.841165e-002
3.085547e+003, 1.925829e-002
3.087475e+003, 1.951364e-002
3.089404e+003, 1.980654e-002
3.091332e+003, 2.009570e-002
3.093260e+003, 2.044413e-002
3.095189e+003, 2.033932e-002
3.097117e+003, 2.068024e-002
3.099046e+003, 2.161374e-002
3.100974e+003, 2.224342e-002
3.102903e+003, 2.160341e-002
3.104831e+003, 2.090861e-002
3.106760e+003, 2.098418e-002
3.108688e+003, 2.095242e-002
3.110617e+003, 2.129578e-002
3.112545e+003, 2.121045e-002
3.114474e+003, 2.233087e-002
3.116402e+003, 2.261443e-002
3.118331e+003, 2.254822e-002
3.120259e+003, 2.418953e-002
3.122188e+003, 2.420071e-002
3.124116e+003, 2.330652e-002
3.126044e+003, 2.266355e-002
3.127973e+003, 2.337893e-002
3.129901e+003, 2.447311e-002
3.131830e+003, 2.472229e-002
3.133758e+003, 2.453149e-002
3.135687e+003, 2.485701e-002
3.137615e+003, 2.606011e-002
3.139544e+003, 2.716430e-002
3.141472e+003, 2.745875e-002
3.143401e+003, 2.781706e-002
3.145329e+003, 2.765188e-002
3.147258e+003, 2.785172e-002
3.149186e+003, 2.731348e-002
3.151115e+003, 2.728146e-002
3.153043e+003, 2.816646e-002
3.154971e+003, 2.892736e-002
3.156900e+003, 2.920138e-002
3.158828e+003, 2.855166e-002
3.160757e+003, 2.779345e-002
3.162685e+003, 2.870035e-002
3.164614e+003, 2.932735e-002
3.166542e+003, 2.823230e-002
3.168471e+003, 2.889412e-002
3.170399e+003, 3.081045e-002
3.172328e+003, 3.082631e-002
3.174256e+003, 3.101892e-002
3.176185e+003, 3.160636e-002
3.178113e+003, 3.134211e-002
3.180042e+003, 3.150980e-002
3.181970e+003, 3.197763e-002
3.183898e+003, 3.195922e-002
3.185827e+003, 3.206240e-002
3.187755e+003, 3.266602e-002
3.189684e+003, 3.407685e-002
3.191612e+003, 3.446427e-002
3.193541e+003, 3.436602e-002
3.195469e+003, 3.438776e-002
3.197398e+003, 3.430656e-002
3.199326e+003, 3.446331e-002
3.201255e+003, 3.517358e-002
3.203183e+003, 3.539602e-002
3.205112e+003, 3.564267e-002
3.207040e+003, 3.608588e-002
3.208969e+003, 3.575360e-002
3.210897e+003, 3.612195e-002
3.212825e+003, 3.755685e-002
3.214754e+003, 3.843448e-002
3.216682e+003, 3.779533e-002
3.218611e+003, 3.826829e-002
3.220539e+003, 3.963180e-002
3.222468e+003, 3.904722e-002
3.224396e+003, 3.805815e-002
3.226325e+003, 3.811540e-002
3.228253e+003, 3.936823e-002
3.230182e+003, 4.070310e-002
3.232110e+003, 4.068379e-002
3.234039e+003, 4.049727e-002
3.235967e+003, 4.094689e-002
3.237896e+003, 4.202870e-002
3.239824e+003, 4.186495e-002
3.241752e+003, 4.093591e-002
3.243681e+003, 4.032841e-002
3.245609e+003, 3.982968e-002
3.247538e+003, 3.973688e-002
3.249466e+003, 4.125391e-002
3.251395e+003, 4.192112e-002
3.253323e+003, 4.141262e-002
3.255252e+003, 4.101347e-002
3.257180e+003, 4.138979e-002
3.259109e+003, 4.142007e-002
3.261037e+003, 4.083392e-002
3.262966e+003, 4.133375e-002
3.264894e+003, 4.112512e-002
3.266823e+003, 3.992799e-002
3.268751e+003, 4.005310e-002
3.270679e+003, 4.108449e-002
3.272608e+003, 4.118799e-002
3.274536e+003, 4.123641e-002
3.276465e+003, 4.091017e-002
3.278393e+003, 4.164988e-002
3.280322e+003, 4.207442e-002
3.282250e+003, 4.179884e-002
3.284179e+003, 4.149451e-002
3.286107e+003, 4.277512e-002
3.288036e+003, 4.390399e-002
3.289964e+003, 4.338797e-002
3.291893e+003, 4.262831e-002
3.293821e+003, 4.242569e-002
3.295750e+003, 4.296461e-002
3.297678e+003, 4.205500e-002
3.299606e+003, 4.213151e-002
3.301535e+003, 4.291304e-002
3.303463e+003, 4.323566e-002
3.305392e+003, 4.252588e-002
3.307320e+003, 4.400085e-002
3.309249e+003, 4.422693e-002
3.311177e+003, 4.359646e-002
3.313106e+003, 4.433446e-002
3.315034e+003, 4.379829e-002
3.316963e+003, 4.374443e-002
3.318891e+003, 4.422816e-002
3.320820e+003, 4.425300e-002
3.322748e+003, 4.528884e-002
3.324677e+003, 4.592278e-002
3.326605e+003, 4.482336e-002
3.328533e+003, 4.473372e-002
3.330462e+003, 4.435049e-002
3.332390e+003, 4.390065e-002
3.334319e+003, 4.514929e-002
3.336247e+003, 4.529699e-002
3.338176e+003, 4.611946e-002
3.340104e+003, 4.791158e-002
3.342033e+003, 4.859726e-002
3.343961e+003, 4.923876e-002
3.345890e+003, 4.948391e-002
3.347818e+003, 4.839000e-002
3.349747e+003, 4.716544e-002
3.351675e+003, 4.777997e-002
3.353604e+003, 4.857625e-002
3.355532e+003, 4.772594e-002
3.357460e+003, 4.816863e-002
3.359389e+003, 4.873608e-002
3.361317e+003, 4.886997e-002
3.363246e+003, 5.021478e-002
3.365174e+003, 5.036587e-002
3.367103e+003, 4.943996e-002
3.369031e+003, 4.914717e-002
3.370960e+003, 4.964804e-002
3.372888e+003, 4.988591e-002
3.374817e+003, 5.100887e-002
3.376745e+003, 5.105758e-002
3.378674e+003, 5.055678e-002
3.380602e+003, 4.950941e-002
3.382531e+003, 4.868516e-002
3.384459e+003, 5.034196e-002
3.386387e+003, 5.158826e-002
3.388316e+003, 5.176035e-002
3.390244e+003, 5.104424e-002
3.392173e+003, 5.195356e-002
3.394101e+003, 5.253452e-002
3.396030e+003, 5.196308e-002
3.397958e+003, 5.121570e-002
3.399887e+003, 5.167937e-002
3.401815e+003, 5.211633e-002
3.403744e+003, 5.205636e-002
3.405672e+003, 5.172772e-002
3.407601e+003, 5.049026e-002
3.409529e+003, 4.974291e-002
3.411458e+003, 5.001654e-002
3.413386e+003, 5.085985e-002
3.415314e+003, 5.137222e-002
3.417243e+003, 5.047905e-002
3.419171e+003, 5.013608e-002
3.421100e+003, 4.905899e-002
3.423028e+003, 4.964983e-002
3.424957e+003, 5.069976e-002
3.426885e+003, 4.951464e-002
3.428814e+003, 4.943887e-002
3.430742e+003, 4.999945e-002
3.432671e+003, 5.084289e-002
3.434599e+003, 5.051856e-002
3.436528e+003, 5.065468e-002
3.438456e+003, 5.131724e-002
3.440385e+003, 5.045274e-002
3.442313e+003, 4.991211e-002
3.444241e+003, 5.068288e-002
3.446170e+003, 5.095137e-002
3.448098e+003, 5.114293e-002
3.450027e+003, 5.099999e-002
3.451955e+003, 5.085462e-002
3.453884e+003, 5.126111e-002
3.455812e+003, 5.053952e-002
3.457741e+003, 5.013945e-002
3.459669e+003, 5.046738e-002
3.461598e+003, 5.114838e-002
3.463526e+003, 5.216259e-002
3.465455e+003, 5.225016e-002
3.467383e+003, 5.148249e-002
3.469312e+003, 5.150611e-002
3.471240e+003, 5.104382e-002
3.473168e+003, 4.982052e-002
3.475097e+003, 5.036959e-002
3.477025e+003, 5.114718e-002
3.478954e+003, 5.049931e-002
3.480882e+003, 5.037338e-002
3.482811e+003, 5.167407e-002
3.484739e+003, 5.168330e-002
3.486668e+003, 5.059704e-002
3.488596e+003, 5.031390e-002
3.490525e+003, 5.008703e-002
3.492453e+003, 4.931703e-002
3.494382e+003, 4.922566e-002
3.496310e+003, 4.959248e-002
3.498239e+003, 5.105266e-002
3.500167e+003, 5.260336e-002
3.502095e+003, 5.146848e-002
3.504024e+003, 4.985775e-002
3.505952e+003, 4.954830e-002
3.507881e+003, 4.969021e-002
3.509809e+003, 5.071925e-002
3.511738e+003, 5.053354e-002
3.513666e+003, 4.985881e-002
3.515595e+003, 4.998408e-002
3.517523e+003, 4.962984e-002
3.519452e+003, 4.893534e-002
3.521380e+003, 4.784038e-002
3.523309e+003, 4.780483e-002
3.525237e+003, 4.904414e-002
3.527166e+003, 4.848076e-002
3.529094e+003, 4.771803e-002
3.531022e+003, 4.772911e-002
3.532951e+003, 4.712342e-002
3.534879e+003, 4.637451e-002
3.536808e+003, 4.674216e-002
3.538736e+003, 4.750616e-002
3.540665e+003, 4.782392e-002
3.542593e+003, 4.690213e-002
3.544522e+003, 4.672128e-002
3.546450e+003, 4.782538e-002
3.548379e+003, 4.897554e-002
3.550307e+003, 4.804102e-002
3.552236e+003, 4.495224e-002
3.554164e+003, 4.396664e-002
3.556093e+003, 4.442657e-002
3.558021e+003, 4.574217e-002
3.559949e+003, 4.696451e-002
3.561878e+003, 4.624712e-002
3.563806e+003, 4.588830e-002
3.565735e+003, 4.491030e-002
3.567663e+003, 4.441969e-002
3.569592e+003, 4.508563e-002
3.571520e+003, 4.487655e-002
3.573449e+003, 4.451060e-002
3.575377e+003, 4.415398e-002
3.577306e+003, 4.422444e-002
3.579234e+003, 4.405130e-002
3.581163e+003, 4.171230e-002
3.583091e+003, 4.089848e-002
3.585020e+003, 4.151066e-002
3.586948e+003, 4.262960e-002
3.588876e+003, 4.234032e-002
3.590805e+003, 4.140084e-002
3.592733e+003, 4.180219e-002
3.594662e+003, 4.089832e-002
3.596590e+003, 3.962997e-002
3.598519e+003, 3.933689e-002
3.600447e+003, 3.905239e-002
3.602376e+003, 3.959056e-002
3.604304e+003, 3.861488e-002
3.606233e+003, 3.700092e-002
3.608161e+003, 3.706030e-002
3.610090e+003, 3.714628e-002
3.612018e+003, 3.533928e-002
3.613947e+003, 3.170102e-002
3.615875e+003, 2.961480e-002
3.617803e+003, 2.879750e-002
3.619732e+003, 2.820686e-002
3.621660e+003, 2.791806e-002
3.623589e+003, 2.628670e-002
3.625517e+003, 2.423735e-002
3.627446e+003, 2.398297e-002
3.629374e+003, 2.553589e-002
3.631303e+003, 2.620657e-002
3.633231e+003, 2.351441e-002
3.635160e+003, 2.075497e-002
3.637088e+003, 1.861271e-002
3.639017e+003, 1.710031e-002
3.640945e+003, 1.691682e-002
3.642874e+003, 1.815225e-002
3.644802e+003, 1.690152e-002
3.646730e+003, 1.565600e-002
3.648659e+003, 1.509624e-002
3.650587e+003, 1.333459e-002
3.652516e+003, 1.223824e-002
3.654444e+003, 1.258249e-002
3.656373e+003, 1.227080e-002
3.658301e+003, 1.067069e-002
3.660230e+003, 9.249154e-003
3.662158e+003, 8.695273e-003
3.664087e+003, 8.003130e-003
3.666015e+003, 7.924150e-003
3.667944e+003, 8.326778e-003
3.669872e+003, 9.233434e-003
3.671801e+003, 8.118591e-003
3.673729e+003, 6.817881e-003
3.675657e+003, 8.897086e-003
3.677586e+003, 9.343170e-003
3.679514e+003, 6.863333e-003
3.681443e+003, 6.464081e-003
3.683371e+003, 7.459247e-003
3.685300e+003, 7.073159e-003
3.687228e+003, 5.950133e-003
3.689157e+003, 5.112733e-003
3.691085e+003, 4.554913e-003
3.693014e+003, 5.240027e-003
3.694942e+003, 5.518646e-003
3.696871e+003, 5.263691e-003
3.698799e+003, 4.703691e-003
3.700728e+003, 4.824721e-003
3.702656e+003, 4.209235e-003
3.704584e+003, 5.958368e-003
3.706513e+003, 6.690573e-003
3.708441e+003, 6.547059e-003
3.710370e+003, 6.444810e-003
3.712298e+003, 5.823421e-003
3.714227e+003, 4.641158e-003
3.716155e+003, 4.416205e-003
3.718084e+003, 3.714190e-003
3.720012e+003, 3.855908e-003
3.721941e+003, 4.665107e-003
3.723869e+003, 4.598654e-003
3.725798e+003, 4.138107e-003
3.727726e+003, 4.089765e-003
3.729655e+003, 3.463504e-003
3.731583e+003, 4.679007e-003
3.733511e+003, 6.334215e-003
3.735440e+003, 4.411859e-003
3.737368e+003, 3.652584e-003
3.739297e+003, 4.571693e-003
3.741225e+003, 4.245898e-003
3.743154e+003, 4.153796e-003
3.745082e+003, 5.219328e-003
3.747011e+003, 6.136046e-003
3.748939e+003, 6.056920e-003
3.750868e+003, 5.558314e-003
3.752796e+003, 5.486116e-003
3.754725e+003, 6.551773e-003
3.756653e+003, 8.154479e-003
3.758582e+003, 6.895240e-003
3.760510e+003, 5.100259e-003
3.762438e+003, 4.745718e-003
3.764367e+003, 4.165242e-003
3.766295e+003, 4.201799e-003
3.768224e+003, 3.410624e-003
3.770152e+003, 3.346448e-003
3.772081e+003, 3.759766e-003
3.774009e+003, 4.966111e-003
3.775938e+003, 5.502911e-003
3.777866e+003, 5.679215e-003
3.779795e+003, 6.289252e-003
3.781723e+003, 5.947100e-003
3.783652e+003, 5.378339e-003
3.785580e+003, 5.192264e-003
3.787509e+003, 4.821843e-003
3.789437e+003, 5.003151e-003
3.791365e+003, 6.495376e-003
3.793294e+003, 5.903280e-003
3.795222e+003, 5.020336e-003
3.797151e+003, 5.663129e-003
3.799079e+003, 6.700860e-003
3.801008e+003, 6.233628e-003
3.802936e+003, 5.820800e-003
3.804865e+003, 6.317131e-003
3.806793e+003, 4.755442e-003
3.808722e+003, 3.411727e-003
3.810650e+003, 5.605623e-003
3.812579e+003, 7.719832e-003
3.814507e+003, 6.834120e-003
3.816436e+003, 6.820655e-003
3.818364e+003, 9.189530e-003
3.820292e+003, 9.056895e-003
3.822221e+003, 6.685111e-003
3.824149e+003, 7.559694e-003
3.826078e+003, 5.787796e-003
3.828006e+003, 3.507012e-003
3.829935e+003, 3.331912e-003
3.831863e+003, 3.731286e-003
3.833792e+003, 5.797348e-003
3.835720e+003, 6.798698e-003
3.837649e+003, 6.863598e-003
3.839577e+003, 5.330448e-003
3.841506e+003, 4.499060e-003
3.843434e+003, 4.876772e-003
3.845363e+003, 4.979927e-003
3.847291e+003, 4.609350e-003
3.849219e+003, 5.121442e-003
3.851148e+003, 4.658555e-003
3.853076e+003, 2.914979e-003
3.855005e+003, 4.274235e-003
3.856933e+003, 4.664341e-003
3.858862e+003, 3.478796e-003
3.860790e+003, 3.330549e-003
3.862719e+003, 3.806975e-003
3.864647e+003, 3.496178e-003
3.866576e+003, 2.652223e-003
3.868504e+003, 3.892702e-003
3.870433e+003, 4.745499e-003
3.872361e+003, 5.097339e-003
3.874290e+003, 4.945298e-003
3.876218e+003, 5.311428e-003
3.878146e+003, 6.135196e-003
3.880075e+003, 4.640211e-003
3.882003e+003, 4.955163e-003
3.883932e+003, 5.341615e-003
3.885860e+003, 5.904234e-003
3.887789e+003, 7.238622e-003
3.889717e+003, 7.207153e-003
3.891646e+003, 6.953897e-003
3.893574e+003, 6.265088e-003
3.895503e+003, 5.341239e-003
3.897431e+003, 4.825902e-003
3.899360e+003, 4.372528e-003
3.901288e+003, 4.995625e-003
3.903217e+003, 7.097609e-003
3.905145e+003, 8.690186e-003
3.907073e+003, 8.222977e-003
3.909002e+003, 5.292742e-003
3.910930e+003, 4.446097e-003
3.912859e+003, 4.091340e-003
3.914787e+003, 5.595698e-003
3.916716e+003, 6.715584e-003
3.918644e+003, 5.976848e-003
3.920573e+003, 5.628095e-003
3.922501e+003, 5.920176e-003
3.924430e+003, 6.519931e-003
3.926358e+003, 4.508334e-003
3.928287e+003, 3.665212e-003
3.930215e+003, 4.951464e-003
3.932144e+003, 4.266741e-003
3.934072e+003, 2.846338e-003
3.936000e+003, 3.094525e-003
3.937929e+003, 4.098128e-003
3.939857e+003, 6.173180e-003
3.941786e+003, 7.267143e-003
3.943714e+003, 7.316341e-003
3.945643e+003, 7.084353e-003
3.947571e+003, 6.448555e-003
3.949500e+003, 5.362439e-003
3.951428e+003, 4.555861e-003
3.953357e+003, 4.106231e-003
3.955285e+003, 4.596259e-003
3.957214e+003, 6.552447e-003
3.959142e+003, 8.062409e-003
3.961071e+003, 7.280880e-003
3.962999e+003, 6.058617e-003
3.964927e+003, 5.889405e-003
3.966856e+003, 5.949339e-003
3.968784e+003, 7.239952e-003
3.970713e+003, 8.482615e-003
3.972641e+003, 8.103704e-003
3.974570e+003, 6.009103e-003
3.976498e+003, 4.663444e-003
3.978427e+003, 4.397221e-003
3.980355e+003, 5.830416e-003
3.982284e+003, 6.481295e-003
3.984212e+003, 6.825609e-003
3.986141e+003, 8.227412e-003
3.988069e+003, 7.256208e-003
3.989998e+003, 5.255562e-003
3.991926e+003, 6.344612e-003
3.993854e+003, 7.377848e-003
3.995783e+003, 6.015972e-003
3.997711e+003, 6.469412e-003
3.999640e+003, 6.472533e-003
##END=



