##NAMES=Stilbite-Ca
##RRUFFID=R050106
##IDEAL CHEMISTRY=NaCa_4_(Si_27_Al_9_)O_72_&#183;28H_2_O
##LOCALITY=Corea, Sonora, Mexico
##OWNER=RRUFF
##SOURCE=Fred Devito
##DESCRIPTION=White to colorless sheaflike aggregates of flattened single crystals
##STATUS=The identification of this mineral has been confirmed by X-ray diffraction and chemical analysis
##URL=rruff.info/R050106
##MEASURED CHEMISTRY=Na_1.42_Ca_4.28_(Si_26.02_Al_9.98_)O_72_Â·27.61H_2_O; trace amounts of K; H_2_O estimated by difference
3.991926e+002, 1.265711e-001
4.011211e+002, 1.222456e-001
4.030495e+002, 1.214589e-001
4.049780e+002, 1.250082e-001
4.069065e+002, 1.251630e-001
4.088349e+002, 1.288967e-001
4.107634e+002, 1.305750e-001
4.126919e+002, 1.313749e-001
4.146203e+002, 1.336690e-001
4.165488e+002, 1.341728e-001
4.184773e+002, 1.342535e-001
4.204057e+002, 1.339582e-001
4.223342e+002, 1.373881e-001
4.242627e+002, 1.397711e-001
4.261911e+002, 1.395348e-001
4.281196e+002, 1.381790e-001
4.300481e+002, 1.386158e-001
4.319765e+002, 1.413766e-001
4.339050e+002, 1.416007e-001
4.358335e+002, 1.394502e-001
4.377619e+002, 1.402921e-001
4.396904e+002, 1.395581e-001
4.416189e+002, 1.368625e-001
4.435473e+002, 1.344437e-001
4.454758e+002, 1.329509e-001
4.474043e+002, 1.305665e-001
4.493327e+002, 1.282982e-001
4.512612e+002, 1.259833e-001
4.531897e+002, 1.240959e-001
4.551181e+002, 1.217328e-001
4.570466e+002, 1.190030e-001
4.589751e+002, 1.180279e-001
4.609035e+002, 1.172600e-001
4.628320e+002, 1.162077e-001
4.647605e+002, 1.151809e-001
4.666889e+002, 1.134037e-001
4.686174e+002, 1.119868e-001
4.705459e+002, 1.108788e-001
4.724743e+002, 1.086937e-001
4.744028e+002, 1.062975e-001
4.763313e+002, 1.050470e-001
4.782597e+002, 1.038132e-001
4.801882e+002, 1.022008e-001
4.821167e+002, 1.012136e-001
4.840451e+002, 1.009370e-001
4.859736e+002, 1.005961e-001
4.879021e+002, 1.003285e-001
4.898305e+002, 1.005589e-001
4.917590e+002, 1.008083e-001
4.936875e+002, 1.008283e-001
4.956159e+002, 1.005841e-001
4.975444e+002, 1.009373e-001
4.994729e+002, 1.012083e-001
5.014013e+002, 1.008497e-001
5.033298e+002, 1.009403e-001
5.052583e+002, 1.010254e-001
5.071867e+002, 1.014778e-001
5.091152e+002, 1.018674e-001
5.110437e+002, 1.024016e-001
5.129721e+002, 1.024879e-001
5.149006e+002, 1.026117e-001
5.168290e+002, 1.034659e-001
5.187575e+002, 1.041118e-001
5.206860e+002, 1.046374e-001
5.226144e+002, 1.060241e-001
5.245429e+002, 1.074481e-001
5.264714e+002, 1.091520e-001
5.283998e+002, 1.101103e-001
5.303283e+002, 1.114795e-001
5.322568e+002, 1.128696e-001
5.341852e+002, 1.136080e-001
5.361137e+002, 1.150212e-001
5.380422e+002, 1.162704e-001
5.399706e+002, 1.169884e-001
5.418991e+002, 1.176965e-001
5.438276e+002, 1.178826e-001
5.457560e+002, 1.178518e-001
5.476845e+002, 1.173506e-001
5.496130e+002, 1.168848e-001
5.515414e+002, 1.162413e-001
5.534699e+002, 1.154889e-001
5.553984e+002, 1.141883e-001
5.573268e+002, 1.132179e-001
5.592553e+002, 1.120053e-001
5.611838e+002, 1.103627e-001
5.631122e+002, 1.084097e-001
5.650407e+002, 1.062575e-001
5.669692e+002, 1.048118e-001
5.688976e+002, 1.031574e-001
5.708261e+002, 1.007566e-001
5.727546e+002, 9.820087e-002
5.746830e+002, 9.598631e-002
5.766115e+002, 9.384370e-002
5.785400e+002, 9.200381e-002
5.804684e+002, 8.987328e-002
5.823969e+002, 8.737206e-002
5.843254e+002, 8.462612e-002
5.862538e+002, 8.221851e-002
5.881823e+002, 7.981093e-002
5.901108e+002, 7.710674e-002
5.920392e+002, 7.421257e-002
5.939677e+002, 7.164645e-002
5.958962e+002, 6.880684e-002
5.978246e+002, 6.577151e-002
5.997531e+002, 6.294490e-002
6.016816e+002, 6.003535e-002
6.036100e+002, 5.752289e-002
6.055385e+002, 5.518752e-002
6.074670e+002, 5.252842e-002
6.093954e+002, 4.968316e-002
6.113239e+002, 4.756616e-002
6.132524e+002, 4.587412e-002
6.151808e+002, 4.423795e-002
6.171093e+002, 4.296441e-002
6.190378e+002, 4.199894e-002
6.209662e+002, 4.093666e-002
6.228947e+002, 4.018861e-002
6.248232e+002, 3.963917e-002
6.267516e+002, 3.916319e-002
6.286801e+002, 3.887089e-002
6.306086e+002, 3.862217e-002
6.325370e+002, 3.819776e-002
6.344655e+002, 3.808438e-002
6.363940e+002, 3.793873e-002
6.383224e+002, 3.793167e-002
6.402509e+002, 3.814883e-002
6.421794e+002, 3.809239e-002
6.441078e+002, 3.828292e-002
6.460363e+002, 3.882898e-002
6.479648e+002, 3.892118e-002
6.498932e+002, 3.882138e-002
6.518217e+002, 3.902449e-002
6.537502e+002, 3.933357e-002
6.556786e+002, 3.950385e-002
6.576071e+002, 3.977978e-002
6.595356e+002, 4.011627e-002
6.614641e+002, 4.035506e-002
6.633925e+002, 4.059632e-002
6.653210e+002, 4.076150e-002
6.672495e+002, 4.103198e-002
6.691779e+002, 4.103607e-002
6.711064e+002, 4.095715e-002
6.730349e+002, 4.105159e-002
6.749633e+002, 4.123698e-002
6.768918e+002, 4.140847e-002
6.788203e+002, 4.131462e-002
6.807487e+002, 4.134826e-002
6.826772e+002, 4.172460e-002
6.846057e+002, 4.199541e-002
6.865341e+002, 4.218045e-002
6.884626e+002, 4.224086e-002
6.903911e+002, 4.224461e-002
6.923195e+002, 4.261283e-002
6.942480e+002, 4.310748e-002
6.961765e+002, 4.318999e-002
6.981049e+002, 4.318049e-002
7.000334e+002, 4.351490e-002
7.019619e+002, 4.343416e-002
7.038903e+002, 4.339453e-002
7.058188e+002, 4.346618e-002
7.077473e+002, 4.342996e-002
7.096757e+002, 4.328323e-002
7.116042e+002, 4.307796e-002
7.135327e+002, 4.276124e-002
7.154611e+002, 4.248186e-002
7.173896e+002, 4.234781e-002
7.193181e+002, 4.228216e-002
7.212465e+002, 4.204610e-002
7.231750e+002, 4.178944e-002
7.251035e+002, 4.151480e-002
7.270319e+002, 4.094465e-002
7.289604e+002, 4.050772e-002
7.308889e+002, 4.030905e-002
7.328173e+002, 3.986544e-002
7.347458e+002, 3.947270e-002
7.366743e+002, 3.922945e-002
7.386027e+002, 3.886605e-002
7.405312e+002, 3.826370e-002
7.424597e+002, 3.753749e-002
7.443881e+002, 3.684339e-002
7.463166e+002, 3.629034e-002
7.482451e+002, 3.580336e-002
7.501735e+002, 3.535644e-002
7.521020e+002, 3.485145e-002
7.540305e+002, 3.442584e-002
7.559589e+002, 3.417943e-002
7.578874e+002, 3.394594e-002
7.598159e+002, 3.371427e-002
7.617443e+002, 3.363747e-002
7.636728e+002, 3.358504e-002
7.656013e+002, 3.378683e-002
7.675297e+002, 3.413810e-002
7.694582e+002, 3.414898e-002
7.713867e+002, 3.426851e-002
7.733151e+002, 3.420743e-002
7.752436e+002, 3.423103e-002
7.771721e+002, 3.435943e-002
7.791005e+002, 3.415493e-002
7.810290e+002, 3.396069e-002
7.829575e+002, 3.379967e-002
7.848859e+002, 3.341148e-002
7.868144e+002, 3.291522e-002
7.887429e+002, 3.258904e-002
7.906713e+002, 3.223426e-002
7.925998e+002, 3.176197e-002
7.945283e+002, 3.113456e-002
7.964567e+002, 3.038613e-002
7.983852e+002, 2.949515e-002
8.003137e+002, 2.845276e-002
8.022421e+002, 2.739702e-002
8.041706e+002, 2.645727e-002
8.060991e+002, 2.551684e-002
8.080275e+002, 2.454929e-002
8.099560e+002, 2.346821e-002
8.118845e+002, 2.239366e-002
8.138129e+002, 2.163613e-002
8.157414e+002, 2.095817e-002
8.176699e+002, 2.043737e-002
8.195983e+002, 2.005770e-002
8.215268e+002, 1.966606e-002
8.234553e+002, 1.950114e-002
8.253837e+002, 1.945166e-002
8.273122e+002, 1.929357e-002
8.292407e+002, 1.907177e-002
8.311691e+002, 1.918240e-002
8.330976e+002, 1.925882e-002
8.350261e+002, 1.934232e-002
8.369545e+002, 1.958886e-002
8.388830e+002, 1.991048e-002
8.408115e+002, 2.011064e-002
8.427399e+002, 2.048765e-002
8.446684e+002, 2.081869e-002
8.465969e+002, 2.115175e-002
8.485253e+002, 2.148001e-002
8.504538e+002, 2.171178e-002
8.523823e+002, 2.203700e-002
8.543107e+002, 2.253580e-002
8.562392e+002, 2.306593e-002
8.581677e+002, 2.377111e-002
8.600961e+002, 2.420576e-002
8.620246e+002, 2.461040e-002
8.639531e+002, 2.511632e-002
8.658815e+002, 2.560047e-002
8.678100e+002, 2.627218e-002
8.697385e+002, 2.696023e-002
8.716669e+002, 2.754371e-002
8.735954e+002, 2.829232e-002
8.755239e+002, 2.920488e-002
8.774523e+002, 3.011149e-002
8.793808e+002, 3.080164e-002
8.813093e+002, 3.160672e-002
8.832377e+002, 3.254557e-002
8.851662e+002, 3.358569e-002
8.870947e+002, 3.466769e-002
8.890231e+002, 3.578998e-002
8.909516e+002, 3.691613e-002
8.928801e+002, 3.810844e-002
8.948085e+002, 3.949912e-002
8.967370e+002, 4.070763e-002
8.986655e+002, 4.199532e-002
9.005939e+002, 4.353459e-002
9.025224e+002, 4.520095e-002
9.044509e+002, 4.704363e-002
9.063793e+002, 4.882564e-002
9.083078e+002, 5.075989e-002
9.102363e+002, 5.280908e-002
9.121647e+002, 5.498866e-002
9.140932e+002, 5.751126e-002
9.160217e+002, 6.010255e-002
9.179501e+002, 6.268709e-002
9.198786e+002, 6.555887e-002
9.218071e+002, 6.867787e-002
9.237355e+002, 7.166493e-002
9.256640e+002, 7.490747e-002
9.275925e+002, 7.878509e-002
9.295209e+002, 8.277062e-002
9.314494e+002, 8.675700e-002
9.333779e+002, 9.099355e-002
9.353063e+002, 9.554977e-002
9.372348e+002, 1.005086e-001
9.391633e+002, 1.057258e-001
9.410917e+002, 1.111845e-001
9.430202e+002, 1.170110e-001
9.449487e+002, 1.230893e-001
9.468771e+002, 1.293232e-001
9.488056e+002, 1.358118e-001
9.507341e+002, 1.424884e-001
9.526625e+002, 1.491684e-001
9.545910e+002, 1.559343e-001
9.565195e+002, 1.630679e-001
9.584479e+002, 1.699491e-001
9.603764e+002, 1.763217e-001
9.623049e+002, 1.823203e-001
9.642333e+002, 1.883326e-001
9.661618e+002, 1.940439e-001
9.680903e+002, 1.990141e-001
9.700187e+002, 2.034578e-001
9.719472e+002, 2.074125e-001
9.738757e+002, 2.105077e-001
9.758041e+002, 2.133476e-001
9.777326e+002, 2.159140e-001
9.796611e+002, 2.181230e-001
9.815895e+002, 2.199844e-001
9.835180e+002, 2.216958e-001
9.854465e+002, 2.229576e-001
9.873749e+002, 2.236442e-001
9.893034e+002, 2.244743e-001
9.912319e+002, 2.252642e-001
9.931603e+002, 2.256003e-001
9.950888e+002, 2.258391e-001
9.970173e+002, 2.258903e-001
9.989457e+002, 2.255405e-001
1.000874e+003, 2.251537e-001
1.002803e+003, 2.245423e-001
1.004731e+003, 2.237023e-001
1.006660e+003, 2.231746e-001
1.008588e+003, 2.224184e-001
1.010517e+003, 2.208880e-001
1.012445e+003, 2.190817e-001
1.014373e+003, 2.172861e-001
1.016302e+003, 2.153308e-001
1.018230e+003, 2.134493e-001
1.020159e+003, 2.110534e-001
1.022087e+003, 2.083291e-001
1.024016e+003, 2.056693e-001
1.025944e+003, 2.025562e-001
1.027873e+003, 1.995945e-001
1.029801e+003, 1.965905e-001
1.031730e+003, 1.930535e-001
1.033658e+003, 1.897087e-001
1.035587e+003, 1.863466e-001
1.037515e+003, 1.828665e-001
1.039443e+003, 1.791994e-001
1.041372e+003, 1.755784e-001
1.043300e+003, 1.720178e-001
1.045229e+003, 1.681351e-001
1.047157e+003, 1.645056e-001
1.049086e+003, 1.608268e-001
1.051014e+003, 1.568253e-001
1.052943e+003, 1.529719e-001
1.054871e+003, 1.489529e-001
1.056800e+003, 1.449483e-001
1.058728e+003, 1.406194e-001
1.060657e+003, 1.360444e-001
1.062585e+003, 1.315546e-001
1.064514e+003, 1.272188e-001
1.066442e+003, 1.228635e-001
1.068370e+003, 1.186433e-001
1.070299e+003, 1.146058e-001
1.072227e+003, 1.106794e-001
1.074156e+003, 1.070397e-001
1.076084e+003, 1.037582e-001
1.078013e+003, 1.007440e-001
1.079941e+003, 9.789152e-002
1.081870e+003, 9.510145e-002
1.083798e+003, 9.266741e-002
1.085727e+003, 9.075547e-002
1.087655e+003, 8.894487e-002
1.089584e+003, 8.712235e-002
1.091512e+003, 8.542781e-002
1.093441e+003, 8.418602e-002
1.095369e+003, 8.316184e-002
1.097297e+003, 8.213965e-002
1.099226e+003, 8.123817e-002
1.101154e+003, 8.059099e-002
1.103083e+003, 8.041353e-002
1.105011e+003, 8.034918e-002
1.106940e+003, 8.007455e-002
1.108868e+003, 8.012129e-002
1.110797e+003, 8.052318e-002
1.112725e+003, 8.081599e-002
1.114654e+003, 8.131842e-002
1.116582e+003, 8.200055e-002
1.118511e+003, 8.249650e-002
1.120439e+003, 8.293658e-002
1.122368e+003, 8.358401e-002
1.124296e+003, 8.421458e-002
1.126224e+003, 8.445285e-002
1.128153e+003, 8.476397e-002
1.130081e+003, 8.491194e-002
1.132010e+003, 8.477575e-002
1.133938e+003, 8.467437e-002
1.135867e+003, 8.443819e-002
1.137795e+003, 8.392941e-002
1.139724e+003, 8.329988e-002
1.141652e+003, 8.240896e-002
1.143581e+003, 8.135195e-002
1.145509e+003, 8.012287e-002
1.147438e+003, 7.892464e-002
1.149366e+003, 7.771979e-002
1.151295e+003, 7.637578e-002
1.153223e+003, 7.489968e-002
1.155151e+003, 7.334302e-002
1.157080e+003, 7.169917e-002
1.159008e+003, 7.003569e-002
1.160937e+003, 6.851670e-002
1.162865e+003, 6.700675e-002
1.164794e+003, 6.563348e-002
1.166722e+003, 6.424995e-002
1.168651e+003, 6.279829e-002
1.170579e+003, 6.142053e-002
1.172508e+003, 5.986032e-002
1.174436e+003, 5.831419e-002
1.176365e+003, 5.685454e-002
1.178293e+003, 5.519828e-002
1.180222e+003, 5.346709e-002
1.182150e+003, 5.190365e-002
1.184078e+003, 5.016237e-002
1.186007e+003, 4.822563e-002
1.187935e+003, 4.606781e-002
1.189864e+003, 4.362638e-002
1.191792e+003, 4.116016e-002
1.193721e+003, 3.882127e-002
1.195649e+003, 3.630105e-002
1.197578e+003, 3.368174e-002
1.199506e+003, 3.129147e-002
1.201435e+003, 2.892383e-002
1.203363e+003, 2.672590e-002
1.205292e+003, 2.490151e-002
1.207220e+003, 2.297725e-002
1.209149e+003, 2.127168e-002
1.211077e+003, 1.989605e-002
1.213005e+003, 1.868038e-002
1.214934e+003, 1.749722e-002
1.216862e+003, 1.644611e-002
1.218791e+003, 1.554226e-002
1.220719e+003, 1.471494e-002
1.222648e+003, 1.401688e-002
1.224576e+003, 1.336886e-002
1.226505e+003, 1.269898e-002
1.228433e+003, 1.211166e-002
1.230362e+003, 1.178398e-002
1.232290e+003, 1.138166e-002
1.234219e+003, 1.088661e-002
1.236147e+003, 1.048554e-002
1.238076e+003, 1.021610e-002
1.240004e+003, 9.832303e-003
1.241932e+003, 9.455428e-003
1.243861e+003, 9.143176e-003
1.245789e+003, 8.841600e-003
1.247718e+003, 8.618698e-003
1.249646e+003, 8.474723e-003
1.251575e+003, 8.330442e-003
1.253503e+003, 8.080500e-003
1.255432e+003, 7.923520e-003
1.257360e+003, 7.734592e-003
1.259289e+003, 7.618388e-003
1.261217e+003, 7.414568e-003
1.263146e+003, 7.068939e-003
1.265074e+003, 6.837414e-003
1.267003e+003, 6.733025e-003
1.268931e+003, 6.700269e-003
1.270859e+003, 6.547680e-003
1.272788e+003, 6.403611e-003
1.274716e+003, 6.153240e-003
1.276645e+003, 5.932644e-003
1.278573e+003, 5.880185e-003
1.280502e+003, 5.911198e-003
1.282430e+003, 5.958175e-003
1.284359e+003, 5.959160e-003
1.286287e+003, 5.955040e-003
1.288216e+003, 5.799611e-003
1.290144e+003, 5.686494e-003
1.292073e+003, 5.680312e-003
1.294001e+003, 5.595581e-003
1.295930e+003, 5.427209e-003
1.297858e+003, 5.367674e-003
1.299786e+003, 5.397896e-003
1.301715e+003, 5.316461e-003
1.303643e+003, 5.292409e-003
1.305572e+003, 5.194391e-003
1.307500e+003, 5.292600e-003
1.309429e+003, 5.449513e-003
1.311357e+003, 5.350242e-003
1.313286e+003, 5.295204e-003
1.315214e+003, 5.267696e-003
1.317143e+003, 5.170903e-003
1.319071e+003, 5.235880e-003
1.321000e+003, 5.293747e-003
1.322928e+003, 5.256390e-003
1.324857e+003, 5.140280e-003
1.326785e+003, 4.972223e-003
1.328714e+003, 4.946855e-003
1.330642e+003, 5.012459e-003
1.332570e+003, 5.166785e-003
1.334499e+003, 5.313052e-003
1.336427e+003, 5.249006e-003
1.338356e+003, 5.149949e-003
1.340284e+003, 5.025572e-003
1.342213e+003, 4.977314e-003
1.344141e+003, 5.211730e-003
1.346070e+003, 5.286029e-003
1.347998e+003, 5.210995e-003
1.349927e+003, 5.112725e-003
1.351855e+003, 5.011773e-003
1.353784e+003, 5.059500e-003
1.355712e+003, 5.043185e-003
1.357641e+003, 5.020550e-003
1.359569e+003, 5.151128e-003
1.361497e+003, 5.401479e-003
1.363426e+003, 5.565835e-003
1.365354e+003, 5.610691e-003
1.367283e+003, 5.550021e-003
1.369211e+003, 5.465908e-003
1.371140e+003, 5.392271e-003
1.373068e+003, 5.419688e-003
1.374997e+003, 5.547486e-003
1.376925e+003, 5.619092e-003
1.378854e+003, 5.550042e-003
1.380782e+003, 5.501655e-003
1.382711e+003, 5.624616e-003
1.384639e+003, 5.433275e-003
1.386568e+003, 5.244462e-003
1.388496e+003, 5.216399e-003
1.390424e+003, 5.223549e-003
1.392353e+003, 5.214420e-003
1.394281e+003, 5.243268e-003
1.396210e+003, 5.143539e-003
1.398138e+003, 5.256423e-003
1.400067e+003, 5.280197e-003
1.401995e+003, 5.166083e-003
1.403924e+003, 5.204435e-003
1.405852e+003, 5.059164e-003
1.407781e+003, 5.059292e-003
1.409709e+003, 5.241214e-003
1.411638e+003, 5.246878e-003
1.413566e+003, 5.235632e-003
1.415495e+003, 5.155568e-003
1.417423e+003, 5.184759e-003
1.419351e+003, 5.175794e-003
1.421280e+003, 5.100072e-003
1.423208e+003, 5.188264e-003
1.425137e+003, 5.196919e-003
1.427065e+003, 5.242055e-003
1.428994e+003, 5.380472e-003
1.430922e+003, 5.414473e-003
1.432851e+003, 5.564462e-003
1.434779e+003, 5.565489e-003
1.436708e+003, 5.579131e-003
1.438636e+003, 5.731455e-003
1.440565e+003, 5.749027e-003
1.442493e+003, 5.725290e-003
1.444422e+003, 5.822888e-003
1.446350e+003, 5.999505e-003
1.448278e+003, 6.050589e-003
1.450207e+003, 6.129490e-003
1.452135e+003, 6.208545e-003
1.454064e+003, 6.211796e-003
1.455992e+003, 6.220539e-003
1.457921e+003, 6.129135e-003
1.459849e+003, 6.053068e-003
1.461778e+003, 6.214541e-003
1.463706e+003, 6.224466e-003
1.465635e+003, 6.100199e-003
1.467563e+003, 5.910432e-003
1.469492e+003, 5.612237e-003
1.471420e+003, 5.559174e-003
1.473349e+003, 5.511177e-003
1.475277e+003, 5.369442e-003
1.477205e+003, 5.289956e-003
1.479134e+003, 5.238924e-003
1.481062e+003, 5.145303e-003
1.482991e+003, 5.152421e-003
1.484919e+003, 5.211710e-003
1.486848e+003, 5.255501e-003
1.488776e+003, 5.207938e-003
1.490705e+003, 5.292529e-003
1.492633e+003, 5.332009e-003
1.494562e+003, 5.329886e-003
1.496490e+003, 5.294047e-003
1.498419e+003, 5.292079e-003
1.500347e+003, 5.302223e-003
1.502276e+003, 5.345647e-003
1.504204e+003, 5.478872e-003
1.506132e+003, 5.579529e-003
1.508061e+003, 5.447213e-003
1.509989e+003, 5.372434e-003
1.511918e+003, 5.402606e-003
1.513846e+003, 5.392735e-003
1.515775e+003, 5.542441e-003
1.517703e+003, 5.598561e-003
1.519632e+003, 5.611340e-003
1.521560e+003, 5.588938e-003
1.523489e+003, 5.612444e-003
1.525417e+003, 5.831503e-003
1.527346e+003, 5.825223e-003
1.529274e+003, 5.952999e-003
1.531203e+003, 6.062822e-003
1.533131e+003, 6.123137e-003
1.535059e+003, 6.048788e-003
1.536988e+003, 6.142655e-003
1.538916e+003, 6.280344e-003
1.540845e+003, 6.332208e-003
1.542773e+003, 6.295778e-003
1.544702e+003, 6.330713e-003
1.546630e+003, 6.450593e-003
1.548559e+003, 6.599941e-003
1.550487e+003, 6.716267e-003
1.552416e+003, 6.748191e-003
1.554344e+003, 6.757441e-003
1.556273e+003, 6.871025e-003
1.558201e+003, 6.965585e-003
1.560130e+003, 7.040404e-003
1.562058e+003, 6.988640e-003
1.563986e+003, 7.044532e-003
1.565915e+003, 7.207505e-003
1.567843e+003, 7.339178e-003
1.569772e+003, 7.489106e-003
1.571700e+003, 7.731522e-003
1.573629e+003, 7.844083e-003
1.575557e+003, 8.023896e-003
1.577486e+003, 8.152332e-003
1.579414e+003, 8.120715e-003
1.581343e+003, 8.162537e-003
1.583271e+003, 8.369561e-003
1.585200e+003, 8.638762e-003
1.587128e+003, 8.845249e-003
1.589057e+003, 9.049217e-003
1.590985e+003, 9.515069e-003
1.592913e+003, 9.803240e-003
1.594842e+003, 9.978319e-003
1.596770e+003, 1.032200e-002
1.598699e+003, 1.081527e-002
1.600627e+003, 1.127263e-002
1.602556e+003, 1.169337e-002
1.604484e+003, 1.234480e-002
1.606413e+003, 1.307637e-002
1.608341e+003, 1.397762e-002
1.610270e+003, 1.500530e-002
1.612198e+003, 1.626744e-002
1.614127e+003, 1.753505e-002
1.616055e+003, 1.889911e-002
1.617984e+003, 2.061783e-002
1.619912e+003, 2.258597e-002
1.621840e+003, 2.471083e-002
1.623769e+003, 2.669065e-002
1.625697e+003, 2.853788e-002
1.627626e+003, 3.035953e-002
1.629554e+003, 3.211385e-002
1.631483e+003, 3.349186e-002
1.633411e+003, 3.465476e-002
1.635340e+003, 3.546038e-002
1.637268e+003, 3.576182e-002
1.639197e+003, 3.553608e-002
1.641125e+003, 3.483611e-002
1.643054e+003, 3.409125e-002
1.644982e+003, 3.323437e-002
1.646911e+003, 3.205131e-002
1.648839e+003, 3.080137e-002
1.650767e+003, 2.954526e-002
1.652696e+003, 2.826494e-002
1.654624e+003, 2.699487e-002
1.656553e+003, 2.580145e-002
1.658481e+003, 2.472048e-002
1.660410e+003, 2.355832e-002
1.662338e+003, 2.224521e-002
1.664267e+003, 2.118804e-002
1.666195e+003, 2.027860e-002
1.668124e+003, 1.935400e-002
1.670052e+003, 1.825015e-002
1.671981e+003, 1.731517e-002
1.673909e+003, 1.655184e-002
1.675838e+003, 1.580507e-002
1.677766e+003, 1.502710e-002
1.679694e+003, 1.429471e-002
1.681623e+003, 1.379429e-002
1.683551e+003, 1.333066e-002
1.685480e+003, 1.271361e-002
1.687408e+003, 1.219786e-002
1.689337e+003, 1.169448e-002
1.691265e+003, 1.108605e-002
1.693194e+003, 1.046876e-002
1.695122e+003, 1.009725e-002
1.697051e+003, 9.791235e-003
1.698979e+003, 9.287878e-003
1.700908e+003, 8.691157e-003
1.702836e+003, 8.386297e-003
1.704765e+003, 8.077202e-003
1.706693e+003, 7.751524e-003
1.708621e+003, 7.597025e-003
1.710550e+003, 7.345406e-003
1.712478e+003, 6.964699e-003
1.714407e+003, 7.014235e-003
1.716335e+003, 7.325641e-003
1.718264e+003, 7.401494e-003
1.720192e+003, 7.726419e-003
1.722121e+003, 8.144641e-003
1.724049e+003, 8.561588e-003
1.725978e+003, 8.912131e-003
1.727906e+003, 9.377033e-003
1.729835e+003, 9.870174e-003
1.731763e+003, 9.972816e-003
1.733692e+003, 9.938762e-003
1.735620e+003, 9.633759e-003
1.737548e+003, 8.959551e-003
1.739477e+003, 8.115493e-003
1.741405e+003, 7.275109e-003
1.743334e+003, 6.403622e-003
1.745262e+003, 5.548044e-003
1.747191e+003, 4.931860e-003
1.749119e+003, 4.516725e-003
1.751048e+003, 4.207896e-003
1.752976e+003, 4.078923e-003
1.754905e+003, 4.011929e-003
1.756833e+003, 3.778688e-003
1.758762e+003, 3.720070e-003
1.760690e+003, 3.858594e-003
1.762619e+003, 4.025311e-003
1.764547e+003, 4.070458e-003
1.766475e+003, 3.754771e-003
1.768404e+003, 3.516330e-003
1.770332e+003, 3.472978e-003
1.772261e+003, 3.824287e-003
1.774189e+003, 3.941013e-003
1.776118e+003, 3.513499e-003
1.778046e+003, 3.392818e-003
1.779975e+003, 3.476722e-003
1.781903e+003, 3.831264e-003
1.783832e+003, 3.930288e-003
1.785760e+003, 3.763655e-003
1.787689e+003, 3.777543e-003
1.789617e+003, 3.518012e-003
1.791546e+003, 3.420752e-003
1.793474e+003, 3.634751e-003
1.795402e+003, 3.640469e-003
1.797331e+003, 3.514333e-003
1.799259e+003, 3.499616e-003
1.801188e+003, 3.576271e-003
1.803116e+003, 3.444488e-003
1.805045e+003, 3.446747e-003
1.806973e+003, 3.566817e-003
1.808902e+003, 3.361083e-003
1.810830e+003, 3.233033e-003
1.812759e+003, 3.265323e-003
1.814687e+003, 3.194422e-003
1.816616e+003, 3.236756e-003
1.818544e+003, 3.410604e-003
1.820473e+003, 3.498571e-003
1.822401e+003, 3.404776e-003
1.824329e+003, 3.246690e-003
1.826258e+003, 3.178448e-003
1.828186e+003, 3.237463e-003
1.830115e+003, 3.464991e-003
1.832043e+003, 3.403673e-003
1.833972e+003, 2.999405e-003
1.835900e+003, 2.801718e-003
1.837829e+003, 2.999764e-003
1.839757e+003, 2.822877e-003
1.841686e+003, 2.905704e-003
1.843614e+003, 3.203346e-003
1.845543e+003, 3.299430e-003
1.847471e+003, 2.988132e-003
1.849400e+003, 2.890532e-003
1.851328e+003, 2.986349e-003
1.853256e+003, 2.920578e-003
1.855185e+003, 2.899445e-003
1.857113e+003, 2.913784e-003
1.859042e+003, 2.900017e-003
1.860970e+003, 2.797669e-003
1.862899e+003, 2.816758e-003
1.864827e+003, 2.962507e-003
1.866756e+003, 2.697704e-003
1.868684e+003, 2.773439e-003
1.870613e+003, 2.987560e-003
1.872541e+003, 2.546655e-003
1.874470e+003, 2.025503e-003
1.876398e+003, 2.150970e-003
1.878327e+003, 2.300902e-003
1.880255e+003, 2.447763e-003
1.882183e+003, 2.445439e-003
1.884112e+003, 2.586956e-003
1.886040e+003, 2.490229e-003
1.887969e+003, 2.293388e-003
1.889897e+003, 2.655483e-003
1.891826e+003, 2.881533e-003
1.893754e+003, 2.526430e-003
1.895683e+003, 2.304526e-003
1.897611e+003, 2.048346e-003
1.899540e+003, 1.694115e-003
1.901468e+003, 1.466673e-003
1.903397e+003, 1.532497e-003
1.905325e+003, 1.893341e-003
1.907254e+003, 2.352196e-003
1.909182e+003, 2.179993e-003
1.911110e+003, 1.368713e-003
1.913039e+003, 1.132259e-003
1.914967e+003, 1.454923e-003
1.916896e+003, 1.902308e-003
1.918824e+003, 2.157135e-003
1.920753e+003, 1.695848e-003
1.922681e+003, 1.554695e-003
1.924610e+003, 1.469670e-003
1.926538e+003, 1.195255e-003
1.928467e+003, 1.193955e-003
1.930395e+003, 1.295144e-003
1.932324e+003, 1.786293e-003
1.934252e+003, 2.443070e-003
1.936181e+003, 2.272321e-003
1.938109e+003, 1.976777e-003
1.940037e+003, 1.707459e-003
1.941966e+003, 1.502295e-003
1.943894e+003, 1.952320e-003
1.945823e+003, 1.053245e-003
1.947751e+003, -1.058608e-004
1.949680e+003, 6.809878e-004
1.951608e+003, 1.016801e-003
1.953537e+003, 1.680653e-004
1.955465e+003, -7.157593e-004
1.957394e+003, -2.267910e-005
1.959322e+003, 1.387214e-003
1.961251e+003, 2.473575e-003
1.963179e+003, 2.450995e-003
1.965108e+003, 1.762878e-003
1.967036e+003, 5.767972e-004
1.968964e+003, -4.863963e-004
1.970893e+003, -2.908269e-004
1.972821e+003, 2.056840e-004
1.974750e+003, 4.418925e-004
1.976678e+003, 1.226880e-003
1.978607e+003, 2.470937e-003
1.980535e+003, 3.660452e-003
1.982464e+003, 3.933620e-003
1.984392e+003, 3.441961e-003
1.986321e+003, 2.488722e-003
1.988249e+003, 1.806731e-003
1.990178e+003, 1.324686e-003
1.992106e+003, 4.081824e-005
1.994035e+003, 5.690320e-004
1.995963e+003, 1.665718e-003
1.997891e+003, 1.777789e-003
1.999820e+003, 3.719113e-004
2.001748e+003, -9.498252e-004
2.003677e+003, -8.713380e-004
2.005605e+003, 7.247576e-004
2.007534e+003, 2.943158e-003
2.009462e+003, 2.318851e-003
2.011391e+003, -4.423549e-005
2.013319e+003, -1.331979e-003
2.015248e+003, 3.438964e-004
2.017176e+003, 1.404512e-003
2.019105e+003, 9.770992e-004
2.021033e+003, 1.830379e-004
2.022962e+003, 4.085400e-004
2.024890e+003, 1.255256e-003
2.026818e+003, 6.913731e-004
2.028747e+003, 1.124541e-003
2.030675e+003, 2.821249e-003
2.032604e+003, 1.888584e-003
2.034532e+003, -4.549073e-004
2.036461e+003, -6.009212e-004
2.038389e+003, 1.162260e-003
2.040318e+003, 2.224643e-003
2.042246e+003, 1.721793e-003
2.044175e+003, 7.623376e-004
2.046103e+003, 2.049524e-003
2.048031e+003, 3.379079e-003
2.049960e+003, 2.833602e-003
2.051888e+003, 1.559181e-003
2.053817e+003, 4.598072e-004
2.055745e+003, 1.883110e-003
2.057674e+003, 3.171640e-003
2.059602e+003, 2.209175e-003
2.061531e+003, 1.440739e-003
2.063459e+003, 9.868979e-004
2.065388e+003, 1.608155e-003
2.067316e+003, 2.424642e-003
2.069245e+003, 2.875769e-003
2.071173e+003, 3.585755e-003
2.073102e+003, 3.101642e-003
2.075030e+003, 2.099557e-003
2.076958e+003, 2.315728e-003
2.078887e+003, 2.775167e-003
2.080815e+003, 3.106955e-003
2.082744e+003, 2.774350e-003
2.084672e+003, 2.363487e-003
2.086601e+003, 1.922322e-003
2.088529e+003, 1.972586e-003
2.090458e+003, 2.106412e-003
2.092386e+003, 2.394942e-003
2.094315e+003, 1.919716e-003
2.096243e+003, 1.555625e-003
2.098172e+003, 2.432615e-003
2.100100e+003, 2.608966e-003
2.102029e+003, 2.419970e-003
2.103957e+003, 3.214695e-003
2.105885e+003, 3.455139e-003
2.107814e+003, 3.081961e-003
2.109742e+003, 3.326357e-003
2.111671e+003, 3.985937e-003
2.113599e+003, 3.536351e-003
2.115528e+003, 3.430331e-003
2.117456e+003, 2.894566e-003
2.119385e+003, 2.911609e-003
2.121313e+003, 3.541360e-003
2.123242e+003, 3.888249e-003
2.125170e+003, 3.836904e-003
2.127099e+003, 3.257517e-003
2.129027e+003, 1.997679e-003
2.130956e+003, 1.801981e-003
2.132884e+003, 2.727954e-003
2.134813e+003, 4.184687e-003
2.136741e+003, 4.396422e-003
2.138669e+003, 3.436415e-003
2.140598e+003, 2.954641e-003
2.142526e+003, 3.443416e-003
2.144455e+003, 3.675568e-003
2.146383e+003, 3.768869e-003
2.148312e+003, 4.099220e-003
2.150240e+003, 4.082966e-003
2.152169e+003, 5.174157e-003
2.154097e+003, 5.489578e-003
2.156026e+003, 5.614774e-003
2.157954e+003, 5.287689e-003
2.159883e+003, 6.119058e-003
2.161811e+003, 6.459315e-003
2.163740e+003, 7.144177e-003
2.165668e+003, 8.460732e-003
2.167596e+003, 7.152075e-003
2.169525e+003, 4.959458e-003
2.171453e+003, 5.377236e-003
2.173382e+003, 6.509684e-003
2.175310e+003, 5.989062e-003
2.177239e+003, 6.095274e-003
2.179167e+003, 6.530210e-003
2.181096e+003, 6.251298e-003
2.183024e+003, 5.925854e-003
2.184953e+003, 6.622588e-003
2.186881e+003, 6.690281e-003
2.188810e+003, 6.177860e-003
2.190738e+003, 5.616675e-003
2.192667e+003, 5.556308e-003
2.194595e+003, 5.898119e-003
2.196523e+003, 5.898667e-003
2.198452e+003, 4.925511e-003
2.200380e+003, 5.442040e-003
2.202309e+003, 5.786080e-003
2.204237e+003, 5.770287e-003
2.206166e+003, 5.563654e-003
2.208094e+003, 4.948474e-003
2.210023e+003, 5.289101e-003
2.211951e+003, 4.967770e-003
2.213880e+003, 4.604300e-003
2.215808e+003, 4.854356e-003
2.217737e+003, 4.985598e-003
2.219665e+003, 5.632591e-003
2.221594e+003, 6.268577e-003
2.223522e+003, 6.437292e-003
2.225450e+003, 4.945876e-003
2.227379e+003, 4.615262e-003
2.229307e+003, 5.133291e-003
2.231236e+003, 5.269719e-003
2.233164e+003, 5.039191e-003
2.235093e+003, 5.646150e-003
2.237021e+003, 5.911203e-003
2.238950e+003, 4.926008e-003
2.240878e+003, 4.080918e-003
2.242807e+003, 4.485114e-003
2.244735e+003, 4.428988e-003
2.246664e+003, 4.215405e-003
2.248592e+003, 4.388779e-003
2.250521e+003, 4.860233e-003
2.252449e+003, 4.692483e-003
2.254377e+003, 4.556708e-003
2.256306e+003, 4.271915e-003
2.258234e+003, 3.826160e-003
2.260163e+003, 3.825511e-003
2.262091e+003, 4.316234e-003
2.264020e+003, 4.692303e-003
2.265948e+003, 4.245379e-003
2.267877e+003, 3.882512e-003
2.269805e+003, 4.149425e-003
2.271734e+003, 4.366458e-003
2.273662e+003, 4.677633e-003
2.275591e+003, 4.477538e-003
2.277519e+003, 4.220314e-003
2.279448e+003, 4.768905e-003
2.281376e+003, 5.290218e-003
2.283304e+003, 5.170265e-003
2.285233e+003, 4.812383e-003
2.287161e+003, 4.727517e-003
2.289090e+003, 4.499884e-003
2.291018e+003, 4.454839e-003
2.292947e+003, 4.653995e-003
2.294875e+003, 4.462164e-003
2.296804e+003, 4.409891e-003
2.298732e+003, 4.572470e-003
2.300661e+003, 4.671978e-003
2.302589e+003, 4.866343e-003
2.304518e+003, 4.839464e-003
2.306446e+003, 4.480137e-003
2.308375e+003, 4.169842e-003
2.310303e+003, 4.347780e-003
2.312231e+003, 4.470755e-003
2.314160e+003, 4.262510e-003
2.316088e+003, 4.487106e-003
2.318017e+003, 4.396666e-003
2.319945e+003, 4.724994e-003
2.321874e+003, 5.158341e-003
2.323802e+003, 5.160187e-003
2.325731e+003, 4.314045e-003
2.327659e+003, 3.828917e-003
2.329588e+003, 3.764347e-003
2.331516e+003, 3.841397e-003
2.333445e+003, 4.041744e-003
2.335373e+003, 4.480342e-003
2.337302e+003, 4.613733e-003
2.339230e+003, 3.985150e-003
2.341158e+003, 3.715447e-003
2.343087e+003, 3.960621e-003
2.345015e+003, 3.691744e-003
2.346944e+003, 3.945729e-003
2.348872e+003, 4.240416e-003
2.350801e+003, 3.967823e-003
2.352729e+003, 3.838960e-003
2.354658e+003, 4.162244e-003
2.356586e+003, 4.481189e-003
2.358515e+003, 4.286330e-003
2.360443e+003, 3.743168e-003
2.362372e+003, 3.820899e-003
2.364300e+003, 3.886454e-003
2.366229e+003, 3.521173e-003
2.368157e+003, 3.539817e-003
2.370085e+003, 3.861132e-003
2.372014e+003, 3.823067e-003
2.373942e+003, 3.726768e-003
2.375871e+003, 3.560003e-003
2.377799e+003, 3.228812e-003
2.379728e+003, 3.269772e-003
2.381656e+003, 3.338823e-003
2.383585e+003, 3.430156e-003
2.385513e+003, 3.805615e-003
2.387442e+003, 3.504263e-003
2.389370e+003, 3.319716e-003
2.391299e+003, 3.999646e-003
2.393227e+003, 4.358040e-003
2.395156e+003, 4.202197e-003
2.397084e+003, 4.044458e-003
2.399012e+003, 4.025802e-003
2.400941e+003, 4.180913e-003
2.402869e+003, 3.580085e-003
2.404798e+003, 3.337153e-003
2.406726e+003, 4.019736e-003
2.408655e+003, 4.289262e-003
2.410583e+003, 4.220425e-003
2.412512e+003, 4.057517e-003
2.414440e+003, 4.380031e-003
2.416369e+003, 4.468226e-003
2.418297e+003, 4.253528e-003
2.420226e+003, 4.142860e-003
2.422154e+003, 4.003665e-003
2.424083e+003, 4.221213e-003
2.426011e+003, 4.579919e-003
2.427939e+003, 4.616022e-003
2.429868e+003, 4.717061e-003
2.431796e+003, 4.900536e-003
2.433725e+003, 4.804950e-003
2.435653e+003, 4.534714e-003
2.437582e+003, 4.000874e-003
2.439510e+003, 3.884639e-003
2.441439e+003, 3.917678e-003
2.443367e+003, 4.014809e-003
2.445296e+003, 4.356927e-003
2.447224e+003, 4.795236e-003
2.449153e+003, 5.163465e-003
2.451081e+003, 5.108541e-003
2.453010e+003, 4.803196e-003
2.454938e+003, 4.508961e-003
2.456866e+003, 4.388031e-003
2.458795e+003, 4.826760e-003
2.460723e+003, 4.931555e-003
2.462652e+003, 4.708745e-003
2.464580e+003, 4.417791e-003
2.466509e+003, 4.534519e-003
2.468437e+003, 4.666703e-003
2.470366e+003, 4.326392e-003
2.472294e+003, 4.850926e-003
2.474223e+003, 5.161113e-003
2.476151e+003, 5.197969e-003
2.478080e+003, 5.507664e-003
2.480008e+003, 5.232523e-003
2.481937e+003, 4.806416e-003
2.483865e+003, 4.238451e-003
2.485793e+003, 4.137575e-003
2.487722e+003, 4.586380e-003
2.489650e+003, 4.794769e-003
2.491579e+003, 4.623633e-003
2.493507e+003, 4.688718e-003
2.495436e+003, 5.059535e-003
2.497364e+003, 4.879348e-003
2.499293e+003, 4.723848e-003
2.501221e+003, 4.499149e-003
2.503150e+003, 4.464584e-003
2.505078e+003, 4.782696e-003
2.507007e+003, 4.691881e-003
2.508935e+003, 4.460347e-003
2.510864e+003, 4.304849e-003
2.512792e+003, 4.479281e-003
2.514720e+003, 5.130324e-003
2.516649e+003, 5.021431e-003
2.518577e+003, 4.443083e-003
2.520506e+003, 4.716795e-003
2.522434e+003, 5.014065e-003
2.524363e+003, 4.841827e-003
2.526291e+003, 4.968715e-003
2.528220e+003, 5.269276e-003
2.530148e+003, 5.072852e-003
2.532077e+003, 5.155214e-003
2.534005e+003, 5.462964e-003
2.535934e+003, 5.731889e-003
2.537862e+003, 5.234310e-003
2.539791e+003, 4.486070e-003
2.541719e+003, 4.326827e-003
2.543647e+003, 4.297382e-003
2.545576e+003, 4.597478e-003
2.547504e+003, 5.159256e-003
2.549433e+003, 5.628077e-003
2.551361e+003, 5.512398e-003
2.553290e+003, 4.966388e-003
2.555218e+003, 5.339053e-003
2.557147e+003, 5.061681e-003
2.559075e+003, 4.337506e-003
2.561004e+003, 4.465520e-003
2.562932e+003, 5.315753e-003
2.564861e+003, 5.487922e-003
2.566789e+003, 4.966422e-003
2.568718e+003, 4.808278e-003
2.570646e+003, 5.158568e-003
2.572574e+003, 5.440802e-003
2.574503e+003, 5.120764e-003
2.576431e+003, 4.592296e-003
2.578360e+003, 4.989902e-003
2.580288e+003, 4.994511e-003
2.582217e+003, 5.110943e-003
2.584145e+003, 5.125357e-003
2.586074e+003, 5.200743e-003
2.588002e+003, 5.678724e-003
2.589931e+003, 5.494035e-003
2.591859e+003, 5.153198e-003
2.593788e+003, 5.475234e-003
2.595716e+003, 5.653922e-003
2.597645e+003, 5.363561e-003
2.599573e+003, 5.307082e-003
2.601501e+003, 5.507293e-003
2.603430e+003, 5.831648e-003
2.605358e+003, 5.436237e-003
2.607287e+003, 5.316333e-003
2.609215e+003, 5.128357e-003
2.611144e+003, 4.845683e-003
2.613072e+003, 5.280902e-003
2.615001e+003, 5.232680e-003
2.616929e+003, 5.015689e-003
2.618858e+003, 5.563821e-003
2.620786e+003, 5.761759e-003
2.622715e+003, 5.585340e-003
2.624643e+003, 5.583175e-003
2.626572e+003, 5.627275e-003
2.628500e+003, 5.453437e-003
2.630428e+003, 5.365776e-003
2.632357e+003, 5.413907e-003
2.634285e+003, 5.419911e-003
2.636214e+003, 5.109598e-003
2.638142e+003, 5.256929e-003
2.640071e+003, 5.539931e-003
2.641999e+003, 5.844787e-003
2.643928e+003, 6.065957e-003
2.645856e+003, 5.586236e-003
2.647785e+003, 5.478741e-003
2.649713e+003, 5.531194e-003
2.651642e+003, 5.880200e-003
2.653570e+003, 5.954501e-003
2.655499e+003, 5.706382e-003
2.657427e+003, 5.651630e-003
2.659355e+003, 5.915938e-003
2.661284e+003, 5.952601e-003
2.663212e+003, 5.506031e-003
2.665141e+003, 5.068186e-003
2.667069e+003, 5.267077e-003
2.668998e+003, 5.446902e-003
2.670926e+003, 5.333691e-003
2.672855e+003, 5.473882e-003
2.674783e+003, 5.688636e-003
2.676712e+003, 5.446909e-003
2.678640e+003, 5.278330e-003
2.680569e+003, 5.481675e-003
2.682497e+003, 5.575032e-003
2.684426e+003, 4.905069e-003
2.686354e+003, 4.837661e-003
2.688282e+003, 5.218042e-003
2.690211e+003, 5.537559e-003
2.692139e+003, 5.563061e-003
2.694068e+003, 5.459013e-003
2.695996e+003, 5.703931e-003
2.697925e+003, 5.743529e-003
2.699853e+003, 5.636657e-003
2.701782e+003, 5.355604e-003
2.703710e+003, 5.276403e-003
2.705639e+003, 5.638912e-003
2.707567e+003, 5.796036e-003
2.709496e+003, 5.560958e-003
2.711424e+003, 5.551774e-003
2.713353e+003, 5.887754e-003
2.715281e+003, 5.772542e-003
2.717209e+003, 5.608778e-003
2.719138e+003, 5.732550e-003
2.721066e+003, 5.913327e-003
2.722995e+003, 5.962699e-003
2.724923e+003, 5.706471e-003
2.726852e+003, 5.692015e-003
2.728780e+003, 5.900139e-003
2.730709e+003, 5.711686e-003
2.732637e+003, 5.740673e-003
2.734566e+003, 6.308182e-003
2.736494e+003, 6.345471e-003
2.738423e+003, 6.343140e-003
2.740351e+003, 5.858478e-003
2.742280e+003, 5.610746e-003
2.744208e+003, 5.683430e-003
2.746136e+003, 5.777779e-003
2.748065e+003, 6.057485e-003
2.749993e+003, 6.034748e-003
2.751922e+003, 6.047815e-003
2.753850e+003, 6.245137e-003
2.755779e+003, 6.043969e-003
2.757707e+003, 5.706666e-003
2.759636e+003, 5.926510e-003
2.761564e+003, 6.132358e-003
2.763493e+003, 6.350845e-003
2.765421e+003, 6.600556e-003
2.767350e+003, 6.574118e-003
2.769278e+003, 6.601618e-003
2.771207e+003, 6.638938e-003
2.773135e+003, 6.339199e-003
2.775063e+003, 6.248263e-003
2.776992e+003, 6.327920e-003
2.778920e+003, 6.028895e-003
2.780849e+003, 5.964216e-003
2.782777e+003, 6.300153e-003
2.784706e+003, 6.338969e-003
2.786634e+003, 6.548990e-003
2.788563e+003, 6.441351e-003
2.790491e+003, 6.341932e-003
2.792420e+003, 6.716392e-003
2.794348e+003, 7.079358e-003
2.796277e+003, 7.099662e-003
2.798205e+003, 7.009936e-003
2.800134e+003, 7.130615e-003
2.802062e+003, 6.924159e-003
2.803990e+003, 6.617297e-003
2.805919e+003, 6.654325e-003
2.807847e+003, 6.367956e-003
2.809776e+003, 6.837757e-003
2.811704e+003, 6.815032e-003
2.813633e+003, 6.537981e-003
2.815561e+003, 6.720246e-003
2.817490e+003, 6.835658e-003
2.819418e+003, 6.951326e-003
2.821347e+003, 6.989016e-003
2.823275e+003, 7.062044e-003
2.825204e+003, 7.554034e-003
2.827132e+003, 7.604746e-003
2.829061e+003, 7.384578e-003
2.830989e+003, 7.412763e-003
2.832917e+003, 7.891892e-003
2.834846e+003, 7.827724e-003
2.836774e+003, 7.906402e-003
2.838703e+003, 7.972877e-003
2.840631e+003, 8.285571e-003
2.842560e+003, 8.519875e-003
2.844488e+003, 8.642419e-003
2.846417e+003, 8.990079e-003
2.848345e+003, 9.279903e-003
2.850274e+003, 9.298218e-003
2.852202e+003, 8.973347e-003
2.854131e+003, 8.543264e-003
2.856059e+003, 8.920077e-003
2.857988e+003, 9.278220e-003
2.859916e+003, 9.202615e-003
2.861844e+003, 9.167206e-003
2.863773e+003, 9.408787e-003
2.865701e+003, 9.929489e-003
2.867630e+003, 9.833754e-003
2.869558e+003, 9.840028e-003
2.871487e+003, 1.008989e-002
2.873415e+003, 1.021064e-002
2.875344e+003, 1.002314e-002
2.877272e+003, 9.968016e-003
2.879201e+003, 1.005214e-002
2.881129e+003, 9.995699e-003
2.883058e+003, 9.705896e-003
2.884986e+003, 9.875909e-003
2.886915e+003, 9.674523e-003
2.888843e+003, 9.693656e-003
2.890771e+003, 9.858673e-003
2.892700e+003, 9.322321e-003
2.894628e+003, 9.599842e-003
2.896557e+003, 1.034757e-002
2.898485e+003, 1.045259e-002
2.900414e+003, 1.067405e-002
2.902342e+003, 1.101018e-002
2.904271e+003, 1.126967e-002
2.906199e+003, 1.125979e-002
2.908128e+003, 1.147265e-002
2.910056e+003, 1.151417e-002
2.911985e+003, 1.112494e-002
2.913913e+003, 1.143335e-002
2.915842e+003, 1.150559e-002
2.917770e+003, 1.154233e-002
2.919698e+003, 1.183665e-002
2.921627e+003, 1.180983e-002
2.923555e+003, 1.202908e-002
2.925484e+003, 1.224579e-002
2.927412e+003, 1.207362e-002
2.929341e+003, 1.235678e-002
2.931269e+003, 1.234751e-002
2.933198e+003, 1.238433e-002
2.935126e+003, 1.188444e-002
2.937055e+003, 1.152792e-002
2.938983e+003, 1.163283e-002
2.940912e+003, 1.176078e-002
2.942840e+003, 1.190975e-002
2.944769e+003, 1.208888e-002
2.946697e+003, 1.172216e-002
2.948625e+003, 1.201081e-002
2.950554e+003, 1.273139e-002
2.952482e+003, 1.350540e-002
2.954411e+003, 1.401404e-002
2.956339e+003, 1.390014e-002
2.958268e+003, 1.338551e-002
2.960196e+003, 1.317061e-002
2.962125e+003, 1.307513e-002
2.964053e+003, 1.314252e-002
2.965982e+003, 1.296906e-002
2.967910e+003, 1.308244e-002
2.969839e+003, 1.261284e-002
2.971767e+003, 1.177828e-002
2.973696e+003, 1.126435e-002
2.975624e+003, 1.087872e-002
2.977552e+003, 1.083706e-002
2.979481e+003, 1.101208e-002
2.981409e+003, 1.065617e-002
2.983338e+003, 9.609586e-003
2.985266e+003, 9.504049e-003
2.987195e+003, 1.023597e-002
2.989123e+003, 1.069441e-002
2.991052e+003, 1.085515e-002
2.992980e+003, 1.111582e-002
2.994909e+003, 1.138017e-002
2.996837e+003, 1.101567e-002
2.998766e+003, 1.055706e-002
3.000694e+003, 1.067073e-002
3.002623e+003, 1.068136e-002
3.004551e+003, 1.093349e-002
3.006479e+003, 1.068904e-002
3.008408e+003, 1.043066e-002
3.010336e+003, 1.071582e-002
3.012265e+003, 1.047693e-002
3.014193e+003, 9.865696e-003
3.016122e+003, 9.712691e-003
3.018050e+003, 9.747553e-003
3.019979e+003, 1.051798e-002
3.021907e+003, 1.123993e-002
3.023836e+003, 1.121250e-002
3.025764e+003, 1.085261e-002
3.027693e+003, 1.083610e-002
3.029621e+003, 1.179651e-002
3.031550e+003, 1.257099e-002
3.033478e+003, 1.249036e-002
3.035406e+003, 1.191570e-002
3.037335e+003, 1.174723e-002
3.039263e+003, 1.205013e-002
3.041192e+003, 1.228786e-002
3.043120e+003, 1.251190e-002
3.045049e+003, 1.267082e-002
3.046977e+003, 1.303457e-002
3.048906e+003, 1.318020e-002
3.050834e+003, 1.361173e-002
3.052763e+003, 1.362049e-002
3.054691e+003, 1.355511e-002
3.056620e+003, 1.350796e-002
3.058548e+003, 1.372969e-002
3.060477e+003, 1.386545e-002
3.062405e+003, 1.429735e-002
3.064333e+003, 1.421774e-002
3.066262e+003, 1.431485e-002
3.068190e+003, 1.479544e-002
3.070119e+003, 1.495724e-002
3.072047e+003, 1.510760e-002
3.073976e+003, 1.519863e-002
3.075904e+003, 1.502980e-002
3.077833e+003, 1.492624e-002
3.079761e+003, 1.478386e-002
3.081690e+003, 1.523418e-002
3.083618e+003, 1.636640e-002
3.085547e+003, 1.630145e-002
3.087475e+003, 1.581816e-002
3.089404e+003, 1.562344e-002
3.091332e+003, 1.581150e-002
3.093260e+003, 1.572571e-002
3.095189e+003, 1.571927e-002
3.097117e+003, 1.624948e-002
3.099046e+003, 1.613733e-002
3.100974e+003, 1.639909e-002
3.102903e+003, 1.746261e-002
3.104831e+003, 1.801523e-002
3.106760e+003, 1.822512e-002
3.108688e+003, 1.785964e-002
3.110617e+003, 1.796843e-002
3.112545e+003, 1.750837e-002
3.114474e+003, 1.727290e-002
3.116402e+003, 1.788607e-002
3.118331e+003, 1.847839e-002
3.120259e+003, 1.846315e-002
3.122188e+003, 1.807743e-002
3.124116e+003, 1.866122e-002
3.126044e+003, 1.932715e-002
3.127973e+003, 1.949684e-002
3.129901e+003, 1.985180e-002
3.131830e+003, 1.977859e-002
3.133758e+003, 2.009692e-002
3.135687e+003, 2.075541e-002
3.137615e+003, 2.055778e-002
3.139544e+003, 1.985560e-002
3.141472e+003, 1.986490e-002
3.143401e+003, 2.022911e-002
3.145329e+003, 2.075900e-002
3.147258e+003, 2.158546e-002
3.149186e+003, 2.178903e-002
3.151115e+003, 2.214927e-002
3.153043e+003, 2.246986e-002
3.154971e+003, 2.210032e-002
3.156900e+003, 2.279202e-002
3.158828e+003, 2.337332e-002
3.160757e+003, 2.280517e-002
3.162685e+003, 2.302192e-002
3.164614e+003, 2.388299e-002
3.166542e+003, 2.392994e-002
3.168471e+003, 2.430325e-002
3.170399e+003, 2.502873e-002
3.172328e+003, 2.461647e-002
3.174256e+003, 2.341219e-002
3.176185e+003, 2.423400e-002
3.178113e+003, 2.533459e-002
3.180042e+003, 2.591923e-002
3.181970e+003, 2.583157e-002
3.183898e+003, 2.582083e-002
3.185827e+003, 2.623236e-002
3.187755e+003, 2.650945e-002
3.189684e+003, 2.664665e-002
3.191612e+003, 2.684038e-002
3.193541e+003, 2.661189e-002
3.195469e+003, 2.598440e-002
3.197398e+003, 2.636481e-002
3.199326e+003, 2.778195e-002
3.201255e+003, 2.860016e-002
3.203183e+003, 2.808746e-002
3.205112e+003, 2.744055e-002
3.207040e+003, 2.739426e-002
3.208969e+003, 2.836296e-002
3.210897e+003, 2.885635e-002
3.212825e+003, 2.847767e-002
3.214754e+003, 2.850287e-002
3.216682e+003, 2.930083e-002
3.218611e+003, 3.001954e-002
3.220539e+003, 3.054420e-002
3.222468e+003, 3.096879e-002
3.224396e+003, 3.129138e-002
3.226325e+003, 3.075845e-002
3.228253e+003, 2.996028e-002
3.230182e+003, 2.972132e-002
3.232110e+003, 2.993494e-002
3.234039e+003, 3.042658e-002
3.235967e+003, 3.074196e-002
3.237896e+003, 3.077218e-002
3.239824e+003, 3.072595e-002
3.241752e+003, 3.119809e-002
3.243681e+003, 3.118563e-002
3.245609e+003, 3.076475e-002
3.247538e+003, 3.120160e-002
3.249466e+003, 3.117165e-002
3.251395e+003, 3.125574e-002
3.253323e+003, 3.225585e-002
3.255252e+003, 3.200999e-002
3.257180e+003, 3.170285e-002
3.259109e+003, 3.172036e-002
3.261037e+003, 3.129052e-002
3.262966e+003, 3.122288e-002
3.264894e+003, 3.097689e-002
3.266823e+003, 3.068044e-002
3.268751e+003, 3.040238e-002
3.270679e+003, 3.082266e-002
3.272608e+003, 3.126303e-002
3.274536e+003, 3.121764e-002
3.276465e+003, 3.085529e-002
3.278393e+003, 3.143498e-002
3.280322e+003, 3.182959e-002
3.282250e+003, 3.187906e-002
3.284179e+003, 3.183565e-002
3.286107e+003, 3.190417e-002
3.288036e+003, 3.149701e-002
3.289964e+003, 3.183218e-002
3.291893e+003, 3.198362e-002
3.293821e+003, 3.145401e-002
3.295750e+003, 3.152383e-002
3.297678e+003, 3.250191e-002
3.299606e+003, 3.312826e-002
3.301535e+003, 3.272380e-002
3.303463e+003, 3.297850e-002
3.305392e+003, 3.352136e-002
3.307320e+003, 3.282619e-002
3.309249e+003, 3.208701e-002
3.311177e+003, 3.194458e-002
3.313106e+003, 3.181857e-002
3.315034e+003, 3.249097e-002
3.316963e+003, 3.322864e-002
3.318891e+003, 3.284038e-002
3.320820e+003, 3.254102e-002
3.322748e+003, 3.340273e-002
3.324677e+003, 3.368162e-002
3.326605e+003, 3.341152e-002
3.328533e+003, 3.312005e-002
3.330462e+003, 3.281248e-002
3.332390e+003, 3.312477e-002
3.334319e+003, 3.368532e-002
3.336247e+003, 3.403743e-002
3.338176e+003, 3.391994e-002
3.340104e+003, 3.370103e-002
3.342033e+003, 3.385679e-002
3.343961e+003, 3.476173e-002
3.345890e+003, 3.542262e-002
3.347818e+003, 3.616412e-002
3.349747e+003, 3.593642e-002
3.351675e+003, 3.528266e-002
3.353604e+003, 3.493058e-002
3.355532e+003, 3.496076e-002
3.357460e+003, 3.556786e-002
3.359389e+003, 3.610626e-002
3.361317e+003, 3.615308e-002
3.363246e+003, 3.514002e-002
3.365174e+003, 3.532803e-002
3.367103e+003, 3.639048e-002
3.369031e+003, 3.673049e-002
3.370960e+003, 3.657740e-002
3.372888e+003, 3.594908e-002
3.374817e+003, 3.628305e-002
3.376745e+003, 3.634066e-002
3.378674e+003, 3.629895e-002
3.380602e+003, 3.639390e-002
3.382531e+003, 3.647505e-002
3.384459e+003, 3.641084e-002
3.386387e+003, 3.622407e-002
3.388316e+003, 3.619863e-002
3.390244e+003, 3.674402e-002
3.392173e+003, 3.708965e-002
3.394101e+003, 3.749304e-002
3.396030e+003, 3.717858e-002
3.397958e+003, 3.650832e-002
3.399887e+003, 3.663084e-002
3.401815e+003, 3.640676e-002
3.403744e+003, 3.623710e-002
3.405672e+003, 3.618276e-002
3.407601e+003, 3.710316e-002
3.409529e+003, 3.767214e-002
3.411458e+003, 3.728475e-002
3.413386e+003, 3.735993e-002
3.415314e+003, 3.760673e-002
3.417243e+003, 3.809019e-002
3.419171e+003, 3.800274e-002
3.421100e+003, 3.663568e-002
3.423028e+003, 3.596327e-002
3.424957e+003, 3.656791e-002
3.426885e+003, 3.735844e-002
3.428814e+003, 3.709590e-002
3.430742e+003, 3.638911e-002
3.432671e+003, 3.595144e-002
3.434599e+003, 3.674656e-002
3.436528e+003, 3.742679e-002
3.438456e+003, 3.694210e-002
3.440385e+003, 3.641674e-002
3.442313e+003, 3.616402e-002
3.444241e+003, 3.578174e-002
3.446170e+003, 3.577461e-002
3.448098e+003, 3.673939e-002
3.450027e+003, 3.766715e-002
3.451955e+003, 3.725425e-002
3.453884e+003, 3.607182e-002
3.455812e+003, 3.612828e-002
3.457741e+003, 3.621294e-002
3.459669e+003, 3.657085e-002
3.461598e+003, 3.660999e-002
3.463526e+003, 3.570792e-002
3.465455e+003, 3.533437e-002
3.467383e+003, 3.592454e-002
3.469312e+003, 3.596084e-002
3.471240e+003, 3.564642e-002
3.473168e+003, 3.610575e-002
3.475097e+003, 3.552713e-002
3.477025e+003, 3.469357e-002
3.478954e+003, 3.520102e-002
3.480882e+003, 3.591220e-002
3.482811e+003, 3.597033e-002
3.484739e+003, 3.552749e-002
3.486668e+003, 3.578390e-002
3.488596e+003, 3.721625e-002
3.490525e+003, 3.679272e-002
3.492453e+003, 3.594965e-002
3.494382e+003, 3.508824e-002
3.496310e+003, 3.477126e-002
3.498239e+003, 3.494636e-002
3.500167e+003, 3.537292e-002
3.502095e+003, 3.523583e-002
3.504024e+003, 3.508006e-002
3.505952e+003, 3.462746e-002
3.507881e+003, 3.446170e-002
3.509809e+003, 3.451308e-002
3.511738e+003, 3.455877e-002
3.513666e+003, 3.507391e-002
3.515595e+003, 3.554503e-002
3.517523e+003, 3.526462e-002
3.519452e+003, 3.509346e-002
3.521380e+003, 3.490171e-002
3.523309e+003, 3.539667e-002
3.525237e+003, 3.571858e-002
3.527166e+003, 3.520094e-002
3.529094e+003, 3.555004e-002
3.531022e+003, 3.584689e-002
3.532951e+003, 3.528441e-002
3.534879e+003, 3.416035e-002
3.536808e+003, 3.327178e-002
3.538736e+003, 3.369588e-002
3.540665e+003, 3.392479e-002
3.542593e+003, 3.313045e-002
3.544522e+003, 3.382130e-002
3.546450e+003, 3.409096e-002
3.548379e+003, 3.352227e-002
3.550307e+003, 3.264831e-002
3.552236e+003, 3.260144e-002
3.554164e+003, 3.197768e-002
3.556093e+003, 3.131668e-002
3.558021e+003, 3.198160e-002
3.559949e+003, 3.274265e-002
3.561878e+003, 3.353937e-002
3.563806e+003, 3.255240e-002
3.565735e+003, 3.048957e-002
3.567663e+003, 2.995588e-002
3.569592e+003, 3.087580e-002
3.571520e+003, 3.139858e-002
3.573449e+003, 3.129733e-002
3.575377e+003, 3.095340e-002
3.577306e+003, 3.082326e-002
3.579234e+003, 3.080923e-002
3.581163e+003, 2.977681e-002
3.583091e+003, 2.852265e-002
3.585020e+003, 2.835493e-002
3.586948e+003, 2.907264e-002
3.588876e+003, 2.885939e-002
3.590805e+003, 2.838092e-002
3.592733e+003, 2.887843e-002
3.594662e+003, 2.831865e-002
3.596590e+003, 2.675719e-002
3.598519e+003, 2.577784e-002
3.600447e+003, 2.580276e-002
3.602376e+003, 2.527519e-002
3.604304e+003, 2.421773e-002
3.606233e+003, 2.362947e-002
3.608161e+003, 2.406642e-002
3.610090e+003, 2.395426e-002
3.612018e+003, 2.219539e-002
3.613947e+003, 2.021863e-002
3.615875e+003, 1.909290e-002
3.617803e+003, 1.850993e-002
3.619732e+003, 1.765097e-002
3.621660e+003, 1.703172e-002
3.623589e+003, 1.760559e-002
3.625517e+003, 1.633823e-002
3.627446e+003, 1.368756e-002
3.629374e+003, 1.244297e-002
3.631303e+003, 1.265485e-002
3.633231e+003, 1.274806e-002
3.635160e+003, 1.275866e-002
3.637088e+003, 1.114583e-002
3.639017e+003, 8.850394e-003
3.640945e+003, 8.397138e-003
3.642874e+003, 7.739634e-003
3.644802e+003, 6.967794e-003
3.646730e+003, 6.652049e-003
3.648659e+003, 5.427058e-003
3.650587e+003, 3.870183e-003
3.652516e+003, 2.804723e-003
3.654444e+003, 2.655144e-003
3.656373e+003, 3.381137e-003
3.658301e+003, 2.587316e-003
3.660230e+003, 1.565556e-003
3.662158e+003, 2.446304e-003
3.664087e+003, 1.432960e-003
3.666015e+003, 8.829049e-004
3.667944e+003, 1.173724e-003
3.669872e+003, 5.717099e-004
3.671801e+003, 1.195810e-003
3.673729e+003, 1.895414e-003
3.675657e+003, 2.696921e-003
3.677586e+003, 1.976248e-003
3.679514e+003, 4.436140e-004
3.681443e+003, 3.309385e-004
3.683371e+003, 1.623842e-004
3.685300e+003, -5.320433e-004
3.687228e+003, -5.852417e-004
3.689157e+003, 5.563058e-004
3.691085e+003, 9.927626e-004
3.693014e+003, -2.984481e-004
3.694942e+003, -1.674123e-003
3.696871e+003, -1.360900e-003
3.698799e+003, -3.250189e-004
3.700728e+003, -1.978475e-004
3.702656e+003, 1.815748e-004
3.704584e+003, -8.424407e-005
3.706513e+003, -5.096716e-004
3.708441e+003, -6.337876e-004
3.710370e+003, -1.294917e-003
3.712298e+003, -1.742205e-003
3.714227e+003, -1.019284e-003
3.716155e+003, -1.165918e-003
3.718084e+003, -8.811813e-004
3.720012e+003, -7.199484e-005
3.721941e+003, -3.067338e-004
3.723869e+003, -1.413707e-003
3.725798e+003, -2.541184e-003
3.727726e+003, -2.402072e-003
3.729655e+003, -1.059672e-003
3.731583e+003, -5.650802e-004
3.733511e+003, -8.049355e-004
3.735440e+003, -9.204323e-004
3.737368e+003, -3.859597e-004
3.739297e+003, -7.076101e-004
3.741225e+003, -1.753442e-003
3.743154e+003, -1.777438e-003
3.745082e+003, -6.308094e-004
3.747011e+003, -6.124426e-004
3.748939e+003, -1.954009e-003
3.750868e+003, -2.501257e-003
3.752796e+003, -2.394686e-003
3.754725e+003, -2.030069e-003
3.756653e+003, -8.463660e-004
3.758582e+003, -1.372514e-003
3.760510e+003, -1.487172e-003
3.762438e+003, -3.520547e-004
3.764367e+003, -4.316999e-004
3.766295e+003, -1.646781e-003
3.768224e+003, -9.016058e-004
3.770152e+003, 1.510877e-004
3.772081e+003, -6.312680e-004
3.774009e+003, -6.962561e-004
3.775938e+003, -7.356597e-004
3.777866e+003, -9.772758e-004
3.779795e+003, -1.049033e-003
3.781723e+003, -1.382404e-003
3.783652e+003, -1.189360e-003
3.785580e+003, -8.957852e-004
3.787509e+003, -6.237085e-004
3.789437e+003, -7.114066e-004
3.791365e+003, -9.881471e-004
3.793294e+003, -1.306452e-003
3.795222e+003, -9.735079e-004
3.797151e+003, -8.843856e-004
3.799079e+003, -1.270927e-003
3.801008e+003, -5.832211e-004
3.802936e+003, -1.525965e-003
3.804865e+003, -1.488599e-003
3.806793e+003, -1.565000e-003
3.808722e+003, -2.251412e-003
3.810650e+003, -2.037969e-003
3.812579e+003, -2.357824e-003
3.814507e+003, -2.744828e-003
3.816436e+003, -2.460397e-003
3.818364e+003, -3.537628e-003
3.820292e+003, -2.968802e-003
3.822221e+003, -8.676644e-004
3.824149e+003, -3.773220e-004
3.826078e+003, -2.004760e-003
3.828006e+003, -1.586553e-003
3.829935e+003, -1.157788e-003
3.831863e+003, -1.974384e-003
3.833792e+003, -2.094288e-003
3.835720e+003, -2.650978e-003
3.837649e+003, -1.238615e-003
3.839577e+003, -6.211829e-004
3.841506e+003, -1.751893e-003
3.843434e+003, -2.043321e-003
3.845363e+003, -2.453072e-003
3.847291e+003, -2.061713e-003
3.849219e+003, -1.833458e-003
3.851148e+003, -1.690351e-003
3.853076e+003, -1.309190e-003
3.855005e+003, -1.349437e-003
3.856933e+003, -8.164134e-004
3.858862e+003, -1.027060e-003
3.860790e+003, -2.201304e-003
3.862719e+003, -2.007225e-003
3.864647e+003, -1.485450e-003
3.866576e+003, -1.427705e-003
3.868504e+003, -1.586984e-003
3.870433e+003, -2.925872e-003
3.872361e+003, -2.726249e-003
3.874290e+003, -6.953920e-004
3.876218e+003, 8.255375e-005
3.878146e+003, -1.325253e-003
3.880075e+003, -2.383598e-003
3.882003e+003, -2.124426e-003
3.883932e+003, -9.046705e-004
3.885860e+003, 3.595517e-004
3.887789e+003, 7.493977e-004
3.889717e+003, 7.936025e-004
3.891646e+003, -2.408559e-004
3.893574e+003, -1.931249e-004
3.895503e+003, -5.346094e-005
3.897431e+003, -2.662922e-004
3.899360e+003, 3.910148e-005
3.901288e+003, -5.590346e-004
3.903217e+003, -1.236903e-003
3.905145e+003, -1.063355e-003
3.907073e+003, -1.312009e-003
3.909002e+003, -1.248219e-003
3.910930e+003, -1.612925e-003
3.912859e+003, -2.228744e-003
3.914787e+003, -1.590817e-003
3.916716e+003, -2.015914e-003
3.918644e+003, -2.021577e-003
3.920573e+003, -1.478700e-003
3.922501e+003, -1.055406e-003
3.924430e+003, -1.725959e-003
3.926358e+003, -1.540568e-003
3.928287e+003, -1.768495e-003
3.930215e+003, -2.391858e-003
3.932144e+003, -2.367282e-003
3.934072e+003, -1.920070e-003
3.936000e+003, -1.581633e-003
3.937929e+003, -1.891722e-003
3.939857e+003, -1.874140e-003
3.941786e+003, -1.510496e-003
3.943714e+003, -1.565933e-003
3.945643e+003, -4.500924e-004
3.947571e+003, -8.857143e-005
3.949500e+003, -1.129930e-003
3.951428e+003, -1.315596e-003
3.953357e+003, -1.266504e-003
3.955285e+003, -2.340908e-003
3.957214e+003, -1.451162e-003
3.959142e+003, -1.150761e-003
3.961071e+003, -1.995908e-003
3.962999e+003, -2.161744e-003
3.964927e+003, -2.577102e-003
3.966856e+003, -2.374920e-003
3.968784e+003, -5.239537e-004
3.970713e+003, -2.427193e-004
3.972641e+003, -8.427456e-004
3.974570e+003, -9.288345e-004
3.976498e+003, -1.185533e-003
3.978427e+003, -2.050969e-003
3.980355e+003, -2.759212e-003
3.982284e+003, -2.231387e-003
3.984212e+003, -2.507594e-003
3.986141e+003, -2.791804e-003
3.988069e+003, -2.751452e-003
3.989998e+003, -3.158756e-003
3.991926e+003, -3.005789e-003
3.993854e+003, -1.763683e-003
3.995783e+003, -1.337786e-003
3.997711e+003, -2.171569e-003
3.999640e+003, -2.098214e-003
4.001568e+003, 0.000000e+000
##END=



