##NAMES=Strontianite
##RRUFFID=R050564
##IDEAL CHEMISTRY=SrCO_3_
##LOCALITY=Winfield Quarry, Lancaster County, Pennsylvania, USA
##OWNER=RRUFF
##SOURCE=Dave Bunk Minerals
##DESCRIPTION=Colorless prismatic crystals
##STATUS=The identification of this mineral has been confirmed by X-ray diffraction and chemical analysis
##URL=rruff.info/R050564
##MEASURED CHEMISTRY=(Sr_0.85_Ca_0.15_)CO_3_
399.1926, 7.2611161E-03
401.1211, 3.7020729E-03
403.0496, 3.7198709E-03
404.9780, 5.9029781E-03
406.9065, 1.0005090E-02
408.8350, 1.1898390E-02
410.7634, 1.0457020E-02
412.6919, 8.0289012E-03
414.6204, 7.2562280E-03
416.5488, 7.8301700E-03
418.4773, 7.4218889E-03
420.4058, 5.9239590E-03
422.3342, 6.1562350E-03
424.2627, 6.5353499E-03
426.1912, 6.0445662E-03
428.1196, 6.3872188E-03
430.0481, 6.0474658E-03
431.9766, 5.8963131E-03
433.9050, 5.5864090E-03
435.8335, 5.4163672E-03
437.7620, 5.9612282E-03
439.6904, 6.0566822E-03
441.6189, 6.3475389E-03
443.5474, 6.4747990E-03
445.4758, 6.0594650E-03
447.4043, 5.7562399E-03
449.3328, 5.8206371E-03
451.2612, 6.5886271E-03
453.1897, 7.1442928E-03
455.1182, 7.1699750E-03
457.0466, 6.3228691E-03
458.9751, 5.4473402E-03
460.9036, 5.7659140E-03
462.8320, 6.1338162E-03
464.7605, 5.7664299E-03
466.6890, 5.3418041E-03
468.6174, 5.3077368E-03
470.5459, 5.6663691E-03
472.4744, 5.6281332E-03
474.4028, 5.8536869E-03
476.3313, 5.8515710E-03
478.2598, 5.6796232E-03
480.1882, 4.6998691E-03
482.1167, 4.0219361E-03
484.0452, 4.3842290E-03
485.9736, 4.8720911E-03
487.9021, 4.9530580E-03
489.8306, 5.0124950E-03
491.7590, 4.8453342E-03
493.6875, 4.8617078E-03
495.6160, 5.0533400E-03
497.5444, 4.9989242E-03
499.4729, 4.7627711E-03
501.4014, 4.9710702E-03
503.3298, 4.9359198E-03
505.2583, 4.4390601E-03
507.1868, 4.4371239E-03
509.1152, 4.8837210E-03
511.0437, 5.6076599E-03
512.9722, 5.3630052E-03
514.9006, 4.6874480E-03
516.8291, 4.6200850E-03
518.7576, 4.5553641E-03
520.6860, 4.4469861E-03
522.6145, 5.2235522E-03
524.5430, 5.2078119E-03
526.4714, 5.0126761E-03
528.3999, 4.6543111E-03
530.3284, 4.8796530E-03
532.2568, 5.4889219E-03
534.1853, 5.3503048E-03
536.1138, 4.8247012E-03
538.0422, 5.0075040E-03
539.9707, 4.7211228E-03
541.8992, 4.8138420E-03
543.8276, 5.3588310E-03
545.7561, 5.1582698E-03
547.6846, 5.2325712E-03
549.6130, 5.7145539E-03
551.5415, 5.6381542E-03
553.4700, 5.2479538E-03
555.3984, 5.2419952E-03
557.3269, 5.1786280E-03
559.2554, 4.8420741E-03
561.1838, 5.2937311E-03
563.1123, 5.7963058E-03
565.0408, 5.4582632E-03
566.9692, 5.0411881E-03
568.8977, 5.1724138E-03
570.8262, 5.4461430E-03
572.7546, 5.2932869E-03
574.6831, 5.1939050E-03
576.6116, 5.3100609E-03
578.5400, 5.2887611E-03
580.4685, 5.4692579E-03
582.3970, 5.8681811E-03
584.3254, 5.8561852E-03
586.2539, 5.9590158E-03
588.1824, 6.1300481E-03
590.1108, 5.7923808E-03
592.0393, 5.5736289E-03
593.9678, 6.1181639E-03
595.8962, 6.4181429E-03
597.8247, 6.1154440E-03
599.7532, 6.0848189E-03
601.6816, 6.1107720E-03
603.6101, 6.3434690E-03
605.5386, 6.9187391E-03
607.4670, 7.4432329E-03
609.3955, 7.2250068E-03
611.3240, 7.0984112E-03
613.2524, 7.3504099E-03
615.1809, 7.5855781E-03
617.1094, 7.6459828E-03
619.0378, 7.1126348E-03
620.9663, 7.2298381E-03
622.8948, 7.5572929E-03
624.8232, 7.5479709E-03
626.7517, 7.5368481E-03
628.6802, 7.4124630E-03
630.6086, 6.9566742E-03
632.5371, 6.8462621E-03
634.4656, 7.2972132E-03
636.3940, 7.4797962E-03
638.3225, 7.3259599E-03
640.2510, 7.5378800E-03
642.1794, 7.8273062E-03
644.1079, 8.0137448E-03
646.0364, 8.1796329E-03
647.9648, 7.9081794E-03
649.8933, 7.7247578E-03
651.8218, 7.9226214E-03
653.7502, 8.0432016E-03
655.6787, 8.1987977E-03
657.6072, 8.6386716E-03
659.5356, 8.6790761E-03
661.4641, 8.7599661E-03
663.3926, 8.7001966E-03
665.3210, 8.6479289E-03
667.2495, 8.7375166E-03
669.1780, 8.8719986E-03
671.1064, 8.8275820E-03
673.0349, 8.7225074E-03
674.9634, 8.7389983E-03
676.8918, 8.8035269E-03
678.8203, 8.8199209E-03
680.7488, 9.2019634E-03
682.6772, 9.7813997E-03
684.6057, 1.0222500E-02
686.5342, 1.0706580E-02
688.4626, 1.1553630E-02
690.3911, 1.3865890E-02
692.3196, 1.8942069E-02
694.2480, 2.9774761E-02
696.1765, 4.4990160E-02
698.1050, 5.8924139E-02
700.0334, 6.3895680E-02
701.9619, 5.7259500E-02
703.8904, 5.6508951E-02
705.8188, 6.8031304E-02
707.7473, 6.5697022E-02
709.6758, 4.1822080E-02
711.6042, 2.3198700E-02
713.5327, 1.5208180E-02
715.4612, 1.1283120E-02
717.3896, 8.2929134E-03
719.3181, 6.9141672E-03
721.2466, 6.5969098E-03
723.1750, 6.4244601E-03
725.1035, 6.2069050E-03
727.0320, 6.3567031E-03
728.9604, 6.3003800E-03
730.8889, 6.2484760E-03
732.8174, 6.3742138E-03
734.7458, 6.8538999E-03
736.6743, 6.9808150E-03
738.6028, 6.9061299E-03
740.5313, 6.9977301E-03
742.4597, 7.3254211E-03
744.3882, 7.4402150E-03
746.3167, 7.0646051E-03
748.2451, 6.7889881E-03
750.1736, 6.8899249E-03
752.1021, 6.8628420E-03
754.0305, 6.9143241E-03
755.9590, 6.9247931E-03
757.8875, 6.9238651E-03
759.8159, 6.8186601E-03
761.7444, 7.1993722E-03
763.6729, 7.4031972E-03
765.6013, 7.3960819E-03
767.5298, 7.7338219E-03
769.4583, 7.7479579E-03
771.3867, 7.5299400E-03
773.3152, 7.6029869E-03
775.2437, 7.7347648E-03
777.1721, 8.1141554E-03
779.1006, 8.2653919E-03
781.0291, 8.1882253E-03
782.9575, 8.1932414E-03
784.8860, 8.1108436E-03
786.8145, 8.2473289E-03
788.7429, 8.5793165E-03
790.6714, 8.7323505E-03
792.5999, 8.6637670E-03
794.5283, 8.8472711E-03
796.4568, 8.9890873E-03
798.3853, 8.9954035E-03
800.3137, 9.0378728E-03
802.2422, 9.3219820E-03
804.1707, 9.6875886E-03
806.0991, 1.0257240E-02
808.0276, 1.0798650E-02
809.9561, 1.1053540E-02
811.8845, 1.1178500E-02
813.8130, 1.1408410E-02
815.7415, 1.1717030E-02
817.6699, 1.2313070E-02
819.5984, 1.3086940E-02
821.5269, 1.3490610E-02
823.4553, 1.4049090E-02
825.3838, 1.4873010E-02
827.3123, 1.5947910E-02
829.2407, 1.7374400E-02
831.1692, 1.9313660E-02
833.0977, 2.1942940E-02
835.0261, 2.6047170E-02
836.9546, 3.2276731E-02
838.8831, 4.2832799E-02
840.8115, 6.2331911E-02
842.7400, 7.8725092E-02
844.6685, 7.6905213E-02
846.5969, 8.6035669E-02
848.5254, 0.1227101
850.4539, 0.1776002
852.3823, 0.2382345
854.3108, 0.2786874
856.2393, 0.2801561
858.1677, 0.2517426
860.0962, 0.2112345
862.0247, 0.1680744
863.9531, 0.1249817
865.8816, 8.4965996E-02
867.8101, 5.3966101E-02
869.7385, 3.4962121E-02
871.6670, 2.5575129E-02
873.5955, 2.1427620E-02
875.5239, 1.9982660E-02
877.4524, 1.9139569E-02
879.3809, 1.7735040E-02
881.3093, 1.6023850E-02
883.2378, 1.4673960E-02
885.1663, 1.3767300E-02
887.0947, 1.2808920E-02
889.0232, 1.1878200E-02
890.9517, 1.1609090E-02
892.8801, 1.1832090E-02
894.8085, 1.2104740E-02
896.7370, 1.2258390E-02
898.6655, 1.2517160E-02
900.5939, 1.1807020E-02
902.5224, 1.0833910E-02
904.4509, 1.0635430E-02
906.3793, 1.0567210E-02
908.3078, 1.0438340E-02
910.2363, 1.0610540E-02
912.1647, 1.0432600E-02
914.0932, 1.0186330E-02
916.0217, 1.0154670E-02
917.9501, 1.0095680E-02
919.8786, 1.0110860E-02
921.8071, 1.0351170E-02
923.7355, 1.0368120E-02
925.6640, 1.0118110E-02
927.5925, 1.0176760E-02
929.5209, 1.0283430E-02
931.4494, 1.0462050E-02
933.3779, 1.0608290E-02
935.3063, 1.0676570E-02
937.2348, 1.0467790E-02
939.1633, 1.0595440E-02
941.0917, 1.0640980E-02
943.0202, 1.0315960E-02
944.9487, 1.0084670E-02
946.8771, 1.0130710E-02
948.8056, 1.0286900E-02
950.7341, 1.0551980E-02
952.6625, 1.0494320E-02
954.5910, 1.0405040E-02
956.5195, 1.0514770E-02
958.4479, 1.0530950E-02
960.3764, 1.0689490E-02
962.3049, 1.0795430E-02
964.2333, 1.0887590E-02
966.1618, 1.1022340E-02
968.0903, 1.1016650E-02
970.0187, 1.0969740E-02
971.9472, 1.1184100E-02
973.8757, 1.1065030E-02
975.8041, 1.1042340E-02
977.7326, 1.1317540E-02
979.6611, 1.1225370E-02
981.5895, 1.1220050E-02
983.5180, 1.1323000E-02
985.4465, 1.1442080E-02
987.3749, 1.1461140E-02
989.3034, 1.1692420E-02
991.2319, 1.1806380E-02
993.1603, 1.1666790E-02
995.0888, 1.1695070E-02
997.0173, 1.1874640E-02
998.9457, 1.2085270E-02
1000.874, 1.2353950E-02
1002.803, 1.2862800E-02
1004.731, 1.2890270E-02
1006.660, 1.2585540E-02
1008.588, 1.2581650E-02
1010.517, 1.2889570E-02
1012.445, 1.3087690E-02
1014.373, 1.3114110E-02
1016.302, 1.3118570E-02
1018.230, 1.3189900E-02
1020.159, 1.3267860E-02
1022.087, 1.3339700E-02
1024.016, 1.3116900E-02
1025.944, 1.3208050E-02
1027.873, 1.3552490E-02
1029.801, 1.3759940E-02
1031.730, 1.3968250E-02
1033.658, 1.4115330E-02
1035.587, 1.4443590E-02
1037.515, 1.4920310E-02
1039.444, 1.4995500E-02
1041.372, 1.5200600E-02
1043.301, 1.5447170E-02
1045.229, 1.5587500E-02
1047.157, 1.5651479E-02
1049.086, 1.5730031E-02
1051.014, 1.6015060E-02
1052.943, 1.6558129E-02
1054.871, 1.6845521E-02
1056.800, 1.7288931E-02
1058.728, 1.7779790E-02
1060.657, 1.7984290E-02
1062.585, 1.8280219E-02
1064.514, 1.9440630E-02
1066.442, 2.1538351E-02
1068.371, 2.5449900E-02
1070.299, 3.4585029E-02
1072.228, 4.5624949E-02
1074.156, 4.1794449E-02
1076.084, 2.8103750E-02
1078.013, 2.0628590E-02
1079.941, 1.8442459E-02
1081.870, 1.7567201E-02
1083.798, 1.7264770E-02
1085.727, 1.7285449E-02
1087.655, 1.7116969E-02
1089.584, 1.7107571E-02
1091.512, 1.7179210E-02
1093.441, 1.7046019E-02
1095.369, 1.6949920E-02
1097.298, 1.7118920E-02
1099.226, 1.7157990E-02
1101.155, 1.7156780E-02
1103.083, 1.7309019E-02
1105.011, 1.7893489E-02
1106.940, 1.8228959E-02
1108.868, 1.8181231E-02
1110.797, 1.8046189E-02
1112.725, 1.8331310E-02
1114.654, 1.8308120E-02
1116.582, 1.7988499E-02
1118.511, 1.8139660E-02
1120.439, 1.8653510E-02
1122.368, 1.8941021E-02
1124.296, 1.9108061E-02
1126.225, 1.9403029E-02
1128.153, 1.9886101E-02
1130.082, 1.9994229E-02
1132.010, 2.0226540E-02
1133.938, 2.0626720E-02
1135.867, 2.0840719E-02
1137.795, 2.0946020E-02
1139.724, 2.1355679E-02
1141.652, 2.1741390E-02
1143.581, 2.1877781E-02
1145.509, 2.2067839E-02
1147.438, 2.2507681E-02
1149.366, 2.2830740E-02
1151.295, 2.3048820E-02
1153.223, 2.3311149E-02
1155.152, 2.3388110E-02
1157.080, 2.3243209E-02
1159.009, 2.3011981E-02
1160.937, 2.2963470E-02
1162.865, 2.3324041E-02
1164.794, 2.3722010E-02
1166.722, 2.3805730E-02
1168.651, 2.4066800E-02
1170.579, 2.4628410E-02
1172.508, 2.4812991E-02
1174.436, 2.4821069E-02
1176.365, 2.5191849E-02
1178.293, 2.5547421E-02
1180.222, 2.5791969E-02
1182.150, 2.6179530E-02
1184.079, 2.6658069E-02
1186.007, 2.7165700E-02
1187.936, 2.7407249E-02
1189.864, 2.7746100E-02
1191.792, 2.8217500E-02
1193.721, 2.8602310E-02
1195.649, 2.9060870E-02
1197.578, 2.9367400E-02
1199.506, 2.9612681E-02
1201.435, 2.9974760E-02
1203.363, 3.0314760E-02
1205.292, 3.0643510E-02
1207.220, 3.1040380E-02
1209.149, 3.1498030E-02
1211.077, 3.1890139E-02
1213.006, 3.2168791E-02
1214.934, 3.2867022E-02
1216.863, 3.3581041E-02
1218.791, 3.3838019E-02
1220.719, 3.4245372E-02
1222.648, 3.4720499E-02
1224.576, 3.5381399E-02
1226.505, 3.6081471E-02
1228.433, 3.6463700E-02
1230.362, 3.6891140E-02
1232.290, 3.7767880E-02
1234.219, 3.8366869E-02
1236.147, 3.9000761E-02
1238.076, 3.9864991E-02
1240.004, 4.0654790E-02
1241.933, 4.1421499E-02
1243.861, 4.2250309E-02
1245.790, 4.3174099E-02
1247.718, 4.4112429E-02
1249.646, 4.5169380E-02
1251.575, 4.5821778E-02
1253.503, 4.6330109E-02
1255.432, 4.7294009E-02
1257.360, 4.8352890E-02
1259.289, 4.9307071E-02
1261.217, 5.0095141E-02
1263.146, 5.1010769E-02
1265.074, 5.1987741E-02
1267.003, 5.3041801E-02
1268.931, 5.4255549E-02
1270.860, 5.5872042E-02
1272.788, 5.7414599E-02
1274.717, 5.8878541E-02
1276.645, 6.0282171E-02
1278.573, 6.1247341E-02
1280.502, 6.2346611E-02
1282.430, 6.3522890E-02
1284.359, 6.4397193E-02
1286.287, 6.5614991E-02
1288.216, 6.6994309E-02
1290.144, 6.8354338E-02
1292.073, 6.9984838E-02
1294.001, 7.1701281E-02
1295.930, 7.3156543E-02
1297.858, 7.4926071E-02
1299.787, 7.6484263E-02
1301.715, 7.7941932E-02
1303.644, 7.9504967E-02
1305.572, 8.1490733E-02
1307.500, 8.3565712E-02
1309.429, 8.5628137E-02
1311.357, 8.7912641E-02
1313.286, 9.0334207E-02
1315.214, 9.2523336E-02
1317.143, 9.4850890E-02
1319.071, 9.7419113E-02
1321.000, 0.1001274
1322.928, 0.1027649
1324.857, 0.1053235
1326.785, 0.1081533
1328.714, 0.1112497
1330.642, 0.1141407
1332.571, 0.1169442
1334.499, 0.1200195
1336.427, 0.1235512
1338.356, 0.1270297
1340.284, 0.1303601
1342.213, 0.1341733
1344.141, 0.1386462
1346.070, 0.1431398
1347.998, 0.1471452
1349.927, 0.1516787
1351.855, 0.1567544
1353.784, 0.1619720
1355.712, 0.1679652
1357.641, 0.1741591
1359.569, 0.1804016
1361.498, 0.1873759
1363.426, 0.1947485
1365.354, 0.2026574
1367.283, 0.2111019
1369.211, 0.2198374
1371.140, 0.2285911
1373.068, 0.2376799
1374.997, 0.2474743
1376.925, 0.2577088
1378.854, 0.2682500
1380.782, 0.2787515
1382.711, 0.2889493
1384.639, 0.2994463
1386.568, 0.3101026
1388.496, 0.3211448
1390.424, 0.3326465
1392.353, 0.3451969
1394.281, 0.3587806
1396.210, 0.3721887
1398.138, 0.3849007
1400.067, 0.3971073
1401.995, 0.4089417
1403.924, 0.4201213
1405.852, 0.4321988
1407.781, 0.4453266
1409.709, 0.4590506
1411.638, 0.4725262
1413.566, 0.4864405
1415.495, 0.5005130
1417.423, 0.5144522
1419.351, 0.5285390
1421.280, 0.5428781
1423.208, 0.5573027
1425.137, 0.5708539
1427.065, 0.5825076
1428.994, 0.5926985
1430.922, 0.6012063
1432.851, 0.6077338
1434.779, 0.6119677
1436.708, 0.6130764
1438.636, 0.6111608
1440.565, 0.6070564
1442.493, 0.6009493
1444.422, 0.5924418
1446.350, 0.5816354
1448.278, 0.5694255
1450.207, 0.5564864
1452.135, 0.5421228
1454.064, 0.5259038
1455.992, 0.5090517
1457.921, 0.4921544
1459.849, 0.4756578
1461.778, 0.4593973
1463.706, 0.4431124
1465.635, 0.4276115
1467.563, 0.4126351
1469.492, 0.3982829
1471.420, 0.3850280
1473.349, 0.3721994
1475.277, 0.3590627
1477.205, 0.3459678
1479.134, 0.3332678
1481.062, 0.3214757
1482.991, 0.3097937
1484.919, 0.2984239
1486.848, 0.2876332
1488.776, 0.2769296
1490.705, 0.2663242
1492.633, 0.2561968
1494.562, 0.2461910
1496.490, 0.2366317
1498.419, 0.2273452
1500.347, 0.2184985
1502.276, 0.2102120
1504.204, 0.2020119
1506.132, 0.1935840
1508.061, 0.1850142
1509.989, 0.1767548
1511.918, 0.1688277
1513.846, 0.1607654
1515.775, 0.1529536
1517.703, 0.1453548
1519.632, 0.1377520
1521.560, 0.1300785
1523.489, 0.1228474
1525.417, 0.1161913
1527.346, 0.1096564
1529.274, 0.1033107
1531.203, 9.6927859E-02
1533.131, 9.0666018E-02
1535.059, 8.4815383E-02
1536.988, 7.9513587E-02
1538.916, 7.4439898E-02
1540.845, 6.9025166E-02
1542.773, 6.3617744E-02
1544.702, 5.8441039E-02
1546.630, 5.3627510E-02
1548.559, 4.9220592E-02
1550.487, 4.4916529E-02
1552.416, 4.0926371E-02
1554.344, 3.7044670E-02
1556.273, 3.2907229E-02
1558.201, 2.9353339E-02
1560.130, 2.6119331E-02
1562.058, 2.2859890E-02
1563.986, 2.0481469E-02
1565.915, 1.8741990E-02
1567.843, 1.7161790E-02
1569.772, 1.5643420E-02
1571.700, 1.4421150E-02
1573.629, 1.3545130E-02
1575.557, 1.3115480E-02
1577.486, 1.2368570E-02
1579.414, 1.1695580E-02
1581.343, 1.1390680E-02
1583.271, 1.1245060E-02
1585.200, 1.0771480E-02
1587.128, 1.0161330E-02
1589.057, 9.7671598E-03
1590.985, 9.4791809E-03
1592.913, 9.6108606E-03
1594.842, 9.6109761E-03
1596.770, 9.0095270E-03
1598.699, 8.2225604E-03
1600.627, 7.9765338E-03
1602.556, 8.2632983E-03
1604.484, 8.0531901E-03
1606.413, 7.4297171E-03
1608.341, 7.2649010E-03
1610.270, 6.9968249E-03
1612.198, 6.5814019E-03
1614.127, 6.2668808E-03
1616.055, 5.9997472E-03
1617.984, 5.8415239E-03
1619.912, 5.5360538E-03
1621.840, 5.3894888E-03
1623.769, 5.1948419E-03
1625.697, 4.7594928E-03
1627.626, 4.6167141E-03
1629.554, 4.6024011E-03
1631.483, 4.5062169E-03
1633.411, 4.4566970E-03
1635.340, 4.4432571E-03
1637.268, 4.3775332E-03
1639.197, 4.0375032E-03
1641.125, 4.0559252E-03
1643.054, 3.9559039E-03
1644.982, 3.9363760E-03
1646.911, 3.7449121E-03
1648.839, 3.3286279E-03
1650.767, 3.2480110E-03
1652.696, 3.2397029E-03
1654.624, 2.9753300E-03
1656.553, 2.5032491E-03
1658.481, 2.4332670E-03
1660.410, 2.4401811E-03
1662.338, 2.5976680E-03
1664.267, 2.8756759E-03
1666.195, 2.5215871E-03
1668.124, 1.8822880E-03
1670.052, 1.5564880E-03
1671.981, 1.8539811E-03
1673.909, 2.0360800E-03
1675.838, 1.8892670E-03
1677.766, 1.7069790E-03
1679.694, 1.5107620E-03
1681.623, 1.5096490E-03
1683.551, 1.7487070E-03
1685.480, 1.5212820E-03
1687.408, 1.1473460E-03
1689.337, 8.3567208E-04
1691.265, 9.4872707E-04
1693.194, 1.0859889E-03
1695.122, 1.2253310E-03
1697.051, 8.3391479E-04
1698.979, 3.8419431E-04
1700.908, 2.3583930E-04
1702.836, 7.8990997E-06
1704.765, -3.1128389E-04
1706.693, -9.3265151E-04
1708.621, -1.4905520E-03
1710.550, -1.5176870E-03
1712.478, -1.4406280E-03
1714.407, -1.4946350E-03
1716.335, -1.4596510E-03
1718.264, -1.4876000E-03
1720.192, -1.7620890E-03
1722.121, -2.2193941E-03
1724.049, -2.3871460E-03
1725.978, -2.2646191E-03
1727.906, -2.3469990E-03
1729.835, -2.7891060E-03
1731.763, -3.9261379E-03
1733.692, -4.8204190E-03
1735.620, -5.4138759E-03
1737.548, -6.3578752E-03
1739.477, -7.0045958E-03
1741.405, -7.3894011E-03
1743.334, -7.1015619E-03
1745.262, -6.8864208E-03
1747.191, -6.5870490E-03
1749.119, -5.6540710E-03
1751.048, -4.2746598E-03
1752.976, -2.9227620E-03
1754.905, -1.6240031E-03
1756.833, -1.9154830E-04
1758.762, 1.3806130E-03
1760.690, 3.2918400E-03
1762.619, 5.1252511E-03
1764.547, 8.0715735E-03
1766.475, 1.2009020E-02
1768.404, 1.5949501E-02
1770.332, 1.9426379E-02
1772.261, 2.0780571E-02
1774.189, 2.0274481E-02
1776.118, 1.9337241E-02
1778.046, 1.7027421E-02
1779.975, 1.3480930E-02
1781.903, 1.0069900E-02
1783.832, 7.3608742E-03
1785.760, 5.0609680E-03
1787.689, 3.4477990E-03
1789.617, 2.4954351E-03
1791.546, 2.5550581E-03
1793.474, 2.4812589E-03
1795.402, 1.9190930E-03
1797.331, 1.3812990E-03
1799.259, 1.1370620E-03
1801.188, 1.0538941E-03
1803.116, 9.2329842E-04
1805.045, 6.9288770E-04
1806.973, 9.0363412E-04
1808.902, 9.0921891E-04
1810.830, 6.1019801E-04
1812.759, 5.2597612E-04
1814.687, 3.3323921E-04
1816.616, 8.1891310E-04
1818.544, 8.8432571E-04
1820.473, 1.0613120E-03
1822.401, 1.4685600E-03
1824.329, 1.1302660E-03
1826.258, 9.9676312E-04
1828.186, 1.1688099E-03
1830.115, 1.7089481E-03
1832.043, 1.8023080E-03
1833.972, 1.4801370E-03
1835.900, 1.1988420E-03
1837.829, 1.7427590E-03
1839.757, 2.2567010E-03
1841.686, 2.1981800E-03
1843.614, 2.2724590E-03
1845.543, 2.3758430E-03
1847.471, 1.7655210E-03
1849.400, 1.7401590E-03
1851.328, 2.2099351E-03
1853.256, 2.0934059E-03
1855.185, 1.5432620E-03
1857.113, 1.1995670E-03
1859.042, 1.5413481E-03
1860.970, 1.6130700E-03
1862.899, 7.3832530E-04
1864.827, 7.0056057E-04
1866.756, 1.1425520E-03
1868.684, 1.0426100E-03
1870.613, 8.3891139E-04
1872.541, 6.7924039E-04
1874.470, 1.2572440E-03
1876.398, 1.6675590E-03
1878.327, 1.7525330E-03
1880.255, 1.7353530E-03
1882.183, 1.8848260E-03
1884.112, 2.1676931E-03
1886.040, 1.5678030E-03
1887.969, 1.7031670E-03
1889.897, 2.6265960E-03
1891.826, 2.2707230E-03
1893.754, 1.2679161E-03
1895.683, 1.8162529E-03
1897.611, 2.3835970E-03
1899.540, 1.9760190E-03
1901.468, 1.5151070E-03
1903.397, 1.4302770E-03
1905.325, 1.4849131E-03
1907.254, 1.6025320E-03
1909.182, 1.6584080E-03
1911.110, 1.0690710E-03
1913.039, 1.0796700E-03
1914.967, 1.3015009E-03
1916.896, 2.5557410E-03
1918.824, 3.1983380E-03
1920.753, 2.2136141E-03
1922.681, 1.8438440E-03
1924.610, 7.2608271E-04
1926.538, 1.2945971E-03
1928.467, 1.3842130E-03
1930.395, 3.8289870E-04
1932.324, 9.6696062E-04
1934.252, 1.6332440E-03
1936.181, 1.5464290E-03
1938.109, 5.7359238E-04
1940.037, -4.8338130E-05
1941.966, -3.9762381E-04
1943.894, 5.4868602E-04
1945.823, 1.8785720E-03
1947.751, 3.4735261E-03
1949.680, 3.9648381E-03
1951.608, 2.4137450E-03
1953.537, 2.9832171E-04
1955.465, -1.3700320E-03
1957.394, -9.2337711E-04
1959.322, -4.3300712E-05
1961.251, 5.5592589E-04
1963.179, 1.4465289E-03
1965.108, 3.5122101E-04
1967.036, -1.4046880E-03
1968.964, -6.4439111E-04
1970.893, 1.8834030E-03
1972.821, 2.2751940E-03
1974.750, 2.4383220E-04
1976.678, 2.3038739E-03
1978.607, 5.9465589E-03
1980.535, 5.1203622E-03
1982.464, 2.8979259E-03
1984.392, 1.4184280E-03
1986.321, 2.5704521E-04
1988.249, 7.6321291E-04
1990.178, 1.6433350E-03
1992.106, 2.8506950E-03
1994.035, 2.0447811E-03
1995.963, 1.7930350E-03
1997.891, 6.6402362E-04
1999.820, -1.3718670E-03
2001.748, -9.0322259E-04
2003.677, 4.5336201E-04
2005.605, 1.1762950E-03
2007.534, 6.2209589E-04
2009.462, -2.3636150E-05
2011.391, -4.8316651E-05
2013.319, 1.0561800E-03
2015.248, 6.6083769E-04
2017.176, 1.2613089E-04
2019.105, 8.4550207E-04
2021.033, 1.0895270E-03
2022.962, -5.6436511E-05
2024.890, 1.9714070E-04
2026.818, -5.0561182E-04
2028.747, 2.3967400E-04
2030.675, 1.5160100E-03
2032.604, 1.7512450E-03
2034.532, 1.3456970E-03
2036.461, 3.4935870E-03
2038.389, 2.4868711E-03
2040.318, 1.3114050E-03
2042.246, 2.6382981E-03
2044.175, 3.8191311E-03
2046.103, 2.9810211E-03
2048.032, 1.8680310E-03
2049.960, 3.1215230E-03
2051.889, 1.6847550E-03
2053.817, 1.7359060E-03
2055.746, 2.8885270E-03
2057.674, 3.2113381E-03
2059.603, 2.2499999E-03
2061.531, 1.5867390E-03
2063.459, 2.3640259E-03
2065.388, 3.8419941E-03
2067.316, 3.3597620E-03
2069.245, 1.7638530E-03
2071.173, 2.3375661E-03
2073.102, 3.1308429E-03
2075.030, 2.8820329E-03
2076.959, 2.3804570E-03
2078.887, 2.4099480E-03
2080.816, 2.2592121E-03
2082.744, 2.4648630E-03
2084.673, 1.8907910E-03
2086.601, 6.6084991E-04
2088.530, 1.2577079E-03
2090.458, 2.8927601E-03
2092.386, 2.3296720E-03
2094.315, 3.1043191E-03
2096.243, 4.5232852E-03
2098.172, 4.0871799E-03
2100.100, 3.9264821E-03
2102.029, 3.8774170E-03
2103.957, 4.9760859E-03
2105.886, 5.6431750E-03
2107.814, 4.8067230E-03
2109.743, 4.5954101E-03
2111.671, 5.4444009E-03
2113.600, 4.1645770E-03
2115.528, 2.9246390E-03
2117.457, 2.8211020E-03
2119.385, 4.6263640E-03
2121.313, 4.4796239E-03
2123.242, 3.1278541E-03
2125.170, 3.5186000E-03
2127.099, 3.4035090E-03
2129.027, 3.0098960E-03
2130.956, 2.3765799E-03
2132.884, 1.5209590E-03
2134.813, 1.4930021E-03
2136.741, 1.4019229E-04
2138.670, -1.0788960E-03
2140.598, -1.1553860E-03
2142.527, -2.1296910E-03
2144.455, -3.6818599E-03
2146.384, -4.4508958E-03
2148.312, -1.0876710E-03
2150.240, 4.3470279E-04
2152.169, -1.1104220E-03
2154.097, -3.4029090E-03
2156.026, -4.8329919E-03
2157.954, -2.6903921E-03
2159.883, 4.7172830E-03
2161.811, 1.1688330E-02
2163.740, 1.1114070E-02
2165.668, 5.1382729E-03
2167.597, 4.0347888E-03
2169.525, 3.7733200E-03
2171.454, 2.3871220E-03
2173.382, 7.1665662E-04
2175.311, 2.7297409E-03
2177.239, 3.9428361E-03
2179.167, -1.1445450E-03
2181.096, 1.8141139E-04
2183.024, 4.2593731E-03
2184.953, 6.2149721E-03
2186.881, 6.5296842E-03
2188.810, 4.9398839E-03
2190.738, 3.1615919E-03
2192.667, 4.1462490E-03
2194.595, 4.1444190E-03
2196.524, 3.0588079E-03
2198.452, 3.2227160E-03
2200.381, 3.6010430E-03
2202.309, 4.9606669E-03
2204.238, 4.7442052E-03
2206.166, 3.8244971E-03
2208.094, 3.9370018E-03
2210.023, 3.4595390E-03
2211.951, 3.0888210E-03
2213.880, 4.1237399E-03
2215.808, 5.5730199E-03
2217.737, 3.3154290E-03
2219.665, 1.5661200E-03
2221.594, 3.0740029E-03
2223.522, 5.5925688E-03
2225.451, 5.5991248E-03
2227.379, 6.0821418E-03
2229.308, 5.5271080E-03
2231.236, 4.7923578E-03
2233.165, 5.2541490E-03
2235.093, 5.3032138E-03
2237.021, 5.6707328E-03
2238.950, 5.8823400E-03
2240.878, 5.5553471E-03
2242.807, 4.7808411E-03
2244.735, 4.7616330E-03
2246.664, 6.0381708E-03
2248.592, 6.2528360E-03
2250.521, 5.0987219E-03
2252.449, 6.1006560E-03
2254.378, 7.1669430E-03
2256.306, 6.4109331E-03
2258.235, 6.4114421E-03
2260.163, 5.6082769E-03
2262.092, 3.9099329E-03
2264.020, 3.3413379E-03
2265.948, 4.1152448E-03
2267.877, 5.7515949E-03
2269.805, 6.3897138E-03
2271.734, 5.8900970E-03
2273.662, 5.9935478E-03
2275.591, 6.6772681E-03
2277.519, 7.5504100E-03
2279.448, 7.5813849E-03
2281.376, 7.0614358E-03
2283.305, 6.9466410E-03
2285.233, 7.3865498E-03
2287.162, 7.1324669E-03
2289.090, 6.9540851E-03
2291.019, 6.9260788E-03
2292.947, 7.1830312E-03
2294.875, 7.5013749E-03
2296.804, 7.4673472E-03
2298.732, 6.6323788E-03
2300.661, 6.1615878E-03
2302.589, 5.9258901E-03
2304.518, 6.1645419E-03
2306.446, 6.9888029E-03
2308.375, 7.6191770E-03
2310.303, 7.8602862E-03
2312.232, 7.2127311E-03
2314.160, 6.5312469E-03
2316.089, 7.4159298E-03
2318.017, 8.0294386E-03
2319.946, 8.1160087E-03
2321.874, 8.3323317E-03
2323.802, 8.4280707E-03
2325.731, 7.8209015E-03
2327.659, 6.5524229E-03
2329.588, 6.2361858E-03
2331.516, 6.3364180E-03
2333.445, 6.3955761E-03
2335.373, 6.2785349E-03
2337.302, 6.2343939E-03
2339.230, 6.1344970E-03
2341.159, 5.7302280E-03
2343.087, 6.0347221E-03
2345.016, 6.1806249E-03
2346.944, 5.4319371E-03
2348.873, 5.5367141E-03
2350.801, 6.2754960E-03
2352.729, 6.5240599E-03
2354.658, 6.0964669E-03
2356.586, 5.9360461E-03
2358.515, 5.9411400E-03
2360.443, 5.6086550E-03
2362.372, 6.3578151E-03
2364.300, 5.7998700E-03
2366.229, 5.4833498E-03
2368.157, 6.2879589E-03
2370.086, 6.6302000E-03
2372.014, 6.5812538E-03
2373.942, 6.5349909E-03
2375.871, 6.0028341E-03
2377.799, 5.6254952E-03
2379.728, 5.4301312E-03
2381.656, 5.8618099E-03
2383.585, 6.0051652E-03
2385.513, 6.1974260E-03
2387.442, 6.1680572E-03
2389.370, 6.0908520E-03
2391.299, 5.3303749E-03
2393.227, 4.1975020E-03
2395.156, 4.7972379E-03
2397.084, 5.7026651E-03
2399.012, 6.7510442E-03
2400.941, 7.2643179E-03
2402.869, 6.4615980E-03
2404.798, 5.8744540E-03
2406.726, 6.3740811E-03
2408.655, 6.8371398E-03
2410.583, 6.5486459E-03
2412.512, 6.1644781E-03
2414.440, 5.7731550E-03
2416.369, 6.5351189E-03
2418.297, 7.7389958E-03
2420.226, 8.0861347E-03
2422.154, 7.4963709E-03
2424.083, 6.3707540E-03
2426.011, 6.3634501E-03
2427.939, 6.3481121E-03
2429.868, 5.2458518E-03
2431.796, 5.0553652E-03
2433.725, 5.8272118E-03
2435.653, 5.6432560E-03
2437.582, 6.6058999E-03
2439.510, 7.5925840E-03
2441.439, 7.3968689E-03
2443.367, 6.9059310E-03
2445.296, 7.3689022E-03
2447.224, 8.3924094E-03
2449.153, 9.6124690E-03
2451.081, 9.4704870E-03
2453.010, 9.0263532E-03
2454.938, 8.2274415E-03
2456.866, 7.3788520E-03
2458.795, 8.2237003E-03
2460.723, 9.5818639E-03
2462.652, 9.8359883E-03
2464.580, 9.9202562E-03
2466.509, 9.8744044E-03
2468.437, 1.0586810E-02
2470.366, 1.1935840E-02
2472.294, 1.3340740E-02
2474.223, 1.4372270E-02
2476.151, 1.4745820E-02
2478.080, 1.5181920E-02
2480.008, 1.5667630E-02
2481.937, 1.6288521E-02
2483.865, 1.5480660E-02
2485.793, 1.6218759E-02
2487.722, 1.6562250E-02
2489.650, 1.5558060E-02
2491.579, 1.5923770E-02
2493.507, 1.5595240E-02
2495.436, 1.4571080E-02
2497.364, 1.4578310E-02
2499.293, 1.5599240E-02
2501.221, 1.4900150E-02
2503.150, 1.3259950E-02
2505.078, 1.2271190E-02
2507.007, 1.2603190E-02
2508.935, 1.3119540E-02
2510.864, 1.3852910E-02
2512.792, 1.4114440E-02
2514.720, 1.3111580E-02
2516.649, 1.1717220E-02
2518.577, 1.1011310E-02
2520.506, 1.1423390E-02
2522.434, 1.1722360E-02
2524.363, 1.0395440E-02
2526.291, 9.6913278E-03
2528.220, 1.0779080E-02
2530.148, 1.0860460E-02
2532.077, 8.0409069E-03
2534.005, 7.2063091E-03
2535.934, 8.3692558E-03
2537.862, 8.1693185E-03
2539.791, 7.7520502E-03
2541.719, 8.2405331E-03
2543.647, 7.3554758E-03
2545.576, 7.1909931E-03
2547.504, 6.8823881E-03
2549.433, 6.6800481E-03
2551.361, 7.8444919E-03
2553.290, 8.2673924E-03
2555.218, 8.3395746E-03
2557.147, 8.9443726E-03
2559.075, 9.2452876E-03
2561.004, 7.9930192E-03
2562.932, 6.5758270E-03
2564.861, 6.8166610E-03
2566.789, 7.5506549E-03
2568.718, 8.5915197E-03
2570.646, 8.0950083E-03
2572.574, 7.9643140E-03
2574.503, 7.7885911E-03
2576.431, 7.3825601E-03
2578.360, 7.3208380E-03
2580.288, 7.6699019E-03
2582.217, 7.0928298E-03
2584.145, 7.2601321E-03
2586.074, 9.0941861E-03
2588.002, 9.5211836E-03
2589.931, 8.5139107E-03
2591.859, 8.8079171E-03
2593.788, 8.5113496E-03
2595.716, 8.2602436E-03
2597.645, 8.5594757E-03
2599.573, 9.3419161E-03
2601.501, 9.7730681E-03
2603.430, 8.9870458E-03
2605.358, 7.8854142E-03
2607.287, 7.6781362E-03
2609.215, 7.6666679E-03
2611.144, 6.8869190E-03
2613.072, 7.1598962E-03
2615.001, 7.4468520E-03
2616.929, 7.5592659E-03
2618.858, 7.8384588E-03
2620.786, 7.9488978E-03
2622.715, 8.0302702E-03
2624.643, 7.9957144E-03
2626.572, 7.6685990E-03
2628.500, 8.0486871E-03
2630.428, 8.3038947E-03
2632.357, 7.2625051E-03
2634.285, 6.3464842E-03
2636.214, 6.7794020E-03
2638.142, 6.9926018E-03
2640.071, 7.1217292E-03
2641.999, 7.5149252E-03
2643.928, 6.9985050E-03
2645.856, 6.4973440E-03
2647.785, 6.3463650E-03
2649.713, 7.0955302E-03
2651.642, 7.0521622E-03
2653.570, 5.8487160E-03
2655.499, 5.8406740E-03
2657.427, 7.0357439E-03
2659.355, 7.1597421E-03
2661.284, 6.4669480E-03
2663.212, 6.4535318E-03
2665.141, 6.2205978E-03
2667.069, 5.6450730E-03
2668.998, 5.6244498E-03
2670.926, 6.0713771E-03
2672.855, 5.7983850E-03
2674.783, 5.4078759E-03
2676.712, 5.1842248E-03
2678.640, 6.2765558E-03
2680.569, 6.9569042E-03
2682.497, 6.7079989E-03
2684.426, 6.4256019E-03
2686.354, 6.0167941E-03
2688.282, 6.5186708E-03
2690.211, 7.0022838E-03
2692.139, 7.3366868E-03
2694.068, 6.6569410E-03
2695.996, 6.1340220E-03
2697.925, 6.5196692E-03
2699.853, 6.1343438E-03
2701.782, 5.6341672E-03
2703.710, 5.8389311E-03
2705.639, 6.8790540E-03
2707.567, 6.7080269E-03
2709.496, 6.6856169E-03
2711.424, 5.3263172E-03
2713.353, 5.8330549E-03
2715.281, 7.7705500E-03
2717.209, 7.2372062E-03
2719.138, 5.3931889E-03
2721.066, 5.7783541E-03
2722.995, 8.3599295E-03
2724.923, 9.0156943E-03
2726.852, 8.0204653E-03
2728.780, 7.4775312E-03
2730.709, 7.0289071E-03
2732.637, 5.7101399E-03
2734.566, 4.9760379E-03
2736.494, 6.8038739E-03
2738.423, 7.6192720E-03
2740.351, 6.4967331E-03
2742.280, 4.9225101E-03
2744.208, 4.7932598E-03
2746.136, 5.6877770E-03
2748.065, 5.4949410E-03
2749.993, 5.4508080E-03
2751.922, 5.8864038E-03
2753.850, 6.2513300E-03
2755.779, 6.0143191E-03
2757.707, 7.2107161E-03
2759.636, 7.4924910E-03
2761.564, 6.3672950E-03
2763.493, 5.4248879E-03
2765.421, 6.0286298E-03
2767.350, 6.6707241E-03
2769.278, 5.2037491E-03
2771.207, 4.3944409E-03
2773.135, 3.7628689E-03
2775.063, 4.4868011E-03
2776.992, 5.3903158E-03
2778.920, 5.8666309E-03
2780.849, 6.5093031E-03
2782.777, 5.7058288E-03
2784.706, 4.9181390E-03
2786.634, 5.1561501E-03
2788.563, 3.8823890E-03
2790.491, 3.6774550E-03
2792.420, 4.4675400E-03
2794.348, 4.4455770E-03
2796.277, 3.3107731E-03
2798.205, 4.2018159E-03
2800.134, 5.0758128E-03
2802.062, 4.8473431E-03
2803.990, 4.2778980E-03
2805.919, 4.7673788E-03
2807.847, 5.5768159E-03
2809.776, 5.8179442E-03
2811.704, 4.6674851E-03
2813.633, 4.2773262E-03
2815.561, 4.0778629E-03
2817.490, 3.6815270E-03
2819.418, 4.1469210E-03
2821.347, 4.2011458E-03
2823.275, 4.2903060E-03
2825.204, 5.2420492E-03
2827.132, 5.6938832E-03
2829.061, 4.6302490E-03
2830.989, 4.0403958E-03
2832.917, 4.1917218E-03
2834.846, 4.0074089E-03
2836.774, 5.0346400E-03
2838.703, 5.1449160E-03
2840.631, 2.3665121E-03
2842.560, 1.9994241E-03
2844.488, 2.5251519E-03
2846.417, 1.3664890E-03
2848.345, 1.3475140E-03
2850.274, 2.4200170E-03
2852.202, 4.3254178E-03
2854.131, 4.8380331E-03
2856.059, 4.6549980E-03
2857.988, 5.8724852E-03
2859.916, 7.2219069E-03
2861.844, 6.5258350E-03
2863.773, 7.2407299E-03
2865.701, 8.4413616E-03
2867.630, 7.0348149E-03
2869.558, 5.2134111E-03
2871.487, 6.4990870E-03
2873.415, 8.0867652E-03
2875.344, 8.1728715E-03
2877.272, 9.1743004E-03
2879.201, 8.2453806E-03
2881.129, 8.1111416E-03
2883.058, 7.6178610E-03
2884.986, 7.7377362E-03
2886.915, 7.8573106E-03
2888.843, 8.2414905E-03
2890.771, 8.1350533E-03
2892.700, 6.8132980E-03
2894.628, 6.5463139E-03
2896.557, 6.4392169E-03
2898.485, 7.8168260E-03
2900.414, 8.5481368E-03
2902.342, 5.6035682E-03
2904.271, 2.9223419E-03
2906.199, 4.3677888E-03
2908.128, 6.8700411E-03
2910.056, 7.0105558E-03
2911.985, 5.7589882E-03
2913.913, 4.8980252E-03
2915.842, 4.1675251E-03
2917.770, 4.2114179E-03
2919.698, 7.6329298E-03
2921.627, 7.5821760E-03
2923.555, 6.5872148E-03
2925.484, 8.6840037E-03
2927.412, 9.8236464E-03
2929.341, 1.0994930E-02
2931.269, 1.1190720E-02
2933.198, 1.1744800E-02
2935.126, 1.1063800E-02
2937.055, 9.4652316E-03
2938.983, 1.0123260E-02
2940.912, 1.2137430E-02
2942.840, 1.1678730E-02
2944.769, 9.9149924E-03
2946.697, 7.8059179E-03
2948.625, 7.8277430E-03
2950.554, 8.3048698E-03
2952.482, 7.7303019E-03
2954.411, 7.9166275E-03
2956.339, 9.2738662E-03
2958.268, 1.0589100E-02
2960.196, 1.0732900E-02
2962.125, 1.1550050E-02
2964.053, 1.1893370E-02
2965.982, 1.0378020E-02
2967.910, 1.0071600E-02
2969.839, 1.1927270E-02
2971.767, 1.1352430E-02
2973.696, 9.1380645E-03
2975.624, 9.7028743E-03
2977.552, 1.0392330E-02
2979.481, 1.0172250E-02
2981.409, 9.2733959E-03
2983.338, 1.0621470E-02
2985.266, 1.3195640E-02
2987.195, 1.3026690E-02
2989.123, 1.1202230E-02
2991.052, 1.0027530E-02
2992.980, 1.0406110E-02
2994.909, 9.8111955E-03
2996.837, 1.1048140E-02
2998.766, 1.2644260E-02
3000.694, 1.2280980E-02
3002.623, 1.1536600E-02
3004.551, 1.2445550E-02
3006.479, 1.1776720E-02
3008.408, 1.0071110E-02
3010.336, 1.0088420E-02
3012.265, 1.0201000E-02
3014.193, 9.7145149E-03
3016.122, 8.9847408E-03
3018.050, 9.1196718E-03
3019.979, 1.1620310E-02
3021.907, 1.3351490E-02
3023.836, 1.2106340E-02
3025.764, 1.1519510E-02
3027.693, 1.0911750E-02
3029.621, 1.0463430E-02
3031.550, 8.1932526E-03
3033.478, 7.4774758E-03
3035.406, 9.1334181E-03
3037.335, 1.0946940E-02
3039.263, 1.1706880E-02
3041.192, 1.2723580E-02
3043.120, 1.2918940E-02
3045.049, 1.0149270E-02
3046.977, 8.4370412E-03
3048.906, 9.3396101E-03
3050.834, 1.0221930E-02
3052.763, 1.0690220E-02
3054.691, 1.1541250E-02
3056.620, 1.3059700E-02
3058.548, 1.3692130E-02
3060.477, 1.3003850E-02
3062.405, 1.2325620E-02
3064.333, 9.1827968E-03
3066.262, 8.8148965E-03
3068.190, 1.0948570E-02
3070.119, 1.0614880E-02
3072.047, 1.1174220E-02
3073.976, 1.1249760E-02
3075.904, 9.9898139E-03
3077.833, 1.1068380E-02
3079.761, 1.2727990E-02
3081.690, 1.2713260E-02
3083.618, 1.1787740E-02
3085.547, 1.3720250E-02
3087.475, 1.6335331E-02
3089.404, 1.5870661E-02
3091.332, 1.3814500E-02
3093.260, 1.4424060E-02
3095.189, 1.4529110E-02
3097.117, 1.3784370E-02
3099.046, 1.3945780E-02
3100.974, 1.3150160E-02
3102.903, 1.3978570E-02
3104.831, 1.4982640E-02
3106.760, 1.3468450E-02
3108.688, 1.2017240E-02
3110.617, 1.1726680E-02
3112.545, 1.4383490E-02
3114.474, 1.7320430E-02
3116.402, 1.7097380E-02
3118.331, 1.5420630E-02
3120.259, 1.3549250E-02
3122.188, 1.2035280E-02
3124.116, 1.1247440E-02
3126.044, 1.3756630E-02
3127.973, 1.4281070E-02
3129.901, 1.3574290E-02
3131.830, 1.6724400E-02
3133.758, 1.7056979E-02
3135.687, 1.6103139E-02
3137.615, 1.5900441E-02
3139.544, 1.5568810E-02
3141.472, 1.4539120E-02
3143.401, 1.5872911E-02
3145.329, 1.5885269E-02
3147.258, 1.7122410E-02
3149.186, 1.6889460E-02
3151.115, 1.7184921E-02
3153.043, 1.5939509E-02
3154.971, 1.4668040E-02
3156.900, 1.5976580E-02
3158.828, 1.5150360E-02
3160.757, 1.4736750E-02
3162.685, 1.5193130E-02
3164.614, 1.3233790E-02
3166.542, 1.3134340E-02
3168.471, 1.4899740E-02
3170.399, 1.6779371E-02
3172.328, 1.6532220E-02
3174.256, 1.5657781E-02
3176.185, 1.4678900E-02
3178.113, 1.3100370E-02
3180.042, 1.4799930E-02
3181.970, 1.5110520E-02
3183.898, 1.3251910E-02
3185.827, 1.4353630E-02
3187.755, 1.4151870E-02
3189.684, 1.2424960E-02
3191.612, 1.4311100E-02
3193.541, 1.5443960E-02
3195.469, 1.5022530E-02
3197.398, 1.5193420E-02
3199.326, 1.4547380E-02
3201.255, 1.3404050E-02
3203.183, 1.4350220E-02
3205.112, 1.5188640E-02
3207.040, 1.6943719E-02
3208.969, 1.6862961E-02
3210.897, 1.4510980E-02
3212.825, 1.4039060E-02
3214.754, 1.3794550E-02
3216.682, 1.4772780E-02
3218.611, 1.6719781E-02
3220.539, 1.8447950E-02
3222.468, 1.9112080E-02
3224.396, 1.7352309E-02
3226.325, 1.6719930E-02
3228.253, 1.6713040E-02
3230.182, 1.6813461E-02
3232.110, 1.6541731E-02
3234.039, 1.6650811E-02
3235.967, 1.7099369E-02
3237.896, 1.6369769E-02
3239.824, 1.6285140E-02
3241.752, 1.4940790E-02
3243.681, 1.6437721E-02
3245.609, 1.8579571E-02
3247.538, 1.8614270E-02
3249.466, 1.8247999E-02
3251.395, 1.7751670E-02
3253.323, 1.6999049E-02
3255.252, 1.7176710E-02
3257.180, 1.7426360E-02
3259.109, 1.6651060E-02
3261.037, 1.5504780E-02
3262.966, 1.5745150E-02
3264.894, 1.5910020E-02
3266.823, 1.6390519E-02
3268.751, 1.8124601E-02
3270.679, 1.9058920E-02
3272.608, 1.7701579E-02
3274.536, 1.6686739E-02
3276.465, 1.6626380E-02
3278.393, 1.7129829E-02
3280.322, 1.6688511E-02
3282.250, 1.6247241E-02
3284.179, 1.7147390E-02
3286.107, 1.8169111E-02
3288.036, 1.7540149E-02
3289.964, 1.8141201E-02
3291.893, 1.8778430E-02
3293.821, 1.9202730E-02
3295.750, 1.9982940E-02
3297.678, 1.9275270E-02
3299.606, 1.9005330E-02
3301.535, 1.8995820E-02
3303.463, 1.9250400E-02
3305.392, 1.9339560E-02
3307.320, 1.9091411E-02
3309.249, 1.8140821E-02
3311.177, 1.9638980E-02
3313.106, 2.1526029E-02
3315.034, 2.0538680E-02
3316.963, 1.8718669E-02
3318.891, 1.8642880E-02
3320.820, 1.8096831E-02
3322.748, 1.8166101E-02
3324.677, 1.9134549E-02
3326.605, 1.8958131E-02
3328.533, 1.8026751E-02
3330.462, 1.9103549E-02
3332.390, 1.9920729E-02
3334.319, 1.7747009E-02
3336.247, 1.7268220E-02
3338.176, 1.7330810E-02
3340.104, 1.7378900E-02
3342.033, 1.7901750E-02
3343.961, 1.8819399E-02
3345.890, 2.0526430E-02
3347.818, 2.0305280E-02
3349.747, 1.9993881E-02
3351.675, 1.9744430E-02
3353.604, 1.9455871E-02
3355.532, 1.8913580E-02
3357.460, 1.8183520E-02
3359.389, 1.9774411E-02
3361.317, 1.9302880E-02
3363.246, 1.8797429E-02
3365.174, 1.8848989E-02
3367.103, 1.8309740E-02
3369.031, 1.9903360E-02
3370.960, 2.0647271E-02
3372.888, 1.9008460E-02
3374.817, 1.9055361E-02
3376.745, 2.0345040E-02
3378.674, 1.9147901E-02
3380.602, 1.8226400E-02
3382.531, 1.6829571E-02
3384.459, 1.5620260E-02
3386.387, 1.9385910E-02
3388.316, 2.2040110E-02
3390.244, 2.1490600E-02
3392.173, 2.0625370E-02
3394.101, 2.0643590E-02
3396.030, 2.0936860E-02
3397.958, 1.9174390E-02
3399.887, 1.6895071E-02
3401.815, 1.7030070E-02
3403.744, 1.8467991E-02
3405.672, 1.8302610E-02
3407.601, 2.0106271E-02
3409.529, 2.0554589E-02
3411.458, 1.9536071E-02
3413.386, 1.8689349E-02
3415.314, 1.9660899E-02
3417.243, 2.0998159E-02
3419.171, 2.2211719E-02
3421.100, 2.1517349E-02
3423.028, 2.0292841E-02
3424.957, 1.9671790E-02
3426.885, 2.0276461E-02
3428.814, 1.9589990E-02
3430.742, 2.0371649E-02
3432.671, 2.0935040E-02
3434.599, 2.0686001E-02
3436.528, 2.0832241E-02
3438.456, 1.9756479E-02
3440.385, 1.8249931E-02
3442.313, 1.8523781E-02
3444.241, 1.8663799E-02
3446.170, 1.7204070E-02
3448.098, 1.6536601E-02
3450.027, 1.8562051E-02
3451.955, 1.9243300E-02
3453.884, 1.9245589E-02
3455.812, 2.0378901E-02
3457.741, 2.0977680E-02
3459.669, 1.8841309E-02
3461.598, 1.8630691E-02
3463.526, 2.0908510E-02
3465.455, 1.9171201E-02
3467.383, 1.7001210E-02
3469.312, 1.7049151E-02
3471.240, 1.6351420E-02
3473.168, 1.5620330E-02
3475.097, 1.8280450E-02
3477.025, 1.9279670E-02
3478.954, 1.7246930E-02
3480.882, 1.8141739E-02
3482.811, 1.7578790E-02
3484.739, 1.6929490E-02
3486.668, 1.8445389E-02
3488.596, 1.8634859E-02
3490.525, 1.8703470E-02
3492.453, 2.0718260E-02
3494.382, 2.1541100E-02
3496.310, 1.9390710E-02
3498.239, 1.7481590E-02
3500.167, 1.8375590E-02
3502.095, 2.0621371E-02
3504.024, 1.7921619E-02
3505.952, 1.8239951E-02
3507.881, 2.0089660E-02
3509.809, 1.8664120E-02
3511.738, 1.8376620E-02
3513.666, 1.8738130E-02
3515.595, 1.8394450E-02
3517.523, 1.8610990E-02
3519.452, 2.0277521E-02
3521.380, 1.9636350E-02
3523.309, 2.0548429E-02
3525.237, 2.1097001E-02
3527.166, 1.9492229E-02
3529.094, 1.9013019E-02
3531.022, 1.9687980E-02
3532.951, 2.0982480E-02
3534.879, 2.0966619E-02
3536.808, 1.7807940E-02
3538.736, 1.5294300E-02
3540.665, 1.8164460E-02
3542.593, 1.6669380E-02
3544.522, 1.3186830E-02
3546.450, 1.3541900E-02
3548.379, 1.6371449E-02
3550.307, 1.9912999E-02
3552.236, 2.1583200E-02
3554.164, 1.8161030E-02
3556.093, 1.7411379E-02
3558.021, 1.9285370E-02
3559.949, 2.0865539E-02
3561.878, 1.9018300E-02
3563.806, 1.9127110E-02
3565.735, 2.0713130E-02
3567.663, 1.8743580E-02
3569.592, 1.6297320E-02
3571.520, 1.5238910E-02
3573.449, 1.7409669E-02
3575.377, 1.8585190E-02
3577.306, 1.9772559E-02
3579.234, 1.9751390E-02
3581.163, 1.9309880E-02
3583.091, 1.9105731E-02
3585.020, 1.8542031E-02
3586.948, 1.8365949E-02
3588.876, 1.6636780E-02
3590.805, 1.9067731E-02
3592.733, 1.9512210E-02
3594.662, 1.8720269E-02
3596.590, 1.9838599E-02
3598.519, 1.8715620E-02
3600.447, 1.8044731E-02
3602.376, 1.9967230E-02
3604.304, 2.2903141E-02
3606.233, 2.2341380E-02
3608.161, 2.0918621E-02
3610.090, 1.9221351E-02
3612.018, 1.9500250E-02
3613.947, 1.9488471E-02
3615.875, 1.7707851E-02
3617.803, 1.6888039E-02
3619.732, 1.9001110E-02
3621.660, 2.1599350E-02
3623.589, 2.1380691E-02
3625.517, 1.8358260E-02
3627.446, 1.5638370E-02
3629.374, 1.8061370E-02
3631.303, 2.1423159E-02
3633.231, 2.0053640E-02
3635.160, 2.0346830E-02
3637.088, 1.9489300E-02
3639.017, 1.8128380E-02
3640.945, 1.8764380E-02
3642.874, 1.9844050E-02
3644.802, 1.9097749E-02
3646.730, 1.6877741E-02
3648.659, 1.8018059E-02
3650.587, 1.9246580E-02
3652.516, 2.0875070E-02
3654.444, 2.3898421E-02
3656.373, 2.1702470E-02
3658.301, 1.9407490E-02
3660.230, 1.8485811E-02
3662.158, 2.0527570E-02
3664.087, 1.9511430E-02
3666.015, 1.9846739E-02
3667.944, 2.0966440E-02
3669.872, 2.0165110E-02
3671.801, 1.8778499E-02
3673.729, 1.9958509E-02
3675.657, 2.0416830E-02
3677.586, 1.7458931E-02
3679.514, 1.6345600E-02
3681.443, 1.7653970E-02
3683.371, 1.8320080E-02
3685.300, 1.7467771E-02
3687.228, 1.9086109E-02
3689.157, 2.0433379E-02
3691.085, 1.9794740E-02
3693.014, 1.9697180E-02
3694.942, 2.0059871E-02
3696.871, 1.9878101E-02
3698.799, 2.0129209E-02
3700.728, 1.9868800E-02
3702.656, 1.8831410E-02
3704.584, 1.8281819E-02
3706.513, 2.1836611E-02
3708.441, 2.0848490E-02
3710.370, 1.7249070E-02
3712.298, 1.7946200E-02
3714.227, 2.0495830E-02
3716.155, 1.8245520E-02
3718.084, 1.8957609E-02
3720.012, 2.1486521E-02
3721.941, 2.1781500E-02
3723.869, 2.0624390E-02
3725.798, 2.0874159E-02
3727.726, 2.1183020E-02
3729.655, 2.2759311E-02
3731.583, 2.3115439E-02
3733.511, 2.3519320E-02
3735.440, 2.0194391E-02
3737.368, 1.6149661E-02
3739.297, 1.8961480E-02
3741.225, 2.3803880E-02
3743.154, 2.5983330E-02
3745.082, 2.3260240E-02
3747.011, 1.9644480E-02
3748.939, 2.3006000E-02
3750.868, 2.2579610E-02
3752.796, 2.1847140E-02
3754.725, 2.1139439E-02
3756.653, 1.9395340E-02
3758.582, 2.0193400E-02
3760.510, 1.9691290E-02
3762.438, 2.0123379E-02
3764.367, 2.1131439E-02
3766.295, 1.9753670E-02
3768.224, 1.9067230E-02
3770.152, 1.6096151E-02
3772.081, 1.5201030E-02
3774.009, 1.7894810E-02
3775.938, 2.0296911E-02
3777.866, 2.2578800E-02
3779.795, 2.3741251E-02
3781.723, 2.2692179E-02
3783.652, 2.2433789E-02
3785.580, 2.3503119E-02
3787.509, 2.1688420E-02
3789.437, 2.2016799E-02
3791.365, 2.6144911E-02
3793.294, 2.5868870E-02
3795.222, 2.2901580E-02
3797.151, 2.0731719E-02
3799.079, 2.2463500E-02
3801.008, 2.4350019E-02
3802.936, 2.1402840E-02
3804.865, 1.8188590E-02
3806.793, 1.8977839E-02
3808.722, 2.0751320E-02
3810.650, 1.9385889E-02
3812.579, 1.6823260E-02
3814.507, 1.6583201E-02
3816.436, 2.0497700E-02
3818.364, 2.2975670E-02
3820.292, 2.4844730E-02
3822.221, 2.3867430E-02
3824.149, 2.1109590E-02
3826.078, 2.0809039E-02
3828.006, 2.2597641E-02
3829.935, 2.4319369E-02
3831.863, 2.2547049E-02
3833.792, 2.2645310E-02
3835.720, 2.2191031E-02
3837.649, 2.0040261E-02
3839.577, 2.1885389E-02
3841.506, 2.5465731E-02
3843.434, 2.6251299E-02
3845.363, 2.8300259E-02
3847.291, 2.6464000E-02
3849.219, 2.2699980E-02
3851.148, 2.2725331E-02
3853.076, 2.5087230E-02
3855.005, 2.3045400E-02
3856.933, 2.2524880E-02
3858.862, 2.4606589E-02
3860.790, 2.3639590E-02
3862.719, 2.3809370E-02
3864.647, 2.4035061E-02
3866.576, 2.1466279E-02
3868.504, 2.0119140E-02
3870.433, 2.1600829E-02
3872.361, 2.4623010E-02
3874.290, 2.6501430E-02
3876.218, 2.6113469E-02
3878.146, 2.6311791E-02
3880.075, 2.4422510E-02
3882.003, 2.3868229E-02
3883.932, 2.3927860E-02
3885.860, 2.3493690E-02
3887.789, 2.3446569E-02
3889.717, 2.3178300E-02
3891.646, 2.3379751E-02
3893.574, 2.4004931E-02
3895.503, 2.1948511E-02
3897.431, 1.9642370E-02
3899.360, 2.1639390E-02
3901.288, 2.3520119E-02
3903.217, 2.2529230E-02
3905.145, 2.3432771E-02
3907.073, 2.5336171E-02
3909.002, 2.5056580E-02
3910.930, 2.2996919E-02
3912.859, 2.2031460E-02
3914.787, 2.4679830E-02
3916.716, 2.5317550E-02
3918.644, 2.4252210E-02
3920.573, 2.4923770E-02
3922.501, 2.2567710E-02
3924.430, 2.3624560E-02
3926.358, 2.7686320E-02
3928.287, 2.9696960E-02
3930.215, 2.9695099E-02
3932.144, 2.8372649E-02
3934.072, 2.6348460E-02
3936.000, 2.1565350E-02
3937.929, 2.1158820E-02
3939.857, 2.4710599E-02
3941.786, 2.7065961E-02
3943.714, 2.5069160E-02
3945.643, 2.3732239E-02
3947.571, 2.5165090E-02
3949.500, 2.5299700E-02
3951.428, 2.2819851E-02
3953.357, 2.3595760E-02
3955.285, 2.5062401E-02
3957.214, 2.4759190E-02
3959.142, 2.3425620E-02
3961.071, 2.2433620E-02
3962.999, 2.1704899E-02
3964.927, 2.2411941E-02
3966.856, 2.3690719E-02
3968.784, 2.4633350E-02
3970.713, 2.1400500E-02
3972.641, 2.2247391E-02
3974.570, 2.4454730E-02
3976.498, 2.4301831E-02
3978.427, 2.4860620E-02
3980.355, 2.3499260E-02
3982.284, 2.5356920E-02
3984.212, 2.5693150E-02
3986.141, 2.5548350E-02
3988.069, 2.7395710E-02
3989.998, 3.0212579E-02
3991.926, 2.9462179E-02
3993.854, 2.5936659E-02
3995.783, 2.2026051E-02
3997.711, 2.0090280E-02
3999.640, 2.0099970E-02
##END=



