##NAMES=Strontianite
##RRUFFID=R040037
##IDEAL CHEMISTRY=SrCO_3_
##LOCALITY=Alston Moor, Cumbria, England
##OWNER=RRUFF
##SOURCE=University of Arizona Mineral Museum
##DESCRIPTION=Group of tan colored crystals
##STATUS=The identification of this mineral has been confirmed by X-ray diffraction and chemical analysis
##URL=rruff.info/R040037
##MEASURED CHEMISTRY=(Sr_0.91_Ca_0.09_)_Î£=1_CO_3_; CO_2_ estimated by difference
3.991926e+002, 0.000000e+000
4.011211e+002, 8.885658e-003
4.030496e+002, 8.923508e-003
4.049780e+002, 1.049955e-002
4.069065e+002, 1.163164e-002
4.088350e+002, 1.047667e-002
4.107634e+002, 9.473312e-003
4.126919e+002, 8.393006e-003
4.146204e+002, 7.975484e-003
4.165488e+002, 7.730241e-003
4.184773e+002, 7.064099e-003
4.204058e+002, 5.777106e-003
4.223342e+002, 5.135342e-003
4.242627e+002, 5.247204e-003
4.261912e+002, 3.945188e-003
4.281196e+002, 5.309364e-003
4.300481e+002, 7.687522e-003
4.319766e+002, 7.525233e-003
4.339050e+002, 6.934111e-003
4.358335e+002, 7.440418e-003
4.377620e+002, 6.792007e-003
4.396904e+002, 5.324179e-003
4.416189e+002, 5.426813e-003
4.435474e+002, 5.880458e-003
4.454758e+002, 5.795326e-003
4.474043e+002, 5.656323e-003
4.493328e+002, 4.755893e-003
4.512612e+002, 4.252154e-003
4.531897e+002, 4.597167e-003
4.551182e+002, 5.711744e-003
4.570466e+002, 6.102605e-003
4.589751e+002, 5.199538e-003
4.609036e+002, 4.932789e-003
4.628320e+002, 5.505403e-003
4.647605e+002, 5.784647e-003
4.666890e+002, 5.729761e-003
4.686174e+002, 5.309042e-003
4.705459e+002, 5.112641e-003
4.724744e+002, 5.298431e-003
4.744028e+002, 5.132116e-003
4.763313e+002, 4.783746e-003
4.782598e+002, 4.614837e-003
4.801882e+002, 4.534679e-003
4.821167e+002, 4.812072e-003
4.840452e+002, 4.907938e-003
4.859736e+002, 5.273230e-003
4.879021e+002, 5.466774e-003
4.898306e+002, 5.047448e-003
4.917590e+002, 4.953281e-003
4.936875e+002, 4.987925e-003
4.956160e+002, 5.288282e-003
4.975444e+002, 5.279028e-003
4.994729e+002, 5.481213e-003
5.014014e+002, 5.382359e-003
5.033298e+002, 4.954979e-003
5.052583e+002, 5.439018e-003
5.071868e+002, 5.722836e-003
5.091152e+002, 5.145362e-003
5.110437e+002, 5.064431e-003
5.129722e+002, 5.375213e-003
5.149006e+002, 5.189289e-003
5.168291e+002, 4.826082e-003
5.187576e+002, 4.911019e-003
5.206860e+002, 4.770025e-003
5.226145e+002, 4.829856e-003
5.245430e+002, 5.227012e-003
5.264714e+002, 5.357107e-003
5.283999e+002, 5.378021e-003
5.303284e+002, 4.983560e-003
5.322568e+002, 5.044985e-003
5.341853e+002, 5.337858e-003
5.361138e+002, 4.896355e-003
5.380422e+002, 4.589438e-003
5.399707e+002, 4.763724e-003
5.418992e+002, 4.540409e-003
5.438276e+002, 4.464145e-003
5.457561e+002, 4.838814e-003
5.476846e+002, 5.489051e-003
5.496130e+002, 5.410323e-003
5.515415e+002, 4.964990e-003
5.534700e+002, 4.888099e-003
5.553984e+002, 5.297174e-003
5.573269e+002, 5.309092e-003
5.592554e+002, 5.234499e-003
5.611838e+002, 5.345443e-003
5.631123e+002, 5.237983e-003
5.650408e+002, 5.103545e-003
5.669692e+002, 5.578256e-003
5.688977e+002, 5.715666e-003
5.708262e+002, 5.826459e-003
5.727546e+002, 5.883639e-003
5.746831e+002, 6.166463e-003
5.766116e+002, 5.898507e-003
5.785400e+002, 5.132555e-003
5.804685e+002, 5.559451e-003
5.823970e+002, 5.997136e-003
5.843254e+002, 5.866472e-003
5.862539e+002, 6.033146e-003
5.881824e+002, 6.070304e-003
5.901108e+002, 5.909372e-003
5.920393e+002, 5.721885e-003
5.939678e+002, 5.856174e-003
5.958962e+002, 5.868388e-003
5.978247e+002, 5.863665e-003
5.997532e+002, 5.925615e-003
6.016816e+002, 5.974741e-003
6.036101e+002, 6.215570e-003
6.055386e+002, 6.624706e-003
6.074670e+002, 6.769424e-003
6.093955e+002, 6.985081e-003
6.113240e+002, 7.147217e-003
6.132524e+002, 6.937833e-003
6.151809e+002, 6.702117e-003
6.171094e+002, 7.020046e-003
6.190378e+002, 7.368864e-003
6.209663e+002, 7.028801e-003
6.228948e+002, 6.523117e-003
6.248232e+002, 6.840345e-003
6.267517e+002, 7.024484e-003
6.286802e+002, 7.161773e-003
6.306086e+002, 7.118671e-003
6.325371e+002, 7.228259e-003
6.344656e+002, 7.426372e-003
6.363940e+002, 7.616902e-003
6.383225e+002, 7.690214e-003
6.402510e+002, 7.661455e-003
6.421794e+002, 7.522582e-003
6.441079e+002, 7.405711e-003
6.460364e+002, 7.108282e-003
6.479648e+002, 7.046494e-003
6.498933e+002, 7.182445e-003
6.518218e+002, 7.572914e-003
6.537502e+002, 7.722821e-003
6.556787e+002, 7.701065e-003
6.576072e+002, 7.643959e-003
6.595356e+002, 7.825832e-003
6.614641e+002, 7.763696e-003
6.633926e+002, 7.955694e-003
6.653210e+002, 8.109476e-003
6.672495e+002, 8.406439e-003
6.691780e+002, 8.411301e-003
6.711064e+002, 8.612077e-003
6.730349e+002, 8.534873e-003
6.749634e+002, 8.582124e-003
6.768918e+002, 8.785957e-003
6.788203e+002, 9.067129e-003
6.807488e+002, 9.277629e-003
6.826772e+002, 9.821527e-003
6.846057e+002, 1.040679e-002
6.865342e+002, 1.126887e-002
6.884626e+002, 1.231198e-002
6.903911e+002, 1.434221e-002
6.923196e+002, 1.910468e-002
6.942480e+002, 3.056608e-002
6.961765e+002, 4.728800e-002
6.981050e+002, 6.143346e-002
7.000334e+002, 6.283423e-002
7.019619e+002, 5.389669e-002
7.038904e+002, 5.869587e-002
7.058188e+002, 7.162590e-002
7.077473e+002, 5.760165e-002
7.096758e+002, 3.048185e-002
7.116042e+002, 1.633133e-002
7.135327e+002, 1.103840e-002
7.154612e+002, 8.487499e-003
7.173896e+002, 7.169097e-003
7.193181e+002, 6.901660e-003
7.212466e+002, 6.730194e-003
7.231750e+002, 6.513479e-003
7.251035e+002, 6.520601e-003
7.270320e+002, 6.773823e-003
7.289604e+002, 6.893770e-003
7.308889e+002, 7.308373e-003
7.328174e+002, 7.503320e-003
7.347458e+002, 7.348154e-003
7.366743e+002, 7.361490e-003
7.386028e+002, 7.445041e-003
7.405313e+002, 7.445377e-003
7.424597e+002, 7.635789e-003
7.443882e+002, 7.935508e-003
7.463167e+002, 8.132638e-003
7.482451e+002, 8.027505e-003
7.501736e+002, 7.893085e-003
7.521021e+002, 8.077232e-003
7.540305e+002, 7.887146e-003
7.559590e+002, 8.019910e-003
7.578875e+002, 8.325803e-003
7.598159e+002, 8.287840e-003
7.617444e+002, 8.388417e-003
7.636729e+002, 8.435354e-003
7.656013e+002, 8.459027e-003
7.675298e+002, 8.933747e-003
7.694583e+002, 9.283868e-003
7.713867e+002, 9.202092e-003
7.733152e+002, 9.170095e-003
7.752437e+002, 9.239648e-003
7.771721e+002, 9.329497e-003
7.791006e+002, 9.307052e-003
7.810291e+002, 9.452091e-003
7.829575e+002, 9.727873e-003
7.848860e+002, 9.792920e-003
7.868145e+002, 9.911763e-003
7.887429e+002, 9.991515e-003
7.906714e+002, 1.007175e-002
7.925999e+002, 1.018517e-002
7.945283e+002, 1.052934e-002
7.964568e+002, 1.081868e-002
7.983853e+002, 1.103522e-002
8.003137e+002, 1.130590e-002
8.022422e+002, 1.142423e-002
8.041707e+002, 1.174407e-002
8.060991e+002, 1.209251e-002
8.080276e+002, 1.222665e-002
8.099561e+002, 1.235710e-002
8.118845e+002, 1.284569e-002
8.138130e+002, 1.320726e-002
8.157415e+002, 1.350312e-002
8.176699e+002, 1.404662e-002
8.195984e+002, 1.461398e-002
8.215269e+002, 1.542964e-002
8.234553e+002, 1.631327e-002
8.253838e+002, 1.722588e-002
8.273123e+002, 1.852573e-002
8.292407e+002, 2.043648e-002
8.311692e+002, 2.270472e-002
8.330977e+002, 2.537878e-002
8.350261e+002, 2.955084e-002
8.369546e+002, 3.583501e-002
8.388831e+002, 4.593723e-002
8.408115e+002, 6.403830e-002
8.427400e+002, 7.680138e-002
8.446685e+002, 7.286870e-002
8.465969e+002, 8.193762e-002
8.485254e+002, 1.119254e-001
8.504539e+002, 1.537008e-001
8.523823e+002, 2.023043e-001
8.543108e+002, 2.401316e-001
8.562393e+002, 2.479398e-001
8.581677e+002, 2.277792e-001
8.600962e+002, 1.925403e-001
8.620247e+002, 1.519937e-001
8.639531e+002, 1.112619e-001
8.658816e+002, 7.440280e-002
8.678101e+002, 4.652219e-002
8.697385e+002, 2.999405e-002
8.716670e+002, 2.232782e-002
8.735955e+002, 1.916582e-002
8.755239e+002, 1.747653e-002
8.774524e+002, 1.610957e-002
8.793809e+002, 1.483146e-002
8.813093e+002, 1.377049e-002
8.832378e+002, 1.328092e-002
8.851663e+002, 1.308523e-002
8.870947e+002, 1.272641e-002
8.890232e+002, 1.218623e-002
8.909517e+002, 1.214243e-002
8.928801e+002, 1.232322e-002
8.948085e+002, 1.256842e-002
8.967370e+002, 1.319365e-002
8.986655e+002, 1.343617e-002
9.005939e+002, 1.268004e-002
9.025224e+002, 1.195454e-002
9.044509e+002, 1.165719e-002
9.063793e+002, 1.166972e-002
9.083078e+002, 1.177757e-002
9.102363e+002, 1.193153e-002
9.121647e+002, 1.197347e-002
9.140932e+002, 1.188724e-002
9.160217e+002, 1.199531e-002
9.179501e+002, 1.222910e-002
9.198786e+002, 1.215027e-002
9.218071e+002, 1.228292e-002
9.237355e+002, 1.223191e-002
9.256640e+002, 1.237771e-002
9.275925e+002, 1.262218e-002
9.295209e+002, 1.279552e-002
9.314494e+002, 1.281727e-002
9.333779e+002, 1.263993e-002
9.353063e+002, 1.271641e-002
9.372348e+002, 1.280273e-002
9.391633e+002, 1.303072e-002
9.410917e+002, 1.324050e-002
9.430202e+002, 1.305613e-002
9.449487e+002, 1.303781e-002
9.468771e+002, 1.315289e-002
9.488056e+002, 1.304322e-002
9.507341e+002, 1.305925e-002
9.526625e+002, 1.312229e-002
9.545910e+002, 1.321154e-002
9.565195e+002, 1.339897e-002
9.584479e+002, 1.347494e-002
9.603764e+002, 1.334616e-002
9.623049e+002, 1.331900e-002
9.642333e+002, 1.336428e-002
9.661618e+002, 1.355539e-002
9.680903e+002, 1.381822e-002
9.700187e+002, 1.378454e-002
9.719472e+002, 1.369876e-002
9.738757e+002, 1.374144e-002
9.758041e+002, 1.387752e-002
9.777326e+002, 1.408153e-002
9.796611e+002, 1.425234e-002
9.815895e+002, 1.428295e-002
9.835180e+002, 1.426561e-002
9.854465e+002, 1.432537e-002
9.873749e+002, 1.455698e-002
9.893034e+002, 1.466499e-002
9.912319e+002, 1.457404e-002
9.931603e+002, 1.453378e-002
9.950888e+002, 1.461609e-002
9.970173e+002, 1.493250e-002
9.989457e+002, 1.521754e-002
1.000874e+003, 1.529503e-002
1.002803e+003, 1.558957e-002
1.004731e+003, 1.584825e-002
1.006660e+003, 1.577850e-002
1.008588e+003, 1.567361e-002
1.010517e+003, 1.578435e-002
1.012445e+003, 1.606611e-002
1.014373e+003, 1.611271e-002
1.016302e+003, 1.623521e-002
1.018230e+003, 1.657993e-002
1.020159e+003, 1.674047e-002
1.022087e+003, 1.675081e-002
1.024016e+003, 1.673912e-002
1.025944e+003, 1.687490e-002
1.027873e+003, 1.700534e-002
1.029801e+003, 1.712328e-002
1.031730e+003, 1.734801e-002
1.033658e+003, 1.770926e-002
1.035587e+003, 1.780970e-002
1.037515e+003, 1.792354e-002
1.039444e+003, 1.813826e-002
1.041372e+003, 1.839672e-002
1.043301e+003, 1.847232e-002
1.045229e+003, 1.870690e-002
1.047157e+003, 1.917691e-002
1.049086e+003, 1.954217e-002
1.051014e+003, 1.963882e-002
1.052943e+003, 1.977000e-002
1.054871e+003, 2.014805e-002
1.056800e+003, 2.064461e-002
1.058728e+003, 2.094541e-002
1.060657e+003, 2.120093e-002
1.062585e+003, 2.177560e-002
1.064514e+003, 2.296347e-002
1.066442e+003, 2.482207e-002
1.068371e+003, 2.962703e-002
1.070299e+003, 4.142067e-002
1.072228e+003, 4.934746e-002
1.074156e+003, 3.821625e-002
1.076084e+003, 2.646158e-002
1.078013e+003, 2.297013e-002
1.079941e+003, 2.213838e-002
1.081870e+003, 2.215672e-002
1.083798e+003, 2.234624e-002
1.085727e+003, 2.246205e-002
1.087655e+003, 2.254226e-002
1.089584e+003, 2.265789e-002
1.091512e+003, 2.292755e-002
1.093441e+003, 2.340484e-002
1.095369e+003, 2.369114e-002
1.097298e+003, 2.373231e-002
1.099226e+003, 2.390434e-002
1.101155e+003, 2.392300e-002
1.103083e+003, 2.412128e-002
1.105011e+003, 2.414801e-002
1.106940e+003, 2.421542e-002
1.108868e+003, 2.451318e-002
1.110797e+003, 2.466271e-002
1.112725e+003, 2.472288e-002
1.114654e+003, 2.507891e-002
1.116582e+003, 2.541197e-002
1.118511e+003, 2.582322e-002
1.120439e+003, 2.622570e-002
1.122368e+003, 2.652099e-002
1.124296e+003, 2.689829e-002
1.126225e+003, 2.719988e-002
1.128153e+003, 2.742724e-002
1.130082e+003, 2.783864e-002
1.132010e+003, 2.797718e-002
1.133938e+003, 2.823363e-002
1.135867e+003, 2.860162e-002
1.137795e+003, 2.885481e-002
1.139724e+003, 2.890441e-002
1.141652e+003, 2.923582e-002
1.143581e+003, 2.962910e-002
1.145509e+003, 2.984810e-002
1.147438e+003, 3.006829e-002
1.149366e+003, 3.044306e-002
1.151295e+003, 3.072522e-002
1.153223e+003, 3.083987e-002
1.155152e+003, 3.100195e-002
1.157080e+003, 3.124740e-002
1.159009e+003, 3.142300e-002
1.160937e+003, 3.155002e-002
1.162865e+003, 3.167436e-002
1.164794e+003, 3.197436e-002
1.166722e+003, 3.228410e-002
1.168651e+003, 3.247337e-002
1.170579e+003, 3.248189e-002
1.172508e+003, 3.263204e-002
1.174436e+003, 3.309236e-002
1.176365e+003, 3.373736e-002
1.178293e+003, 3.415564e-002
1.180222e+003, 3.443927e-002
1.182150e+003, 3.494708e-002
1.184079e+003, 3.542222e-002
1.186007e+003, 3.579189e-002
1.187936e+003, 3.643665e-002
1.189864e+003, 3.693315e-002
1.191792e+003, 3.718820e-002
1.193721e+003, 3.733766e-002
1.195649e+003, 3.753214e-002
1.197578e+003, 3.769323e-002
1.199506e+003, 3.786291e-002
1.201435e+003, 3.808123e-002
1.203363e+003, 3.816215e-002
1.205292e+003, 3.844355e-002
1.207220e+003, 3.881352e-002
1.209149e+003, 3.907861e-002
1.211077e+003, 3.938412e-002
1.213006e+003, 3.975298e-002
1.214934e+003, 4.037984e-002
1.216863e+003, 4.090890e-002
1.218791e+003, 4.144074e-002
1.220719e+003, 4.192189e-002
1.222648e+003, 4.236417e-002
1.224576e+003, 4.290548e-002
1.226505e+003, 4.353606e-002
1.228433e+003, 4.413198e-002
1.230362e+003, 4.482624e-002
1.232290e+003, 4.532500e-002
1.234219e+003, 4.590782e-002
1.236147e+003, 4.684845e-002
1.238076e+003, 4.772272e-002
1.240004e+003, 4.830999e-002
1.241933e+003, 4.919757e-002
1.243861e+003, 5.008631e-002
1.245790e+003, 5.095275e-002
1.247718e+003, 5.163343e-002
1.249646e+003, 5.239877e-002
1.251575e+003, 5.326884e-002
1.253503e+003, 5.401771e-002
1.255432e+003, 5.471686e-002
1.257360e+003, 5.566804e-002
1.259289e+003, 5.653656e-002
1.261217e+003, 5.726960e-002
1.263146e+003, 5.812351e-002
1.265074e+003, 5.921299e-002
1.267003e+003, 6.034881e-002
1.268931e+003, 6.148932e-002
1.270860e+003, 6.258783e-002
1.272788e+003, 6.378834e-002
1.274717e+003, 6.508719e-002
1.276645e+003, 6.621234e-002
1.278573e+003, 6.744688e-002
1.280502e+003, 6.884672e-002
1.282430e+003, 7.008580e-002
1.284359e+003, 7.129886e-002
1.286287e+003, 7.275858e-002
1.288216e+003, 7.435275e-002
1.290144e+003, 7.592759e-002
1.292073e+003, 7.756338e-002
1.294001e+003, 7.895264e-002
1.295930e+003, 8.030184e-002
1.297858e+003, 8.192233e-002
1.299787e+003, 8.364058e-002
1.301715e+003, 8.539741e-002
1.303644e+003, 8.708873e-002
1.305572e+003, 8.874546e-002
1.307500e+003, 9.078927e-002
1.309429e+003, 9.258249e-002
1.311357e+003, 9.451789e-002
1.313286e+003, 9.684858e-002
1.315214e+003, 9.922618e-002
1.317143e+003, 1.014316e-001
1.319071e+003, 1.037191e-001
1.321000e+003, 1.059344e-001
1.322928e+003, 1.082955e-001
1.324857e+003, 1.105936e-001
1.326785e+003, 1.128921e-001
1.328714e+003, 1.153457e-001
1.330642e+003, 1.181115e-001
1.332571e+003, 1.208420e-001
1.334499e+003, 1.236085e-001
1.336427e+003, 1.264617e-001
1.338356e+003, 1.294468e-001
1.340284e+003, 1.325205e-001
1.342213e+003, 1.358010e-001
1.344141e+003, 1.393018e-001
1.346070e+003, 1.430173e-001
1.347998e+003, 1.469003e-001
1.349927e+003, 1.509102e-001
1.351855e+003, 1.550709e-001
1.353784e+003, 1.594893e-001
1.355712e+003, 1.639800e-001
1.357641e+003, 1.687981e-001
1.359569e+003, 1.741380e-001
1.361498e+003, 1.795915e-001
1.363426e+003, 1.850692e-001
1.365354e+003, 1.906889e-001
1.367283e+003, 1.964664e-001
1.369211e+003, 2.027878e-001
1.371140e+003, 2.091976e-001
1.373068e+003, 2.159987e-001
1.374997e+003, 2.233077e-001
1.376925e+003, 2.305957e-001
1.378854e+003, 2.379292e-001
1.380782e+003, 2.457909e-001
1.382711e+003, 2.534151e-001
1.384639e+003, 2.606052e-001
1.386568e+003, 2.675830e-001
1.388496e+003, 2.751015e-001
1.390424e+003, 2.835594e-001
1.392353e+003, 2.933845e-001
1.394281e+003, 3.038233e-001
1.396210e+003, 3.140065e-001
1.398138e+003, 3.235729e-001
1.400067e+003, 3.320514e-001
1.401995e+003, 3.402328e-001
1.403924e+003, 3.495696e-001
1.405852e+003, 3.598457e-001
1.407781e+003, 3.704351e-001
1.409709e+003, 3.813062e-001
1.411638e+003, 3.931556e-001
1.413566e+003, 4.055260e-001
1.415495e+003, 4.183497e-001
1.417423e+003, 4.319313e-001
1.419351e+003, 4.454214e-001
1.421280e+003, 4.590463e-001
1.423208e+003, 4.732293e-001
1.425137e+003, 4.864811e-001
1.427065e+003, 4.987311e-001
1.428994e+003, 5.105646e-001
1.430922e+003, 5.213233e-001
1.432851e+003, 5.296553e-001
1.434779e+003, 5.352935e-001
1.436708e+003, 5.382788e-001
1.438636e+003, 5.385492e-001
1.440565e+003, 5.371270e-001
1.442493e+003, 5.350019e-001
1.444422e+003, 5.313364e-001
1.446350e+003, 5.252343e-001
1.448278e+003, 5.168152e-001
1.450207e+003, 5.066336e-001
1.452135e+003, 4.948766e-001
1.454064e+003, 4.823705e-001
1.455992e+003, 4.689795e-001
1.457921e+003, 4.547246e-001
1.459849e+003, 4.399323e-001
1.461778e+003, 4.249900e-001
1.463706e+003, 4.100831e-001
1.465635e+003, 3.955440e-001
1.467563e+003, 3.812444e-001
1.469492e+003, 3.673202e-001
1.471420e+003, 3.540163e-001
1.473349e+003, 3.410877e-001
1.475277e+003, 3.285046e-001
1.477205e+003, 3.162629e-001
1.479134e+003, 3.045847e-001
1.481062e+003, 2.935248e-001
1.482991e+003, 2.826610e-001
1.484919e+003, 2.721359e-001
1.486848e+003, 2.620016e-001
1.488776e+003, 2.519807e-001
1.490705e+003, 2.423786e-001
1.492633e+003, 2.333810e-001
1.494562e+003, 2.245273e-001
1.496490e+003, 2.159600e-001
1.498419e+003, 2.074612e-001
1.500347e+003, 1.990744e-001
1.502276e+003, 1.909934e-001
1.504204e+003, 1.830187e-001
1.506132e+003, 1.753988e-001
1.508061e+003, 1.681539e-001
1.509989e+003, 1.606924e-001
1.511918e+003, 1.532718e-001
1.513846e+003, 1.460342e-001
1.515775e+003, 1.390097e-001
1.517703e+003, 1.321527e-001
1.519632e+003, 1.255504e-001
1.521560e+003, 1.189673e-001
1.523489e+003, 1.122700e-001
1.525417e+003, 1.060980e-001
1.527346e+003, 1.001811e-001
1.529274e+003, 9.436703e-002
1.531203e+003, 8.883020e-002
1.533131e+003, 8.337127e-002
1.535059e+003, 7.830311e-002
1.536988e+003, 7.341861e-002
1.538916e+003, 6.834541e-002
1.540845e+003, 6.311283e-002
1.542773e+003, 5.835693e-002
1.544702e+003, 5.393784e-002
1.546630e+003, 4.949421e-002
1.548559e+003, 4.531027e-002
1.550487e+003, 4.148987e-002
1.552416e+003, 3.772504e-002
1.554344e+003, 3.401912e-002
1.556273e+003, 3.043229e-002
1.558201e+003, 2.742791e-002
1.560130e+003, 2.494939e-002
1.562058e+003, 2.248003e-002
1.563986e+003, 2.061829e-002
1.565915e+003, 1.917876e-002
1.567843e+003, 1.790825e-002
1.569772e+003, 1.675593e-002
1.571700e+003, 1.580453e-002
1.573629e+003, 1.547364e-002
1.575557e+003, 1.507414e-002
1.577486e+003, 1.456061e-002
1.579414e+003, 1.403689e-002
1.581343e+003, 1.377146e-002
1.583271e+003, 1.357893e-002
1.585200e+003, 1.366614e-002
1.587128e+003, 1.357061e-002
1.589057e+003, 1.342926e-002
1.590985e+003, 1.329047e-002
1.592913e+003, 1.312115e-002
1.594842e+003, 1.301150e-002
1.596770e+003, 1.280585e-002
1.598699e+003, 1.266365e-002
1.600627e+003, 1.243005e-002
1.602556e+003, 1.213336e-002
1.604484e+003, 1.199889e-002
1.606413e+003, 1.184951e-002
1.608341e+003, 1.163772e-002
1.610270e+003, 1.147286e-002
1.612198e+003, 1.117908e-002
1.614127e+003, 1.092356e-002
1.616055e+003, 1.065555e-002
1.617984e+003, 1.031808e-002
1.619912e+003, 9.978296e-003
1.621840e+003, 9.606833e-003
1.623769e+003, 9.434151e-003
1.625697e+003, 9.252071e-003
1.627626e+003, 8.985914e-003
1.629554e+003, 8.795890e-003
1.631483e+003, 8.778753e-003
1.633411e+003, 8.634008e-003
1.635340e+003, 8.494432e-003
1.637268e+003, 8.257070e-003
1.639197e+003, 8.186582e-003
1.641125e+003, 8.072725e-003
1.643054e+003, 7.899639e-003
1.644982e+003, 7.721649e-003
1.646911e+003, 7.437454e-003
1.648839e+003, 7.204853e-003
1.650767e+003, 6.932377e-003
1.652696e+003, 6.651893e-003
1.654624e+003, 6.685166e-003
1.656553e+003, 6.578238e-003
1.658481e+003, 6.507250e-003
1.660410e+003, 6.413957e-003
1.662338e+003, 6.522503e-003
1.664267e+003, 6.536148e-003
1.666195e+003, 6.082387e-003
1.668124e+003, 6.037782e-003
1.670052e+003, 6.389283e-003
1.671981e+003, 6.296982e-003
1.673909e+003, 6.168845e-003
1.675838e+003, 6.151155e-003
1.677766e+003, 6.007868e-003
1.679694e+003, 5.741384e-003
1.681623e+003, 5.662400e-003
1.683551e+003, 5.697735e-003
1.685480e+003, 5.681483e-003
1.687408e+003, 5.531705e-003
1.689337e+003, 5.432866e-003
1.691265e+003, 5.146983e-003
1.693194e+003, 4.967120e-003
1.695122e+003, 4.909944e-003
1.697051e+003, 4.822272e-003
1.698979e+003, 4.507827e-003
1.700908e+003, 4.469771e-003
1.702836e+003, 4.055910e-003
1.704765e+003, 3.761971e-003
1.706693e+003, 3.686910e-003
1.708621e+003, 3.787147e-003
1.710550e+003, 3.687991e-003
1.712478e+003, 3.518811e-003
1.714407e+003, 3.339623e-003
1.716335e+003, 3.122328e-003
1.718264e+003, 3.476927e-003
1.720192e+003, 3.629727e-003
1.722121e+003, 3.425031e-003
1.724049e+003, 3.444771e-003
1.725978e+003, 3.803061e-003
1.727906e+003, 3.762672e-003
1.729835e+003, 3.584528e-003
1.731763e+003, 3.258111e-003
1.733692e+003, 3.297877e-003
1.735620e+003, 3.492045e-003
1.737548e+003, 3.348536e-003
1.739477e+003, 3.228549e-003
1.741405e+003, 3.067893e-003
1.743334e+003, 3.312299e-003
1.745262e+003, 3.505080e-003
1.747191e+003, 3.512849e-003
1.749119e+003, 3.703817e-003
1.751048e+003, 3.660424e-003
1.752976e+003, 3.753462e-003
1.754905e+003, 4.084041e-003
1.756833e+003, 4.202598e-003
1.758762e+003, 4.970331e-003
1.760690e+003, 6.788991e-003
1.762619e+003, 8.676308e-003
1.764547e+003, 1.142816e-002
1.766475e+003, 1.572793e-002
1.768404e+003, 2.010606e-002
1.770332e+003, 2.236523e-002
1.772261e+003, 2.234433e-002
1.774189e+003, 2.157206e-002
1.776118e+003, 1.984579e-002
1.778046e+003, 1.657211e-002
1.779975e+003, 1.267836e-002
1.781903e+003, 9.706170e-003
1.783832e+003, 7.536856e-003
1.785760e+003, 5.717929e-003
1.787689e+003, 4.232415e-003
1.789617e+003, 3.652995e-003
1.791546e+003, 3.601975e-003
1.793474e+003, 3.340425e-003
1.795402e+003, 2.966803e-003
1.797331e+003, 2.865767e-003
1.799259e+003, 2.845275e-003
1.801188e+003, 2.835334e-003
1.803116e+003, 2.686551e-003
1.805045e+003, 2.553754e-003
1.806973e+003, 2.723975e-003
1.808902e+003, 2.626908e-003
1.810830e+003, 2.536312e-003
1.812759e+003, 2.836134e-003
1.814687e+003, 2.868739e-003
1.816616e+003, 2.757213e-003
1.818544e+003, 2.861110e-003
1.820473e+003, 3.031138e-003
1.822401e+003, 3.212316e-003
1.824329e+003, 3.181003e-003
1.826258e+003, 3.172872e-003
1.828186e+003, 3.269250e-003
1.830115e+003, 3.324375e-003
1.832043e+003, 3.154800e-003
1.833972e+003, 2.871209e-003
1.835900e+003, 3.071673e-003
1.837829e+003, 3.088044e-003
1.839757e+003, 2.526905e-003
1.841686e+003, 2.549218e-003
1.843614e+003, 2.995507e-003
1.845543e+003, 3.021825e-003
1.847471e+003, 3.175929e-003
1.849400e+003, 3.108634e-003
1.851328e+003, 3.000367e-003
1.853256e+003, 3.191444e-003
1.855185e+003, 3.836543e-003
1.857113e+003, 3.909702e-003
1.859042e+003, 3.227658e-003
1.860970e+003, 3.077695e-003
1.862899e+003, 2.975124e-003
1.864827e+003, 2.608954e-003
1.866756e+003, 2.665767e-003
1.868684e+003, 2.810895e-003
1.870613e+003, 2.853386e-003
1.872541e+003, 3.014906e-003
1.874470e+003, 3.119668e-003
1.876398e+003, 3.203409e-003
1.878327e+003, 3.162954e-003
1.880255e+003, 2.731109e-003
1.882183e+003, 2.733740e-003
1.884112e+003, 2.955543e-003
1.886040e+003, 3.254036e-003
1.887969e+003, 3.415369e-003
1.889897e+003, 3.414739e-003
1.891826e+003, 3.004481e-003
1.893754e+003, 3.326940e-003
1.895683e+003, 3.427299e-003
1.897611e+003, 3.014681e-003
1.899540e+003, 2.845097e-003
1.901468e+003, 2.763223e-003
1.903397e+003, 2.811939e-003
1.905325e+003, 3.255683e-003
1.907254e+003, 4.350383e-003
1.909182e+003, 4.782351e-003
1.911110e+003, 4.045468e-003
1.913039e+003, 3.976756e-003
1.914967e+003, 4.197980e-003
1.916896e+003, 3.738949e-003
1.918824e+003, 3.306037e-003
1.920753e+003, 3.492691e-003
1.922681e+003, 3.466640e-003
1.924610e+003, 3.234979e-003
1.926538e+003, 3.720110e-003
1.928467e+003, 3.411758e-003
1.930395e+003, 3.154024e-003
1.932324e+003, 2.373921e-003
1.934252e+003, 2.199928e-003
1.936181e+003, 2.718964e-003
1.938109e+003, 2.061499e-003
1.940037e+003, 2.476339e-003
1.941966e+003, 3.295029e-003
1.943894e+003, 2.544992e-003
1.945823e+003, 1.862043e-003
1.947751e+003, 3.159673e-003
1.949680e+003, 3.115842e-003
1.951608e+003, 2.500595e-003
1.953537e+003, 3.506881e-003
1.955465e+003, 4.503012e-003
1.957394e+003, 3.010145e-003
1.959322e+003, 2.873621e-003
1.961251e+003, 2.963656e-003
1.963179e+003, 2.628035e-003
1.965108e+003, 1.982471e-003
1.967036e+003, 1.126607e-003
1.968964e+003, 1.914111e-003
1.970893e+003, 3.173480e-003
1.972821e+003, 3.446267e-003
1.974750e+003, 1.966346e-003
1.976678e+003, 1.964034e-003
1.978607e+003, 5.970663e-003
1.980535e+003, 7.314759e-003
1.982464e+003, 5.942241e-003
1.984392e+003, 5.072712e-003
1.986321e+003, 4.420058e-003
1.988249e+003, 4.562956e-003
1.990178e+003, 5.783881e-003
1.992106e+003, 5.618354e-003
1.994035e+003, 5.142961e-003
1.995963e+003, 4.948981e-003
1.997891e+003, 3.841427e-003
1.999820e+003, 2.018923e-003
2.001748e+003, 2.995260e-003
2.003677e+003, 5.066814e-003
2.005605e+003, 5.756526e-003
2.007534e+003, 3.194642e-003
2.009462e+003, 1.633072e-003
2.011391e+003, 2.886544e-003
2.013319e+003, 3.399218e-003
2.015248e+003, 4.239225e-003
2.017176e+003, 5.055019e-003
2.019105e+003, 4.388636e-003
2.021033e+003, 2.886846e-003
2.022962e+003, 3.418816e-003
2.024890e+003, 4.570352e-003
2.026818e+003, 3.584513e-003
2.028747e+003, 2.900833e-003
2.030675e+003, 3.143408e-003
2.032604e+003, 5.233414e-003
2.034532e+003, 5.641876e-003
2.036461e+003, 5.212866e-003
2.038389e+003, 5.736779e-003
2.040318e+003, 4.528896e-003
2.042246e+003, 4.065979e-003
2.044175e+003, 3.747366e-003
2.046103e+003, 4.851465e-003
2.048032e+003, 7.278931e-003
2.049960e+003, 7.889912e-003
2.051889e+003, 7.213568e-003
2.053817e+003, 6.092669e-003
2.055746e+003, 4.674994e-003
2.057674e+003, 3.506316e-003
2.059603e+003, 4.309704e-003
2.061531e+003, 4.049950e-003
2.063459e+003, 3.548343e-003
2.065388e+003, 3.716148e-003
2.067316e+003, 5.749275e-003
2.069245e+003, 6.043131e-003
2.071173e+003, 5.307791e-003
2.073102e+003, 5.260339e-003
2.075030e+003, 4.699605e-003
2.076959e+003, 4.676941e-003
2.078887e+003, 6.017240e-003
2.080816e+003, 5.418782e-003
2.082744e+003, 4.415908e-003
2.084673e+003, 4.508757e-003
2.086601e+003, 5.301252e-003
2.088530e+003, 6.058863e-003
2.090458e+003, 4.928630e-003
2.092386e+003, 3.505641e-003
2.094315e+003, 4.217569e-003
2.096243e+003, 5.201974e-003
2.098172e+003, 5.588283e-003
2.100100e+003, 5.868014e-003
2.102029e+003, 5.397859e-003
2.103957e+003, 4.206696e-003
2.105886e+003, 3.484912e-003
2.107814e+003, 4.473285e-003
2.109743e+003, 5.679359e-003
2.111671e+003, 5.964632e-003
2.113600e+003, 5.689127e-003
2.115528e+003, 4.741387e-003
2.117457e+003, 3.974841e-003
2.119385e+003, 4.441866e-003
2.121313e+003, 4.794416e-003
2.123242e+003, 4.569197e-003
2.125170e+003, 5.229723e-003
2.127099e+003, 5.757800e-003
2.129027e+003, 5.163178e-003
2.130956e+003, 3.152204e-003
2.132884e+003, 2.770162e-003
2.134813e+003, 3.757111e-003
2.136741e+003, 3.893315e-003
2.138670e+003, 3.332148e-003
2.140598e+003, 2.577246e-003
2.142527e+003, 2.487099e-003
2.144455e+003, 2.531327e-003
2.146384e+003, 1.834574e-003
2.148312e+003, 1.791138e-003
2.150240e+003, 3.788195e-003
2.152169e+003, 3.199146e-003
2.154097e+003, 5.543422e-004
2.156026e+003, 2.320153e-004
2.157954e+003, 3.835529e-003
2.159883e+003, 9.490941e-003
2.161811e+003, 1.048305e-002
2.163740e+003, 9.238809e-003
2.165668e+003, 7.726119e-003
2.167597e+003, 5.501394e-003
2.169525e+003, 3.230488e-003
2.171454e+003, 3.975248e-003
2.173382e+003, 5.040958e-003
2.175311e+003, 4.602244e-003
2.177239e+003, 5.248407e-003
2.179167e+003, 4.994510e-003
2.181096e+003, 4.765640e-003
2.183024e+003, 4.607766e-003
2.184953e+003, 3.947767e-003
2.186881e+003, 5.370011e-003
2.188810e+003, 5.114081e-003
2.190738e+003, 5.419392e-003
2.192667e+003, 6.614115e-003
2.194595e+003, 5.553985e-003
2.196524e+003, 5.162447e-003
2.198452e+003, 7.623205e-003
2.200381e+003, 7.899213e-003
2.202309e+003, 5.839854e-003
2.204238e+003, 4.319679e-003
2.206166e+003, 4.028860e-003
2.208094e+003, 4.911144e-003
2.210023e+003, 6.072815e-003
2.211951e+003, 5.795266e-003
2.213880e+003, 6.642734e-003
2.215808e+003, 6.925854e-003
2.217737e+003, 6.336288e-003
2.219665e+003, 5.942672e-003
2.221594e+003, 6.051345e-003
2.223522e+003, 6.408980e-003
2.225451e+003, 6.694300e-003
2.227379e+003, 7.605026e-003
2.229308e+003, 7.771992e-003
2.231236e+003, 7.495475e-003
2.233165e+003, 8.696563e-003
2.235093e+003, 8.832419e-003
2.237021e+003, 7.454691e-003
2.238950e+003, 6.921413e-003
2.240878e+003, 6.466608e-003
2.242807e+003, 6.857771e-003
2.244735e+003, 7.724191e-003
2.246664e+003, 7.478889e-003
2.248592e+003, 7.471709e-003
2.250521e+003, 6.680398e-003
2.252449e+003, 5.782953e-003
2.254378e+003, 5.816294e-003
2.256306e+003, 6.901914e-003
2.258235e+003, 8.004735e-003
2.260163e+003, 7.837752e-003
2.262092e+003, 6.815385e-003
2.264020e+003, 5.966402e-003
2.265948e+003, 6.615600e-003
2.267877e+003, 7.663726e-003
2.269805e+003, 8.260578e-003
2.271734e+003, 8.072279e-003
2.273662e+003, 7.980496e-003
2.275591e+003, 7.932973e-003
2.277519e+003, 8.030918e-003
2.279448e+003, 8.612712e-003
2.281376e+003, 8.368569e-003
2.283305e+003, 8.382915e-003
2.285233e+003, 8.564872e-003
2.287162e+003, 9.028001e-003
2.289090e+003, 9.632471e-003
2.291019e+003, 9.696793e-003
2.292947e+003, 9.388624e-003
2.294875e+003, 8.591968e-003
2.296804e+003, 8.246112e-003
2.298732e+003, 8.315660e-003
2.300661e+003, 8.376957e-003
2.302589e+003, 8.425690e-003
2.304518e+003, 8.212825e-003
2.306446e+003, 7.812584e-003
2.308375e+003, 7.590453e-003
2.310303e+003, 8.110147e-003
2.312232e+003, 8.673532e-003
2.314160e+003, 9.073750e-003
2.316089e+003, 8.773051e-003
2.318017e+003, 8.554377e-003
2.319946e+003, 9.032896e-003
2.321874e+003, 1.009450e-002
2.323802e+003, 1.005884e-002
2.325731e+003, 8.368419e-003
2.327659e+003, 7.137817e-003
2.329588e+003, 7.300348e-003
2.331516e+003, 7.782935e-003
2.333445e+003, 7.794974e-003
2.335373e+003, 7.604619e-003
2.337302e+003, 7.937251e-003
2.339230e+003, 8.180590e-003
2.341159e+003, 8.174988e-003
2.343087e+003, 7.536975e-003
2.345016e+003, 7.167831e-003
2.346944e+003, 7.400197e-003
2.348873e+003, 7.477050e-003
2.350801e+003, 7.412917e-003
2.352729e+003, 7.890210e-003
2.354658e+003, 8.287338e-003
2.356586e+003, 7.816170e-003
2.358515e+003, 7.115698e-003
2.360443e+003, 7.017893e-003
2.362372e+003, 7.079428e-003
2.364300e+003, 7.252381e-003
2.366229e+003, 7.398783e-003
2.368157e+003, 7.074074e-003
2.370086e+003, 6.292264e-003
2.372014e+003, 6.661857e-003
2.373942e+003, 7.100613e-003
2.375871e+003, 7.033582e-003
2.377799e+003, 7.216570e-003
2.379728e+003, 7.047610e-003
2.381656e+003, 7.033926e-003
2.383585e+003, 7.407027e-003
2.385513e+003, 7.504239e-003
2.387442e+003, 7.467710e-003
2.389370e+003, 7.223564e-003
2.391299e+003, 7.212337e-003
2.393227e+003, 6.808250e-003
2.395156e+003, 6.773584e-003
2.397084e+003, 7.192609e-003
2.399012e+003, 7.365146e-003
2.400941e+003, 7.746431e-003
2.402869e+003, 8.062195e-003
2.404798e+003, 7.861555e-003
2.406726e+003, 8.349823e-003
2.408655e+003, 8.554644e-003
2.410583e+003, 7.934202e-003
2.412512e+003, 7.902883e-003
2.414440e+003, 8.017237e-003
2.416369e+003, 7.843384e-003
2.418297e+003, 7.722432e-003
2.420226e+003, 7.696980e-003
2.422154e+003, 8.200358e-003
2.424083e+003, 8.238261e-003
2.426011e+003, 7.922833e-003
2.427939e+003, 7.747871e-003
2.429868e+003, 8.146603e-003
2.431796e+003, 8.463189e-003
2.433725e+003, 8.659002e-003
2.435653e+003, 8.889602e-003
2.437582e+003, 9.171851e-003
2.439510e+003, 8.263662e-003
2.441439e+003, 7.872004e-003
2.443367e+003, 7.899957e-003
2.445296e+003, 8.217875e-003
2.447224e+003, 8.573456e-003
2.449153e+003, 9.701462e-003
2.451081e+003, 1.003807e-002
2.453010e+003, 9.866127e-003
2.454938e+003, 1.021933e-002
2.456866e+003, 1.077288e-002
2.458795e+003, 1.033571e-002
2.460723e+003, 1.103164e-002
2.462652e+003, 1.127927e-002
2.464580e+003, 1.132958e-002
2.466509e+003, 1.248832e-002
2.468437e+003, 1.306000e-002
2.470366e+003, 1.341580e-002
2.472294e+003, 1.389186e-002
2.474223e+003, 1.454791e-002
2.476151e+003, 1.536441e-002
2.478080e+003, 1.634146e-002
2.480008e+003, 1.748467e-002
2.481937e+003, 1.781981e-002
2.483865e+003, 1.805822e-002
2.485793e+003, 1.805234e-002
2.487722e+003, 1.791856e-002
2.489650e+003, 1.691764e-002
2.491579e+003, 1.647327e-002
2.493507e+003, 1.702321e-002
2.495436e+003, 1.693830e-002
2.497364e+003, 1.585126e-002
2.499293e+003, 1.531656e-002
2.501221e+003, 1.487735e-002
2.503150e+003, 1.464083e-002
2.505078e+003, 1.458484e-002
2.507007e+003, 1.476172e-002
2.508935e+003, 1.520061e-002
2.510864e+003, 1.456644e-002
2.512792e+003, 1.346153e-002
2.514720e+003, 1.317890e-002
2.516649e+003, 1.259811e-002
2.518577e+003, 1.202368e-002
2.520506e+003, 1.182125e-002
2.522434e+003, 1.154135e-002
2.524363e+003, 1.193726e-002
2.526291e+003, 1.225603e-002
2.528220e+003, 1.088954e-002
2.530148e+003, 9.773562e-003
2.532077e+003, 1.019301e-002
2.534005e+003, 1.097689e-002
2.535934e+003, 1.009648e-002
2.537862e+003, 9.672453e-003
2.539791e+003, 9.906431e-003
2.541719e+003, 1.054970e-002
2.543647e+003, 1.010173e-002
2.545576e+003, 9.466516e-003
2.547504e+003, 9.729742e-003
2.549433e+003, 1.037563e-002
2.551361e+003, 9.783245e-003
2.553290e+003, 9.420722e-003
2.555218e+003, 9.254617e-003
2.557147e+003, 8.183073e-003
2.559075e+003, 7.625277e-003
2.561004e+003, 8.151957e-003
2.562932e+003, 8.902576e-003
2.564861e+003, 9.183480e-003
2.566789e+003, 9.409740e-003
2.568718e+003, 1.008425e-002
2.570646e+003, 1.018621e-002
2.572574e+003, 9.287507e-003
2.574503e+003, 8.648662e-003
2.576431e+003, 8.381058e-003
2.578360e+003, 8.276825e-003
2.580288e+003, 9.054247e-003
2.582217e+003, 9.506224e-003
2.584145e+003, 9.234489e-003
2.586074e+003, 9.345283e-003
2.588002e+003, 9.836803e-003
2.589931e+003, 9.900996e-003
2.591859e+003, 1.030171e-002
2.593788e+003, 1.046170e-002
2.595716e+003, 9.597359e-003
2.597645e+003, 8.847114e-003
2.599573e+003, 8.861913e-003
2.601501e+003, 8.784770e-003
2.603430e+003, 8.638328e-003
2.605358e+003, 8.409917e-003
2.607287e+003, 8.999698e-003
2.609215e+003, 9.346654e-003
2.611144e+003, 9.238673e-003
2.613072e+003, 8.834175e-003
2.615001e+003, 9.021743e-003
2.616929e+003, 8.738390e-003
2.618858e+003, 8.475571e-003
2.620786e+003, 8.390199e-003
2.622715e+003, 8.413619e-003
2.624643e+003, 8.513968e-003
2.626572e+003, 8.648772e-003
2.628500e+003, 8.437091e-003
2.630428e+003, 7.979847e-003
2.632357e+003, 7.686920e-003
2.634285e+003, 7.972529e-003
2.636214e+003, 7.809051e-003
2.638142e+003, 7.872619e-003
2.640071e+003, 8.213371e-003
2.641999e+003, 7.808883e-003
2.643928e+003, 7.601207e-003
2.645856e+003, 8.177236e-003
2.647785e+003, 8.497732e-003
2.649713e+003, 8.487060e-003
2.651642e+003, 8.843667e-003
2.653570e+003, 8.551478e-003
2.655499e+003, 7.639188e-003
2.657427e+003, 7.601425e-003
2.659355e+003, 7.381930e-003
2.661284e+003, 7.043943e-003
2.663212e+003, 7.302173e-003
2.665141e+003, 7.441098e-003
2.667069e+003, 7.608213e-003
2.668998e+003, 7.493904e-003
2.670926e+003, 6.952866e-003
2.672855e+003, 6.954175e-003
2.674783e+003, 7.377943e-003
2.676712e+003, 7.220354e-003
2.678640e+003, 6.940414e-003
2.680569e+003, 6.245651e-003
2.682497e+003, 5.820343e-003
2.684426e+003, 6.527598e-003
2.686354e+003, 6.770702e-003
2.688282e+003, 6.191282e-003
2.690211e+003, 6.539723e-003
2.692139e+003, 6.912627e-003
2.694068e+003, 6.934603e-003
2.695996e+003, 6.809128e-003
2.697925e+003, 6.865842e-003
2.699853e+003, 6.987216e-003
2.701782e+003, 7.268827e-003
2.703710e+003, 7.111116e-003
2.705639e+003, 7.073341e-003
2.707567e+003, 6.971372e-003
2.709496e+003, 6.483249e-003
2.711424e+003, 6.693351e-003
2.713353e+003, 6.478672e-003
2.715281e+003, 6.689672e-003
2.717209e+003, 6.826737e-003
2.719138e+003, 6.697145e-003
2.721066e+003, 6.920452e-003
2.722995e+003, 7.158634e-003
2.724923e+003, 7.150793e-003
2.726852e+003, 7.303216e-003
2.728780e+003, 6.891487e-003
2.730709e+003, 6.837983e-003
2.732637e+003, 7.096098e-003
2.734566e+003, 7.022019e-003
2.736494e+003, 6.539058e-003
2.738423e+003, 6.851653e-003
2.740351e+003, 6.603274e-003
2.742280e+003, 5.675589e-003
2.744208e+003, 6.006411e-003
2.746136e+003, 6.301615e-003
2.748065e+003, 5.862034e-003
2.749993e+003, 6.484290e-003
2.751922e+003, 6.797315e-003
2.753850e+003, 6.322293e-003
2.755779e+003, 6.073788e-003
2.757707e+003, 6.320186e-003
2.759636e+003, 6.569171e-003
2.761564e+003, 6.830539e-003
2.763493e+003, 6.752779e-003
2.765421e+003, 6.202454e-003
2.767350e+003, 5.802039e-003
2.769278e+003, 6.083744e-003
2.771207e+003, 6.198394e-003
2.773135e+003, 6.089323e-003
2.775063e+003, 6.070010e-003
2.776992e+003, 5.893595e-003
2.778920e+003, 5.413508e-003
2.780849e+003, 5.967763e-003
2.782777e+003, 5.844491e-003
2.784706e+003, 5.960406e-003
2.786634e+003, 6.021332e-003
2.788563e+003, 6.030912e-003
2.790491e+003, 5.779511e-003
2.792420e+003, 5.097668e-003
2.794348e+003, 4.799278e-003
2.796277e+003, 4.853182e-003
2.798205e+003, 5.546068e-003
2.800134e+003, 6.159847e-003
2.802062e+003, 6.197035e-003
2.803990e+003, 5.756240e-003
2.805919e+003, 5.213492e-003
2.807847e+003, 4.852054e-003
2.809776e+003, 4.852084e-003
2.811704e+003, 5.404022e-003
2.813633e+003, 5.766425e-003
2.815561e+003, 6.055358e-003
2.817490e+003, 5.655536e-003
2.819418e+003, 4.993882e-003
2.821347e+003, 5.036638e-003
2.823275e+003, 5.305758e-003
2.825204e+003, 5.409343e-003
2.827132e+003, 5.156677e-003
2.829061e+003, 5.071269e-003
2.830989e+003, 6.396796e-003
2.832917e+003, 6.985242e-003
2.834846e+003, 7.013672e-003
2.836774e+003, 7.481222e-003
2.838703e+003, 7.416186e-003
2.840631e+003, 6.913859e-003
2.842560e+003, 6.587671e-003
2.844488e+003, 5.835899e-003
2.846417e+003, 5.914258e-003
2.848345e+003, 6.304283e-003
2.850274e+003, 6.905001e-003
2.852202e+003, 6.999761e-003
2.854131e+003, 6.778967e-003
2.856059e+003, 6.603037e-003
2.857988e+003, 6.959326e-003
2.859916e+003, 6.602961e-003
2.861844e+003, 6.741149e-003
2.863773e+003, 7.566433e-003
2.865701e+003, 8.276423e-003
2.867630e+003, 8.246972e-003
2.869558e+003, 8.309001e-003
2.871487e+003, 8.574037e-003
2.873415e+003, 8.503647e-003
2.875344e+003, 8.723371e-003
2.877272e+003, 9.001166e-003
2.879201e+003, 9.425168e-003
2.881129e+003, 9.105189e-003
2.883058e+003, 8.594621e-003
2.884986e+003, 8.410145e-003
2.886915e+003, 8.196927e-003
2.888843e+003, 8.236097e-003
2.890771e+003, 8.285467e-003
2.892700e+003, 8.137212e-003
2.894628e+003, 7.467618e-003
2.896557e+003, 7.584353e-003
2.898485e+003, 7.189530e-003
2.900414e+003, 6.445248e-003
2.902342e+003, 7.094035e-003
2.904271e+003, 7.295913e-003
2.906199e+003, 6.632674e-003
2.908128e+003, 7.564370e-003
2.910056e+003, 8.288139e-003
2.911985e+003, 8.090680e-003
2.913913e+003, 7.933954e-003
2.915842e+003, 8.426157e-003
2.917770e+003, 8.097257e-003
2.919698e+003, 7.491455e-003
2.921627e+003, 7.249559e-003
2.923555e+003, 7.978707e-003
2.925484e+003, 7.882467e-003
2.927412e+003, 7.731194e-003
2.929341e+003, 8.150497e-003
2.931269e+003, 8.739336e-003
2.933198e+003, 8.725428e-003
2.935126e+003, 8.972850e-003
2.937055e+003, 9.486390e-003
2.938983e+003, 8.739141e-003
2.940912e+003, 8.209620e-003
2.942840e+003, 9.255274e-003
2.944769e+003, 9.246883e-003
2.946697e+003, 8.122103e-003
2.948625e+003, 7.571678e-003
2.950554e+003, 7.344412e-003
2.952482e+003, 7.261997e-003
2.954411e+003, 8.352123e-003
2.956339e+003, 7.953800e-003
2.958268e+003, 6.655106e-003
2.960196e+003, 6.309717e-003
2.962125e+003, 7.023899e-003
2.964053e+003, 7.358545e-003
2.965982e+003, 7.519022e-003
2.967910e+003, 6.464642e-003
2.969839e+003, 6.042848e-003
2.971767e+003, 6.120278e-003
2.973696e+003, 5.857666e-003
2.975624e+003, 5.505926e-003
2.977552e+003, 6.533519e-003
2.979481e+003, 7.108859e-003
2.981409e+003, 6.629692e-003
2.983338e+003, 5.661593e-003
2.985266e+003, 5.863955e-003
2.987195e+003, 6.971125e-003
2.989123e+003, 7.718609e-003
2.991052e+003, 6.772141e-003
2.992980e+003, 6.369110e-003
2.994909e+003, 6.418515e-003
2.996837e+003, 6.491181e-003
2.998766e+003, 6.640444e-003
3.000694e+003, 6.826612e-003
3.002623e+003, 6.818545e-003
3.004551e+003, 7.177457e-003
3.006479e+003, 7.581543e-003
3.008408e+003, 7.674047e-003
3.010336e+003, 7.256022e-003
3.012265e+003, 7.286656e-003
3.014193e+003, 7.678635e-003
3.016122e+003, 7.221591e-003
3.018050e+003, 7.636009e-003
3.019979e+003, 8.931693e-003
3.021907e+003, 7.950887e-003
3.023836e+003, 7.717821e-003
3.025764e+003, 8.367843e-003
3.027693e+003, 7.907267e-003
3.029621e+003, 7.993614e-003
3.031550e+003, 8.618139e-003
3.033478e+003, 8.765670e-003
3.035406e+003, 8.921943e-003
3.037335e+003, 8.421200e-003
3.039263e+003, 7.742260e-003
3.041192e+003, 8.396461e-003
3.043120e+003, 8.855266e-003
3.045049e+003, 8.296143e-003
3.046977e+003, 8.191872e-003
3.048906e+003, 8.456754e-003
3.050834e+003, 8.864998e-003
3.052763e+003, 8.279710e-003
3.054691e+003, 8.820426e-003
3.056620e+003, 9.380605e-003
3.058548e+003, 9.467674e-003
3.060477e+003, 9.589022e-003
3.062405e+003, 9.244069e-003
3.064333e+003, 9.439467e-003
3.066262e+003, 1.071534e-002
3.068190e+003, 1.131034e-002
3.070119e+003, 1.037518e-002
3.072047e+003, 9.758855e-003
3.073976e+003, 1.069744e-002
3.075904e+003, 1.081827e-002
3.077833e+003, 1.036739e-002
3.079761e+003, 1.007449e-002
3.081690e+003, 1.025139e-002
3.083618e+003, 1.040420e-002
3.085547e+003, 9.723810e-003
3.087475e+003, 9.544025e-003
3.089404e+003, 1.056970e-002
3.091332e+003, 1.155982e-002
3.093260e+003, 1.148077e-002
3.095189e+003, 1.123413e-002
3.097117e+003, 1.100129e-002
3.099046e+003, 1.055867e-002
3.100974e+003, 1.127356e-002
3.102903e+003, 1.107903e-002
3.104831e+003, 1.091860e-002
3.106760e+003, 1.172147e-002
3.108688e+003, 1.285947e-002
3.110617e+003, 1.298223e-002
3.112545e+003, 1.240935e-002
3.114474e+003, 1.189525e-002
3.116402e+003, 1.232489e-002
3.118331e+003, 1.250653e-002
3.120259e+003, 1.297245e-002
3.122188e+003, 1.295633e-002
3.124116e+003, 1.202032e-002
3.126044e+003, 1.163181e-002
3.127973e+003, 1.242150e-002
3.129901e+003, 1.299825e-002
3.131830e+003, 1.265346e-002
3.133758e+003, 1.284661e-002
3.135687e+003, 1.398244e-002
3.137615e+003, 1.342871e-002
3.139544e+003, 1.205194e-002
3.141472e+003, 1.223257e-002
3.143401e+003, 1.360985e-002
3.145329e+003, 1.330888e-002
3.147258e+003, 1.301633e-002
3.149186e+003, 1.438932e-002
3.151115e+003, 1.568407e-002
3.153043e+003, 1.426536e-002
3.154971e+003, 1.293300e-002
3.156900e+003, 1.211167e-002
3.158828e+003, 1.230208e-002
3.160757e+003, 1.276954e-002
3.162685e+003, 1.305727e-002
3.164614e+003, 1.274618e-002
3.166542e+003, 1.273073e-002
3.168471e+003, 1.294511e-002
3.170399e+003, 1.300865e-002
3.172328e+003, 1.376430e-002
3.174256e+003, 1.460472e-002
3.176185e+003, 1.460450e-002
3.178113e+003, 1.350797e-002
3.180042e+003, 1.261405e-002
3.181970e+003, 1.286713e-002
3.183898e+003, 1.289734e-002
3.185827e+003, 1.296463e-002
3.187755e+003, 1.285566e-002
3.189684e+003, 1.315927e-002
3.191612e+003, 1.259215e-002
3.193541e+003, 1.228032e-002
3.195469e+003, 1.338922e-002
3.197398e+003, 1.371197e-002
3.199326e+003, 1.377967e-002
3.201255e+003, 1.426171e-002
3.203183e+003, 1.338723e-002
3.205112e+003, 1.301359e-002
3.207040e+003, 1.230113e-002
3.208969e+003, 1.331946e-002
3.210897e+003, 1.429530e-002
3.212825e+003, 1.421415e-002
3.214754e+003, 1.405318e-002
3.216682e+003, 1.345302e-002
3.218611e+003, 1.336977e-002
3.220539e+003, 1.355560e-002
3.222468e+003, 1.369424e-002
3.224396e+003, 1.275329e-002
3.226325e+003, 1.312045e-002
3.228253e+003, 1.389400e-002
3.230182e+003, 1.424029e-002
3.232110e+003, 1.449747e-002
3.234039e+003, 1.385679e-002
3.235967e+003, 1.406401e-002
3.237896e+003, 1.458169e-002
3.239824e+003, 1.438783e-002
3.241752e+003, 1.394269e-002
3.243681e+003, 1.417506e-002
3.245609e+003, 1.439205e-002
3.247538e+003, 1.455515e-002
3.249466e+003, 1.403482e-002
3.251395e+003, 1.414767e-002
3.253323e+003, 1.460926e-002
3.255252e+003, 1.536894e-002
3.257180e+003, 1.566396e-002
3.259109e+003, 1.607298e-002
3.261037e+003, 1.464817e-002
3.262966e+003, 1.405668e-002
3.264894e+003, 1.481162e-002
3.266823e+003, 1.497034e-002
3.268751e+003, 1.503616e-002
3.270679e+003, 1.488463e-002
3.272608e+003, 1.560701e-002
3.274536e+003, 1.647352e-002
3.276465e+003, 1.429389e-002
3.278393e+003, 1.475940e-002
3.280322e+003, 1.487160e-002
3.282250e+003, 1.364856e-002
3.284179e+003, 1.354089e-002
3.286107e+003, 1.474763e-002
3.288036e+003, 1.523972e-002
3.289964e+003, 1.479635e-002
3.291893e+003, 1.419066e-002
3.293821e+003, 1.277568e-002
3.295750e+003, 1.296993e-002
3.297678e+003, 1.484549e-002
3.299606e+003, 1.543221e-002
3.301535e+003, 1.453651e-002
3.303463e+003, 1.501738e-002
3.305392e+003, 1.573377e-002
3.307320e+003, 1.489544e-002
3.309249e+003, 1.377281e-002
3.311177e+003, 1.393575e-002
3.313106e+003, 1.466598e-002
3.315034e+003, 1.473245e-002
3.316963e+003, 1.497913e-002
3.318891e+003, 1.473677e-002
3.320820e+003, 1.529469e-002
3.322748e+003, 1.606061e-002
3.324677e+003, 1.521568e-002
3.326605e+003, 1.453060e-002
3.328533e+003, 1.514584e-002
3.330462e+003, 1.427791e-002
3.332390e+003, 1.465266e-002
3.334319e+003, 1.500545e-002
3.336247e+003, 1.540926e-002
3.338176e+003, 1.543477e-002
3.340104e+003, 1.476471e-002
3.342033e+003, 1.582206e-002
3.343961e+003, 1.662195e-002
3.345890e+003, 1.541287e-002
3.347818e+003, 1.515597e-002
3.349747e+003, 1.662626e-002
3.351675e+003, 1.756195e-002
3.353604e+003, 1.759280e-002
3.355532e+003, 1.722651e-002
3.357460e+003, 1.620875e-002
3.359389e+003, 1.591328e-002
3.361317e+003, 1.558459e-002
3.363246e+003, 1.514404e-002
3.365174e+003, 1.613480e-002
3.367103e+003, 1.650937e-002
3.369031e+003, 1.628701e-002
3.370960e+003, 1.703936e-002
3.372888e+003, 1.678476e-002
3.374817e+003, 1.688274e-002
3.376745e+003, 1.624047e-002
3.378674e+003, 1.627238e-002
3.380602e+003, 1.684446e-002
3.382531e+003, 1.614127e-002
3.384459e+003, 1.552446e-002
3.386387e+003, 1.502503e-002
3.388316e+003, 1.531697e-002
3.390244e+003, 1.673394e-002
3.392173e+003, 1.660976e-002
3.394101e+003, 1.552581e-002
3.396030e+003, 1.516012e-002
3.397958e+003, 1.475050e-002
3.399887e+003, 1.601741e-002
3.401815e+003, 1.715504e-002
3.403744e+003, 1.683635e-002
3.405672e+003, 1.716526e-002
3.407601e+003, 1.699435e-002
3.409529e+003, 1.720080e-002
3.411458e+003, 1.682727e-002
3.413386e+003, 1.535262e-002
3.415314e+003, 1.520452e-002
3.417243e+003, 1.595697e-002
3.419171e+003, 1.618546e-002
3.421100e+003, 1.622414e-002
3.423028e+003, 1.607250e-002
3.424957e+003, 1.716122e-002
3.426885e+003, 1.683404e-002
3.428814e+003, 1.614012e-002
3.430742e+003, 1.711497e-002
3.432671e+003, 1.753851e-002
3.434599e+003, 1.669345e-002
3.436528e+003, 1.571019e-002
3.438456e+003, 1.529396e-002
3.440385e+003, 1.587631e-002
3.442313e+003, 1.649623e-002
3.444241e+003, 1.723224e-002
3.446170e+003, 1.631005e-002
3.448098e+003, 1.448671e-002
3.450027e+003, 1.406984e-002
3.451955e+003, 1.519291e-002
3.453884e+003, 1.593378e-002
3.455812e+003, 1.784359e-002
3.457741e+003, 1.783133e-002
3.459669e+003, 1.670633e-002
3.461598e+003, 1.653737e-002
3.463526e+003, 1.761803e-002
3.465455e+003, 1.650876e-002
3.467383e+003, 1.493116e-002
3.469312e+003, 1.576641e-002
3.471240e+003, 1.584775e-002
3.473168e+003, 1.530510e-002
3.475097e+003, 1.715835e-002
3.477025e+003, 1.749148e-002
3.478954e+003, 1.582533e-002
3.480882e+003, 1.490474e-002
3.482811e+003, 1.571662e-002
3.484739e+003, 1.741442e-002
3.486668e+003, 1.760892e-002
3.488596e+003, 1.694185e-002
3.490525e+003, 1.696880e-002
3.492453e+003, 1.570974e-002
3.494382e+003, 1.524607e-002
3.496310e+003, 1.554204e-002
3.498239e+003, 1.723610e-002
3.500167e+003, 1.706731e-002
3.502095e+003, 1.567724e-002
3.504024e+003, 1.665797e-002
3.505952e+003, 1.760007e-002
3.507881e+003, 1.713295e-002
3.509809e+003, 1.692306e-002
3.511738e+003, 1.625612e-002
3.513666e+003, 1.528789e-002
3.515595e+003, 1.416743e-002
3.517523e+003, 1.430546e-002
3.519452e+003, 1.603840e-002
3.521380e+003, 1.644709e-002
3.523309e+003, 1.499579e-002
3.525237e+003, 1.600193e-002
3.527166e+003, 1.451716e-002
3.529094e+003, 1.379919e-002
3.531022e+003, 1.492957e-002
3.532951e+003, 1.645529e-002
3.534879e+003, 1.560018e-002
3.536808e+003, 1.530513e-002
3.538736e+003, 1.525431e-002
3.540665e+003, 1.453456e-002
3.542593e+003, 1.398975e-002
3.544522e+003, 1.418246e-002
3.546450e+003, 1.479606e-002
3.548379e+003, 1.470643e-002
3.550307e+003, 1.461096e-002
3.552236e+003, 1.515579e-002
3.554164e+003, 1.691996e-002
3.556093e+003, 1.677402e-002
3.558021e+003, 1.487252e-002
3.559949e+003, 1.540877e-002
3.561878e+003, 1.516379e-002
3.563806e+003, 1.478748e-002
3.565735e+003, 1.567886e-002
3.567663e+003, 1.685487e-002
3.569592e+003, 1.689986e-002
3.571520e+003, 1.666191e-002
3.573449e+003, 1.692579e-002
3.575377e+003, 1.648755e-002
3.577306e+003, 1.428605e-002
3.579234e+003, 1.364653e-002
3.581163e+003, 1.583471e-002
3.583091e+003, 1.774293e-002
3.585020e+003, 1.806956e-002
3.586948e+003, 1.684135e-002
3.588876e+003, 1.654807e-002
3.590805e+003, 1.753724e-002
3.592733e+003, 1.676280e-002
3.594662e+003, 1.518398e-002
3.596590e+003, 1.376124e-002
3.598519e+003, 1.504865e-002
3.600447e+003, 1.586299e-002
3.602376e+003, 1.529102e-002
3.604304e+003, 1.506681e-002
3.606233e+003, 1.376669e-002
3.608161e+003, 1.405098e-002
3.610090e+003, 1.507710e-002
3.612018e+003, 1.442741e-002
3.613947e+003, 1.383996e-002
3.615875e+003, 1.379725e-002
3.617803e+003, 1.586737e-002
3.619732e+003, 1.634161e-002
3.621660e+003, 1.631676e-002
3.623589e+003, 1.794159e-002
3.625517e+003, 1.823068e-002
3.627446e+003, 1.668917e-002
3.629374e+003, 1.735148e-002
3.631303e+003, 1.661587e-002
3.633231e+003, 1.573804e-002
3.635160e+003, 1.696617e-002
3.637088e+003, 1.717004e-002
3.639017e+003, 1.541540e-002
3.640945e+003, 1.452938e-002
3.642874e+003, 1.675127e-002
3.644802e+003, 1.833954e-002
3.646730e+003, 1.843506e-002
3.648659e+003, 1.827605e-002
3.650587e+003, 1.660854e-002
3.652516e+003, 1.594368e-002
3.654444e+003, 1.559650e-002
3.656373e+003, 1.673393e-002
3.658301e+003, 1.688841e-002
3.660230e+003, 1.559896e-002
3.662158e+003, 1.532890e-002
3.664087e+003, 1.698550e-002
3.666015e+003, 1.628629e-002
3.667944e+003, 1.449157e-002
3.669872e+003, 1.410554e-002
3.671801e+003, 1.497633e-002
3.673729e+003, 1.373686e-002
3.675657e+003, 1.525590e-002
3.677586e+003, 1.608866e-002
3.679514e+003, 1.545788e-002
3.681443e+003, 1.448940e-002
3.683371e+003, 1.481066e-002
3.685300e+003, 1.396288e-002
3.687228e+003, 1.413024e-002
3.689157e+003, 1.657958e-002
3.691085e+003, 1.785943e-002
3.693014e+003, 1.850088e-002
3.694942e+003, 1.845990e-002
3.696871e+003, 1.669488e-002
3.698799e+003, 1.539777e-002
3.700728e+003, 1.463432e-002
3.702656e+003, 1.424506e-002
3.704584e+003, 1.469805e-002
3.706513e+003, 1.483072e-002
3.708441e+003, 1.523988e-002
3.710370e+003, 1.579152e-002
3.712298e+003, 1.456309e-002
3.714227e+003, 1.566420e-002
3.716155e+003, 1.800884e-002
3.718084e+003, 1.806463e-002
3.720012e+003, 1.570867e-002
3.721941e+003, 1.547028e-002
3.723869e+003, 1.704799e-002
3.725798e+003, 1.845191e-002
3.727726e+003, 1.811856e-002
3.729655e+003, 1.775849e-002
3.731583e+003, 1.763812e-002
3.733511e+003, 1.690586e-002
3.735440e+003, 1.592401e-002
3.737368e+003, 1.680957e-002
3.739297e+003, 1.749725e-002
3.741225e+003, 1.763909e-002
3.743154e+003, 1.808961e-002
3.745082e+003, 1.876969e-002
3.747011e+003, 1.699245e-002
3.748939e+003, 1.666655e-002
3.750868e+003, 1.736985e-002
3.752796e+003, 1.790555e-002
3.754725e+003, 1.804281e-002
3.756653e+003, 1.987787e-002
3.758582e+003, 2.103185e-002
3.760510e+003, 1.897685e-002
3.762438e+003, 1.565977e-002
3.764367e+003, 1.625618e-002
3.766295e+003, 1.703218e-002
3.768224e+003, 1.527989e-002
3.770152e+003, 1.370843e-002
3.772081e+003, 1.417798e-002
3.774009e+003, 1.530771e-002
3.775938e+003, 1.671549e-002
3.777866e+003, 1.691801e-002
3.779795e+003, 1.637390e-002
3.781723e+003, 1.424152e-002
3.783652e+003, 1.497520e-002
3.785580e+003, 1.700583e-002
3.787509e+003, 1.714800e-002
3.789437e+003, 1.483636e-002
3.791365e+003, 1.708589e-002
3.793294e+003, 1.939819e-002
3.795222e+003, 1.865594e-002
3.797151e+003, 1.814201e-002
3.799079e+003, 1.807981e-002
3.801008e+003, 1.649916e-002
3.802936e+003, 1.703992e-002
3.804865e+003, 1.541350e-002
3.806793e+003, 1.591006e-002
3.808722e+003, 1.799395e-002
3.810650e+003, 1.844797e-002
3.812579e+003, 1.895192e-002
3.814507e+003, 1.796436e-002
3.816436e+003, 1.720880e-002
3.818364e+003, 1.920485e-002
3.820292e+003, 2.037395e-002
3.822221e+003, 1.916159e-002
3.824149e+003, 1.795052e-002
3.826078e+003, 1.970077e-002
3.828006e+003, 1.789469e-002
3.829935e+003, 1.725434e-002
3.831863e+003, 1.772008e-002
3.833792e+003, 1.736754e-002
3.835720e+003, 1.728545e-002
3.837649e+003, 1.694052e-002
3.839577e+003, 1.823391e-002
3.841506e+003, 1.899192e-002
3.843434e+003, 1.695222e-002
3.845363e+003, 1.768998e-002
3.847291e+003, 1.961558e-002
3.849219e+003, 1.969627e-002
3.851148e+003, 1.882841e-002
3.853076e+003, 1.821893e-002
3.855005e+003, 1.741160e-002
3.856933e+003, 1.532846e-002
3.858862e+003, 1.504387e-002
3.860790e+003, 1.580002e-002
3.862719e+003, 1.440918e-002
3.864647e+003, 1.400579e-002
3.866576e+003, 1.532478e-002
3.868504e+003, 1.509281e-002
3.870433e+003, 1.552241e-002
3.872361e+003, 1.739283e-002
3.874290e+003, 1.879274e-002
3.876218e+003, 1.708280e-002
3.878146e+003, 1.586662e-002
3.880075e+003, 1.653476e-002
3.882003e+003, 1.596924e-002
3.883932e+003, 1.447961e-002
3.885860e+003, 1.496316e-002
3.887789e+003, 1.625307e-002
3.889717e+003, 1.703365e-002
3.891646e+003, 1.763352e-002
3.893574e+003, 1.699212e-002
3.895503e+003, 1.724893e-002
3.897431e+003, 1.696821e-002
3.899360e+003, 1.784834e-002
3.901288e+003, 1.871161e-002
3.903217e+003, 1.891799e-002
3.905145e+003, 1.944992e-002
3.907073e+003, 1.861492e-002
3.909002e+003, 1.470018e-002
3.910930e+003, 1.312612e-002
3.912859e+003, 1.578400e-002
3.914787e+003, 1.710300e-002
3.916716e+003, 1.770425e-002
3.918644e+003, 1.745760e-002
3.920573e+003, 1.698794e-002
3.922501e+003, 1.674841e-002
3.924430e+003, 1.739506e-002
3.926358e+003, 1.562703e-002
3.928287e+003, 1.536596e-002
3.930215e+003, 1.871919e-002
3.932144e+003, 1.939606e-002
3.934072e+003, 1.770744e-002
3.936000e+003, 1.652301e-002
3.937929e+003, 1.731974e-002
3.939857e+003, 1.757723e-002
3.941786e+003, 1.813996e-002
3.943714e+003, 1.803580e-002
3.945643e+003, 1.616427e-002
3.947571e+003, 1.618330e-002
3.949500e+003, 1.765947e-002
3.951428e+003, 1.636961e-002
3.953357e+003, 1.512187e-002
3.955285e+003, 1.591518e-002
3.957214e+003, 1.828562e-002
3.959142e+003, 1.855510e-002
3.961071e+003, 1.699689e-002
3.962999e+003, 1.777194e-002
3.964927e+003, 1.954509e-002
3.966856e+003, 1.933276e-002
3.968784e+003, 1.826929e-002
3.970713e+003, 1.870162e-002
3.972641e+003, 1.957155e-002
3.974570e+003, 1.840009e-002
3.976498e+003, 1.828867e-002
3.978427e+003, 1.775877e-002
3.980355e+003, 1.790263e-002
3.982284e+003, 1.709140e-002
3.984212e+003, 1.717224e-002
3.986141e+003, 1.816693e-002
3.988069e+003, 1.752335e-002
3.989998e+003, 1.657376e-002
3.991926e+003, 1.837592e-002
3.993854e+003, 1.952642e-002
3.995783e+003, 1.878164e-002
3.997711e+003, 1.976190e-002
3.999640e+003, 1.976992e-002
##END=



