##NAMES=Struvite
##RRUFFID=R050540
##IDEAL CHEMISTRY=(N^3-^H_4_)MgPO_4_&#183;6H_2_O
##LOCALITY=Hamburg, Germany
##OWNER=RRUFF
##SOURCE=University of Arizona Mineral Museum
##DESCRIPTION=Yellowish-brown wedge-shaped crystal
##STATUS=The identification of this mineral has been confirmed by X-ray diffraction and chemical analysis
##URL=rruff.info/R050540
##MEASURED CHEMISTRY=(NH_4_)(Mg_0.74_Fe^2+^_0.14_Ca_0.09_Mn_0.03_)_Σ=1_(P_1.00_O_4_)·6H_2_O ; NH_4_ not measured but estimated by charge balance.
3.991926e+002, 2.479319e-001
4.011211e+002, 2.301057e-001
4.030496e+002, 2.301057e-001
4.049780e+002, 2.224124e-001
4.069065e+002, 2.274534e-001
4.088350e+002, 2.261590e-001
4.107634e+002, 2.231983e-001
4.126919e+002, 2.299149e-001
4.146204e+002, 2.427309e-001
4.165488e+002, 2.433364e-001
4.184773e+002, 2.509446e-001
4.204058e+002, 2.588229e-001
4.223342e+002, 2.640045e-001
4.242627e+002, 2.707154e-001
4.261912e+002, 2.749376e-001
4.281196e+002, 2.740268e-001
4.300481e+002, 2.745474e-001
4.319766e+002, 2.799251e-001
4.339050e+002, 2.856498e-001
4.358335e+002, 2.825284e-001
4.377620e+002, 2.804880e-001
4.396904e+002, 2.785477e-001
4.416189e+002, 2.727327e-001
4.435474e+002, 2.695977e-001
4.454758e+002, 2.749829e-001
4.474043e+002, 2.763154e-001
4.493328e+002, 2.754217e-001
4.512612e+002, 2.746991e-001
4.531897e+002, 2.800689e-001
4.551182e+002, 2.869453e-001
4.570466e+002, 2.880887e-001
4.589751e+002, 2.853690e-001
4.609036e+002, 2.830450e-001
4.628320e+002, 2.821137e-001
4.647605e+002, 2.792771e-001
4.666890e+002, 2.759328e-001
4.686174e+002, 2.709852e-001
4.705459e+002, 2.630865e-001
4.724744e+002, 2.562345e-001
4.744028e+002, 2.542660e-001
4.763313e+002, 2.518204e-001
4.782598e+002, 2.480295e-001
4.801882e+002, 2.463291e-001
4.821167e+002, 2.457032e-001
4.840452e+002, 2.432766e-001
4.859736e+002, 2.419688e-001
4.879021e+002, 2.413985e-001
4.898306e+002, 2.420235e-001
4.917590e+002, 2.453783e-001
4.936875e+002, 2.497769e-001
4.956160e+002, 2.559388e-001
4.975444e+002, 2.604794e-001
4.994729e+002, 2.663682e-001
5.014014e+002, 2.739289e-001
5.033298e+002, 2.800278e-001
5.052583e+002, 2.841848e-001
5.071868e+002, 2.861555e-001
5.091152e+002, 2.886281e-001
5.110437e+002, 2.902056e-001
5.129722e+002, 2.884814e-001
5.149006e+002, 2.860150e-001
5.168291e+002, 2.851301e-001
5.187576e+002, 2.862067e-001
5.206860e+002, 2.881568e-001
5.226145e+002, 2.905909e-001
5.245430e+002, 2.931302e-001
5.264714e+002, 2.983959e-001
5.283999e+002, 3.044256e-001
5.303284e+002, 3.107940e-001
5.322568e+002, 3.191688e-001
5.341853e+002, 3.262552e-001
5.361138e+002, 3.323156e-001
5.380422e+002, 3.423820e-001
5.399707e+002, 3.546927e-001
5.418992e+002, 3.669040e-001
5.438276e+002, 3.815800e-001
5.457561e+002, 3.980301e-001
5.476846e+002, 4.161044e-001
5.496130e+002, 4.375590e-001
5.515415e+002, 4.604892e-001
5.534700e+002, 4.854184e-001
5.553984e+002, 5.083621e-001
5.573269e+002, 5.278298e-001
5.592554e+002, 5.434780e-001
5.611838e+002, 5.540349e-001
5.631123e+002, 5.606373e-001
5.650408e+002, 5.600846e-001
5.669692e+002, 5.523567e-001
5.688977e+002, 5.356231e-001
5.708262e+002, 5.099781e-001
5.727546e+002, 4.763421e-001
5.746831e+002, 4.385109e-001
5.766116e+002, 3.993070e-001
5.785400e+002, 3.619722e-001
5.804685e+002, 3.238826e-001
5.823970e+002, 2.882387e-001
5.843254e+002, 2.594276e-001
5.862539e+002, 2.357940e-001
5.881824e+002, 2.177521e-001
5.901108e+002, 2.056827e-001
5.920393e+002, 1.974228e-001
5.939678e+002, 1.903199e-001
5.958962e+002, 1.861187e-001
5.978247e+002, 1.833877e-001
5.997532e+002, 1.815835e-001
6.016816e+002, 1.814016e-001
6.036101e+002, 1.810577e-001
6.055386e+002, 1.810422e-001
6.074670e+002, 1.823685e-001
6.093955e+002, 1.848406e-001
6.113240e+002, 1.864137e-001
6.132524e+002, 1.873278e-001
6.151809e+002, 1.889856e-001
6.171094e+002, 1.913655e-001
6.190378e+002, 1.941322e-001
6.209663e+002, 1.970473e-001
6.228948e+002, 2.000426e-001
6.248232e+002, 2.039529e-001
6.267517e+002, 2.086556e-001
6.286802e+002, 2.127603e-001
6.306086e+002, 2.161228e-001
6.325371e+002, 2.185660e-001
6.344656e+002, 2.209242e-001
6.363940e+002, 2.244501e-001
6.383225e+002, 2.265937e-001
6.402510e+002, 2.274700e-001
6.421794e+002, 2.302120e-001
6.441079e+002, 2.335847e-001
6.460364e+002, 2.366150e-001
6.479648e+002, 2.395543e-001
6.498933e+002, 2.427573e-001
6.518218e+002, 2.463151e-001
6.537502e+002, 2.499316e-001
6.556787e+002, 2.540663e-001
6.576072e+002, 2.579829e-001
6.595356e+002, 2.609193e-001
6.614641e+002, 2.646160e-001
6.633926e+002, 2.692117e-001
6.653210e+002, 2.736264e-001
6.672495e+002, 2.777769e-001
6.691780e+002, 2.821645e-001
6.711064e+002, 2.865175e-001
6.730349e+002, 2.908858e-001
6.749634e+002, 2.946573e-001
6.768918e+002, 2.980353e-001
6.788203e+002, 3.003642e-001
6.807488e+002, 3.022369e-001
6.826772e+002, 3.043719e-001
6.846057e+002, 3.049154e-001
6.865342e+002, 3.051471e-001
6.884626e+002, 3.061656e-001
6.903911e+002, 3.055184e-001
6.923196e+002, 3.042381e-001
6.942480e+002, 3.023762e-001
6.961765e+002, 2.989721e-001
6.981050e+002, 2.965067e-001
7.000334e+002, 2.946923e-001
7.019619e+002, 2.935740e-001
7.038904e+002, 2.930371e-001
7.058188e+002, 2.922162e-001
7.077473e+002, 2.924812e-001
7.096758e+002, 2.939361e-001
7.116042e+002, 2.956044e-001
7.135327e+002, 2.973273e-001
7.154612e+002, 2.996455e-001
7.173896e+002, 3.025792e-001
7.193181e+002, 3.054411e-001
7.212466e+002, 3.083788e-001
7.231750e+002, 3.117181e-001
7.251035e+002, 3.145652e-001
7.270320e+002, 3.173963e-001
7.289604e+002, 3.220435e-001
7.308889e+002, 3.272749e-001
7.328174e+002, 3.320810e-001
7.347458e+002, 3.365245e-001
7.366743e+002, 3.407875e-001
7.386028e+002, 3.447661e-001
7.405313e+002, 3.488537e-001
7.424597e+002, 3.521869e-001
7.443882e+002, 3.551440e-001
7.463167e+002, 3.581868e-001
7.482451e+002, 3.598803e-001
7.501736e+002, 3.605198e-001
7.521021e+002, 3.600202e-001
7.540305e+002, 3.588992e-001
7.559590e+002, 3.563211e-001
7.578875e+002, 3.517384e-001
7.598159e+002, 3.466557e-001
7.617444e+002, 3.410729e-001
7.636729e+002, 3.351269e-001
7.656013e+002, 3.281847e-001
7.675298e+002, 3.210831e-001
7.694583e+002, 3.147904e-001
7.713867e+002, 3.085508e-001
7.733152e+002, 3.018681e-001
7.752437e+002, 2.951396e-001
7.771721e+002, 2.878027e-001
7.791006e+002, 2.794104e-001
7.810291e+002, 2.708523e-001
7.829575e+002, 2.616271e-001
7.848860e+002, 2.513349e-001
7.868145e+002, 2.426948e-001
7.887429e+002, 2.358702e-001
7.906714e+002, 2.298225e-001
7.925999e+002, 2.257555e-001
7.945283e+002, 2.221298e-001
7.964568e+002, 2.180213e-001
7.983853e+002, 2.145959e-001
8.003137e+002, 2.120030e-001
8.022422e+002, 2.096947e-001
8.041707e+002, 2.067134e-001
8.060991e+002, 2.036995e-001
8.080276e+002, 2.014352e-001
8.099561e+002, 1.993544e-001
8.118845e+002, 1.980911e-001
8.138130e+002, 1.971936e-001
8.157415e+002, 1.966632e-001
8.176699e+002, 1.967444e-001
8.195984e+002, 1.977576e-001
8.215269e+002, 1.993242e-001
8.234553e+002, 2.004939e-001
8.253838e+002, 2.018661e-001
8.273123e+002, 2.039796e-001
8.292407e+002, 2.065899e-001
8.311692e+002, 2.087457e-001
8.330977e+002, 2.110830e-001
8.350261e+002, 2.138877e-001
8.369546e+002, 2.168349e-001
8.388831e+002, 2.196292e-001
8.408115e+002, 2.222857e-001
8.427400e+002, 2.250737e-001
8.446685e+002, 2.280989e-001
8.465969e+002, 2.311017e-001
8.485254e+002, 2.340053e-001
8.504539e+002, 2.367775e-001
8.523823e+002, 2.399433e-001
8.543108e+002, 2.431201e-001
8.562393e+002, 2.471472e-001
8.581677e+002, 2.512360e-001
8.600962e+002, 2.550960e-001
8.620247e+002, 2.592964e-001
8.639531e+002, 2.639423e-001
8.658816e+002, 2.687938e-001
8.678101e+002, 2.750427e-001
8.697385e+002, 2.827032e-001
8.716670e+002, 2.914459e-001
8.735955e+002, 3.013386e-001
8.755239e+002, 3.110867e-001
8.774524e+002, 3.185952e-001
8.793809e+002, 3.209350e-001
8.813093e+002, 3.168050e-001
8.832378e+002, 3.079572e-001
8.851663e+002, 2.984607e-001
8.870947e+002, 2.901474e-001
8.890232e+002, 2.837974e-001
8.909517e+002, 2.790451e-001
8.928801e+002, 2.749861e-001
8.948085e+002, 2.719885e-001
8.967370e+002, 2.695525e-001
8.986655e+002, 2.676516e-001
9.005939e+002, 2.662092e-001
9.025224e+002, 2.644819e-001
9.044509e+002, 2.625709e-001
9.063793e+002, 2.606990e-001
9.083078e+002, 2.587579e-001
9.102363e+002, 2.571032e-001
9.121647e+002, 2.559521e-001
9.140932e+002, 2.559044e-001
9.160217e+002, 2.569594e-001
9.179501e+002, 2.586270e-001
9.198786e+002, 2.611195e-001
9.218071e+002, 2.644218e-001
9.237355e+002, 2.690285e-001
9.256640e+002, 2.754280e-001
9.275925e+002, 2.829551e-001
9.295209e+002, 2.918799e-001
9.314494e+002, 3.016065e-001
9.333779e+002, 3.129468e-001
9.353063e+002, 3.256596e-001
9.372348e+002, 3.400732e-001
9.391633e+002, 3.557446e-001
9.410917e+002, 3.728091e-001
9.430202e+002, 3.913629e-001
9.449487e+002, 4.115966e-001
9.468771e+002, 4.338730e-001
9.488056e+002, 4.572653e-001
9.507341e+002, 4.803866e-001
9.526625e+002, 5.038844e-001
9.545910e+002, 5.277243e-001
9.565195e+002, 5.524534e-001
9.584479e+002, 5.782241e-001
9.603764e+002, 6.042715e-001
9.623049e+002, 6.305468e-001
9.642333e+002, 6.563624e-001
9.661618e+002, 6.804221e-001
9.680903e+002, 7.032010e-001
9.700187e+002, 7.244418e-001
9.719472e+002, 7.422420e-001
9.738757e+002, 7.554159e-001
9.758041e+002, 7.645041e-001
9.777326e+002, 7.709787e-001
9.796611e+002, 7.739754e-001
9.815895e+002, 7.719909e-001
9.835180e+002, 7.640449e-001
9.854465e+002, 7.508903e-001
9.873749e+002, 7.326225e-001
9.893034e+002, 7.107577e-001
9.912319e+002, 6.867819e-001
9.931603e+002, 6.604238e-001
9.950888e+002, 6.333010e-001
9.970173e+002, 6.049890e-001
9.989457e+002, 5.752234e-001
1.000874e+003, 5.449662e-001
1.002803e+003, 5.143399e-001
1.004731e+003, 4.836281e-001
1.006660e+003, 4.536435e-001
1.008588e+003, 4.247378e-001
1.010517e+003, 3.969042e-001
1.012445e+003, 3.702884e-001
1.014373e+003, 3.460325e-001
1.016302e+003, 3.236689e-001
1.018230e+003, 3.032432e-001
1.020159e+003, 2.848386e-001
1.022087e+003, 2.680921e-001
1.024016e+003, 2.527191e-001
1.025944e+003, 2.389234e-001
1.027873e+003, 2.265692e-001
1.029801e+003, 2.153111e-001
1.031730e+003, 2.052955e-001
1.033658e+003, 1.967831e-001
1.035587e+003, 1.891185e-001
1.037515e+003, 1.831858e-001
1.039444e+003, 1.790187e-001
1.041372e+003, 1.754963e-001
1.043301e+003, 1.722137e-001
1.045229e+003, 1.692544e-001
1.047157e+003, 1.649303e-001
1.049086e+003, 1.588586e-001
1.051014e+003, 1.515556e-001
1.052943e+003, 1.428789e-001
1.054871e+003, 1.336413e-001
1.056800e+003, 1.252029e-001
1.058728e+003, 1.178054e-001
1.060657e+003, 1.111940e-001
1.062585e+003, 1.048984e-001
1.064514e+003, 9.926792e-002
1.066442e+003, 9.455330e-002
1.068371e+003, 9.107775e-002
1.070299e+003, 8.813187e-002
1.072228e+003, 8.569903e-002
1.074156e+003, 8.420502e-002
1.076084e+003, 8.311055e-002
1.078013e+003, 8.250877e-002
1.079941e+003, 8.237249e-002
1.081870e+003, 8.225054e-002
1.083798e+003, 8.209956e-002
1.085727e+003, 8.172485e-002
1.087655e+003, 8.100694e-002
1.089584e+003, 7.941362e-002
1.091512e+003, 7.619479e-002
1.093441e+003, 7.220221e-002
1.095369e+003, 6.773505e-002
1.097298e+003, 6.320110e-002
1.099226e+003, 5.922469e-002
1.101155e+003, 5.585117e-002
1.103083e+003, 5.281007e-002
1.105011e+003, 5.002128e-002
1.106940e+003, 4.772535e-002
1.108868e+003, 4.556285e-002
1.110797e+003, 4.323325e-002
1.112725e+003, 4.143483e-002
1.114654e+003, 4.020504e-002
1.116582e+003, 3.921388e-002
1.118511e+003, 3.825659e-002
1.120439e+003, 3.709198e-002
1.122368e+003, 3.639059e-002
1.124296e+003, 3.598847e-002
1.126225e+003, 3.537771e-002
1.128153e+003, 3.473410e-002
1.130082e+003, 3.421726e-002
1.132010e+003, 3.379566e-002
1.133938e+003, 3.347075e-002
1.135867e+003, 3.321075e-002
1.137795e+003, 3.294802e-002
1.139724e+003, 3.279180e-002
1.141652e+003, 3.262682e-002
1.143581e+003, 3.252475e-002
1.145509e+003, 3.259589e-002
1.147438e+003, 3.291435e-002
1.149366e+003, 3.371222e-002
1.151295e+003, 3.483763e-002
1.153223e+003, 3.591943e-002
1.155152e+003, 3.735312e-002
1.157080e+003, 3.918897e-002
1.159009e+003, 4.106108e-002
1.160937e+003, 4.273717e-002
1.162865e+003, 4.413933e-002
1.164794e+003, 4.488176e-002
1.166722e+003, 4.537654e-002
1.168651e+003, 4.565019e-002
1.170579e+003, 4.543971e-002
1.172508e+003, 4.436207e-002
1.174436e+003, 4.226905e-002
1.176365e+003, 3.953193e-002
1.178293e+003, 3.653167e-002
1.180222e+003, 3.388890e-002
1.182150e+003, 3.173932e-002
1.184079e+003, 3.004828e-002
1.186007e+003, 2.867552e-002
1.187936e+003, 2.769348e-002
1.189864e+003, 2.672444e-002
1.191792e+003, 2.569569e-002
1.193721e+003, 2.469051e-002
1.195649e+003, 2.377951e-002
1.197578e+003, 2.315429e-002
1.199506e+003, 2.250752e-002
1.201435e+003, 2.191758e-002
1.203363e+003, 2.181952e-002
1.205292e+003, 2.154336e-002
1.207220e+003, 2.136849e-002
1.209149e+003, 2.130160e-002
1.211077e+003, 2.122178e-002
1.213006e+003, 2.144981e-002
1.214934e+003, 2.188371e-002
1.216863e+003, 2.227029e-002
1.218791e+003, 2.289071e-002
1.220719e+003, 2.354368e-002
1.222648e+003, 2.424773e-002
1.224576e+003, 2.519518e-002
1.226505e+003, 2.630455e-002
1.228433e+003, 2.726168e-002
1.230362e+003, 2.818292e-002
1.232290e+003, 2.901563e-002
1.234219e+003, 2.959249e-002
1.236147e+003, 3.003567e-002
1.238076e+003, 3.030564e-002
1.240004e+003, 2.998721e-002
1.241933e+003, 2.918842e-002
1.243861e+003, 2.812593e-002
1.245790e+003, 2.718160e-002
1.247718e+003, 2.636415e-002
1.249646e+003, 2.554462e-002
1.251575e+003, 2.500013e-002
1.253503e+003, 2.466427e-002
1.255432e+003, 2.437882e-002
1.257360e+003, 2.415574e-002
1.259289e+003, 2.401974e-002
1.261217e+003, 2.388568e-002
1.263146e+003, 2.394929e-002
1.265074e+003, 2.430411e-002
1.267003e+003, 2.496714e-002
1.268931e+003, 2.534197e-002
1.270860e+003, 2.578115e-002
1.272788e+003, 2.633543e-002
1.274717e+003, 2.658693e-002
1.276645e+003, 2.653924e-002
1.278573e+003, 2.645521e-002
1.280502e+003, 2.645873e-002
1.282430e+003, 2.643894e-002
1.284359e+003, 2.638267e-002
1.286287e+003, 2.659736e-002
1.288216e+003, 2.685572e-002
1.290144e+003, 2.690112e-002
1.292073e+003, 2.729149e-002
1.294001e+003, 2.822881e-002
1.295930e+003, 2.910190e-002
1.297858e+003, 2.976974e-002
1.299787e+003, 3.076410e-002
1.301715e+003, 3.202833e-002
1.303644e+003, 3.312625e-002
1.305572e+003, 3.410425e-002
1.307500e+003, 3.524394e-002
1.309429e+003, 3.656955e-002
1.311357e+003, 3.796388e-002
1.313286e+003, 3.870541e-002
1.315214e+003, 3.896024e-002
1.317143e+003, 3.859107e-002
1.319071e+003, 3.781854e-002
1.321000e+003, 3.719318e-002
1.322928e+003, 3.654645e-002
1.324857e+003, 3.590450e-002
1.326785e+003, 3.554424e-002
1.328714e+003, 3.529587e-002
1.330642e+003, 3.496093e-002
1.332571e+003, 3.435976e-002
1.334499e+003, 3.392891e-002
1.336427e+003, 3.368783e-002
1.338356e+003, 3.334601e-002
1.340284e+003, 3.303407e-002
1.342213e+003, 3.288382e-002
1.344141e+003, 3.277190e-002
1.346070e+003, 3.283601e-002
1.347998e+003, 3.289769e-002
1.349927e+003, 3.301730e-002
1.351855e+003, 3.323798e-002
1.353784e+003, 3.354549e-002
1.355712e+003, 3.405221e-002
1.357641e+003, 3.472298e-002
1.359569e+003, 3.533069e-002
1.361498e+003, 3.613820e-002
1.363426e+003, 3.727015e-002
1.365354e+003, 3.842478e-002
1.367283e+003, 3.970645e-002
1.369211e+003, 4.144380e-002
1.371140e+003, 4.344446e-002
1.373068e+003, 4.529989e-002
1.374997e+003, 4.698109e-002
1.376925e+003, 4.861085e-002
1.378854e+003, 5.021112e-002
1.380782e+003, 5.153169e-002
1.382711e+003, 5.238943e-002
1.384639e+003, 5.286295e-002
1.386568e+003, 5.314176e-002
1.388496e+003, 5.336999e-002
1.390424e+003, 5.374144e-002
1.392353e+003, 5.467455e-002
1.394281e+003, 5.587943e-002
1.396210e+003, 5.718695e-002
1.398138e+003, 5.884985e-002
1.400067e+003, 6.093416e-002
1.401995e+003, 6.336458e-002
1.403924e+003, 6.594419e-002
1.405852e+003, 6.898251e-002
1.407781e+003, 7.251639e-002
1.409709e+003, 7.633563e-002
1.411638e+003, 8.069083e-002
1.413566e+003, 8.594196e-002
1.415495e+003, 9.227323e-002
1.417423e+003, 9.951548e-002
1.419351e+003, 1.081304e-001
1.421280e+003, 1.186509e-001
1.423208e+003, 1.313077e-001
1.425137e+003, 1.455537e-001
1.427065e+003, 1.601650e-001
1.428994e+003, 1.728663e-001
1.430922e+003, 1.805292e-001
1.432851e+003, 1.815488e-001
1.434779e+003, 1.768225e-001
1.436708e+003, 1.691514e-001
1.438636e+003, 1.616357e-001
1.440565e+003, 1.557324e-001
1.442493e+003, 1.510166e-001
1.444422e+003, 1.465224e-001
1.446350e+003, 1.407844e-001
1.448278e+003, 1.330339e-001
1.450207e+003, 1.242017e-001
1.452135e+003, 1.159407e-001
1.454064e+003, 1.092558e-001
1.455992e+003, 1.042140e-001
1.457921e+003, 1.011976e-001
1.459849e+003, 1.000022e-001
1.461778e+003, 1.000083e-001
1.463706e+003, 1.010678e-001
1.465635e+003, 1.023073e-001
1.467563e+003, 1.028079e-001
1.469492e+003, 1.020568e-001
1.471420e+003, 9.922682e-002
1.473349e+003, 9.432346e-002
1.475277e+003, 8.816922e-002
1.477205e+003, 8.178357e-002
1.479134e+003, 7.598294e-002
1.481062e+003, 7.070560e-002
1.482991e+003, 6.645354e-002
1.484919e+003, 6.314856e-002
1.486848e+003, 6.039423e-002
1.488776e+003, 5.819167e-002
1.490705e+003, 5.632904e-002
1.492633e+003, 5.511053e-002
1.494562e+003, 5.427245e-002
1.496490e+003, 5.336133e-002
1.498419e+003, 5.268998e-002
1.500347e+003, 5.234529e-002
1.502276e+003, 5.241556e-002
1.504204e+003, 5.254228e-002
1.506132e+003, 5.265167e-002
1.508061e+003, 5.287489e-002
1.509989e+003, 5.333544e-002
1.511918e+003, 5.377534e-002
1.513846e+003, 5.427567e-002
1.515775e+003, 5.484312e-002
1.517703e+003, 5.547102e-002
1.519632e+003, 5.600735e-002
1.521560e+003, 5.648475e-002
1.523489e+003, 5.707369e-002
1.525417e+003, 5.786897e-002
1.527346e+003, 5.856477e-002
1.529274e+003, 5.910793e-002
1.531203e+003, 5.994005e-002
1.533131e+003, 6.077033e-002
1.535059e+003, 6.124335e-002
1.536988e+003, 6.195699e-002
1.538916e+003, 6.293242e-002
1.540845e+003, 6.370148e-002
1.542773e+003, 6.444859e-002
1.544702e+003, 6.540208e-002
1.546630e+003, 6.656128e-002
1.548559e+003, 6.746694e-002
1.550487e+003, 6.826581e-002
1.552416e+003, 6.911641e-002
1.554344e+003, 7.000165e-002
1.556273e+003, 7.079498e-002
1.558201e+003, 7.181932e-002
1.560130e+003, 7.299451e-002
1.562058e+003, 7.378845e-002
1.563986e+003, 7.436143e-002
1.565915e+003, 7.528167e-002
1.567843e+003, 7.616202e-002
1.569772e+003, 7.684620e-002
1.571700e+003, 7.789426e-002
1.573629e+003, 7.889966e-002
1.575557e+003, 7.944111e-002
1.577486e+003, 8.019676e-002
1.579414e+003, 8.097776e-002
1.581343e+003, 8.152037e-002
1.583271e+003, 8.209420e-002
1.585200e+003, 8.269568e-002
1.587128e+003, 8.345293e-002
1.589057e+003, 8.423792e-002
1.590985e+003, 8.488327e-002
1.592913e+003, 8.543961e-002
1.594842e+003, 8.564075e-002
1.596770e+003, 8.602911e-002
1.598699e+003, 8.647746e-002
1.600627e+003, 8.685330e-002
1.602556e+003, 8.708541e-002
1.604484e+003, 8.715968e-002
1.606413e+003, 8.706801e-002
1.608341e+003, 8.703873e-002
1.610270e+003, 8.711445e-002
1.612198e+003, 8.710574e-002
1.614127e+003, 8.699444e-002
1.616055e+003, 8.672859e-002
1.617984e+003, 8.631971e-002
1.619912e+003, 8.603998e-002
1.621840e+003, 8.592188e-002
1.623769e+003, 8.567408e-002
1.625697e+003, 8.521334e-002
1.627626e+003, 8.470754e-002
1.629554e+003, 8.441713e-002
1.631483e+003, 8.435170e-002
1.633411e+003, 8.446570e-002
1.635340e+003, 8.458473e-002
1.637268e+003, 8.476815e-002
1.639197e+003, 8.487549e-002
1.641125e+003, 8.509144e-002
1.643054e+003, 8.547363e-002
1.644982e+003, 8.592337e-002
1.646911e+003, 8.634712e-002
1.648839e+003, 8.642817e-002
1.650767e+003, 8.621403e-002
1.652696e+003, 8.562323e-002
1.654624e+003, 8.467387e-002
1.656553e+003, 8.394887e-002
1.658481e+003, 8.327395e-002
1.660410e+003, 8.260410e-002
1.662338e+003, 8.210773e-002
1.664267e+003, 8.149850e-002
1.666195e+003, 8.100515e-002
1.668124e+003, 8.037012e-002
1.670052e+003, 7.967479e-002
1.671981e+003, 7.887530e-002
1.673909e+003, 7.825182e-002
1.675838e+003, 7.767481e-002
1.677766e+003, 7.696601e-002
1.679694e+003, 7.614195e-002
1.681623e+003, 7.506039e-002
1.683551e+003, 7.402696e-002
1.685480e+003, 7.320490e-002
1.687408e+003, 7.214164e-002
1.689337e+003, 7.089791e-002
1.691265e+003, 6.970476e-002
1.693194e+003, 6.846283e-002
1.695122e+003, 6.691385e-002
1.697051e+003, 6.535794e-002
1.698979e+003, 6.372270e-002
1.700908e+003, 6.181570e-002
1.702836e+003, 6.001560e-002
1.704765e+003, 5.861664e-002
1.706693e+003, 5.717980e-002
1.708621e+003, 5.583470e-002
1.710550e+003, 5.453342e-002
1.712478e+003, 5.321625e-002
1.714407e+003, 5.213030e-002
1.716335e+003, 5.127434e-002
1.718264e+003, 5.029839e-002
1.720192e+003, 4.942058e-002
1.722121e+003, 4.858283e-002
1.724049e+003, 4.781649e-002
1.725978e+003, 4.711147e-002
1.727906e+003, 4.635582e-002
1.729835e+003, 4.553106e-002
1.731763e+003, 4.476358e-002
1.733692e+003, 4.417455e-002
1.735620e+003, 4.347969e-002
1.737548e+003, 4.276587e-002
1.739477e+003, 4.236149e-002
1.741405e+003, 4.207944e-002
1.743334e+003, 4.182277e-002
1.745262e+003, 4.161348e-002
1.747191e+003, 4.164597e-002
1.749119e+003, 4.185240e-002
1.751048e+003, 4.197344e-002
1.752976e+003, 4.203552e-002
1.754905e+003, 4.232179e-002
1.756833e+003, 4.256936e-002
1.758762e+003, 4.271461e-002
1.760690e+003, 4.272383e-002
1.762619e+003, 4.278116e-002
1.764547e+003, 4.284490e-002
1.766475e+003, 4.253577e-002
1.768404e+003, 4.232822e-002
1.770332e+003, 4.236409e-002
1.772261e+003, 4.231346e-002
1.774189e+003, 4.206918e-002
1.776118e+003, 4.184671e-002
1.778046e+003, 4.177746e-002
1.779975e+003, 4.160888e-002
1.781903e+003, 4.165155e-002
1.783832e+003, 4.162362e-002
1.785760e+003, 4.136544e-002
1.787689e+003, 4.145029e-002
1.789617e+003, 4.160331e-002
1.791546e+003, 4.154901e-002
1.793474e+003, 4.145247e-002
1.795402e+003, 4.118697e-002
1.797331e+003, 4.099553e-002
1.799259e+003, 4.087188e-002
1.801188e+003, 4.052692e-002
1.803116e+003, 4.003453e-002
1.805045e+003, 4.004274e-002
1.806973e+003, 3.994374e-002
1.808902e+003, 3.967113e-002
1.810830e+003, 3.942321e-002
1.812759e+003, 3.909364e-002
1.814687e+003, 3.873523e-002
1.816616e+003, 3.813969e-002
1.818544e+003, 3.759794e-002
1.820473e+003, 3.778123e-002
1.822401e+003, 3.785972e-002
1.824329e+003, 3.762533e-002
1.826258e+003, 3.720246e-002
1.828186e+003, 3.667356e-002
1.830115e+003, 3.630942e-002
1.832043e+003, 3.630701e-002
1.833972e+003, 3.597867e-002
1.835900e+003, 3.546104e-002
1.837829e+003, 3.518584e-002
1.839757e+003, 3.516043e-002
1.841686e+003, 3.505004e-002
1.843614e+003, 3.457387e-002
1.845543e+003, 3.422655e-002
1.847471e+003, 3.399029e-002
1.849400e+003, 3.374885e-002
1.851328e+003, 3.309317e-002
1.853256e+003, 3.265361e-002
1.855185e+003, 3.266047e-002
1.857113e+003, 3.278180e-002
1.859042e+003, 3.244565e-002
1.860970e+003, 3.194676e-002
1.862899e+003, 3.165606e-002
1.864827e+003, 3.124106e-002
1.866756e+003, 3.091845e-002
1.868684e+003, 3.097727e-002
1.870613e+003, 3.089195e-002
1.872541e+003, 3.056988e-002
1.874470e+003, 3.028586e-002
1.876398e+003, 2.947737e-002
1.878327e+003, 2.896827e-002
1.880255e+003, 2.906459e-002
1.882183e+003, 2.944227e-002
1.884112e+003, 2.949549e-002
1.886040e+003, 2.941337e-002
1.887969e+003, 2.926880e-002
1.889897e+003, 2.891029e-002
1.891826e+003, 2.804028e-002
1.893754e+003, 2.797967e-002
1.895683e+003, 2.845574e-002
1.897611e+003, 2.820887e-002
1.899540e+003, 2.763741e-002
1.901468e+003, 2.732593e-002
1.903397e+003, 2.804749e-002
1.905325e+003, 2.811748e-002
1.907254e+003, 2.734841e-002
1.909182e+003, 2.703277e-002
1.911110e+003, 2.708422e-002
1.913039e+003, 2.676109e-002
1.914967e+003, 2.663062e-002
1.916896e+003, 2.669527e-002
1.918824e+003, 2.626066e-002
1.920753e+003, 2.553457e-002
1.922681e+003, 2.541504e-002
1.924610e+003, 2.570553e-002
1.926538e+003, 2.491534e-002
1.928467e+003, 2.478083e-002
1.930395e+003, 2.568883e-002
1.932324e+003, 2.522541e-002
1.934252e+003, 2.400069e-002
1.936181e+003, 2.304289e-002
1.938109e+003, 2.276786e-002
1.940037e+003, 2.315918e-002
1.941966e+003, 2.315100e-002
1.943894e+003, 2.320979e-002
1.945823e+003, 2.256751e-002
1.947751e+003, 2.151394e-002
1.949680e+003, 2.083234e-002
1.951608e+003, 2.085296e-002
1.953537e+003, 2.153100e-002
1.955465e+003, 2.161697e-002
1.957394e+003, 2.032511e-002
1.959322e+003, 1.990785e-002
1.961251e+003, 1.938164e-002
1.963179e+003, 1.835169e-002
1.965108e+003, 1.868567e-002
1.967036e+003, 1.983886e-002
1.968964e+003, 1.935697e-002
1.970893e+003, 1.787444e-002
1.972821e+003, 1.737762e-002
1.974750e+003, 1.759145e-002
1.976678e+003, 1.852509e-002
1.978607e+003, 1.956000e-002
1.980535e+003, 2.051796e-002
1.982464e+003, 2.055603e-002
1.984392e+003, 2.057344e-002
1.986321e+003, 2.098988e-002
1.988249e+003, 2.091435e-002
1.990178e+003, 2.108559e-002
1.992106e+003, 2.067531e-002
1.994035e+003, 2.061485e-002
1.995963e+003, 2.019985e-002
1.997891e+003, 1.934402e-002
1.999820e+003, 1.886551e-002
2.001748e+003, 1.791840e-002
2.003677e+003, 1.791519e-002
2.005605e+003, 1.797845e-002
2.007534e+003, 1.912592e-002
2.009462e+003, 2.057886e-002
2.011391e+003, 1.990719e-002
2.013319e+003, 1.806828e-002
2.015248e+003, 1.856967e-002
2.017176e+003, 2.109675e-002
2.019105e+003, 2.101425e-002
2.021033e+003, 2.043196e-002
2.022962e+003, 2.101773e-002
2.024890e+003, 2.095364e-002
2.026818e+003, 2.065846e-002
2.028747e+003, 1.965571e-002
2.030675e+003, 1.969291e-002
2.032604e+003, 2.035310e-002
2.034532e+003, 2.052880e-002
2.036461e+003, 2.054078e-002
2.038389e+003, 2.133390e-002
2.040318e+003, 2.247538e-002
2.042246e+003, 2.263139e-002
2.044175e+003, 2.190082e-002
2.046103e+003, 2.234640e-002
2.048032e+003, 2.335924e-002
2.049960e+003, 2.434357e-002
2.051889e+003, 2.410544e-002
2.053817e+003, 2.403785e-002
2.055746e+003, 2.421858e-002
2.057674e+003, 2.374609e-002
2.059603e+003, 2.309006e-002
2.061531e+003, 2.310072e-002
2.063459e+003, 2.396235e-002
2.065388e+003, 2.462075e-002
2.067316e+003, 2.472060e-002
2.069245e+003, 2.450813e-002
2.071173e+003, 2.462047e-002
2.073102e+003, 2.462587e-002
2.075030e+003, 2.511228e-002
2.076959e+003, 2.506492e-002
2.078887e+003, 2.510322e-002
2.080816e+003, 2.536017e-002
2.082744e+003, 2.532655e-002
2.084673e+003, 2.526425e-002
2.086601e+003, 2.502719e-002
2.088530e+003, 2.399299e-002
2.090458e+003, 2.370794e-002
2.092386e+003, 2.402643e-002
2.094315e+003, 2.397810e-002
2.096243e+003, 2.425838e-002
2.098172e+003, 2.520364e-002
2.100100e+003, 2.497332e-002
2.102029e+003, 2.460010e-002
2.103957e+003, 2.524244e-002
2.105886e+003, 2.603649e-002
2.107814e+003, 2.592853e-002
2.109743e+003, 2.553608e-002
2.111671e+003, 2.564243e-002
2.113600e+003, 2.588373e-002
2.115528e+003, 2.565080e-002
2.117457e+003, 2.581923e-002
2.119385e+003, 2.559656e-002
2.121313e+003, 2.466943e-002
2.123242e+003, 2.424272e-002
2.125170e+003, 2.491966e-002
2.127099e+003, 2.507440e-002
2.129027e+003, 2.430460e-002
2.130956e+003, 2.400762e-002
2.132884e+003, 2.421203e-002
2.134813e+003, 2.411507e-002
2.136741e+003, 2.420093e-002
2.138670e+003, 2.427009e-002
2.140598e+003, 2.575886e-002
2.142527e+003, 2.629424e-002
2.144455e+003, 2.466799e-002
2.146384e+003, 2.363580e-002
2.148312e+003, 2.405465e-002
2.150240e+003, 2.429027e-002
2.152169e+003, 2.322821e-002
2.154097e+003, 2.290297e-002
2.156026e+003, 2.335536e-002
2.157954e+003, 2.453685e-002
2.159883e+003, 2.705615e-002
2.161811e+003, 2.816467e-002
2.163740e+003, 2.923350e-002
2.165668e+003, 2.792871e-002
2.167597e+003, 2.611647e-002
2.169525e+003, 2.654653e-002
2.171454e+003, 2.854953e-002
2.173382e+003, 3.000720e-002
2.175311e+003, 2.902222e-002
2.177239e+003, 2.980824e-002
2.179167e+003, 2.988125e-002
2.181096e+003, 3.013308e-002
2.183024e+003, 3.100257e-002
2.184953e+003, 3.111347e-002
2.186881e+003, 3.187647e-002
2.188810e+003, 3.254021e-002
2.190738e+003, 3.245065e-002
2.192667e+003, 3.201973e-002
2.194595e+003, 3.201798e-002
2.196524e+003, 3.306507e-002
2.198452e+003, 3.431755e-002
2.200381e+003, 3.446076e-002
2.202309e+003, 3.537117e-002
2.204238e+003, 3.561337e-002
2.206166e+003, 3.523330e-002
2.208094e+003, 3.643135e-002
2.210023e+003, 3.757345e-002
2.211951e+003, 3.698759e-002
2.213880e+003, 3.702068e-002
2.215808e+003, 3.829209e-002
2.217737e+003, 3.818503e-002
2.219665e+003, 3.811332e-002
2.221594e+003, 3.953443e-002
2.223522e+003, 4.007861e-002
2.225451e+003, 4.104527e-002
2.227379e+003, 4.160495e-002
2.229308e+003, 4.087684e-002
2.231236e+003, 4.153428e-002
2.233165e+003, 4.336907e-002
2.235093e+003, 4.451817e-002
2.237021e+003, 4.492780e-002
2.238950e+003, 4.592190e-002
2.240878e+003, 4.677863e-002
2.242807e+003, 4.748729e-002
2.244735e+003, 4.757793e-002
2.246664e+003, 4.780813e-002
2.248592e+003, 4.809338e-002
2.250521e+003, 4.938999e-002
2.252449e+003, 5.064391e-002
2.254378e+003, 5.105902e-002
2.256306e+003, 5.210953e-002
2.258235e+003, 5.341401e-002
2.260163e+003, 5.409197e-002
2.262092e+003, 5.500484e-002
2.264020e+003, 5.613089e-002
2.265948e+003, 5.704002e-002
2.267877e+003, 5.798638e-002
2.269805e+003, 5.899345e-002
2.271734e+003, 5.985169e-002
2.273662e+003, 6.092085e-002
2.275591e+003, 6.169022e-002
2.277519e+003, 6.326572e-002
2.279448e+003, 6.470317e-002
2.281376e+003, 6.559314e-002
2.283305e+003, 6.640153e-002
2.285233e+003, 6.709239e-002
2.287162e+003, 6.842241e-002
2.289090e+003, 6.958196e-002
2.291019e+003, 7.067437e-002
2.292947e+003, 7.143154e-002
2.294875e+003, 7.269047e-002
2.296804e+003, 7.413492e-002
2.298732e+003, 7.487630e-002
2.300661e+003, 7.567346e-002
2.302589e+003, 7.655516e-002
2.304518e+003, 7.761268e-002
2.306446e+003, 7.875068e-002
2.308375e+003, 7.996332e-002
2.310303e+003, 8.098634e-002
2.312232e+003, 8.201015e-002
2.314160e+003, 8.291901e-002
2.316089e+003, 8.406220e-002
2.318017e+003, 8.511329e-002
2.319946e+003, 8.598929e-002
2.321874e+003, 8.711088e-002
2.323802e+003, 8.789242e-002
2.325731e+003, 8.797660e-002
2.327659e+003, 8.834733e-002
2.329588e+003, 8.900866e-002
2.331516e+003, 8.943987e-002
2.333445e+003, 9.020428e-002
2.335373e+003, 9.128343e-002
2.337302e+003, 9.146549e-002
2.339230e+003, 9.149739e-002
2.341159e+003, 9.182090e-002
2.343087e+003, 9.221894e-002
2.345016e+003, 9.286810e-002
2.346944e+003, 9.313231e-002
2.348873e+003, 9.323054e-002
2.350801e+003, 9.371245e-002
2.352729e+003, 9.364310e-002
2.354658e+003, 9.352621e-002
2.356586e+003, 9.342019e-002
2.358515e+003, 9.359184e-002
2.360443e+003, 9.382129e-002
2.362372e+003, 9.379855e-002
2.364300e+003, 9.365251e-002
2.366229e+003, 9.354980e-002
2.368157e+003, 9.344234e-002
2.370086e+003, 9.342812e-002
2.372014e+003, 9.306650e-002
2.373942e+003, 9.316405e-002
2.375871e+003, 9.354129e-002
2.377799e+003, 9.311839e-002
2.379728e+003, 9.299269e-002
2.381656e+003, 9.315124e-002
2.383585e+003, 9.320491e-002
2.385513e+003, 9.313244e-002
2.387442e+003, 9.297952e-002
2.389370e+003, 9.277820e-002
2.391299e+003, 9.234130e-002
2.393227e+003, 9.205016e-002
2.395156e+003, 9.211025e-002
2.397084e+003, 9.245385e-002
2.399012e+003, 9.214073e-002
2.400941e+003, 9.164017e-002
2.402869e+003, 9.169378e-002
2.404798e+003, 9.151453e-002
2.406726e+003, 9.153842e-002
2.408655e+003, 9.219112e-002
2.410583e+003, 9.264218e-002
2.412512e+003, 9.214146e-002
2.414440e+003, 9.148987e-002
2.416369e+003, 9.148050e-002
2.418297e+003, 9.166824e-002
2.420226e+003, 9.168367e-002
2.422154e+003, 9.151290e-002
2.424083e+003, 9.109001e-002
2.426011e+003, 9.099758e-002
2.427939e+003, 9.100109e-002
2.429868e+003, 9.093904e-002
2.431796e+003, 9.105065e-002
2.433725e+003, 9.109647e-002
2.435653e+003, 9.074969e-002
2.437582e+003, 9.095252e-002
2.439510e+003, 9.138868e-002
2.441439e+003, 9.145077e-002
2.443367e+003, 9.095485e-002
2.445296e+003, 9.070183e-002
2.447224e+003, 9.118626e-002
2.449153e+003, 9.116345e-002
2.451081e+003, 9.084468e-002
2.453010e+003, 9.100338e-002
2.454938e+003, 9.103542e-002
2.456866e+003, 9.100665e-002
2.458795e+003, 9.124145e-002
2.460723e+003, 9.142009e-002
2.462652e+003, 9.154251e-002
2.464580e+003, 9.177907e-002
2.466509e+003, 9.184211e-002
2.468437e+003, 9.192907e-002
2.470366e+003, 9.192837e-002
2.472294e+003, 9.199483e-002
2.474223e+003, 9.235380e-002
2.476151e+003, 9.236703e-002
2.478080e+003, 9.237187e-002
2.480008e+003, 9.233048e-002
2.481937e+003, 9.237183e-002
2.483865e+003, 9.253540e-002
2.485793e+003, 9.264182e-002
2.487722e+003, 9.216826e-002
2.489650e+003, 9.197964e-002
2.491579e+003, 9.258383e-002
2.493507e+003, 9.292349e-002
2.495436e+003, 9.299729e-002
2.497364e+003, 9.306543e-002
2.499293e+003, 9.334607e-002
2.501221e+003, 9.381516e-002
2.503150e+003, 9.391231e-002
2.505078e+003, 9.367459e-002
2.507007e+003, 9.356973e-002
2.508935e+003, 9.404971e-002
2.510864e+003, 9.431827e-002
2.512792e+003, 9.426591e-002
2.514720e+003, 9.426286e-002
2.516649e+003, 9.445956e-002
2.518577e+003, 9.508935e-002
2.520506e+003, 9.502419e-002
2.522434e+003, 9.540243e-002
2.524363e+003, 9.574195e-002
2.526291e+003, 9.632071e-002
2.528220e+003, 9.668219e-002
2.530148e+003, 9.700420e-002
2.532077e+003, 9.714338e-002
2.534005e+003, 9.749693e-002
2.535934e+003, 9.775795e-002
2.537862e+003, 9.786346e-002
2.539791e+003, 9.799822e-002
2.541719e+003, 9.784785e-002
2.543647e+003, 9.827230e-002
2.545576e+003, 9.900066e-002
2.547504e+003, 9.963217e-002
2.549433e+003, 1.003824e-001
2.551361e+003, 1.004451e-001
2.553290e+003, 1.004339e-001
2.555218e+003, 1.006746e-001
2.557147e+003, 1.008154e-001
2.559075e+003, 1.011002e-001
2.561004e+003, 1.016067e-001
2.562932e+003, 1.019961e-001
2.564861e+003, 1.020857e-001
2.566789e+003, 1.028422e-001
2.568718e+003, 1.035560e-001
2.570646e+003, 1.034297e-001
2.572574e+003, 1.036210e-001
2.574503e+003, 1.046540e-001
2.576431e+003, 1.053398e-001
2.578360e+003, 1.057949e-001
2.580288e+003, 1.062017e-001
2.582217e+003, 1.065430e-001
2.584145e+003, 1.067835e-001
2.586074e+003, 1.069859e-001
2.588002e+003, 1.076638e-001
2.589931e+003, 1.080766e-001
2.591859e+003, 1.084908e-001
2.593788e+003, 1.092866e-001
2.595716e+003, 1.099175e-001
2.597645e+003, 1.101994e-001
2.599573e+003, 1.105403e-001
2.601501e+003, 1.107635e-001
2.603430e+003, 1.106943e-001
2.605358e+003, 1.109905e-001
2.607287e+003, 1.117719e-001
2.609215e+003, 1.124635e-001
2.611144e+003, 1.132971e-001
2.613072e+003, 1.136780e-001
2.615001e+003, 1.141192e-001
2.616929e+003, 1.147535e-001
2.618858e+003, 1.154868e-001
2.620786e+003, 1.158784e-001
2.622715e+003, 1.163986e-001
2.624643e+003, 1.166638e-001
2.626572e+003, 1.169454e-001
2.628500e+003, 1.173312e-001
2.630428e+003, 1.179957e-001
2.632357e+003, 1.189707e-001
2.634285e+003, 1.196448e-001
2.636214e+003, 1.198027e-001
2.638142e+003, 1.201124e-001
2.640071e+003, 1.208196e-001
2.641999e+003, 1.212365e-001
2.643928e+003, 1.218634e-001
2.645856e+003, 1.225887e-001
2.647785e+003, 1.233818e-001
2.649713e+003, 1.238059e-001
2.651642e+003, 1.240506e-001
2.653570e+003, 1.247634e-001
2.655499e+003, 1.257295e-001
2.657427e+003, 1.262000e-001
2.659355e+003, 1.265676e-001
2.661284e+003, 1.268199e-001
2.663212e+003, 1.273570e-001
2.665141e+003, 1.282120e-001
2.667069e+003, 1.289413e-001
2.668998e+003, 1.295379e-001
2.670926e+003, 1.302529e-001
2.672855e+003, 1.310910e-001
2.674783e+003, 1.319190e-001
2.676712e+003, 1.325043e-001
2.678640e+003, 1.330224e-001
2.680569e+003, 1.334352e-001
2.682497e+003, 1.341365e-001
2.684426e+003, 1.350783e-001
2.686354e+003, 1.357052e-001
2.688282e+003, 1.366702e-001
2.690211e+003, 1.375805e-001
2.692139e+003, 1.380926e-001
2.694068e+003, 1.387203e-001
2.695996e+003, 1.400534e-001
2.697925e+003, 1.409497e-001
2.699853e+003, 1.414959e-001
2.701782e+003, 1.422162e-001
2.703710e+003, 1.429151e-001
2.705639e+003, 1.437011e-001
2.707567e+003, 1.443155e-001
2.709496e+003, 1.448846e-001
2.711424e+003, 1.460025e-001
2.713353e+003, 1.474641e-001
2.715281e+003, 1.482346e-001
2.717209e+003, 1.487715e-001
2.719138e+003, 1.495146e-001
2.721066e+003, 1.507859e-001
2.722995e+003, 1.516169e-001
2.724923e+003, 1.524751e-001
2.726852e+003, 1.534491e-001
2.728780e+003, 1.544263e-001
2.730709e+003, 1.554373e-001
2.732637e+003, 1.564275e-001
2.734566e+003, 1.573821e-001
2.736494e+003, 1.585930e-001
2.738423e+003, 1.591914e-001
2.740351e+003, 1.596413e-001
2.742280e+003, 1.606822e-001
2.744208e+003, 1.620023e-001
2.746136e+003, 1.633890e-001
2.748065e+003, 1.645609e-001
2.749993e+003, 1.656060e-001
2.751922e+003, 1.664735e-001
2.753850e+003, 1.670232e-001
2.755779e+003, 1.677563e-001
2.757707e+003, 1.690121e-001
2.759636e+003, 1.702023e-001
2.761564e+003, 1.710973e-001
2.763493e+003, 1.724290e-001
2.765421e+003, 1.738241e-001
2.767350e+003, 1.746285e-001
2.769278e+003, 1.754259e-001
2.771207e+003, 1.764808e-001
2.773135e+003, 1.778097e-001
2.775063e+003, 1.792602e-001
2.776992e+003, 1.803580e-001
2.778920e+003, 1.815220e-001
2.780849e+003, 1.825427e-001
2.782777e+003, 1.836172e-001
2.784706e+003, 1.847304e-001
2.786634e+003, 1.857459e-001
2.788563e+003, 1.867429e-001
2.790491e+003, 1.880733e-001
2.792420e+003, 1.897329e-001
2.794348e+003, 1.910581e-001
2.796277e+003, 1.919699e-001
2.798205e+003, 1.932696e-001
2.800134e+003, 1.948892e-001
2.802062e+003, 1.960383e-001
2.803990e+003, 1.970642e-001
2.805919e+003, 1.978986e-001
2.807847e+003, 1.988186e-001
2.809776e+003, 1.999892e-001
2.811704e+003, 2.008919e-001
2.813633e+003, 2.021831e-001
2.815561e+003, 2.035740e-001
2.817490e+003, 2.048902e-001
2.819418e+003, 2.060642e-001
2.821347e+003, 2.069491e-001
2.823275e+003, 2.082411e-001
2.825204e+003, 2.093988e-001
2.827132e+003, 2.101852e-001
2.829061e+003, 2.111073e-001
2.830989e+003, 2.121869e-001
2.832917e+003, 2.129661e-001
2.834846e+003, 2.146057e-001
2.836774e+003, 2.160942e-001
2.838703e+003, 2.165255e-001
2.840631e+003, 2.163192e-001
2.842560e+003, 2.166699e-001
2.844488e+003, 2.178475e-001
2.846417e+003, 2.192567e-001
2.848345e+003, 2.198050e-001
2.850274e+003, 2.198285e-001
2.852202e+003, 2.203920e-001
2.854131e+003, 2.212624e-001
2.856059e+003, 2.220740e-001
2.857988e+003, 2.237352e-001
2.859916e+003, 2.251379e-001
2.861844e+003, 2.260189e-001
2.863773e+003, 2.270579e-001
2.865701e+003, 2.287012e-001
2.867630e+003, 2.304485e-001
2.869558e+003, 2.311022e-001
2.871487e+003, 2.319801e-001
2.873415e+003, 2.332684e-001
2.875344e+003, 2.335460e-001
2.877272e+003, 2.339163e-001
2.879201e+003, 2.348008e-001
2.881129e+003, 2.354394e-001
2.883058e+003, 2.351084e-001
2.884986e+003, 2.349678e-001
2.886915e+003, 2.355114e-001
2.888843e+003, 2.360302e-001
2.890771e+003, 2.363252e-001
2.892700e+003, 2.370623e-001
2.894628e+003, 2.370681e-001
2.896557e+003, 2.366113e-001
2.898485e+003, 2.361778e-001
2.900414e+003, 2.354561e-001
2.902342e+003, 2.350809e-001
2.904271e+003, 2.343784e-001
2.906199e+003, 2.333811e-001
2.908128e+003, 2.329901e-001
2.910056e+003, 2.324568e-001
2.911985e+003, 2.321434e-001
2.913913e+003, 2.315717e-001
2.915842e+003, 2.306416e-001
2.917770e+003, 2.297027e-001
2.919698e+003, 2.290341e-001
2.921627e+003, 2.286521e-001
2.923555e+003, 2.285751e-001
2.925484e+003, 2.277477e-001
2.927412e+003, 2.267165e-001
2.929341e+003, 2.265227e-001
2.931269e+003, 2.258780e-001
2.933198e+003, 2.254301e-001
2.935126e+003, 2.245335e-001
2.937055e+003, 2.232084e-001
2.938983e+003, 2.225923e-001
2.940912e+003, 2.221033e-001
2.942840e+003, 2.212572e-001
2.944769e+003, 2.201678e-001
2.946697e+003, 2.186706e-001
2.948625e+003, 2.177866e-001
2.950554e+003, 2.177237e-001
2.952482e+003, 2.174226e-001
2.954411e+003, 2.172760e-001
2.956339e+003, 2.166717e-001
2.958268e+003, 2.168428e-001
2.960196e+003, 2.175049e-001
2.962125e+003, 2.188749e-001
2.964053e+003, 2.203024e-001
2.965982e+003, 2.209304e-001
2.967910e+003, 2.214219e-001
2.969839e+003, 2.222840e-001
2.971767e+003, 2.225493e-001
2.973696e+003, 2.211496e-001
2.975624e+003, 2.190155e-001
2.977552e+003, 2.159854e-001
2.979481e+003, 2.123775e-001
2.981409e+003, 2.084873e-001
2.983338e+003, 2.052569e-001
2.985266e+003, 2.022922e-001
2.987195e+003, 1.997716e-001
2.989123e+003, 1.977006e-001
2.991052e+003, 1.959832e-001
2.992980e+003, 1.946821e-001
2.994909e+003, 1.926982e-001
2.996837e+003, 1.911524e-001
2.998766e+003, 1.904821e-001
3.000694e+003, 1.895484e-001
3.002623e+003, 1.886411e-001
3.004551e+003, 1.881462e-001
3.006479e+003, 1.870178e-001
3.008408e+003, 1.862780e-001
3.010336e+003, 1.856949e-001
3.012265e+003, 1.848650e-001
3.014193e+003, 1.836332e-001
3.016122e+003, 1.828453e-001
3.018050e+003, 1.823193e-001
3.019979e+003, 1.815298e-001
3.021907e+003, 1.815263e-001
3.023836e+003, 1.808046e-001
3.025764e+003, 1.799696e-001
3.027693e+003, 1.789152e-001
3.029621e+003, 1.775910e-001
3.031550e+003, 1.767955e-001
3.033478e+003, 1.759077e-001
3.035406e+003, 1.752173e-001
3.037335e+003, 1.748116e-001
3.039263e+003, 1.736304e-001
3.041192e+003, 1.725651e-001
3.043120e+003, 1.720405e-001
3.045049e+003, 1.716334e-001
3.046977e+003, 1.708106e-001
3.048906e+003, 1.701265e-001
3.050834e+003, 1.697161e-001
3.052763e+003, 1.690692e-001
3.054691e+003, 1.683140e-001
3.056620e+003, 1.671208e-001
3.058548e+003, 1.662449e-001
3.060477e+003, 1.662250e-001
3.062405e+003, 1.663996e-001
3.064333e+003, 1.653954e-001
3.066262e+003, 1.637038e-001
3.068190e+003, 1.628725e-001
3.070119e+003, 1.627045e-001
3.072047e+003, 1.619632e-001
3.073976e+003, 1.611975e-001
3.075904e+003, 1.610322e-001
3.077833e+003, 1.607435e-001
3.079761e+003, 1.602914e-001
3.081690e+003, 1.594079e-001
3.083618e+003, 1.586665e-001
3.085547e+003, 1.581651e-001
3.087475e+003, 1.576048e-001
3.089404e+003, 1.574128e-001
3.091332e+003, 1.567446e-001
3.093260e+003, 1.554268e-001
3.095189e+003, 1.551381e-001
3.097117e+003, 1.546801e-001
3.099046e+003, 1.541000e-001
3.100974e+003, 1.541032e-001
3.102903e+003, 1.531325e-001
3.104831e+003, 1.518044e-001
3.106760e+003, 1.514438e-001
3.108688e+003, 1.499700e-001
3.110617e+003, 1.485515e-001
3.112545e+003, 1.488369e-001
3.114474e+003, 1.483014e-001
3.116402e+003, 1.470910e-001
3.118331e+003, 1.465953e-001
3.120259e+003, 1.454454e-001
3.122188e+003, 1.445713e-001
3.124116e+003, 1.443322e-001
3.126044e+003, 1.439538e-001
3.127973e+003, 1.438963e-001
3.129901e+003, 1.433889e-001
3.131830e+003, 1.427549e-001
3.133758e+003, 1.420904e-001
3.135687e+003, 1.411767e-001
3.137615e+003, 1.402816e-001
3.139544e+003, 1.398222e-001
3.141472e+003, 1.394660e-001
3.143401e+003, 1.391893e-001
3.145329e+003, 1.384440e-001
3.147258e+003, 1.372050e-001
3.149186e+003, 1.365412e-001
3.151115e+003, 1.359574e-001
3.153043e+003, 1.355628e-001
3.154971e+003, 1.353102e-001
3.156900e+003, 1.354061e-001
3.158828e+003, 1.353234e-001
3.160757e+003, 1.355004e-001
3.162685e+003, 1.352929e-001
3.164614e+003, 1.355304e-001
3.166542e+003, 1.357690e-001
3.168471e+003, 1.352686e-001
3.170399e+003, 1.343849e-001
3.172328e+003, 1.339625e-001
3.174256e+003, 1.347014e-001
3.176185e+003, 1.348697e-001
3.178113e+003, 1.344729e-001
3.180042e+003, 1.341459e-001
3.181970e+003, 1.344144e-001
3.183898e+003, 1.346553e-001
3.185827e+003, 1.343943e-001
3.187755e+003, 1.344113e-001
3.189684e+003, 1.343298e-001
3.191612e+003, 1.341399e-001
3.193541e+003, 1.339291e-001
3.195469e+003, 1.333123e-001
3.197398e+003, 1.327578e-001
3.199326e+003, 1.327821e-001
3.201255e+003, 1.323788e-001
3.203183e+003, 1.318882e-001
3.205112e+003, 1.322531e-001
3.207040e+003, 1.327958e-001
3.208969e+003, 1.318500e-001
3.210897e+003, 1.306302e-001
3.212825e+003, 1.303138e-001
3.214754e+003, 1.306900e-001
3.216682e+003, 1.303291e-001
3.218611e+003, 1.301892e-001
3.220539e+003, 1.307300e-001
3.222468e+003, 1.305018e-001
3.224396e+003, 1.302478e-001
3.226325e+003, 1.296139e-001
3.228253e+003, 1.288355e-001
3.230182e+003, 1.285042e-001
3.232110e+003, 1.280160e-001
3.234039e+003, 1.276459e-001
3.235967e+003, 1.267493e-001
3.237896e+003, 1.258403e-001
3.239824e+003, 1.260156e-001
3.241752e+003, 1.254449e-001
3.243681e+003, 1.239028e-001
3.245609e+003, 1.226647e-001
3.247538e+003, 1.222342e-001
3.249466e+003, 1.209280e-001
3.251395e+003, 1.194882e-001
3.253323e+003, 1.185902e-001
3.255252e+003, 1.167291e-001
3.257180e+003, 1.151729e-001
3.259109e+003, 1.140262e-001
3.261037e+003, 1.126068e-001
3.262966e+003, 1.109778e-001
3.264894e+003, 1.097148e-001
3.266823e+003, 1.084541e-001
3.268751e+003, 1.064853e-001
3.270679e+003, 1.045676e-001
3.272608e+003, 1.027457e-001
3.274536e+003, 1.012135e-001
3.276465e+003, 9.956232e-002
3.278393e+003, 9.798294e-002
3.280322e+003, 9.658952e-002
3.282250e+003, 9.483486e-002
3.284179e+003, 9.291923e-002
3.286107e+003, 9.128907e-002
3.288036e+003, 9.021647e-002
3.289964e+003, 8.909961e-002
3.291893e+003, 8.789433e-002
3.293821e+003, 8.635302e-002
3.295750e+003, 8.455921e-002
3.297678e+003, 8.297580e-002
3.299606e+003, 8.235943e-002
3.301535e+003, 8.146996e-002
3.303463e+003, 8.009857e-002
3.305392e+003, 7.855903e-002
3.307320e+003, 7.728580e-002
3.309249e+003, 7.629613e-002
3.311177e+003, 7.578391e-002
3.313106e+003, 7.540736e-002
3.315034e+003, 7.454530e-002
3.316963e+003, 7.361802e-002
3.318891e+003, 7.255269e-002
3.320820e+003, 7.089452e-002
3.322748e+003, 7.029111e-002
3.324677e+003, 7.011554e-002
3.326605e+003, 6.948265e-002
3.328533e+003, 6.909151e-002
3.330462e+003, 6.872537e-002
3.332390e+003, 6.788320e-002
3.334319e+003, 6.650238e-002
3.336247e+003, 6.589876e-002
3.338176e+003, 6.584901e-002
3.340104e+003, 6.545058e-002
3.342033e+003, 6.460150e-002
3.343961e+003, 6.363837e-002
3.345890e+003, 6.303139e-002
3.347818e+003, 6.285594e-002
3.349747e+003, 6.203569e-002
3.351675e+003, 6.141831e-002
3.353604e+003, 6.070585e-002
3.355532e+003, 6.020274e-002
3.357460e+003, 5.997930e-002
3.359389e+003, 5.957751e-002
3.361317e+003, 5.921599e-002
3.363246e+003, 5.882572e-002
3.365174e+003, 5.899322e-002
3.367103e+003, 5.844997e-002
3.369031e+003, 5.807205e-002
3.370960e+003, 5.796775e-002
3.372888e+003, 5.807810e-002
3.374817e+003, 5.786352e-002
3.376745e+003, 5.689544e-002
3.378674e+003, 5.618810e-002
3.380602e+003, 5.571546e-002
3.382531e+003, 5.600580e-002
3.384459e+003, 5.577540e-002
3.386387e+003, 5.554048e-002
3.388316e+003, 5.539377e-002
3.390244e+003, 5.542573e-002
3.392173e+003, 5.465549e-002
3.394101e+003, 5.392699e-002
3.396030e+003, 5.354960e-002
3.397958e+003, 5.292474e-002
3.399887e+003, 5.244031e-002
3.401815e+003, 5.228556e-002
3.403744e+003, 5.208278e-002
3.405672e+003, 5.168524e-002
3.407601e+003, 5.118713e-002
3.409529e+003, 5.067549e-002
3.411458e+003, 5.049694e-002
3.413386e+003, 5.016474e-002
3.415314e+003, 4.997098e-002
3.417243e+003, 5.016154e-002
3.419171e+003, 5.000328e-002
3.421100e+003, 4.955059e-002
3.423028e+003, 4.875896e-002
3.424957e+003, 4.862089e-002
3.426885e+003, 4.884527e-002
3.428814e+003, 4.777969e-002
3.430742e+003, 4.692516e-002
3.432671e+003, 4.644822e-002
3.434599e+003, 4.608092e-002
3.436528e+003, 4.529301e-002
3.438456e+003, 4.416637e-002
3.440385e+003, 4.427921e-002
3.442313e+003, 4.445577e-002
3.444241e+003, 4.351255e-002
3.446170e+003, 4.303034e-002
3.448098e+003, 4.310279e-002
3.450027e+003, 4.297462e-002
3.451955e+003, 4.247943e-002
3.453884e+003, 4.209740e-002
3.455812e+003, 4.256219e-002
3.457741e+003, 4.207108e-002
3.459669e+003, 4.170188e-002
3.461598e+003, 4.174802e-002
3.463526e+003, 4.126202e-002
3.465455e+003, 4.132232e-002
3.467383e+003, 4.175707e-002
3.469312e+003, 4.128133e-002
3.471240e+003, 4.075395e-002
3.473168e+003, 4.037351e-002
3.475097e+003, 3.931166e-002
3.477025e+003, 3.905434e-002
3.478954e+003, 3.895238e-002
3.480882e+003, 3.866850e-002
3.482811e+003, 3.930974e-002
3.484739e+003, 3.871874e-002
3.486668e+003, 3.718622e-002
3.488596e+003, 3.622532e-002
3.490525e+003, 3.548761e-002
3.492453e+003, 3.566663e-002
3.494382e+003, 3.582352e-002
3.496310e+003, 3.520013e-002
3.498239e+003, 3.391877e-002
3.500167e+003, 3.300954e-002
3.502095e+003, 3.239656e-002
3.504024e+003, 3.190917e-002
3.505952e+003, 3.167335e-002
3.507881e+003, 3.076385e-002
3.509809e+003, 3.084157e-002
3.511738e+003, 3.127549e-002
3.513666e+003, 3.035514e-002
3.515595e+003, 2.895974e-002
3.517523e+003, 2.871495e-002
3.519452e+003, 2.873496e-002
3.521380e+003, 2.834258e-002
3.523309e+003, 2.786406e-002
3.525237e+003, 2.734417e-002
3.527166e+003, 2.640658e-002
3.529094e+003, 2.608311e-002
3.531022e+003, 2.515483e-002
3.532951e+003, 2.395258e-002
3.534879e+003, 2.424062e-002
3.536808e+003, 2.381651e-002
3.538736e+003, 2.293193e-002
3.540665e+003, 2.226789e-002
3.542593e+003, 2.173842e-002
3.544522e+003, 2.157800e-002
3.546450e+003, 2.115665e-002
3.548379e+003, 2.063918e-002
3.550307e+003, 2.075299e-002
3.552236e+003, 2.115338e-002
3.554164e+003, 2.070774e-002
3.556093e+003, 1.986675e-002
3.558021e+003, 1.867010e-002
3.559949e+003, 1.874752e-002
3.561878e+003, 1.870241e-002
3.563806e+003, 1.777498e-002
3.565735e+003, 1.789050e-002
3.567663e+003, 1.798587e-002
3.569592e+003, 1.726848e-002
3.571520e+003, 1.659754e-002
3.573449e+003, 1.643017e-002
3.575377e+003, 1.594310e-002
3.577306e+003, 1.614894e-002
3.579234e+003, 1.565742e-002
3.581163e+003, 1.532936e-002
3.583091e+003, 1.544412e-002
3.585020e+003, 1.552721e-002
3.586948e+003, 1.488714e-002
3.588876e+003, 1.389108e-002
3.590805e+003, 1.397090e-002
3.592733e+003, 1.383087e-002
3.594662e+003, 1.272076e-002
3.596590e+003, 1.306669e-002
3.598519e+003, 1.243139e-002
3.600447e+003, 1.172634e-002
3.602376e+003, 1.202297e-002
3.604304e+003, 1.189035e-002
3.606233e+003, 1.202151e-002
3.608161e+003, 1.139345e-002
3.610090e+003, 1.012444e-002
3.612018e+003, 9.211649e-003
3.613947e+003, 8.124037e-003
3.615875e+003, 8.509845e-003
3.617803e+003, 9.831206e-003
3.619732e+003, 9.319795e-003
3.621660e+003, 8.217021e-003
3.623589e+003, 7.694691e-003
3.625517e+003, 7.302530e-003
3.627446e+003, 7.275372e-003
3.629374e+003, 6.723851e-003
3.631303e+003, 5.924232e-003
3.633231e+003, 5.082399e-003
3.635160e+003, 5.456118e-003
3.637088e+003, 6.055014e-003
3.639017e+003, 5.287078e-003
3.640945e+003, 4.275788e-003
3.642874e+003, 4.235234e-003
3.644802e+003, 4.238881e-003
3.646730e+003, 4.036601e-003
3.648659e+003, 3.580906e-003
3.650587e+003, 3.855910e-003
3.652516e+003, 4.363065e-003
3.654444e+003, 4.005199e-003
3.656373e+003, 3.551374e-003
3.658301e+003, 3.294924e-003
3.660230e+003, 3.264176e-003
3.662158e+003, 4.064762e-003
3.664087e+003, 3.615385e-003
3.666015e+003, 2.150779e-003
3.667944e+003, 1.450377e-003
3.669872e+003, 1.443129e-003
3.671801e+003, 1.541111e-003
3.673729e+003, 1.464074e-003
3.675657e+003, 1.362120e-003
3.677586e+003, 1.482958e-003
3.679514e+003, 1.609682e-003
3.681443e+003, 2.238396e-003
3.683371e+003, 2.040475e-003
3.685300e+003, 1.081216e-003
3.687228e+003, 1.356437e-003
3.689157e+003, 1.587367e-003
3.691085e+003, 8.570618e-004
3.693014e+003, 1.360658e-003
3.694942e+003, 1.905172e-003
3.696871e+003, 1.527279e-003
3.698799e+003, 1.182273e-003
3.700728e+003, 1.292226e-003
3.702656e+003, 1.185164e-003
3.704584e+003, 1.613174e-003
3.706513e+003, 1.336794e-003
3.708441e+003, 7.045038e-004
3.710370e+003, -3.230449e-005
3.712298e+003, -7.725946e-004
3.714227e+003, -2.231998e-004
3.716155e+003, 7.217618e-004
3.718084e+003, -3.073089e-004
3.720012e+003, -2.388639e-004
3.721941e+003, 7.007204e-004
3.723869e+003, 6.296385e-004
3.725798e+003, 7.965102e-004
3.727726e+003, 5.159714e-004
3.729655e+003, -1.842193e-004
3.731583e+003, -1.026040e-004
3.733511e+003, 5.637106e-004
3.735440e+003, 9.400685e-004
3.737368e+003, 1.067830e-003
3.739297e+003, 4.531787e-004
3.741225e+003, 8.231276e-005
3.743154e+003, 1.958663e-004
3.745082e+003, 2.773874e-004
3.747011e+003, 2.769232e-004
3.748939e+003, 2.130047e-004
3.750868e+003, 1.080187e-003
3.752796e+003, 1.113039e-003
3.754725e+003, -1.012127e-004
3.756653e+003, 3.262940e-004
3.758582e+003, 7.649098e-004
3.760510e+003, 2.326301e-004
3.762438e+003, 2.859562e-005
3.764367e+003, 8.155645e-004
3.766295e+003, 1.772306e-003
3.768224e+003, 2.374203e-003
3.770152e+003, 2.007319e-003
3.772081e+003, 1.235934e-003
3.774009e+003, 5.521983e-004
3.775938e+003, 7.338428e-004
3.777866e+003, 8.620418e-004
3.779795e+003, 3.606481e-004
3.781723e+003, -1.993218e-004
3.783652e+003, -8.842575e-005
3.785580e+003, 1.339153e-004
3.787509e+003, 5.185921e-004
3.789437e+003, 5.945664e-004
3.791365e+003, 1.333936e-003
3.793294e+003, 1.047370e-003
3.795222e+003, 2.314367e-004
3.797151e+003, 1.160346e-003
3.799079e+003, 1.457092e-003
3.801008e+003, 9.885849e-004
3.802936e+003, 8.694454e-004
3.804865e+003, 9.054362e-004
3.806793e+003, 1.036941e-003
3.808722e+003, 4.257491e-004
3.810650e+003, -1.530523e-004
3.812579e+003, 4.839603e-004
3.814507e+003, 1.183702e-003
3.816436e+003, 6.746689e-004
3.818364e+003, 5.765503e-004
3.820292e+003, 9.820759e-004
3.822221e+003, 8.779448e-004
3.824149e+003, 2.129384e-004
3.826078e+003, 6.214426e-004
3.828006e+003, 1.119417e-003
3.829935e+003, 6.322599e-004
3.831863e+003, 6.663767e-005
3.833792e+003, -4.289402e-004
3.835720e+003, -6.782540e-004
3.837649e+003, -3.313796e-004
3.839577e+003, 4.970962e-004
3.841506e+003, 9.648740e-004
3.843434e+003, 1.618262e-003
3.845363e+003, 1.303293e-003
3.847291e+003, 7.043710e-004
3.849219e+003, 8.875401e-004
3.851148e+003, 1.195264e-003
3.853076e+003, 8.359475e-004
3.855005e+003, 3.597195e-004
3.856933e+003, -2.966140e-004
3.858862e+003, 1.702761e-004
3.860790e+003, 7.827677e-004
3.862719e+003, 1.054245e-003
3.864647e+003, 1.908134e-003
3.866576e+003, 1.874057e-003
3.868504e+003, 1.712525e-003
3.870433e+003, 1.089952e-003
3.872361e+003, 4.517193e-004
3.874290e+003, 4.643235e-004
3.876218e+003, 4.660151e-004
3.878146e+003, 5.880633e-004
3.880075e+003, 3.475163e-004
3.882003e+003, 5.172321e-004
3.883932e+003, 8.913251e-004
3.885860e+003, 6.030936e-004
3.887789e+003, 8.490608e-004
3.889717e+003, 7.595327e-004
3.891646e+003, 8.885029e-004
3.893574e+003, 2.307736e-004
3.895503e+003, -2.088599e-004
3.897431e+003, 7.735399e-004
3.899360e+003, 1.308710e-003
3.901288e+003, 1.232910e-003
3.903217e+003, 3.678110e-004
3.905145e+003, 6.791158e-004
3.907073e+003, 1.199616e-003
3.909002e+003, 9.609887e-004
3.910930e+003, 8.838879e-004
3.912859e+003, 3.742777e-004
3.914787e+003, 5.176633e-004
3.916716e+003, 9.678959e-004
3.918644e+003, 5.142132e-004
3.920573e+003, 7.367303e-004
3.922501e+003, 1.783640e-004
3.924430e+003, 5.583028e-004
3.926358e+003, 8.603154e-004
3.928287e+003, 8.216726e-004
3.930215e+003, 9.120437e-004
3.932144e+003, 1.515941e-003
3.934072e+003, 1.859182e-003
3.936000e+003, 1.099386e-003
3.937929e+003, 8.436827e-004
3.939857e+003, 1.641178e-003
3.941786e+003, 1.709698e-003
3.943714e+003, 1.271490e-003
3.945643e+003, 1.143170e-003
3.947571e+003, 1.034583e-003
3.949500e+003, 8.660922e-004
3.951428e+003, 7.049020e-004
3.953357e+003, 1.138685e-003
3.955285e+003, 1.430065e-003
3.957214e+003, 1.834558e-003
3.959142e+003, 1.690271e-003
3.961071e+003, 1.252914e-003
3.962999e+003, 1.204833e-003
3.964927e+003, 3.918211e-004
3.966856e+003, 2.270938e-004
3.968784e+003, 2.239444e-004
3.970713e+003, 2.246738e-004
3.972641e+003, 5.453973e-004
3.974570e+003, 8.607470e-004
3.976498e+003, 7.663039e-004
3.978427e+003, 9.083581e-004
3.980355e+003, 5.439707e-004
3.982284e+003, 1.325460e-003
3.984212e+003, 1.863009e-003
3.986141e+003, 1.694064e-003
3.988069e+003, 1.205132e-003
3.989998e+003, 1.683536e-004
3.991926e+003, 4.187510e-004
3.993854e+003, 9.943303e-004
3.995783e+003, 1.239124e-003
3.997711e+003, 1.884140e-003
3.999640e+003, 1.884140e-003
4.001568e+003, 0.000000e+000
##END=



