##NAMES=Struvite
##RRUFFID=R050511
##IDEAL CHEMISTRY=(N^3-^H_4_)MgPO_4_&#183;6H_2_O
##LOCALITY=Hamburg, Germany
##OWNER=RRUFF
##SOURCE=American Museum of Natural History
##DESCRIPTION=Colorless with a brown tint, cleavage fragment
##STATUS=The identification of this mineral has been confirmed by X-ray diffraction and chemical analysis
##URL=rruff.info/R050511
##MEASURED CHEMISTRY=(NH_4_)(Mg_0.85_Fe^2+^_0.12_Mn_0.02_Ca_0.01_)_Σ=1_(P_1.00_O_4_)·6H_2_O ; NH_4_ not measured but assumed by charge balance
3.991926e+002, 1.680557e-001
4.011211e+002, 1.484511e-001
4.030496e+002, 1.484511e-001
4.049780e+002, 1.454482e-001
4.069065e+002, 1.513960e-001
4.088350e+002, 1.513965e-001
4.107634e+002, 1.490541e-001
4.126919e+002, 1.481262e-001
4.146204e+002, 1.474489e-001
4.165488e+002, 1.487627e-001
4.184773e+002, 1.531219e-001
4.204058e+002, 1.530663e-001
4.223342e+002, 1.558859e-001
4.242627e+002, 1.638074e-001
4.261912e+002, 1.675595e-001
4.281196e+002, 1.683144e-001
4.300481e+002, 1.706095e-001
4.319766e+002, 1.727409e-001
4.339050e+002, 1.774064e-001
4.358335e+002, 1.804906e-001
4.377620e+002, 1.799113e-001
4.396904e+002, 1.793389e-001
4.416189e+002, 1.781683e-001
4.435474e+002, 1.768299e-001
4.454758e+002, 1.742934e-001
4.474043e+002, 1.719380e-001
4.493328e+002, 1.722835e-001
4.512612e+002, 1.745547e-001
4.531897e+002, 1.773752e-001
4.551182e+002, 1.782678e-001
4.570466e+002, 1.779051e-001
4.589751e+002, 1.778853e-001
4.609036e+002, 1.803016e-001
4.628320e+002, 1.790016e-001
4.647605e+002, 1.747799e-001
4.666890e+002, 1.705226e-001
4.686174e+002, 1.679072e-001
4.705459e+002, 1.638798e-001
4.724744e+002, 1.606926e-001
4.744028e+002, 1.576916e-001
4.763313e+002, 1.521628e-001
4.782598e+002, 1.467964e-001
4.801882e+002, 1.427332e-001
4.821167e+002, 1.394657e-001
4.840452e+002, 1.371366e-001
4.859736e+002, 1.333332e-001
4.879021e+002, 1.322847e-001
4.898306e+002, 1.329962e-001
4.917590e+002, 1.314248e-001
4.936875e+002, 1.304497e-001
4.956160e+002, 1.293446e-001
4.975444e+002, 1.280284e-001
4.994729e+002, 1.291529e-001
5.014014e+002, 1.310513e-001
5.033298e+002, 1.313314e-001
5.052583e+002, 1.308729e-001
5.071868e+002, 1.341314e-001
5.091152e+002, 1.369340e-001
5.110437e+002, 1.374686e-001
5.129722e+002, 1.387682e-001
5.149006e+002, 1.409202e-001
5.168291e+002, 1.426618e-001
5.187576e+002, 1.450686e-001
5.206860e+002, 1.486792e-001
5.226145e+002, 1.530654e-001
5.245430e+002, 1.577654e-001
5.264714e+002, 1.628820e-001
5.283999e+002, 1.678147e-001
5.303284e+002, 1.720054e-001
5.322568e+002, 1.768650e-001
5.341853e+002, 1.824403e-001
5.361138e+002, 1.895772e-001
5.380422e+002, 1.978412e-001
5.399707e+002, 2.087675e-001
5.418992e+002, 2.201483e-001
5.438276e+002, 2.323332e-001
5.457561e+002, 2.463467e-001
5.476846e+002, 2.636229e-001
5.496130e+002, 2.825918e-001
5.515415e+002, 3.041885e-001
5.534700e+002, 3.289959e-001
5.553984e+002, 3.561172e-001
5.573269e+002, 3.829783e-001
5.592554e+002, 4.086111e-001
5.611838e+002, 4.306106e-001
5.631123e+002, 4.450060e-001
5.650408e+002, 4.514574e-001
5.669692e+002, 4.499924e-001
5.688977e+002, 4.431482e-001
5.708262e+002, 4.269007e-001
5.727546e+002, 3.986010e-001
5.746831e+002, 3.635411e-001
5.766116e+002, 3.282415e-001
5.785400e+002, 2.919977e-001
5.804685e+002, 2.559807e-001
5.823970e+002, 2.219754e-001
5.843254e+002, 1.929680e-001
5.862539e+002, 1.695622e-001
5.881824e+002, 1.519955e-001
5.901108e+002, 1.382452e-001
5.920393e+002, 1.279341e-001
5.939678e+002, 1.203703e-001
5.958962e+002, 1.145689e-001
5.978247e+002, 1.098047e-001
5.997532e+002, 1.071937e-001
6.016816e+002, 1.051012e-001
6.036101e+002, 1.034044e-001
6.055386e+002, 1.030800e-001
6.074670e+002, 1.020264e-001
6.093955e+002, 1.009906e-001
6.113240e+002, 1.007295e-001
6.132524e+002, 1.004520e-001
6.151809e+002, 9.981000e-002
6.171094e+002, 1.004049e-001
6.190378e+002, 1.019007e-001
6.209663e+002, 1.022118e-001
6.228948e+002, 1.030805e-001
6.248232e+002, 1.034814e-001
6.267517e+002, 1.040932e-001
6.286802e+002, 1.049548e-001
6.306086e+002, 1.059764e-001
6.325371e+002, 1.070339e-001
6.344656e+002, 1.080159e-001
6.363940e+002, 1.095781e-001
6.383225e+002, 1.114219e-001
6.402510e+002, 1.127044e-001
6.421794e+002, 1.146500e-001
6.441079e+002, 1.166503e-001
6.460364e+002, 1.187938e-001
6.479648e+002, 1.206579e-001
6.498933e+002, 1.227310e-001
6.518218e+002, 1.254666e-001
6.537502e+002, 1.278678e-001
6.556787e+002, 1.308825e-001
6.576072e+002, 1.343489e-001
6.595356e+002, 1.375274e-001
6.614641e+002, 1.410058e-001
6.633926e+002, 1.445236e-001
6.653210e+002, 1.480532e-001
6.672495e+002, 1.518853e-001
6.691780e+002, 1.558985e-001
6.711064e+002, 1.603387e-001
6.730349e+002, 1.645781e-001
6.749634e+002, 1.683291e-001
6.768918e+002, 1.720005e-001
6.788203e+002, 1.753260e-001
6.807488e+002, 1.786193e-001
6.826772e+002, 1.811160e-001
6.846057e+002, 1.830609e-001
6.865342e+002, 1.849575e-001
6.884626e+002, 1.862069e-001
6.903911e+002, 1.868626e-001
6.923196e+002, 1.867490e-001
6.942480e+002, 1.866168e-001
6.961765e+002, 1.867673e-001
6.981050e+002, 1.860668e-001
7.000334e+002, 1.851818e-001
7.019619e+002, 1.843773e-001
7.038904e+002, 1.846308e-001
7.058188e+002, 1.850297e-001
7.077473e+002, 1.857306e-001
7.096758e+002, 1.873949e-001
7.116042e+002, 1.888552e-001
7.135327e+002, 1.896664e-001
7.154612e+002, 1.919105e-001
7.173896e+002, 1.953614e-001
7.193181e+002, 1.982599e-001
7.212466e+002, 2.004938e-001
7.231750e+002, 2.030198e-001
7.251035e+002, 2.062793e-001
7.270320e+002, 2.100379e-001
7.289604e+002, 2.144401e-001
7.308889e+002, 2.190543e-001
7.328174e+002, 2.236713e-001
7.347458e+002, 2.284403e-001
7.366743e+002, 2.329344e-001
7.386028e+002, 2.374428e-001
7.405313e+002, 2.424347e-001
7.424597e+002, 2.470563e-001
7.443882e+002, 2.503446e-001
7.463167e+002, 2.537854e-001
7.482451e+002, 2.571727e-001
7.501736e+002, 2.595428e-001
7.521021e+002, 2.605885e-001
7.540305e+002, 2.603223e-001
7.559590e+002, 2.589584e-001
7.578875e+002, 2.570564e-001
7.598159e+002, 2.544677e-001
7.617444e+002, 2.504659e-001
7.636729e+002, 2.449348e-001
7.656013e+002, 2.392021e-001
7.675298e+002, 2.332371e-001
7.694583e+002, 2.267058e-001
7.713867e+002, 2.198640e-001
7.733152e+002, 2.138014e-001
7.752437e+002, 2.082361e-001
7.771721e+002, 2.025239e-001
7.791006e+002, 1.970533e-001
7.810291e+002, 1.917091e-001
7.829575e+002, 1.859425e-001
7.848860e+002, 1.804931e-001
7.868145e+002, 1.765290e-001
7.887429e+002, 1.724541e-001
7.906714e+002, 1.675552e-001
7.925999e+002, 1.633630e-001
7.945283e+002, 1.601943e-001
7.964568e+002, 1.573974e-001
7.983853e+002, 1.546915e-001
8.003137e+002, 1.522706e-001
8.022422e+002, 1.499062e-001
8.041707e+002, 1.481362e-001
8.060991e+002, 1.465931e-001
8.080276e+002, 1.450406e-001
8.099561e+002, 1.440126e-001
8.118845e+002, 1.432187e-001
8.138130e+002, 1.425201e-001
8.157415e+002, 1.422843e-001
8.176699e+002, 1.424864e-001
8.195984e+002, 1.432578e-001
8.215269e+002, 1.440050e-001
8.234553e+002, 1.449561e-001
8.253838e+002, 1.459823e-001
8.273123e+002, 1.469376e-001
8.292407e+002, 1.479462e-001
8.311692e+002, 1.498295e-001
8.330977e+002, 1.519557e-001
8.350261e+002, 1.537553e-001
8.369546e+002, 1.551871e-001
8.388831e+002, 1.570294e-001
8.408115e+002, 1.588852e-001
8.427400e+002, 1.606376e-001
8.446685e+002, 1.621571e-001
8.465969e+002, 1.641632e-001
8.485254e+002, 1.666379e-001
8.504539e+002, 1.689083e-001
8.523823e+002, 1.705449e-001
8.543108e+002, 1.719945e-001
8.562393e+002, 1.735148e-001
8.581677e+002, 1.754956e-001
8.600962e+002, 1.773334e-001
8.620247e+002, 1.787295e-001
8.639531e+002, 1.803354e-001
8.658816e+002, 1.822402e-001
8.678101e+002, 1.843667e-001
8.697385e+002, 1.863224e-001
8.716670e+002, 1.879079e-001
8.735955e+002, 1.894968e-001
8.755239e+002, 1.912972e-001
8.774524e+002, 1.926671e-001
8.793809e+002, 1.940028e-001
8.813093e+002, 1.950323e-001
8.832378e+002, 1.956227e-001
8.851663e+002, 1.959362e-001
8.870947e+002, 1.960632e-001
8.890232e+002, 1.956091e-001
8.909517e+002, 1.947878e-001
8.928801e+002, 1.936718e-001
8.948085e+002, 1.930853e-001
8.967370e+002, 1.926714e-001
8.986655e+002, 1.912919e-001
9.005939e+002, 1.896288e-001
9.025224e+002, 1.884927e-001
9.044509e+002, 1.871365e-001
9.063793e+002, 1.853737e-001
9.083078e+002, 1.837962e-001
9.102363e+002, 1.823405e-001
9.121647e+002, 1.813236e-001
9.140932e+002, 1.807525e-001
9.160217e+002, 1.800936e-001
9.179501e+002, 1.802916e-001
9.198786e+002, 1.811275e-001
9.218071e+002, 1.821217e-001
9.237355e+002, 1.837576e-001
9.256640e+002, 1.859168e-001
9.275925e+002, 1.896346e-001
9.295209e+002, 1.944022e-001
9.314494e+002, 1.996394e-001
9.333779e+002, 2.055689e-001
9.353063e+002, 2.126368e-001
9.372348e+002, 2.208648e-001
9.391633e+002, 2.299367e-001
9.410917e+002, 2.406595e-001
9.430202e+002, 2.526941e-001
9.449487e+002, 2.660408e-001
9.468771e+002, 2.810047e-001
9.488056e+002, 2.978757e-001
9.507341e+002, 3.170482e-001
9.526625e+002, 3.380904e-001
9.545910e+002, 3.613462e-001
9.565195e+002, 3.866561e-001
9.584479e+002, 4.141162e-001
9.603764e+002, 4.429620e-001
9.623049e+002, 4.733411e-001
9.642333e+002, 5.058441e-001
9.661618e+002, 5.396823e-001
9.680903e+002, 5.742853e-001
9.700187e+002, 6.097717e-001
9.719472e+002, 6.449078e-001
9.738757e+002, 6.784669e-001
9.758041e+002, 7.091893e-001
9.777326e+002, 7.348592e-001
9.796611e+002, 7.540023e-001
9.815895e+002, 7.660975e-001
9.835180e+002, 7.685863e-001
9.854465e+002, 7.608882e-001
9.873749e+002, 7.455759e-001
9.893034e+002, 7.243246e-001
9.912319e+002, 6.989399e-001
9.931603e+002, 6.705248e-001
9.950888e+002, 6.406056e-001
9.970173e+002, 6.092839e-001
9.989457e+002, 5.766023e-001
1.000874e+003, 5.439785e-001
1.002803e+003, 5.110377e-001
1.004731e+003, 4.774052e-001
1.006660e+003, 4.437830e-001
1.008588e+003, 4.118747e-001
1.010517e+003, 3.821123e-001
1.012445e+003, 3.551447e-001
1.014373e+003, 3.300375e-001
1.016302e+003, 3.069319e-001
1.018230e+003, 2.857229e-001
1.020159e+003, 2.662072e-001
1.022087e+003, 2.487051e-001
1.024016e+003, 2.324392e-001
1.025944e+003, 2.177356e-001
1.027873e+003, 2.042629e-001
1.029801e+003, 1.916734e-001
1.031730e+003, 1.801465e-001
1.033658e+003, 1.692526e-001
1.035587e+003, 1.591368e-001
1.037515e+003, 1.498848e-001
1.039444e+003, 1.412958e-001
1.041372e+003, 1.334336e-001
1.043301e+003, 1.260209e-001
1.045229e+003, 1.189359e-001
1.047157e+003, 1.125990e-001
1.049086e+003, 1.068329e-001
1.051014e+003, 1.018747e-001
1.052943e+003, 9.772691e-002
1.054871e+003, 9.355354e-002
1.056800e+003, 8.900130e-002
1.058728e+003, 8.419053e-002
1.060657e+003, 7.922712e-002
1.062585e+003, 7.398375e-002
1.064514e+003, 6.912251e-002
1.066442e+003, 6.501614e-002
1.068371e+003, 6.152046e-002
1.070299e+003, 5.854816e-002
1.072228e+003, 5.575961e-002
1.074156e+003, 5.373327e-002
1.076084e+003, 5.211323e-002
1.078013e+003, 5.042240e-002
1.079941e+003, 4.911829e-002
1.081870e+003, 4.795349e-002
1.083798e+003, 4.653765e-002
1.085727e+003, 4.536713e-002
1.087655e+003, 4.410236e-002
1.089584e+003, 4.296950e-002
1.091512e+003, 4.201987e-002
1.093441e+003, 4.121698e-002
1.095369e+003, 4.040119e-002
1.097298e+003, 3.950979e-002
1.099226e+003, 3.860632e-002
1.101155e+003, 3.771394e-002
1.103083e+003, 3.682829e-002
1.105011e+003, 3.596683e-002
1.106940e+003, 3.524430e-002
1.108868e+003, 3.442188e-002
1.110797e+003, 3.363430e-002
1.112725e+003, 3.300275e-002
1.114654e+003, 3.226606e-002
1.116582e+003, 3.148909e-002
1.118511e+003, 3.073832e-002
1.120439e+003, 3.020724e-002
1.122368e+003, 2.992849e-002
1.124296e+003, 2.960867e-002
1.126225e+003, 2.908142e-002
1.128153e+003, 2.832376e-002
1.130082e+003, 2.753314e-002
1.132010e+003, 2.696250e-002
1.133938e+003, 2.641686e-002
1.135867e+003, 2.579982e-002
1.137795e+003, 2.526207e-002
1.139724e+003, 2.476588e-002
1.141652e+003, 2.389065e-002
1.143581e+003, 2.297595e-002
1.145509e+003, 2.246376e-002
1.147438e+003, 2.224145e-002
1.149366e+003, 2.186472e-002
1.151295e+003, 2.142091e-002
1.153223e+003, 2.086238e-002
1.155152e+003, 2.032869e-002
1.157080e+003, 1.998764e-002
1.159009e+003, 1.974062e-002
1.160937e+003, 1.948185e-002
1.162865e+003, 1.925094e-002
1.164794e+003, 1.902192e-002
1.166722e+003, 1.865817e-002
1.168651e+003, 1.819483e-002
1.170579e+003, 1.797448e-002
1.172508e+003, 1.782842e-002
1.174436e+003, 1.714941e-002
1.176365e+003, 1.650395e-002
1.178293e+003, 1.602646e-002
1.180222e+003, 1.554360e-002
1.182150e+003, 1.495315e-002
1.184079e+003, 1.438807e-002
1.186007e+003, 1.410704e-002
1.187936e+003, 1.383330e-002
1.189864e+003, 1.359036e-002
1.191792e+003, 1.312997e-002
1.193721e+003, 1.272059e-002
1.195649e+003, 1.253038e-002
1.197578e+003, 1.233071e-002
1.199506e+003, 1.214191e-002
1.201435e+003, 1.205452e-002
1.203363e+003, 1.205305e-002
1.205292e+003, 1.182228e-002
1.207220e+003, 1.155399e-002
1.209149e+003, 1.161086e-002
1.211077e+003, 1.151527e-002
1.213006e+003, 1.143195e-002
1.214934e+003, 1.144192e-002
1.216863e+003, 1.144553e-002
1.218791e+003, 1.139899e-002
1.220719e+003, 1.150486e-002
1.222648e+003, 1.131223e-002
1.224576e+003, 1.116408e-002
1.226505e+003, 1.146886e-002
1.228433e+003, 1.176038e-002
1.230362e+003, 1.180389e-002
1.232290e+003, 1.198813e-002
1.234219e+003, 1.203949e-002
1.236147e+003, 1.178612e-002
1.238076e+003, 1.178333e-002
1.240004e+003, 1.191807e-002
1.241933e+003, 1.176290e-002
1.243861e+003, 1.169537e-002
1.245790e+003, 1.156992e-002
1.247718e+003, 1.148057e-002
1.249646e+003, 1.141736e-002
1.251575e+003, 1.130481e-002
1.253503e+003, 1.128540e-002
1.255432e+003, 1.137994e-002
1.257360e+003, 1.139348e-002
1.259289e+003, 1.138443e-002
1.261217e+003, 1.120647e-002
1.263146e+003, 1.124469e-002
1.265074e+003, 1.120610e-002
1.267003e+003, 1.122143e-002
1.268931e+003, 1.144287e-002
1.270860e+003, 1.161579e-002
1.272788e+003, 1.142376e-002
1.274717e+003, 1.138977e-002
1.276645e+003, 1.171126e-002
1.278573e+003, 1.195076e-002
1.280502e+003, 1.198193e-002
1.282430e+003, 1.215182e-002
1.284359e+003, 1.216695e-002
1.286287e+003, 1.209445e-002
1.288216e+003, 1.211472e-002
1.290144e+003, 1.224329e-002
1.292073e+003, 1.240149e-002
1.294001e+003, 1.255030e-002
1.295930e+003, 1.271694e-002
1.297858e+003, 1.277347e-002
1.299787e+003, 1.272431e-002
1.301715e+003, 1.266730e-002
1.303644e+003, 1.274181e-002
1.305572e+003, 1.291023e-002
1.307500e+003, 1.308301e-002
1.309429e+003, 1.333455e-002
1.311357e+003, 1.349786e-002
1.313286e+003, 1.368104e-002
1.315214e+003, 1.371944e-002
1.317143e+003, 1.370114e-002
1.319071e+003, 1.374998e-002
1.321000e+003, 1.387568e-002
1.322928e+003, 1.385629e-002
1.324857e+003, 1.396067e-002
1.326785e+003, 1.418710e-002
1.328714e+003, 1.436540e-002
1.330642e+003, 1.450121e-002
1.332571e+003, 1.463025e-002
1.334499e+003, 1.493361e-002
1.336427e+003, 1.511317e-002
1.338356e+003, 1.506878e-002
1.340284e+003, 1.528398e-002
1.342213e+003, 1.537786e-002
1.344141e+003, 1.555840e-002
1.346070e+003, 1.586989e-002
1.347998e+003, 1.621446e-002
1.349927e+003, 1.639307e-002
1.351855e+003, 1.663809e-002
1.353784e+003, 1.704491e-002
1.355712e+003, 1.738538e-002
1.357641e+003, 1.771430e-002
1.359569e+003, 1.810521e-002
1.361498e+003, 1.831208e-002
1.363426e+003, 1.875738e-002
1.365354e+003, 1.914476e-002
1.367283e+003, 1.957976e-002
1.369211e+003, 2.011013e-002
1.371140e+003, 2.053175e-002
1.373068e+003, 2.102361e-002
1.374997e+003, 2.170773e-002
1.376925e+003, 2.232369e-002
1.378854e+003, 2.295520e-002
1.380782e+003, 2.357709e-002
1.382711e+003, 2.439295e-002
1.384639e+003, 2.511864e-002
1.386568e+003, 2.586994e-002
1.388496e+003, 2.692992e-002
1.390424e+003, 2.810949e-002
1.392353e+003, 2.925186e-002
1.394281e+003, 3.028447e-002
1.396210e+003, 3.124234e-002
1.398138e+003, 3.260421e-002
1.400067e+003, 3.408328e-002
1.401995e+003, 3.567098e-002
1.403924e+003, 3.742336e-002
1.405852e+003, 3.943664e-002
1.407781e+003, 4.188235e-002
1.409709e+003, 4.476875e-002
1.411638e+003, 4.778975e-002
1.413566e+003, 5.143235e-002
1.415495e+003, 5.575151e-002
1.417423e+003, 6.081481e-002
1.419351e+003, 6.705967e-002
1.421280e+003, 7.433335e-002
1.423208e+003, 8.318044e-002
1.425137e+003, 9.380628e-002
1.427065e+003, 1.055205e-001
1.428994e+003, 1.167567e-001
1.430922e+003, 1.248537e-001
1.432851e+003, 1.279882e-001
1.434779e+003, 1.264432e-001
1.436708e+003, 1.221055e-001
1.438636e+003, 1.168100e-001
1.440565e+003, 1.123924e-001
1.442493e+003, 1.090317e-001
1.444422e+003, 1.057749e-001
1.446350e+003, 1.013234e-001
1.448278e+003, 9.506337e-002
1.450207e+003, 8.801690e-002
1.452135e+003, 8.126280e-002
1.454064e+003, 7.553931e-002
1.455992e+003, 7.160527e-002
1.457921e+003, 6.907352e-002
1.459849e+003, 6.778040e-002
1.461778e+003, 6.769647e-002
1.463706e+003, 6.866039e-002
1.465635e+003, 6.976005e-002
1.467563e+003, 7.022906e-002
1.469492e+003, 6.978083e-002
1.471420e+003, 6.811601e-002
1.473349e+003, 6.473183e-002
1.475277e+003, 6.012735e-002
1.477205e+003, 5.535218e-002
1.479134e+003, 5.114013e-002
1.481062e+003, 4.742493e-002
1.482991e+003, 4.419828e-002
1.484919e+003, 4.185233e-002
1.486848e+003, 4.009569e-002
1.488776e+003, 3.855479e-002
1.490705e+003, 3.754790e-002
1.492633e+003, 3.678678e-002
1.494562e+003, 3.627996e-002
1.496490e+003, 3.595636e-002
1.498419e+003, 3.560121e-002
1.500347e+003, 3.530036e-002
1.502276e+003, 3.526888e-002
1.504204e+003, 3.543102e-002
1.506132e+003, 3.575376e-002
1.508061e+003, 3.589953e-002
1.509989e+003, 3.579373e-002
1.511918e+003, 3.599448e-002
1.513846e+003, 3.649488e-002
1.515775e+003, 3.687551e-002
1.517703e+003, 3.733012e-002
1.519632e+003, 3.803284e-002
1.521560e+003, 3.840201e-002
1.523489e+003, 3.836657e-002
1.525417e+003, 3.869009e-002
1.527346e+003, 3.902411e-002
1.529274e+003, 3.949103e-002
1.531203e+003, 4.006516e-002
1.533131e+003, 4.066716e-002
1.535059e+003, 4.108880e-002
1.536988e+003, 4.163689e-002
1.538916e+003, 4.251611e-002
1.540845e+003, 4.314494e-002
1.542773e+003, 4.342978e-002
1.544702e+003, 4.377222e-002
1.546630e+003, 4.418104e-002
1.548559e+003, 4.474995e-002
1.550487e+003, 4.546134e-002
1.552416e+003, 4.606932e-002
1.554344e+003, 4.653108e-002
1.556273e+003, 4.718234e-002
1.558201e+003, 4.817330e-002
1.560130e+003, 4.883641e-002
1.562058e+003, 4.905748e-002
1.563986e+003, 4.956251e-002
1.565915e+003, 4.998050e-002
1.567843e+003, 5.038050e-002
1.569772e+003, 5.086807e-002
1.571700e+003, 5.103379e-002
1.573629e+003, 5.142298e-002
1.575557e+003, 5.238349e-002
1.577486e+003, 5.288533e-002
1.579414e+003, 5.295217e-002
1.581343e+003, 5.316824e-002
1.583271e+003, 5.353791e-002
1.585200e+003, 5.390099e-002
1.587128e+003, 5.412031e-002
1.589057e+003, 5.420052e-002
1.590985e+003, 5.426734e-002
1.592913e+003, 5.445923e-002
1.594842e+003, 5.471205e-002
1.596770e+003, 5.455258e-002
1.598699e+003, 5.452140e-002
1.600627e+003, 5.464027e-002
1.602556e+003, 5.466744e-002
1.604484e+003, 5.454345e-002
1.606413e+003, 5.410492e-002
1.608341e+003, 5.375442e-002
1.610270e+003, 5.358476e-002
1.612198e+003, 5.327390e-002
1.614127e+003, 5.303090e-002
1.616055e+003, 5.292841e-002
1.617984e+003, 5.264023e-002
1.619912e+003, 5.228369e-002
1.621840e+003, 5.202317e-002
1.623769e+003, 5.186487e-002
1.625697e+003, 5.181607e-002
1.627626e+003, 5.177370e-002
1.629554e+003, 5.135589e-002
1.631483e+003, 5.099370e-002
1.633411e+003, 5.099377e-002
1.635340e+003, 5.110244e-002
1.637268e+003, 5.085324e-002
1.639197e+003, 5.060191e-002
1.641125e+003, 5.041961e-002
1.643054e+003, 5.029909e-002
1.644982e+003, 5.057139e-002
1.646911e+003, 5.056301e-002
1.648839e+003, 5.032889e-002
1.650767e+003, 5.050747e-002
1.652696e+003, 5.080761e-002
1.654624e+003, 5.048154e-002
1.656553e+003, 5.015083e-002
1.658481e+003, 5.013736e-002
1.660410e+003, 5.021603e-002
1.662338e+003, 5.036751e-002
1.664267e+003, 5.041533e-002
1.666195e+003, 5.033138e-002
1.668124e+003, 5.048526e-002
1.670052e+003, 5.046415e-002
1.671981e+003, 5.038024e-002
1.673909e+003, 5.042664e-002
1.675838e+003, 5.049977e-002
1.677766e+003, 5.012643e-002
1.679694e+003, 4.967238e-002
1.681623e+003, 4.946507e-002
1.683551e+003, 4.952147e-002
1.685480e+003, 4.920723e-002
1.687408e+003, 4.831885e-002
1.689337e+003, 4.738735e-002
1.691265e+003, 4.649602e-002
1.693194e+003, 4.577045e-002
1.695122e+003, 4.513454e-002
1.697051e+003, 4.396551e-002
1.698979e+003, 4.285546e-002
1.700908e+003, 4.162602e-002
1.702836e+003, 4.036053e-002
1.704765e+003, 3.963098e-002
1.706693e+003, 3.880935e-002
1.708621e+003, 3.778894e-002
1.710550e+003, 3.682064e-002
1.712478e+003, 3.612744e-002
1.714407e+003, 3.570944e-002
1.716335e+003, 3.552472e-002
1.718264e+003, 3.500565e-002
1.720192e+003, 3.431382e-002
1.722121e+003, 3.387063e-002
1.724049e+003, 3.347519e-002
1.725978e+003, 3.313572e-002
1.727906e+003, 3.251675e-002
1.729835e+003, 3.200222e-002
1.731763e+003, 3.175779e-002
1.733692e+003, 3.156077e-002
1.735620e+003, 3.063402e-002
1.737548e+003, 2.969477e-002
1.739477e+003, 2.944946e-002
1.741405e+003, 2.932672e-002
1.743334e+003, 2.908117e-002
1.745262e+003, 2.912666e-002
1.747191e+003, 2.929677e-002
1.749119e+003, 2.941383e-002
1.751048e+003, 2.944680e-002
1.752976e+003, 2.969697e-002
1.754905e+003, 3.013443e-002
1.756833e+003, 3.035692e-002
1.758762e+003, 3.017840e-002
1.760690e+003, 3.024426e-002
1.762619e+003, 3.035539e-002
1.764547e+003, 3.033123e-002
1.766475e+003, 3.041136e-002
1.768404e+003, 3.044757e-002
1.770332e+003, 3.055204e-002
1.772261e+003, 3.046491e-002
1.774189e+003, 3.029463e-002
1.776118e+003, 3.052633e-002
1.778046e+003, 3.044441e-002
1.779975e+003, 2.999648e-002
1.781903e+003, 2.981807e-002
1.783832e+003, 2.995530e-002
1.785760e+003, 2.986780e-002
1.787689e+003, 2.971588e-002
1.789617e+003, 2.975902e-002
1.791546e+003, 2.981651e-002
1.793474e+003, 2.958185e-002
1.795402e+003, 2.919930e-002
1.797331e+003, 2.888823e-002
1.799259e+003, 2.888384e-002
1.801188e+003, 2.886879e-002
1.803116e+003, 2.867800e-002
1.805045e+003, 2.854695e-002
1.806973e+003, 2.857664e-002
1.808902e+003, 2.837505e-002
1.810830e+003, 2.809220e-002
1.812759e+003, 2.793900e-002
1.814687e+003, 2.795232e-002
1.816616e+003, 2.766354e-002
1.818544e+003, 2.708270e-002
1.820473e+003, 2.683683e-002
1.822401e+003, 2.659909e-002
1.824329e+003, 2.650652e-002
1.826258e+003, 2.631149e-002
1.828186e+003, 2.625844e-002
1.830115e+003, 2.621184e-002
1.832043e+003, 2.583041e-002
1.833972e+003, 2.532318e-002
1.835900e+003, 2.517955e-002
1.837829e+003, 2.518362e-002
1.839757e+003, 2.462524e-002
1.841686e+003, 2.466603e-002
1.843614e+003, 2.509487e-002
1.845543e+003, 2.443171e-002
1.847471e+003, 2.396109e-002
1.849400e+003, 2.372320e-002
1.851328e+003, 2.360858e-002
1.853256e+003, 2.302074e-002
1.855185e+003, 2.261826e-002
1.857113e+003, 2.277090e-002
1.859042e+003, 2.265558e-002
1.860970e+003, 2.243773e-002
1.862899e+003, 2.254661e-002
1.864827e+003, 2.193793e-002
1.866756e+003, 2.166256e-002
1.868684e+003, 2.175361e-002
1.870613e+003, 2.145851e-002
1.872541e+003, 2.112882e-002
1.874470e+003, 2.104242e-002
1.876398e+003, 2.100462e-002
1.878327e+003, 2.076581e-002
1.880255e+003, 2.077631e-002
1.882183e+003, 2.027275e-002
1.884112e+003, 2.003452e-002
1.886040e+003, 1.975827e-002
1.887969e+003, 1.958613e-002
1.889897e+003, 1.950929e-002
1.891826e+003, 1.948954e-002
1.893754e+003, 1.900340e-002
1.895683e+003, 1.885527e-002
1.897611e+003, 1.881142e-002
1.899540e+003, 1.896515e-002
1.901468e+003, 1.913177e-002
1.903397e+003, 1.869307e-002
1.905325e+003, 1.808421e-002
1.907254e+003, 1.807108e-002
1.909182e+003, 1.815523e-002
1.911110e+003, 1.728079e-002
1.913039e+003, 1.679453e-002
1.914967e+003, 1.685308e-002
1.916896e+003, 1.719295e-002
1.918824e+003, 1.692225e-002
1.920753e+003, 1.651073e-002
1.922681e+003, 1.647855e-002
1.924610e+003, 1.607955e-002
1.926538e+003, 1.614767e-002
1.928467e+003, 1.624407e-002
1.930395e+003, 1.563756e-002
1.932324e+003, 1.482460e-002
1.934252e+003, 1.477040e-002
1.936181e+003, 1.500220e-002
1.938109e+003, 1.458704e-002
1.940037e+003, 1.394893e-002
1.941966e+003, 1.346054e-002
1.943894e+003, 1.339407e-002
1.945823e+003, 1.372549e-002
1.947751e+003, 1.339458e-002
1.949680e+003, 1.326755e-002
1.951608e+003, 1.372081e-002
1.953537e+003, 1.374676e-002
1.955465e+003, 1.315582e-002
1.957394e+003, 1.231500e-002
1.959322e+003, 1.138501e-002
1.961251e+003, 1.103691e-002
1.963179e+003, 1.153725e-002
1.965108e+003, 1.112135e-002
1.967036e+003, 9.614754e-003
1.968964e+003, 9.907335e-003
1.970893e+003, 1.144155e-002
1.972821e+003, 1.180199e-002
1.974750e+003, 1.215250e-002
1.976678e+003, 1.196064e-002
1.978607e+003, 1.193046e-002
1.980535e+003, 1.205632e-002
1.982464e+003, 1.220386e-002
1.984392e+003, 1.165476e-002
1.986321e+003, 1.148312e-002
1.988249e+003, 1.282524e-002
1.990178e+003, 1.332501e-002
1.992106e+003, 1.345938e-002
1.994035e+003, 1.316159e-002
1.995963e+003, 1.260375e-002
1.997891e+003, 1.195682e-002
1.999820e+003, 1.140338e-002
2.001748e+003, 1.218000e-002
2.003677e+003, 1.240810e-002
2.005605e+003, 1.089752e-002
2.007534e+003, 9.394617e-003
2.009462e+003, 9.633555e-003
2.011391e+003, 1.136800e-002
2.013319e+003, 1.169533e-002
2.015248e+003, 1.149986e-002
2.017176e+003, 1.082771e-002
2.019105e+003, 1.116109e-002
2.021033e+003, 1.203922e-002
2.022962e+003, 1.052286e-002
2.024890e+003, 9.799822e-003
2.026818e+003, 1.189181e-002
2.028747e+003, 1.436502e-002
2.030675e+003, 1.451488e-002
2.032604e+003, 1.352186e-002
2.034532e+003, 1.353984e-002
2.036461e+003, 1.368329e-002
2.038389e+003, 1.356684e-002
2.040318e+003, 1.475371e-002
2.042246e+003, 1.536265e-002
2.044175e+003, 1.519404e-002
2.046103e+003, 1.491454e-002
2.048032e+003, 1.421583e-002
2.049960e+003, 1.488680e-002
2.051889e+003, 1.478651e-002
2.053817e+003, 1.464770e-002
2.055746e+003, 1.484116e-002
2.057674e+003, 1.445205e-002
2.059603e+003, 1.463471e-002
2.061531e+003, 1.520341e-002
2.063459e+003, 1.494372e-002
2.065388e+003, 1.496488e-002
2.067316e+003, 1.563444e-002
2.069245e+003, 1.595094e-002
2.071173e+003, 1.537632e-002
2.073102e+003, 1.565474e-002
2.075030e+003, 1.616923e-002
2.076959e+003, 1.595565e-002
2.078887e+003, 1.546225e-002
2.080816e+003, 1.576471e-002
2.082744e+003, 1.571451e-002
2.084673e+003, 1.515973e-002
2.086601e+003, 1.516353e-002
2.088530e+003, 1.525691e-002
2.090458e+003, 1.567102e-002
2.092386e+003, 1.610334e-002
2.094315e+003, 1.665273e-002
2.096243e+003, 1.709058e-002
2.098172e+003, 1.692394e-002
2.100100e+003, 1.641217e-002
2.102029e+003, 1.574303e-002
2.103957e+003, 1.608309e-002
2.105886e+003, 1.641403e-002
2.107814e+003, 1.670124e-002
2.109743e+003, 1.765826e-002
2.111671e+003, 1.743787e-002
2.113600e+003, 1.689976e-002
2.115528e+003, 1.653716e-002
2.117457e+003, 1.633283e-002
2.119385e+003, 1.652267e-002
2.121313e+003, 1.664774e-002
2.123242e+003, 1.663593e-002
2.125170e+003, 1.648853e-002
2.127099e+003, 1.672565e-002
2.129027e+003, 1.642332e-002
2.130956e+003, 1.567707e-002
2.132884e+003, 1.558690e-002
2.134813e+003, 1.639648e-002
2.136741e+003, 1.574165e-002
2.138670e+003, 1.485872e-002
2.140598e+003, 1.578924e-002
2.142527e+003, 1.652846e-002
2.144455e+003, 1.682257e-002
2.146384e+003, 1.691285e-002
2.148312e+003, 1.676777e-002
2.150240e+003, 1.676457e-002
2.152169e+003, 1.627355e-002
2.154097e+003, 1.603372e-002
2.156026e+003, 1.621673e-002
2.157954e+003, 1.558903e-002
2.159883e+003, 1.653562e-002
2.161811e+003, 1.850732e-002
2.163740e+003, 1.917533e-002
2.165668e+003, 2.047704e-002
2.167597e+003, 2.051945e-002
2.169525e+003, 1.826217e-002
2.171454e+003, 1.755802e-002
2.173382e+003, 1.853457e-002
2.175311e+003, 2.067326e-002
2.177239e+003, 2.125553e-002
2.179167e+003, 2.024703e-002
2.181096e+003, 1.981417e-002
2.183024e+003, 2.033452e-002
2.184953e+003, 2.162683e-002
2.186881e+003, 2.233391e-002
2.188810e+003, 2.129708e-002
2.190738e+003, 2.007768e-002
2.192667e+003, 2.095190e-002
2.194595e+003, 2.160948e-002
2.196524e+003, 2.126360e-002
2.198452e+003, 2.128626e-002
2.200381e+003, 2.261907e-002
2.202309e+003, 2.404439e-002
2.204238e+003, 2.334158e-002
2.206166e+003, 2.238376e-002
2.208094e+003, 2.248149e-002
2.210023e+003, 2.300868e-002
2.211951e+003, 2.462910e-002
2.213880e+003, 2.499813e-002
2.215808e+003, 2.485145e-002
2.217737e+003, 2.528163e-002
2.219665e+003, 2.611795e-002
2.221594e+003, 2.677367e-002
2.223522e+003, 2.687402e-002
2.225451e+003, 2.678192e-002
2.227379e+003, 2.752266e-002
2.229308e+003, 2.831923e-002
2.231236e+003, 2.859178e-002
2.233165e+003, 2.893997e-002
2.235093e+003, 2.988639e-002
2.237021e+003, 3.064878e-002
2.238950e+003, 3.089102e-002
2.240878e+003, 3.076588e-002
2.242807e+003, 3.073288e-002
2.244735e+003, 3.115479e-002
2.246664e+003, 3.194241e-002
2.248592e+003, 3.306353e-002
2.250521e+003, 3.393798e-002
2.252449e+003, 3.389054e-002
2.254378e+003, 3.451231e-002
2.256306e+003, 3.562725e-002
2.258235e+003, 3.606522e-002
2.260163e+003, 3.634509e-002
2.262092e+003, 3.685632e-002
2.264020e+003, 3.717037e-002
2.265948e+003, 3.822099e-002
2.267877e+003, 3.957370e-002
2.269805e+003, 4.027008e-002
2.271734e+003, 4.070053e-002
2.273662e+003, 4.103886e-002
2.275591e+003, 4.114762e-002
2.277519e+003, 4.187199e-002
2.279448e+003, 4.307322e-002
2.281376e+003, 4.369989e-002
2.283305e+003, 4.472571e-002
2.285233e+003, 4.606763e-002
2.287162e+003, 4.632165e-002
2.289090e+003, 4.663355e-002
2.291019e+003, 4.761852e-002
2.292947e+003, 4.837274e-002
2.294875e+003, 4.870017e-002
2.296804e+003, 4.930569e-002
2.298732e+003, 5.005091e-002
2.300661e+003, 5.111195e-002
2.302589e+003, 5.212149e-002
2.304518e+003, 5.268092e-002
2.306446e+003, 5.290015e-002
2.308375e+003, 5.356962e-002
2.310303e+003, 5.471791e-002
2.312232e+003, 5.549413e-002
2.314160e+003, 5.581620e-002
2.316089e+003, 5.687448e-002
2.318017e+003, 5.765256e-002
2.319946e+003, 5.807628e-002
2.321874e+003, 5.893451e-002
2.323802e+003, 5.976857e-002
2.325731e+003, 5.970519e-002
2.327659e+003, 5.977960e-002
2.329588e+003, 6.045832e-002
2.331516e+003, 6.114706e-002
2.333445e+003, 6.148614e-002
2.335373e+003, 6.208564e-002
2.337302e+003, 6.261376e-002
2.339230e+003, 6.288810e-002
2.341159e+003, 6.292031e-002
2.343087e+003, 6.307346e-002
2.345016e+003, 6.325258e-002
2.346944e+003, 6.303496e-002
2.348873e+003, 6.291376e-002
2.350801e+003, 6.326288e-002
2.352729e+003, 6.393816e-002
2.354658e+003, 6.449594e-002
2.356586e+003, 6.472225e-002
2.358515e+003, 6.459193e-002
2.360443e+003, 6.440162e-002
2.362372e+003, 6.431559e-002
2.364300e+003, 6.417049e-002
2.366229e+003, 6.456006e-002
2.368157e+003, 6.485630e-002
2.370086e+003, 6.452489e-002
2.372014e+003, 6.385575e-002
2.373942e+003, 6.345645e-002
2.375871e+003, 6.370701e-002
2.377799e+003, 6.399126e-002
2.379728e+003, 6.383982e-002
2.381656e+003, 6.361244e-002
2.383585e+003, 6.330432e-002
2.385513e+003, 6.303921e-002
2.387442e+003, 6.327204e-002
2.389370e+003, 6.322628e-002
2.391299e+003, 6.251124e-002
2.393227e+003, 6.240181e-002
2.395156e+003, 6.255393e-002
2.397084e+003, 6.243953e-002
2.399012e+003, 6.231024e-002
2.400941e+003, 6.250086e-002
2.402869e+003, 6.226756e-002
2.404798e+003, 6.191041e-002
2.406726e+003, 6.211699e-002
2.408655e+003, 6.252933e-002
2.410583e+003, 6.248629e-002
2.412512e+003, 6.207471e-002
2.414440e+003, 6.154436e-002
2.416369e+003, 6.130737e-002
2.418297e+003, 6.093187e-002
2.420226e+003, 6.088372e-002
2.422154e+003, 6.117189e-002
2.424083e+003, 6.101766e-002
2.426011e+003, 6.089413e-002
2.427939e+003, 6.119680e-002
2.429868e+003, 6.146018e-002
2.431796e+003, 6.122404e-002
2.433725e+003, 6.130092e-002
2.435653e+003, 6.150053e-002
2.437582e+003, 6.133168e-002
2.439510e+003, 6.149187e-002
2.441439e+003, 6.159262e-002
2.443367e+003, 6.163809e-002
2.445296e+003, 6.178976e-002
2.447224e+003, 6.152206e-002
2.449153e+003, 6.158143e-002
2.451081e+003, 6.210583e-002
2.453010e+003, 6.193139e-002
2.454938e+003, 6.135812e-002
2.456866e+003, 6.137236e-002
2.458795e+003, 6.178590e-002
2.460723e+003, 6.179370e-002
2.462652e+003, 6.136435e-002
2.464580e+003, 6.131279e-002
2.466509e+003, 6.158288e-002
2.468437e+003, 6.161950e-002
2.470366e+003, 6.168438e-002
2.472294e+003, 6.154180e-002
2.474223e+003, 6.169977e-002
2.476151e+003, 6.179167e-002
2.478080e+003, 6.157746e-002
2.480008e+003, 6.155344e-002
2.481937e+003, 6.200618e-002
2.483865e+003, 6.182319e-002
2.485793e+003, 6.176520e-002
2.487722e+003, 6.204119e-002
2.489650e+003, 6.227150e-002
2.491579e+003, 6.215927e-002
2.493507e+003, 6.250576e-002
2.495436e+003, 6.261027e-002
2.497364e+003, 6.252822e-002
2.499293e+003, 6.263113e-002
2.501221e+003, 6.275703e-002
2.503150e+003, 6.297187e-002
2.505078e+003, 6.325203e-002
2.507007e+003, 6.349829e-002
2.508935e+003, 6.315803e-002
2.510864e+003, 6.316990e-002
2.512792e+003, 6.383614e-002
2.514720e+003, 6.427129e-002
2.516649e+003, 6.410868e-002
2.518577e+003, 6.408756e-002
2.520506e+003, 6.460170e-002
2.522434e+003, 6.495837e-002
2.524363e+003, 6.460223e-002
2.526291e+003, 6.418961e-002
2.528220e+003, 6.460081e-002
2.530148e+003, 6.488258e-002
2.532077e+003, 6.481875e-002
2.534005e+003, 6.520271e-002
2.535934e+003, 6.515779e-002
2.537862e+003, 6.548252e-002
2.539791e+003, 6.604914e-002
2.541719e+003, 6.580961e-002
2.543647e+003, 6.614193e-002
2.545576e+003, 6.663676e-002
2.547504e+003, 6.661798e-002
2.549433e+003, 6.660728e-002
2.551361e+003, 6.703744e-002
2.553290e+003, 6.739121e-002
2.555218e+003, 6.780263e-002
2.557147e+003, 6.783075e-002
2.559075e+003, 6.769834e-002
2.561004e+003, 6.823188e-002
2.562932e+003, 6.911357e-002
2.564861e+003, 6.932443e-002
2.566789e+003, 6.908207e-002
2.568718e+003, 6.908856e-002
2.570646e+003, 6.888438e-002
2.572574e+003, 6.932310e-002
2.574503e+003, 7.037546e-002
2.576431e+003, 7.055239e-002
2.578360e+003, 7.071839e-002
2.580288e+003, 7.101668e-002
2.582217e+003, 7.105242e-002
2.584145e+003, 7.157389e-002
2.586074e+003, 7.211003e-002
2.588002e+003, 7.223257e-002
2.589931e+003, 7.231914e-002
2.591859e+003, 7.263325e-002
2.593788e+003, 7.287603e-002
2.595716e+003, 7.284331e-002
2.597645e+003, 7.286783e-002
2.599573e+003, 7.348755e-002
2.601501e+003, 7.439300e-002
2.603430e+003, 7.475054e-002
2.605358e+003, 7.469725e-002
2.607287e+003, 7.498056e-002
2.609215e+003, 7.507882e-002
2.611144e+003, 7.556919e-002
2.613072e+003, 7.617959e-002
2.615001e+003, 7.677159e-002
2.616929e+003, 7.703948e-002
2.618858e+003, 7.714323e-002
2.620786e+003, 7.729368e-002
2.622715e+003, 7.735100e-002
2.624643e+003, 7.726125e-002
2.626572e+003, 7.766419e-002
2.628500e+003, 7.854036e-002
2.630428e+003, 7.911802e-002
2.632357e+003, 7.931031e-002
2.634285e+003, 7.959669e-002
2.636214e+003, 7.996503e-002
2.638142e+003, 8.044030e-002
2.640071e+003, 8.063282e-002
2.641999e+003, 8.073017e-002
2.643928e+003, 8.125581e-002
2.645856e+003, 8.153160e-002
2.647785e+003, 8.161049e-002
2.649713e+003, 8.219364e-002
2.651642e+003, 8.269251e-002
2.653570e+003, 8.322788e-002
2.655499e+003, 8.361261e-002
2.657427e+003, 8.376496e-002
2.659355e+003, 8.390244e-002
2.661284e+003, 8.444300e-002
2.663212e+003, 8.461742e-002
2.665141e+003, 8.497578e-002
2.667069e+003, 8.566206e-002
2.668998e+003, 8.623690e-002
2.670926e+003, 8.633564e-002
2.672855e+003, 8.673389e-002
2.674783e+003, 8.712036e-002
2.676712e+003, 8.720326e-002
2.678640e+003, 8.763214e-002
2.680569e+003, 8.811909e-002
2.682497e+003, 8.858374e-002
2.684426e+003, 8.890855e-002
2.686354e+003, 8.920144e-002
2.688282e+003, 8.983169e-002
2.690211e+003, 9.040596e-002
2.692139e+003, 9.067860e-002
2.694068e+003, 9.100763e-002
2.695996e+003, 9.169570e-002
2.697925e+003, 9.216616e-002
2.699853e+003, 9.257776e-002
2.701782e+003, 9.322786e-002
2.703710e+003, 9.372701e-002
2.705639e+003, 9.399404e-002
2.707567e+003, 9.465143e-002
2.709496e+003, 9.533524e-002
2.711424e+003, 9.556660e-002
2.713353e+003, 9.633705e-002
2.715281e+003, 9.743070e-002
2.717209e+003, 9.822623e-002
2.719138e+003, 9.858726e-002
2.721066e+003, 9.911954e-002
2.722995e+003, 9.982330e-002
2.724923e+003, 1.003760e-001
2.726852e+003, 1.005575e-001
2.728780e+003, 1.010521e-001
2.730709e+003, 1.019596e-001
2.732637e+003, 1.025118e-001
2.734566e+003, 1.031570e-001
2.736494e+003, 1.037825e-001
2.738423e+003, 1.045151e-001
2.740351e+003, 1.053809e-001
2.742280e+003, 1.060175e-001
2.744208e+003, 1.064952e-001
2.746136e+003, 1.071978e-001
2.748065e+003, 1.077543e-001
2.749993e+003, 1.083535e-001
2.751922e+003, 1.091232e-001
2.753850e+003, 1.098255e-001
2.755779e+003, 1.103332e-001
2.757707e+003, 1.109868e-001
2.759636e+003, 1.116590e-001
2.761564e+003, 1.124638e-001
2.763493e+003, 1.134971e-001
2.765421e+003, 1.148006e-001
2.767350e+003, 1.154205e-001
2.769278e+003, 1.157362e-001
2.771207e+003, 1.165899e-001
2.773135e+003, 1.176932e-001
2.775063e+003, 1.184569e-001
2.776992e+003, 1.189824e-001
2.778920e+003, 1.197222e-001
2.780849e+003, 1.205019e-001
2.782777e+003, 1.212265e-001
2.784706e+003, 1.218228e-001
2.786634e+003, 1.226102e-001
2.788563e+003, 1.237046e-001
2.790491e+003, 1.249538e-001
2.792420e+003, 1.258587e-001
2.794348e+003, 1.263120e-001
2.796277e+003, 1.268461e-001
2.798205e+003, 1.279852e-001
2.800134e+003, 1.288488e-001
2.802062e+003, 1.294455e-001
2.803990e+003, 1.299067e-001
2.805919e+003, 1.309988e-001
2.807847e+003, 1.320125e-001
2.809776e+003, 1.323804e-001
2.811704e+003, 1.332323e-001
2.813633e+003, 1.343549e-001
2.815561e+003, 1.353591e-001
2.817490e+003, 1.359857e-001
2.819418e+003, 1.364071e-001
2.821347e+003, 1.373789e-001
2.823275e+003, 1.381936e-001
2.825204e+003, 1.383726e-001
2.827132e+003, 1.389755e-001
2.829061e+003, 1.398743e-001
2.830989e+003, 1.404592e-001
2.832917e+003, 1.413027e-001
2.834846e+003, 1.420782e-001
2.836774e+003, 1.426845e-001
2.838703e+003, 1.437184e-001
2.840631e+003, 1.443271e-001
2.842560e+003, 1.439478e-001
2.844488e+003, 1.438080e-001
2.846417e+003, 1.439707e-001
2.848345e+003, 1.436486e-001
2.850274e+003, 1.436684e-001
2.852202e+003, 1.437344e-001
2.854131e+003, 1.440532e-001
2.856059e+003, 1.448020e-001
2.857988e+003, 1.461467e-001
2.859916e+003, 1.472331e-001
2.861844e+003, 1.479930e-001
2.863773e+003, 1.486303e-001
2.865701e+003, 1.493292e-001
2.867630e+003, 1.503417e-001
2.869558e+003, 1.508112e-001
2.871487e+003, 1.513024e-001
2.873415e+003, 1.524132e-001
2.875344e+003, 1.530364e-001
2.877272e+003, 1.529303e-001
2.879201e+003, 1.533553e-001
2.881129e+003, 1.540506e-001
2.883058e+003, 1.548159e-001
2.884986e+003, 1.553541e-001
2.886915e+003, 1.557899e-001
2.888843e+003, 1.561934e-001
2.890771e+003, 1.563340e-001
2.892700e+003, 1.569767e-001
2.894628e+003, 1.569766e-001
2.896557e+003, 1.571624e-001
2.898485e+003, 1.576929e-001
2.900414e+003, 1.575752e-001
2.902342e+003, 1.573208e-001
2.904271e+003, 1.573515e-001
2.906199e+003, 1.572080e-001
2.908128e+003, 1.569276e-001
2.910056e+003, 1.570099e-001
2.911985e+003, 1.566854e-001
2.913913e+003, 1.565159e-001
2.915842e+003, 1.558531e-001
2.917770e+003, 1.545580e-001
2.919698e+003, 1.539389e-001
2.921627e+003, 1.536447e-001
2.923555e+003, 1.536050e-001
2.925484e+003, 1.538637e-001
2.927412e+003, 1.534301e-001
2.929341e+003, 1.527042e-001
2.931269e+003, 1.524211e-001
2.933198e+003, 1.524260e-001
2.935126e+003, 1.528213e-001
2.937055e+003, 1.530575e-001
2.938983e+003, 1.529676e-001
2.940912e+003, 1.525696e-001
2.942840e+003, 1.523251e-001
2.944769e+003, 1.522112e-001
2.946697e+003, 1.516932e-001
2.948625e+003, 1.506317e-001
2.950554e+003, 1.498965e-001
2.952482e+003, 1.500724e-001
2.954411e+003, 1.500815e-001
2.956339e+003, 1.497097e-001
2.958268e+003, 1.491383e-001
2.960196e+003, 1.484758e-001
2.962125e+003, 1.483210e-001
2.964053e+003, 1.479582e-001
2.965982e+003, 1.471484e-001
2.967910e+003, 1.464078e-001
2.969839e+003, 1.460009e-001
2.971767e+003, 1.456383e-001
2.973696e+003, 1.450751e-001
2.975624e+003, 1.445983e-001
2.977552e+003, 1.440342e-001
2.979481e+003, 1.439315e-001
2.981409e+003, 1.441238e-001
2.983338e+003, 1.433621e-001
2.985266e+003, 1.421545e-001
2.987195e+003, 1.415679e-001
2.989123e+003, 1.414678e-001
2.991052e+003, 1.408390e-001
2.992980e+003, 1.401688e-001
2.994909e+003, 1.393908e-001
2.996837e+003, 1.388416e-001
2.998766e+003, 1.381254e-001
3.000694e+003, 1.375216e-001
3.002623e+003, 1.369429e-001
3.004551e+003, 1.361793e-001
3.006479e+003, 1.356439e-001
3.008408e+003, 1.351758e-001
3.010336e+003, 1.345903e-001
3.012265e+003, 1.338742e-001
3.014193e+003, 1.334136e-001
3.016122e+003, 1.331396e-001
3.018050e+003, 1.326496e-001
3.019979e+003, 1.318780e-001
3.021907e+003, 1.305827e-001
3.023836e+003, 1.294319e-001
3.025764e+003, 1.284723e-001
3.027693e+003, 1.280146e-001
3.029621e+003, 1.276961e-001
3.031550e+003, 1.274757e-001
3.033478e+003, 1.269842e-001
3.035406e+003, 1.259908e-001
3.037335e+003, 1.250952e-001
3.039263e+003, 1.245775e-001
3.041192e+003, 1.241840e-001
3.043120e+003, 1.237709e-001
3.045049e+003, 1.233097e-001
3.046977e+003, 1.230197e-001
3.048906e+003, 1.222907e-001
3.050834e+003, 1.216690e-001
3.052763e+003, 1.213861e-001
3.054691e+003, 1.204074e-001
3.056620e+003, 1.194248e-001
3.058548e+003, 1.193357e-001
3.060477e+003, 1.187596e-001
3.062405e+003, 1.175117e-001
3.064333e+003, 1.166268e-001
3.066262e+003, 1.162485e-001
3.068190e+003, 1.161502e-001
3.070119e+003, 1.155755e-001
3.072047e+003, 1.147858e-001
3.073976e+003, 1.144028e-001
3.075904e+003, 1.139204e-001
3.077833e+003, 1.132893e-001
3.079761e+003, 1.127168e-001
3.081690e+003, 1.119882e-001
3.083618e+003, 1.114085e-001
3.085547e+003, 1.109156e-001
3.087475e+003, 1.106007e-001
3.089404e+003, 1.101341e-001
3.091332e+003, 1.094409e-001
3.093260e+003, 1.092583e-001
3.095189e+003, 1.093129e-001
3.097117e+003, 1.084777e-001
3.099046e+003, 1.071837e-001
3.100974e+003, 1.063564e-001
3.102903e+003, 1.064317e-001
3.104831e+003, 1.057566e-001
3.106760e+003, 1.043469e-001
3.108688e+003, 1.040231e-001
3.110617e+003, 1.035253e-001
3.112545e+003, 1.027602e-001
3.114474e+003, 1.027753e-001
3.116402e+003, 1.021456e-001
3.118331e+003, 1.008804e-001
3.120259e+003, 9.957365e-002
3.122188e+003, 9.886359e-002
3.124116e+003, 9.875939e-002
3.126044e+003, 9.799211e-002
3.127973e+003, 9.699008e-002
3.129901e+003, 9.696104e-002
3.131830e+003, 9.655186e-002
3.133758e+003, 9.532888e-002
3.135687e+003, 9.450210e-002
3.137615e+003, 9.427360e-002
3.139544e+003, 9.378194e-002
3.141472e+003, 9.368367e-002
3.143401e+003, 9.349937e-002
3.145329e+003, 9.255795e-002
3.147258e+003, 9.189083e-002
3.149186e+003, 9.143109e-002
3.151115e+003, 9.156649e-002
3.153043e+003, 9.138513e-002
3.154971e+003, 9.055626e-002
3.156900e+003, 8.995456e-002
3.158828e+003, 8.950900e-002
3.160757e+003, 8.934730e-002
3.162685e+003, 8.926940e-002
3.164614e+003, 8.905841e-002
3.166542e+003, 8.862380e-002
3.168471e+003, 8.799138e-002
3.170399e+003, 8.781458e-002
3.172328e+003, 8.769515e-002
3.174256e+003, 8.695088e-002
3.176185e+003, 8.705153e-002
3.178113e+003, 8.788326e-002
3.180042e+003, 8.745801e-002
3.181970e+003, 8.670824e-002
3.183898e+003, 8.649141e-002
3.185827e+003, 8.613519e-002
3.187755e+003, 8.552740e-002
3.189684e+003, 8.529192e-002
3.191612e+003, 8.493242e-002
3.193541e+003, 8.458139e-002
3.195469e+003, 8.444039e-002
3.197398e+003, 8.460156e-002
3.199326e+003, 8.470166e-002
3.201255e+003, 8.403917e-002
3.203183e+003, 8.331763e-002
3.205112e+003, 8.259705e-002
3.207040e+003, 8.229230e-002
3.208969e+003, 8.192923e-002
3.210897e+003, 8.177745e-002
3.212825e+003, 8.129600e-002
3.214754e+003, 8.062799e-002
3.216682e+003, 8.042614e-002
3.218611e+003, 8.052783e-002
3.220539e+003, 7.913571e-002
3.222468e+003, 7.847780e-002
3.224396e+003, 7.965827e-002
3.226325e+003, 7.953497e-002
3.228253e+003, 7.837027e-002
3.230182e+003, 7.779437e-002
3.232110e+003, 7.706504e-002
3.234039e+003, 7.591420e-002
3.235967e+003, 7.549384e-002
3.237896e+003, 7.535552e-002
3.239824e+003, 7.497536e-002
3.241752e+003, 7.368840e-002
3.243681e+003, 7.273509e-002
3.245609e+003, 7.209759e-002
3.247538e+003, 7.145087e-002
3.249466e+003, 7.052132e-002
3.251395e+003, 6.961580e-002
3.253323e+003, 6.897017e-002
3.255252e+003, 6.786546e-002
3.257180e+003, 6.633324e-002
3.259109e+003, 6.511659e-002
3.261037e+003, 6.419130e-002
3.262966e+003, 6.286459e-002
3.264894e+003, 6.150328e-002
3.266823e+003, 5.998520e-002
3.268751e+003, 5.859442e-002
3.270679e+003, 5.787635e-002
3.272608e+003, 5.661896e-002
3.274536e+003, 5.509210e-002
3.276465e+003, 5.380002e-002
3.278393e+003, 5.318131e-002
3.280322e+003, 5.191845e-002
3.282250e+003, 5.050841e-002
3.284179e+003, 4.942237e-002
3.286107e+003, 4.811070e-002
3.288036e+003, 4.656458e-002
3.289964e+003, 4.548157e-002
3.291893e+003, 4.445081e-002
3.293821e+003, 4.304197e-002
3.295750e+003, 4.169579e-002
3.297678e+003, 4.092678e-002
3.299606e+003, 4.011589e-002
3.301535e+003, 3.969850e-002
3.303463e+003, 3.874280e-002
3.305392e+003, 3.735745e-002
3.307320e+003, 3.661926e-002
3.309249e+003, 3.603703e-002
3.311177e+003, 3.525745e-002
3.313106e+003, 3.444935e-002
3.315034e+003, 3.359965e-002
3.316963e+003, 3.283318e-002
3.318891e+003, 3.233120e-002
3.320820e+003, 3.192465e-002
3.322748e+003, 3.173340e-002
3.324677e+003, 3.090988e-002
3.326605e+003, 2.976424e-002
3.328533e+003, 2.948886e-002
3.330462e+003, 2.886989e-002
3.332390e+003, 2.866809e-002
3.334319e+003, 2.885385e-002
3.336247e+003, 2.803063e-002
3.338176e+003, 2.743265e-002
3.340104e+003, 2.680747e-002
3.342033e+003, 2.526102e-002
3.343961e+003, 2.518218e-002
3.345890e+003, 2.496240e-002
3.347818e+003, 2.413955e-002
3.349747e+003, 2.401410e-002
3.351675e+003, 2.363555e-002
3.353604e+003, 2.299202e-002
3.355532e+003, 2.315743e-002
3.357460e+003, 2.338728e-002
3.359389e+003, 2.282066e-002
3.361317e+003, 2.178622e-002
3.363246e+003, 2.131305e-002
3.365174e+003, 2.125056e-002
3.367103e+003, 2.089589e-002
3.369031e+003, 2.035449e-002
3.370960e+003, 2.005398e-002
3.372888e+003, 2.010191e-002
3.374817e+003, 1.996079e-002
3.376745e+003, 1.943032e-002
3.378674e+003, 1.914985e-002
3.380602e+003, 1.933930e-002
3.382531e+003, 1.938067e-002
3.384459e+003, 1.889430e-002
3.386387e+003, 1.800359e-002
3.388316e+003, 1.819604e-002
3.390244e+003, 1.816760e-002
3.392173e+003, 1.775755e-002
3.394101e+003, 1.765053e-002
3.396030e+003, 1.780067e-002
3.397958e+003, 1.710626e-002
3.399887e+003, 1.693152e-002
3.401815e+003, 1.732972e-002
3.403744e+003, 1.666343e-002
3.405672e+003, 1.621597e-002
3.407601e+003, 1.651834e-002
3.409529e+003, 1.596184e-002
3.411458e+003, 1.500234e-002
3.413386e+003, 1.528978e-002
3.415314e+003, 1.621363e-002
3.417243e+003, 1.598827e-002
3.419171e+003, 1.527036e-002
3.421100e+003, 1.510713e-002
3.423028e+003, 1.538569e-002
3.424957e+003, 1.558505e-002
3.426885e+003, 1.519939e-002
3.428814e+003, 1.465109e-002
3.430742e+003, 1.461442e-002
3.432671e+003, 1.483640e-002
3.434599e+003, 1.501530e-002
3.436528e+003, 1.498803e-002
3.438456e+003, 1.471967e-002
3.440385e+003, 1.435844e-002
3.442313e+003, 1.395085e-002
3.444241e+003, 1.387729e-002
3.446170e+003, 1.405402e-002
3.448098e+003, 1.446127e-002
3.450027e+003, 1.456251e-002
3.451955e+003, 1.410118e-002
3.453884e+003, 1.419963e-002
3.455812e+003, 1.454692e-002
3.457741e+003, 1.472334e-002
3.459669e+003, 1.407377e-002
3.461598e+003, 1.340507e-002
3.463526e+003, 1.355385e-002
3.465455e+003, 1.370720e-002
3.467383e+003, 1.401128e-002
3.469312e+003, 1.437047e-002
3.471240e+003, 1.422195e-002
3.473168e+003, 1.376017e-002
3.475097e+003, 1.406757e-002
3.477025e+003, 1.410704e-002
3.478954e+003, 1.374878e-002
3.480882e+003, 1.392330e-002
3.482811e+003, 1.412846e-002
3.484739e+003, 1.418553e-002
3.486668e+003, 1.346256e-002
3.488596e+003, 1.250221e-002
3.490525e+003, 1.270946e-002
3.492453e+003, 1.263833e-002
3.494382e+003, 1.212085e-002
3.496310e+003, 1.191582e-002
3.498239e+003, 1.157860e-002
3.500167e+003, 1.097860e-002
3.502095e+003, 1.078698e-002
3.504024e+003, 1.039555e-002
3.505952e+003, 1.059032e-002
3.507881e+003, 1.033891e-002
3.509809e+003, 1.048640e-002
3.511738e+003, 1.056886e-002
3.513666e+003, 9.924895e-003
3.515595e+003, 9.501555e-003
3.517523e+003, 9.834087e-003
3.519452e+003, 9.470500e-003
3.521380e+003, 8.719629e-003
3.523309e+003, 8.681328e-003
3.525237e+003, 9.098996e-003
3.527166e+003, 8.688833e-003
3.529094e+003, 8.224889e-003
3.531022e+003, 8.348259e-003
3.532951e+003, 8.366871e-003
3.534879e+003, 7.772707e-003
3.536808e+003, 7.008902e-003
3.538736e+003, 6.838617e-003
3.540665e+003, 6.804487e-003
3.542593e+003, 7.255560e-003
3.544522e+003, 7.291646e-003
3.546450e+003, 7.061940e-003
3.548379e+003, 6.513516e-003
3.550307e+003, 5.455547e-003
3.552236e+003, 5.852660e-003
3.554164e+003, 6.720284e-003
3.556093e+003, 7.189225e-003
3.558021e+003, 6.655074e-003
3.559949e+003, 6.020711e-003
3.561878e+003, 5.571287e-003
3.563806e+003, 5.096613e-003
3.565735e+003, 4.838546e-003
3.567663e+003, 5.570179e-003
3.569592e+003, 6.854673e-003
3.571520e+003, 6.638050e-003
3.573449e+003, 5.779957e-003
3.575377e+003, 6.034250e-003
3.577306e+003, 6.008549e-003
3.579234e+003, 5.750376e-003
3.581163e+003, 5.451018e-003
3.583091e+003, 5.322631e-003
3.585020e+003, 5.213665e-003
3.586948e+003, 5.186403e-003
3.588876e+003, 4.981067e-003
3.590805e+003, 4.921044e-003
3.592733e+003, 4.938470e-003
3.594662e+003, 5.111632e-003
3.596590e+003, 4.905461e-003
3.598519e+003, 3.520341e-003
3.600447e+003, 3.347611e-003
3.602376e+003, 3.745139e-003
3.604304e+003, 3.891715e-003
3.606233e+003, 4.689037e-003
3.608161e+003, 5.083002e-003
3.610090e+003, 4.532382e-003
3.612018e+003, 4.063123e-003
3.613947e+003, 2.796918e-003
3.615875e+003, 2.267839e-003
3.617803e+003, 3.000289e-003
3.619732e+003, 2.900210e-003
3.621660e+003, 2.512319e-003
3.623589e+003, 1.890629e-003
3.625517e+003, 1.705074e-003
3.627446e+003, 2.008951e-003
3.629374e+003, 2.077795e-003
3.631303e+003, 2.048798e-003
3.633231e+003, 1.230252e-003
3.635160e+003, 2.861404e-004
3.637088e+003, 1.027277e-004
3.639017e+003, 3.343517e-004
3.640945e+003, -9.932449e-005
3.642874e+003, -2.419105e-004
3.644802e+003, 9.542709e-006
3.646730e+003, -3.644743e-007
3.648659e+003, 3.512350e-005
3.650587e+003, 5.913148e-004
3.652516e+003, 4.903623e-004
3.654444e+003, 4.521173e-004
3.656373e+003, 3.045125e-005
3.658301e+003, -1.076251e-003
3.660230e+003, -6.867892e-004
3.662158e+003, -4.496611e-004
3.664087e+003, -3.981549e-004
3.666015e+003, -1.920356e-004
3.667944e+003, -3.347898e-004
3.669872e+003, -3.285322e-004
3.671801e+003, -3.856631e-005
3.673729e+003, -1.121111e-004
3.675657e+003, -3.200630e-005
3.677586e+003, -7.678648e-004
3.679514e+003, -6.315061e-004
3.681443e+003, -7.635319e-004
3.683371e+003, -1.121232e-003
3.685300e+003, -8.728338e-004
3.687228e+003, -2.144237e-004
3.689157e+003, -3.873960e-004
3.691085e+003, -1.769954e-003
3.693014e+003, -2.045048e-003
3.694942e+003, -9.391622e-004
3.696871e+003, -4.892797e-004
3.698799e+003, -9.521886e-004
3.700728e+003, -9.366163e-004
3.702656e+003, -2.135762e-003
3.704584e+003, -3.017941e-003
3.706513e+003, -2.970391e-003
3.708441e+003, -1.760186e-003
3.710370e+003, -7.570821e-004
3.712298e+003, -1.291796e-003
3.714227e+003, -1.334343e-003
3.716155e+003, -8.734951e-004
3.718084e+003, -1.610284e-005
3.720012e+003, -2.072040e-004
3.721941e+003, -1.655724e-004
3.723869e+003, 2.558038e-004
3.725798e+003, -4.379106e-004
3.727726e+003, -1.368596e-003
3.729655e+003, -1.677183e-003
3.731583e+003, -1.409849e-003
3.733511e+003, -1.122620e-003
3.735440e+003, -1.372791e-003
3.737368e+003, -1.152462e-003
3.739297e+003, -1.263780e-003
3.741225e+003, -1.387225e-003
3.743154e+003, -7.840054e-004
3.745082e+003, -6.151284e-004
3.747011e+003, -1.345178e-003
3.748939e+003, -1.669229e-003
3.750868e+003, -1.207315e-003
3.752796e+003, -3.310154e-004
3.754725e+003, -5.626490e-004
3.756653e+003, -1.172752e-003
3.758582e+003, -1.698307e-003
3.760510e+003, -1.442775e-003
3.762438e+003, -5.183046e-004
3.764367e+003, -2.103502e-004
3.766295e+003, -7.968049e-004
3.768224e+003, -8.272644e-004
3.770152e+003, -1.576535e-003
3.772081e+003, -1.357102e-003
3.774009e+003, -2.562493e-004
3.775938e+003, -4.436700e-004
3.777866e+003, -1.171893e-003
3.779795e+003, -1.028984e-003
3.781723e+003, -1.146414e-003
3.783652e+003, -1.536553e-003
3.785580e+003, -1.508686e-003
3.787509e+003, -8.234281e-004
3.789437e+003, -4.286092e-004
3.791365e+003, -7.371366e-004
3.793294e+003, -1.016753e-003
3.795222e+003, -1.454994e-003
3.797151e+003, -1.572673e-003
3.799079e+003, -1.234045e-003
3.801008e+003, -3.374716e-004
3.802936e+003, -5.575529e-004
3.804865e+003, -9.915960e-004
3.806793e+003, -1.092148e-003
3.808722e+003, -1.129593e-003
3.810650e+003, -5.122483e-004
3.812579e+003, -2.169075e-004
3.814507e+003, -5.097661e-004
3.816436e+003, -7.321087e-004
3.818364e+003, -6.507948e-004
3.820292e+003, 1.426655e-004
3.822221e+003, -4.346005e-004
3.824149e+003, -1.216269e-003
3.826078e+003, -9.257717e-004
3.828006e+003, -1.198328e-003
3.829935e+003, -5.554681e-004
3.831863e+003, -5.142099e-005
3.833792e+003, -7.605882e-004
3.835720e+003, -9.926870e-004
3.837649e+003, -5.261479e-004
3.839577e+003, -9.741299e-006
3.841506e+003, 2.366083e-004
3.843434e+003, -4.406248e-004
3.845363e+003, -1.458032e-003
3.847291e+003, -1.487025e-003
3.849219e+003, -9.625037e-004
3.851148e+003, -7.784819e-004
3.853076e+003, -1.482495e-004
3.855005e+003, 1.431414e-005
3.856933e+003, -4.140443e-004
3.858862e+003, -9.962573e-004
3.860790e+003, -7.069024e-004
3.862719e+003, 9.225497e-005
3.864647e+003, 1.686555e-005
3.866576e+003, -8.029565e-004
3.868504e+003, -1.070103e-003
3.870433e+003, -1.564881e-003
3.872361e+003, -1.674741e-003
3.874290e+003, -1.196543e-003
3.876218e+003, -5.665206e-004
3.878146e+003, -5.597700e-004
3.880075e+003, -8.804723e-004
3.882003e+003, -1.028521e-003
3.883932e+003, -8.550431e-004
3.885860e+003, -9.992986e-004
3.887789e+003, -1.128068e-004
3.889717e+003, 3.859842e-004
3.891646e+003, -7.850968e-004
3.893574e+003, -1.703125e-003
3.895503e+003, -1.440529e-003
3.897431e+003, -8.077851e-004
3.899360e+003, -7.324726e-004
3.901288e+003, -1.108938e-003
3.903217e+003, -9.480889e-004
3.905145e+003, -1.754774e-003
3.907073e+003, -1.769888e-003
3.909002e+003, -1.877386e-003
3.910930e+003, -1.749461e-003
3.912859e+003, -4.286092e-004
3.914787e+003, -3.429675e-004
3.916716e+003, -7.635319e-004
3.918644e+003, -8.339777e-004
3.920573e+003, -1.029413e-003
3.922501e+003, -3.915672e-004
3.924430e+003, -7.060754e-004
3.926358e+003, -9.501057e-004
3.928287e+003, 3.343517e-004
3.930215e+003, 5.135166e-004
3.932144e+003, -4.177518e-004
3.934072e+003, -5.380947e-004
3.936000e+003, 2.111151e-004
3.937929e+003, 6.498800e-004
3.939857e+003, 2.732761e-004
3.941786e+003, -4.488998e-004
3.943714e+003, -9.356906e-004
3.945643e+003, -7.881396e-004
3.947571e+003, -8.671461e-004
3.949500e+003, -9.294086e-004
3.951428e+003, -3.464107e-004
3.953357e+003, -8.011706e-004
3.955285e+003, -1.131543e-003
3.957214e+003, -2.499906e-004
3.959142e+003, 4.209731e-004
3.961071e+003, 1.923194e-004
3.962999e+003, 5.415489e-004
3.964927e+003, 2.540798e-004
3.966856e+003, -7.293632e-004
3.968784e+003, -6.172459e-004
3.970713e+003, -1.147505e-003
3.972641e+003, -1.657049e-003
3.974570e+003, -7.146430e-004
3.976498e+003, -1.728921e-004
3.978427e+003, -6.500339e-004
3.980355e+003, -9.976788e-004
3.982284e+003, -6.389174e-004
3.984212e+003, 1.686555e-005
3.986141e+003, 1.531394e-004
3.988069e+003, 1.856566e-004
3.989998e+003, -4.712416e-004
3.991926e+003, -1.342172e-003
3.993854e+003, -1.338472e-003
3.995783e+003, -3.588259e-004
3.997711e+003, 2.253368e-004
3.999640e+003, 2.253368e-004
4.001568e+003, 0.000000e+000
##END=



