##NAMES=Sulphur
##RRUFFID=R050006
##IDEAL CHEMISTRY=S
##LOCALITY=San Felipe, Mexicali, Baja California Norte, Mexico
##OWNER=RRUFF
##SOURCE=Eugene Schlepp
##DESCRIPTION=Yellow single crystal
##STATUS=The identification of this mineral has been confirmed by X-ray diffraction and chemical analysis
##URL=rruff.info/R050006
##MEASURED CHEMISTRY=S_1.00_
3.991926e+002, 1.107200e-001
4.011211e+002, 1.077450e-001
4.030496e+002, 1.082630e-001
4.049780e+002, 1.076898e-001
4.069065e+002, 1.093545e-001
4.088350e+002, 1.099432e-001
4.107634e+002, 1.075432e-001
4.126919e+002, 1.070803e-001
4.146204e+002, 1.076468e-001
4.165488e+002, 1.091304e-001
4.184773e+002, 1.100204e-001
4.204058e+002, 1.106294e-001
4.223342e+002, 1.101243e-001
4.242627e+002, 1.108694e-001
4.261912e+002, 1.116874e-001
4.281196e+002, 1.127231e-001
4.300481e+002, 1.135300e-001
4.319766e+002, 1.137606e-001
4.339050e+002, 1.143777e-001
4.358335e+002, 1.142800e-001
4.377620e+002, 1.144871e-001
4.396904e+002, 1.149630e-001
4.416189e+002, 1.143534e-001
4.435474e+002, 1.141760e-001
4.454758e+002, 1.149302e-001
4.474043e+002, 1.156886e-001
4.493328e+002, 1.161774e-001
4.512612e+002, 1.172888e-001
4.531897e+002, 1.192020e-001
4.551182e+002, 1.217357e-001
4.570466e+002, 1.256130e-001
4.589751e+002, 1.295293e-001
4.609036e+002, 1.342007e-001
4.628320e+002, 1.396413e-001
4.647605e+002, 1.429823e-001
4.666890e+002, 1.411782e-001
4.686174e+002, 1.337000e-001
4.705459e+002, 1.241528e-001
4.724744e+002, 1.180338e-001
4.744028e+002, 1.131268e-001
4.763313e+002, 1.090405e-001
4.782598e+002, 1.089254e-001
4.801882e+002, 1.102893e-001
4.821167e+002, 1.104960e-001
4.840452e+002, 1.111435e-001
4.859736e+002, 1.123132e-001
4.879021e+002, 1.135947e-001
4.898306e+002, 1.149351e-001
4.917590e+002, 1.152483e-001
4.936875e+002, 1.156119e-001
4.956160e+002, 1.162078e-001
4.975444e+002, 1.168593e-001
4.994729e+002, 1.170995e-001
5.014014e+002, 1.174404e-001
5.033298e+002, 1.183537e-001
5.052583e+002, 1.188634e-001
5.071868e+002, 1.191455e-001
5.091152e+002, 1.196235e-001
5.110437e+002, 1.200451e-001
5.129722e+002, 1.202908e-001
5.149006e+002, 1.205539e-001
5.168291e+002, 1.207281e-001
5.187576e+002, 1.210980e-001
5.206860e+002, 1.217737e-001
5.226145e+002, 1.219056e-001
5.245430e+002, 1.219394e-001
5.264714e+002, 1.222194e-001
5.283999e+002, 1.225416e-001
5.303284e+002, 1.230317e-001
5.322568e+002, 1.234207e-001
5.341853e+002, 1.237054e-001
5.361138e+002, 1.239127e-001
5.380422e+002, 1.245226e-001
5.399707e+002, 1.251394e-001
5.418992e+002, 1.256526e-001
5.438276e+002, 1.262701e-001
5.457561e+002, 1.268654e-001
5.476846e+002, 1.273956e-001
5.496130e+002, 1.273293e-001
5.515415e+002, 1.271725e-001
5.534700e+002, 1.275818e-001
5.553984e+002, 1.279138e-001
5.573269e+002, 1.283365e-001
5.592554e+002, 1.286115e-001
5.611838e+002, 1.286340e-001
5.631123e+002, 1.291690e-001
5.650408e+002, 1.295635e-001
5.669692e+002, 1.295692e-001
5.688977e+002, 1.296100e-001
5.708262e+002, 1.301083e-001
5.727546e+002, 1.305377e-001
5.746831e+002, 1.312461e-001
5.766116e+002, 1.316499e-001
5.785400e+002, 1.319314e-001
5.804685e+002, 1.325352e-001
5.823970e+002, 1.329073e-001
5.843254e+002, 1.328260e-001
5.862539e+002, 1.327722e-001
5.881824e+002, 1.328483e-001
5.901108e+002, 1.331577e-001
5.920393e+002, 1.334412e-001
5.939678e+002, 1.336718e-001
5.958962e+002, 1.338084e-001
5.978247e+002, 1.341238e-001
5.997532e+002, 1.344915e-001
6.016816e+002, 1.345836e-001
6.036101e+002, 1.350983e-001
6.055386e+002, 1.353774e-001
6.074670e+002, 1.357702e-001
6.093955e+002, 1.362645e-001
6.113240e+002, 1.369404e-001
6.132524e+002, 1.376576e-001
6.151809e+002, 1.380596e-001
6.171094e+002, 1.379389e-001
6.190378e+002, 1.381176e-001
6.209663e+002, 1.384007e-001
6.228948e+002, 1.388773e-001
6.248232e+002, 1.389645e-001
6.267517e+002, 1.390505e-001
6.286802e+002, 1.397425e-001
6.306086e+002, 1.400971e-001
6.325371e+002, 1.402334e-001
6.344656e+002, 1.404194e-001
6.363940e+002, 1.408196e-001
6.383225e+002, 1.414660e-001
6.402510e+002, 1.419750e-001
6.421794e+002, 1.423079e-001
6.441079e+002, 1.426420e-001
6.460364e+002, 1.431406e-001
6.479648e+002, 1.438631e-001
6.498933e+002, 1.442569e-001
6.518218e+002, 1.445631e-001
6.537502e+002, 1.450237e-001
6.556787e+002, 1.450286e-001
6.576072e+002, 1.449500e-001
6.595356e+002, 1.449360e-001
6.614641e+002, 1.450711e-001
6.633926e+002, 1.453969e-001
6.653210e+002, 1.459197e-001
6.672495e+002, 1.461032e-001
6.691780e+002, 1.460243e-001
6.711064e+002, 1.461960e-001
6.730349e+002, 1.463788e-001
6.749634e+002, 1.466745e-001
6.768918e+002, 1.473822e-001
6.788203e+002, 1.480115e-001
6.807488e+002, 1.480962e-001
6.826772e+002, 1.481602e-001
6.846057e+002, 1.483762e-001
6.865342e+002, 1.486468e-001
6.884626e+002, 1.488472e-001
6.903911e+002, 1.491286e-001
6.923196e+002, 1.495198e-001
6.942480e+002, 1.500202e-001
6.961765e+002, 1.504814e-001
6.981050e+002, 1.507615e-001
7.000334e+002, 1.513797e-001
7.019619e+002, 1.519158e-001
7.038904e+002, 1.521299e-001
7.058188e+002, 1.524775e-001
7.077473e+002, 1.527949e-001
7.096758e+002, 1.534273e-001
7.116042e+002, 1.536390e-001
7.135327e+002, 1.536892e-001
7.154612e+002, 1.538269e-001
7.173896e+002, 1.540584e-001
7.193181e+002, 1.542819e-001
7.212466e+002, 1.545834e-001
7.231750e+002, 1.548345e-001
7.251035e+002, 1.552261e-001
7.270320e+002, 1.556987e-001
7.289604e+002, 1.559084e-001
7.308889e+002, 1.562829e-001
7.328174e+002, 1.567712e-001
7.347458e+002, 1.569962e-001
7.366743e+002, 1.570127e-001
7.386028e+002, 1.572818e-001
7.405313e+002, 1.578688e-001
7.424597e+002, 1.585660e-001
7.443882e+002, 1.591269e-001
7.463167e+002, 1.593008e-001
7.482451e+002, 1.594003e-001
7.501736e+002, 1.596877e-001
7.521021e+002, 1.601029e-001
7.540305e+002, 1.605380e-001
7.559590e+002, 1.608427e-001
7.578875e+002, 1.611842e-001
7.598159e+002, 1.616134e-001
7.617444e+002, 1.619778e-001
7.636729e+002, 1.622475e-001
7.656013e+002, 1.626651e-001
7.675298e+002, 1.632126e-001
7.694583e+002, 1.637729e-001
7.713867e+002, 1.643260e-001
7.733152e+002, 1.645900e-001
7.752437e+002, 1.649236e-001
7.771721e+002, 1.656758e-001
7.791006e+002, 1.663886e-001
7.810291e+002, 1.665711e-001
7.829575e+002, 1.666506e-001
7.848860e+002, 1.666037e-001
7.868145e+002, 1.669725e-001
7.887429e+002, 1.675593e-001
7.906714e+002, 1.678456e-001
7.925999e+002, 1.683439e-001
7.945283e+002, 1.690308e-001
7.964568e+002, 1.693383e-001
7.983853e+002, 1.693593e-001
8.003137e+002, 1.696328e-001
8.022422e+002, 1.703083e-001
8.041707e+002, 1.711211e-001
8.060991e+002, 1.715361e-001
8.080276e+002, 1.719573e-001
8.099561e+002, 1.722853e-001
8.118845e+002, 1.725660e-001
8.138130e+002, 1.732453e-001
8.157415e+002, 1.738207e-001
8.176699e+002, 1.742868e-001
8.195984e+002, 1.750670e-001
8.215269e+002, 1.758957e-001
8.234553e+002, 1.762208e-001
8.253838e+002, 1.768523e-001
8.273123e+002, 1.777903e-001
8.292407e+002, 1.782727e-001
8.311692e+002, 1.784643e-001
8.330977e+002, 1.790527e-001
8.350261e+002, 1.798746e-001
8.369546e+002, 1.804874e-001
8.388831e+002, 1.807477e-001
8.408115e+002, 1.810588e-001
8.427400e+002, 1.811572e-001
8.446685e+002, 1.810415e-001
8.465969e+002, 1.810442e-001
8.485254e+002, 1.807293e-001
8.504539e+002, 1.802648e-001
8.523823e+002, 1.798267e-001
8.543108e+002, 1.793632e-001
8.562393e+002, 1.791292e-001
8.581677e+002, 1.793853e-001
8.600962e+002, 1.798283e-001
8.620247e+002, 1.802320e-001
8.639531e+002, 1.807872e-001
8.658816e+002, 1.810439e-001
8.678101e+002, 1.814253e-001
8.697385e+002, 1.816814e-001
8.716670e+002, 1.818258e-001
8.735955e+002, 1.822107e-001
8.755239e+002, 1.827572e-001
8.774524e+002, 1.830577e-001
8.793809e+002, 1.832524e-001
8.813093e+002, 1.833682e-001
8.832378e+002, 1.835711e-001
8.851663e+002, 1.840411e-001
8.870947e+002, 1.844013e-001
8.890232e+002, 1.844925e-001
8.909517e+002, 1.848373e-001
8.928801e+002, 1.853640e-001
8.948085e+002, 1.858302e-001
8.967370e+002, 1.861268e-001
8.986655e+002, 1.866864e-001
9.005939e+002, 1.871851e-001
9.025224e+002, 1.875831e-001
9.044509e+002, 1.878663e-001
9.063793e+002, 1.880046e-001
9.083078e+002, 1.882160e-001
9.102363e+002, 1.884531e-001
9.121647e+002, 1.887742e-001
9.140932e+002, 1.891447e-001
9.160217e+002, 1.895162e-001
9.179501e+002, 1.900246e-001
9.198786e+002, 1.904451e-001
9.218071e+002, 1.906278e-001
9.237355e+002, 1.909070e-001
9.256640e+002, 1.914564e-001
9.275925e+002, 1.919838e-001
9.295209e+002, 1.924813e-001
9.314494e+002, 1.928915e-001
9.333779e+002, 1.932364e-001
9.353063e+002, 1.938744e-001
9.372348e+002, 1.942908e-001
9.391633e+002, 1.944302e-001
9.410917e+002, 1.946409e-001
9.430202e+002, 1.948642e-001
9.449487e+002, 1.950272e-001
9.468771e+002, 1.951928e-001
9.488056e+002, 1.953184e-001
9.507341e+002, 1.954565e-001
9.526625e+002, 1.959189e-001
9.545910e+002, 1.964673e-001
9.565195e+002, 1.970102e-001
9.584479e+002, 1.974664e-001
9.603764e+002, 1.977450e-001
9.623049e+002, 1.978890e-001
9.642333e+002, 1.982624e-001
9.661618e+002, 1.987899e-001
9.680903e+002, 1.992560e-001
9.700187e+002, 1.996071e-001
9.719472e+002, 1.999421e-001
9.738757e+002, 2.002841e-001
9.758041e+002, 2.005844e-001
9.777326e+002, 2.009955e-001
9.796611e+002, 2.013226e-001
9.815895e+002, 2.018038e-001
9.835180e+002, 2.021979e-001
9.854465e+002, 2.024740e-001
9.873749e+002, 2.030101e-001
9.893034e+002, 2.035310e-001
9.912319e+002, 2.039345e-001
9.931603e+002, 2.041436e-001
9.950888e+002, 2.043192e-001
9.970173e+002, 2.046968e-001
9.989457e+002, 2.051659e-001
1.000874e+003, 2.056513e-001
1.002803e+003, 2.059864e-001
1.004731e+003, 2.062409e-001
1.006660e+003, 2.066497e-001
1.008588e+003, 2.072471e-001
1.010517e+003, 2.077278e-001
1.012445e+003, 2.079877e-001
1.014373e+003, 2.082323e-001
1.016302e+003, 2.086114e-001
1.018230e+003, 2.088088e-001
1.020159e+003, 2.090199e-001
1.022087e+003, 2.092909e-001
1.024016e+003, 2.096713e-001
1.025944e+003, 2.101260e-001
1.027873e+003, 2.106575e-001
1.029801e+003, 2.111913e-001
1.031730e+003, 2.116112e-001
1.033658e+003, 2.121513e-001
1.035587e+003, 2.126930e-001
1.037515e+003, 2.130330e-001
1.039444e+003, 2.132777e-001
1.041372e+003, 2.137884e-001
1.043301e+003, 2.140937e-001
1.045229e+003, 2.142953e-001
1.047157e+003, 2.146192e-001
1.049086e+003, 2.149125e-001
1.051014e+003, 2.151823e-001
1.052943e+003, 2.157507e-001
1.054871e+003, 2.162796e-001
1.056800e+003, 2.166535e-001
1.058728e+003, 2.169306e-001
1.060657e+003, 2.172890e-001
1.062585e+003, 2.176851e-001
1.064514e+003, 2.180120e-001
1.066442e+003, 2.181929e-001
1.068371e+003, 2.185448e-001
1.070299e+003, 2.189956e-001
1.072228e+003, 2.192783e-001
1.074156e+003, 2.195172e-001
1.076084e+003, 2.198357e-001
1.078013e+003, 2.201421e-001
1.079941e+003, 2.205992e-001
1.081870e+003, 2.211120e-001
1.083798e+003, 2.213082e-001
1.085727e+003, 2.214390e-001
1.087655e+003, 2.217052e-001
1.089584e+003, 2.219334e-001
1.091512e+003, 2.223435e-001
1.093441e+003, 2.226955e-001
1.095369e+003, 2.231073e-001
1.097298e+003, 2.234445e-001
1.099226e+003, 2.234517e-001
1.101155e+003, 2.238159e-001
1.103083e+003, 2.242722e-001
1.105011e+003, 2.245442e-001
1.106940e+003, 2.249513e-001
1.108868e+003, 2.253357e-001
1.110797e+003, 2.256530e-001
1.112725e+003, 2.258582e-001
1.114654e+003, 2.261574e-001
1.116582e+003, 2.264674e-001
1.118511e+003, 2.266691e-001
1.120439e+003, 2.272612e-001
1.122368e+003, 2.278107e-001
1.124296e+003, 2.282002e-001
1.126225e+003, 2.285536e-001
1.128153e+003, 2.287360e-001
1.130082e+003, 2.292092e-001
1.132010e+003, 2.298483e-001
1.133938e+003, 2.304512e-001
1.135867e+003, 2.309334e-001
1.137795e+003, 2.314694e-001
1.139724e+003, 2.318963e-001
1.141652e+003, 2.324259e-001
1.143581e+003, 2.329462e-001
1.145509e+003, 2.332354e-001
1.147438e+003, 2.335217e-001
1.149366e+003, 2.339347e-001
1.151295e+003, 2.343488e-001
1.153223e+003, 2.344338e-001
1.155152e+003, 2.344433e-001
1.157080e+003, 2.345932e-001
1.159009e+003, 2.348024e-001
1.160937e+003, 2.348450e-001
1.162865e+003, 2.348183e-001
1.164794e+003, 2.350565e-001
1.166722e+003, 2.352688e-001
1.168651e+003, 2.354681e-001
1.170579e+003, 2.359056e-001
1.172508e+003, 2.362293e-001
1.174436e+003, 2.364032e-001
1.176365e+003, 2.367800e-001
1.178293e+003, 2.371123e-001
1.180222e+003, 2.375360e-001
1.182150e+003, 2.381399e-001
1.184079e+003, 2.384649e-001
1.186007e+003, 2.388211e-001
1.187936e+003, 2.392994e-001
1.189864e+003, 2.396821e-001
1.191792e+003, 2.399637e-001
1.193721e+003, 2.404351e-001
1.195649e+003, 2.408805e-001
1.197578e+003, 2.413003e-001
1.199506e+003, 2.416392e-001
1.201435e+003, 2.421597e-001
1.203363e+003, 2.425530e-001
1.205292e+003, 2.425435e-001
1.207220e+003, 2.426662e-001
1.209149e+003, 2.432483e-001
1.211077e+003, 2.436526e-001
1.213006e+003, 2.437588e-001
1.214934e+003, 2.440517e-001
1.216863e+003, 2.444562e-001
1.218791e+003, 2.447304e-001
1.220719e+003, 2.449633e-001
1.222648e+003, 2.452936e-001
1.224576e+003, 2.455529e-001
1.226505e+003, 2.458786e-001
1.228433e+003, 2.462357e-001
1.230362e+003, 2.464933e-001
1.232290e+003, 2.467489e-001
1.234219e+003, 2.470769e-001
1.236147e+003, 2.473504e-001
1.238076e+003, 2.476857e-001
1.240004e+003, 2.480846e-001
1.241933e+003, 2.484066e-001
1.243861e+003, 2.485086e-001
1.245790e+003, 2.485771e-001
1.247718e+003, 2.488702e-001
1.249646e+003, 2.492495e-001
1.251575e+003, 2.495097e-001
1.253503e+003, 2.497065e-001
1.255432e+003, 2.499264e-001
1.257360e+003, 2.502642e-001
1.259289e+003, 2.505793e-001
1.261217e+003, 2.508745e-001
1.263146e+003, 2.511600e-001
1.265074e+003, 2.513856e-001
1.267003e+003, 2.516251e-001
1.268931e+003, 2.519770e-001
1.270860e+003, 2.523137e-001
1.272788e+003, 2.526195e-001
1.274717e+003, 2.529704e-001
1.276645e+003, 2.534569e-001
1.278573e+003, 2.538075e-001
1.280502e+003, 2.541041e-001
1.282430e+003, 2.543579e-001
1.284359e+003, 2.546470e-001
1.286287e+003, 2.551015e-001
1.288216e+003, 2.555675e-001
1.290144e+003, 2.559300e-001
1.292073e+003, 2.563218e-001
1.294001e+003, 2.566534e-001
1.295930e+003, 2.568837e-001
1.297858e+003, 2.572154e-001
1.299787e+003, 2.575138e-001
1.301715e+003, 2.579232e-001
1.303644e+003, 2.584027e-001
1.305572e+003, 2.587205e-001
1.307500e+003, 2.592256e-001
1.309429e+003, 2.595107e-001
1.311357e+003, 2.595285e-001
1.313286e+003, 2.597262e-001
1.315214e+003, 2.601743e-001
1.317143e+003, 2.605991e-001
1.319071e+003, 2.606032e-001
1.321000e+003, 2.606703e-001
1.322928e+003, 2.613929e-001
1.324857e+003, 2.619299e-001
1.326785e+003, 2.620583e-001
1.328714e+003, 2.621182e-001
1.330642e+003, 2.625046e-001
1.332571e+003, 2.630275e-001
1.334499e+003, 2.635472e-001
1.336427e+003, 2.639237e-001
1.338356e+003, 2.641558e-001
1.340284e+003, 2.643984e-001
1.342213e+003, 2.647163e-001
1.344141e+003, 2.651176e-001
1.346070e+003, 2.654046e-001
1.347998e+003, 2.656523e-001
1.349927e+003, 2.661684e-001
1.351855e+003, 2.667729e-001
1.353784e+003, 2.671098e-001
1.355712e+003, 2.673000e-001
1.357641e+003, 2.677011e-001
1.359569e+003, 2.682293e-001
1.361498e+003, 2.685005e-001
1.363426e+003, 2.689211e-001
1.365354e+003, 2.694818e-001
1.367283e+003, 2.697699e-001
1.369211e+003, 2.700543e-001
1.371140e+003, 2.703402e-001
1.373068e+003, 2.707250e-001
1.374997e+003, 2.710999e-001
1.376925e+003, 2.714129e-001
1.378854e+003, 2.717092e-001
1.380782e+003, 2.721631e-001
1.382711e+003, 2.724825e-001
1.384639e+003, 2.730041e-001
1.386568e+003, 2.733825e-001
1.388496e+003, 2.736405e-001
1.390424e+003, 2.740177e-001
1.392353e+003, 2.742314e-001
1.394281e+003, 2.743116e-001
1.396210e+003, 2.748112e-001
1.398138e+003, 2.755666e-001
1.400067e+003, 2.761698e-001
1.401995e+003, 2.763905e-001
1.403924e+003, 2.766026e-001
1.405852e+003, 2.771944e-001
1.407781e+003, 2.774966e-001
1.409709e+003, 2.775712e-001
1.411638e+003, 2.780461e-001
1.413566e+003, 2.785374e-001
1.415495e+003, 2.788398e-001
1.417423e+003, 2.791449e-001
1.419351e+003, 2.793975e-001
1.421280e+003, 2.795947e-001
1.423208e+003, 2.800125e-001
1.425137e+003, 2.804866e-001
1.427065e+003, 2.806965e-001
1.428994e+003, 2.810926e-001
1.430922e+003, 2.816006e-001
1.432851e+003, 2.820717e-001
1.434779e+003, 2.823071e-001
1.436708e+003, 2.824171e-001
1.438636e+003, 2.829419e-001
1.440565e+003, 2.834096e-001
1.442493e+003, 2.836778e-001
1.444422e+003, 2.840463e-001
1.446350e+003, 2.846400e-001
1.448278e+003, 2.850191e-001
1.450207e+003, 2.853361e-001
1.452135e+003, 2.858240e-001
1.454064e+003, 2.860361e-001
1.455992e+003, 2.861715e-001
1.457921e+003, 2.866048e-001
1.459849e+003, 2.869757e-001
1.461778e+003, 2.871816e-001
1.463706e+003, 2.874132e-001
1.465635e+003, 2.875756e-001
1.467563e+003, 2.878916e-001
1.469492e+003, 2.882200e-001
1.471420e+003, 2.883150e-001
1.473349e+003, 2.884769e-001
1.475277e+003, 2.887771e-001
1.477205e+003, 2.890984e-001
1.479134e+003, 2.894956e-001
1.481062e+003, 2.897637e-001
1.482991e+003, 2.900188e-001
1.484919e+003, 2.904702e-001
1.486848e+003, 2.907467e-001
1.488776e+003, 2.909527e-001
1.490705e+003, 2.911799e-001
1.492633e+003, 2.917126e-001
1.494562e+003, 2.921642e-001
1.496490e+003, 2.925150e-001
1.498419e+003, 2.929051e-001
1.500347e+003, 2.933964e-001
1.502276e+003, 2.937079e-001
1.504204e+003, 2.939055e-001
1.506132e+003, 2.941113e-001
1.508061e+003, 2.943904e-001
1.509989e+003, 2.947070e-001
1.511918e+003, 2.948372e-001
1.513846e+003, 2.951328e-001
1.515775e+003, 2.955470e-001
1.517703e+003, 2.958584e-001
1.519632e+003, 2.963279e-001
1.521560e+003, 2.968408e-001
1.523489e+003, 2.970939e-001
1.525417e+003, 2.971640e-001
1.527346e+003, 2.975606e-001
1.529274e+003, 2.981582e-001
1.531203e+003, 2.984510e-001
1.533131e+003, 2.986287e-001
1.535059e+003, 2.989384e-001
1.536988e+003, 2.993203e-001
1.538916e+003, 2.997284e-001
1.540845e+003, 3.000543e-001
1.542773e+003, 3.004896e-001
1.544702e+003, 3.009335e-001
1.546630e+003, 3.011991e-001
1.548559e+003, 3.016289e-001
1.550487e+003, 3.019713e-001
1.552416e+003, 3.022414e-001
1.554344e+003, 3.026112e-001
1.556273e+003, 3.028589e-001
1.558201e+003, 3.034018e-001
1.560130e+003, 3.037905e-001
1.562058e+003, 3.039859e-001
1.563986e+003, 3.043313e-001
1.565915e+003, 3.047742e-001
1.567843e+003, 3.052879e-001
1.569772e+003, 3.058285e-001
1.571700e+003, 3.062097e-001
1.573629e+003, 3.064120e-001
1.575557e+003, 3.067021e-001
1.577486e+003, 3.073630e-001
1.579414e+003, 3.081000e-001
1.581343e+003, 3.086252e-001
1.583271e+003, 3.089136e-001
1.585200e+003, 3.090202e-001
1.587128e+003, 3.092482e-001
1.589057e+003, 3.098259e-001
1.590985e+003, 3.103100e-001
1.592913e+003, 3.107756e-001
1.594842e+003, 3.111800e-001
1.596770e+003, 3.114668e-001
1.598699e+003, 3.118036e-001
1.600627e+003, 3.122019e-001
1.602556e+003, 3.125861e-001
1.604484e+003, 3.131191e-001
1.606413e+003, 3.134446e-001
1.608341e+003, 3.135251e-001
1.610270e+003, 3.138591e-001
1.612198e+003, 3.143079e-001
1.614127e+003, 3.147967e-001
1.616055e+003, 3.151474e-001
1.617984e+003, 3.152854e-001
1.619912e+003, 3.155535e-001
1.621840e+003, 3.159899e-001
1.623769e+003, 3.164881e-001
1.625697e+003, 3.169654e-001
1.627626e+003, 3.174400e-001
1.629554e+003, 3.177060e-001
1.631483e+003, 3.179221e-001
1.633411e+003, 3.181726e-001
1.635340e+003, 3.183379e-001
1.637268e+003, 3.185179e-001
1.639197e+003, 3.189617e-001
1.641125e+003, 3.193817e-001
1.643054e+003, 3.196748e-001
1.644982e+003, 3.199402e-001
1.646911e+003, 3.203691e-001
1.648839e+003, 3.208516e-001
1.650767e+003, 3.215292e-001
1.652696e+003, 3.218508e-001
1.654624e+003, 3.219014e-001
1.656553e+003, 3.222196e-001
1.658481e+003, 3.226240e-001
1.660410e+003, 3.229573e-001
1.662338e+003, 3.235378e-001
1.664267e+003, 3.238146e-001
1.666195e+003, 3.238609e-001
1.668124e+003, 3.240779e-001
1.670052e+003, 3.241453e-001
1.671981e+003, 3.241078e-001
1.673909e+003, 3.244534e-001
1.675838e+003, 3.249640e-001
1.677766e+003, 3.252902e-001
1.679694e+003, 3.254502e-001
1.681623e+003, 3.255589e-001
1.683551e+003, 3.259889e-001
1.685480e+003, 3.265051e-001
1.687408e+003, 3.268454e-001
1.689337e+003, 3.272143e-001
1.691265e+003, 3.274566e-001
1.693194e+003, 3.277061e-001
1.695122e+003, 3.278304e-001
1.697051e+003, 3.279901e-001
1.698979e+003, 3.282423e-001
1.700908e+003, 3.286145e-001
1.702836e+003, 3.290296e-001
1.704765e+003, 3.291995e-001
1.706693e+003, 3.294307e-001
1.708621e+003, 3.300046e-001
1.710550e+003, 3.304659e-001
1.712478e+003, 3.304784e-001
1.714407e+003, 3.306199e-001
1.716335e+003, 3.309332e-001
1.718264e+003, 3.313411e-001
1.720192e+003, 3.320438e-001
1.722121e+003, 3.326813e-001
1.724049e+003, 3.332017e-001
1.725978e+003, 3.336059e-001
1.727906e+003, 3.339010e-001
1.729835e+003, 3.338183e-001
1.731763e+003, 3.342477e-001
1.733692e+003, 3.348797e-001
1.735620e+003, 3.350046e-001
1.737548e+003, 3.350827e-001
1.739477e+003, 3.355651e-001
1.741405e+003, 3.359531e-001
1.743334e+003, 3.359340e-001
1.745262e+003, 3.359900e-001
1.747191e+003, 3.360789e-001
1.749119e+003, 3.361042e-001
1.751048e+003, 3.362611e-001
1.752976e+003, 3.366123e-001
1.754905e+003, 3.369683e-001
1.756833e+003, 3.371698e-001
1.758762e+003, 3.375632e-001
1.760690e+003, 3.378014e-001
1.762619e+003, 3.381446e-001
1.764547e+003, 3.386892e-001
1.766475e+003, 3.389943e-001
1.768404e+003, 3.393396e-001
1.770332e+003, 3.397851e-001
1.772261e+003, 3.400024e-001
1.774189e+003, 3.401400e-001
1.776118e+003, 3.401074e-001
1.778046e+003, 3.403912e-001
1.779975e+003, 3.409949e-001
1.781903e+003, 3.415703e-001
1.783832e+003, 3.422192e-001
1.785760e+003, 3.422949e-001
1.787689e+003, 3.424336e-001
1.789617e+003, 3.424912e-001
1.791546e+003, 3.423338e-001
1.793474e+003, 3.427314e-001
1.795402e+003, 3.430344e-001
1.797331e+003, 3.432889e-001
1.799259e+003, 3.439152e-001
1.801188e+003, 3.442643e-001
1.803116e+003, 3.447438e-001
1.805045e+003, 3.452265e-001
1.806973e+003, 3.454024e-001
1.808902e+003, 3.452509e-001
1.810830e+003, 3.457741e-001
1.812759e+003, 3.464232e-001
1.814687e+003, 3.466272e-001
1.816616e+003, 3.471731e-001
1.818544e+003, 3.474196e-001
1.820473e+003, 3.476774e-001
1.822401e+003, 3.478639e-001
1.824329e+003, 3.481517e-001
1.826258e+003, 3.488564e-001
1.828186e+003, 3.495188e-001
1.830115e+003, 3.499271e-001
1.832043e+003, 3.497223e-001
1.833972e+003, 3.498454e-001
1.835900e+003, 3.506904e-001
1.837829e+003, 3.508041e-001
1.839757e+003, 3.514193e-001
1.841686e+003, 3.523744e-001
1.843614e+003, 3.524783e-001
1.845543e+003, 3.525856e-001
1.847471e+003, 3.536833e-001
1.849400e+003, 3.542764e-001
1.851328e+003, 3.540165e-001
1.853256e+003, 3.542786e-001
1.855185e+003, 3.546816e-001
1.857113e+003, 3.547949e-001
1.859042e+003, 3.547978e-001
1.860970e+003, 3.550085e-001
1.862899e+003, 3.559123e-001
1.864827e+003, 3.562100e-001
1.866756e+003, 3.562281e-001
1.868684e+003, 3.563151e-001
1.870613e+003, 3.561392e-001
1.872541e+003, 3.564211e-001
1.874470e+003, 3.572196e-001
1.876398e+003, 3.580292e-001
1.878327e+003, 3.585647e-001
1.880255e+003, 3.586106e-001
1.882183e+003, 3.590680e-001
1.884112e+003, 3.591742e-001
1.886040e+003, 3.591064e-001
1.887969e+003, 3.600333e-001
1.889897e+003, 3.606678e-001
1.891826e+003, 3.605657e-001
1.893754e+003, 3.609250e-001
1.895683e+003, 3.614488e-001
1.897611e+003, 3.617859e-001
1.899540e+003, 3.620976e-001
1.901468e+003, 3.626792e-001
1.903397e+003, 3.630243e-001
1.905325e+003, 3.634695e-001
1.907254e+003, 3.637811e-001
1.909182e+003, 3.630013e-001
1.911110e+003, 3.629570e-001
1.913039e+003, 3.639939e-001
1.914967e+003, 3.646373e-001
1.916896e+003, 3.643529e-001
1.918824e+003, 3.634654e-001
1.920753e+003, 3.636222e-001
1.922681e+003, 3.643009e-001
1.924610e+003, 3.652167e-001
1.926538e+003, 3.667659e-001
1.928467e+003, 3.666520e-001
1.930395e+003, 3.658607e-001
1.932324e+003, 3.653147e-001
1.934252e+003, 3.655149e-001
1.936181e+003, 3.663098e-001
1.938109e+003, 3.662233e-001
1.940037e+003, 3.671996e-001
1.941966e+003, 3.673754e-001
1.943894e+003, 3.657973e-001
1.945823e+003, 3.654963e-001
1.947751e+003, 3.658407e-001
1.949680e+003, 3.662584e-001
1.951608e+003, 3.672577e-001
1.953537e+003, 3.681526e-001
1.955465e+003, 3.677848e-001
1.957394e+003, 3.679764e-001
1.959322e+003, 3.684399e-001
1.961251e+003, 3.694749e-001
1.963179e+003, 3.691497e-001
1.965108e+003, 3.682980e-001
1.967036e+003, 3.687187e-001
1.968964e+003, 3.691904e-001
1.970893e+003, 3.671296e-001
1.972821e+003, 3.654144e-001
1.974750e+003, 3.667598e-001
1.976678e+003, 3.682774e-001
1.978607e+003, 3.704598e-001
1.980535e+003, 3.725002e-001
1.982464e+003, 3.738112e-001
1.984392e+003, 3.719685e-001
1.986321e+003, 3.704213e-001
1.988249e+003, 3.725116e-001
1.990178e+003, 3.739438e-001
1.992106e+003, 3.740481e-001
1.994035e+003, 3.735684e-001
1.995963e+003, 3.736966e-001
1.997891e+003, 3.743917e-001
1.999820e+003, 3.745759e-001
2.001748e+003, 3.752189e-001
2.003677e+003, 3.754545e-001
2.005605e+003, 3.745195e-001
2.007534e+003, 3.738129e-001
2.009462e+003, 3.723267e-001
2.011391e+003, 3.741251e-001
2.013319e+003, 3.751465e-001
2.015248e+003, 3.736603e-001
2.017176e+003, 3.731638e-001
2.019105e+003, 3.745643e-001
2.021033e+003, 3.744181e-001
2.022962e+003, 3.764740e-001
2.024890e+003, 3.783339e-001
2.026818e+003, 3.777373e-001
2.028747e+003, 3.764274e-001
2.030675e+003, 3.758509e-001
2.032604e+003, 3.771293e-001
2.034532e+003, 3.796079e-001
2.036461e+003, 3.805372e-001
2.038389e+003, 3.798612e-001
2.040318e+003, 3.796412e-001
2.042246e+003, 3.798294e-001
2.044175e+003, 3.808913e-001
2.046103e+003, 3.829603e-001
2.048032e+003, 3.849512e-001
2.049960e+003, 3.849648e-001
2.051889e+003, 3.849869e-001
2.053817e+003, 3.864763e-001
2.055746e+003, 3.863396e-001
2.057674e+003, 3.852397e-001
2.059603e+003, 3.859231e-001
2.061531e+003, 3.863335e-001
2.063459e+003, 3.868714e-001
2.065388e+003, 3.877867e-001
2.067316e+003, 3.889860e-001
2.069245e+003, 3.896906e-001
2.071173e+003, 3.896308e-001
2.073102e+003, 3.892135e-001
2.075030e+003, 3.888577e-001
2.076959e+003, 3.892174e-001
2.078887e+003, 3.905197e-001
2.080816e+003, 3.919394e-001
2.082744e+003, 3.935323e-001
2.084673e+003, 3.933791e-001
2.086601e+003, 3.927587e-001
2.088530e+003, 3.929008e-001
2.090458e+003, 3.921217e-001
2.092386e+003, 3.929585e-001
2.094315e+003, 3.947741e-001
2.096243e+003, 3.952328e-001
2.098172e+003, 3.959173e-001
2.100100e+003, 3.957295e-001
2.102029e+003, 3.951507e-001
2.103957e+003, 3.956094e-001
2.105886e+003, 3.965776e-001
2.107814e+003, 3.971296e-001
2.109743e+003, 3.969818e-001
2.111671e+003, 3.978184e-001
2.113600e+003, 3.984448e-001
2.115528e+003, 3.982709e-001
2.117457e+003, 3.978898e-001
2.119385e+003, 3.980899e-001
2.121313e+003, 3.990131e-001
2.123242e+003, 3.998867e-001
2.125170e+003, 3.997101e-001
2.127099e+003, 3.993485e-001
2.129027e+003, 3.987834e-001
2.130956e+003, 3.980758e-001
2.132884e+003, 3.978452e-001
2.134813e+003, 3.979274e-001
2.136741e+003, 3.978273e-001
2.138670e+003, 3.976060e-001
2.140598e+003, 3.983069e-001
2.142527e+003, 3.983799e-001
2.144455e+003, 3.982321e-001
2.146384e+003, 3.980030e-001
2.148312e+003, 3.984985e-001
2.150240e+003, 3.971531e-001
2.152169e+003, 3.948732e-001
2.154097e+003, 3.952916e-001
2.156026e+003, 3.937634e-001
2.157954e+003, 3.929354e-001
2.159883e+003, 3.964214e-001
2.161811e+003, 3.975170e-001
2.163740e+003, 4.010089e-001
2.165668e+003, 4.035576e-001
2.167597e+003, 4.024853e-001
2.169525e+003, 4.015403e-001
2.171454e+003, 4.027234e-001
2.173382e+003, 4.025003e-001
2.175311e+003, 4.024325e-001
2.177239e+003, 4.026398e-001
2.179167e+003, 4.013378e-001
2.181096e+003, 4.015003e-001
2.183024e+003, 4.015548e-001
2.184953e+003, 4.024474e-001
2.186881e+003, 4.057638e-001
2.188810e+003, 4.065197e-001
2.190738e+003, 4.056763e-001
2.192667e+003, 4.058748e-001
2.194595e+003, 4.073517e-001
2.196524e+003, 4.083212e-001
2.198452e+003, 4.092881e-001
2.200381e+003, 4.117564e-001
2.202309e+003, 4.122610e-001
2.204238e+003, 4.106309e-001
2.206166e+003, 4.107218e-001
2.208094e+003, 4.113914e-001
2.210023e+003, 4.103830e-001
2.211951e+003, 4.108637e-001
2.213880e+003, 4.126869e-001
2.215808e+003, 4.134012e-001
2.217737e+003, 4.150124e-001
2.219665e+003, 4.173865e-001
2.221594e+003, 4.175751e-001
2.223522e+003, 4.164629e-001
2.225451e+003, 4.149534e-001
2.227379e+003, 4.154592e-001
2.229308e+003, 4.168226e-001
2.231236e+003, 4.171841e-001
2.233165e+003, 4.186884e-001
2.235093e+003, 4.189271e-001
2.237021e+003, 4.187309e-001
2.238950e+003, 4.182394e-001
2.240878e+003, 4.177720e-001
2.242807e+003, 4.189859e-001
2.244735e+003, 4.196065e-001
2.246664e+003, 4.197986e-001
2.248592e+003, 4.199214e-001
2.250521e+003, 4.199113e-001
2.252449e+003, 4.208602e-001
2.254378e+003, 4.213820e-001
2.256306e+003, 4.213181e-001
2.258235e+003, 4.221137e-001
2.260163e+003, 4.234206e-001
2.262092e+003, 4.240577e-001
2.264020e+003, 4.238187e-001
2.265948e+003, 4.242824e-001
2.267877e+003, 4.263002e-001
2.269805e+003, 4.259076e-001
2.271734e+003, 4.243838e-001
2.273662e+003, 4.241378e-001
2.275591e+003, 4.254975e-001
2.277519e+003, 4.266027e-001
2.279448e+003, 4.275283e-001
2.281376e+003, 4.279945e-001
2.283305e+003, 4.270757e-001
2.285233e+003, 4.273112e-001
2.287162e+003, 4.285911e-001
2.289090e+003, 4.291537e-001
2.291019e+003, 4.297152e-001
2.292947e+003, 4.305364e-001
2.294875e+003, 4.311965e-001
2.296804e+003, 4.316069e-001
2.298732e+003, 4.312697e-001
2.300661e+003, 4.314123e-001
2.302589e+003, 4.325638e-001
2.304518e+003, 4.327262e-001
2.306446e+003, 4.324504e-001
2.308375e+003, 4.328795e-001
2.310303e+003, 4.334758e-001
2.312232e+003, 4.336042e-001
2.314160e+003, 4.334303e-001
2.316089e+003, 4.342693e-001
2.318017e+003, 4.348945e-001
2.319946e+003, 4.353124e-001
2.321874e+003, 4.363844e-001
2.323802e+003, 4.364249e-001
2.325731e+003, 4.351335e-001
2.327659e+003, 4.344255e-001
2.329588e+003, 4.350625e-001
2.331516e+003, 4.360358e-001
2.333445e+003, 4.363172e-001
2.335373e+003, 4.370423e-001
2.337302e+003, 4.375902e-001
2.339230e+003, 4.371832e-001
2.341159e+003, 4.372185e-001
2.343087e+003, 4.382244e-001
2.345016e+003, 4.388945e-001
2.346944e+003, 4.389997e-001
2.348873e+003, 4.391069e-001
2.350801e+003, 4.390370e-001
2.352729e+003, 4.395844e-001
2.354658e+003, 4.404945e-001
2.356586e+003, 4.410299e-001
2.358515e+003, 4.405797e-001
2.360443e+003, 4.404208e-001
2.362372e+003, 4.406655e-001
2.364300e+003, 4.410354e-001
2.366229e+003, 4.414197e-001
2.368157e+003, 4.413922e-001
2.370086e+003, 4.414900e-001
2.372014e+003, 4.427269e-001
2.373942e+003, 4.435652e-001
2.375871e+003, 4.438866e-001
2.377799e+003, 4.440454e-001
2.379728e+003, 4.440457e-001
2.381656e+003, 4.444654e-001
2.383585e+003, 4.451317e-001
2.385513e+003, 4.450277e-001
2.387442e+003, 4.448596e-001
2.389370e+003, 4.452378e-001
2.391299e+003, 4.457781e-001
2.393227e+003, 4.455501e-001
2.395156e+003, 4.454038e-001
2.397084e+003, 4.461733e-001
2.399012e+003, 4.475203e-001
2.400941e+003, 4.480444e-001
2.402869e+003, 4.482113e-001
2.404798e+003, 4.483956e-001
2.406726e+003, 4.488733e-001
2.408655e+003, 4.494865e-001
2.410583e+003, 4.497530e-001
2.412512e+003, 4.494520e-001
2.414440e+003, 4.494074e-001
2.416369e+003, 4.497483e-001
2.418297e+003, 4.499979e-001
2.420226e+003, 4.499497e-001
2.422154e+003, 4.505842e-001
2.424083e+003, 4.511543e-001
2.426011e+003, 4.513611e-001
2.427939e+003, 4.519342e-001
2.429868e+003, 4.535467e-001
2.431796e+003, 4.543446e-001
2.433725e+003, 4.543414e-001
2.435653e+003, 4.541700e-001
2.437582e+003, 4.539967e-001
2.439510e+003, 4.538431e-001
2.441439e+003, 4.541566e-001
2.443367e+003, 4.542876e-001
2.445296e+003, 4.553818e-001
2.447224e+003, 4.556207e-001
2.449153e+003, 4.557368e-001
2.451081e+003, 4.562387e-001
2.453010e+003, 4.560192e-001
2.454938e+003, 4.563659e-001
2.456866e+003, 4.573690e-001
2.458795e+003, 4.579988e-001
2.460723e+003, 4.583918e-001
2.462652e+003, 4.588311e-001
2.464580e+003, 4.590982e-001
2.466509e+003, 4.587152e-001
2.468437e+003, 4.588440e-001
2.470366e+003, 4.588215e-001
2.472294e+003, 4.591184e-001
2.474223e+003, 4.600311e-001
2.476151e+003, 4.598059e-001
2.478080e+003, 4.591133e-001
2.480008e+003, 4.599410e-001
2.481937e+003, 4.607323e-001
2.483865e+003, 4.608383e-001
2.485793e+003, 4.616548e-001
2.487722e+003, 4.623901e-001
2.489650e+003, 4.625390e-001
2.491579e+003, 4.627983e-001
2.493507e+003, 4.626530e-001
2.495436e+003, 4.628343e-001
2.497364e+003, 4.636579e-001
2.499293e+003, 4.640514e-001
2.501221e+003, 4.639424e-001
2.503150e+003, 4.642337e-001
2.505078e+003, 4.648391e-001
2.507007e+003, 4.653822e-001
2.508935e+003, 4.663405e-001
2.510864e+003, 4.657766e-001
2.512792e+003, 4.649037e-001
2.514720e+003, 4.660058e-001
2.516649e+003, 4.673533e-001
2.518577e+003, 4.675043e-001
2.520506e+003, 4.671637e-001
2.522434e+003, 4.675305e-001
2.524363e+003, 4.684844e-001
2.526291e+003, 4.687599e-001
2.528220e+003, 4.686101e-001
2.530148e+003, 4.680590e-001
2.532077e+003, 4.679515e-001
2.534005e+003, 4.689247e-001
2.535934e+003, 4.695847e-001
2.537862e+003, 4.706270e-001
2.539791e+003, 4.704339e-001
2.541719e+003, 4.705876e-001
2.543647e+003, 4.718612e-001
2.545576e+003, 4.721040e-001
2.547504e+003, 4.717331e-001
2.549433e+003, 4.721342e-001
2.551361e+003, 4.728539e-001
2.553290e+003, 4.734677e-001
2.555218e+003, 4.740365e-001
2.557147e+003, 4.739686e-001
2.559075e+003, 4.747765e-001
2.561004e+003, 4.754341e-001
2.562932e+003, 4.753971e-001
2.564861e+003, 4.754184e-001
2.566789e+003, 4.756692e-001
2.568718e+003, 4.760601e-001
2.570646e+003, 4.760903e-001
2.572574e+003, 4.760094e-001
2.574503e+003, 4.767475e-001
2.576431e+003, 4.772771e-001
2.578360e+003, 4.772653e-001
2.580288e+003, 4.777325e-001
2.582217e+003, 4.778468e-001
2.584145e+003, 4.779142e-001
2.586074e+003, 4.788971e-001
2.588002e+003, 4.798213e-001
2.589931e+003, 4.802863e-001
2.591859e+003, 4.807579e-001
2.593788e+003, 4.808973e-001
2.595716e+003, 4.804742e-001
2.597645e+003, 4.803476e-001
2.599573e+003, 4.810611e-001
2.601501e+003, 4.825824e-001
2.603430e+003, 4.826906e-001
2.605358e+003, 4.818927e-001
2.607287e+003, 4.822232e-001
2.609215e+003, 4.829164e-001
2.611144e+003, 4.840090e-001
2.613072e+003, 4.838959e-001
2.615001e+003, 4.833581e-001
2.616929e+003, 4.841887e-001
2.618858e+003, 4.850745e-001
2.620786e+003, 4.858112e-001
2.622715e+003, 4.851846e-001
2.624643e+003, 4.851938e-001
2.626572e+003, 4.862355e-001
2.628500e+003, 4.859495e-001
2.630428e+003, 4.858263e-001
2.632357e+003, 4.861701e-001
2.634285e+003, 4.862678e-001
2.636214e+003, 4.866652e-001
2.638142e+003, 4.874804e-001
2.640071e+003, 4.881887e-001
2.641999e+003, 4.885028e-001
2.643928e+003, 4.885568e-001
2.645856e+003, 4.895362e-001
2.647785e+003, 4.903481e-001
2.649713e+003, 4.898269e-001
2.651642e+003, 4.901277e-001
2.653570e+003, 4.910370e-001
2.655499e+003, 4.908907e-001
2.657427e+003, 4.911671e-001
2.659355e+003, 4.915694e-001
2.661284e+003, 4.914962e-001
2.663212e+003, 4.923091e-001
2.665141e+003, 4.928026e-001
2.667069e+003, 4.926015e-001
2.668998e+003, 4.923867e-001
2.670926e+003, 4.922793e-001
2.672855e+003, 4.929692e-001
2.674783e+003, 4.938229e-001
2.676712e+003, 4.939620e-001
2.678640e+003, 4.941211e-001
2.680569e+003, 4.946340e-001
2.682497e+003, 4.954623e-001
2.684426e+003, 4.956999e-001
2.686354e+003, 4.957974e-001
2.688282e+003, 4.959916e-001
2.690211e+003, 4.958055e-001
2.692139e+003, 4.964167e-001
2.694068e+003, 4.973365e-001
2.695996e+003, 4.976476e-001
2.697925e+003, 4.980381e-001
2.699853e+003, 4.984031e-001
2.701782e+003, 4.980430e-001
2.703710e+003, 4.979445e-001
2.705639e+003, 4.985314e-001
2.707567e+003, 4.994322e-001
2.709496e+003, 4.993631e-001
2.711424e+003, 4.989011e-001
2.713353e+003, 4.995056e-001
2.715281e+003, 5.005874e-001
2.717209e+003, 5.010874e-001
2.719138e+003, 5.015621e-001
2.721066e+003, 5.017790e-001
2.722995e+003, 5.018468e-001
2.724923e+003, 5.026143e-001
2.726852e+003, 5.029866e-001
2.728780e+003, 5.024884e-001
2.730709e+003, 5.030640e-001
2.732637e+003, 5.043261e-001
2.734566e+003, 5.046297e-001
2.736494e+003, 5.040422e-001
2.738423e+003, 5.039226e-001
2.740351e+003, 5.048545e-001
2.742280e+003, 5.056009e-001
2.744208e+003, 5.055464e-001
2.746136e+003, 5.058606e-001
2.748065e+003, 5.064240e-001
2.749993e+003, 5.068168e-001
2.751922e+003, 5.070230e-001
2.753850e+003, 5.074096e-001
2.755779e+003, 5.077451e-001
2.757707e+003, 5.080682e-001
2.759636e+003, 5.087674e-001
2.761564e+003, 5.093939e-001
2.763493e+003, 5.096169e-001
2.765421e+003, 5.102805e-001
2.767350e+003, 5.104849e-001
2.769278e+003, 5.096732e-001
2.771207e+003, 5.095367e-001
2.773135e+003, 5.100889e-001
2.775063e+003, 5.106395e-001
2.776992e+003, 5.114341e-001
2.778920e+003, 5.120390e-001
2.780849e+003, 5.125948e-001
2.782777e+003, 5.126814e-001
2.784706e+003, 5.131186e-001
2.786634e+003, 5.138258e-001
2.788563e+003, 5.143080e-001
2.790491e+003, 5.145149e-001
2.792420e+003, 5.145194e-001
2.794348e+003, 5.142640e-001
2.796277e+003, 5.146824e-001
2.798205e+003, 5.156752e-001
2.800134e+003, 5.161742e-001
2.802062e+003, 5.158143e-001
2.803990e+003, 5.158306e-001
2.805919e+003, 5.167210e-001
2.807847e+003, 5.166913e-001
2.809776e+003, 5.164663e-001
2.811704e+003, 5.172084e-001
2.813633e+003, 5.182859e-001
2.815561e+003, 5.186744e-001
2.817490e+003, 5.194504e-001
2.819418e+003, 5.198086e-001
2.821347e+003, 5.201278e-001
2.823275e+003, 5.206727e-001
2.825204e+003, 5.208314e-001
2.827132e+003, 5.209731e-001
2.829061e+003, 5.210952e-001
2.830989e+003, 5.215011e-001
2.832917e+003, 5.224110e-001
2.834846e+003, 5.230692e-001
2.836774e+003, 5.234678e-001
2.838703e+003, 5.240343e-001
2.840631e+003, 5.249462e-001
2.842560e+003, 5.252627e-001
2.844488e+003, 5.246381e-001
2.846417e+003, 5.244206e-001
2.848345e+003, 5.249850e-001
2.850274e+003, 5.257442e-001
2.852202e+003, 5.255908e-001
2.854131e+003, 5.255622e-001
2.856059e+003, 5.258327e-001
2.857988e+003, 5.256155e-001
2.859916e+003, 5.259849e-001
2.861844e+003, 5.263367e-001
2.863773e+003, 5.268568e-001
2.865701e+003, 5.275445e-001
2.867630e+003, 5.274827e-001
2.869558e+003, 5.273034e-001
2.871487e+003, 5.276070e-001
2.873415e+003, 5.280351e-001
2.875344e+003, 5.287089e-001
2.877272e+003, 5.290332e-001
2.879201e+003, 5.292804e-001
2.881129e+003, 5.294551e-001
2.883058e+003, 5.295660e-001
2.884986e+003, 5.303708e-001
2.886915e+003, 5.306309e-001
2.888843e+003, 5.306682e-001
2.890771e+003, 5.311928e-001
2.892700e+003, 5.317705e-001
2.894628e+003, 5.323416e-001
2.896557e+003, 5.335221e-001
2.898485e+003, 5.335246e-001
2.900414e+003, 5.333191e-001
2.902342e+003, 5.343978e-001
2.904271e+003, 5.347890e-001
2.906199e+003, 5.348686e-001
2.908128e+003, 5.360341e-001
2.910056e+003, 5.361998e-001
2.911985e+003, 5.363086e-001
2.913913e+003, 5.366956e-001
2.915842e+003, 5.367581e-001
2.917770e+003, 5.371017e-001
2.919698e+003, 5.377313e-001
2.921627e+003, 5.377668e-001
2.923555e+003, 5.373937e-001
2.925484e+003, 5.368236e-001
2.927412e+003, 5.370510e-001
2.929341e+003, 5.370972e-001
2.931269e+003, 5.363389e-001
2.933198e+003, 5.363460e-001
2.935126e+003, 5.367418e-001
2.937055e+003, 5.366182e-001
2.938983e+003, 5.366527e-001
2.940912e+003, 5.373007e-001
2.942840e+003, 5.389012e-001
2.944769e+003, 5.390182e-001
2.946697e+003, 5.379999e-001
2.948625e+003, 5.380663e-001
2.950554e+003, 5.390149e-001
2.952482e+003, 5.390856e-001
2.954411e+003, 5.380761e-001
2.956339e+003, 5.383472e-001
2.958268e+003, 5.394278e-001
2.960196e+003, 5.395175e-001
2.962125e+003, 5.397206e-001
2.964053e+003, 5.410005e-001
2.965982e+003, 5.418316e-001
2.967910e+003, 5.416899e-001
2.969839e+003, 5.410089e-001
2.971767e+003, 5.416527e-001
2.973696e+003, 5.418466e-001
2.975624e+003, 5.412330e-001
2.977552e+003, 5.417189e-001
2.979481e+003, 5.424944e-001
2.981409e+003, 5.428421e-001
2.983338e+003, 5.432365e-001
2.985266e+003, 5.440966e-001
2.987195e+003, 5.447670e-001
2.989123e+003, 5.447242e-001
2.991052e+003, 5.443426e-001
2.992980e+003, 5.447317e-001
2.994909e+003, 5.458775e-001
2.996837e+003, 5.461712e-001
2.998766e+003, 5.462503e-001
3.000694e+003, 5.468414e-001
3.002623e+003, 5.473845e-001
3.004551e+003, 5.473260e-001
3.006479e+003, 5.474514e-001
3.008408e+003, 5.483869e-001
3.010336e+003, 5.488344e-001
3.012265e+003, 5.492533e-001
3.014193e+003, 5.489520e-001
3.016122e+003, 5.488910e-001
3.018050e+003, 5.496345e-001
3.019979e+003, 5.503012e-001
3.021907e+003, 5.504501e-001
3.023836e+003, 5.509213e-001
3.025764e+003, 5.507065e-001
3.027693e+003, 5.501449e-001
3.029621e+003, 5.511408e-001
3.031550e+003, 5.526258e-001
3.033478e+003, 5.527146e-001
3.035406e+003, 5.529091e-001
3.037335e+003, 5.524567e-001
3.039263e+003, 5.517590e-001
3.041192e+003, 5.524811e-001
3.043120e+003, 5.532854e-001
3.045049e+003, 5.536746e-001
3.046977e+003, 5.542520e-001
3.048906e+003, 5.550058e-001
3.050834e+003, 5.554516e-001
3.052763e+003, 5.557428e-001
3.054691e+003, 5.556570e-001
3.056620e+003, 5.559658e-001
3.058548e+003, 5.568012e-001
3.060477e+003, 5.569696e-001
3.062405e+003, 5.577085e-001
3.064333e+003, 5.577395e-001
3.066262e+003, 5.578761e-001
3.068190e+003, 5.584493e-001
3.070119e+003, 5.583498e-001
3.072047e+003, 5.588138e-001
3.073976e+003, 5.601062e-001
3.075904e+003, 5.603390e-001
3.077833e+003, 5.599092e-001
3.079761e+003, 5.606276e-001
3.081690e+003, 5.614598e-001
3.083618e+003, 5.615023e-001
3.085547e+003, 5.612444e-001
3.087475e+003, 5.616675e-001
3.089404e+003, 5.629516e-001
3.091332e+003, 5.641355e-001
3.093260e+003, 5.635167e-001
3.095189e+003, 5.628940e-001
3.097117e+003, 5.635571e-001
3.099046e+003, 5.634822e-001
3.100974e+003, 5.641863e-001
3.102903e+003, 5.644179e-001
3.104831e+003, 5.646567e-001
3.106760e+003, 5.656337e-001
3.108688e+003, 5.648002e-001
3.110617e+003, 5.644410e-001
3.112545e+003, 5.654287e-001
3.114474e+003, 5.665459e-001
3.116402e+003, 5.665669e-001
3.118331e+003, 5.671001e-001
3.120259e+003, 5.678248e-001
3.122188e+003, 5.681504e-001
3.124116e+003, 5.683631e-001
3.126044e+003, 5.684735e-001
3.127973e+003, 5.686126e-001
3.129901e+003, 5.686145e-001
3.131830e+003, 5.694884e-001
3.133758e+003, 5.708933e-001
3.135687e+003, 5.712220e-001
3.137615e+003, 5.712276e-001
3.139544e+003, 5.722507e-001
3.141472e+003, 5.727745e-001
3.143401e+003, 5.720252e-001
3.145329e+003, 5.717630e-001
3.147258e+003, 5.719045e-001
3.149186e+003, 5.719094e-001
3.151115e+003, 5.715484e-001
3.153043e+003, 5.724545e-001
3.154971e+003, 5.738040e-001
3.156900e+003, 5.739145e-001
3.158828e+003, 5.733703e-001
3.160757e+003, 5.741530e-001
3.162685e+003, 5.759352e-001
3.164614e+003, 5.771320e-001
3.166542e+003, 5.770774e-001
3.168471e+003, 5.764282e-001
3.170399e+003, 5.771694e-001
3.172328e+003, 5.786793e-001
3.174256e+003, 5.785322e-001
3.176185e+003, 5.771415e-001
3.178113e+003, 5.766019e-001
3.180042e+003, 5.766326e-001
3.181970e+003, 5.776502e-001
3.183898e+003, 5.793524e-001
3.185827e+003, 5.798822e-001
3.187755e+003, 5.800100e-001
3.189684e+003, 5.809917e-001
3.191612e+003, 5.817916e-001
3.193541e+003, 5.823851e-001
3.195469e+003, 5.822700e-001
3.197398e+003, 5.823396e-001
3.199326e+003, 5.823845e-001
3.201255e+003, 5.816404e-001
3.203183e+003, 5.817634e-001
3.205112e+003, 5.838220e-001
3.207040e+003, 5.844322e-001
3.208969e+003, 5.838791e-001
3.210897e+003, 5.845528e-001
3.212825e+003, 5.858562e-001
3.214754e+003, 5.852401e-001
3.216682e+003, 5.840502e-001
3.218611e+003, 5.838624e-001
3.220539e+003, 5.854245e-001
3.222468e+003, 5.870022e-001
3.224396e+003, 5.871072e-001
3.226325e+003, 5.867345e-001
3.228253e+003, 5.868899e-001
3.230182e+003, 5.881231e-001
3.232110e+003, 5.897681e-001
3.234039e+003, 5.902245e-001
3.235967e+003, 5.898581e-001
3.237896e+003, 5.899879e-001
3.239824e+003, 5.905803e-001
3.241752e+003, 5.901595e-001
3.243681e+003, 5.889274e-001
3.245609e+003, 5.887895e-001
3.247538e+003, 5.895332e-001
3.249466e+003, 5.911579e-001
3.251395e+003, 5.920587e-001
3.253323e+003, 5.917424e-001
3.255252e+003, 5.923353e-001
3.257180e+003, 5.927292e-001
3.259109e+003, 5.919155e-001
3.261037e+003, 5.922823e-001
3.262966e+003, 5.937452e-001
3.264894e+003, 5.939440e-001
3.266823e+003, 5.944016e-001
3.268751e+003, 5.950556e-001
3.270679e+003, 5.950542e-001
3.272608e+003, 5.954841e-001
3.274536e+003, 5.951709e-001
3.276465e+003, 5.942469e-001
3.278393e+003, 5.954819e-001
3.280322e+003, 5.968096e-001
3.282250e+003, 5.970851e-001
3.284179e+003, 5.965885e-001
3.286107e+003, 5.967163e-001
3.288036e+003, 5.974374e-001
3.289964e+003, 5.986363e-001
3.291893e+003, 5.995134e-001
3.293821e+003, 5.993363e-001
3.295750e+003, 5.985891e-001
3.297678e+003, 5.985904e-001
3.299606e+003, 5.986426e-001
3.301535e+003, 5.991609e-001
3.303463e+003, 6.006941e-001
3.305392e+003, 6.011845e-001
3.307320e+003, 6.014181e-001
3.309249e+003, 6.014675e-001
3.311177e+003, 6.021840e-001
3.313106e+003, 6.023381e-001
3.315034e+003, 6.011715e-001
3.316963e+003, 6.011540e-001
3.318891e+003, 6.019303e-001
3.320820e+003, 6.026348e-001
3.322748e+003, 6.029668e-001
3.324677e+003, 6.027695e-001
3.326605e+003, 6.017693e-001
3.328533e+003, 6.014270e-001
3.330462e+003, 6.014984e-001
3.332390e+003, 6.035879e-001
3.334319e+003, 6.052115e-001
3.336247e+003, 6.049730e-001
3.338176e+003, 6.050366e-001
3.340104e+003, 6.057223e-001
3.342033e+003, 6.057900e-001
3.343961e+003, 6.062694e-001
3.345890e+003, 6.063102e-001
3.347818e+003, 6.064491e-001
3.349747e+003, 6.077238e-001
3.351675e+003, 6.088038e-001
3.353604e+003, 6.090615e-001
3.355532e+003, 6.082305e-001
3.357460e+003, 6.079684e-001
3.359389e+003, 6.076757e-001
3.361317e+003, 6.077673e-001
3.363246e+003, 6.076720e-001
3.365174e+003, 6.086320e-001
3.367103e+003, 6.105973e-001
3.369031e+003, 6.112635e-001
3.370960e+003, 6.109552e-001
3.372888e+003, 6.099633e-001
3.374817e+003, 6.110391e-001
3.376745e+003, 6.118621e-001
3.378674e+003, 6.122754e-001
3.380602e+003, 6.131356e-001
3.382531e+003, 6.131558e-001
3.384459e+003, 6.131510e-001
3.386387e+003, 6.133662e-001
3.388316e+003, 6.137063e-001
3.390244e+003, 6.138838e-001
3.392173e+003, 6.142910e-001
3.394101e+003, 6.130219e-001
3.396030e+003, 6.129581e-001
3.397958e+003, 6.140025e-001
3.399887e+003, 6.140397e-001
3.401815e+003, 6.139831e-001
3.403744e+003, 6.144661e-001
3.405672e+003, 6.149014e-001
3.407601e+003, 6.155397e-001
3.409529e+003, 6.165404e-001
3.411458e+003, 6.167162e-001
3.413386e+003, 6.177977e-001
3.415314e+003, 6.180783e-001
3.417243e+003, 6.169777e-001
3.419171e+003, 6.170046e-001
3.421100e+003, 6.184034e-001
3.423028e+003, 6.191368e-001
3.424957e+003, 6.196413e-001
3.426885e+003, 6.203055e-001
3.428814e+003, 6.203508e-001
3.430742e+003, 6.187951e-001
3.432671e+003, 6.202348e-001
3.434599e+003, 6.214901e-001
3.436528e+003, 6.200620e-001
3.438456e+003, 6.207185e-001
3.440385e+003, 6.208648e-001
3.442313e+003, 6.202905e-001
3.444241e+003, 6.213974e-001
3.446170e+003, 6.218236e-001
3.448098e+003, 6.213114e-001
3.450027e+003, 6.212634e-001
3.451955e+003, 6.216274e-001
3.453884e+003, 6.229039e-001
3.455812e+003, 6.235305e-001
3.457741e+003, 6.222866e-001
3.459669e+003, 6.227013e-001
3.461598e+003, 6.242663e-001
3.463526e+003, 6.243945e-001
3.465455e+003, 6.249927e-001
3.467383e+003, 6.251979e-001
3.469312e+003, 6.240357e-001
3.471240e+003, 6.229410e-001
3.473168e+003, 6.231843e-001
3.475097e+003, 6.253765e-001
3.477025e+003, 6.266583e-001
3.478954e+003, 6.271703e-001
3.480882e+003, 6.279750e-001
3.482811e+003, 6.280685e-001
3.484739e+003, 6.272884e-001
3.486668e+003, 6.263834e-001
3.488596e+003, 6.271404e-001
3.490525e+003, 6.285403e-001
3.492453e+003, 6.288710e-001
3.494382e+003, 6.278712e-001
3.496310e+003, 6.272396e-001
3.498239e+003, 6.278839e-001
3.500167e+003, 6.287159e-001
3.502095e+003, 6.289182e-001
3.504024e+003, 6.290231e-001
3.505952e+003, 6.301011e-001
3.507881e+003, 6.305829e-001
3.509809e+003, 6.304316e-001
3.511738e+003, 6.308048e-001
3.513666e+003, 6.307318e-001
3.515595e+003, 6.312460e-001
3.517523e+003, 6.307667e-001
3.519452e+003, 6.304458e-001
3.521380e+003, 6.314281e-001
3.523309e+003, 6.315417e-001
3.525237e+003, 6.332467e-001
3.527166e+003, 6.334474e-001
3.529094e+003, 6.323996e-001
3.531022e+003, 6.325862e-001
3.532951e+003, 6.323014e-001
3.534879e+003, 6.322891e-001
3.536808e+003, 6.335376e-001
3.538736e+003, 6.341883e-001
3.540665e+003, 6.346465e-001
3.542593e+003, 6.344578e-001
3.544522e+003, 6.343980e-001
3.546450e+003, 6.361648e-001
3.548379e+003, 6.368806e-001
3.550307e+003, 6.363449e-001
3.552236e+003, 6.351569e-001
3.554164e+003, 6.349327e-001
3.556093e+003, 6.354210e-001
3.558021e+003, 6.366746e-001
3.559949e+003, 6.387066e-001
3.561878e+003, 6.393595e-001
3.563806e+003, 6.386022e-001
3.565735e+003, 6.360306e-001
3.567663e+003, 6.369004e-001
3.569592e+003, 6.398769e-001
3.571520e+003, 6.413738e-001
3.573449e+003, 6.419123e-001
3.575377e+003, 6.410092e-001
3.577306e+003, 6.402520e-001
3.579234e+003, 6.408370e-001
3.581163e+003, 6.413345e-001
3.583091e+003, 6.418875e-001
3.585020e+003, 6.427221e-001
3.586948e+003, 6.412135e-001
3.588876e+003, 6.401539e-001
3.590805e+003, 6.419170e-001
3.592733e+003, 6.431347e-001
3.594662e+003, 6.437984e-001
3.596590e+003, 6.432810e-001
3.598519e+003, 6.425356e-001
3.600447e+003, 6.430871e-001
3.602376e+003, 6.441721e-001
3.604304e+003, 6.443167e-001
3.606233e+003, 6.441991e-001
3.608161e+003, 6.445953e-001
3.610090e+003, 6.453691e-001
3.612018e+003, 6.463646e-001
3.613947e+003, 6.461910e-001
3.615875e+003, 6.450480e-001
3.617803e+003, 6.446664e-001
3.619732e+003, 6.456150e-001
3.621660e+003, 6.469952e-001
3.623589e+003, 6.461281e-001
3.625517e+003, 6.467230e-001
3.627446e+003, 6.477112e-001
3.629374e+003, 6.499035e-001
3.631303e+003, 6.510924e-001
3.633231e+003, 6.494936e-001
3.635160e+003, 6.502237e-001
3.637088e+003, 6.512096e-001
3.639017e+003, 6.497646e-001
3.640945e+003, 6.497703e-001
3.642874e+003, 6.514069e-001
3.644802e+003, 6.518031e-001
3.646730e+003, 6.497640e-001
3.648659e+003, 6.507766e-001
3.650587e+003, 6.522923e-001
3.652516e+003, 6.514548e-001
3.654444e+003, 6.517100e-001
3.656373e+003, 6.531020e-001
3.658301e+003, 6.540978e-001
3.660230e+003, 6.547526e-001
3.662158e+003, 6.548965e-001
3.664087e+003, 6.557187e-001
3.666015e+003, 6.557053e-001
3.667944e+003, 6.547796e-001
3.669872e+003, 6.542825e-001
3.671801e+003, 6.540050e-001
3.673729e+003, 6.561294e-001
3.675657e+003, 6.573112e-001
3.677586e+003, 6.566005e-001
3.679514e+003, 6.554730e-001
3.681443e+003, 6.554265e-001
3.683371e+003, 6.561100e-001
3.685300e+003, 6.576323e-001
3.687228e+003, 6.587462e-001
3.689157e+003, 6.587786e-001
3.691085e+003, 6.580032e-001
3.693014e+003, 6.587527e-001
3.694942e+003, 6.597661e-001
3.696871e+003, 6.610230e-001
3.698799e+003, 6.614293e-001
3.700728e+003, 6.604676e-001
3.702656e+003, 6.597996e-001
3.704584e+003, 6.605684e-001
3.706513e+003, 6.613490e-001
3.708441e+003, 6.603749e-001
3.710370e+003, 6.617287e-001
3.712298e+003, 6.636059e-001
3.714227e+003, 6.637062e-001
3.716155e+003, 6.647413e-001
3.718084e+003, 6.649822e-001
3.720012e+003, 6.651899e-001
3.721941e+003, 6.653501e-001
3.723869e+003, 6.652202e-001
3.725798e+003, 6.644041e-001
3.727726e+003, 6.633825e-001
3.729655e+003, 6.640232e-001
3.731583e+003, 6.650934e-001
3.733511e+003, 6.647620e-001
3.735440e+003, 6.662601e-001
3.737368e+003, 6.683328e-001
3.739297e+003, 6.671326e-001
3.741225e+003, 6.652864e-001
3.743154e+003, 6.657997e-001
3.745082e+003, 6.663854e-001
3.747011e+003, 6.670999e-001
3.748939e+003, 6.677977e-001
3.750868e+003, 6.671395e-001
3.752796e+003, 6.688606e-001
3.754725e+003, 6.685130e-001
3.756653e+003, 6.690265e-001
3.758582e+003, 6.702907e-001
3.760510e+003, 6.696625e-001
3.762438e+003, 6.699984e-001
3.764367e+003, 6.705086e-001
3.766295e+003, 6.721143e-001
3.768224e+003, 6.729180e-001
3.770152e+003, 6.724228e-001
3.772081e+003, 6.709118e-001
3.774009e+003, 6.710913e-001
3.775938e+003, 6.714482e-001
3.777866e+003, 6.725722e-001
3.779795e+003, 6.726243e-001
3.781723e+003, 6.733567e-001
3.783652e+003, 6.742749e-001
3.785580e+003, 6.743455e-001
3.787509e+003, 6.747180e-001
3.789437e+003, 6.743503e-001
3.791365e+003, 6.741153e-001
3.793294e+003, 6.748122e-001
3.795222e+003, 6.754240e-001
3.797151e+003, 6.766288e-001
3.799079e+003, 6.767912e-001
3.801008e+003, 6.769547e-001
3.802936e+003, 6.782123e-001
3.804865e+003, 6.792550e-001
3.806793e+003, 6.791250e-001
3.808722e+003, 6.792012e-001
3.810650e+003, 6.803023e-001
3.812579e+003, 6.800040e-001
3.814507e+003, 6.794336e-001
3.816436e+003, 6.799617e-001
3.818364e+003, 6.801862e-001
3.820292e+003, 6.801147e-001
3.822221e+003, 6.800272e-001
3.824149e+003, 6.797193e-001
3.826078e+003, 6.789784e-001
3.828006e+003, 6.791880e-001
3.829935e+003, 6.794221e-001
3.831863e+003, 6.801009e-001
3.833792e+003, 6.817381e-001
3.835720e+003, 6.818808e-001
3.837649e+003, 6.818816e-001
3.839577e+003, 6.829882e-001
3.841506e+003, 6.840427e-001
3.843434e+003, 6.846152e-001
3.845363e+003, 6.841128e-001
3.847291e+003, 6.841050e-001
3.849219e+003, 6.842978e-001
3.851148e+003, 6.840224e-001
3.853076e+003, 6.846400e-001
3.855005e+003, 6.858752e-001
3.856933e+003, 6.858113e-001
3.858862e+003, 6.858628e-001
3.860790e+003, 6.848179e-001
3.862719e+003, 6.841010e-001
3.864647e+003, 6.862034e-001
3.866576e+003, 6.872999e-001
3.868504e+003, 6.876825e-001
3.870433e+003, 6.875709e-001
3.872361e+003, 6.861711e-001
3.874290e+003, 6.845242e-001
3.876218e+003, 6.867822e-001
3.878146e+003, 6.892305e-001
3.880075e+003, 6.883641e-001
3.882003e+003, 6.876633e-001
3.883932e+003, 6.886371e-001
3.885860e+003, 6.898521e-001
3.887789e+003, 6.896679e-001
3.889717e+003, 6.902510e-001
3.891646e+003, 6.913058e-001
3.893574e+003, 6.900863e-001
3.895503e+003, 6.899659e-001
3.897431e+003, 6.910703e-001
3.899360e+003, 6.911135e-001
3.901288e+003, 6.921055e-001
3.903217e+003, 6.935061e-001
3.905145e+003, 6.938099e-001
3.907073e+003, 6.948059e-001
3.909002e+003, 6.947731e-001
3.910930e+003, 6.937883e-001
3.912859e+003, 6.937391e-001
3.914787e+003, 6.948002e-001
3.916716e+003, 6.959339e-001
3.918644e+003, 6.963841e-001
3.920573e+003, 6.955519e-001
3.922501e+003, 6.949561e-001
3.924430e+003, 6.961031e-001
3.926358e+003, 6.958815e-001
3.928287e+003, 6.957629e-001
3.930215e+003, 6.965803e-001
3.932144e+003, 6.981142e-001
3.934072e+003, 6.987976e-001
3.936000e+003, 6.989351e-001
3.937929e+003, 6.980418e-001
3.939857e+003, 6.990705e-001
3.941786e+003, 6.995714e-001
3.943714e+003, 6.996267e-001
3.945643e+003, 6.997880e-001
3.947571e+003, 6.985297e-001
3.949500e+003, 6.987570e-001
3.951428e+003, 7.013754e-001
3.953357e+003, 7.040202e-001
3.955285e+003, 7.044680e-001
3.957214e+003, 7.028583e-001
3.959142e+003, 7.018836e-001
3.961071e+003, 7.039022e-001
3.962999e+003, 7.041572e-001
3.964927e+003, 7.016993e-001
3.966856e+003, 7.025695e-001
3.968784e+003, 7.056994e-001
3.970713e+003, 7.048244e-001
3.972641e+003, 7.033993e-001
3.974570e+003, 7.038115e-001
3.976498e+003, 7.035365e-001
3.978427e+003, 7.023942e-001
3.980355e+003, 7.028015e-001
3.982284e+003, 7.044406e-001
3.984212e+003, 7.060897e-001
3.986141e+003, 7.067862e-001
3.988069e+003, 7.070096e-001
3.989998e+003, 7.074617e-001
3.991926e+003, 7.086244e-001
3.993854e+003, 7.092732e-001
3.995783e+003, 7.101017e-001
3.997711e+003, 7.108815e-001
3.999640e+003, 7.112245e-001
##END=



