##NAMES=Sulphohalite
##RRUFFID=R050479
##IDEAL CHEMISTRY=Na_6_(S^6+^O_4_)_2_ClF
##LOCALITY=Searles Lake, Trona, San Bernardino County, California, USA
##OWNER=RRUFF
##SOURCE=California Institute of Technology
##DESCRIPTION=A pair of colorless octahedra
##STATUS=The identification of this mineral has been confirmed by X-ray diffraction and chemical analysis
##URL=rruff.info/R050479
##MEASURED CHEMISTRY=Na_6.00_(S_1.00_O_4_)_2_F_1.00_Cl_1.00_
3.741225e+002, 1.211505e-002
3.760510e+002, 8.173996e-003
3.779795e+002, 5.965528e-003
3.799079e+002, 5.929212e-004
3.818364e+002, 1.908032e-003
3.837649e+002, 1.072081e-002
3.856933e+002, 1.451207e-002
3.876218e+002, 1.013338e-002
3.895503e+002, 1.319685e-002
3.914787e+002, 1.494260e-002
3.934072e+002, 1.041707e-002
3.953357e+002, 5.666777e-003
3.972641e+002, 5.280614e-003
3.991926e+002, 4.543156e-003
4.011211e+002, 4.462480e-003
4.030495e+002, 8.780266e-003
4.049780e+002, 1.035463e-002
4.069065e+002, 9.202638e-003
4.088349e+002, 7.437000e-003
4.107634e+002, 5.310158e-003
4.126919e+002, 7.786813e-003
4.146203e+002, 8.760570e-003
4.165488e+002, 6.363265e-003
4.184773e+002, 5.397651e-003
4.204057e+002, 5.994925e-003
4.223342e+002, 5.417878e-003
4.242627e+002, 5.477949e-003
4.261911e+002, 6.841105e-003
4.281196e+002, 7.595779e-003
4.300481e+002, 6.802529e-003
4.319765e+002, 5.272985e-003
4.339050e+002, 4.543415e-003
4.358335e+002, 4.552737e-003
4.377619e+002, 5.195765e-003
4.396904e+002, 5.890102e-003
4.416189e+002, 6.456955e-003
4.435473e+002, 6.749062e-003
4.454758e+002, 8.681656e-003
4.474043e+002, 9.783771e-003
4.493327e+002, 8.513155e-003
4.512612e+002, 6.852609e-003
4.531897e+002, 6.023956e-003
4.551181e+002, 6.159596e-003
4.570466e+002, 6.472182e-003
4.589751e+002, 6.573553e-003
4.609035e+002, 5.847568e-003
4.628320e+002, 5.168350e-003
4.647605e+002, 5.795477e-003
4.666889e+002, 6.335674e-003
4.686174e+002, 6.553643e-003
4.705459e+002, 6.759109e-003
4.724743e+002, 6.304233e-003
4.744028e+002, 5.844746e-003
4.763313e+002, 5.518279e-003
4.782597e+002, 4.934672e-003
4.801882e+002, 4.416581e-003
4.821167e+002, 4.506858e-003
4.840451e+002, 4.605345e-003
4.859736e+002, 5.161928e-003
4.879021e+002, 5.820001e-003
4.898305e+002, 5.925113e-003
4.917590e+002, 5.875287e-003
4.936875e+002, 5.433249e-003
4.956159e+002, 5.608761e-003
4.975444e+002, 6.269786e-003
4.994729e+002, 6.640943e-003
5.014013e+002, 6.592629e-003
5.033298e+002, 6.326071e-003
5.052583e+002, 6.472609e-003
5.071867e+002, 6.862145e-003
5.091152e+002, 6.953107e-003
5.110437e+002, 6.868165e-003
5.129721e+002, 7.031917e-003
5.149006e+002, 7.522025e-003
5.168290e+002, 7.795589e-003
5.187575e+002, 6.956288e-003
5.206860e+002, 6.956669e-003
5.226144e+002, 7.216200e-003
5.245429e+002, 7.310926e-003
5.264714e+002, 7.680201e-003
5.283998e+002, 7.754562e-003
5.303283e+002, 7.798459e-003
5.322568e+002, 8.452272e-003
5.341852e+002, 8.989200e-003
5.361137e+002, 8.894422e-003
5.380422e+002, 8.646812e-003
5.399706e+002, 8.528230e-003
5.418991e+002, 8.610626e-003
5.438276e+002, 9.078043e-003
5.457560e+002, 9.259525e-003
5.476845e+002, 9.146180e-003
5.496130e+002, 9.360320e-003
5.515414e+002, 9.517740e-003
5.534699e+002, 1.012554e-002
5.553984e+002, 1.045873e-002
5.573268e+002, 1.049611e-002
5.592553e+002, 1.079872e-002
5.611838e+002, 1.137736e-002
5.631122e+002, 1.161630e-002
5.650407e+002, 1.170387e-002
5.669692e+002, 1.234281e-002
5.688976e+002, 1.288793e-002
5.708261e+002, 1.293814e-002
5.727546e+002, 1.311026e-002
5.746830e+002, 1.376776e-002
5.766115e+002, 1.484150e-002
5.785400e+002, 1.585955e-002
5.804684e+002, 1.665762e-002
5.823969e+002, 1.723313e-002
5.843254e+002, 1.834881e-002
5.862538e+002, 1.955411e-002
5.881823e+002, 2.068218e-002
5.901108e+002, 2.224534e-002
5.920392e+002, 2.379552e-002
5.939677e+002, 2.549104e-002
5.958962e+002, 2.770251e-002
5.978246e+002, 3.040453e-002
5.997531e+002, 3.413153e-002
6.016816e+002, 3.881867e-002
6.036100e+002, 4.517408e-002
6.055385e+002, 5.408815e-002
6.074670e+002, 6.736025e-002
6.093954e+002, 8.893744e-002
6.113239e+002, 1.233530e-001
6.132524e+002, 1.727032e-001
6.151808e+002, 2.345031e-001
6.171093e+002, 2.927842e-001
6.190378e+002, 3.286065e-001
6.209662e+002, 3.471341e-001
6.228947e+002, 3.520614e-001
6.248232e+002, 3.282977e-001
6.267516e+002, 2.667058e-001
6.286801e+002, 1.945326e-001
6.306086e+002, 1.369354e-001
6.325370e+002, 9.468969e-002
6.344655e+002, 6.281105e-002
6.363940e+002, 4.051971e-002
6.383224e+002, 2.705972e-002
6.402509e+002, 1.930653e-002
6.421794e+002, 1.482713e-002
6.441078e+002, 1.215744e-002
6.460363e+002, 1.073803e-002
6.479648e+002, 9.792489e-003
6.498932e+002, 9.078635e-003
6.518217e+002, 8.867228e-003
6.537502e+002, 8.740692e-003
6.556786e+002, 8.571176e-003
6.576071e+002, 8.305920e-003
6.595356e+002, 8.020221e-003
6.614641e+002, 7.694480e-003
6.633925e+002, 7.219709e-003
6.653210e+002, 6.895536e-003
6.672495e+002, 6.724777e-003
6.691779e+002, 6.451301e-003
6.711064e+002, 6.532081e-003
6.730349e+002, 6.793149e-003
6.749633e+002, 6.799704e-003
6.768918e+002, 6.818971e-003
6.788203e+002, 6.757287e-003
6.807487e+002, 6.734667e-003
6.826772e+002, 6.510980e-003
6.846057e+002, 6.233834e-003
6.865341e+002, 6.012294e-003
6.884626e+002, 5.677151e-003
6.903911e+002, 5.375243e-003
6.923195e+002, 5.258125e-003
6.942480e+002, 4.947421e-003
6.961765e+002, 4.507559e-003
6.981049e+002, 4.325448e-003
7.000334e+002, 4.222577e-003
7.019619e+002, 4.041094e-003
7.038903e+002, 4.010957e-003
7.058188e+002, 4.096999e-003
7.077473e+002, 4.245140e-003
7.096757e+002, 4.355593e-003
7.116042e+002, 4.220441e-003
7.135327e+002, 4.138253e-003
7.154611e+002, 4.213782e-003
7.173896e+002, 4.310711e-003
7.193181e+002, 4.348956e-003
7.212465e+002, 4.391950e-003
7.231750e+002, 4.349119e-003
7.251035e+002, 4.301429e-003
7.270319e+002, 4.339904e-003
7.289604e+002, 4.439069e-003
7.308889e+002, 4.174715e-003
7.328173e+002, 4.119014e-003
7.347458e+002, 4.567192e-003
7.366743e+002, 4.682845e-003
7.386027e+002, 4.687828e-003
7.405312e+002, 4.648783e-003
7.424597e+002, 4.820741e-003
7.443881e+002, 5.015326e-003
7.463166e+002, 5.135051e-003
7.482451e+002, 5.252515e-003
7.501735e+002, 5.339470e-003
7.521020e+002, 5.527476e-003
7.540305e+002, 5.503230e-003
7.559589e+002, 5.450191e-003
7.578874e+002, 5.427714e-003
7.598159e+002, 5.448819e-003
7.617443e+002, 5.560119e-003
7.636728e+002, 5.648133e-003
7.656013e+002, 5.806796e-003
7.675297e+002, 5.884264e-003
7.694582e+002, 5.863006e-003
7.713867e+002, 5.797074e-003
7.733151e+002, 5.750699e-003
7.752436e+002, 5.746095e-003
7.771721e+002, 5.667624e-003
7.791005e+002, 5.639975e-003
7.810290e+002, 5.730780e-003
7.829575e+002, 5.720736e-003
7.848859e+002, 5.652082e-003
7.868144e+002, 5.769412e-003
7.887429e+002, 5.960404e-003
7.906713e+002, 5.899383e-003
7.925998e+002, 5.864589e-003
7.945283e+002, 5.965738e-003
7.964567e+002, 6.090992e-003
7.983852e+002, 6.114221e-003
8.003137e+002, 6.180839e-003
8.022421e+002, 6.203067e-003
8.041706e+002, 6.054973e-003
8.060991e+002, 6.012264e-003
8.080275e+002, 6.008045e-003
8.099560e+002, 6.109893e-003
8.118845e+002, 6.160574e-003
8.138129e+002, 6.027417e-003
8.157414e+002, 6.129005e-003
8.176699e+002, 6.289180e-003
8.195983e+002, 6.301332e-003
8.215268e+002, 6.245430e-003
8.234553e+002, 6.532581e-003
8.253837e+002, 6.682154e-003
8.273122e+002, 6.465425e-003
8.292407e+002, 6.613989e-003
8.311691e+002, 6.848342e-003
8.330976e+002, 6.917068e-003
8.350261e+002, 7.131732e-003
8.369545e+002, 7.203838e-003
8.388830e+002, 7.305474e-003
8.408115e+002, 7.641266e-003
8.427399e+002, 8.125119e-003
8.446684e+002, 8.871295e-003
8.465969e+002, 1.024223e-002
8.485253e+002, 1.237837e-002
8.504538e+002, 1.390892e-002
8.523823e+002, 1.294815e-002
8.543107e+002, 1.065683e-002
8.562392e+002, 8.843892e-003
8.581677e+002, 7.787820e-003
8.600961e+002, 7.322976e-003
8.620246e+002, 7.071399e-003
8.639531e+002, 6.984984e-003
8.658815e+002, 7.176489e-003
8.678100e+002, 7.295094e-003
8.697385e+002, 7.421589e-003
8.716669e+002, 7.678503e-003
8.735954e+002, 7.738146e-003
8.755239e+002, 7.864555e-003
8.774523e+002, 8.113015e-003
8.793808e+002, 8.363704e-003
8.813093e+002, 8.564908e-003
8.832377e+002, 8.204416e-003
8.851662e+002, 7.856503e-003
8.870947e+002, 7.584319e-003
8.890231e+002, 7.587650e-003
8.909516e+002, 7.730578e-003
8.928801e+002, 7.803695e-003
8.948085e+002, 7.788816e-003
8.967370e+002, 7.809544e-003
8.986655e+002, 7.906123e-003
9.005939e+002, 7.996025e-003
9.025224e+002, 8.234342e-003
9.044509e+002, 8.478933e-003
9.063793e+002, 8.580029e-003
9.083078e+002, 8.659930e-003
9.102363e+002, 8.710226e-003
9.121647e+002, 8.944277e-003
9.140932e+002, 9.066980e-003
9.160217e+002, 9.125018e-003
9.179501e+002, 9.234304e-003
9.198786e+002, 9.393257e-003
9.218071e+002, 9.722328e-003
9.237355e+002, 9.946587e-003
9.256640e+002, 9.941603e-003
9.275925e+002, 9.913237e-003
9.295209e+002, 1.002625e-002
9.314494e+002, 1.026171e-002
9.333779e+002, 1.025311e-002
9.353063e+002, 1.016662e-002
9.372348e+002, 1.022847e-002
9.391633e+002, 1.033546e-002
9.410917e+002, 1.051288e-002
9.430202e+002, 1.085265e-002
9.449487e+002, 1.101482e-002
9.468771e+002, 1.115172e-002
9.488056e+002, 1.132961e-002
9.507341e+002, 1.152688e-002
9.526625e+002, 1.175536e-002
9.545910e+002, 1.214107e-002
9.565195e+002, 1.237282e-002
9.584479e+002, 1.250132e-002
9.603764e+002, 1.278718e-002
9.623049e+002, 1.318280e-002
9.642333e+002, 1.362003e-002
9.661618e+002, 1.402849e-002
9.680903e+002, 1.439998e-002
9.700187e+002, 1.480401e-002
9.719472e+002, 1.530717e-002
9.738757e+002, 1.593445e-002
9.758041e+002, 1.635806e-002
9.777326e+002, 1.706512e-002
9.796611e+002, 1.806814e-002
9.815895e+002, 1.924103e-002
9.835180e+002, 2.071825e-002
9.854465e+002, 2.293418e-002
9.873749e+002, 2.648454e-002
9.893034e+002, 3.179504e-002
9.912319e+002, 3.478519e-002
9.931603e+002, 3.181164e-002
9.950888e+002, 2.757613e-002
9.970173e+002, 2.562289e-002
9.989457e+002, 2.524957e-002
1.000874e+003, 2.559119e-002
1.002803e+003, 2.583434e-002
1.004731e+003, 2.614306e-002
1.006660e+003, 2.645088e-002
1.008588e+003, 2.675263e-002
1.010517e+003, 2.736474e-002
1.012445e+003, 2.794861e-002
1.014373e+003, 2.846437e-002
1.016302e+003, 2.917580e-002
1.018230e+003, 3.006025e-002
1.020159e+003, 3.074328e-002
1.022087e+003, 3.146207e-002
1.024016e+003, 3.218042e-002
1.025944e+003, 3.281292e-002
1.027873e+003, 3.383532e-002
1.029801e+003, 3.484622e-002
1.031730e+003, 3.587423e-002
1.033658e+003, 3.710564e-002
1.035587e+003, 3.830127e-002
1.037515e+003, 3.983372e-002
1.039443e+003, 4.180719e-002
1.041372e+003, 4.376936e-002
1.043300e+003, 4.590753e-002
1.045229e+003, 4.821410e-002
1.047157e+003, 5.051694e-002
1.049086e+003, 5.339663e-002
1.051014e+003, 5.716275e-002
1.052943e+003, 6.144378e-002
1.054871e+003, 6.621659e-002
1.056800e+003, 7.081807e-002
1.058728e+003, 7.544795e-002
1.060657e+003, 8.046993e-002
1.062585e+003, 8.611199e-002
1.064514e+003, 9.234659e-002
1.066442e+003, 9.957013e-002
1.068370e+003, 1.077433e-001
1.070299e+003, 1.168822e-001
1.072227e+003, 1.273821e-001
1.074156e+003, 1.391068e-001
1.076084e+003, 1.517649e-001
1.078013e+003, 1.657041e-001
1.079941e+003, 1.819372e-001
1.081870e+003, 2.009918e-001
1.083798e+003, 2.229527e-001
1.085727e+003, 2.474945e-001
1.087655e+003, 2.742998e-001
1.089584e+003, 3.027840e-001
1.091512e+003, 3.316229e-001
1.093441e+003, 3.601610e-001
1.095369e+003, 3.888510e-001
1.097297e+003, 4.166815e-001
1.099226e+003, 4.417999e-001
1.101154e+003, 4.623418e-001
1.103083e+003, 4.785554e-001
1.105011e+003, 4.927649e-001
1.106940e+003, 5.059832e-001
1.108868e+003, 5.186095e-001
1.110797e+003, 5.302273e-001
1.112725e+003, 5.402900e-001
1.114654e+003, 5.495139e-001
1.116582e+003, 5.597222e-001
1.118511e+003, 5.710592e-001
1.120439e+003, 5.822648e-001
1.122368e+003, 5.936616e-001
1.124296e+003, 6.052359e-001
1.126224e+003, 6.157402e-001
1.128153e+003, 6.226928e-001
1.130081e+003, 6.231589e-001
1.132010e+003, 6.117312e-001
1.133938e+003, 5.854228e-001
1.135867e+003, 5.466734e-001
1.137795e+003, 5.035364e-001
1.139724e+003, 4.613269e-001
1.141652e+003, 4.203732e-001
1.143581e+003, 3.808585e-001
1.145509e+003, 3.444462e-001
1.147438e+003, 3.122355e-001
1.149366e+003, 2.839464e-001
1.151295e+003, 2.586826e-001
1.153223e+003, 2.358107e-001
1.155151e+003, 2.151172e-001
1.157080e+003, 1.963549e-001
1.159008e+003, 1.792433e-001
1.160937e+003, 1.637677e-001
1.162865e+003, 1.495787e-001
1.164794e+003, 1.366025e-001
1.166722e+003, 1.247655e-001
1.168651e+003, 1.137721e-001
1.170579e+003, 1.034192e-001
1.172508e+003, 9.322225e-002
1.174436e+003, 8.281950e-002
1.176365e+003, 7.254131e-002
1.178293e+003, 6.245559e-002
1.180222e+003, 5.277680e-002
1.182150e+003, 4.474270e-002
1.184078e+003, 3.907814e-002
1.186007e+003, 3.532879e-002
1.187935e+003, 3.313398e-002
1.189864e+003, 3.193615e-002
1.191792e+003, 3.153108e-002
1.193721e+003, 3.193816e-002
1.195649e+003, 3.254614e-002
1.197578e+003, 3.322224e-002
1.199506e+003, 3.382378e-002
1.201435e+003, 3.389120e-002
1.203363e+003, 3.318412e-002
1.205292e+003, 3.167182e-002
1.207220e+003, 2.914658e-002
1.209149e+003, 2.589960e-002
1.211077e+003, 2.260272e-002
1.213005e+003, 1.957186e-002
1.214934e+003, 1.668862e-002
1.216862e+003, 1.414799e-002
1.218791e+003, 1.216736e-002
1.220719e+003, 1.064632e-002
1.222648e+003, 9.332771e-003
1.224576e+003, 8.166662e-003
1.226505e+003, 7.247643e-003
1.228433e+003, 6.632864e-003
1.230362e+003, 6.189507e-003
1.232290e+003, 5.799387e-003
1.234219e+003, 5.374814e-003
1.236147e+003, 5.193724e-003
1.238076e+003, 5.114187e-003
1.240004e+003, 4.739769e-003
1.241932e+003, 4.499732e-003
1.243861e+003, 4.365810e-003
1.245789e+003, 4.273091e-003
1.247718e+003, 4.206955e-003
1.249646e+003, 4.095420e-003
1.251575e+003, 4.179965e-003
1.253503e+003, 4.410665e-003
1.255432e+003, 4.468028e-003
1.257360e+003, 4.382322e-003
1.259289e+003, 4.323683e-003
1.261217e+003, 4.058313e-003
1.263146e+003, 3.597283e-003
1.265074e+003, 3.346851e-003
1.267003e+003, 3.372988e-003
1.268931e+003, 3.266410e-003
1.270859e+003, 3.074059e-003
1.272788e+003, 2.887412e-003
1.274716e+003, 2.636292e-003
1.276645e+003, 2.315445e-003
1.278573e+003, 2.145911e-003
1.280502e+003, 2.089862e-003
1.282430e+003, 2.024514e-003
1.284359e+003, 1.834069e-003
1.286287e+003, 1.752634e-003
1.288216e+003, 1.633544e-003
1.290144e+003, 1.414510e-003
1.292073e+003, 1.305258e-003
1.294001e+003, 1.310386e-003
1.295930e+003, 1.256692e-003
1.297858e+003, 1.180902e-003
1.299786e+003, 1.176572e-003
1.301715e+003, 1.262821e-003
1.303643e+003, 1.292615e-003
1.305572e+003, 1.303069e-003
1.307500e+003, 1.338256e-003
1.309429e+003, 1.525176e-003
1.311357e+003, 1.614563e-003
1.313286e+003, 1.467017e-003
1.315214e+003, 1.288976e-003
1.317143e+003, 1.409066e-003
1.319071e+003, 1.410735e-003
1.321000e+003, 1.386647e-003
1.322928e+003, 1.445532e-003
1.324857e+003, 1.526772e-003
1.326785e+003, 1.646872e-003
1.328714e+003, 1.640171e-003
1.330642e+003, 1.574641e-003
1.332570e+003, 1.651618e-003
1.334499e+003, 1.772462e-003
1.336427e+003, 1.807893e-003
1.338356e+003, 1.951754e-003
1.340284e+003, 2.062452e-003
1.342213e+003, 1.931632e-003
1.344141e+003, 1.901878e-003
1.346070e+003, 1.959378e-003
1.347998e+003, 1.984728e-003
1.349927e+003, 1.984201e-003
1.351855e+003, 2.133663e-003
1.353784e+003, 2.225041e-003
1.355712e+003, 2.246518e-003
1.357641e+003, 2.428875e-003
1.359569e+003, 2.505247e-003
1.361497e+003, 2.419513e-003
1.363426e+003, 2.337033e-003
1.365354e+003, 2.066936e-003
1.367283e+003, 1.924714e-003
1.369211e+003, 1.979272e-003
1.371140e+003, 2.003484e-003
1.373068e+003, 2.001509e-003
1.374997e+003, 2.007154e-003
1.376925e+003, 2.054191e-003
1.378854e+003, 2.192645e-003
1.380782e+003, 2.100300e-003
1.382711e+003, 2.050042e-003
1.384639e+003, 2.150689e-003
1.386568e+003, 2.413416e-003
1.388496e+003, 2.417650e-003
1.390424e+003, 2.360925e-003
1.392353e+003, 2.518726e-003
1.394281e+003, 2.664002e-003
1.396210e+003, 2.741200e-003
1.398138e+003, 2.950710e-003
1.400067e+003, 3.061540e-003
1.401995e+003, 3.101474e-003
1.403924e+003, 3.365615e-003
1.405852e+003, 3.747271e-003
1.407781e+003, 4.077740e-003
1.409709e+003, 4.451854e-003
1.411638e+003, 4.768319e-003
1.413566e+003, 4.937138e-003
1.415495e+003, 5.147967e-003
1.417423e+003, 5.641654e-003
1.419351e+003, 5.980560e-003
1.421280e+003, 6.060874e-003
1.423208e+003, 6.197024e-003
1.425137e+003, 6.232084e-003
1.427065e+003, 6.215108e-003
1.428994e+003, 6.434118e-003
1.430922e+003, 6.497656e-003
1.432851e+003, 6.334158e-003
1.434779e+003, 6.437783e-003
1.436708e+003, 6.631064e-003
1.438636e+003, 6.612938e-003
1.440565e+003, 6.499479e-003
1.442493e+003, 6.384171e-003
1.444422e+003, 6.371674e-003
1.446350e+003, 6.467475e-003
1.448278e+003, 6.583936e-003
1.450207e+003, 6.658403e-003
1.452135e+003, 6.597240e-003
1.454064e+003, 6.667347e-003
1.455992e+003, 7.192130e-003
1.457921e+003, 7.350549e-003
1.459849e+003, 7.093580e-003
1.461778e+003, 7.112307e-003
1.463706e+003, 7.529580e-003
1.465635e+003, 7.641230e-003
1.467563e+003, 7.366500e-003
1.469492e+003, 7.394355e-003
1.471420e+003, 7.577303e-003
1.473349e+003, 7.513532e-003
1.475277e+003, 7.196970e-003
1.477205e+003, 6.792158e-003
1.479134e+003, 6.456231e-003
1.481062e+003, 6.217791e-003
1.482991e+003, 5.811092e-003
1.484919e+003, 5.325839e-003
1.486848e+003, 5.146456e-003
1.488776e+003, 4.939205e-003
1.490705e+003, 4.338323e-003
1.492633e+003, 3.829615e-003
1.494562e+003, 3.666660e-003
1.496490e+003, 3.453964e-003
1.498419e+003, 3.024016e-003
1.500347e+003, 2.553112e-003
1.502276e+003, 2.225664e-003
1.504204e+003, 2.202216e-003
1.506132e+003, 2.434613e-003
1.508061e+003, 2.246469e-003
1.509989e+003, 1.792043e-003
1.511918e+003, 1.412069e-003
1.513846e+003, 1.133636e-003
1.515775e+003, 1.052375e-003
1.517703e+003, 8.998576e-004
1.519632e+003, 9.066985e-004
1.521560e+003, 8.723088e-004
1.523489e+003, 5.570214e-004
1.525417e+003, 5.994611e-004
1.527346e+003, 5.395902e-004
1.529274e+003, 3.917519e-004
1.531203e+003, 3.621430e-004
1.533131e+003, 4.441806e-004
1.535059e+003, 3.220388e-004
1.536988e+003, 5.966683e-004
1.538916e+003, 1.240986e-003
1.540845e+003, 1.316916e-003
1.542773e+003, 9.837269e-004
1.544702e+003, 8.495482e-004
1.546630e+003, 8.955075e-004
1.548559e+003, 1.167957e-003
1.550487e+003, 1.284133e-003
1.552416e+003, 1.373295e-003
1.554344e+003, 1.632258e-003
1.556273e+003, 2.048709e-003
1.558201e+003, 2.778510e-003
1.560130e+003, 3.061468e-003
1.562058e+003, 2.952440e-003
1.563986e+003, 3.173573e-003
1.565915e+003, 3.625049e-003
1.567843e+003, 4.210051e-003
1.569772e+003, 4.829925e-003
1.571700e+003, 5.125323e-003
1.573629e+003, 5.547910e-003
1.575557e+003, 6.139258e-003
1.577486e+003, 6.372060e-003
1.579414e+003, 6.594179e-003
1.581343e+003, 6.921307e-003
1.583271e+003, 7.122611e-003
1.585200e+003, 7.000107e-003
1.587128e+003, 6.755846e-003
1.589057e+003, 6.482468e-003
1.590985e+003, 6.344918e-003
1.592913e+003, 6.183082e-003
1.594842e+003, 5.901378e-003
1.596770e+003, 5.431425e-003
1.598699e+003, 5.198635e-003
1.600627e+003, 5.029344e-003
1.602556e+003, 4.825989e-003
1.604484e+003, 4.723026e-003
1.606413e+003, 4.537041e-003
1.608341e+003, 4.229471e-003
1.610270e+003, 4.082057e-003
1.612198e+003, 3.972346e-003
1.614127e+003, 4.051112e-003
1.616055e+003, 4.272436e-003
1.617984e+003, 3.815818e-003
1.619912e+003, 3.382078e-003
1.621840e+003, 3.495781e-003
1.623769e+003, 3.467011e-003
1.625697e+003, 3.280828e-003
1.627626e+003, 3.017657e-003
1.629554e+003, 2.712599e-003
1.631483e+003, 2.670391e-003
1.633411e+003, 2.671754e-003
1.635340e+003, 2.381536e-003
1.637268e+003, 1.903931e-003
1.639197e+003, 1.437492e-003
1.641125e+003, 1.236465e-003
1.643054e+003, 1.284111e-003
1.644982e+003, 1.561963e-003
1.646911e+003, 1.462683e-003
1.648839e+003, 1.056556e-003
1.650767e+003, 1.296222e-003
1.652696e+003, 1.876355e-003
1.654624e+003, 1.448878e-003
1.656553e+003, 9.290350e-004
1.658481e+003, 8.509425e-004
1.660410e+003, 7.941542e-004
1.662338e+003, 9.048148e-004
1.664267e+003, 1.118411e-003
1.666195e+003, 1.090457e-003
1.668124e+003, 1.044282e-003
1.670052e+003, 1.127009e-003
1.671981e+003, 1.380481e-003
1.673909e+003, 1.591932e-003
1.675838e+003, 1.813446e-003
1.677766e+003, 1.846630e-003
1.679694e+003, 1.913814e-003
1.681623e+003, 1.989087e-003
1.683551e+003, 2.538617e-003
1.685480e+003, 2.520342e-003
1.687408e+003, 2.057210e-003
1.689337e+003, 1.873956e-003
1.691265e+003, 1.798232e-003
1.693194e+003, 1.921208e-003
1.695122e+003, 2.327948e-003
1.697051e+003, 2.231212e-003
1.698979e+003, 2.168421e-003
1.700908e+003, 2.029869e-003
1.702836e+003, 1.502233e-003
1.704765e+003, 1.357127e-003
1.706693e+003, 1.161194e-003
1.708621e+003, 8.707172e-004
1.710550e+003, 7.089194e-004
1.712478e+003, 5.601342e-004
1.714407e+003, 5.837888e-004
1.716335e+003, 8.499954e-004
1.718264e+003, 7.149656e-004
1.720192e+003, 2.601222e-004
1.722121e+003, 1.478592e-004
1.724049e+003, 1.277418e-004
1.725978e+003, -2.460422e-004
1.727906e+003, -3.717630e-004
1.729835e+003, -4.090705e-004
1.731763e+003, -2.916076e-004
1.733692e+003, -5.715481e-005
1.735620e+003, -6.064664e-004
1.737548e+003, -1.140618e-003
1.739477e+003, -1.312151e-003
1.741405e+003, -1.445786e-003
1.743334e+003, -1.639175e-003
1.745262e+003, -1.722575e-003
1.747191e+003, -1.481386e-003
1.749119e+003, -1.210766e-003
1.751048e+003, -1.249289e-003
1.752976e+003, -1.477943e-003
1.754905e+003, -1.630385e-003
1.756833e+003, -1.679981e-003
1.758762e+003, -1.570466e-003
1.760690e+003, -1.814457e-003
1.762619e+003, -2.201008e-003
1.764547e+003, -2.025410e-003
1.766475e+003, -1.668877e-003
1.768404e+003, -1.717471e-003
1.770332e+003, -1.797533e-003
1.772261e+003, -1.729244e-003
1.774189e+003, -1.926478e-003
1.776118e+003, -2.139639e-003
1.778046e+003, -2.210638e-003
1.779975e+003, -2.127347e-003
1.781903e+003, -2.171926e-003
1.783832e+003, -2.334930e-003
1.785760e+003, -2.444457e-003
1.787689e+003, -2.471483e-003
1.789617e+003, -2.225557e-003
1.791546e+003, -2.038993e-003
1.793474e+003, -2.343226e-003
1.795402e+003, -2.578266e-003
1.797331e+003, -2.563644e-003
1.799259e+003, -2.645124e-003
1.801188e+003, -2.627320e-003
1.803116e+003, -2.522648e-003
1.805045e+003, -2.715915e-003
1.806973e+003, -2.826028e-003
1.808902e+003, -2.571725e-003
1.810830e+003, -2.489600e-003
1.812759e+003, -2.608758e-003
1.814687e+003, -2.850913e-003
1.816616e+003, -2.808421e-003
1.818544e+003, -2.670472e-003
1.820473e+003, -2.596171e-003
1.822401e+003, -2.743835e-003
1.824329e+003, -2.541119e-003
1.826258e+003, -2.266055e-003
1.828186e+003, -2.680164e-003
1.830115e+003, -3.139263e-003
1.832043e+003, -2.924933e-003
1.833972e+003, -2.751325e-003
1.835900e+003, -2.931758e-003
1.837829e+003, -2.984343e-003
1.839757e+003, -2.996706e-003
1.841686e+003, -3.029088e-003
1.843614e+003, -3.378696e-003
1.845543e+003, -3.537492e-003
1.847471e+003, -3.189766e-003
1.849400e+003, -3.170268e-003
1.851328e+003, -3.477857e-003
1.853256e+003, -3.239326e-003
1.855185e+003, -3.039411e-003
1.857113e+003, -3.105586e-003
1.859042e+003, -2.933054e-003
1.860970e+003, -2.981621e-003
1.862899e+003, -3.344948e-003
1.864827e+003, -3.507523e-003
1.866756e+003, -3.292614e-003
1.868684e+003, -2.920629e-003
1.870613e+003, -3.397500e-003
1.872541e+003, -3.623216e-003
1.874470e+003, -3.710417e-003
1.876398e+003, -3.458217e-003
1.878327e+003, -3.095243e-003
1.880255e+003, -3.037347e-003
1.882183e+003, -3.554698e-003
1.884112e+003, -4.046751e-003
1.886040e+003, -3.985971e-003
1.887969e+003, -3.808934e-003
1.889897e+003, -4.132078e-003
1.891826e+003, -4.245807e-003
1.893754e+003, -4.395009e-003
1.895683e+003, -4.507500e-003
1.897611e+003, -4.343856e-003
1.899540e+003, -4.142388e-003
1.901468e+003, -3.929415e-003
1.903397e+003, -3.684928e-003
1.905325e+003, -3.773065e-003
1.907254e+003, -4.026589e-003
1.909182e+003, -3.630440e-003
1.911110e+003, -3.382263e-003
1.913039e+003, -3.975406e-003
1.914967e+003, -4.182283e-003
1.916896e+003, -3.816084e-003
1.918824e+003, -3.704542e-003
1.920753e+003, -3.906241e-003
1.922681e+003, -4.689408e-003
1.924610e+003, -4.607104e-003
1.926538e+003, -4.593310e-003
1.928467e+003, -5.133638e-003
1.930395e+003, -4.617964e-003
1.932324e+003, -3.962527e-003
1.934252e+003, -4.473633e-003
1.936181e+003, -4.654772e-003
1.938109e+003, -4.441735e-003
1.940037e+003, -4.580935e-003
1.941966e+003, -4.510802e-003
1.943894e+003, -4.116444e-003
1.945823e+003, -4.748350e-003
1.947751e+003, -5.591924e-003
1.949680e+003, -5.957984e-003
1.951608e+003, -5.834546e-003
1.953537e+003, -5.455417e-003
1.955465e+003, -4.622069e-003
1.957394e+003, -4.351214e-003
1.959322e+003, -5.667708e-003
1.961251e+003, -5.488968e-003
1.963179e+003, -4.850470e-003
1.965108e+003, -5.110411e-003
1.967036e+003, -4.790006e-003
1.968964e+003, -5.630791e-003
1.970893e+003, -5.839794e-003
1.972821e+003, -4.995958e-003
1.974750e+003, -4.637064e-003
1.976678e+003, -4.240680e-003
1.978607e+003, -3.672244e-003
1.980535e+003, -4.095290e-003
1.982464e+003, -4.281851e-003
1.984392e+003, -3.025014e-003
1.986321e+003, -3.028937e-003
1.988249e+003, -4.409710e-003
1.990178e+003, -5.092030e-003
1.992106e+003, -4.805108e-003
1.994035e+003, -4.926246e-003
1.995963e+003, -4.775870e-003
1.997891e+003, -5.713515e-003
1.999820e+003, -6.968520e-003
2.001748e+003, -6.392881e-003
2.003677e+003, -5.814544e-003
2.005605e+003, -5.348560e-003
2.007534e+003, -4.870962e-003
2.009462e+003, -5.450095e-003
2.011391e+003, -5.726762e-003
2.013319e+003, -4.493586e-003
2.015248e+003, -3.991340e-003
2.017176e+003, -4.644016e-003
2.019105e+003, -4.678202e-003
2.021033e+003, -4.818808e-003
2.022962e+003, -3.501773e-003
2.024890e+003, -3.255949e-003
2.026818e+003, -3.348904e-003
2.028747e+003, -3.423271e-003
2.030675e+003, -4.542632e-003
2.032604e+003, -4.161063e-003
2.034532e+003, -4.369828e-003
2.036461e+003, -4.254044e-003
2.038389e+003, -3.331755e-003
2.040318e+003, -3.691387e-003
2.042246e+003, -3.884211e-003
2.044175e+003, -4.431987e-003
2.046103e+003, -4.905620e-003
2.048031e+003, -3.819203e-003
2.049960e+003, -3.499458e-003
2.051888e+003, -4.496065e-003
2.053817e+003, -5.032931e-003
2.055745e+003, -4.905570e-003
2.057674e+003, -5.203111e-003
2.059602e+003, -5.404925e-003
2.061531e+003, -4.641556e-003
2.063459e+003, -3.952739e-003
2.065388e+003, -3.465533e-003
2.067316e+003, -3.844253e-003
2.069245e+003, -4.551694e-003
2.071173e+003, -4.499536e-003
2.073102e+003, -3.868622e-003
2.075030e+003, -3.771237e-003
2.076958e+003, -3.441210e-003
2.078887e+003, -3.256231e-003
2.080815e+003, -3.765411e-003
2.082744e+003, -4.761813e-003
2.084672e+003, -4.962920e-003
2.086601e+003, -4.300366e-003
2.088529e+003, -4.143161e-003
2.090458e+003, -5.052878e-003
2.092386e+003, -6.225603e-003
2.094315e+003, -6.120995e-003
2.096243e+003, -5.445847e-003
2.098172e+003, -5.072491e-003
2.100100e+003, -4.663044e-003
2.102029e+003, -4.173477e-003
2.103957e+003, -3.192273e-003
2.105885e+003, -2.707642e-003
2.107814e+003, -2.676418e-003
2.109742e+003, -2.184210e-003
2.111671e+003, -1.892993e-003
2.113599e+003, -3.005334e-003
2.115528e+003, -3.169105e-003
2.117456e+003, -2.682086e-003
2.119385e+003, -1.991357e-003
2.121313e+003, -2.231670e-003
2.123242e+003, -3.440940e-003
2.125170e+003, -4.273324e-003
2.127099e+003, -4.182911e-003
2.129027e+003, -5.596299e-003
2.130956e+003, -6.734170e-003
2.132884e+003, -6.060738e-003
2.134813e+003, -4.846168e-003
2.136741e+003, -5.195024e-003
2.138669e+003, -6.166935e-003
2.140598e+003, -6.907004e-003
2.142526e+003, -7.574095e-003
2.144455e+003, -8.411060e-003
2.146383e+003, -9.004965e-003
2.148312e+003, -8.605418e-003
2.150240e+003, -8.441447e-003
2.152169e+003, -9.226824e-003
2.154097e+003, -1.133067e-002
2.156026e+003, -1.373175e-002
2.157954e+003, -1.319893e-002
2.159883e+003, -1.051920e-002
2.161811e+003, -9.624640e-003
2.163740e+003, -1.062362e-002
2.165668e+003, -1.124073e-002
2.167596e+003, -1.128913e-002
2.169525e+003, -1.096379e-002
2.171453e+003, -1.132066e-002
2.173382e+003, -1.155404e-002
2.175310e+003, -1.098604e-002
2.177239e+003, -1.112120e-002
2.179167e+003, -1.076697e-002
2.181096e+003, -1.088374e-002
2.183024e+003, -1.150276e-002
2.184953e+003, -1.157085e-002
2.186881e+003, -1.120103e-002
2.188810e+003, -1.067098e-002
2.190738e+003, -1.075166e-002
2.192667e+003, -1.210917e-002
2.194595e+003, -1.248742e-002
2.196523e+003, -1.243094e-002
2.198452e+003, -1.321382e-002
2.200380e+003, -1.241671e-002
2.202309e+003, -1.240642e-002
2.204237e+003, -1.339171e-002
2.206166e+003, -1.318326e-002
2.208094e+003, -1.297473e-002
2.210023e+003, -1.325896e-002
2.211951e+003, -1.270270e-002
2.213880e+003, -1.221799e-002
2.215808e+003, -1.292184e-002
2.217737e+003, -1.330357e-002
2.219665e+003, -1.319987e-002
2.221594e+003, -1.264199e-002
2.223522e+003, -1.260009e-002
2.225450e+003, -1.269028e-002
2.227379e+003, -1.206707e-002
2.229307e+003, -1.192716e-002
2.231236e+003, -1.181471e-002
2.233164e+003, -1.166015e-002
2.235093e+003, -1.100756e-002
2.237021e+003, -1.117615e-002
2.238950e+003, -1.196761e-002
2.240878e+003, -1.174026e-002
2.242807e+003, -1.060512e-002
2.244735e+003, -1.040623e-002
2.246664e+003, -1.084600e-002
2.248592e+003, -1.097150e-002
2.250521e+003, -1.104358e-002
2.252449e+003, -1.083178e-002
2.254377e+003, -1.028588e-002
2.256306e+003, -9.905180e-003
2.258234e+003, -1.022262e-002
2.260163e+003, -1.054220e-002
2.262091e+003, -1.013149e-002
2.264020e+003, -1.023011e-002
2.265948e+003, -1.038964e-002
2.267877e+003, -1.022723e-002
2.269805e+003, -1.004403e-002
2.271734e+003, -1.018756e-002
2.273662e+003, -1.080661e-002
2.275591e+003, -1.109779e-002
2.277519e+003, -1.069468e-002
2.279448e+003, -9.857075e-003
2.281376e+003, -9.418056e-003
2.283304e+003, -9.198250e-003
2.285233e+003, -8.903043e-003
2.287161e+003, -9.192088e-003
2.289090e+003, -9.090869e-003
2.291018e+003, -8.586750e-003
2.292947e+003, -8.034783e-003
2.294875e+003, -8.177604e-003
2.296804e+003, -8.001342e-003
2.298732e+003, -7.909152e-003
2.300661e+003, -8.235417e-003
2.302589e+003, -7.998262e-003
2.304518e+003, -7.561196e-003
2.306446e+003, -7.712456e-003
2.308375e+003, -7.863026e-003
2.310303e+003, -7.475405e-003
2.312231e+003, -7.075560e-003
2.314160e+003, -6.802753e-003
2.316088e+003, -6.610983e-003
2.318017e+003, -6.392517e-003
2.319945e+003, -6.195095e-003
2.321874e+003, -5.722017e-003
2.323802e+003, -4.970368e-003
2.325731e+003, -5.392861e-003
2.327659e+003, -5.895697e-003
2.329588e+003, -5.842105e-003
2.331516e+003, -5.568244e-003
2.333445e+003, -5.373140e-003
2.335373e+003, -5.341712e-003
2.337302e+003, -5.541625e-003
2.339230e+003, -5.659508e-003
2.341158e+003, -5.744397e-003
2.343087e+003, -5.984943e-003
2.345015e+003, -6.287679e-003
2.346944e+003, -6.547318e-003
2.348872e+003, -6.714535e-003
2.350801e+003, -6.629895e-003
2.352729e+003, -6.223755e-003
2.354658e+003, -5.868129e-003
2.356586e+003, -5.575078e-003
2.358515e+003, -5.139947e-003
2.360443e+003, -5.132165e-003
2.362372e+003, -5.583860e-003
2.364300e+003, -5.683235e-003
2.366229e+003, -5.686779e-003
2.368157e+003, -5.746426e-003
2.370085e+003, -5.907514e-003
2.372014e+003, -6.104851e-003
2.373942e+003, -6.350387e-003
2.375871e+003, -6.408826e-003
2.377799e+003, -6.330479e-003
2.379728e+003, -6.836578e-003
2.381656e+003, -7.439775e-003
2.383585e+003, -7.239713e-003
2.385513e+003, -6.975605e-003
2.387442e+003, -7.292039e-003
2.389370e+003, -7.398316e-003
2.391299e+003, -7.267784e-003
2.393227e+003, -7.043608e-003
2.395156e+003, -7.071197e-003
2.397084e+003, -7.166975e-003
2.399012e+003, -7.093558e-003
2.400941e+003, -7.494566e-003
2.402869e+003, -7.636379e-003
2.404798e+003, -7.225886e-003
2.406726e+003, -6.825887e-003
2.408655e+003, -6.679507e-003
2.410583e+003, -7.051611e-003
2.412512e+003, -7.030574e-003
2.414440e+003, -6.876695e-003
2.416369e+003, -7.053663e-003
2.418297e+003, -7.112140e-003
2.420226e+003, -6.951887e-003
2.422154e+003, -7.027343e-003
2.424083e+003, -6.789407e-003
2.426011e+003, -6.366236e-003
2.427939e+003, -6.474363e-003
2.429868e+003, -6.902959e-003
2.431796e+003, -7.483279e-003
2.433725e+003, -7.160396e-003
2.435653e+003, -6.479854e-003
2.437582e+003, -6.468287e-003
2.439510e+003, -6.976284e-003
2.441439e+003, -7.258697e-003
2.443367e+003, -6.854279e-003
2.445296e+003, -6.925940e-003
2.447224e+003, -6.724424e-003
2.449153e+003, -6.480521e-003
2.451081e+003, -6.868817e-003
2.453010e+003, -7.656615e-003
2.454938e+003, -7.336800e-003
2.456866e+003, -7.055032e-003
2.458795e+003, -7.737115e-003
2.460723e+003, -7.859901e-003
2.462652e+003, -7.152701e-003
2.464580e+003, -6.757183e-003
2.466509e+003, -6.635450e-003
2.468437e+003, -6.589590e-003
2.470366e+003, -6.843564e-003
2.472294e+003, -7.325701e-003
2.474223e+003, -7.781837e-003
2.476151e+003, -7.789206e-003
2.478080e+003, -7.824210e-003
2.480008e+003, -8.101755e-003
2.481937e+003, -7.705183e-003
2.483865e+003, -7.093151e-003
2.485793e+003, -6.718271e-003
2.487722e+003, -6.799089e-003
2.489650e+003, -6.912069e-003
2.491579e+003, -7.289201e-003
2.493507e+003, -7.719858e-003
2.495436e+003, -7.906672e-003
2.497364e+003, -7.982358e-003
2.499293e+003, -7.773947e-003
2.501221e+003, -7.667375e-003
2.503150e+003, -7.824071e-003
2.505078e+003, -7.590923e-003
2.507007e+003, -7.415275e-003
2.508935e+003, -7.680290e-003
2.510864e+003, -7.984625e-003
2.512792e+003, -8.337261e-003
2.514720e+003, -8.305291e-003
2.516649e+003, -7.895903e-003
2.518577e+003, -7.521026e-003
2.520506e+003, -8.130935e-003
2.522434e+003, -8.572692e-003
2.524363e+003, -8.244412e-003
2.526291e+003, -8.239412e-003
2.528220e+003, -8.352535e-003
2.530148e+003, -8.176686e-003
2.532077e+003, -7.752047e-003
2.534005e+003, -7.962194e-003
2.535934e+003, -7.853128e-003
2.537862e+003, -7.852504e-003
2.539791e+003, -8.116295e-003
2.541719e+003, -8.049890e-003
2.543647e+003, -7.736587e-003
2.545576e+003, -7.576267e-003
2.547504e+003, -7.461365e-003
2.549433e+003, -7.539087e-003
2.551361e+003, -7.920208e-003
2.553290e+003, -7.962398e-003
2.555218e+003, -7.573181e-003
2.557147e+003, -7.458047e-003
2.559075e+003, -7.610466e-003
2.561004e+003, -7.599092e-003
2.562932e+003, -7.470281e-003
2.564861e+003, -7.078064e-003
2.566789e+003, -7.146090e-003
2.568718e+003, -7.692901e-003
2.570646e+003, -8.184206e-003
2.572574e+003, -7.896685e-003
2.574503e+003, -7.402322e-003
2.576431e+003, -7.126960e-003
2.578360e+003, -7.425887e-003
2.580288e+003, -7.837335e-003
2.582217e+003, -7.812604e-003
2.584145e+003, -8.025721e-003
2.586074e+003, -7.962029e-003
2.588002e+003, -7.055095e-003
2.589931e+003, -6.549508e-003
2.591859e+003, -7.280651e-003
2.593788e+003, -8.254043e-003
2.595716e+003, -7.953031e-003
2.597645e+003, -7.597277e-003
2.599573e+003, -7.499904e-003
2.601501e+003, -7.402709e-003
2.603430e+003, -7.524055e-003
2.605358e+003, -7.689976e-003
2.607287e+003, -8.246831e-003
2.609215e+003, -8.088904e-003
2.611144e+003, -7.508361e-003
2.613072e+003, -7.551492e-003
2.615001e+003, -7.774546e-003
2.616929e+003, -7.783207e-003
2.618858e+003, -8.019454e-003
2.620786e+003, -7.932144e-003
2.622715e+003, -7.760625e-003
2.624643e+003, -7.963249e-003
2.626572e+003, -8.102528e-003
2.628500e+003, -8.044397e-003
2.630428e+003, -7.962020e-003
2.632357e+003, -7.961188e-003
2.634285e+003, -8.042602e-003
2.636214e+003, -8.105994e-003
2.638142e+003, -7.890921e-003
2.640071e+003, -7.880444e-003
2.641999e+003, -7.945318e-003
2.643928e+003, -8.008013e-003
2.645856e+003, -8.509198e-003
2.647785e+003, -8.669965e-003
2.649713e+003, -8.470532e-003
2.651642e+003, -8.143312e-003
2.653570e+003, -8.157966e-003
2.655499e+003, -8.486844e-003
2.657427e+003, -8.924360e-003
2.659355e+003, -8.904606e-003
2.661284e+003, -8.603279e-003
2.663212e+003, -8.740187e-003
2.665141e+003, -9.240712e-003
2.667069e+003, -9.023210e-003
2.668998e+003, -8.892488e-003
2.670926e+003, -8.899264e-003
2.672855e+003, -8.981093e-003
2.674783e+003, -9.158082e-003
2.676712e+003, -9.024062e-003
2.678640e+003, -8.951388e-003
2.680569e+003, -9.170753e-003
2.682497e+003, -9.166856e-003
2.684426e+003, -9.292576e-003
2.686354e+003, -9.325037e-003
2.688282e+003, -9.325721e-003
2.690211e+003, -9.304468e-003
2.692139e+003, -9.096078e-003
2.694068e+003, -8.947846e-003
2.695996e+003, -9.156263e-003
2.697925e+003, -9.280951e-003
2.699853e+003, -8.999462e-003
2.701782e+003, -9.208333e-003
2.703710e+003, -9.254192e-003
2.705639e+003, -9.092229e-003
2.707567e+003, -9.242381e-003
2.709496e+003, -9.375175e-003
2.711424e+003, -9.265976e-003
2.713353e+003, -9.196476e-003
2.715281e+003, -9.421611e-003
2.717209e+003, -9.200794e-003
2.719138e+003, -9.164860e-003
2.721066e+003, -9.201777e-003
2.722995e+003, -9.132918e-003
2.724923e+003, -9.173251e-003
2.726852e+003, -9.284276e-003
2.728780e+003, -9.344396e-003
2.730709e+003, -9.449472e-003
2.732637e+003, -9.143693e-003
2.734566e+003, -8.825521e-003
2.736494e+003, -8.917511e-003
2.738423e+003, -9.003493e-003
2.740351e+003, -9.074895e-003
2.742280e+003, -9.043047e-003
2.744208e+003, -9.180156e-003
2.746136e+003, -9.656937e-003
2.748065e+003, -1.004887e-002
2.749993e+003, -9.538172e-003
2.751922e+003, -8.916019e-003
2.753850e+003, -8.973347e-003
2.755779e+003, -9.320431e-003
2.757707e+003, -9.430671e-003
2.759636e+003, -9.449514e-003
2.761564e+003, -9.439049e-003
2.763493e+003, -9.592260e-003
2.765421e+003, -9.599954e-003
2.767350e+003, -9.334727e-003
2.769278e+003, -9.111042e-003
2.771207e+003, -9.303913e-003
2.773135e+003, -9.418610e-003
2.775063e+003, -9.184373e-003
2.776992e+003, -9.073318e-003
2.778920e+003, -9.049553e-003
2.780849e+003, -9.419850e-003
2.782777e+003, -9.403053e-003
2.784706e+003, -9.450951e-003
2.786634e+003, -9.580986e-003
2.788563e+003, -9.749857e-003
2.790491e+003, -9.635800e-003
2.792420e+003, -9.392760e-003
2.794348e+003, -9.231014e-003
2.796277e+003, -9.431017e-003
2.798205e+003, -9.640176e-003
2.800134e+003, -9.771537e-003
2.802062e+003, -9.795398e-003
2.803990e+003, -9.718176e-003
2.805919e+003, -9.645813e-003
2.807847e+003, -1.007050e-002
2.809776e+003, -1.002709e-002
2.811704e+003, -9.444315e-003
2.813633e+003, -9.203861e-003
2.815561e+003, -9.022566e-003
2.817490e+003, -9.180714e-003
2.819418e+003, -9.837814e-003
2.821347e+003, -1.007478e-002
2.823275e+003, -9.896742e-003
2.825204e+003, -1.005309e-002
2.827132e+003, -1.010938e-002
2.829061e+003, -9.767123e-003
2.830989e+003, -9.541669e-003
2.832917e+003, -9.411057e-003
2.834846e+003, -9.753921e-003
2.836774e+003, -1.020678e-002
2.838703e+003, -1.050939e-002
2.840631e+003, -1.018257e-002
2.842560e+003, -1.015997e-002
2.844488e+003, -1.060809e-002
2.846417e+003, -1.086052e-002
2.848345e+003, -1.089342e-002
2.850274e+003, -1.126377e-002
2.852202e+003, -1.126559e-002
2.854131e+003, -1.111285e-002
2.856059e+003, -1.127463e-002
2.857988e+003, -1.104331e-002
2.859916e+003, -1.094875e-002
2.861844e+003, -1.082717e-002
2.863773e+003, -1.050962e-002
2.865701e+003, -1.044608e-002
2.867630e+003, -1.045396e-002
2.869558e+003, -1.047928e-002
2.871487e+003, -1.045915e-002
2.873415e+003, -1.059749e-002
2.875344e+003, -1.046158e-002
2.877272e+003, -1.024716e-002
2.879201e+003, -1.002484e-002
2.881129e+003, -9.871875e-003
2.883058e+003, -1.004746e-002
2.884986e+003, -1.062870e-002
2.886915e+003, -1.050405e-002
2.888843e+003, -1.001967e-002
2.890771e+003, -1.014646e-002
2.892700e+003, -1.022158e-002
2.894628e+003, -1.024096e-002
2.896557e+003, -1.018266e-002
2.898485e+003, -1.028937e-002
2.900414e+003, -1.050333e-002
2.902342e+003, -1.027263e-002
2.904271e+003, -1.022562e-002
2.906199e+003, -1.071124e-002
2.908128e+003, -1.056442e-002
2.910056e+003, -1.043096e-002
2.911985e+003, -1.088267e-002
2.913913e+003, -1.125500e-002
2.915842e+003, -1.134164e-002
2.917770e+003, -1.121336e-002
2.919698e+003, -1.086593e-002
2.921627e+003, -1.122511e-002
2.923555e+003, -1.155759e-002
2.925484e+003, -1.149471e-002
2.927412e+003, -1.133329e-002
2.929341e+003, -1.142618e-002
2.931269e+003, -1.109609e-002
2.933198e+003, -1.067352e-002
2.935126e+003, -1.070648e-002
2.937055e+003, -1.096352e-002
2.938983e+003, -1.102421e-002
2.940912e+003, -1.102739e-002
2.942840e+003, -1.072030e-002
2.944769e+003, -1.067469e-002
2.946697e+003, -1.099390e-002
2.948625e+003, -1.060012e-002
2.950554e+003, -1.041360e-002
2.952482e+003, -1.066521e-002
2.954411e+003, -1.075149e-002
2.956339e+003, -1.044413e-002
2.958268e+003, -1.095398e-002
2.960196e+003, -1.118361e-002
2.962125e+003, -1.051723e-002
2.964053e+003, -1.039851e-002
2.965982e+003, -1.092213e-002
2.967910e+003, -1.131190e-002
2.969839e+003, -1.080997e-002
2.971767e+003, -1.030464e-002
2.973696e+003, -1.042911e-002
2.975624e+003, -1.072543e-002
2.977552e+003, -1.104270e-002
2.979481e+003, -1.079729e-002
2.981409e+003, -1.017441e-002
2.983338e+003, -9.711707e-003
2.985266e+003, -9.504829e-003
2.987195e+003, -9.819060e-003
2.989123e+003, -1.052772e-002
2.991052e+003, -1.073701e-002
2.992980e+003, -1.064833e-002
2.994909e+003, -1.005004e-002
2.996837e+003, -1.012085e-002
2.998766e+003, -1.033803e-002
3.000694e+003, -1.061887e-002
3.002623e+003, -1.064355e-002
3.004551e+003, -1.029872e-002
3.006479e+003, -1.040386e-002
3.008408e+003, -1.050003e-002
3.010336e+003, -1.030172e-002
3.012265e+003, -1.039883e-002
3.014193e+003, -1.058660e-002
3.016122e+003, -1.045706e-002
3.018050e+003, -1.060451e-002
3.019979e+003, -1.008203e-002
3.021907e+003, -9.751395e-003
3.023836e+003, -1.035558e-002
3.025764e+003, -1.052908e-002
3.027693e+003, -1.052753e-002
3.029621e+003, -1.013255e-002
3.031550e+003, -9.654583e-003
3.033478e+003, -9.695745e-003
3.035406e+003, -9.726469e-003
3.037335e+003, -1.009973e-002
3.039263e+003, -1.003129e-002
3.041192e+003, -9.485614e-003
3.043120e+003, -9.581924e-003
3.045049e+003, -9.833882e-003
3.046977e+003, -9.709628e-003
3.048906e+003, -9.718782e-003
3.050834e+003, -9.898820e-003
3.052763e+003, -9.785498e-003
3.054691e+003, -9.813683e-003
3.056620e+003, -1.005369e-002
3.058548e+003, -1.053066e-002
3.060477e+003, -1.063206e-002
3.062405e+003, -1.046753e-002
3.064333e+003, -1.060316e-002
3.066262e+003, -1.047386e-002
3.068190e+003, -1.044121e-002
3.070119e+003, -9.983100e-003
3.072047e+003, -1.007130e-002
3.073976e+003, -1.021833e-002
3.075904e+003, -1.022909e-002
3.077833e+003, -1.028317e-002
3.079761e+003, -1.031209e-002
3.081690e+003, -1.057214e-002
3.083618e+003, -1.064971e-002
3.085547e+003, -1.081763e-002
3.087475e+003, -1.108547e-002
3.089404e+003, -1.081146e-002
3.091332e+003, -1.042310e-002
3.093260e+003, -1.006008e-002
3.095189e+003, -1.011043e-002
3.097117e+003, -1.019372e-002
3.099046e+003, -1.031512e-002
3.100974e+003, -1.072607e-002
3.102903e+003, -1.154479e-002
3.104831e+003, -1.144160e-002
3.106760e+003, -1.083931e-002
3.108688e+003, -1.073374e-002
3.110617e+003, -1.099764e-002
3.112545e+003, -1.078164e-002
3.114474e+003, -1.056932e-002
3.116402e+003, -1.073866e-002
3.118331e+003, -1.015115e-002
3.120259e+003, -1.010622e-002
3.122188e+003, -1.037962e-002
3.124116e+003, -1.076011e-002
3.126044e+003, -1.112174e-002
3.127973e+003, -1.129975e-002
3.129901e+003, -1.133921e-002
3.131830e+003, -1.143964e-002
3.133758e+003, -1.090858e-002
3.135687e+003, -1.046522e-002
3.137615e+003, -1.074306e-002
3.139544e+003, -1.079900e-002
3.141472e+003, -1.043774e-002
3.143401e+003, -1.048239e-002
3.145329e+003, -1.062492e-002
3.147258e+003, -1.037386e-002
3.149186e+003, -1.003709e-002
3.151115e+003, -1.015807e-002
3.153043e+003, -1.052968e-002
3.154971e+003, -1.054919e-002
3.156900e+003, -1.053779e-002
3.158828e+003, -1.078911e-002
3.160757e+003, -1.121303e-002
3.162685e+003, -1.121842e-002
3.164614e+003, -1.102733e-002
3.166542e+003, -1.090457e-002
3.168471e+003, -1.098609e-002
3.170399e+003, -1.137717e-002
3.172328e+003, -1.117578e-002
3.174256e+003, -1.112447e-002
3.176185e+003, -1.132100e-002
3.178113e+003, -1.104418e-002
3.180042e+003, -1.114966e-002
3.181970e+003, -1.143667e-002
3.183898e+003, -1.113806e-002
3.185827e+003, -1.150665e-002
3.187755e+003, -1.153802e-002
3.189684e+003, -1.133054e-002
3.191612e+003, -1.151685e-002
3.193541e+003, -1.150691e-002
3.195469e+003, -1.162957e-002
3.197398e+003, -1.144253e-002
3.199326e+003, -1.115260e-002
3.201255e+003, -1.110713e-002
3.203183e+003, -1.094672e-002
3.205112e+003, -1.059481e-002
3.207040e+003, -1.057534e-002
3.208969e+003, -1.106153e-002
3.210897e+003, -1.121256e-002
3.212825e+003, -1.133408e-002
3.214754e+003, -1.127168e-002
3.216682e+003, -1.145605e-002
3.218611e+003, -1.150967e-002
3.220539e+003, -1.160948e-002
3.222468e+003, -1.179188e-002
3.224396e+003, -1.189089e-002
3.226325e+003, -1.184130e-002
3.228253e+003, -1.165161e-002
3.230182e+003, -1.161144e-002
3.232110e+003, -1.158417e-002
3.234039e+003, -1.173306e-002
3.235967e+003, -1.186180e-002
3.237896e+003, -1.156150e-002
3.239824e+003, -1.078529e-002
3.241752e+003, -1.056156e-002
3.243681e+003, -1.170207e-002
3.245609e+003, -1.272717e-002
3.247538e+003, -1.244081e-002
3.249466e+003, -1.187819e-002
3.251395e+003, -1.166216e-002
3.253323e+003, -1.188822e-002
3.255252e+003, -1.227673e-002
3.257180e+003, -1.256568e-002
3.259109e+003, -1.207062e-002
3.261037e+003, -1.212865e-002
3.262966e+003, -1.291866e-002
3.264894e+003, -1.249808e-002
3.266823e+003, -1.169452e-002
3.268751e+003, -1.111942e-002
3.270679e+003, -1.233910e-002
3.272608e+003, -1.269269e-002
3.274536e+003, -1.189430e-002
3.276465e+003, -1.135731e-002
3.278393e+003, -1.192382e-002
3.280322e+003, -1.222376e-002
3.282250e+003, -1.257314e-002
3.284179e+003, -1.256985e-002
3.286107e+003, -1.192467e-002
3.288036e+003, -1.197844e-002
3.289964e+003, -1.258778e-002
3.291893e+003, -1.237772e-002
3.293821e+003, -1.260578e-002
3.295750e+003, -1.200048e-002
3.297678e+003, -1.139041e-002
3.299606e+003, -1.178608e-002
3.301535e+003, -1.246451e-002
3.303463e+003, -1.315513e-002
3.305392e+003, -1.278630e-002
3.307320e+003, -1.231079e-002
3.309249e+003, -1.237036e-002
3.311177e+003, -1.291503e-002
3.313106e+003, -1.275456e-002
3.315034e+003, -1.253050e-002
3.316963e+003, -1.261635e-002
3.318891e+003, -1.248578e-002
3.320820e+003, -1.239311e-002
3.322748e+003, -1.199638e-002
3.324677e+003, -1.237353e-002
3.326605e+003, -1.261598e-002
3.328533e+003, -1.290107e-002
3.330462e+003, -1.265763e-002
3.332390e+003, -1.258823e-002
3.334319e+003, -1.251074e-002
3.336247e+003, -1.272860e-002
3.338176e+003, -1.254276e-002
3.340104e+003, -1.215321e-002
3.342033e+003, -1.213925e-002
3.343961e+003, -1.213032e-002
3.345890e+003, -1.272264e-002
3.347818e+003, -1.268532e-002
3.349747e+003, -1.228184e-002
3.351675e+003, -1.246719e-002
3.353604e+003, -1.252372e-002
3.355532e+003, -1.202995e-002
3.357460e+003, -1.256261e-002
3.359389e+003, -1.329799e-002
3.361317e+003, -1.305121e-002
3.363246e+003, -1.276864e-002
3.365174e+003, -1.255311e-002
3.367103e+003, -1.236816e-002
3.369031e+003, -1.250895e-002
3.370960e+003, -1.280866e-002
3.372888e+003, -1.305382e-002
3.374817e+003, -1.319306e-002
3.376745e+003, -1.300898e-002
3.378674e+003, -1.334326e-002
3.380602e+003, -1.364189e-002
3.382531e+003, -1.362835e-002
3.384459e+003, -1.345956e-002
3.386387e+003, -1.347224e-002
3.388316e+003, -1.311298e-002
3.390244e+003, -1.299062e-002
3.392173e+003, -1.336672e-002
3.394101e+003, -1.324303e-002
3.396030e+003, -1.307904e-002
3.397958e+003, -1.379023e-002
3.399887e+003, -1.401779e-002
3.401815e+003, -1.286411e-002
3.403744e+003, -1.307901e-002
3.405672e+003, -1.320497e-002
3.407601e+003, -1.318817e-002
3.409529e+003, -1.321164e-002
3.411458e+003, -1.318629e-002
3.413386e+003, -1.280819e-002
3.415314e+003, -1.274733e-002
3.417243e+003, -1.257917e-002
3.419171e+003, -1.116500e-002
3.421100e+003, -1.130686e-002
3.423028e+003, -1.267176e-002
3.424957e+003, -1.367965e-002
3.426885e+003, -1.379682e-002
3.428814e+003, -1.333479e-002
3.430742e+003, -1.245425e-002
3.432671e+003, -1.256581e-002
3.434599e+003, -1.278331e-002
3.436528e+003, -1.262408e-002
3.438456e+003, -1.204959e-002
3.440385e+003, -1.232500e-002
3.442313e+003, -1.223982e-002
3.444241e+003, -1.161800e-002
3.446170e+003, -1.131629e-002
3.448098e+003, -1.110093e-002
3.450027e+003, -1.027711e-002
3.451955e+003, -1.064870e-002
3.453884e+003, -1.166687e-002
3.455812e+003, -1.136102e-002
3.457741e+003, -1.078667e-002
3.459669e+003, -1.088191e-002
3.461598e+003, -1.227176e-002
3.463526e+003, -1.283238e-002
3.465455e+003, -1.279808e-002
3.467383e+003, -1.155537e-002
3.469312e+003, -1.057314e-002
3.471240e+003, -1.092276e-002
3.473168e+003, -1.071162e-002
3.475097e+003, -1.129094e-002
3.477025e+003, -1.134820e-002
3.478954e+003, -1.106513e-002
3.480882e+003, -1.121163e-002
3.482811e+003, -1.087313e-002
3.484739e+003, -1.120903e-002
3.486668e+003, -1.182920e-002
3.488596e+003, -1.247994e-002
3.490525e+003, -1.248569e-002
3.492453e+003, -1.212058e-002
3.494382e+003, -1.237868e-002
3.496310e+003, -1.285023e-002
3.498239e+003, -1.316267e-002
3.500167e+003, -1.287384e-002
3.502095e+003, -1.230207e-002
3.504024e+003, -1.278971e-002
3.505952e+003, -1.360796e-002
3.507881e+003, -1.374618e-002
3.509809e+003, -1.385331e-002
3.511738e+003, -1.450304e-002
3.513666e+003, -1.471476e-002
3.515595e+003, -1.489450e-002
3.517523e+003, -1.476070e-002
3.519452e+003, -1.421987e-002
3.521380e+003, -1.396997e-002
3.523309e+003, -1.412904e-002
3.525237e+003, -1.417080e-002
3.527166e+003, -1.454013e-002
3.529094e+003, -1.518883e-002
3.531022e+003, -1.557033e-002
3.532951e+003, -1.548138e-002
3.534879e+003, -1.513695e-002
3.536808e+003, -1.526368e-002
3.538736e+003, -1.543418e-002
3.540665e+003, -1.568508e-002
3.542593e+003, -1.571430e-002
3.544522e+003, -1.541290e-002
3.546450e+003, -1.543455e-002
3.548379e+003, -1.630499e-002
3.550307e+003, -1.667406e-002
3.552236e+003, -1.626891e-002
3.554164e+003, -1.615188e-002
3.556093e+003, -1.616589e-002
3.558021e+003, -1.636749e-002
3.559949e+003, -1.660814e-002
3.561878e+003, -1.647795e-002
3.563806e+003, -1.581354e-002
3.565735e+003, -1.665290e-002
3.567663e+003, -1.688771e-002
3.569592e+003, -1.690105e-002
3.571520e+003, -1.695021e-002
3.573449e+003, -1.664734e-002
3.575377e+003, -1.676274e-002
3.577306e+003, -1.805581e-002
3.579234e+003, -1.885075e-002
3.581163e+003, -1.884367e-002
3.583091e+003, -1.848102e-002
3.585020e+003, -1.804296e-002
3.586948e+003, -1.811505e-002
3.588876e+003, -1.886300e-002
3.590805e+003, -1.946181e-002
3.592733e+003, -1.885692e-002
3.594662e+003, -1.749247e-002
3.596590e+003, -1.754687e-002
3.598519e+003, -1.764269e-002
3.600447e+003, -1.792956e-002
3.602376e+003, -1.813810e-002
3.604304e+003, -1.772455e-002
3.606233e+003, -1.802901e-002
3.608161e+003, -1.777165e-002
3.610090e+003, -1.838255e-002
3.612018e+003, -1.939676e-002
3.613947e+003, -1.864289e-002
3.615875e+003, -1.749677e-002
3.617803e+003, -1.760970e-002
3.619732e+003, -1.801042e-002
3.621660e+003, -1.771498e-002
3.623589e+003, -1.817346e-002
3.625517e+003, -1.939213e-002
3.627446e+003, -1.910941e-002
3.629374e+003, -1.869562e-002
3.631303e+003, -1.894250e-002
3.633231e+003, -1.813721e-002
3.635160e+003, -1.883896e-002
3.637088e+003, -1.959900e-002
3.639017e+003, -1.969906e-002
3.640945e+003, -1.987761e-002
3.642874e+003, -1.932245e-002
3.644802e+003, -1.856933e-002
3.646730e+003, -1.842509e-002
3.648659e+003, -1.782038e-002
3.650587e+003, -1.802953e-002
3.652516e+003, -1.951610e-002
3.654444e+003, -2.043144e-002
3.656373e+003, -1.962167e-002
3.658301e+003, -1.971367e-002
3.660230e+003, -2.047085e-002
3.662158e+003, -1.988689e-002
3.664087e+003, -2.028686e-002
3.666015e+003, -2.143515e-002
3.667944e+003, -2.131932e-002
3.669872e+003, -2.039873e-002
3.671801e+003, -2.079004e-002
3.673729e+003, -2.011464e-002
3.675657e+003, -1.899770e-002
3.677586e+003, -1.927050e-002
3.679514e+003, -1.937588e-002
3.681443e+003, -2.026167e-002
3.683371e+003, -2.094518e-002
3.685300e+003, -1.965412e-002
3.687228e+003, -1.857452e-002
3.689157e+003, -1.890572e-002
3.691085e+003, -1.867240e-002
3.693014e+003, -1.793090e-002
3.694942e+003, -1.820344e-002
3.696871e+003, -1.914123e-002
3.698799e+003, -2.024453e-002
3.700728e+003, -1.917974e-002
3.702656e+003, -1.904595e-002
3.704584e+003, -1.948716e-002
3.706513e+003, -2.005752e-002
3.708441e+003, -1.929487e-002
3.710370e+003, -1.831907e-002
3.712298e+003, -1.840886e-002
3.714227e+003, -1.820244e-002
3.716155e+003, -1.812532e-002
3.718084e+003, -1.869573e-002
3.720012e+003, -1.903546e-002
3.721941e+003, -1.961013e-002
3.723869e+003, -1.905373e-002
3.725798e+003, -1.851656e-002
3.727726e+003, -1.826090e-002
3.729655e+003, -1.841050e-002
3.731583e+003, -1.827576e-002
3.733511e+003, -1.843895e-002
3.735440e+003, -1.850978e-002
3.737368e+003, -1.839201e-002
3.739297e+003, -1.905136e-002
3.741225e+003, -1.921029e-002
3.743154e+003, -1.826547e-002
3.745082e+003, -1.867006e-002
3.747011e+003, -1.928318e-002
3.748939e+003, -1.865171e-002
3.750868e+003, -1.827079e-002
3.752796e+003, -1.914570e-002
3.754725e+003, -1.936935e-002
3.756653e+003, -1.906327e-002
3.758582e+003, -1.832585e-002
3.760510e+003, -1.871778e-002
3.762438e+003, -1.918714e-002
3.764367e+003, -1.928696e-002
3.766295e+003, -1.938723e-002
3.768224e+003, -1.876740e-002
3.770152e+003, -1.871983e-002
3.772081e+003, -1.891449e-002
3.774009e+003, -1.906990e-002
3.775938e+003, -1.941288e-002
3.777866e+003, -1.974687e-002
3.779795e+003, -1.983069e-002
3.781723e+003, -2.063677e-002
3.783652e+003, -2.108055e-002
3.785580e+003, -2.006254e-002
3.787509e+003, -2.008094e-002
3.789437e+003, -2.107658e-002
3.791365e+003, -2.054685e-002
3.793294e+003, -1.991543e-002
3.795222e+003, -1.999562e-002
3.797151e+003, -2.005674e-002
3.799079e+003, -1.915166e-002
3.801008e+003, -1.861715e-002
3.802936e+003, -1.975203e-002
3.804865e+003, -1.948162e-002
3.806793e+003, -1.900489e-002
3.808722e+003, -2.016586e-002
3.810650e+003, -2.034058e-002
3.812579e+003, -1.955956e-002
3.814507e+003, -1.893419e-002
3.816436e+003, -2.012825e-002
3.818364e+003, -2.124871e-002
3.820292e+003, -2.048883e-002
3.822221e+003, -2.108837e-002
3.824149e+003, -2.171556e-002
3.826078e+003, -2.104256e-002
3.828006e+003, -2.068905e-002
3.829935e+003, -1.986292e-002
3.831863e+003, -2.036452e-002
3.833792e+003, -2.192565e-002
3.835720e+003, -2.188739e-002
3.837649e+003, -2.025093e-002
3.839577e+003, -1.869938e-002
3.841506e+003, -1.759903e-002
3.843434e+003, -1.839563e-002
3.845363e+003, -2.081318e-002
3.847291e+003, -2.161268e-002
3.849219e+003, -2.127272e-002
3.851148e+003, -1.974848e-002
3.853076e+003, -1.896773e-002
3.855005e+003, -2.107035e-002
3.856933e+003, -2.234592e-002
3.858862e+003, -2.173132e-002
3.860790e+003, -2.090893e-002
3.862719e+003, -2.039309e-002
3.864647e+003, -2.140956e-002
3.866576e+003, -2.232454e-002
3.868504e+003, -2.104401e-002
3.870433e+003, -2.024021e-002
3.872361e+003, -2.183736e-002
3.874290e+003, -2.217551e-002
3.876218e+003, -2.163115e-002
3.878146e+003, -2.057558e-002
3.880075e+003, -2.084767e-002
3.882003e+003, -2.161835e-002
3.883932e+003, -2.064403e-002
3.885860e+003, -2.053345e-002
3.887789e+003, -2.159232e-002
3.889717e+003, -2.215607e-002
3.891646e+003, -2.211106e-002
3.893574e+003, -2.219358e-002
3.895503e+003, -2.244558e-002
3.897431e+003, -2.193591e-002
3.899360e+003, -2.102671e-002
3.901288e+003, -2.130660e-002
3.903217e+003, -2.122428e-002
3.905145e+003, -2.131220e-002
3.907073e+003, -2.170825e-002
3.909002e+003, -2.166385e-002
3.910930e+003, -2.198656e-002
3.912859e+003, -2.273646e-002
3.914787e+003, -2.329204e-002
3.916716e+003, -2.258868e-002
3.918644e+003, -2.209324e-002
3.920573e+003, -2.172913e-002
3.922501e+003, -2.174020e-002
3.924430e+003, -2.256696e-002
3.926358e+003, -2.270309e-002
3.928287e+003, -2.174798e-002
3.930215e+003, -2.219639e-002
3.932144e+003, -2.238231e-002
3.934072e+003, -2.176212e-002
3.936000e+003, -2.302174e-002
3.937929e+003, -2.365855e-002
3.939857e+003, -2.340051e-002
3.941786e+003, -2.415646e-002
3.943714e+003, -2.395014e-002
3.945643e+003, -2.313863e-002
3.947571e+003, -2.242132e-002
3.949500e+003, -2.350580e-002
3.951428e+003, -2.377942e-002
3.953357e+003, -2.286114e-002
3.955285e+003, -2.297096e-002
3.957214e+003, -2.318229e-002
3.959142e+003, -2.308176e-002
3.961071e+003, -2.286637e-002
3.962999e+003, -2.269726e-002
3.964927e+003, -2.300038e-002
3.966856e+003, -2.243978e-002
3.968784e+003, -2.228324e-002
3.970713e+003, -2.211600e-002
3.972641e+003, -2.249551e-002
3.974570e+003, -2.210251e-002
3.976498e+003, -2.196415e-002
3.978427e+003, -2.272382e-002
3.980355e+003, -2.256848e-002
3.982284e+003, -2.258918e-002
3.984212e+003, -2.381292e-002
3.986141e+003, -2.524018e-002
3.988069e+003, -2.400514e-002
3.989998e+003, -2.215959e-002
3.991926e+003, -2.217761e-002
3.993854e+003, -2.163297e-002
3.995783e+003, -2.183509e-002
3.997711e+003, -2.265564e-002
3.999640e+003, -2.245047e-002
##END=



