##NAMES=Talc
##RRUFFID=R050087
##IDEAL CHEMISTRY=Mg_3_Si_4_O_10_(OH)_2_
##LOCALITY=St. Lawrence County, New York, USA
##OWNER=RRUFF
##SOURCE=University of Arizona Mineral Museum
##DESCRIPTION=An aggregate of colorless foliated coarse single crystals
##STATUS=The identification of this mineral has been confirmed by X-ray diffraction and chemical analysis
##URL=rruff.info/R050087
##MEASURED CHEMISTRY=(Mg_.998_Fe_.002_)_3_(Si_.997_Al_.003_)_4_O_10_(OH_.966_F_.034_)_2_
3.991926e+002, 3.953514e-001
4.011211e+002, 4.112409e-001
4.030496e+002, 4.132180e-001
4.049780e+002, 4.194625e-001
4.069065e+002, 4.327425e-001
4.088350e+002, 4.532869e-001
4.107634e+002, 4.577819e-001
4.126919e+002, 4.540871e-001
4.146204e+002, 4.587940e-001
4.165488e+002, 4.621433e-001
4.184773e+002, 4.535988e-001
4.204058e+002, 4.351843e-001
4.223342e+002, 4.265240e-001
4.242627e+002, 4.248377e-001
4.261912e+002, 4.142805e-001
4.281196e+002, 4.031846e-001
4.300481e+002, 3.986938e-001
4.319766e+002, 3.991065e-001
4.339050e+002, 3.922549e-001
4.358335e+002, 3.837040e-001
4.377620e+002, 3.746824e-001
4.396904e+002, 3.640213e-001
4.416189e+002, 3.570850e-001
4.435474e+002, 3.527117e-001
4.454758e+002, 3.488515e-001
4.474043e+002, 3.415354e-001
4.493328e+002, 3.317360e-001
4.512612e+002, 3.201118e-001
4.531897e+002, 3.117129e-001
4.551182e+002, 3.085741e-001
4.570466e+002, 3.094146e-001
4.589751e+002, 3.073086e-001
4.609036e+002, 3.006411e-001
4.628320e+002, 2.878087e-001
4.647605e+002, 2.650499e-001
4.666890e+002, 2.405359e-001
4.686174e+002, 2.229748e-001
4.705459e+002, 2.103257e-001
4.724744e+002, 2.005951e-001
4.744028e+002, 1.945186e-001
4.763313e+002, 1.890292e-001
4.782598e+002, 1.841015e-001
4.801882e+002, 1.800000e-001
4.821167e+002, 1.765557e-001
4.840452e+002, 1.740320e-001
4.859736e+002, 1.714055e-001
4.879021e+002, 1.678685e-001
4.898306e+002, 1.657431e-001
4.917590e+002, 1.635277e-001
4.936875e+002, 1.607544e-001
4.956160e+002, 1.587887e-001
4.975444e+002, 1.577982e-001
4.994729e+002, 1.569033e-001
5.014014e+002, 1.577664e-001
5.033298e+002, 1.601683e-001
5.052583e+002, 1.627732e-001
5.071868e+002, 1.654384e-001
5.091152e+002, 1.676596e-001
5.110437e+002, 1.683916e-001
5.129722e+002, 1.693239e-001
5.149006e+002, 1.697426e-001
5.168291e+002, 1.698915e-001
5.187576e+002, 1.701200e-001
5.206860e+002, 1.695954e-001
5.226145e+002, 1.683975e-001
5.245430e+002, 1.657744e-001
5.264714e+002, 1.632013e-001
5.283999e+002, 1.603199e-001
5.303284e+002, 1.563077e-001
5.322568e+002, 1.512130e-001
5.341853e+002, 1.447110e-001
5.361138e+002, 1.384887e-001
5.380422e+002, 1.340853e-001
5.399707e+002, 1.304655e-001
5.418992e+002, 1.293280e-001
5.438276e+002, 1.301636e-001
5.457561e+002, 1.321388e-001
5.476846e+002, 1.351981e-001
5.496130e+002, 1.390746e-001
5.515415e+002, 1.443461e-001
5.534700e+002, 1.505969e-001
5.553984e+002, 1.557893e-001
5.573269e+002, 1.614712e-001
5.592554e+002, 1.667036e-001
5.611838e+002, 1.723363e-001
5.631123e+002, 1.790057e-001
5.650408e+002, 1.854500e-001
5.669692e+002, 1.907465e-001
5.688977e+002, 1.957438e-001
5.708262e+002, 2.012789e-001
5.727546e+002, 2.071117e-001
5.746831e+002, 2.130398e-001
5.766116e+002, 2.193326e-001
5.785400e+002, 2.250330e-001
5.804685e+002, 2.312029e-001
5.823970e+002, 2.382648e-001
5.843254e+002, 2.457801e-001
5.862539e+002, 2.530218e-001
5.881824e+002, 2.590124e-001
5.901108e+002, 2.646287e-001
5.920393e+002, 2.702526e-001
5.939678e+002, 2.749378e-001
5.958962e+002, 2.792596e-001
5.978247e+002, 2.840936e-001
5.997532e+002, 2.880402e-001
6.016816e+002, 2.914585e-001
6.036101e+002, 2.944711e-001
6.055386e+002, 2.965298e-001
6.074670e+002, 2.974810e-001
6.093955e+002, 2.980835e-001
6.113240e+002, 2.981182e-001
6.132524e+002, 2.968069e-001
6.151809e+002, 2.944354e-001
6.171094e+002, 2.913607e-001
6.190378e+002, 2.883328e-001
6.209663e+002, 2.854501e-001
6.228948e+002, 2.813680e-001
6.248232e+002, 2.781801e-001
6.267517e+002, 2.771304e-001
6.286802e+002, 2.792293e-001
6.306086e+002, 2.848872e-001
6.325371e+002, 2.928624e-001
6.344656e+002, 3.013897e-001
6.363940e+002, 3.082472e-001
6.383225e+002, 3.133114e-001
6.402510e+002, 3.167893e-001
6.421794e+002, 3.190258e-001
6.441079e+002, 3.196095e-001
6.460364e+002, 3.204520e-001
6.479648e+002, 3.219869e-001
6.498933e+002, 3.236573e-001
6.518218e+002, 3.256713e-001
6.537502e+002, 3.296494e-001
6.556787e+002, 3.362866e-001
6.576072e+002, 3.455063e-001
6.595356e+002, 3.590373e-001
6.614641e+002, 3.779476e-001
6.633926e+002, 3.976680e-001
6.653210e+002, 4.067039e-001
6.672495e+002, 3.931459e-001
6.691780e+002, 3.601039e-001
6.711064e+002, 3.233359e-001
6.730349e+002, 2.937913e-001
6.749634e+002, 2.744662e-001
6.768918e+002, 2.628762e-001
6.788203e+002, 2.556247e-001
6.807488e+002, 2.480733e-001
6.826772e+002, 2.373012e-001
6.846057e+002, 2.236489e-001
6.865342e+002, 2.102857e-001
6.884626e+002, 1.991591e-001
6.903911e+002, 1.898978e-001
6.923196e+002, 1.827950e-001
6.942480e+002, 1.786319e-001
6.961765e+002, 1.769827e-001
6.981050e+002, 1.773076e-001
7.000334e+002, 1.784289e-001
7.019619e+002, 1.788045e-001
7.038904e+002, 1.787186e-001
7.058188e+002, 1.782030e-001
7.077473e+002, 1.773344e-001
7.096758e+002, 1.762521e-001
7.116042e+002, 1.751739e-001
7.135327e+002, 1.739309e-001
7.154612e+002, 1.724747e-001
7.173896e+002, 1.712062e-001
7.193181e+002, 1.696777e-001
7.212466e+002, 1.681060e-001
7.231750e+002, 1.667147e-001
7.251035e+002, 1.652941e-001
7.270320e+002, 1.637285e-001
7.289604e+002, 1.623489e-001
7.308889e+002, 1.611760e-001
7.328174e+002, 1.600388e-001
7.347458e+002, 1.585771e-001
7.366743e+002, 1.570007e-001
7.386028e+002, 1.556094e-001
7.405313e+002, 1.543465e-001
7.424597e+002, 1.533755e-001
7.443882e+002, 1.523762e-001
7.463167e+002, 1.512179e-001
7.482451e+002, 1.500507e-001
7.501736e+002, 1.494730e-001
7.521021e+002, 1.487345e-001
7.540305e+002, 1.477877e-001
7.559590e+002, 1.471771e-001
7.578875e+002, 1.465700e-001
7.598159e+002, 1.460181e-001
7.617444e+002, 1.453216e-001
7.636729e+002, 1.446380e-001
7.656013e+002, 1.436780e-001
7.675298e+002, 1.425868e-001
7.694583e+002, 1.419716e-001
7.713867e+002, 1.416288e-001
7.733152e+002, 1.412293e-001
7.752437e+002, 1.409638e-001
7.771721e+002, 1.406248e-001
7.791006e+002, 1.400687e-001
7.810291e+002, 1.394242e-001
7.829575e+002, 1.387762e-001
7.848860e+002, 1.380402e-001
7.868145e+002, 1.371650e-001
7.887429e+002, 1.364440e-001
7.906714e+002, 1.356384e-001
7.925999e+002, 1.345001e-001
7.945283e+002, 1.333479e-001
7.964568e+002, 1.326737e-001
7.983853e+002, 1.319711e-001
8.003137e+002, 1.310421e-001
8.022422e+002, 1.302340e-001
8.041707e+002, 1.293409e-001
8.060991e+002, 1.281743e-001
8.080276e+002, 1.272416e-001
8.099561e+002, 1.263444e-001
8.118845e+002, 1.251820e-001
8.138130e+002, 1.242121e-001
8.157415e+002, 1.232937e-001
8.176699e+002, 1.220608e-001
8.195984e+002, 1.211091e-001
8.215269e+002, 1.200775e-001
8.234553e+002, 1.187416e-001
8.253838e+002, 1.175334e-001
8.273123e+002, 1.166726e-001
8.292407e+002, 1.156515e-001
8.311692e+002, 1.141584e-001
8.330977e+002, 1.127948e-001
8.350261e+002, 1.116593e-001
8.369546e+002, 1.102185e-001
8.388831e+002, 1.088342e-001
8.408115e+002, 1.073515e-001
8.427400e+002, 1.062384e-001
8.446685e+002, 1.050340e-001
8.465969e+002, 1.033749e-001
8.485254e+002, 1.020230e-001
8.504539e+002, 1.008409e-001
8.523823e+002, 9.954585e-002
8.543108e+002, 9.831461e-002
8.562393e+002, 9.678560e-002
8.581677e+002, 9.517292e-002
8.600962e+002, 9.401072e-002
8.620247e+002, 9.296741e-002
8.639531e+002, 9.184116e-002
8.658816e+002, 9.080850e-002
8.678101e+002, 8.970194e-002
8.697385e+002, 8.883055e-002
8.716670e+002, 8.831064e-002
8.735955e+002, 8.779042e-002
8.755239e+002, 8.712485e-002
8.774524e+002, 8.681104e-002
8.793809e+002, 8.644878e-002
8.813093e+002, 8.644791e-002
8.832378e+002, 8.673107e-002
8.851663e+002, 8.701789e-002
8.870947e+002, 8.766809e-002
8.890232e+002, 8.885331e-002
8.909517e+002, 8.988258e-002
8.928801e+002, 9.129487e-002
8.948085e+002, 9.314726e-002
8.967370e+002, 9.466582e-002
8.986655e+002, 9.623201e-002
9.005939e+002, 9.854529e-002
9.025224e+002, 1.010579e-001
9.044509e+002, 1.035047e-001
9.063793e+002, 1.061881e-001
9.083078e+002, 1.094126e-001
9.102363e+002, 1.130505e-001
9.121647e+002, 1.167648e-001
9.140932e+002, 1.209171e-001
9.160217e+002, 1.257268e-001
9.179501e+002, 1.308197e-001
9.198786e+002, 1.365465e-001
9.218071e+002, 1.429846e-001
9.237355e+002, 1.501409e-001
9.256640e+002, 1.577764e-001
9.275925e+002, 1.659344e-001
9.295209e+002, 1.750456e-001
9.314494e+002, 1.852699e-001
9.333779e+002, 1.966116e-001
9.353063e+002, 2.088977e-001
9.372348e+002, 2.222791e-001
9.391633e+002, 2.367558e-001
9.410917e+002, 2.520734e-001
9.430202e+002, 2.685471e-001
9.449487e+002, 2.859111e-001
9.468771e+002, 3.032830e-001
9.488056e+002, 3.203775e-001
9.507341e+002, 3.370331e-001
9.526625e+002, 3.532042e-001
9.545910e+002, 3.695339e-001
9.565195e+002, 3.860069e-001
9.584479e+002, 4.032136e-001
9.603764e+002, 4.206228e-001
9.623049e+002, 4.380172e-001
9.642333e+002, 4.554318e-001
9.661618e+002, 4.728207e-001
9.680903e+002, 4.897122e-001
9.700187e+002, 5.068418e-001
9.719472e+002, 5.244508e-001
9.738757e+002, 5.413970e-001
9.758041e+002, 5.578789e-001
9.777326e+002, 5.741493e-001
9.796611e+002, 5.894948e-001
9.815895e+002, 6.049806e-001
9.835180e+002, 6.209011e-001
9.854465e+002, 6.360005e-001
9.873749e+002, 6.491815e-001
9.893034e+002, 6.610167e-001
9.912319e+002, 6.715786e-001
9.931603e+002, 6.803877e-001
9.950888e+002, 6.878647e-001
9.970173e+002, 6.927295e-001
9.989457e+002, 6.957554e-001
1.000874e+003, 6.973309e-001
1.002803e+003, 6.965176e-001
1.004731e+003, 6.933385e-001
1.006660e+003, 6.861973e-001
1.008588e+003, 6.730804e-001
1.010517e+003, 6.545069e-001
1.012445e+003, 6.308000e-001
1.014373e+003, 6.015589e-001
1.016302e+003, 5.680133e-001
1.018230e+003, 5.314905e-001
1.020159e+003, 4.930888e-001
1.022087e+003, 4.538735e-001
1.024016e+003, 4.154409e-001
1.025944e+003, 3.796637e-001
1.027873e+003, 3.472808e-001
1.029801e+003, 3.183501e-001
1.031730e+003, 2.924021e-001
1.033658e+003, 2.687195e-001
1.035587e+003, 2.473141e-001
1.037515e+003, 2.277079e-001
1.039444e+003, 2.095167e-001
1.041372e+003, 1.930290e-001
1.043301e+003, 1.781264e-001
1.045229e+003, 1.652498e-001
1.047157e+003, 1.544046e-001
1.049086e+003, 1.452893e-001
1.051014e+003, 1.382862e-001
1.052943e+003, 1.335684e-001
1.054871e+003, 1.310240e-001
1.056800e+003, 1.296489e-001
1.058728e+003, 1.285982e-001
1.060657e+003, 1.274768e-001
1.062585e+003, 1.259173e-001
1.064514e+003, 1.238256e-001
1.066442e+003, 1.214381e-001
1.068371e+003, 1.189918e-001
1.070299e+003, 1.165818e-001
1.072228e+003, 1.141077e-001
1.074156e+003, 1.113121e-001
1.076084e+003, 1.083919e-001
1.078013e+003, 1.054446e-001
1.079941e+003, 1.025355e-001
1.081870e+003, 9.957710e-002
1.083798e+003, 9.651931e-002
1.085727e+003, 9.358829e-002
1.087655e+003, 9.097207e-002
1.089584e+003, 8.841422e-002
1.091512e+003, 8.568566e-002
1.093441e+003, 8.312530e-002
1.095369e+003, 8.079702e-002
1.097298e+003, 7.830022e-002
1.099226e+003, 7.547438e-002
1.101155e+003, 7.253982e-002
1.103083e+003, 6.960570e-002
1.105011e+003, 6.667086e-002
1.106940e+003, 6.351297e-002
1.108868e+003, 6.079756e-002
1.110797e+003, 5.865800e-002
1.112725e+003, 5.644318e-002
1.114654e+003, 5.395932e-002
1.116582e+003, 5.176047e-002
1.118511e+003, 4.960958e-002
1.120439e+003, 4.748861e-002
1.122368e+003, 4.541840e-002
1.124296e+003, 4.350664e-002
1.126225e+003, 4.181025e-002
1.128153e+003, 4.006365e-002
1.130082e+003, 3.832836e-002
1.132010e+003, 3.657272e-002
1.133938e+003, 3.495902e-002
1.135867e+003, 3.352552e-002
1.137795e+003, 3.210679e-002
1.139724e+003, 3.072087e-002
1.141652e+003, 2.934203e-002
1.143581e+003, 2.805104e-002
1.145509e+003, 2.701359e-002
1.147438e+003, 2.590200e-002
1.149366e+003, 2.456803e-002
1.151295e+003, 2.327829e-002
1.153223e+003, 2.241687e-002
1.155152e+003, 2.173854e-002
1.157080e+003, 2.085849e-002
1.159009e+003, 2.032302e-002
1.160937e+003, 1.977143e-002
1.162865e+003, 1.902874e-002
1.164794e+003, 1.833020e-002
1.166722e+003, 1.769751e-002
1.168651e+003, 1.716951e-002
1.170579e+003, 1.682682e-002
1.172508e+003, 1.629118e-002
1.174436e+003, 1.572249e-002
1.176365e+003, 1.544116e-002
1.178293e+003, 1.513720e-002
1.180222e+003, 1.464480e-002
1.182150e+003, 1.430935e-002
1.184079e+003, 1.422442e-002
1.186007e+003, 1.394073e-002
1.187936e+003, 1.357007e-002
1.189864e+003, 1.349253e-002
1.191792e+003, 1.331499e-002
1.193721e+003, 1.291078e-002
1.195649e+003, 1.256935e-002
1.197578e+003, 1.227563e-002
1.199506e+003, 1.217057e-002
1.201435e+003, 1.199503e-002
1.203363e+003, 1.176614e-002
1.205292e+003, 1.163989e-002
1.207220e+003, 1.137006e-002
1.209149e+003, 1.103688e-002
1.211077e+003, 1.073231e-002
1.213006e+003, 1.048603e-002
1.214934e+003, 1.011382e-002
1.216863e+003, 9.806060e-003
1.218791e+003, 9.707930e-003
1.220719e+003, 9.478218e-003
1.222648e+003, 9.092319e-003
1.224576e+003, 8.871214e-003
1.226505e+003, 8.904621e-003
1.228433e+003, 8.877912e-003
1.230362e+003, 8.713352e-003
1.232290e+003, 8.448480e-003
1.234219e+003, 7.956442e-003
1.236147e+003, 7.610905e-003
1.238076e+003, 7.455408e-003
1.240004e+003, 7.442720e-003
1.241933e+003, 7.375301e-003
1.243861e+003, 7.219395e-003
1.245790e+003, 7.145515e-003
1.247718e+003, 6.862355e-003
1.249646e+003, 6.641428e-003
1.251575e+003, 6.741700e-003
1.253503e+003, 6.737073e-003
1.255432e+003, 6.556774e-003
1.257360e+003, 6.255444e-003
1.259289e+003, 6.118879e-003
1.261217e+003, 6.279171e-003
1.263146e+003, 6.016374e-003
1.265074e+003, 5.805052e-003
1.267003e+003, 5.978779e-003
1.268931e+003, 6.004517e-003
1.270860e+003, 6.044762e-003
1.272788e+003, 6.142518e-003
1.274717e+003, 6.135744e-003
1.276645e+003, 5.977621e-003
1.278573e+003, 5.947220e-003
1.280502e+003, 5.980729e-003
1.282430e+003, 6.157184e-003
1.284359e+003, 6.185774e-003
1.286287e+003, 6.129180e-003
1.288216e+003, 6.378539e-003
1.290144e+003, 6.523077e-003
1.292073e+003, 6.388767e-003
1.294001e+003, 6.373908e-003
1.295930e+003, 6.450372e-003
1.297858e+003, 6.359864e-003
1.299787e+003, 6.144635e-003
1.301715e+003, 6.140987e-003
1.303644e+003, 6.398551e-003
1.305572e+003, 6.453085e-003
1.307500e+003, 6.041748e-003
1.309429e+003, 5.802510e-003
1.311357e+003, 5.972846e-003
1.313286e+003, 6.060663e-003
1.315214e+003, 6.058772e-003
1.317143e+003, 6.153994e-003
1.319071e+003, 6.163996e-003
1.321000e+003, 6.006376e-003
1.322928e+003, 5.857639e-003
1.324857e+003, 5.763955e-003
1.326785e+003, 5.881805e-003
1.328714e+003, 6.056805e-003
1.330642e+003, 5.844609e-003
1.332571e+003, 5.615175e-003
1.334499e+003, 5.480385e-003
1.336427e+003, 5.341994e-003
1.338356e+003, 5.374930e-003
1.340284e+003, 5.489875e-003
1.342213e+003, 5.453014e-003
1.344141e+003, 5.365640e-003
1.346070e+003, 5.291594e-003
1.347998e+003, 5.369105e-003
1.349927e+003, 5.412923e-003
1.351855e+003, 5.420548e-003
1.353784e+003, 5.570409e-003
1.355712e+003, 5.679664e-003
1.357641e+003, 5.674788e-003
1.359569e+003, 5.701491e-003
1.361498e+003, 5.694140e-003
1.363426e+003, 5.547049e-003
1.365354e+003, 5.386486e-003
1.367283e+003, 5.615583e-003
1.369211e+003, 6.009669e-003
1.371140e+003, 6.327468e-003
1.373068e+003, 7.025991e-003
1.374997e+003, 8.091578e-003
1.376925e+003, 8.547305e-003
1.378854e+003, 7.899103e-003
1.380782e+003, 6.817832e-003
1.382711e+003, 6.077172e-003
1.384639e+003, 5.704334e-003
1.386568e+003, 5.666324e-003
1.388496e+003, 5.542265e-003
1.390424e+003, 5.291340e-003
1.392353e+003, 5.270825e-003
1.394281e+003, 5.312249e-003
1.396210e+003, 5.406250e-003
1.398138e+003, 5.589188e-003
1.400067e+003, 5.627902e-003
1.401995e+003, 5.418406e-003
1.403924e+003, 5.200862e-003
1.405852e+003, 5.190675e-003
1.407781e+003, 5.506473e-003
1.409709e+003, 6.051110e-003
1.411638e+003, 5.972704e-003
1.413566e+003, 5.716516e-003
1.415495e+003, 5.525139e-003
1.417423e+003, 5.474747e-003
1.419351e+003, 5.605862e-003
1.421280e+003, 5.719466e-003
1.423208e+003, 5.569019e-003
1.425137e+003, 5.561525e-003
1.427065e+003, 5.535909e-003
1.428994e+003, 5.361821e-003
1.430922e+003, 5.314692e-003
1.432851e+003, 5.381849e-003
1.434779e+003, 5.435867e-003
1.436708e+003, 5.550647e-003
1.438636e+003, 5.716756e-003
1.440565e+003, 5.634625e-003
1.442493e+003, 5.265742e-003
1.444422e+003, 5.262908e-003
1.446350e+003, 5.421130e-003
1.448278e+003, 5.646944e-003
1.450207e+003, 5.768618e-003
1.452135e+003, 6.008442e-003
1.454064e+003, 6.227390e-003
1.455992e+003, 5.970926e-003
1.457921e+003, 5.681890e-003
1.459849e+003, 5.760869e-003
1.461778e+003, 5.760582e-003
1.463706e+003, 5.325617e-003
1.465635e+003, 4.993166e-003
1.467563e+003, 4.673840e-003
1.469492e+003, 4.405777e-003
1.471420e+003, 4.282650e-003
1.473349e+003, 4.210051e-003
1.475277e+003, 3.957647e-003
1.477205e+003, 3.598543e-003
1.479134e+003, 3.488624e-003
1.481062e+003, 3.315739e-003
1.482991e+003, 3.337991e-003
1.484919e+003, 3.342332e-003
1.486848e+003, 3.225046e-003
1.488776e+003, 3.177941e-003
1.490705e+003, 3.153197e-003
1.492633e+003, 3.333015e-003
1.494562e+003, 3.560466e-003
1.496490e+003, 3.389735e-003
1.498419e+003, 3.356941e-003
1.500347e+003, 3.509444e-003
1.502276e+003, 3.537870e-003
1.504204e+003, 3.528152e-003
1.506132e+003, 3.490319e-003
1.508061e+003, 3.687083e-003
1.509989e+003, 3.706346e-003
1.511918e+003, 3.641149e-003
1.513846e+003, 3.853194e-003
1.515775e+003, 4.049455e-003
1.517703e+003, 4.073241e-003
1.519632e+003, 3.893535e-003
1.521560e+003, 3.895476e-003
1.523489e+003, 4.002380e-003
1.525417e+003, 3.983239e-003
1.527346e+003, 4.266404e-003
1.529274e+003, 4.589441e-003
1.531203e+003, 4.667252e-003
1.533131e+003, 4.829903e-003
1.535059e+003, 4.992559e-003
1.536988e+003, 4.799350e-003
1.538916e+003, 4.746953e-003
1.540845e+003, 4.905794e-003
1.542773e+003, 5.264261e-003
1.544702e+003, 5.428043e-003
1.546630e+003, 5.464307e-003
1.548559e+003, 5.489232e-003
1.550487e+003, 5.602005e-003
1.552416e+003, 5.615207e-003
1.554344e+003, 5.469399e-003
1.556273e+003, 5.521338e-003
1.558201e+003, 5.302747e-003
1.560130e+003, 5.193923e-003
1.562058e+003, 5.385224e-003
1.563986e+003, 5.527744e-003
1.565915e+003, 5.421244e-003
1.567843e+003, 5.589778e-003
1.569772e+003, 5.870351e-003
1.571700e+003, 5.759456e-003
1.573629e+003, 5.506640e-003
1.575557e+003, 5.378946e-003
1.577486e+003, 5.620982e-003
1.579414e+003, 5.805099e-003
1.581343e+003, 5.567757e-003
1.583271e+003, 5.443485e-003
1.585200e+003, 5.430313e-003
1.587128e+003, 5.453707e-003
1.589057e+003, 5.233913e-003
1.590985e+003, 5.212385e-003
1.592913e+003, 5.368687e-003
1.594842e+003, 5.639848e-003
1.596770e+003, 5.985550e-003
1.598699e+003, 5.880448e-003
1.600627e+003, 5.686495e-003
1.602556e+003, 5.691072e-003
1.604484e+003, 5.635440e-003
1.606413e+003, 5.645874e-003
1.608341e+003, 5.795090e-003
1.610270e+003, 5.771288e-003
1.612198e+003, 5.776023e-003
1.614127e+003, 5.889513e-003
1.616055e+003, 5.847587e-003
1.617984e+003, 6.004564e-003
1.619912e+003, 6.405094e-003
1.621840e+003, 6.678414e-003
1.623769e+003, 6.471791e-003
1.625697e+003, 6.345317e-003
1.627626e+003, 6.672394e-003
1.629554e+003, 7.016619e-003
1.631483e+003, 7.006558e-003
1.633411e+003, 7.238503e-003
1.635340e+003, 7.490087e-003
1.637268e+003, 7.612330e-003
1.639197e+003, 7.789060e-003
1.641125e+003, 8.208048e-003
1.643054e+003, 8.614701e-003
1.644982e+003, 8.560088e-003
1.646911e+003, 8.364987e-003
1.648839e+003, 8.682799e-003
1.650767e+003, 8.798475e-003
1.652696e+003, 8.277172e-003
1.654624e+003, 8.182862e-003
1.656553e+003, 8.406465e-003
1.658481e+003, 8.593017e-003
1.660410e+003, 8.641785e-003
1.662338e+003, 8.508320e-003
1.664267e+003, 8.211551e-003
1.666195e+003, 8.212542e-003
1.668124e+003, 7.968028e-003
1.670052e+003, 7.682917e-003
1.671981e+003, 7.858791e-003
1.673909e+003, 7.739358e-003
1.675838e+003, 7.457026e-003
1.677766e+003, 7.292605e-003
1.679694e+003, 7.257542e-003
1.681623e+003, 7.178234e-003
1.683551e+003, 6.856678e-003
1.685480e+003, 6.527870e-003
1.687408e+003, 6.325248e-003
1.689337e+003, 5.920131e-003
1.691265e+003, 5.654200e-003
1.693194e+003, 5.482771e-003
1.695122e+003, 5.460031e-003
1.697051e+003, 5.420489e-003
1.698979e+003, 5.275990e-003
1.700908e+003, 5.028814e-003
1.702836e+003, 5.066981e-003
1.704765e+003, 5.162871e-003
1.706693e+003, 5.050056e-003
1.708621e+003, 4.920455e-003
1.710550e+003, 4.843400e-003
1.712478e+003, 4.677779e-003
1.714407e+003, 4.503550e-003
1.716335e+003, 4.538127e-003
1.718264e+003, 4.571345e-003
1.720192e+003, 4.181304e-003
1.722121e+003, 4.002281e-003
1.724049e+003, 3.963418e-003
1.725978e+003, 3.699330e-003
1.727906e+003, 3.702507e-003
1.729835e+003, 3.453422e-003
1.731763e+003, 3.002260e-003
1.733692e+003, 2.317710e-003
1.735620e+003, 2.132328e-003
1.737548e+003, 1.972737e-003
1.739477e+003, 1.253648e-003
1.741405e+003, 8.276436e-004
1.743334e+003, 9.928867e-004
1.745262e+003, 8.700441e-004
1.747191e+003, 8.859041e-004
1.749119e+003, 1.294469e-003
1.751048e+003, 1.628906e-003
1.752976e+003, 2.401569e-003
1.754905e+003, 2.906687e-003
1.756833e+003, 3.098831e-003
1.758762e+003, 3.360277e-003
1.760690e+003, 3.665775e-003
1.762619e+003, 3.742037e-003
1.764547e+003, 3.651788e-003
1.766475e+003, 3.650761e-003
1.768404e+003, 3.988502e-003
1.770332e+003, 4.310881e-003
1.772261e+003, 4.028460e-003
1.774189e+003, 3.787267e-003
1.776118e+003, 4.118438e-003
1.778046e+003, 4.163997e-003
1.779975e+003, 3.913402e-003
1.781903e+003, 3.633594e-003
1.783832e+003, 3.466579e-003
1.785760e+003, 3.652956e-003
1.787689e+003, 4.127469e-003
1.789617e+003, 4.357253e-003
1.791546e+003, 4.319229e-003
1.793474e+003, 4.515636e-003
1.795402e+003, 4.702362e-003
1.797331e+003, 4.698914e-003
1.799259e+003, 4.857528e-003
1.801188e+003, 4.761510e-003
1.803116e+003, 4.584416e-003
1.805045e+003, 4.826700e-003
1.806973e+003, 4.970709e-003
1.808902e+003, 4.989430e-003
1.810830e+003, 5.139823e-003
1.812759e+003, 5.022342e-003
1.814687e+003, 5.002995e-003
1.816616e+003, 4.993936e-003
1.818544e+003, 5.083920e-003
1.820473e+003, 5.216224e-003
1.822401e+003, 5.402346e-003
1.824329e+003, 4.950191e-003
1.826258e+003, 4.501407e-003
1.828186e+003, 4.754005e-003
1.830115e+003, 5.075435e-003
1.832043e+003, 4.571213e-003
1.833972e+003, 4.219616e-003
1.835900e+003, 4.305308e-003
1.837829e+003, 4.853456e-003
1.839757e+003, 4.531779e-003
1.841686e+003, 3.789857e-003
1.843614e+003, 3.983138e-003
1.845543e+003, 4.048733e-003
1.847471e+003, 3.503123e-003
1.849400e+003, 3.370582e-003
1.851328e+003, 3.561389e-003
1.853256e+003, 3.538822e-003
1.855185e+003, 3.101143e-003
1.857113e+003, 3.174779e-003
1.859042e+003, 3.125116e-003
1.860970e+003, 3.173988e-003
1.862899e+003, 3.025962e-003
1.864827e+003, 3.168037e-003
1.866756e+003, 3.031896e-003
1.868684e+003, 2.931173e-003
1.870613e+003, 3.373859e-003
1.872541e+003, 3.337666e-003
1.874470e+003, 3.122251e-003
1.876398e+003, 3.767626e-003
1.878327e+003, 3.403232e-003
1.880255e+003, 2.685257e-003
1.882183e+003, 2.291661e-003
1.884112e+003, 2.002828e-003
1.886040e+003, 1.775844e-003
1.887969e+003, 1.676268e-003
1.889897e+003, 1.737796e-003
1.891826e+003, 1.682092e-003
1.893754e+003, 1.503155e-003
1.895683e+003, 1.192362e-003
1.897611e+003, 1.065862e-003
1.899540e+003, 1.770442e-003
1.901468e+003, 1.761795e-003
1.903397e+003, 1.547524e-003
1.905325e+003, 1.733991e-003
1.907254e+003, 9.845285e-004
1.909182e+003, 1.341904e-003
1.911110e+003, 1.912551e-003
1.913039e+003, 1.343991e-003
1.914967e+003, 3.548848e-004
1.916896e+003, -1.118234e-005
1.918824e+003, 3.027801e-004
1.920753e+003, 8.674328e-004
1.922681e+003, 1.670833e-003
1.924610e+003, 1.696861e-003
1.926538e+003, 8.342896e-004
1.928467e+003, 1.078826e-003
1.930395e+003, 1.138504e-003
1.932324e+003, 4.728396e-004
1.934252e+003, -7.276682e-005
1.936181e+003, -2.093381e-004
1.938109e+003, -7.259795e-004
1.940037e+003, -1.718070e-003
1.941966e+003, -1.781829e-003
1.943894e+003, -1.568514e-003
1.945823e+003, -1.077413e-003
1.947751e+003, -1.490542e-003
1.949680e+003, -2.481712e-003
1.951608e+003, -2.898530e-003
1.953537e+003, -3.794558e-003
1.955465e+003, -4.858365e-003
1.957394e+003, -5.479628e-003
1.959322e+003, -5.040452e-003
1.961251e+003, -5.262221e-003
1.963179e+003, -6.191028e-003
1.965108e+003, -6.701335e-003
1.967036e+003, -7.868652e-003
1.968964e+003, -8.695914e-003
1.970893e+003, -6.590659e-003
1.972821e+003, -6.645134e-003
1.974750e+003, -6.923947e-003
1.976678e+003, -5.108576e-003
1.978607e+003, -4.622689e-003
1.980535e+003, -5.086141e-003
1.982464e+003, -5.832839e-003
1.984392e+003, -6.858844e-003
1.986321e+003, -6.332628e-003
1.988249e+003, -4.716140e-003
1.990178e+003, -5.416805e-003
1.992106e+003, -4.580754e-003
1.994035e+003, -4.719515e-003
1.995963e+003, -6.213241e-003
1.997891e+003, -6.087520e-003
1.999820e+003, -5.125741e-003
2.001748e+003, -6.843472e-003
2.003677e+003, -8.695719e-003
2.005605e+003, -8.885377e-003
2.007534e+003, -9.416263e-003
2.009462e+003, -8.972950e-003
2.011391e+003, -6.438790e-003
2.013319e+003, -6.128687e-003
2.015248e+003, -7.893929e-003
2.017176e+003, -7.579694e-003
2.019105e+003, -7.835155e-003
2.021033e+003, -9.075272e-003
2.022962e+003, -1.041863e-002
2.024890e+003, -9.926842e-003
2.026818e+003, -8.851227e-003
2.028747e+003, -7.512830e-003
2.030675e+003, -7.589662e-003
2.032604e+003, -8.924465e-003
2.034532e+003, -7.970896e-003
2.036461e+003, -7.338858e-003
2.038389e+003, -8.532954e-003
2.040318e+003, -7.579056e-003
2.042246e+003, -6.173152e-003
2.044175e+003, -5.505670e-003
2.046103e+003, -5.370460e-003
2.048032e+003, -4.329058e-003
2.049960e+003, -4.510575e-003
2.051889e+003, -6.135017e-003
2.053817e+003, -6.458291e-003
2.055746e+003, -6.135274e-003
2.057674e+003, -5.243244e-003
2.059603e+003, -5.125355e-003
2.061531e+003, -4.531404e-003
2.063459e+003, -3.104958e-003
2.065388e+003, -2.705554e-003
2.067316e+003, -2.932797e-003
2.069245e+003, -2.976524e-003
2.071173e+003, -2.783635e-003
2.073102e+003, -1.495729e-003
2.075030e+003, -6.543746e-004
2.076959e+003, -6.133366e-004
2.078887e+003, -7.496758e-004
2.080816e+003, -1.100396e-003
2.082744e+003, -1.571866e-003
2.084673e+003, -9.264884e-004
2.086601e+003, -3.472431e-004
2.088530e+003, -5.628999e-004
2.090458e+003, -8.840054e-004
2.092386e+003, -1.002648e-003
2.094315e+003, 5.898688e-004
2.096243e+003, 1.102175e-003
2.098172e+003, 7.886575e-004
2.100100e+003, 4.516550e-004
2.102029e+003, 6.571207e-004
2.103957e+003, 1.179872e-003
2.105886e+003, 1.239904e-003
2.107814e+003, 8.933211e-004
2.109743e+003, 9.231187e-004
2.111671e+003, 1.514102e-003
2.113600e+003, 2.017313e-003
2.115528e+003, 1.923078e-003
2.117457e+003, 8.764793e-004
2.119385e+003, 1.468907e-004
2.121313e+003, 1.885144e-004
2.123242e+003, 3.210307e-004
2.125170e+003, -1.421852e-003
2.127099e+003, -2.414954e-003
2.129027e+003, -2.501821e-003
2.130956e+003, -2.680197e-003
2.132884e+003, -3.379011e-003
2.134813e+003, -2.476746e-003
2.136741e+003, -1.197593e-003
2.138670e+003, -1.465889e-003
2.140598e+003, -2.502519e-003
2.142527e+003, -3.330700e-003
2.144455e+003, -2.331525e-003
2.146384e+003, -1.655789e-003
2.148312e+003, -2.932602e-003
2.150240e+003, -3.345689e-003
2.152169e+003, -2.673456e-003
2.154097e+003, -5.330525e-003
2.156026e+003, -5.545769e-003
2.157954e+003, -4.485178e-003
2.159883e+003, -3.216852e-003
2.161811e+003, -1.834354e-003
2.163740e+003, -1.208457e-003
2.165668e+003, -2.036151e-003
2.167597e+003, -2.087671e-003
2.169525e+003, -1.328214e-004
2.171454e+003, 1.167275e-003
2.173382e+003, -9.238768e-004
2.175311e+003, -1.837770e-003
2.177239e+003, -1.082634e-003
2.179167e+003, -1.650804e-003
2.181096e+003, -5.687393e-004
2.183024e+003, 1.661449e-003
2.184953e+003, 1.733336e-003
2.186881e+003, 1.443037e-004
2.188810e+003, 1.334402e-003
2.190738e+003, 2.024710e-003
2.192667e+003, 1.020341e-003
2.194595e+003, 1.559379e-003
2.196524e+003, 1.173394e-003
2.198452e+003, -2.949230e-004
2.200381e+003, 1.016241e-003
2.202309e+003, 2.972875e-003
2.204238e+003, 2.972653e-003
2.206166e+003, 2.377145e-003
2.208094e+003, 2.653966e-003
2.210023e+003, 2.444700e-003
2.211951e+003, 1.898237e-003
2.213880e+003, 1.431056e-003
2.215808e+003, 2.320107e-003
2.217737e+003, 1.964869e-003
2.219665e+003, 9.771107e-004
2.221594e+003, 1.145812e-003
2.223522e+003, 2.450128e-003
2.225451e+003, 2.348379e-003
2.227379e+003, 2.931984e-003
2.229308e+003, 3.680205e-003
2.231236e+003, 3.753929e-003
2.233165e+003, 2.894456e-003
2.235093e+003, 3.076882e-003
2.237021e+003, 3.727055e-003
2.238950e+003, 2.737168e-003
2.240878e+003, 2.657911e-003
2.242807e+003, 4.438443e-003
2.244735e+003, 4.222154e-003
2.246664e+003, 2.658639e-003
2.248592e+003, 2.988331e-003
2.250521e+003, 3.409743e-003
2.252449e+003, 2.882601e-003
2.254378e+003, 3.571310e-003
2.256306e+003, 4.692869e-003
2.258235e+003, 4.826317e-003
2.260163e+003, 4.840199e-003
2.262092e+003, 4.056664e-003
2.264020e+003, 3.841526e-003
2.265948e+003, 4.289239e-003
2.267877e+003, 3.801624e-003
2.269805e+003, 3.669556e-003
2.271734e+003, 4.323984e-003
2.273662e+003, 3.976118e-003
2.275591e+003, 3.612603e-003
2.277519e+003, 4.170161e-003
2.279448e+003, 4.131445e-003
2.281376e+003, 4.542332e-003
2.283305e+003, 5.230446e-003
2.285233e+003, 5.471276e-003
2.287162e+003, 4.669842e-003
2.289090e+003, 3.917156e-003
2.291019e+003, 4.161140e-003
2.292947e+003, 4.541755e-003
2.294875e+003, 4.916730e-003
2.296804e+003, 4.972946e-003
2.298732e+003, 4.349298e-003
2.300661e+003, 4.106867e-003
2.302589e+003, 4.453445e-003
2.304518e+003, 4.826843e-003
2.306446e+003, 4.544754e-003
2.308375e+003, 4.321518e-003
2.310303e+003, 4.143269e-003
2.312232e+003, 4.158860e-003
2.314160e+003, 4.707982e-003
2.316089e+003, 5.023872e-003
2.318017e+003, 5.345044e-003
2.319946e+003, 5.470337e-003
2.321874e+003, 5.732826e-003
2.323802e+003, 5.798103e-003
2.325731e+003, 5.008826e-003
2.327659e+003, 4.108606e-003
2.329588e+003, 3.771531e-003
2.331516e+003, 4.149620e-003
2.333445e+003, 4.529939e-003
2.335373e+003, 3.932228e-003
2.337302e+003, 3.599808e-003
2.339230e+003, 3.602905e-003
2.341159e+003, 3.552986e-003
2.343087e+003, 3.646879e-003
2.345016e+003, 3.479755e-003
2.346944e+003, 3.275309e-003
2.348873e+003, 3.497018e-003
2.350801e+003, 3.874393e-003
2.352729e+003, 3.866436e-003
2.354658e+003, 3.918900e-003
2.356586e+003, 4.315692e-003
2.358515e+003, 4.326459e-003
2.360443e+003, 3.420567e-003
2.362372e+003, 3.083120e-003
2.364300e+003, 3.485764e-003
2.366229e+003, 3.816670e-003
2.368157e+003, 4.132228e-003
2.370086e+003, 4.108483e-003
2.372014e+003, 3.599752e-003
2.373942e+003, 3.643668e-003
2.375871e+003, 3.953482e-003
2.377799e+003, 4.208449e-003
2.379728e+003, 4.114160e-003
2.381656e+003, 3.748449e-003
2.383585e+003, 3.923150e-003
2.385513e+003, 4.380185e-003
2.387442e+003, 4.849853e-003
2.389370e+003, 5.078651e-003
2.391299e+003, 4.463951e-003
2.393227e+003, 4.280834e-003
2.395156e+003, 4.531856e-003
2.397084e+003, 4.274532e-003
2.399012e+003, 4.044361e-003
2.400941e+003, 4.307346e-003
2.402869e+003, 4.117746e-003
2.404798e+003, 3.724966e-003
2.406726e+003, 3.632460e-003
2.408655e+003, 4.483650e-003
2.410583e+003, 5.599141e-003
2.412512e+003, 5.774817e-003
2.414440e+003, 4.710920e-003
2.416369e+003, 4.584088e-003
2.418297e+003, 5.026616e-003
2.420226e+003, 4.855031e-003
2.422154e+003, 4.631927e-003
2.424083e+003, 5.192122e-003
2.426011e+003, 5.412433e-003
2.427939e+003, 5.448458e-003
2.429868e+003, 5.592630e-003
2.431796e+003, 5.268961e-003
2.433725e+003, 5.267350e-003
2.435653e+003, 5.218818e-003
2.437582e+003, 4.812543e-003
2.439510e+003, 4.884956e-003
2.441439e+003, 5.610327e-003
2.443367e+003, 5.591857e-003
2.445296e+003, 5.237674e-003
2.447224e+003, 6.149917e-003
2.449153e+003, 6.640884e-003
2.451081e+003, 5.894903e-003
2.453010e+003, 5.377143e-003
2.454938e+003, 6.004474e-003
2.456866e+003, 5.977367e-003
2.458795e+003, 5.728424e-003
2.460723e+003, 5.116634e-003
2.462652e+003, 4.346529e-003
2.464580e+003, 5.029402e-003
2.466509e+003, 5.686531e-003
2.468437e+003, 5.761422e-003
2.470366e+003, 5.933127e-003
2.472294e+003, 5.221886e-003
2.474223e+003, 5.109757e-003
2.476151e+003, 5.942969e-003
2.478080e+003, 5.766102e-003
2.480008e+003, 4.656798e-003
2.481937e+003, 4.875518e-003
2.483865e+003, 5.003368e-003
2.485793e+003, 4.645948e-003
2.487722e+003, 5.140649e-003
2.489650e+003, 5.748814e-003
2.491579e+003, 5.749232e-003
2.493507e+003, 5.731740e-003
2.495436e+003, 5.674392e-003
2.497364e+003, 5.460650e-003
2.499293e+003, 5.300503e-003
2.501221e+003, 5.307429e-003
2.503150e+003, 5.452875e-003
2.505078e+003, 6.090613e-003
2.507007e+003, 6.207271e-003
2.508935e+003, 5.938447e-003
2.510864e+003, 5.900957e-003
2.512792e+003, 5.910346e-003
2.514720e+003, 6.103406e-003
2.516649e+003, 6.220228e-003
2.518577e+003, 5.799961e-003
2.520506e+003, 5.774787e-003
2.522434e+003, 6.143059e-003
2.524363e+003, 7.167568e-003
2.526291e+003, 6.994252e-003
2.528220e+003, 6.314597e-003
2.530148e+003, 6.260712e-003
2.532077e+003, 6.499685e-003
2.534005e+003, 6.456461e-003
2.535934e+003, 6.233327e-003
2.537862e+003, 6.124250e-003
2.539791e+003, 6.016679e-003
2.541719e+003, 5.478295e-003
2.543647e+003, 5.029615e-003
2.545576e+003, 4.871967e-003
2.547504e+003, 5.185685e-003
2.549433e+003, 5.261820e-003
2.551361e+003, 5.381490e-003
2.553290e+003, 6.387210e-003
2.555218e+003, 6.574130e-003
2.557147e+003, 6.109973e-003
2.559075e+003, 6.287749e-003
2.561004e+003, 6.179022e-003
2.562932e+003, 5.923818e-003
2.564861e+003, 5.891030e-003
2.566789e+003, 5.228473e-003
2.568718e+003, 5.788398e-003
2.570646e+003, 6.710288e-003
2.572574e+003, 6.995403e-003
2.574503e+003, 7.135205e-003
2.576431e+003, 6.684677e-003
2.578360e+003, 6.617939e-003
2.580288e+003, 6.471449e-003
2.582217e+003, 7.155200e-003
2.584145e+003, 7.200107e-003
2.586074e+003, 6.204107e-003
2.588002e+003, 6.701960e-003
2.589931e+003, 7.276851e-003
2.591859e+003, 7.225670e-003
2.593788e+003, 6.897432e-003
2.595716e+003, 6.806372e-003
2.597645e+003, 6.639393e-003
2.599573e+003, 6.389232e-003
2.601501e+003, 6.383693e-003
2.603430e+003, 5.804777e-003
2.605358e+003, 5.896621e-003
2.607287e+003, 6.413025e-003
2.609215e+003, 6.371153e-003
2.611144e+003, 6.447331e-003
2.613072e+003, 6.323184e-003
2.615001e+003, 6.430147e-003
2.616929e+003, 6.686214e-003
2.618858e+003, 6.526176e-003
2.620786e+003, 6.896653e-003
2.622715e+003, 7.476821e-003
2.624643e+003, 7.581072e-003
2.626572e+003, 8.060955e-003
2.628500e+003, 8.276618e-003
2.630428e+003, 7.975618e-003
2.632357e+003, 7.374271e-003
2.634285e+003, 6.585476e-003
2.636214e+003, 6.252368e-003
2.638142e+003, 6.668234e-003
2.640071e+003, 6.624228e-003
2.641999e+003, 6.605275e-003
2.643928e+003, 6.908420e-003
2.645856e+003, 7.139790e-003
2.647785e+003, 7.427672e-003
2.649713e+003, 7.229147e-003
2.651642e+003, 6.743845e-003
2.653570e+003, 6.552153e-003
2.655499e+003, 7.005569e-003
2.657427e+003, 7.228536e-003
2.659355e+003, 6.615235e-003
2.661284e+003, 6.113899e-003
2.663212e+003, 6.014362e-003
2.665141e+003, 6.789047e-003
2.667069e+003, 7.275730e-003
2.668998e+003, 7.013780e-003
2.670926e+003, 7.189500e-003
2.672855e+003, 6.521622e-003
2.674783e+003, 5.903567e-003
2.676712e+003, 6.246610e-003
2.678640e+003, 6.251455e-003
2.680569e+003, 6.592596e-003
2.682497e+003, 6.931348e-003
2.684426e+003, 6.950238e-003
2.686354e+003, 6.931050e-003
2.688282e+003, 6.857071e-003
2.690211e+003, 7.080782e-003
2.692139e+003, 6.862655e-003
2.694068e+003, 6.817138e-003
2.695996e+003, 7.305077e-003
2.697925e+003, 7.271552e-003
2.699853e+003, 6.736404e-003
2.701782e+003, 6.560211e-003
2.703710e+003, 7.046476e-003
2.705639e+003, 7.164443e-003
2.707567e+003, 7.249660e-003
2.709496e+003, 7.540688e-003
2.711424e+003, 7.488781e-003
2.713353e+003, 7.525640e-003
2.715281e+003, 6.923981e-003
2.717209e+003, 6.690808e-003
2.719138e+003, 6.879591e-003
2.721066e+003, 6.752719e-003
2.722995e+003, 6.651157e-003
2.724923e+003, 6.777968e-003
2.726852e+003, 7.125014e-003
2.728780e+003, 7.640525e-003
2.730709e+003, 7.286715e-003
2.732637e+003, 7.278119e-003
2.734566e+003, 7.680835e-003
2.736494e+003, 7.899957e-003
2.738423e+003, 7.745894e-003
2.740351e+003, 7.416408e-003
2.742280e+003, 7.663634e-003
2.744208e+003, 7.449949e-003
2.746136e+003, 6.813325e-003
2.748065e+003, 6.866018e-003
2.749993e+003, 7.072150e-003
2.751922e+003, 7.328191e-003
2.753850e+003, 7.629693e-003
2.755779e+003, 7.897614e-003
2.757707e+003, 8.276932e-003
2.759636e+003, 8.134603e-003
2.761564e+003, 7.804303e-003
2.763493e+003, 7.851690e-003
2.765421e+003, 8.064203e-003
2.767350e+003, 8.179525e-003
2.769278e+003, 8.353672e-003
2.771207e+003, 8.095910e-003
2.773135e+003, 7.875319e-003
2.775063e+003, 8.284539e-003
2.776992e+003, 8.736062e-003
2.778920e+003, 8.977467e-003
2.780849e+003, 8.322918e-003
2.782777e+003, 8.044350e-003
2.784706e+003, 8.328739e-003
2.786634e+003, 8.385131e-003
2.788563e+003, 8.539838e-003
2.790491e+003, 8.989027e-003
2.792420e+003, 9.078174e-003
2.794348e+003, 8.715674e-003
2.796277e+003, 8.393408e-003
2.798205e+003, 8.449337e-003
2.800134e+003, 8.895328e-003
2.802062e+003, 8.756113e-003
2.803990e+003, 8.726683e-003
2.805919e+003, 9.371234e-003
2.807847e+003, 1.005418e-002
2.809776e+003, 9.815429e-003
2.811704e+003, 9.224032e-003
2.813633e+003, 9.283189e-003
2.815561e+003, 9.491342e-003
2.817490e+003, 9.447170e-003
2.819418e+003, 9.327980e-003
2.821347e+003, 9.657728e-003
2.823275e+003, 9.717995e-003
2.825204e+003, 1.020959e-002
2.827132e+003, 1.059846e-002
2.829061e+003, 1.052719e-002
2.830989e+003, 1.079524e-002
2.832917e+003, 1.176762e-002
2.834846e+003, 1.247443e-002
2.836774e+003, 1.283801e-002
2.838703e+003, 1.260331e-002
2.840631e+003, 1.209871e-002
2.842560e+003, 1.094088e-002
2.844488e+003, 1.011224e-002
2.846417e+003, 9.359101e-003
2.848345e+003, 8.083796e-003
2.850274e+003, 6.800658e-003
2.852202e+003, 6.308505e-003
2.854131e+003, 7.075504e-003
2.856059e+003, 8.075232e-003
2.857988e+003, 8.499315e-003
2.859916e+003, 9.106457e-003
2.861844e+003, 9.900178e-003
2.863773e+003, 1.104093e-002
2.865701e+003, 1.204077e-002
2.867630e+003, 1.276604e-002
2.869558e+003, 1.248963e-002
2.871487e+003, 1.238526e-002
2.873415e+003, 1.280526e-002
2.875344e+003, 1.309593e-002
2.877272e+003, 1.283294e-002
2.879201e+003, 1.266790e-002
2.881129e+003, 1.256013e-002
2.883058e+003, 1.247003e-002
2.884986e+003, 1.228190e-002
2.886915e+003, 1.199119e-002
2.888843e+003, 1.178267e-002
2.890771e+003, 1.187237e-002
2.892700e+003, 1.185172e-002
2.894628e+003, 1.130743e-002
2.896557e+003, 1.091442e-002
2.898485e+003, 1.184338e-002
2.900414e+003, 1.350192e-002
2.902342e+003, 1.412514e-002
2.904271e+003, 1.387685e-002
2.906199e+003, 1.364309e-002
2.908128e+003, 1.395115e-002
2.910056e+003, 1.467807e-002
2.911985e+003, 1.508075e-002
2.913913e+003, 1.440714e-002
2.915842e+003, 1.404895e-002
2.917770e+003, 1.424250e-002
2.919698e+003, 1.433210e-002
2.921627e+003, 1.399302e-002
2.923555e+003, 1.273767e-002
2.925484e+003, 1.172881e-002
2.927412e+003, 1.178978e-002
2.929341e+003, 1.211213e-002
2.931269e+003, 1.098896e-002
2.933198e+003, 1.077109e-002
2.935126e+003, 1.075302e-002
2.937055e+003, 1.036905e-002
2.938983e+003, 1.146435e-002
2.940912e+003, 1.232761e-002
2.942840e+003, 1.220865e-002
2.944769e+003, 1.390190e-002
2.946697e+003, 1.561833e-002
2.948625e+003, 1.679901e-002
2.950554e+003, 1.732633e-002
2.952482e+003, 1.762714e-002
2.954411e+003, 1.757111e-002
2.956339e+003, 1.785158e-002
2.958268e+003, 1.771557e-002
2.960196e+003, 1.728357e-002
2.962125e+003, 1.654132e-002
2.964053e+003, 1.607019e-002
2.965982e+003, 1.527015e-002
2.967910e+003, 1.458360e-002
2.969839e+003, 1.383487e-002
2.971767e+003, 1.280848e-002
2.973696e+003, 1.269971e-002
2.975624e+003, 1.348843e-002
2.977552e+003, 1.351718e-002
2.979481e+003, 1.324214e-002
2.981409e+003, 1.269886e-002
2.983338e+003, 1.232614e-002
2.985266e+003, 1.147519e-002
2.987195e+003, 1.145514e-002
2.989123e+003, 1.175268e-002
2.991052e+003, 1.200469e-002
2.992980e+003, 1.179808e-002
2.994909e+003, 1.147841e-002
2.996837e+003, 1.175595e-002
2.998766e+003, 1.160871e-002
3.000694e+003, 1.175485e-002
3.002623e+003, 1.204203e-002
3.004551e+003, 1.233479e-002
3.006479e+003, 1.280176e-002
3.008408e+003, 1.251081e-002
3.010336e+003, 1.160129e-002
3.012265e+003, 1.174234e-002
3.014193e+003, 1.235893e-002
3.016122e+003, 1.230039e-002
3.018050e+003, 1.297616e-002
3.019979e+003, 1.364485e-002
3.021907e+003, 1.393449e-002
3.023836e+003, 1.358084e-002
3.025764e+003, 1.307086e-002
3.027693e+003, 1.291861e-002
3.029621e+003, 1.298016e-002
3.031550e+003, 1.327108e-002
3.033478e+003, 1.351443e-002
3.035406e+003, 1.351352e-002
3.037335e+003, 1.382752e-002
3.039263e+003, 1.444625e-002
3.041192e+003, 1.428909e-002
3.043120e+003, 1.380538e-002
3.045049e+003, 1.440377e-002
3.046977e+003, 1.430872e-002
3.048906e+003, 1.455764e-002
3.050834e+003, 1.518267e-002
3.052763e+003, 1.474556e-002
3.054691e+003, 1.486348e-002
3.056620e+003, 1.512716e-002
3.058548e+003, 1.439400e-002
3.060477e+003, 1.385771e-002
3.062405e+003, 1.439244e-002
3.064333e+003, 1.441818e-002
3.066262e+003, 1.478456e-002
3.068190e+003, 1.491265e-002
3.070119e+003, 1.409942e-002
3.072047e+003, 1.409363e-002
3.073976e+003, 1.428390e-002
3.075904e+003, 1.536166e-002
3.077833e+003, 1.624100e-002
3.079761e+003, 1.583852e-002
3.081690e+003, 1.533355e-002
3.083618e+003, 1.598665e-002
3.085547e+003, 1.703125e-002
3.087475e+003, 1.742586e-002
3.089404e+003, 1.609238e-002
3.091332e+003, 1.569946e-002
3.093260e+003, 1.626285e-002
3.095189e+003, 1.610439e-002
3.097117e+003, 1.615484e-002
3.099046e+003, 1.685433e-002
3.100974e+003, 1.692374e-002
3.102903e+003, 1.665686e-002
3.104831e+003, 1.667344e-002
3.106760e+003, 1.661360e-002
3.108688e+003, 1.772386e-002
3.110617e+003, 1.816188e-002
3.112545e+003, 1.780646e-002
3.114474e+003, 1.729825e-002
3.116402e+003, 1.761435e-002
3.118331e+003, 1.783439e-002
3.120259e+003, 1.735750e-002
3.122188e+003, 1.733309e-002
3.124116e+003, 1.763752e-002
3.126044e+003, 1.866604e-002
3.127973e+003, 1.894462e-002
3.129901e+003, 1.880528e-002
3.131830e+003, 1.860342e-002
3.133758e+003, 1.839239e-002
3.135687e+003, 1.930062e-002
3.137615e+003, 1.902300e-002
3.139544e+003, 1.824341e-002
3.141472e+003, 1.819468e-002
3.143401e+003, 1.766559e-002
3.145329e+003, 1.793258e-002
3.147258e+003, 1.843612e-002
3.149186e+003, 1.885089e-002
3.151115e+003, 1.934903e-002
3.153043e+003, 1.885419e-002
3.154971e+003, 1.885579e-002
3.156900e+003, 1.936444e-002
3.158828e+003, 1.934759e-002
3.160757e+003, 1.953102e-002
3.162685e+003, 1.840985e-002
3.164614e+003, 1.853312e-002
3.166542e+003, 2.008357e-002
3.168471e+003, 2.028972e-002
3.170399e+003, 2.072799e-002
3.172328e+003, 2.123825e-002
3.174256e+003, 2.061548e-002
3.176185e+003, 1.996910e-002
3.178113e+003, 2.019248e-002
3.180042e+003, 2.091956e-002
3.181970e+003, 2.116034e-002
3.183898e+003, 2.117031e-002
3.185827e+003, 2.117692e-002
3.187755e+003, 2.110552e-002
3.189684e+003, 2.017051e-002
3.191612e+003, 1.992815e-002
3.193541e+003, 2.015732e-002
3.195469e+003, 2.073844e-002
3.197398e+003, 2.139805e-002
3.199326e+003, 2.079921e-002
3.201255e+003, 2.057981e-002
3.203183e+003, 2.165089e-002
3.205112e+003, 2.171199e-002
3.207040e+003, 2.146338e-002
3.208969e+003, 2.207655e-002
3.210897e+003, 2.297832e-002
3.212825e+003, 2.257586e-002
3.214754e+003, 2.239600e-002
3.216682e+003, 2.367840e-002
3.218611e+003, 2.407812e-002
3.220539e+003, 2.292940e-002
3.222468e+003, 2.156982e-002
3.224396e+003, 2.215854e-002
3.226325e+003, 2.307665e-002
3.228253e+003, 2.273614e-002
3.230182e+003, 2.184834e-002
3.232110e+003, 2.262225e-002
3.234039e+003, 2.373960e-002
3.235967e+003, 2.281168e-002
3.237896e+003, 2.244565e-002
3.239824e+003, 2.301664e-002
3.241752e+003, 2.275587e-002
3.243681e+003, 2.309798e-002
3.245609e+003, 2.403150e-002
3.247538e+003, 2.398523e-002
3.249466e+003, 2.398999e-002
3.251395e+003, 2.497673e-002
3.253323e+003, 2.501098e-002
3.255252e+003, 2.486724e-002
3.257180e+003, 2.369855e-002
3.259109e+003, 2.357950e-002
3.261037e+003, 2.438222e-002
3.262966e+003, 2.419741e-002
3.264894e+003, 2.454504e-002
3.266823e+003, 2.494900e-002
3.268751e+003, 2.433231e-002
3.270679e+003, 2.390905e-002
3.272608e+003, 2.385819e-002
3.274536e+003, 2.317833e-002
3.276465e+003, 2.445386e-002
3.278393e+003, 2.535452e-002
3.280322e+003, 2.524174e-002
3.282250e+003, 2.558284e-002
3.284179e+003, 2.610357e-002
3.286107e+003, 2.479042e-002
3.288036e+003, 2.442251e-002
3.289964e+003, 2.535905e-002
3.291893e+003, 2.672365e-002
3.293821e+003, 2.629860e-002
3.295750e+003, 2.508837e-002
3.297678e+003, 2.420958e-002
3.299606e+003, 2.401842e-002
3.301535e+003, 2.492894e-002
3.303463e+003, 2.648218e-002
3.305392e+003, 2.720572e-002
3.307320e+003, 2.687333e-002
3.309249e+003, 2.636682e-002
3.311177e+003, 2.622155e-002
3.313106e+003, 2.518689e-002
3.315034e+003, 2.614276e-002
3.316963e+003, 2.877515e-002
3.318891e+003, 2.887429e-002
3.320820e+003, 2.765020e-002
3.322748e+003, 2.682746e-002
3.324677e+003, 2.656530e-002
3.326605e+003, 2.710692e-002
3.328533e+003, 2.666686e-002
3.330462e+003, 2.624951e-002
3.332390e+003, 2.754505e-002
3.334319e+003, 2.799769e-002
3.336247e+003, 2.821097e-002
3.338176e+003, 2.832665e-002
3.340104e+003, 2.764110e-002
3.342033e+003, 2.719683e-002
3.343961e+003, 2.763218e-002
3.345890e+003, 2.849998e-002
3.347818e+003, 2.851565e-002
3.349747e+003, 2.848031e-002
3.351675e+003, 2.744938e-002
3.353604e+003, 2.621168e-002
3.355532e+003, 2.716247e-002
3.357460e+003, 2.796796e-002
3.359389e+003, 2.856434e-002
3.361317e+003, 2.769637e-002
3.363246e+003, 2.753203e-002
3.365174e+003, 2.862058e-002
3.367103e+003, 2.766872e-002
3.369031e+003, 2.686436e-002
3.370960e+003, 2.730809e-002
3.372888e+003, 2.879159e-002
3.374817e+003, 2.913962e-002
3.376745e+003, 2.820011e-002
3.378674e+003, 2.766034e-002
3.380602e+003, 2.768984e-002
3.382531e+003, 2.830829e-002
3.384459e+003, 2.851413e-002
3.386387e+003, 2.849413e-002
3.388316e+003, 2.842163e-002
3.390244e+003, 2.775045e-002
3.392173e+003, 2.888757e-002
3.394101e+003, 2.931486e-002
3.396030e+003, 2.955466e-002
3.397958e+003, 2.909691e-002
3.399887e+003, 2.878686e-002
3.401815e+003, 2.895146e-002
3.403744e+003, 2.995377e-002
3.405672e+003, 2.957921e-002
3.407601e+003, 2.862713e-002
3.409529e+003, 2.811294e-002
3.411458e+003, 2.872492e-002
3.413386e+003, 2.848553e-002
3.415314e+003, 2.760101e-002
3.417243e+003, 2.830550e-002
3.419171e+003, 2.898574e-002
3.421100e+003, 2.957174e-002
3.423028e+003, 2.924255e-002
3.424957e+003, 2.834206e-002
3.426885e+003, 2.947512e-002
3.428814e+003, 2.958501e-002
3.430742e+003, 2.923564e-002
3.432671e+003, 2.899812e-002
3.434599e+003, 2.864084e-002
3.436528e+003, 2.897821e-002
3.438456e+003, 2.901768e-002
3.440385e+003, 2.922551e-002
3.442313e+003, 2.870004e-002
3.444241e+003, 2.784635e-002
3.446170e+003, 2.842022e-002
3.448098e+003, 2.869595e-002
3.450027e+003, 2.795047e-002
3.451955e+003, 2.895777e-002
3.453884e+003, 2.918066e-002
3.455812e+003, 2.868551e-002
3.457741e+003, 2.971079e-002
3.459669e+003, 3.004077e-002
3.461598e+003, 2.898483e-002
3.463526e+003, 2.836985e-002
3.465455e+003, 2.863038e-002
3.467383e+003, 2.914193e-002
3.469312e+003, 2.954955e-002
3.471240e+003, 3.027380e-002
3.473168e+003, 3.054374e-002
3.475097e+003, 2.920823e-002
3.477025e+003, 2.875173e-002
3.478954e+003, 2.968693e-002
3.480882e+003, 2.927143e-002
3.482811e+003, 2.785994e-002
3.484739e+003, 2.746481e-002
3.486668e+003, 2.846984e-002
3.488596e+003, 2.994513e-002
3.490525e+003, 2.971124e-002
3.492453e+003, 2.930610e-002
3.494382e+003, 3.012241e-002
3.496310e+003, 2.937207e-002
3.498239e+003, 2.799354e-002
3.500167e+003, 2.790775e-002
3.502095e+003, 2.951089e-002
3.504024e+003, 3.065106e-002
3.505952e+003, 2.912170e-002
3.507881e+003, 2.623180e-002
3.509809e+003, 2.578879e-002
3.511738e+003, 2.772083e-002
3.513666e+003, 2.916132e-002
3.515595e+003, 2.922929e-002
3.517523e+003, 2.829778e-002
3.519452e+003, 2.833185e-002
3.521380e+003, 2.889067e-002
3.523309e+003, 2.922123e-002
3.525237e+003, 2.773187e-002
3.527166e+003, 2.643095e-002
3.529094e+003, 2.724157e-002
3.531022e+003, 2.733057e-002
3.532951e+003, 2.753670e-002
3.534879e+003, 2.785472e-002
3.536808e+003, 2.778264e-002
3.538736e+003, 2.795831e-002
3.540665e+003, 2.717339e-002
3.542593e+003, 2.641548e-002
3.544522e+003, 2.610648e-002
3.546450e+003, 2.568211e-002
3.548379e+003, 2.641674e-002
3.550307e+003, 2.797061e-002
3.552236e+003, 2.752362e-002
3.554164e+003, 2.637802e-002
3.556093e+003, 2.638621e-002
3.558021e+003, 2.465333e-002
3.559949e+003, 2.453198e-002
3.561878e+003, 2.505469e-002
3.563806e+003, 2.428305e-002
3.565735e+003, 2.433022e-002
3.567663e+003, 2.446252e-002
3.569592e+003, 2.467605e-002
3.571520e+003, 2.503396e-002
3.573449e+003, 2.376725e-002
3.575377e+003, 2.334391e-002
3.577306e+003, 2.312064e-002
3.579234e+003, 2.332610e-002
3.581163e+003, 2.488290e-002
3.583091e+003, 2.534418e-002
3.585020e+003, 2.380481e-002
3.586948e+003, 2.405942e-002
3.588876e+003, 2.422891e-002
3.590805e+003, 2.440876e-002
3.592733e+003, 2.383404e-002
3.594662e+003, 2.249643e-002
3.596590e+003, 2.238717e-002
3.598519e+003, 2.301337e-002
3.600447e+003, 2.260653e-002
3.602376e+003, 2.173045e-002
3.604304e+003, 2.106919e-002
3.606233e+003, 2.172325e-002
3.608161e+003, 2.179847e-002
3.610090e+003, 2.149805e-002
3.612018e+003, 2.072738e-002
3.613947e+003, 2.218485e-002
3.615875e+003, 2.229121e-002
3.617803e+003, 2.179166e-002
3.619732e+003, 2.249036e-002
3.621660e+003, 2.085629e-002
3.623589e+003, 2.003702e-002
3.625517e+003, 2.108776e-002
3.627446e+003, 2.045006e-002
3.629374e+003, 1.910254e-002
3.631303e+003, 1.820540e-002
3.633231e+003, 1.862958e-002
3.635160e+003, 1.790495e-002
3.637088e+003, 1.982262e-002
3.639017e+003, 2.090887e-002
3.640945e+003, 2.100574e-002
3.642874e+003, 2.026189e-002
3.644802e+003, 1.826089e-002
3.646730e+003, 1.802996e-002
3.648659e+003, 1.871136e-002
3.650587e+003, 1.985673e-002
3.652516e+003, 2.064754e-002
3.654444e+003, 2.066258e-002
3.656373e+003, 2.135126e-002
3.658301e+003, 2.239725e-002
3.660230e+003, 2.257452e-002
3.662158e+003, 2.228947e-002
3.664087e+003, 2.281567e-002
3.666015e+003, 2.492865e-002
3.667944e+003, 3.114525e-002
3.669872e+003, 4.703227e-002
3.671801e+003, 8.938625e-002
3.673729e+003, 1.561683e-001
3.675657e+003, 1.813970e-001
3.677586e+003, 1.092003e-001
3.679514e+003, 4.160343e-002
3.681443e+003, 2.127170e-002
3.683371e+003, 1.503606e-002
3.685300e+003, 1.452779e-002
3.687228e+003, 1.400212e-002
3.689157e+003, 1.339910e-002
3.691085e+003, 1.350407e-002
3.693014e+003, 1.200923e-002
3.694942e+003, 1.182413e-002
3.696871e+003, 1.207514e-002
3.698799e+003, 1.201336e-002
3.700728e+003, 1.243327e-002
3.702656e+003, 1.281105e-002
3.704584e+003, 1.365385e-002
3.706513e+003, 1.344299e-002
3.708441e+003, 1.143311e-002
3.710370e+003, 1.013719e-002
3.712298e+003, 1.062125e-002
3.714227e+003, 1.120984e-002
3.716155e+003, 1.094325e-002
3.718084e+003, 1.190537e-002
3.720012e+003, 1.299100e-002
3.721941e+003, 1.317993e-002
3.723869e+003, 1.221511e-002
3.725798e+003, 1.040652e-002
3.727726e+003, 1.016430e-002
3.729655e+003, 1.048430e-002
3.731583e+003, 1.221444e-002
3.733511e+003, 1.313250e-002
3.735440e+003, 1.365512e-002
3.737368e+003, 1.374094e-002
3.739297e+003, 1.392963e-002
3.741225e+003, 1.214020e-002
3.743154e+003, 1.061074e-002
3.745082e+003, 1.026586e-002
3.747011e+003, 1.225749e-002
3.748939e+003, 1.200470e-002
3.750868e+003, 1.121354e-002
3.752796e+003, 1.138449e-002
3.754725e+003, 1.118601e-002
3.756653e+003, 1.042539e-002
3.758582e+003, 1.069766e-002
3.760510e+003, 1.025205e-002
3.762438e+003, 1.025142e-002
3.764367e+003, 1.074666e-002
3.766295e+003, 1.059844e-002
3.768224e+003, 1.056923e-002
3.770152e+003, 1.187478e-002
3.772081e+003, 1.272451e-002
3.774009e+003, 1.300611e-002
3.775938e+003, 1.359313e-002
3.777866e+003, 1.291865e-002
3.779795e+003, 1.161616e-002
3.781723e+003, 1.110466e-002
3.783652e+003, 1.092087e-002
3.785580e+003, 1.080819e-002
3.787509e+003, 1.180186e-002
3.789437e+003, 1.238023e-002
3.791365e+003, 1.167006e-002
3.793294e+003, 9.730410e-003
3.795222e+003, 9.270542e-003
3.797151e+003, 1.103100e-002
3.799079e+003, 1.223924e-002
3.801008e+003, 1.143522e-002
3.802936e+003, 1.110365e-002
3.804865e+003, 1.195759e-002
3.806793e+003, 1.212468e-002
3.808722e+003, 1.187756e-002
3.810650e+003, 1.079218e-002
3.812579e+003, 1.075434e-002
3.814507e+003, 1.109554e-002
3.816436e+003, 1.209588e-002
3.818364e+003, 1.139884e-002
3.820292e+003, 1.013591e-002
3.822221e+003, 1.102593e-002
3.824149e+003, 1.134495e-002
3.826078e+003, 1.048297e-002
3.828006e+003, 1.203373e-002
3.829935e+003, 1.232741e-002
3.831863e+003, 1.159316e-002
3.833792e+003, 1.107492e-002
3.835720e+003, 1.121178e-002
3.837649e+003, 1.154428e-002
3.839577e+003, 1.090689e-002
3.841506e+003, 1.080689e-002
3.843434e+003, 1.097485e-002
3.845363e+003, 1.075082e-002
3.847291e+003, 9.950351e-003
3.849219e+003, 9.657052e-003
3.851148e+003, 1.175560e-002
3.853076e+003, 1.256761e-002
3.855005e+003, 1.149864e-002
3.856933e+003, 1.150144e-002
3.858862e+003, 1.259670e-002
3.860790e+003, 1.270710e-002
3.862719e+003, 1.316535e-002
3.864647e+003, 1.280915e-002
3.866576e+003, 1.267326e-002
3.868504e+003, 1.084504e-002
3.870433e+003, 1.046482e-002
3.872361e+003, 1.206186e-002
3.874290e+003, 1.284613e-002
3.876218e+003, 1.351210e-002
3.878146e+003, 1.283032e-002
3.880075e+003, 1.223217e-002
3.882003e+003, 1.148085e-002
3.883932e+003, 1.074672e-002
3.885860e+003, 1.032612e-002
3.887789e+003, 1.049333e-002
3.889717e+003, 1.087676e-002
3.891646e+003, 1.045243e-002
3.893574e+003, 1.197845e-002
3.895503e+003, 1.190303e-002
3.897431e+003, 1.182415e-002
3.899360e+003, 1.335932e-002
3.901288e+003, 1.272907e-002
3.903217e+003, 1.192584e-002
3.905145e+003, 1.099673e-002
3.907073e+003, 1.167296e-002
3.909002e+003, 1.318783e-002
3.910930e+003, 1.216302e-002
3.912859e+003, 1.156551e-002
3.914787e+003, 1.065782e-002
3.916716e+003, 1.025654e-002
3.918644e+003, 1.016257e-002
3.920573e+003, 9.399962e-003
3.922501e+003, 1.110632e-002
3.924430e+003, 1.337843e-002
3.926358e+003, 1.396092e-002
3.928287e+003, 1.372294e-002
3.930215e+003, 1.325457e-002
3.932144e+003, 1.290799e-002
3.934072e+003, 1.150790e-002
3.936000e+003, 1.226499e-002
3.937929e+003, 1.431481e-002
3.939857e+003, 1.370264e-002
3.941786e+003, 1.232284e-002
3.943714e+003, 1.196757e-002
3.945643e+003, 1.119117e-002
3.947571e+003, 1.268922e-002
3.949500e+003, 1.407148e-002
3.951428e+003, 1.457570e-002
3.953357e+003, 1.361491e-002
3.955285e+003, 1.295235e-002
3.957214e+003, 1.219650e-002
3.959142e+003, 1.225483e-002
3.961071e+003, 1.287352e-002
3.962999e+003, 1.376979e-002
3.964927e+003, 1.451642e-002
3.966856e+003, 1.276084e-002
3.968784e+003, 1.109110e-002
3.970713e+003, 1.068873e-002
3.972641e+003, 1.123909e-002
3.974570e+003, 1.227615e-002
3.976498e+003, 1.234356e-002
3.978427e+003, 1.322891e-002
3.980355e+003, 1.264911e-002
3.982284e+003, 1.295967e-002
3.984212e+003, 1.322176e-002
3.986141e+003, 1.131738e-002
3.988069e+003, 1.123695e-002
3.989998e+003, 1.309651e-002
3.991926e+003, 1.402191e-002
3.993854e+003, 1.394638e-002
3.995783e+003, 1.247458e-002
3.997711e+003, 1.147991e-002
3.999640e+003, 1.148545e-002
##END=



