##NAMES=Talc
##RRUFFID=R050058
##IDEAL CHEMISTRY=Mg_3_Si_4_O_10_(OH)_2_
##LOCALITY=Murphy, North Carolina, USA
##OWNER=RRUFF
##SOURCE=Rock Currier
##DESCRIPTION=Fine-grained massive fragment
##STATUS=The identification of this mineral has been confirmed by X-ray diffraction and chemical analysis
##URL=rruff.info/R050058
##MEASURED CHEMISTRY=(Mg_.994_Fe_.006_)_3_(Si_.996_Al_.004_)_4_O_10_(OH)_2_
3.991926e+002, 3.970258e-001
4.011211e+002, 4.757357e-001
4.030496e+002, 4.780228e-001
4.049780e+002, 5.189685e-001
4.069065e+002, 5.233250e-001
4.088350e+002, 5.020363e-001
4.107634e+002, 4.917343e-001
4.126919e+002, 4.750521e-001
4.146204e+002, 4.650127e-001
4.165488e+002, 4.717017e-001
4.184773e+002, 4.800777e-001
4.204058e+002, 4.690664e-001
4.223342e+002, 4.382794e-001
4.242627e+002, 4.084771e-001
4.261912e+002, 3.934005e-001
4.281196e+002, 3.780062e-001
4.300481e+002, 3.641617e-001
4.319766e+002, 3.512824e-001
4.339050e+002, 3.465674e-001
4.358335e+002, 3.465635e-001
4.377620e+002, 3.440289e-001
4.396904e+002, 3.428021e-001
4.416189e+002, 3.532021e-001
4.435474e+002, 3.595488e-001
4.454758e+002, 3.516667e-001
4.474043e+002, 3.330247e-001
4.493328e+002, 3.092948e-001
4.512612e+002, 2.920522e-001
4.531897e+002, 2.881807e-001
4.551182e+002, 2.960120e-001
4.570466e+002, 3.125120e-001
4.589751e+002, 3.320461e-001
4.609036e+002, 3.325390e-001
4.628320e+002, 3.020892e-001
4.647605e+002, 2.640198e-001
4.666890e+002, 2.347995e-001
4.686174e+002, 2.164392e-001
4.705459e+002, 2.039073e-001
4.724744e+002, 1.947584e-001
4.744028e+002, 1.874303e-001
4.763313e+002, 1.821112e-001
4.782598e+002, 1.768949e-001
4.801882e+002, 1.701441e-001
4.821167e+002, 1.633481e-001
4.840452e+002, 1.575520e-001
4.859736e+002, 1.531516e-001
4.879021e+002, 1.500014e-001
4.898306e+002, 1.461022e-001
4.917590e+002, 1.428172e-001
4.936875e+002, 1.406014e-001
4.956160e+002, 1.385430e-001
4.975444e+002, 1.375215e-001
4.994729e+002, 1.390916e-001
5.014014e+002, 1.429077e-001
5.033298e+002, 1.488576e-001
5.052583e+002, 1.556589e-001
5.071868e+002, 1.595663e-001
5.091152e+002, 1.592041e-001
5.110437e+002, 1.539983e-001
5.129722e+002, 1.455928e-001
5.149006e+002, 1.374415e-001
5.168291e+002, 1.303209e-001
5.187576e+002, 1.239281e-001
5.206860e+002, 1.175174e-001
5.226145e+002, 1.116233e-001
5.245430e+002, 1.071875e-001
5.264714e+002, 1.034290e-001
5.283999e+002, 9.916573e-002
5.303284e+002, 9.390328e-002
5.322568e+002, 8.881932e-002
5.341853e+002, 8.493829e-002
5.361138e+002, 8.129784e-002
5.380422e+002, 7.918312e-002
5.399707e+002, 7.913643e-002
5.418992e+002, 7.964761e-002
5.438276e+002, 7.969351e-002
5.457561e+002, 7.994590e-002
5.476846e+002, 8.021353e-002
5.496130e+002, 8.065871e-002
5.515415e+002, 8.055297e-002
5.534700e+002, 7.949106e-002
5.553984e+002, 7.901096e-002
5.573269e+002, 7.868305e-002
5.592554e+002, 7.874867e-002
5.611838e+002, 7.858161e-002
5.631123e+002, 7.756855e-002
5.650408e+002, 7.648540e-002
5.669692e+002, 7.602830e-002
5.688977e+002, 7.546779e-002
5.708262e+002, 7.516884e-002
5.727546e+002, 7.577830e-002
5.746831e+002, 7.681917e-002
5.766116e+002, 7.764845e-002
5.785400e+002, 7.917014e-002
5.804685e+002, 8.166910e-002
5.823970e+002, 8.394138e-002
5.843254e+002, 8.546936e-002
5.862539e+002, 8.710087e-002
5.881824e+002, 8.989204e-002
5.901108e+002, 9.349663e-002
5.920393e+002, 9.705280e-002
5.939678e+002, 1.004198e-001
5.958962e+002, 1.039272e-001
5.978247e+002, 1.075236e-001
5.997532e+002, 1.108900e-001
6.016816e+002, 1.137027e-001
6.036101e+002, 1.171313e-001
6.055386e+002, 1.211957e-001
6.074670e+002, 1.250076e-001
6.093955e+002, 1.284495e-001
6.113240e+002, 1.312222e-001
6.132524e+002, 1.332975e-001
6.151809e+002, 1.355310e-001
6.171094e+002, 1.375041e-001
6.190378e+002, 1.387246e-001
6.209663e+002, 1.390918e-001
6.228948e+002, 1.387944e-001
6.248232e+002, 1.385650e-001
6.267517e+002, 1.387514e-001
6.286802e+002, 1.394819e-001
6.306086e+002, 1.423922e-001
6.325371e+002, 1.477159e-001
6.344656e+002, 1.539531e-001
6.363940e+002, 1.610341e-001
6.383225e+002, 1.684493e-001
6.402510e+002, 1.758423e-001
6.421794e+002, 1.834961e-001
6.441079e+002, 1.916415e-001
6.460364e+002, 2.004707e-001
6.479648e+002, 2.104346e-001
6.498933e+002, 2.218196e-001
6.518218e+002, 2.361685e-001
6.537502e+002, 2.547692e-001
6.556787e+002, 2.771721e-001
6.576072e+002, 3.054554e-001
6.595356e+002, 3.408853e-001
6.614641e+002, 3.821048e-001
6.633926e+002, 4.220720e-001
6.653210e+002, 4.485269e-001
6.672495e+002, 4.468753e-001
6.691780e+002, 4.134393e-001
6.711064e+002, 3.654000e-001
6.730349e+002, 3.210842e-001
6.749634e+002, 2.877813e-001
6.768918e+002, 2.647544e-001
6.788203e+002, 2.476999e-001
6.807488e+002, 2.315096e-001
6.826772e+002, 2.120577e-001
6.846057e+002, 1.898495e-001
6.865342e+002, 1.690172e-001
6.884626e+002, 1.512786e-001
6.903911e+002, 1.367969e-001
6.923196e+002, 1.258233e-001
6.942480e+002, 1.174772e-001
6.961765e+002, 1.118525e-001
6.981050e+002, 1.086398e-001
7.000334e+002, 1.071435e-001
7.019619e+002, 1.066419e-001
7.038904e+002, 1.065856e-001
7.058188e+002, 1.066825e-001
7.077473e+002, 1.061617e-001
7.096758e+002, 1.056293e-001
7.116042e+002, 1.053302e-001
7.135327e+002, 1.050279e-001
7.154612e+002, 1.047632e-001
7.173896e+002, 1.044628e-001
7.193181e+002, 1.039016e-001
7.212466e+002, 1.033817e-001
7.231750e+002, 1.030452e-001
7.251035e+002, 1.026244e-001
7.270320e+002, 1.022952e-001
7.289604e+002, 1.025383e-001
7.308889e+002, 1.023632e-001
7.328174e+002, 1.018117e-001
7.347458e+002, 1.014683e-001
7.366743e+002, 1.014013e-001
7.386028e+002, 1.012187e-001
7.405313e+002, 1.007758e-001
7.424597e+002, 1.005419e-001
7.443882e+002, 1.005406e-001
7.463167e+002, 1.008446e-001
7.482451e+002, 1.008348e-001
7.501736e+002, 1.003482e-001
7.521021e+002, 1.002714e-001
7.540305e+002, 1.005299e-001
7.559590e+002, 1.008692e-001
7.578875e+002, 1.012631e-001
7.598159e+002, 1.013788e-001
7.617444e+002, 1.015996e-001
7.636729e+002, 1.021493e-001
7.656013e+002, 1.027296e-001
7.675298e+002, 1.032570e-001
7.694583e+002, 1.035457e-001
7.713867e+002, 1.038151e-001
7.733152e+002, 1.045575e-001
7.752437e+002, 1.055844e-001
7.771721e+002, 1.068560e-001
7.791006e+002, 1.083289e-001
7.810291e+002, 1.091748e-001
7.829575e+002, 1.087204e-001
7.848860e+002, 1.080743e-001
7.868145e+002, 1.078695e-001
7.887429e+002, 1.075512e-001
7.906714e+002, 1.068070e-001
7.925999e+002, 1.061217e-001
7.945283e+002, 1.058956e-001
7.964568e+002, 1.060875e-001
7.983853e+002, 1.061262e-001
8.003137e+002, 1.060850e-001
8.022422e+002, 1.061549e-001
8.041707e+002, 1.063328e-001
8.060991e+002, 1.067712e-001
8.080276e+002, 1.072768e-001
8.099561e+002, 1.075508e-001
8.118845e+002, 1.075594e-001
8.138130e+002, 1.079638e-001
8.157415e+002, 1.081042e-001
8.176699e+002, 1.082756e-001
8.195984e+002, 1.086336e-001
8.215269e+002, 1.090477e-001
8.234553e+002, 1.093783e-001
8.253838e+002, 1.098817e-001
8.273123e+002, 1.102089e-001
8.292407e+002, 1.107746e-001
8.311692e+002, 1.113677e-001
8.330977e+002, 1.118341e-001
8.350261e+002, 1.126173e-001
8.369546e+002, 1.132704e-001
8.388831e+002, 1.137667e-001
8.408115e+002, 1.142742e-001
8.427400e+002, 1.142275e-001
8.446685e+002, 1.144315e-001
8.465969e+002, 1.154202e-001
8.485254e+002, 1.163148e-001
8.504539e+002, 1.177580e-001
8.523823e+002, 1.199964e-001
8.543108e+002, 1.223309e-001
8.562393e+002, 1.243531e-001
8.581677e+002, 1.262602e-001
8.600962e+002, 1.278972e-001
8.620247e+002, 1.293597e-001
8.639531e+002, 1.312753e-001
8.658816e+002, 1.332261e-001
8.678101e+002, 1.353790e-001
8.697385e+002, 1.378962e-001
8.716670e+002, 1.408900e-001
8.735955e+002, 1.443426e-001
8.755239e+002, 1.481671e-001
8.774524e+002, 1.522874e-001
8.793809e+002, 1.568891e-001
8.813093e+002, 1.613794e-001
8.832378e+002, 1.663944e-001
8.851663e+002, 1.723312e-001
8.870947e+002, 1.783460e-001
8.890232e+002, 1.847432e-001
8.909517e+002, 1.919987e-001
8.928801e+002, 1.989560e-001
8.948085e+002, 2.060529e-001
8.967370e+002, 2.145696e-001
8.986655e+002, 2.239517e-001
9.005939e+002, 2.339045e-001
9.025224e+002, 2.438901e-001
9.044509e+002, 2.540375e-001
9.063793e+002, 2.648575e-001
9.083078e+002, 2.765946e-001
9.102363e+002, 2.884264e-001
9.121647e+002, 3.009430e-001
9.140932e+002, 3.147017e-001
9.160217e+002, 3.288780e-001
9.179501e+002, 3.432109e-001
9.198786e+002, 3.576675e-001
9.218071e+002, 3.729952e-001
9.237355e+002, 3.893934e-001
9.256640e+002, 4.065388e-001
9.275925e+002, 4.241894e-001
9.295209e+002, 4.421273e-001
9.314494e+002, 4.609332e-001
9.333779e+002, 4.799542e-001
9.353063e+002, 4.988341e-001
9.372348e+002, 5.177261e-001
9.391633e+002, 5.372826e-001
9.410917e+002, 5.566366e-001
9.430202e+002, 5.752161e-001
9.449487e+002, 5.923436e-001
9.468771e+002, 6.083190e-001
9.488056e+002, 6.220926e-001
9.507341e+002, 6.344962e-001
9.526625e+002, 6.462579e-001
9.545910e+002, 6.582611e-001
9.565195e+002, 6.706771e-001
9.584479e+002, 6.835407e-001
9.603764e+002, 6.950923e-001
9.623049e+002, 7.061515e-001
9.642333e+002, 7.164133e-001
9.661618e+002, 7.274296e-001
9.680903e+002, 7.381853e-001
9.700187e+002, 7.474067e-001
9.719472e+002, 7.557529e-001
9.738757e+002, 7.641659e-001
9.758041e+002, 7.707577e-001
9.777326e+002, 7.766123e-001
9.796611e+002, 7.820996e-001
9.815895e+002, 7.867790e-001
9.835180e+002, 7.900736e-001
9.854465e+002, 7.919766e-001
9.873749e+002, 7.930635e-001
9.893034e+002, 7.925768e-001
9.912319e+002, 7.890770e-001
9.931603e+002, 7.851934e-001
9.950888e+002, 7.801958e-001
9.970173e+002, 7.737985e-001
9.989457e+002, 7.657709e-001
1.000874e+003, 7.561938e-001
1.002803e+003, 7.446717e-001
1.004731e+003, 7.298082e-001
1.006660e+003, 7.112523e-001
1.008588e+003, 6.884373e-001
1.010517e+003, 6.604238e-001
1.012445e+003, 6.263105e-001
1.014373e+003, 5.868082e-001
1.016302e+003, 5.444361e-001
1.018230e+003, 4.992443e-001
1.020159e+003, 4.533401e-001
1.022087e+003, 4.098105e-001
1.024016e+003, 3.712080e-001
1.025944e+003, 3.380324e-001
1.027873e+003, 3.101878e-001
1.029801e+003, 2.857080e-001
1.031730e+003, 2.634991e-001
1.033658e+003, 2.440374e-001
1.035587e+003, 2.263338e-001
1.037515e+003, 2.095533e-001
1.039444e+003, 1.940583e-001
1.041372e+003, 1.805353e-001
1.043301e+003, 1.688869e-001
1.045229e+003, 1.591625e-001
1.047157e+003, 1.514466e-001
1.049086e+003, 1.453232e-001
1.051014e+003, 1.410463e-001
1.052943e+003, 1.395932e-001
1.054871e+003, 1.400414e-001
1.056800e+003, 1.406071e-001
1.058728e+003, 1.406353e-001
1.060657e+003, 1.402115e-001
1.062585e+003, 1.395486e-001
1.064514e+003, 1.386697e-001
1.066442e+003, 1.371955e-001
1.068371e+003, 1.352782e-001
1.070299e+003, 1.332231e-001
1.072228e+003, 1.308577e-001
1.074156e+003, 1.284899e-001
1.076084e+003, 1.264103e-001
1.078013e+003, 1.240223e-001
1.079941e+003, 1.212341e-001
1.081870e+003, 1.185986e-001
1.083798e+003, 1.158861e-001
1.085727e+003, 1.132633e-001
1.087655e+003, 1.109598e-001
1.089584e+003, 1.085891e-001
1.091512e+003, 1.064128e-001
1.093441e+003, 1.043899e-001
1.095369e+003, 1.017630e-001
1.097298e+003, 9.875182e-002
1.099226e+003, 9.571324e-002
1.101155e+003, 9.274831e-002
1.103083e+003, 9.022643e-002
1.105011e+003, 8.731652e-002
1.106940e+003, 8.439745e-002
1.108868e+003, 8.207449e-002
1.110797e+003, 7.938842e-002
1.112725e+003, 7.621482e-002
1.114654e+003, 7.354528e-002
1.116582e+003, 7.124376e-002
1.118511e+003, 6.889202e-002
1.120439e+003, 6.628472e-002
1.122368e+003, 6.343526e-002
1.124296e+003, 6.074613e-002
1.126225e+003, 5.772792e-002
1.128153e+003, 5.457209e-002
1.130082e+003, 5.139967e-002
1.132010e+003, 4.818974e-002
1.133938e+003, 4.526603e-002
1.135867e+003, 4.237412e-002
1.137795e+003, 3.935339e-002
1.139724e+003, 3.630162e-002
1.141652e+003, 3.383756e-002
1.143581e+003, 3.143598e-002
1.145509e+003, 2.885329e-002
1.147438e+003, 2.651688e-002
1.149366e+003, 2.472914e-002
1.151295e+003, 2.319901e-002
1.153223e+003, 2.176124e-002
1.155152e+003, 2.069328e-002
1.157080e+003, 1.972044e-002
1.159009e+003, 1.876789e-002
1.160937e+003, 1.784389e-002
1.162865e+003, 1.729760e-002
1.164794e+003, 1.686250e-002
1.166722e+003, 1.618595e-002
1.168651e+003, 1.545252e-002
1.170579e+003, 1.468353e-002
1.172508e+003, 1.426927e-002
1.174436e+003, 1.397139e-002
1.176365e+003, 1.378786e-002
1.178293e+003, 1.366444e-002
1.180222e+003, 1.340096e-002
1.182150e+003, 1.303761e-002
1.184079e+003, 1.244535e-002
1.186007e+003, 1.192931e-002
1.187936e+003, 1.183632e-002
1.189864e+003, 1.190622e-002
1.191792e+003, 1.179925e-002
1.193721e+003, 1.159359e-002
1.195649e+003, 1.156995e-002
1.197578e+003, 1.184272e-002
1.199506e+003, 1.177768e-002
1.201435e+003, 1.138236e-002
1.203363e+003, 1.095449e-002
1.205292e+003, 1.061623e-002
1.207220e+003, 1.074448e-002
1.209149e+003, 1.083558e-002
1.211077e+003, 1.083805e-002
1.213006e+003, 1.070360e-002
1.214934e+003, 1.055632e-002
1.216863e+003, 1.048095e-002
1.218791e+003, 1.037665e-002
1.220719e+003, 1.005041e-002
1.222648e+003, 9.689793e-003
1.224576e+003, 9.746450e-003
1.226505e+003, 9.519767e-003
1.228433e+003, 9.273113e-003
1.230362e+003, 9.313442e-003
1.232290e+003, 9.322497e-003
1.234219e+003, 9.345266e-003
1.236147e+003, 9.285590e-003
1.238076e+003, 9.113632e-003
1.240004e+003, 8.911764e-003
1.241933e+003, 8.905610e-003
1.243861e+003, 8.768704e-003
1.245790e+003, 8.699667e-003
1.247718e+003, 8.792691e-003
1.249646e+003, 8.639580e-003
1.251575e+003, 8.451256e-003
1.253503e+003, 8.261615e-003
1.255432e+003, 8.175750e-003
1.257360e+003, 8.126999e-003
1.259289e+003, 7.837348e-003
1.261217e+003, 7.537009e-003
1.263146e+003, 7.464355e-003
1.265074e+003, 7.193324e-003
1.267003e+003, 7.036753e-003
1.268931e+003, 7.200724e-003
1.270860e+003, 7.242769e-003
1.272788e+003, 7.060124e-003
1.274717e+003, 7.232522e-003
1.276645e+003, 7.446738e-003
1.278573e+003, 7.382891e-003
1.280502e+003, 7.566834e-003
1.282430e+003, 7.841105e-003
1.284359e+003, 7.526492e-003
1.286287e+003, 7.347703e-003
1.288216e+003, 7.351867e-003
1.290144e+003, 7.549208e-003
1.292073e+003, 7.957228e-003
1.294001e+003, 8.095672e-003
1.295930e+003, 8.117129e-003
1.297858e+003, 7.991173e-003
1.299787e+003, 7.988273e-003
1.301715e+003, 8.081375e-003
1.303644e+003, 7.997425e-003
1.305572e+003, 7.916704e-003
1.307500e+003, 8.014530e-003
1.309429e+003, 8.106826e-003
1.311357e+003, 7.912228e-003
1.313286e+003, 8.036278e-003
1.315214e+003, 8.188386e-003
1.317143e+003, 7.991455e-003
1.319071e+003, 7.647122e-003
1.321000e+003, 7.548901e-003
1.322928e+003, 7.698867e-003
1.324857e+003, 7.547753e-003
1.326785e+003, 7.228620e-003
1.328714e+003, 6.846937e-003
1.330642e+003, 6.973180e-003
1.332571e+003, 7.062783e-003
1.334499e+003, 6.909167e-003
1.336427e+003, 6.707434e-003
1.338356e+003, 6.521076e-003
1.340284e+003, 6.464023e-003
1.342213e+003, 6.711467e-003
1.344141e+003, 6.940394e-003
1.346070e+003, 6.862710e-003
1.347998e+003, 6.937784e-003
1.349927e+003, 7.026197e-003
1.351855e+003, 6.995153e-003
1.353784e+003, 6.868311e-003
1.355712e+003, 6.763311e-003
1.357641e+003, 7.071808e-003
1.359569e+003, 7.021505e-003
1.361498e+003, 6.478909e-003
1.363426e+003, 6.618976e-003
1.365354e+003, 7.234826e-003
1.367283e+003, 7.184074e-003
1.369211e+003, 7.218390e-003
1.371140e+003, 7.468570e-003
1.373068e+003, 7.545548e-003
1.374997e+003, 7.605955e-003
1.376925e+003, 7.983976e-003
1.378854e+003, 8.229565e-003
1.380782e+003, 8.076989e-003
1.382711e+003, 7.731225e-003
1.384639e+003, 7.732724e-003
1.386568e+003, 7.471944e-003
1.388496e+003, 7.584201e-003
1.390424e+003, 7.806290e-003
1.392353e+003, 7.732552e-003
1.394281e+003, 7.333749e-003
1.396210e+003, 7.388936e-003
1.398138e+003, 7.410313e-003
1.400067e+003, 7.491574e-003
1.401995e+003, 7.633734e-003
1.403924e+003, 7.713502e-003
1.405852e+003, 8.081220e-003
1.407781e+003, 8.121002e-003
1.409709e+003, 7.529156e-003
1.411638e+003, 7.585933e-003
1.413566e+003, 7.623524e-003
1.415495e+003, 7.347685e-003
1.417423e+003, 6.664443e-003
1.419351e+003, 6.352875e-003
1.421280e+003, 7.056645e-003
1.423208e+003, 7.353852e-003
1.425137e+003, 7.365192e-003
1.427065e+003, 7.309224e-003
1.428994e+003, 7.098973e-003
1.430922e+003, 7.274768e-003
1.432851e+003, 7.388263e-003
1.434779e+003, 6.824996e-003
1.436708e+003, 6.301890e-003
1.438636e+003, 7.086677e-003
1.440565e+003, 7.648254e-003
1.442493e+003, 7.753079e-003
1.444422e+003, 7.480508e-003
1.446350e+003, 7.209175e-003
1.448278e+003, 7.093861e-003
1.450207e+003, 7.717507e-003
1.452135e+003, 8.049287e-003
1.454064e+003, 7.340500e-003
1.455992e+003, 5.266644e-003
1.457921e+003, 5.481554e-003
1.459849e+003, 7.450459e-003
1.461778e+003, 7.818997e-003
1.463706e+003, 7.101986e-003
1.465635e+003, 6.989717e-003
1.467563e+003, 7.680882e-003
1.469492e+003, 7.594486e-003
1.471420e+003, 6.238006e-003
1.473349e+003, 5.436886e-003
1.475277e+003, 5.843603e-003
1.477205e+003, 6.220129e-003
1.479134e+003, 6.446070e-003
1.481062e+003, 6.514413e-003
1.482991e+003, 6.563525e-003
1.484919e+003, 6.187899e-003
1.486848e+003, 5.690400e-003
1.488776e+003, 5.156725e-003
1.490705e+003, 5.391680e-003
1.492633e+003, 6.113421e-003
1.494562e+003, 5.304364e-003
1.496490e+003, 4.637642e-003
1.498419e+003, 4.955559e-003
1.500347e+003, 5.356418e-003
1.502276e+003, 5.548004e-003
1.504204e+003, 4.053117e-003
1.506132e+003, 2.271941e-003
1.508061e+003, 3.249791e-003
1.509989e+003, 4.946464e-003
1.511918e+003, 5.356606e-003
1.513846e+003, 5.571278e-003
1.515775e+003, 5.195203e-003
1.517703e+003, 4.829322e-003
1.519632e+003, 4.525254e-003
1.521560e+003, 4.206228e-003
1.523489e+003, 5.254146e-003
1.525417e+003, 5.618790e-003
1.527346e+003, 6.014718e-003
1.529274e+003, 6.376587e-003
1.531203e+003, 6.233182e-003
1.533131e+003, 5.674316e-003
1.535059e+003, 6.411660e-003
1.536988e+003, 6.090870e-003
1.538916e+003, 3.549178e-003
1.540845e+003, 3.066585e-003
1.542773e+003, 4.631044e-003
1.544702e+003, 5.953731e-003
1.546630e+003, 6.647809e-003
1.548559e+003, 6.738661e-003
1.550487e+003, 6.785726e-003
1.552416e+003, 6.669075e-003
1.554344e+003, 6.268092e-003
1.556273e+003, 5.524433e-003
1.558201e+003, 3.398891e-003
1.560130e+003, 4.196524e-003
1.562058e+003, 7.091839e-003
1.563986e+003, 7.796075e-003
1.565915e+003, 8.003830e-003
1.567843e+003, 7.966083e-003
1.569772e+003, 7.144895e-003
1.571700e+003, 7.542970e-003
1.573629e+003, 7.282247e-003
1.575557e+003, 5.665126e-003
1.577486e+003, 6.713454e-003
1.579414e+003, 8.720452e-003
1.581343e+003, 9.152576e-003
1.583271e+003, 8.989776e-003
1.585200e+003, 8.846447e-003
1.587128e+003, 9.048457e-003
1.589057e+003, 9.471933e-003
1.590985e+003, 9.635266e-003
1.592913e+003, 9.571127e-003
1.594842e+003, 9.706999e-003
1.596770e+003, 9.572509e-003
1.598699e+003, 9.951316e-003
1.600627e+003, 1.012201e-002
1.602556e+003, 9.941468e-003
1.604484e+003, 1.023562e-002
1.606413e+003, 1.059123e-002
1.608341e+003, 1.060174e-002
1.610270e+003, 1.089227e-002
1.612198e+003, 1.119949e-002
1.614127e+003, 1.084284e-002
1.616055e+003, 9.731974e-003
1.617984e+003, 1.063017e-002
1.619912e+003, 1.184338e-002
1.621840e+003, 1.155502e-002
1.623769e+003, 1.133122e-002
1.625697e+003, 1.180685e-002
1.627626e+003, 1.206521e-002
1.629554e+003, 1.245190e-002
1.631483e+003, 1.294871e-002
1.633411e+003, 1.168992e-002
1.635340e+003, 1.017158e-002
1.637268e+003, 1.177007e-002
1.639197e+003, 1.372167e-002
1.641125e+003, 1.418355e-002
1.643054e+003, 1.420166e-002
1.644982e+003, 1.291203e-002
1.646911e+003, 1.238938e-002
1.648839e+003, 1.341855e-002
1.650767e+003, 1.216732e-002
1.652696e+003, 9.312512e-003
1.654624e+003, 1.140128e-002
1.656553e+003, 1.388312e-002
1.658481e+003, 1.407720e-002
1.660410e+003, 1.412046e-002
1.662338e+003, 1.444425e-002
1.664267e+003, 1.496808e-002
1.666195e+003, 1.470705e-002
1.668124e+003, 1.395489e-002
1.670052e+003, 1.402448e-002
1.671981e+003, 1.449276e-002
1.673909e+003, 1.372461e-002
1.675838e+003, 1.259131e-002
1.677766e+003, 1.300080e-002
1.679694e+003, 1.282145e-002
1.681623e+003, 1.145198e-002
1.683551e+003, 8.689465e-003
1.685480e+003, 8.840692e-003
1.687408e+003, 1.037636e-002
1.689337e+003, 1.040116e-002
1.691265e+003, 1.050424e-002
1.693194e+003, 9.995048e-003
1.695122e+003, 7.451292e-003
1.697051e+003, 7.216791e-003
1.698979e+003, 7.183661e-003
1.700908e+003, 6.682761e-003
1.702836e+003, 8.682388e-003
1.704765e+003, 8.837042e-003
1.706693e+003, 9.373879e-003
1.708621e+003, 1.007526e-002
1.710550e+003, 9.968963e-003
1.712478e+003, 8.804044e-003
1.714407e+003, 7.814530e-003
1.716335e+003, 6.553382e-003
1.718264e+003, 6.657124e-003
1.720192e+003, 8.500088e-003
1.722121e+003, 9.138800e-003
1.724049e+003, 8.827386e-003
1.725978e+003, 8.883744e-003
1.727906e+003, 8.036776e-003
1.729835e+003, 6.983586e-003
1.731763e+003, 5.737321e-003
1.733692e+003, 3.955800e-003
1.735620e+003, 5.009145e-003
1.737548e+003, 6.252795e-003
1.739477e+003, 5.305039e-003
1.741405e+003, 5.002821e-003
1.743334e+003, 5.048896e-003
1.745262e+003, 5.394012e-003
1.747191e+003, 5.431586e-003
1.749119e+003, 5.392498e-003
1.751048e+003, 5.562793e-003
1.752976e+003, 6.284325e-003
1.754905e+003, 6.800632e-003
1.756833e+003, 7.130130e-003
1.758762e+003, 7.592849e-003
1.760690e+003, 7.496244e-003
1.762619e+003, 7.372298e-003
1.764547e+003, 7.758016e-003
1.766475e+003, 7.281482e-003
1.768404e+003, 7.045078e-003
1.770332e+003, 6.738214e-003
1.772261e+003, 5.958778e-003
1.774189e+003, 6.911370e-003
1.776118e+003, 7.299113e-003
1.778046e+003, 7.511798e-003
1.779975e+003, 7.868879e-003
1.781903e+003, 8.076581e-003
1.783832e+003, 8.380295e-003
1.785760e+003, 8.018680e-003
1.787689e+003, 7.792332e-003
1.789617e+003, 7.584377e-003
1.791546e+003, 7.355678e-003
1.793474e+003, 7.679004e-003
1.795402e+003, 8.449049e-003
1.797331e+003, 8.578896e-003
1.799259e+003, 8.497082e-003
1.801188e+003, 8.632030e-003
1.803116e+003, 9.219103e-003
1.805045e+003, 9.056226e-003
1.806973e+003, 8.927641e-003
1.808902e+003, 8.580394e-003
1.810830e+003, 8.245193e-003
1.812759e+003, 8.241364e-003
1.814687e+003, 8.512975e-003
1.816616e+003, 8.812379e-003
1.818544e+003, 9.586225e-003
1.820473e+003, 9.819809e-003
1.822401e+003, 9.460256e-003
1.824329e+003, 9.010890e-003
1.826258e+003, 9.448349e-003
1.828186e+003, 9.651368e-003
1.830115e+003, 9.250863e-003
1.832043e+003, 9.392945e-003
1.833972e+003, 8.881854e-003
1.835900e+003, 7.908724e-003
1.837829e+003, 7.630485e-003
1.839757e+003, 7.948293e-003
1.841686e+003, 7.836716e-003
1.843614e+003, 6.253833e-003
1.845543e+003, 5.998805e-003
1.847471e+003, 7.023864e-003
1.849400e+003, 7.552652e-003
1.851328e+003, 7.345034e-003
1.853256e+003, 7.320457e-003
1.855185e+003, 7.813689e-003
1.857113e+003, 7.573879e-003
1.859042e+003, 7.249906e-003
1.860970e+003, 7.256242e-003
1.862899e+003, 7.139459e-003
1.864827e+003, 6.988433e-003
1.866756e+003, 7.125751e-003
1.868684e+003, 6.864569e-003
1.870613e+003, 6.358417e-003
1.872541e+003, 6.441558e-003
1.874470e+003, 6.521350e-003
1.876398e+003, 6.236696e-003
1.878327e+003, 6.744140e-003
1.880255e+003, 7.005893e-003
1.882183e+003, 6.670700e-003
1.884112e+003, 6.248641e-003
1.886040e+003, 5.372752e-003
1.887969e+003, 4.999096e-003
1.889897e+003, 4.984239e-003
1.891826e+003, 5.410684e-003
1.893754e+003, 5.509363e-003
1.895683e+003, 5.608265e-003
1.897611e+003, 5.242150e-003
1.899540e+003, 4.208474e-003
1.901468e+003, 4.530588e-003
1.903397e+003, 5.246724e-003
1.905325e+003, 5.842958e-003
1.907254e+003, 6.675635e-003
1.909182e+003, 6.420881e-003
1.911110e+003, 6.030933e-003
1.913039e+003, 6.323236e-003
1.914967e+003, 6.823388e-003
1.916896e+003, 6.377914e-003
1.918824e+003, 4.524372e-003
1.920753e+003, 3.839134e-003
1.922681e+003, 3.316860e-003
1.924610e+003, 3.432818e-003
1.926538e+003, 3.562013e-003
1.928467e+003, 2.854773e-003
1.930395e+003, 2.982073e-003
1.932324e+003, 3.810644e-003
1.934252e+003, 3.408472e-003
1.936181e+003, 2.735435e-003
1.938109e+003, 1.182059e-003
1.940037e+003, 8.372142e-004
1.941966e+003, 3.027208e-004
1.943894e+003, -5.944349e-004
1.945823e+003, -1.820899e-004
1.947751e+003, 1.248617e-004
1.949680e+003, -1.583456e-004
1.951608e+003, -2.409393e-004
1.953537e+003, 2.099712e-004
1.955465e+003, -4.719011e-006
1.957394e+003, -8.798432e-004
1.959322e+003, -3.135003e-003
1.961251e+003, -2.368174e-003
1.963179e+003, -5.123969e-004
1.965108e+003, 2.665288e-005
1.967036e+003, -1.366038e-003
1.968964e+003, -4.859260e-003
1.970893e+003, -7.364366e-003
1.972821e+003, -5.914066e-003
1.974750e+003, -5.541121e-003
1.976678e+003, -6.595588e-003
1.978607e+003, -4.081663e-003
1.980535e+003, -1.609313e-003
1.982464e+003, -2.543824e-003
1.984392e+003, -4.568036e-003
1.986321e+003, -5.812658e-003
1.988249e+003, -3.793419e-003
1.990178e+003, -3.165935e-003
1.992106e+003, -5.592260e-003
1.994035e+003, -5.680708e-003
1.995963e+003, -4.147520e-003
1.997891e+003, -3.451067e-003
1.999820e+003, -3.377074e-003
2.001748e+003, -3.078141e-003
2.003677e+003, -1.963052e-003
2.005605e+003, -3.049984e-003
2.007534e+003, -1.814944e-003
2.009462e+003, -2.179067e-003
2.011391e+003, -2.118763e-003
2.013319e+003, -3.337532e-003
2.015248e+003, -5.503638e-003
2.017176e+003, -4.943285e-003
2.019105e+003, -4.649763e-003
2.021033e+003, -5.554573e-003
2.022962e+003, -6.411166e-003
2.024890e+003, -6.018449e-003
2.026818e+003, -3.382733e-003
2.028747e+003, -4.697247e-003
2.030675e+003, -5.613538e-003
2.032604e+003, -1.888103e-003
2.034532e+003, -1.394442e-003
2.036461e+003, -3.249912e-003
2.038389e+003, -2.249536e-003
2.040318e+003, -2.428791e-003
2.042246e+003, -2.695542e-003
2.044175e+003, -2.023715e-003
2.046103e+003, -8.717855e-004
2.048032e+003, 1.651474e-003
2.049960e+003, 3.434464e-003
2.051889e+003, 3.006334e-003
2.053817e+003, 2.191494e-003
2.055746e+003, 2.305169e-003
2.057674e+003, 2.850581e-003
2.059603e+003, 4.917481e-003
2.061531e+003, 4.889800e-003
2.063459e+003, 3.700726e-003
2.065388e+003, 2.809186e-003
2.067316e+003, 2.150835e-003
2.069245e+003, 3.890539e-003
2.071173e+003, 5.699030e-003
2.073102e+003, 6.177365e-003
2.075030e+003, 6.123471e-003
2.076959e+003, 4.589347e-003
2.078887e+003, 3.761255e-003
2.080816e+003, 4.240785e-003
2.082744e+003, 5.711819e-003
2.084673e+003, 5.739827e-003
2.086601e+003, 5.194025e-003
2.088530e+003, 5.315301e-003
2.090458e+003, 4.704455e-003
2.092386e+003, 3.039260e-003
2.094315e+003, 2.898061e-003
2.096243e+003, 4.508686e-003
2.098172e+003, 5.394041e-003
2.100100e+003, 6.081553e-003
2.102029e+003, 5.723082e-003
2.103957e+003, 5.902714e-003
2.105886e+003, 5.692089e-003
2.107814e+003, 5.397463e-003
2.109743e+003, 5.902432e-003
2.111671e+003, 4.797608e-003
2.113600e+003, 3.533036e-003
2.115528e+003, 4.637660e-003
2.117457e+003, 3.833549e-003
2.119385e+003, 3.027576e-003
2.121313e+003, 3.702038e-003
2.123242e+003, 4.249047e-003
2.125170e+003, 4.388785e-003
2.127099e+003, 5.823643e-003
2.129027e+003, 5.314137e-003
2.130956e+003, 3.094514e-003
2.132884e+003, 2.531539e-003
2.134813e+003, 3.220612e-003
2.136741e+003, 2.299715e-003
2.138670e+003, 2.604373e-003
2.140598e+003, 3.513953e-003
2.142527e+003, 4.793824e-003
2.144455e+003, 4.108517e-003
2.146384e+003, 2.393321e-003
2.148312e+003, 2.469370e-003
2.150240e+003, 1.405198e-003
2.152169e+003, -1.983626e-003
2.154097e+003, -1.878101e-003
2.156026e+003, -2.001918e-003
2.157954e+003, 1.213141e-003
2.159883e+003, 6.097918e-003
2.161811e+003, 4.885338e-003
2.163740e+003, 5.885230e-003
2.165668e+003, 6.035235e-003
2.167597e+003, 4.869320e-003
2.169525e+003, 2.197571e-003
2.171454e+003, 1.659517e-003
2.173382e+003, 5.858101e-003
2.175311e+003, 8.329661e-003
2.177239e+003, 5.502613e-003
2.179167e+003, 1.676863e-003
2.181096e+003, 1.342803e-003
2.183024e+003, 4.216991e-004
2.184953e+003, 1.722893e-003
2.186881e+003, 5.622288e-003
2.188810e+003, 5.780913e-003
2.190738e+003, 4.688806e-003
2.192667e+003, 7.744825e-003
2.194595e+003, 7.105122e-003
2.196524e+003, 4.956966e-003
2.198452e+003, 6.500833e-003
2.200381e+003, 7.742135e-003
2.202309e+003, 7.649692e-003
2.204238e+003, 7.696895e-003
2.206166e+003, 6.171762e-003
2.208094e+003, 5.936694e-003
2.210023e+003, 6.404290e-003
2.211951e+003, 5.134749e-003
2.213880e+003, 5.583957e-003
2.215808e+003, 6.571285e-003
2.217737e+003, 7.771291e-003
2.219665e+003, 9.716252e-003
2.221594e+003, 8.612331e-003
2.223522e+003, 7.049544e-003
2.225451e+003, 7.148471e-003
2.227379e+003, 7.077238e-003
2.229308e+003, 6.641177e-003
2.231236e+003, 8.857255e-003
2.233165e+003, 1.181420e-002
2.235093e+003, 1.093918e-002
2.237021e+003, 7.686375e-003
2.238950e+003, 7.806060e-003
2.240878e+003, 8.400797e-003
2.242807e+003, 7.535490e-003
2.244735e+003, 8.151364e-003
2.246664e+003, 8.018639e-003
2.248592e+003, 7.718458e-003
2.250521e+003, 7.968363e-003
2.252449e+003, 8.821717e-003
2.254378e+003, 9.266492e-003
2.256306e+003, 1.102624e-002
2.258235e+003, 1.222582e-002
2.260163e+003, 1.088508e-002
2.262092e+003, 9.518486e-003
2.264020e+003, 9.302402e-003
2.265948e+003, 9.215786e-003
2.267877e+003, 9.488409e-003
2.269805e+003, 1.001233e-002
2.271734e+003, 1.004972e-002
2.273662e+003, 1.001603e-002
2.275591e+003, 1.116803e-002
2.277519e+003, 1.156842e-002
2.279448e+003, 1.149154e-002
2.281376e+003, 1.244295e-002
2.283305e+003, 1.265996e-002
2.285233e+003, 1.184587e-002
2.287162e+003, 1.197906e-002
2.289090e+003, 1.184236e-002
2.291019e+003, 1.194411e-002
2.292947e+003, 1.237842e-002
2.294875e+003, 1.149608e-002
2.296804e+003, 1.083953e-002
2.298732e+003, 1.126758e-002
2.300661e+003, 1.194271e-002
2.302589e+003, 1.183142e-002
2.304518e+003, 1.157416e-002
2.306446e+003, 1.235685e-002
2.308375e+003, 1.264868e-002
2.310303e+003, 1.258403e-002
2.312232e+003, 1.257380e-002
2.314160e+003, 1.250360e-002
2.316089e+003, 1.283088e-002
2.318017e+003, 1.336391e-002
2.319946e+003, 1.371317e-002
2.321874e+003, 1.367503e-002
2.323802e+003, 1.313569e-002
2.325731e+003, 1.238111e-002
2.327659e+003, 1.263348e-002
2.329588e+003, 1.333194e-002
2.331516e+003, 1.328592e-002
2.333445e+003, 1.302178e-002
2.335373e+003, 1.344519e-002
2.337302e+003, 1.303530e-002
2.339230e+003, 1.301582e-002
2.341159e+003, 1.356874e-002
2.343087e+003, 1.393707e-002
2.345016e+003, 1.362139e-002
2.346944e+003, 1.245902e-002
2.348873e+003, 1.217411e-002
2.350801e+003, 1.262205e-002
2.352729e+003, 1.313178e-002
2.354658e+003, 1.356861e-002
2.356586e+003, 1.374568e-002
2.358515e+003, 1.437572e-002
2.360443e+003, 1.476854e-002
2.362372e+003, 1.457199e-002
2.364300e+003, 1.329559e-002
2.366229e+003, 1.354920e-002
2.368157e+003, 1.383541e-002
2.370086e+003, 1.312904e-002
2.372014e+003, 1.230668e-002
2.373942e+003, 1.201685e-002
2.375871e+003, 1.219775e-002
2.377799e+003, 1.242216e-002
2.379728e+003, 1.146924e-002
2.381656e+003, 1.174266e-002
2.383585e+003, 1.252873e-002
2.385513e+003, 1.133994e-002
2.387442e+003, 1.056553e-002
2.389370e+003, 1.110383e-002
2.391299e+003, 1.203338e-002
2.393227e+003, 1.157481e-002
2.395156e+003, 1.064663e-002
2.397084e+003, 1.134092e-002
2.399012e+003, 1.206412e-002
2.400941e+003, 1.268508e-002
2.402869e+003, 1.153567e-002
2.404798e+003, 1.166885e-002
2.406726e+003, 1.221417e-002
2.408655e+003, 1.272209e-002
2.410583e+003, 1.262156e-002
2.412512e+003, 1.114283e-002
2.414440e+003, 1.153688e-002
2.416369e+003, 1.268255e-002
2.418297e+003, 1.164961e-002
2.420226e+003, 1.084301e-002
2.422154e+003, 1.123255e-002
2.424083e+003, 1.146240e-002
2.426011e+003, 1.079799e-002
2.427939e+003, 1.097295e-002
2.429868e+003, 1.182160e-002
2.431796e+003, 1.219750e-002
2.433725e+003, 1.202949e-002
2.435653e+003, 1.228679e-002
2.437582e+003, 1.261677e-002
2.439510e+003, 1.192933e-002
2.441439e+003, 1.204635e-002
2.443367e+003, 1.227566e-002
2.445296e+003, 1.269232e-002
2.447224e+003, 1.197551e-002
2.449153e+003, 1.182400e-002
2.451081e+003, 1.242479e-002
2.453010e+003, 1.241866e-002
2.454938e+003, 1.251648e-002
2.456866e+003, 1.283173e-002
2.458795e+003, 1.300152e-002
2.460723e+003, 1.356216e-002
2.462652e+003, 1.273093e-002
2.464580e+003, 1.230216e-002
2.466509e+003, 1.243344e-002
2.468437e+003, 1.291507e-002
2.470366e+003, 1.244806e-002
2.472294e+003, 1.198386e-002
2.474223e+003, 1.181561e-002
2.476151e+003, 1.135013e-002
2.478080e+003, 1.094445e-002
2.480008e+003, 1.215434e-002
2.481937e+003, 1.279416e-002
2.483865e+003, 1.213021e-002
2.485793e+003, 1.218202e-002
2.487722e+003, 1.199559e-002
2.489650e+003, 1.067141e-002
2.491579e+003, 1.120888e-002
2.493507e+003, 1.280025e-002
2.495436e+003, 1.275869e-002
2.497364e+003, 1.224374e-002
2.499293e+003, 1.333006e-002
2.501221e+003, 1.273953e-002
2.503150e+003, 1.128303e-002
2.505078e+003, 1.160959e-002
2.507007e+003, 1.289284e-002
2.508935e+003, 1.428955e-002
2.510864e+003, 1.400143e-002
2.512792e+003, 1.201806e-002
2.514720e+003, 1.102427e-002
2.516649e+003, 1.123432e-002
2.518577e+003, 1.221969e-002
2.520506e+003, 1.209758e-002
2.522434e+003, 1.192934e-002
2.524363e+003, 1.267785e-002
2.526291e+003, 1.232124e-002
2.528220e+003, 1.154317e-002
2.530148e+003, 1.261007e-002
2.532077e+003, 1.306642e-002
2.534005e+003, 1.275768e-002
2.535934e+003, 1.348829e-002
2.537862e+003, 1.433262e-002
2.539791e+003, 1.387066e-002
2.541719e+003, 1.373626e-002
2.543647e+003, 1.356595e-002
2.545576e+003, 1.357202e-002
2.547504e+003, 1.298823e-002
2.549433e+003, 1.372408e-002
2.551361e+003, 1.478211e-002
2.553290e+003, 1.311707e-002
2.555218e+003, 1.233039e-002
2.557147e+003, 1.271887e-002
2.559075e+003, 1.302597e-002
2.561004e+003, 1.293716e-002
2.562932e+003, 1.300687e-002
2.564861e+003, 1.317359e-002
2.566789e+003, 1.426280e-002
2.568718e+003, 1.394628e-002
2.570646e+003, 1.343351e-002
2.572574e+003, 1.314486e-002
2.574503e+003, 1.303870e-002
2.576431e+003, 1.261709e-002
2.578360e+003, 1.267821e-002
2.580288e+003, 1.314881e-002
2.582217e+003, 1.209344e-002
2.584145e+003, 1.162709e-002
2.586074e+003, 1.337234e-002
2.588002e+003, 1.296354e-002
2.589931e+003, 1.161095e-002
2.591859e+003, 1.214297e-002
2.593788e+003, 1.353225e-002
2.595716e+003, 1.303168e-002
2.597645e+003, 1.352769e-002
2.599573e+003, 1.468261e-002
2.601501e+003, 1.517353e-002
2.603430e+003, 1.463324e-002
2.605358e+003, 1.481042e-002
2.607287e+003, 1.583275e-002
2.609215e+003, 1.537319e-002
2.611144e+003, 1.387796e-002
2.613072e+003, 1.320158e-002
2.615001e+003, 1.353542e-002
2.616929e+003, 1.431632e-002
2.618858e+003, 1.490301e-002
2.620786e+003, 1.490001e-002
2.622715e+003, 1.418756e-002
2.624643e+003, 1.437146e-002
2.626572e+003, 1.417192e-002
2.628500e+003, 1.384341e-002
2.630428e+003, 1.330800e-002
2.632357e+003, 1.302817e-002
2.634285e+003, 1.400280e-002
2.636214e+003, 1.469825e-002
2.638142e+003, 1.475032e-002
2.640071e+003, 1.574916e-002
2.641999e+003, 1.564724e-002
2.643928e+003, 1.526283e-002
2.645856e+003, 1.523802e-002
2.647785e+003, 1.508802e-002
2.649713e+003, 1.432066e-002
2.651642e+003, 1.429227e-002
2.653570e+003, 1.453669e-002
2.655499e+003, 1.416803e-002
2.657427e+003, 1.411631e-002
2.659355e+003, 1.484630e-002
2.661284e+003, 1.463559e-002
2.663212e+003, 1.463876e-002
2.665141e+003, 1.386776e-002
2.667069e+003, 1.395241e-002
2.668998e+003, 1.463050e-002
2.670926e+003, 1.386322e-002
2.672855e+003, 1.341789e-002
2.674783e+003, 1.382360e-002
2.676712e+003, 1.395891e-002
2.678640e+003, 1.421385e-002
2.680569e+003, 1.394854e-002
2.682497e+003, 1.372287e-002
2.684426e+003, 1.423498e-002
2.686354e+003, 1.418412e-002
2.688282e+003, 1.466221e-002
2.690211e+003, 1.481894e-002
2.692139e+003, 1.460030e-002
2.694068e+003, 1.424018e-002
2.695996e+003, 1.391125e-002
2.697925e+003, 1.368728e-002
2.699853e+003, 1.474439e-002
2.701782e+003, 1.513629e-002
2.703710e+003, 1.443886e-002
2.705639e+003, 1.482474e-002
2.707567e+003, 1.572319e-002
2.709496e+003, 1.528532e-002
2.711424e+003, 1.424232e-002
2.713353e+003, 1.329786e-002
2.715281e+003, 1.433121e-002
2.717209e+003, 1.519076e-002
2.719138e+003, 1.469084e-002
2.721066e+003, 1.502106e-002
2.722995e+003, 1.600161e-002
2.724923e+003, 1.595690e-002
2.726852e+003, 1.532649e-002
2.728780e+003, 1.427888e-002
2.730709e+003, 1.403159e-002
2.732637e+003, 1.473849e-002
2.734566e+003, 1.482461e-002
2.736494e+003, 1.423237e-002
2.738423e+003, 1.436956e-002
2.740351e+003, 1.472179e-002
2.742280e+003, 1.428810e-002
2.744208e+003, 1.475044e-002
2.746136e+003, 1.550544e-002
2.748065e+003, 1.556706e-002
2.749993e+003, 1.576684e-002
2.751922e+003, 1.572602e-002
2.753850e+003, 1.588321e-002
2.755779e+003, 1.597000e-002
2.757707e+003, 1.521604e-002
2.759636e+003, 1.546760e-002
2.761564e+003, 1.588694e-002
2.763493e+003, 1.581316e-002
2.765421e+003, 1.582299e-002
2.767350e+003, 1.596858e-002
2.769278e+003, 1.551587e-002
2.771207e+003, 1.560951e-002
2.773135e+003, 1.525527e-002
2.775063e+003, 1.474979e-002
2.776992e+003, 1.567478e-002
2.778920e+003, 1.557428e-002
2.780849e+003, 1.565691e-002
2.782777e+003, 1.618843e-002
2.784706e+003, 1.582965e-002
2.786634e+003, 1.550446e-002
2.788563e+003, 1.548025e-002
2.790491e+003, 1.516708e-002
2.792420e+003, 1.472446e-002
2.794348e+003, 1.505192e-002
2.796277e+003, 1.608576e-002
2.798205e+003, 1.668812e-002
2.800134e+003, 1.650223e-002
2.802062e+003, 1.661996e-002
2.803990e+003, 1.663819e-002
2.805919e+003, 1.612053e-002
2.807847e+003, 1.574693e-002
2.809776e+003, 1.649970e-002
2.811704e+003, 1.785695e-002
2.813633e+003, 1.793735e-002
2.815561e+003, 1.757428e-002
2.817490e+003, 1.710136e-002
2.819418e+003, 1.652103e-002
2.821347e+003, 1.633941e-002
2.823275e+003, 1.657226e-002
2.825204e+003, 1.704004e-002
2.827132e+003, 1.751908e-002
2.829061e+003, 1.739692e-002
2.830989e+003, 1.803423e-002
2.832917e+003, 1.829681e-002
2.834846e+003, 1.708846e-002
2.836774e+003, 1.641354e-002
2.838703e+003, 1.758884e-002
2.840631e+003, 1.870313e-002
2.842560e+003, 1.779070e-002
2.844488e+003, 1.697608e-002
2.846417e+003, 1.676770e-002
2.848345e+003, 1.681621e-002
2.850274e+003, 1.708682e-002
2.852202e+003, 1.623298e-002
2.854131e+003, 1.617443e-002
2.856059e+003, 1.668554e-002
2.857988e+003, 1.655817e-002
2.859916e+003, 1.694918e-002
2.861844e+003, 1.788046e-002
2.863773e+003, 1.856554e-002
2.865701e+003, 1.859913e-002
2.867630e+003, 1.832334e-002
2.869558e+003, 1.921367e-002
2.871487e+003, 2.022715e-002
2.873415e+003, 2.019886e-002
2.875344e+003, 1.966068e-002
2.877272e+003, 2.037617e-002
2.879201e+003, 2.145775e-002
2.881129e+003, 2.019527e-002
2.883058e+003, 1.979420e-002
2.884986e+003, 2.065948e-002
2.886915e+003, 1.972482e-002
2.888843e+003, 1.896659e-002
2.890771e+003, 1.939426e-002
2.892700e+003, 2.021756e-002
2.894628e+003, 2.026721e-002
2.896557e+003, 2.031070e-002
2.898485e+003, 1.956881e-002
2.900414e+003, 1.824233e-002
2.902342e+003, 1.872956e-002
2.904271e+003, 1.948436e-002
2.906199e+003, 1.961663e-002
2.908128e+003, 2.029560e-002
2.910056e+003, 1.994195e-002
2.911985e+003, 2.041644e-002
2.913913e+003, 2.161488e-002
2.915842e+003, 2.062079e-002
2.917770e+003, 2.087157e-002
2.919698e+003, 2.178896e-002
2.921627e+003, 2.131481e-002
2.923555e+003, 2.050462e-002
2.925484e+003, 2.113215e-002
2.927412e+003, 2.112697e-002
2.929341e+003, 1.885677e-002
2.931269e+003, 1.879695e-002
2.933198e+003, 1.909894e-002
2.935126e+003, 1.897318e-002
2.937055e+003, 1.937753e-002
2.938983e+003, 1.922664e-002
2.940912e+003, 1.923802e-002
2.942840e+003, 2.060061e-002
2.944769e+003, 2.206130e-002
2.946697e+003, 2.293086e-002
2.948625e+003, 2.320683e-002
2.950554e+003, 2.211132e-002
2.952482e+003, 2.005065e-002
2.954411e+003, 2.063921e-002
2.956339e+003, 2.229129e-002
2.958268e+003, 2.156065e-002
2.960196e+003, 2.055357e-002
2.962125e+003, 2.129442e-002
2.964053e+003, 2.255229e-002
2.965982e+003, 2.241255e-002
2.967910e+003, 2.125410e-002
2.969839e+003, 2.125521e-002
2.971767e+003, 2.204739e-002
2.973696e+003, 2.146395e-002
2.975624e+003, 2.054513e-002
2.977552e+003, 2.053805e-002
2.979481e+003, 2.093270e-002
2.981409e+003, 2.142794e-002
2.983338e+003, 2.158237e-002
2.985266e+003, 2.180191e-002
2.987195e+003, 2.192933e-002
2.989123e+003, 2.243839e-002
2.991052e+003, 2.117265e-002
2.992980e+003, 2.082770e-002
2.994909e+003, 2.181988e-002
2.996837e+003, 2.124288e-002
2.998766e+003, 2.186843e-002
3.000694e+003, 2.201323e-002
3.002623e+003, 2.072095e-002
3.004551e+003, 1.987757e-002
3.006479e+003, 2.014740e-002
3.008408e+003, 2.147276e-002
3.010336e+003, 2.255475e-002
3.012265e+003, 2.146827e-002
3.014193e+003, 2.166193e-002
3.016122e+003, 2.153871e-002
3.018050e+003, 1.981059e-002
3.019979e+003, 2.045175e-002
3.021907e+003, 1.933497e-002
3.023836e+003, 1.927829e-002
3.025764e+003, 1.973272e-002
3.027693e+003, 1.945186e-002
3.029621e+003, 2.051005e-002
3.031550e+003, 2.091894e-002
3.033478e+003, 1.938243e-002
3.035406e+003, 1.869794e-002
3.037335e+003, 1.916516e-002
3.039263e+003, 2.018986e-002
3.041192e+003, 2.100614e-002
3.043120e+003, 2.099924e-002
3.045049e+003, 1.964685e-002
3.046977e+003, 2.048982e-002
3.048906e+003, 2.133532e-002
3.050834e+003, 2.033231e-002
3.052763e+003, 1.957260e-002
3.054691e+003, 1.997841e-002
3.056620e+003, 2.021234e-002
3.058548e+003, 2.043875e-002
3.060477e+003, 2.098169e-002
3.062405e+003, 2.212045e-002
3.064333e+003, 2.269736e-002
3.066262e+003, 2.193541e-002
3.068190e+003, 2.212431e-002
3.070119e+003, 2.211293e-002
3.072047e+003, 2.079700e-002
3.073976e+003, 2.005914e-002
3.075904e+003, 2.123641e-002
3.077833e+003, 2.343818e-002
3.079761e+003, 2.415408e-002
3.081690e+003, 2.303930e-002
3.083618e+003, 2.310818e-002
3.085547e+003, 2.293260e-002
3.087475e+003, 2.255590e-002
3.089404e+003, 2.341582e-002
3.091332e+003, 2.345357e-002
3.093260e+003, 2.283846e-002
3.095189e+003, 2.256764e-002
3.097117e+003, 2.259608e-002
3.099046e+003, 2.161606e-002
3.100974e+003, 2.098696e-002
3.102903e+003, 2.229804e-002
3.104831e+003, 2.257737e-002
3.106760e+003, 2.336781e-002
3.108688e+003, 2.436773e-002
3.110617e+003, 2.549759e-002
3.112545e+003, 2.642524e-002
3.114474e+003, 2.586815e-002
3.116402e+003, 2.432172e-002
3.118331e+003, 2.363520e-002
3.120259e+003, 2.501248e-002
3.122188e+003, 2.565325e-002
3.124116e+003, 2.496408e-002
3.126044e+003, 2.461429e-002
3.127973e+003, 2.435703e-002
3.129901e+003, 2.329785e-002
3.131830e+003, 2.328836e-002
3.133758e+003, 2.284052e-002
3.135687e+003, 2.360285e-002
3.137615e+003, 2.465619e-002
3.139544e+003, 2.491698e-002
3.141472e+003, 2.615887e-002
3.143401e+003, 2.641347e-002
3.145329e+003, 2.662375e-002
3.147258e+003, 2.598119e-002
3.149186e+003, 2.357013e-002
3.151115e+003, 2.287791e-002
3.153043e+003, 2.509185e-002
3.154971e+003, 2.738150e-002
3.156900e+003, 2.695867e-002
3.158828e+003, 2.554201e-002
3.160757e+003, 2.515185e-002
3.162685e+003, 2.508927e-002
3.164614e+003, 2.527914e-002
3.166542e+003, 2.439519e-002
3.168471e+003, 2.573602e-002
3.170399e+003, 2.817077e-002
3.172328e+003, 2.755056e-002
3.174256e+003, 2.693450e-002
3.176185e+003, 2.616341e-002
3.178113e+003, 2.441210e-002
3.180042e+003, 2.517557e-002
3.181970e+003, 2.656377e-002
3.183898e+003, 2.706078e-002
3.185827e+003, 2.806154e-002
3.187755e+003, 2.918519e-002
3.189684e+003, 2.971529e-002
3.191612e+003, 2.883416e-002
3.193541e+003, 2.754406e-002
3.195469e+003, 2.786335e-002
3.197398e+003, 2.817570e-002
3.199326e+003, 2.832569e-002
3.201255e+003, 2.704396e-002
3.203183e+003, 2.683769e-002
3.205112e+003, 2.871752e-002
3.207040e+003, 2.969808e-002
3.208969e+003, 2.831805e-002
3.210897e+003, 2.760330e-002
3.212825e+003, 2.848391e-002
3.214754e+003, 2.794622e-002
3.216682e+003, 2.684934e-002
3.218611e+003, 2.729180e-002
3.220539e+003, 2.709127e-002
3.222468e+003, 2.723535e-002
3.224396e+003, 2.734085e-002
3.226325e+003, 2.792940e-002
3.228253e+003, 2.991771e-002
3.230182e+003, 3.186964e-002
3.232110e+003, 3.208838e-002
3.234039e+003, 3.006194e-002
3.235967e+003, 3.002184e-002
3.237896e+003, 3.071989e-002
3.239824e+003, 3.079998e-002
3.241752e+003, 3.142121e-002
3.243681e+003, 2.856511e-002
3.245609e+003, 2.661605e-002
3.247538e+003, 2.798805e-002
3.249466e+003, 3.022264e-002
3.251395e+003, 3.061937e-002
3.253323e+003, 3.018805e-002
3.255252e+003, 3.134011e-002
3.257180e+003, 3.155725e-002
3.259109e+003, 3.095963e-002
3.261037e+003, 2.980217e-002
3.262966e+003, 3.038199e-002
3.264894e+003, 3.016526e-002
3.266823e+003, 2.906517e-002
3.268751e+003, 2.968952e-002
3.270679e+003, 3.240007e-002
3.272608e+003, 3.332820e-002
3.274536e+003, 3.404959e-002
3.276465e+003, 3.258691e-002
3.278393e+003, 3.218669e-002
3.280322e+003, 3.175268e-002
3.282250e+003, 3.009818e-002
3.284179e+003, 3.163881e-002
3.286107e+003, 3.401979e-002
3.288036e+003, 3.357101e-002
3.289964e+003, 3.257890e-002
3.291893e+003, 3.107053e-002
3.293821e+003, 3.048299e-002
3.295750e+003, 3.196594e-002
3.297678e+003, 3.368322e-002
3.299606e+003, 3.417224e-002
3.301535e+003, 3.431742e-002
3.303463e+003, 3.411592e-002
3.305392e+003, 3.401212e-002
3.307320e+003, 3.574482e-002
3.309249e+003, 3.493150e-002
3.311177e+003, 3.439827e-002
3.313106e+003, 3.585359e-002
3.315034e+003, 3.359374e-002
3.316963e+003, 3.117525e-002
3.318891e+003, 3.199686e-002
3.320820e+003, 3.395444e-002
3.322748e+003, 3.421881e-002
3.324677e+003, 3.452797e-002
3.326605e+003, 3.431084e-002
3.328533e+003, 3.473168e-002
3.330462e+003, 3.513733e-002
3.332390e+003, 3.595072e-002
3.334319e+003, 3.562250e-002
3.336247e+003, 3.321242e-002
3.338176e+003, 3.526930e-002
3.340104e+003, 3.671155e-002
3.342033e+003, 3.612344e-002
3.343961e+003, 3.716595e-002
3.345890e+003, 3.689158e-002
3.347818e+003, 3.620319e-002
3.349747e+003, 3.635430e-002
3.351675e+003, 3.855250e-002
3.353604e+003, 3.932028e-002
3.355532e+003, 3.722697e-002
3.357460e+003, 3.629818e-002
3.359389e+003, 3.683387e-002
3.361317e+003, 3.757212e-002
3.363246e+003, 3.870978e-002
3.365174e+003, 3.794571e-002
3.367103e+003, 3.692807e-002
3.369031e+003, 3.738024e-002
3.370960e+003, 3.707669e-002
3.372888e+003, 3.496045e-002
3.374817e+003, 3.459950e-002
3.376745e+003, 3.619520e-002
3.378674e+003, 3.712092e-002
3.380602e+003, 3.666757e-002
3.382531e+003, 3.474712e-002
3.384459e+003, 3.561781e-002
3.386387e+003, 3.832551e-002
3.388316e+003, 3.853392e-002
3.390244e+003, 3.917506e-002
3.392173e+003, 4.059643e-002
3.394101e+003, 3.835139e-002
3.396030e+003, 3.598751e-002
3.397958e+003, 3.806302e-002
3.399887e+003, 3.866312e-002
3.401815e+003, 3.793568e-002
3.403744e+003, 3.707723e-002
3.405672e+003, 3.597875e-002
3.407601e+003, 3.583469e-002
3.409529e+003, 3.568262e-002
3.411458e+003, 3.561928e-002
3.413386e+003, 3.761613e-002
3.415314e+003, 3.874800e-002
3.417243e+003, 3.686958e-002
3.419171e+003, 3.620015e-002
3.421100e+003, 3.710824e-002
3.423028e+003, 3.798284e-002
3.424957e+003, 3.861738e-002
3.426885e+003, 3.794339e-002
3.428814e+003, 3.607680e-002
3.430742e+003, 3.402131e-002
3.432671e+003, 3.502440e-002
3.434599e+003, 3.532189e-002
3.436528e+003, 3.487935e-002
3.438456e+003, 3.469997e-002
3.440385e+003, 3.591105e-002
3.442313e+003, 3.718507e-002
3.444241e+003, 3.747582e-002
3.446170e+003, 3.514921e-002
3.448098e+003, 3.370162e-002
3.450027e+003, 3.435089e-002
3.451955e+003, 3.558698e-002
3.453884e+003, 3.760280e-002
3.455812e+003, 3.879607e-002
3.457741e+003, 3.606416e-002
3.459669e+003, 3.483529e-002
3.461598e+003, 3.498213e-002
3.463526e+003, 3.480203e-002
3.465455e+003, 3.587117e-002
3.467383e+003, 3.844053e-002
3.469312e+003, 3.842019e-002
3.471240e+003, 3.723887e-002
3.473168e+003, 3.602584e-002
3.475097e+003, 3.537617e-002
3.477025e+003, 3.728533e-002
3.478954e+003, 3.748072e-002
3.480882e+003, 3.445880e-002
3.482811e+003, 3.383368e-002
3.484739e+003, 3.570733e-002
3.486668e+003, 3.591776e-002
3.488596e+003, 3.464437e-002
3.490525e+003, 3.341416e-002
3.492453e+003, 3.490143e-002
3.494382e+003, 3.655164e-002
3.496310e+003, 3.443707e-002
3.498239e+003, 3.458738e-002
3.500167e+003, 3.605396e-002
3.502095e+003, 3.602551e-002
3.504024e+003, 3.441395e-002
3.505952e+003, 3.446728e-002
3.507881e+003, 3.665573e-002
3.509809e+003, 3.587347e-002
3.511738e+003, 3.114168e-002
3.513666e+003, 3.256750e-002
3.515595e+003, 3.552205e-002
3.517523e+003, 3.436768e-002
3.519452e+003, 3.282623e-002
3.521380e+003, 3.096281e-002
3.523309e+003, 2.982708e-002
3.525237e+003, 3.325475e-002
3.527166e+003, 3.393482e-002
3.529094e+003, 3.183031e-002
3.531022e+003, 3.139136e-002
3.532951e+003, 3.018563e-002
3.534879e+003, 2.852717e-002
3.536808e+003, 3.034690e-002
3.538736e+003, 2.994099e-002
3.540665e+003, 2.969722e-002
3.542593e+003, 2.958232e-002
3.544522e+003, 3.015693e-002
3.546450e+003, 3.195637e-002
3.548379e+003, 3.394587e-002
3.550307e+003, 3.419757e-002
3.552236e+003, 3.202258e-002
3.554164e+003, 2.952339e-002
3.556093e+003, 2.999251e-002
3.558021e+003, 3.140597e-002
3.559949e+003, 3.196290e-002
3.561878e+003, 3.039667e-002
3.563806e+003, 2.991548e-002
3.565735e+003, 3.056773e-002
3.567663e+003, 2.984840e-002
3.569592e+003, 3.198744e-002
3.571520e+003, 3.389076e-002
3.573449e+003, 3.387260e-002
3.575377e+003, 3.347750e-002
3.577306e+003, 3.383441e-002
3.579234e+003, 3.375009e-002
3.581163e+003, 3.035026e-002
3.583091e+003, 2.924230e-002
3.585020e+003, 2.878832e-002
3.586948e+003, 2.763624e-002
3.588876e+003, 2.875954e-002
3.590805e+003, 3.032942e-002
3.592733e+003, 3.171382e-002
3.594662e+003, 3.253757e-002
3.596590e+003, 3.133883e-002
3.598519e+003, 3.087419e-002
3.600447e+003, 3.037979e-002
3.602376e+003, 3.131067e-002
3.604304e+003, 3.002436e-002
3.606233e+003, 2.896610e-002
3.608161e+003, 2.725506e-002
3.610090e+003, 2.662634e-002
3.612018e+003, 2.793877e-002
3.613947e+003, 2.936629e-002
3.615875e+003, 2.863028e-002
3.617803e+003, 2.711203e-002
3.619732e+003, 2.746115e-002
3.621660e+003, 2.981539e-002
3.623589e+003, 2.935993e-002
3.625517e+003, 2.825798e-002
3.627446e+003, 2.467665e-002
3.629374e+003, 2.846955e-002
3.631303e+003, 3.314508e-002
3.633231e+003, 3.099997e-002
3.635160e+003, 3.415847e-002
3.637088e+003, 3.617526e-002
3.639017e+003, 3.120156e-002
3.640945e+003, 2.704860e-002
3.642874e+003, 2.946031e-002
3.644802e+003, 3.240621e-002
3.646730e+003, 2.987825e-002
3.648659e+003, 2.823230e-002
3.650587e+003, 2.857173e-002
3.652516e+003, 3.086806e-002
3.654444e+003, 3.199223e-002
3.656373e+003, 3.499293e-002
3.658301e+003, 4.121083e-002
3.660230e+003, 4.230701e-002
3.662158e+003, 3.879657e-002
3.664087e+003, 4.062915e-002
3.666015e+003, 4.442031e-002
3.667944e+003, 5.118958e-002
3.669872e+003, 7.668903e-002
3.671801e+003, 1.476699e-001
3.673729e+003, 2.594056e-001
3.675657e+003, 2.848020e-001
3.677586e+003, 1.501704e-001
3.679514e+003, 4.640855e-002
3.681443e+003, 2.551432e-002
3.683371e+003, 2.339975e-002
3.685300e+003, 2.198123e-002
3.687228e+003, 1.739438e-002
3.689157e+003, 1.391368e-002
3.691085e+003, 1.768046e-002
3.693014e+003, 2.218404e-002
3.694942e+003, 2.205293e-002
3.696871e+003, 2.267504e-002
3.698799e+003, 2.338554e-002
3.700728e+003, 2.102876e-002
3.702656e+003, 2.080196e-002
3.704584e+003, 2.252110e-002
3.706513e+003, 2.282018e-002
3.708441e+003, 2.041038e-002
3.710370e+003, 1.828897e-002
3.712298e+003, 2.004587e-002
3.714227e+003, 2.286828e-002
3.716155e+003, 2.444736e-002
3.718084e+003, 2.263986e-002
3.720012e+003, 1.998205e-002
3.721941e+003, 2.010537e-002
3.723869e+003, 2.199199e-002
3.725798e+003, 2.290305e-002
3.727726e+003, 2.315787e-002
3.729655e+003, 2.292434e-002
3.731583e+003, 2.215938e-002
3.733511e+003, 2.139026e-002
3.735440e+003, 1.767125e-002
3.737368e+003, 2.071974e-002
3.739297e+003, 2.517450e-002
3.741225e+003, 2.416413e-002
3.743154e+003, 1.770807e-002
3.745082e+003, 1.455740e-002
3.747011e+003, 1.710526e-002
3.748939e+003, 1.953756e-002
3.750868e+003, 2.270784e-002
3.752796e+003, 2.300062e-002
3.754725e+003, 2.577735e-002
3.756653e+003, 2.646016e-002
3.758582e+003, 2.494520e-002
3.760510e+003, 2.134761e-002
3.762438e+003, 2.067770e-002
3.764367e+003, 2.005251e-002
3.766295e+003, 2.402237e-002
3.768224e+003, 2.416248e-002
3.770152e+003, 2.412238e-002
3.772081e+003, 2.458477e-002
3.774009e+003, 2.394614e-002
3.775938e+003, 2.588829e-002
3.777866e+003, 2.624462e-002
3.779795e+003, 2.452881e-002
3.781723e+003, 2.672027e-002
3.783652e+003, 2.894133e-002
3.785580e+003, 2.726266e-002
3.787509e+003, 2.330789e-002
3.789437e+003, 2.228704e-002
3.791365e+003, 2.719945e-002
3.793294e+003, 2.712040e-002
3.795222e+003, 2.599362e-002
3.797151e+003, 2.670169e-002
3.799079e+003, 2.542585e-002
3.801008e+003, 2.378779e-002
3.802936e+003, 2.310247e-002
3.804865e+003, 2.181992e-002
3.806793e+003, 1.912338e-002
3.808722e+003, 2.246357e-002
3.810650e+003, 2.819186e-002
3.812579e+003, 2.950906e-002
3.814507e+003, 2.434227e-002
3.816436e+003, 2.474231e-002
3.818364e+003, 3.005536e-002
3.820292e+003, 2.497368e-002
3.822221e+003, 2.183905e-002
3.824149e+003, 2.486776e-002
3.826078e+003, 2.510528e-002
3.828006e+003, 2.600552e-002
3.829935e+003, 2.546724e-002
3.831863e+003, 2.431045e-002
3.833792e+003, 2.583858e-002
3.835720e+003, 2.602717e-002
3.837649e+003, 2.134424e-002
3.839577e+003, 2.333127e-002
3.841506e+003, 2.713317e-002
3.843434e+003, 2.716550e-002
3.845363e+003, 2.538674e-002
3.847291e+003, 2.493316e-002
3.849219e+003, 2.725753e-002
3.851148e+003, 2.333125e-002
3.853076e+003, 1.651154e-002
3.855005e+003, 1.993997e-002
3.856933e+003, 2.281295e-002
3.858862e+003, 2.161989e-002
3.860790e+003, 1.995667e-002
3.862719e+003, 2.088635e-002
3.864647e+003, 2.062537e-002
3.866576e+003, 2.189234e-002
3.868504e+003, 2.211632e-002
3.870433e+003, 2.536893e-002
3.872361e+003, 2.692900e-002
3.874290e+003, 2.722990e-002
3.876218e+003, 2.801870e-002
3.878146e+003, 2.663558e-002
3.880075e+003, 2.587953e-002
3.882003e+003, 2.525164e-002
3.883932e+003, 2.474197e-002
3.885860e+003, 2.447691e-002
3.887789e+003, 2.754787e-002
3.889717e+003, 2.724628e-002
3.891646e+003, 2.794050e-002
3.893574e+003, 2.873763e-002
3.895503e+003, 2.796100e-002
3.897431e+003, 2.644576e-002
3.899360e+003, 2.508549e-002
3.901288e+003, 2.491216e-002
3.903217e+003, 2.421809e-002
3.905145e+003, 2.746486e-002
3.907073e+003, 3.067277e-002
3.909002e+003, 2.858702e-002
3.910930e+003, 2.806389e-002
3.912859e+003, 2.477305e-002
3.914787e+003, 2.607311e-002
3.916716e+003, 3.010500e-002
3.918644e+003, 2.685417e-002
3.920573e+003, 2.176838e-002
3.922501e+003, 2.350204e-002
3.924430e+003, 2.842439e-002
3.926358e+003, 2.708661e-002
3.928287e+003, 2.385569e-002
3.930215e+003, 2.816243e-002
3.932144e+003, 3.126084e-002
3.934072e+003, 3.071239e-002
3.936000e+003, 2.879750e-002
3.937929e+003, 2.453724e-002
3.939857e+003, 2.399752e-002
3.941786e+003, 2.546280e-002
3.943714e+003, 2.896497e-002
3.945643e+003, 3.133883e-002
3.947571e+003, 2.795159e-002
3.949500e+003, 2.637367e-002
3.951428e+003, 2.896842e-002
3.953357e+003, 3.125195e-002
3.955285e+003, 2.772515e-002
3.957214e+003, 2.855466e-002
3.959142e+003, 3.383740e-002
3.961071e+003, 3.148191e-002
3.962999e+003, 2.732143e-002
3.964927e+003, 2.946849e-002
3.966856e+003, 3.290912e-002
3.968784e+003, 3.386769e-002
3.970713e+003, 3.538991e-002
3.972641e+003, 3.371979e-002
3.974570e+003, 3.066695e-002
3.976498e+003, 2.957243e-002
3.978427e+003, 2.653354e-002
3.980355e+003, 2.519436e-002
3.982284e+003, 2.753806e-002
3.984212e+003, 2.771560e-002
3.986141e+003, 2.772628e-002
3.988069e+003, 3.069299e-002
3.989998e+003, 2.826572e-002
3.991926e+003, 2.951239e-002
3.993854e+003, 3.214265e-002
3.995783e+003, 3.148314e-002
3.997711e+003, 3.126931e-002
3.999640e+003, 3.128439e-002
##END=



