##NAMES=Tarbuttite
##RRUFFID=R050621
##IDEAL CHEMISTRY=Zn^2+^_2_(P^5+^O_4_)(OH)
##LOCALITY=Broken Hill, Rhodesia
##OWNER=RRUFF
##SOURCE=University of Arizona Mineral Museum
##DESCRIPTION=Colorless prismatic crystals
##STATUS=The identification of this mineral has been confirmed by X-ray diffraction and chemical analysis
##URL=rruff.info/R050621
##MEASURED CHEMISTRY=Zn_2.00_(P_1.00_O_4_)(OH)
399.1926, 0.1263967
401.1211, 8.5810758E-02
403.0496, 8.6223297E-02
404.9780, 6.7621298E-02
406.9065, 5.7059608E-02
408.8350, 5.0985970E-02
410.7634, 4.7639791E-02
412.6919, 4.4462919E-02
414.6204, 4.2274639E-02
416.5488, 4.4483241E-02
418.4773, 4.9289230E-02
420.4058, 5.4389920E-02
422.3342, 6.1689802E-02
424.2627, 7.1188956E-02
426.1912, 8.4030718E-02
428.1196, 0.1000550
430.0481, 0.1203027
431.9766, 0.1407541
433.9050, 0.1510127
435.8335, 0.1456086
437.7620, 0.1285299
439.6904, 0.1112764
441.6189, 9.9953286E-02
443.5474, 9.2391416E-02
445.4758, 8.8903993E-02
447.4043, 8.9463279E-02
449.3328, 9.0882882E-02
451.2612, 8.9790277E-02
453.1897, 8.6080432E-02
455.1182, 8.0317803E-02
457.0466, 7.3045067E-02
458.9751, 6.4087518E-02
460.9036, 5.4959141E-02
462.8320, 4.7292162E-02
464.7605, 4.0267821E-02
466.6890, 3.5305671E-02
468.6174, 3.2394949E-02
470.5459, 2.9596871E-02
472.4744, 2.7859639E-02
474.4028, 2.6988899E-02
476.3313, 2.7035849E-02
478.2598, 2.7362309E-02
480.1882, 2.7794540E-02
482.1167, 2.7315820E-02
484.0452, 2.7497070E-02
485.9736, 2.8285589E-02
487.9021, 2.9512569E-02
489.8306, 3.0958369E-02
491.7590, 3.1591062E-02
493.6875, 3.2393690E-02
495.6160, 3.3677049E-02
497.5444, 3.5272751E-02
499.4729, 3.7770592E-02
501.4014, 3.9358709E-02
503.3298, 4.0335130E-02
505.2583, 4.1989181E-02
507.1868, 4.4026781E-02
509.1152, 4.5795191E-02
511.0437, 4.8398629E-02
512.9722, 5.2387629E-02
514.9006, 5.6634799E-02
516.8291, 6.1457802E-02
518.7576, 6.6745132E-02
520.6860, 7.1226008E-02
522.6145, 7.4108914E-02
524.5430, 7.5032577E-02
526.4714, 7.4339353E-02
528.3999, 7.1419537E-02
530.3284, 6.9471084E-02
532.2568, 6.9532521E-02
534.1853, 6.9976039E-02
536.1138, 7.0621394E-02
538.0422, 7.1930818E-02
539.9707, 7.4252337E-02
541.8992, 7.8279212E-02
543.8276, 8.2758747E-02
545.7561, 8.8043638E-02
547.6846, 9.3889810E-02
549.6130, 9.9353664E-02
551.5415, 0.1056603
553.4700, 0.1130533
555.3984, 0.1210837
557.3269, 0.1295655
559.2554, 0.1388126
561.1838, 0.1490873
563.1123, 0.1606002
565.0408, 0.1736397
566.9692, 0.1872472
568.8977, 0.2017796
570.8262, 0.2179495
572.7546, 0.2340199
574.6831, 0.2501222
576.6116, 0.2653473
578.5400, 0.2784604
580.4685, 0.2884087
582.3970, 0.2909717
584.3254, 0.2840585
586.2539, 0.2687848
588.1824, 0.2488498
590.1108, 0.2306014
592.0393, 0.2171825
593.9678, 0.2082513
595.8962, 0.2038586
597.8247, 0.2034226
599.7532, 0.2036505
601.6816, 0.2023414
603.6101, 0.1986587
605.5386, 0.1928349
607.4670, 0.1840051
609.3955, 0.1722058
611.3240, 0.1579712
613.2524, 0.1423846
615.1809, 0.1270754
617.1094, 0.1132037
619.0378, 0.1005154
620.9663, 8.8788658E-02
622.8948, 7.8249037E-02
624.8232, 6.9001183E-02
626.7517, 6.0479920E-02
628.6802, 5.2798100E-02
630.6086, 4.6208531E-02
632.5371, 4.0917579E-02
634.4656, 3.7010640E-02
636.3940, 3.3778280E-02
638.3225, 3.1252678E-02
640.2510, 2.9164519E-02
642.1794, 2.7863329E-02
644.1079, 2.6778860E-02
646.0364, 2.5571721E-02
647.9648, 2.4601189E-02
649.8933, 2.3799460E-02
651.8218, 2.2868549E-02
653.7502, 2.2025840E-02
655.6787, 2.1451339E-02
657.6072, 2.1063160E-02
659.5356, 2.0327041E-02
661.4641, 1.9778689E-02
663.3926, 1.9450311E-02
665.3210, 1.8873241E-02
667.2495, 1.8494060E-02
669.1780, 1.8211920E-02
671.1064, 1.7949769E-02
673.0349, 1.7770160E-02
674.9634, 1.7481560E-02
676.8918, 1.7306000E-02
678.8203, 1.7283130E-02
680.7488, 1.7420910E-02
682.6772, 1.7661089E-02
684.6057, 1.7758530E-02
686.5342, 1.7737830E-02
688.4626, 1.7878700E-02
690.3911, 1.7848630E-02
692.3196, 1.8041041E-02
694.2480, 1.8417260E-02
696.1765, 1.8520551E-02
698.1050, 1.8245541E-02
700.0334, 1.8756039E-02
701.9619, 1.9247880E-02
703.8904, 1.9871410E-02
705.8188, 2.0414300E-02
707.7473, 2.0903191E-02
709.6758, 2.1627931E-02
711.6042, 2.2451021E-02
713.5327, 2.2957500E-02
715.4612, 2.3153201E-02
717.3896, 2.3489870E-02
719.3181, 2.4160059E-02
721.2466, 2.4995450E-02
723.1750, 2.5621010E-02
725.1035, 2.6428251E-02
727.0320, 2.7517149E-02
728.9604, 2.8467171E-02
730.8889, 2.9309640E-02
732.8174, 3.0565990E-02
734.7458, 3.1870522E-02
736.6743, 3.2752909E-02
738.6028, 3.3534389E-02
740.5313, 3.4621041E-02
742.4597, 3.5729218E-02
744.3882, 3.6851980E-02
746.3167, 3.8136099E-02
748.2451, 3.9155751E-02
750.1736, 4.0207330E-02
752.1021, 4.1496988E-02
754.0305, 4.2838190E-02
755.9590, 4.4078082E-02
757.8875, 4.5513380E-02
759.8159, 4.7208931E-02
761.7444, 4.9231540E-02
763.6729, 5.1374100E-02
765.6013, 5.3673148E-02
767.5298, 5.6265749E-02
769.4583, 5.9199620E-02
771.3867, 6.2349670E-02
773.3152, 6.5860733E-02
775.2437, 7.0106193E-02
777.1721, 7.4783273E-02
779.1006, 7.9508513E-02
781.0291, 8.5098743E-02
782.9575, 9.1080964E-02
784.8860, 9.8054759E-02
786.8145, 0.1064332
788.7429, 0.1155365
790.6714, 0.1250494
792.5999, 0.1358360
794.5283, 0.1470171
796.4568, 0.1583810
798.3853, 0.1687697
800.3137, 0.1764893
802.2422, 0.1801552
804.1707, 0.1786397
806.0991, 0.1709497
808.0276, 0.1586535
809.9561, 0.1431683
811.8845, 0.1261633
813.8130, 0.1102833
815.7415, 9.6812457E-02
817.6699, 8.6250700E-02
819.5984, 7.8556947E-02
821.5269, 7.3226608E-02
823.4553, 6.9376826E-02
825.3838, 6.6813312E-02
827.3123, 6.5747187E-02
829.2407, 6.5757804E-02
831.1692, 6.6340379E-02
833.0977, 6.7523457E-02
835.0261, 6.9337167E-02
836.9546, 7.1725957E-02
838.8831, 7.3858038E-02
840.8115, 7.5929649E-02
842.7400, 7.8289837E-02
844.6685, 8.0924921E-02
846.5969, 8.4017277E-02
848.5254, 8.8043854E-02
850.4539, 9.2412159E-02
852.3823, 9.7134233E-02
854.3108, 0.1025128
856.2393, 0.1087422
858.1677, 0.1149192
860.0962, 0.1202410
862.0247, 0.1262357
863.9531, 0.1325642
865.8816, 0.1388751
867.8101, 0.1459257
869.7385, 0.1536080
871.6670, 0.1620003
873.5955, 0.1710285
875.5239, 0.1804843
877.4524, 0.1896365
879.3809, 0.1991076
881.3093, 0.2096372
883.2378, 0.2203936
885.1663, 0.2314393
887.0947, 0.2426535
889.0232, 0.2540315
890.9517, 0.2653126
892.8801, 0.2759029
894.8085, 0.2857937
896.7370, 0.2956656
898.6655, 0.3046000
900.5939, 0.3114434
902.5224, 0.3164359
904.4509, 0.3195746
906.3793, 0.3202831
908.3078, 0.3182417
910.2363, 0.3139521
912.1647, 0.3074956
914.0932, 0.2986281
916.0217, 0.2871478
917.9501, 0.2733399
919.8786, 0.2584849
921.8071, 0.2428278
923.7355, 0.2270364
925.6640, 0.2119559
927.5925, 0.1987601
929.5209, 0.1883191
931.4494, 0.1809851
933.3779, 0.1772937
935.3063, 0.1776230
937.2348, 0.1813691
939.1633, 0.1877826
941.0917, 0.1965643
943.0202, 0.2075874
944.9487, 0.2214403
946.8771, 0.2381752
948.8056, 0.2576239
950.7341, 0.2788273
952.6625, 0.2992493
954.5910, 0.3142403
956.5195, 0.3204210
958.4479, 0.3172472
960.3764, 0.3064761
962.3049, 0.2935888
964.2333, 0.2822056
966.1618, 0.2736081
968.0903, 0.2692455
970.0187, 0.2688415
971.9472, 0.2719721
973.8757, 0.2776322
975.8041, 0.2854601
977.7326, 0.2946098
979.6611, 0.3045531
981.5895, 0.3144095
983.5180, 0.3235507
985.4465, 0.3311654
987.3749, 0.3373322
989.3034, 0.3422864
991.2319, 0.3456525
993.1603, 0.3480578
995.0888, 0.3496204
997.0173, 0.3493443
998.9457, 0.3472507
1000.874, 0.3435089
1002.803, 0.3384959
1004.731, 0.3326355
1006.660, 0.3254795
1008.588, 0.3177543
1010.517, 0.3096667
1012.445, 0.3005505
1014.373, 0.2914908
1016.302, 0.2830006
1018.230, 0.2749536
1020.159, 0.2671557
1022.087, 0.2600077
1024.016, 0.2533242
1025.944, 0.2470727
1027.873, 0.2412055
1029.801, 0.2352982
1031.730, 0.2294707
1033.658, 0.2238215
1035.587, 0.2180551
1037.515, 0.2121988
1039.444, 0.2061132
1041.372, 0.2000353
1043.301, 0.1939268
1045.229, 0.1876897
1047.157, 0.1812905
1049.086, 0.1744818
1051.014, 0.1682932
1052.943, 0.1625848
1054.871, 0.1570034
1056.800, 0.1516430
1058.728, 0.1465961
1060.657, 0.1417310
1062.585, 0.1373007
1064.514, 0.1330631
1066.442, 0.1288981
1068.371, 0.1247143
1070.299, 0.1212628
1072.228, 0.1184049
1074.156, 0.1159837
1076.084, 0.1147154
1078.013, 0.1148624
1079.941, 0.1162246
1081.870, 0.1182468
1083.798, 0.1206989
1085.727, 0.1225935
1087.655, 0.1237245
1089.584, 0.1242307
1091.512, 0.1236654
1093.441, 0.1217952
1095.369, 0.1193302
1097.298, 0.1160057
1099.226, 0.1119060
1101.155, 0.1069935
1103.083, 0.1014067
1105.011, 9.5283993E-02
1106.940, 8.8799737E-02
1108.868, 8.2274430E-02
1110.797, 7.6043248E-02
1112.725, 6.9908410E-02
1114.654, 6.3686833E-02
1116.582, 5.7743121E-02
1118.511, 5.2099690E-02
1120.439, 4.6685189E-02
1122.368, 4.1636340E-02
1124.296, 3.7289880E-02
1126.225, 3.3230931E-02
1128.153, 2.9186010E-02
1130.082, 2.5315110E-02
1132.010, 2.1904990E-02
1133.938, 1.9128909E-02
1135.867, 1.6611090E-02
1137.795, 1.4633080E-02
1139.724, 1.2810530E-02
1141.652, 1.1207220E-02
1143.581, 1.0071660E-02
1145.509, 9.1443826E-03
1147.438, 8.0529433E-03
1149.366, 7.2713648E-03
1151.295, 6.8624970E-03
1153.223, 6.2556718E-03
1155.152, 5.5994722E-03
1157.080, 5.1625539E-03
1159.009, 4.7215600E-03
1160.937, 4.4189170E-03
1162.865, 4.1558370E-03
1164.794, 3.9346330E-03
1166.722, 3.8569220E-03
1168.651, 3.4146321E-03
1170.579, 3.2316230E-03
1172.508, 3.4185089E-03
1174.436, 3.4210761E-03
1176.365, 3.3944400E-03
1178.293, 3.3520970E-03
1180.222, 3.0783040E-03
1182.150, 3.0076420E-03
1184.079, 3.1910739E-03
1186.007, 3.0067030E-03
1187.936, 2.8081320E-03
1189.864, 2.7984991E-03
1191.792, 2.6971169E-03
1193.721, 2.4582511E-03
1195.649, 2.3479939E-03
1197.578, 2.2975339E-03
1199.506, 2.3752521E-03
1201.435, 2.4528180E-03
1203.363, 2.2496851E-03
1205.292, 1.9776570E-03
1207.220, 1.8955470E-03
1209.149, 1.8208160E-03
1211.077, 1.5765770E-03
1213.006, 1.4488950E-03
1214.934, 1.4874890E-03
1216.863, 1.2738180E-03
1218.791, 1.0080830E-03
1220.719, 7.6893589E-04
1222.648, 6.7636103E-04
1224.576, 4.1171320E-04
1226.505, 4.3668321E-04
1228.433, 4.7818909E-04
1230.362, 2.7610370E-04
1232.290, 2.2057230E-04
1234.219, 1.8553020E-04
1236.147, -1.0508940E-04
1238.076, -1.6882191E-04
1240.004, -1.5407160E-05
1241.933, 4.4567561E-05
1243.861, 1.0086040E-04
1245.790, 4.4045471E-05
1247.718, -9.9583587E-05
1249.646, -2.2689919E-05
1251.575, 4.4955050E-05
1253.503, -5.6524339E-05
1255.432, -1.2104750E-05
1257.360, 9.9913254E-05
1259.289, -2.1446400E-05
1261.217, -1.2735880E-04
1263.146, 5.9978800E-05
1265.074, 1.6760980E-04
1267.003, 1.8429930E-05
1268.931, 3.1113250E-06
1270.860, 3.6642529E-04
1272.788, 5.3935550E-04
1274.717, 1.4581961E-04
1276.645, -3.0989081E-04
1278.573, -1.6074930E-04
1280.502, 3.0361419E-04
1282.430, 4.5259719E-04
1284.359, 3.9637971E-04
1286.287, 1.5358059E-04
1288.216, 4.5673529E-05
1290.144, 1.2522200E-04
1292.073, 4.1341249E-04
1294.001, 7.0441392E-04
1295.930, 6.9183501E-04
1297.858, 4.9785379E-04
1299.787, 5.6959240E-04
1301.715, 6.1918370E-04
1303.644, 7.8042300E-04
1305.572, 9.6974103E-04
1307.500, 1.1231269E-03
1309.429, 1.5220440E-03
1311.357, 1.7686620E-03
1313.286, 1.8724080E-03
1315.214, 2.3563860E-03
1317.143, 3.0216400E-03
1319.071, 3.1460701E-03
1321.000, 2.9944950E-03
1322.928, 2.8788950E-03
1324.857, 3.0580030E-03
1326.785, 2.8834881E-03
1328.714, 2.2203859E-03
1330.642, 1.7191370E-03
1332.571, 1.5937031E-03
1334.499, 1.6693959E-03
1336.427, 1.4064810E-03
1338.356, 1.3078779E-03
1340.284, 1.2338799E-03
1342.213, 1.1644850E-03
1344.141, 1.1894091E-03
1346.070, 1.2995920E-03
1347.998, 1.4803139E-03
1349.927, 1.6388610E-03
1351.855, 1.4935760E-03
1353.784, 1.2572310E-03
1355.712, 1.3490610E-03
1357.641, 1.6705110E-03
1359.569, 2.0281170E-03
1361.498, 2.1679881E-03
1363.426, 2.0907191E-03
1365.354, 2.4254140E-03
1367.283, 2.6560109E-03
1369.211, 2.0944460E-03
1371.140, 1.7403830E-03
1373.068, 1.5294190E-03
1374.997, 1.4462500E-03
1376.925, 1.4192840E-03
1378.854, 1.4316220E-03
1380.782, 1.4208750E-03
1382.711, 1.4435250E-03
1384.639, 1.8243780E-03
1386.568, 2.2118739E-03
1388.496, 2.3646711E-03
1390.424, 2.4788759E-03
1392.353, 3.0343321E-03
1394.281, 3.4572049E-03
1396.210, 3.5652849E-03
1398.138, 3.4357391E-03
1400.067, 3.3409749E-03
1401.995, 3.5823940E-03
1403.924, 3.9123339E-03
1405.852, 3.9640288E-03
1407.781, 3.7966699E-03
1409.709, 3.6749830E-03
1411.638, 3.8274510E-03
1413.566, 3.9106379E-03
1415.495, 4.0094391E-03
1417.423, 4.0150429E-03
1419.351, 3.9735492E-03
1421.280, 4.1702730E-03
1423.208, 4.3308670E-03
1425.137, 4.1721780E-03
1427.065, 3.9726831E-03
1428.994, 4.0483428E-03
1430.922, 4.2834422E-03
1432.851, 4.5342599E-03
1434.779, 4.5944308E-03
1436.708, 4.3399711E-03
1438.636, 4.3268362E-03
1440.565, 4.2320960E-03
1442.493, 4.0964000E-03
1444.422, 4.1716360E-03
1446.350, 4.1997838E-03
1448.278, 4.0364210E-03
1450.207, 3.8725559E-03
1452.135, 3.5660579E-03
1454.064, 3.3576409E-03
1455.992, 3.1148889E-03
1457.921, 2.8895820E-03
1459.849, 3.1373340E-03
1461.778, 3.1060930E-03
1463.706, 3.0531229E-03
1465.635, 3.4043279E-03
1467.563, 3.6564190E-03
1469.492, 4.1205352E-03
1471.420, 4.7036088E-03
1473.349, 5.1220232E-03
1475.277, 5.4359310E-03
1477.205, 5.4226988E-03
1479.134, 5.5918158E-03
1481.062, 5.6672762E-03
1482.991, 5.7084640E-03
1484.919, 5.9743621E-03
1486.848, 5.9044082E-03
1488.776, 5.5996580E-03
1490.705, 5.4162182E-03
1492.633, 5.1381160E-03
1494.562, 5.0115949E-03
1496.490, 5.0622360E-03
1498.419, 5.1829042E-03
1500.347, 5.2366792E-03
1502.276, 5.2069309E-03
1504.204, 5.2720471E-03
1506.132, 5.4483688E-03
1508.061, 4.9958341E-03
1509.989, 4.5373072E-03
1511.918, 4.6396069E-03
1513.846, 4.6191062E-03
1515.775, 4.5969211E-03
1517.703, 4.5812982E-03
1519.632, 4.3309182E-03
1521.560, 4.3936078E-03
1523.489, 4.6342430E-03
1525.417, 4.3357052E-03
1527.346, 4.4270749E-03
1529.274, 4.5742341E-03
1531.203, 4.5076688E-03
1533.131, 4.5553371E-03
1535.059, 4.6882890E-03
1536.988, 4.7379280E-03
1538.916, 4.7594332E-03
1540.845, 4.6436470E-03
1542.773, 4.9411240E-03
1544.702, 5.1160292E-03
1546.630, 5.2241520E-03
1548.559, 5.3143911E-03
1550.487, 5.2860570E-03
1552.416, 5.5583799E-03
1554.344, 5.8560930E-03
1556.273, 5.7918951E-03
1558.201, 5.9134872E-03
1560.130, 6.0209348E-03
1562.058, 5.9840451E-03
1563.986, 6.0002678E-03
1565.915, 6.4487690E-03
1567.843, 7.0115831E-03
1569.772, 7.1714139E-03
1571.700, 7.2760130E-03
1573.629, 7.3070219E-03
1575.557, 7.4949278E-03
1577.486, 7.6372302E-03
1579.414, 7.8268852E-03
1581.343, 7.8992993E-03
1583.271, 8.1401849E-03
1585.200, 8.5709598E-03
1587.128, 8.9418562E-03
1589.057, 9.2919897E-03
1590.985, 9.3454244E-03
1592.913, 9.2809480E-03
1594.842, 9.2208488E-03
1596.770, 9.3509322E-03
1598.699, 9.3200793E-03
1600.627, 9.0619689E-03
1602.556, 9.1828536E-03
1604.484, 9.0091033E-03
1606.413, 8.9411614E-03
1608.341, 8.9356471E-03
1610.270, 8.5595287E-03
1612.198, 8.7393308E-03
1614.127, 8.9900540E-03
1616.055, 8.8270390E-03
1617.984, 8.7841544E-03
1619.912, 9.0795271E-03
1621.840, 9.3967151E-03
1623.769, 9.8175956E-03
1625.697, 1.0043620E-02
1627.626, 1.0516280E-02
1629.554, 1.1191670E-02
1631.483, 1.1476710E-02
1633.411, 1.1098530E-02
1635.340, 1.0965510E-02
1637.268, 1.1039600E-02
1639.197, 1.1188540E-02
1641.125, 1.1202260E-02
1643.054, 1.0732400E-02
1644.982, 1.0274610E-02
1646.911, 1.0300060E-02
1648.839, 1.0286180E-02
1650.767, 1.0126660E-02
1652.696, 1.0309960E-02
1654.624, 1.0453370E-02
1656.553, 1.0505990E-02
1658.481, 1.0668570E-02
1660.410, 1.0219680E-02
1662.338, 9.7341249E-03
1664.267, 1.0078000E-02
1666.195, 1.0161340E-02
1668.124, 1.0162450E-02
1670.052, 9.9453870E-03
1671.981, 9.5256567E-03
1673.909, 9.1927508E-03
1675.838, 8.8747852E-03
1677.766, 8.8863485E-03
1679.694, 9.0231095E-03
1681.623, 8.6014206E-03
1683.551, 8.2109813E-03
1685.480, 8.2613351E-03
1687.408, 8.2491860E-03
1689.337, 8.2335938E-03
1691.265, 7.8107789E-03
1693.194, 7.3739141E-03
1695.122, 6.7221872E-03
1697.051, 6.5289820E-03
1698.979, 6.4320201E-03
1700.908, 5.9765251E-03
1702.836, 5.5546621E-03
1704.765, 5.0169639E-03
1706.693, 4.5174081E-03
1708.621, 3.8663431E-03
1710.550, 3.2927641E-03
1712.478, 3.2765290E-03
1714.407, 3.3094890E-03
1716.335, 3.5468219E-03
1718.264, 3.6655690E-03
1720.192, 3.7137300E-03
1722.121, 3.8382129E-03
1724.049, 3.7667230E-03
1725.978, 3.2515810E-03
1727.906, 2.7405231E-03
1729.835, 2.0766901E-03
1731.763, 1.6829520E-03
1733.692, 1.2185730E-03
1735.620, 8.3736450E-05
1737.548, -9.8452950E-04
1739.477, -1.7004190E-03
1741.405, -2.1708941E-03
1743.334, -2.1710519E-03
1745.262, -1.9723589E-03
1747.191, -1.2557270E-03
1749.119, -4.6668731E-04
1751.048, 4.4090030E-04
1752.976, 1.2677910E-03
1754.905, 2.1326181E-03
1756.833, 3.6612181E-03
1758.762, 4.5343400E-03
1760.690, 4.9745338E-03
1762.619, 5.3802868E-03
1764.547, 5.7283370E-03
1766.475, 6.1947568E-03
1768.404, 6.2774871E-03
1770.332, 6.3280980E-03
1772.261, 6.3107158E-03
1774.189, 6.0643642E-03
1776.118, 6.0345372E-03
1778.046, 6.2826700E-03
1779.975, 6.7096222E-03
1781.903, 6.7271348E-03
1783.832, 6.7715598E-03
1785.760, 6.8004890E-03
1787.689, 6.4816391E-03
1789.617, 6.4891689E-03
1791.546, 6.6942000E-03
1793.474, 6.6800681E-03
1795.402, 6.6798110E-03
1797.331, 6.6372519E-03
1799.259, 6.8610981E-03
1801.188, 6.7894040E-03
1803.116, 6.9780932E-03
1805.045, 7.1859220E-03
1806.973, 6.7487061E-03
1808.902, 6.3696420E-03
1810.830, 6.7619621E-03
1812.759, 6.8116318E-03
1814.687, 6.5422389E-03
1816.616, 6.4193788E-03
1818.544, 6.4673210E-03
1820.473, 6.7486269E-03
1822.401, 7.2279610E-03
1824.329, 6.9781020E-03
1826.258, 6.0526850E-03
1828.186, 5.8789700E-03
1830.115, 6.7389319E-03
1832.043, 6.1140060E-03
1833.972, 5.9439801E-03
1835.900, 6.4986260E-03
1837.829, 6.5495330E-03
1839.757, 6.6698720E-03
1841.686, 6.6826469E-03
1843.614, 7.0204991E-03
1845.543, 7.2726002E-03
1847.471, 7.9347556E-03
1849.400, 7.6410240E-03
1851.328, 7.4419929E-03
1853.256, 6.9473311E-03
1855.185, 7.1116281E-03
1857.113, 7.5164251E-03
1859.042, 7.5859721E-03
1860.970, 7.9307742E-03
1862.899, 7.5099990E-03
1864.827, 7.1288920E-03
1866.756, 7.6718340E-03
1868.684, 7.6625082E-03
1870.613, 7.6340018E-03
1872.541, 8.0948174E-03
1874.470, 8.0442522E-03
1876.398, 7.2495881E-03
1878.327, 6.9879531E-03
1880.255, 7.2279070E-03
1882.183, 7.4780970E-03
1884.112, 7.3847100E-03
1886.040, 7.5355512E-03
1887.969, 7.5373841E-03
1889.897, 7.4203392E-03
1891.826, 6.9098421E-03
1893.754, 7.3457039E-03
1895.683, 7.5622220E-03
1897.611, 7.1040909E-03
1899.540, 6.9972370E-03
1901.468, 7.3446040E-03
1903.397, 6.7376099E-03
1905.325, 6.0668648E-03
1907.254, 5.7032220E-03
1909.182, 5.9461631E-03
1911.110, 6.3822130E-03
1913.039, 6.0890638E-03
1914.967, 5.5348361E-03
1916.896, 5.4212371E-03
1918.824, 5.9968140E-03
1920.753, 6.1171441E-03
1922.681, 6.2784739E-03
1924.610, 5.9147021E-03
1926.538, 6.0769892E-03
1928.467, 7.1757138E-03
1930.395, 6.9796368E-03
1932.324, 7.1440889E-03
1934.252, 6.7240731E-03
1936.181, 4.7868108E-03
1938.109, 4.8438278E-03
1940.037, 6.4042588E-03
1941.966, 6.2747402E-03
1943.894, 5.3184219E-03
1945.823, 5.0803670E-03
1947.751, 6.5116640E-03
1949.680, 7.4251788E-03
1951.608, 7.3468108E-03
1953.537, 6.5655778E-03
1955.465, 4.2981110E-03
1957.394, 3.4278149E-03
1959.322, 3.9695101E-03
1961.251, 5.2529778E-03
1963.179, 4.6182778E-03
1965.108, 4.9147750E-03
1967.036, 5.1827002E-03
1968.964, 2.2713351E-03
1970.893, 5.6375598E-04
1972.821, 1.2841270E-03
1974.750, -2.3096991E-05
1976.678, -3.2394429E-04
1978.607, 1.5679681E-03
1980.535, 5.0595640E-03
1982.464, 6.0958061E-03
1984.392, 5.3657051E-03
1986.321, 4.6741068E-03
1988.249, 4.9915370E-03
1990.178, 3.8239530E-03
1992.106, 2.0274541E-03
1994.035, 3.5878441E-03
1995.963, 2.7361901E-03
1997.891, 4.1703661E-03
1999.820, 5.6892391E-03
2001.748, 3.8900219E-03
2003.677, 1.4320790E-03
2005.605, 9.9810981E-04
2007.534, 2.8246550E-03
2009.462, 3.3012270E-03
2011.391, 4.2354432E-03
2013.319, 5.2456539E-03
2015.248, 5.6029488E-03
2017.176, 4.3709441E-03
2019.105, 1.4205240E-03
2021.033, -7.2680478E-04
2022.962, 1.0711870E-04
2024.890, 7.7633781E-04
2026.818, 6.4453721E-04
2028.747, 1.9694769E-03
2030.675, 4.3001892E-03
2032.604, 4.3903631E-03
2034.532, 5.3741029E-03
2036.461, 5.4690852E-03
2038.389, 5.1259738E-03
2040.318, 5.5726389E-03
2042.246, 4.7670640E-03
2044.175, 4.6824319E-03
2046.103, 6.6366978E-03
2048.032, 8.8859340E-03
2049.960, 8.7568946E-03
2051.889, 6.3014720E-03
2053.817, 5.9265620E-03
2055.746, 6.4469571E-03
2057.674, 7.4043600E-03
2059.603, 7.7459202E-03
2061.531, 6.8446919E-03
2063.459, 5.8816401E-03
2065.388, 6.9249431E-03
2067.316, 7.5731990E-03
2069.245, 7.5255018E-03
2071.173, 8.3278771E-03
2073.102, 9.1667157E-03
2075.030, 9.2094168E-03
2076.959, 8.0435611E-03
2078.887, 8.0639562E-03
2080.816, 7.6588760E-03
2082.744, 6.7321840E-03
2084.673, 8.1167854E-03
2086.601, 8.0071734E-03
2088.530, 7.5337421E-03
2090.458, 7.4244868E-03
2092.386, 5.8206250E-03
2094.315, 6.8255868E-03
2096.243, 8.9498349E-03
2098.172, 8.2304450E-03
2100.100, 8.0448659E-03
2102.029, 7.9118023E-03
2103.957, 9.4183749E-03
2105.886, 9.3606701E-03
2107.814, 7.0002619E-03
2109.743, 7.0082168E-03
2111.671, 8.2625002E-03
2113.600, 8.8582439E-03
2115.528, 8.3539123E-03
2117.457, 7.2094011E-03
2119.385, 7.9529760E-03
2121.313, 8.2429945E-03
2123.242, 6.3608480E-03
2125.170, 4.2549311E-03
2127.099, 4.0473212E-03
2129.027, 4.8817620E-03
2130.956, 5.5128741E-03
2132.884, 5.4248772E-03
2134.813, 4.9093212E-03
2136.741, 4.5883302E-03
2138.670, 4.4663600E-03
2140.598, 4.5296839E-03
2142.527, 7.4080280E-03
2144.455, 7.3556099E-03
2146.384, 4.6393401E-03
2148.312, 4.0821079E-03
2150.240, 6.2463330E-03
2152.169, 5.3109732E-03
2154.097, -9.8786480E-04
2156.026, -1.9133640E-03
2157.954, 1.8633270E-03
2159.883, 6.6300300E-03
2161.811, 1.0703860E-02
2163.740, 1.0263990E-02
2165.668, 7.3898952E-03
2167.597, 8.7987287E-03
2169.525, 1.1342460E-02
2171.454, 8.5034585E-03
2173.382, 5.9839031E-03
2175.311, 5.0878120E-03
2177.239, 4.9917279E-03
2179.167, 7.0277099E-03
2181.096, 6.8888371E-03
2183.024, 8.1037953E-03
2184.953, 9.2621213E-03
2186.881, 1.0524180E-02
2188.810, 9.6817911E-03
2190.738, 7.3154531E-03
2192.667, 7.4867080E-03
2194.595, 8.9834118E-03
2196.524, 1.0834660E-02
2198.452, 7.9928366E-03
2200.381, 5.4827398E-03
2202.309, 6.8838052E-03
2204.238, 7.6920781E-03
2206.166, 7.7632871E-03
2208.094, 9.4394227E-03
2210.023, 1.0480880E-02
2211.951, 1.0602290E-02
2213.880, 1.1169070E-02
2215.808, 1.1356780E-02
2217.737, 1.0716650E-02
2219.665, 1.0944790E-02
2221.594, 1.0184490E-02
2223.522, 8.5669383E-03
2225.451, 9.3725137E-03
2227.379, 9.7946152E-03
2229.308, 1.0453380E-02
2231.236, 1.1241150E-02
2233.165, 1.2047370E-02
2235.093, 1.3045510E-02
2237.021, 1.2133330E-02
2238.950, 1.3525350E-02
2240.878, 1.2973250E-02
2242.807, 1.1462750E-02
2244.735, 1.1446570E-02
2246.664, 1.1483740E-02
2248.592, 1.0863790E-02
2250.521, 1.2462770E-02
2252.449, 1.3514960E-02
2254.378, 1.3560610E-02
2256.306, 1.4161230E-02
2258.235, 1.4568690E-02
2260.163, 1.4074440E-02
2262.092, 1.3045930E-02
2264.020, 1.3364750E-02
2265.948, 1.3757350E-02
2267.877, 1.4042360E-02
2269.805, 1.4656850E-02
2271.734, 1.5137130E-02
2273.662, 1.4849070E-02
2275.591, 1.4216940E-02
2277.519, 1.4987800E-02
2279.448, 1.6335091E-02
2281.376, 1.7438000E-02
2283.305, 1.7049350E-02
2285.233, 1.5868319E-02
2287.162, 1.5098730E-02
2289.090, 1.3952620E-02
2291.019, 1.3077760E-02
2292.947, 1.3928970E-02
2294.875, 1.4085050E-02
2296.804, 1.4159870E-02
2298.732, 1.5284240E-02
2300.661, 1.5061850E-02
2302.589, 1.4586640E-02
2304.518, 1.4440040E-02
2306.446, 1.5266770E-02
2308.375, 1.5874980E-02
2310.303, 1.6222410E-02
2312.232, 1.5846400E-02
2314.160, 1.5785150E-02
2316.089, 1.6208749E-02
2318.017, 1.6573230E-02
2319.946, 1.7084381E-02
2321.874, 1.7938931E-02
2323.802, 1.7931649E-02
2325.731, 1.6254220E-02
2327.659, 1.5059790E-02
2329.588, 1.4991490E-02
2331.516, 1.5183160E-02
2333.445, 1.4589680E-02
2335.373, 1.4680090E-02
2337.302, 1.5374140E-02
2339.230, 1.5495900E-02
2341.159, 1.4862380E-02
2343.087, 1.4600660E-02
2345.016, 1.4953020E-02
2346.944, 1.5015420E-02
2348.873, 1.5009680E-02
2350.801, 1.5363300E-02
2352.729, 1.5494540E-02
2354.658, 1.5696010E-02
2356.586, 1.5560760E-02
2358.515, 1.5905211E-02
2360.443, 1.6343599E-02
2362.372, 1.5671849E-02
2364.300, 1.4971850E-02
2366.229, 1.4698100E-02
2368.157, 1.4772800E-02
2370.086, 1.4376940E-02
2372.014, 1.4367680E-02
2373.942, 1.4814960E-02
2375.871, 1.4049200E-02
2377.799, 1.3449720E-02
2379.728, 1.3369970E-02
2381.656, 1.3374490E-02
2383.585, 1.3031830E-02
2385.513, 1.3256590E-02
2387.442, 1.4318270E-02
2389.370, 1.5334020E-02
2391.299, 1.4809380E-02
2393.227, 1.3525900E-02
2395.156, 1.3197000E-02
2397.084, 1.3370850E-02
2399.012, 1.4217630E-02
2400.941, 1.4156640E-02
2402.869, 1.3423370E-02
2404.798, 1.4241570E-02
2406.726, 1.5396280E-02
2408.655, 1.4848870E-02
2410.583, 1.4482000E-02
2412.512, 1.4951540E-02
2414.440, 1.5261350E-02
2416.369, 1.4574560E-02
2418.297, 1.4199030E-02
2420.226, 1.4736800E-02
2422.154, 1.4764000E-02
2424.083, 1.4020130E-02
2426.011, 1.3965550E-02
2427.939, 1.4353830E-02
2429.868, 1.4569700E-02
2431.796, 1.4364950E-02
2433.725, 1.3778560E-02
2435.653, 1.3856440E-02
2437.582, 1.4000890E-02
2439.510, 1.4962020E-02
2441.439, 1.5345910E-02
2443.367, 1.4240050E-02
2445.296, 1.4440670E-02
2447.224, 1.5462570E-02
2449.153, 1.6151231E-02
2451.081, 1.6002750E-02
2453.010, 1.5765609E-02
2454.938, 1.5853301E-02
2456.866, 1.5038090E-02
2458.795, 1.5196810E-02
2460.723, 1.5460750E-02
2462.652, 1.5553430E-02
2464.580, 1.5739869E-02
2466.509, 1.5551250E-02
2468.437, 1.5130400E-02
2470.366, 1.6030701E-02
2472.294, 1.6521430E-02
2474.223, 1.6028680E-02
2476.151, 1.5777551E-02
2478.080, 1.5335160E-02
2480.008, 1.5011900E-02
2481.937, 1.5932331E-02
2483.865, 1.6245110E-02
2485.793, 1.5123680E-02
2487.722, 1.4687370E-02
2489.650, 1.5247120E-02
2491.579, 1.5989039E-02
2493.507, 1.6825050E-02
2495.436, 1.5935579E-02
2497.364, 1.5217910E-02
2499.293, 1.5282490E-02
2501.221, 1.4996110E-02
2503.150, 1.5400280E-02
2505.078, 1.5706930E-02
2507.007, 1.5130010E-02
2508.935, 1.4990770E-02
2510.864, 1.4917190E-02
2512.792, 1.5154040E-02
2514.720, 1.6361320E-02
2516.649, 1.6597100E-02
2518.577, 1.6510351E-02
2520.506, 1.5910851E-02
2522.434, 1.5400000E-02
2524.363, 1.7238760E-02
2526.291, 1.8208120E-02
2528.220, 1.8425340E-02
2530.148, 1.8044749E-02
2532.077, 1.6653189E-02
2534.005, 1.6215710E-02
2535.934, 1.5609990E-02
2537.862, 1.5318270E-02
2539.791, 1.6149649E-02
2541.719, 1.6310200E-02
2543.647, 1.6426589E-02
2545.576, 1.7088830E-02
2547.504, 1.5399580E-02
2549.433, 1.6055910E-02
2551.361, 1.7508591E-02
2553.290, 1.7988531E-02
2555.218, 1.8487370E-02
2557.147, 1.8604189E-02
2559.075, 1.7416900E-02
2561.004, 1.6667441E-02
2562.932, 1.6803440E-02
2564.861, 1.7304260E-02
2566.789, 1.7351910E-02
2568.718, 1.7937461E-02
2570.646, 1.8879030E-02
2572.574, 1.7766310E-02
2574.503, 1.7141480E-02
2576.431, 1.6779980E-02
2578.360, 1.5403070E-02
2580.288, 1.5395700E-02
2582.217, 1.5927780E-02
2584.145, 1.6981291E-02
2586.074, 1.7764909E-02
2588.002, 1.7714910E-02
2589.931, 1.7702561E-02
2591.859, 1.7797930E-02
2593.788, 1.7431170E-02
2595.716, 1.7704710E-02
2597.645, 1.7656051E-02
2599.573, 1.7628569E-02
2601.501, 1.8234629E-02
2603.430, 1.9609980E-02
2605.358, 2.0152699E-02
2607.287, 1.9358840E-02
2609.215, 1.8576659E-02
2611.144, 1.8594259E-02
2613.072, 1.8426340E-02
2615.001, 1.7852530E-02
2616.929, 1.8583801E-02
2618.858, 1.8644961E-02
2620.786, 1.8010590E-02
2622.715, 1.8056510E-02
2624.643, 1.8233521E-02
2626.572, 1.7481530E-02
2628.500, 1.7683910E-02
2630.428, 1.7719010E-02
2632.357, 1.7290400E-02
2634.285, 1.8499460E-02
2636.214, 1.9483341E-02
2638.142, 1.9458560E-02
2640.071, 1.9266831E-02
2641.999, 1.9220460E-02
2643.928, 1.8753629E-02
2645.856, 1.8875670E-02
2647.785, 1.8973000E-02
2649.713, 1.9366929E-02
2651.642, 2.0007011E-02
2653.570, 1.9371159E-02
2655.499, 1.8470680E-02
2657.427, 1.8314460E-02
2659.355, 1.8491510E-02
2661.284, 1.8894119E-02
2663.212, 1.8897500E-02
2665.141, 1.8363681E-02
2667.069, 1.8276230E-02
2668.998, 1.7495340E-02
2670.926, 1.7215131E-02
2672.855, 1.7580330E-02
2674.783, 1.7681461E-02
2676.712, 1.8070500E-02
2678.640, 1.7149011E-02
2680.569, 1.7144499E-02
2682.497, 1.7651061E-02
2684.426, 1.6738679E-02
2686.354, 1.6423430E-02
2688.282, 1.7807869E-02
2690.211, 1.8447310E-02
2692.139, 1.8422469E-02
2694.068, 1.8246070E-02
2695.996, 1.7998120E-02
2697.925, 1.8241860E-02
2699.853, 1.8567231E-02
2701.782, 1.8504640E-02
2703.710, 1.8248189E-02
2705.639, 1.8528240E-02
2707.567, 1.7801240E-02
2709.496, 1.7208289E-02
2711.424, 1.7497910E-02
2713.353, 1.9558839E-02
2715.281, 2.0786529E-02
2717.209, 1.9643961E-02
2719.138, 1.8221101E-02
2721.066, 1.8000171E-02
2722.995, 1.9585550E-02
2724.923, 2.1017730E-02
2726.852, 2.0963790E-02
2728.780, 1.9589631E-02
2730.709, 1.8955050E-02
2732.637, 1.8098781E-02
2734.566, 1.7332690E-02
2736.494, 1.8931059E-02
2738.423, 2.0398030E-02
2740.351, 1.9797631E-02
2742.280, 1.8496530E-02
2744.208, 1.7550830E-02
2746.136, 1.8749410E-02
2748.065, 1.9338589E-02
2749.993, 1.9014960E-02
2751.922, 1.9322220E-02
2753.850, 2.0799000E-02
2755.779, 1.9929441E-02
2757.707, 1.9394880E-02
2759.636, 2.0007700E-02
2761.564, 2.0047359E-02
2763.493, 1.9664081E-02
2765.421, 1.9889910E-02
2767.350, 1.9786660E-02
2769.278, 1.8883120E-02
2771.207, 1.8115779E-02
2773.135, 1.7723721E-02
2775.063, 1.8524719E-02
2776.992, 1.9215301E-02
2778.920, 2.0528350E-02
2780.849, 2.1116359E-02
2782.777, 2.0741779E-02
2784.706, 2.0268520E-02
2786.634, 2.0822581E-02
2788.563, 2.0527249E-02
2790.491, 1.8940801E-02
2792.420, 1.9729489E-02
2794.348, 2.0416200E-02
2796.277, 1.8338339E-02
2798.205, 1.8048059E-02
2800.134, 1.9697281E-02
2802.062, 2.0233881E-02
2803.990, 1.9703560E-02
2805.919, 1.9863660E-02
2807.847, 2.0562850E-02
2809.776, 2.0982020E-02
2811.704, 2.0846190E-02
2813.633, 2.1320291E-02
2815.561, 2.0987701E-02
2817.490, 2.0901030E-02
2819.418, 2.0988410E-02
2821.347, 2.1918040E-02
2823.275, 2.2170169E-02
2825.204, 2.1502050E-02
2827.132, 1.9922489E-02
2829.061, 1.9023450E-02
2830.989, 1.9891260E-02
2832.917, 2.0237880E-02
2834.846, 1.9676341E-02
2836.774, 2.0332960E-02
2838.703, 2.1314301E-02
2840.631, 1.9029070E-02
2842.560, 1.7490510E-02
2844.488, 1.8198989E-02
2846.417, 1.8931950E-02
2848.345, 2.0060791E-02
2850.274, 2.0477360E-02
2852.202, 2.0457599E-02
2854.131, 1.9819750E-02
2856.059, 1.8809579E-02
2857.988, 2.0222081E-02
2859.916, 2.1950250E-02
2861.844, 2.2240140E-02
2863.773, 2.2236470E-02
2865.701, 2.0809099E-02
2867.630, 2.0812940E-02
2869.558, 2.0631639E-02
2871.487, 2.0623650E-02
2873.415, 2.0726521E-02
2875.344, 2.0562530E-02
2877.272, 2.0017831E-02
2879.201, 2.0068981E-02
2881.129, 2.0926530E-02
2883.058, 1.9943440E-02
2884.986, 1.9412950E-02
2886.915, 1.9999569E-02
2888.843, 2.0589581E-02
2890.771, 2.0260019E-02
2892.700, 2.0179721E-02
2894.628, 2.0391570E-02
2896.557, 2.0821789E-02
2898.485, 2.1090901E-02
2900.414, 2.1765521E-02
2902.342, 2.0514069E-02
2904.271, 1.8496240E-02
2906.199, 1.9341139E-02
2908.128, 2.1427900E-02
2910.056, 2.1382179E-02
2911.985, 1.9883821E-02
2913.913, 2.0835711E-02
2915.842, 2.2771120E-02
2917.770, 2.3159049E-02
2919.698, 2.5918650E-02
2921.627, 2.5361130E-02
2923.555, 2.1558320E-02
2925.484, 2.1648860E-02
2927.412, 2.4282061E-02
2929.341, 2.4938609E-02
2931.269, 2.4485109E-02
2933.198, 2.4205770E-02
2935.126, 2.4577631E-02
2937.055, 2.5183190E-02
2938.983, 2.5224360E-02
2940.912, 2.5190961E-02
2942.840, 2.5385059E-02
2944.769, 2.5333680E-02
2946.697, 2.3940960E-02
2948.625, 2.2899760E-02
2950.554, 2.3301380E-02
2952.482, 2.3086090E-02
2954.411, 2.2443680E-02
2956.339, 2.4176490E-02
2958.268, 2.7212961E-02
2960.196, 2.6640899E-02
2962.125, 2.5835009E-02
2964.053, 2.6403900E-02
2965.982, 2.5906390E-02
2967.910, 2.6193891E-02
2969.839, 2.8934941E-02
2971.767, 2.8144071E-02
2973.696, 2.5192151E-02
2975.624, 2.5669521E-02
2977.552, 2.6272601E-02
2979.481, 2.6976939E-02
2981.409, 2.6909741E-02
2983.338, 2.5716171E-02
2985.266, 2.6426330E-02
2987.195, 2.7305501E-02
2989.123, 2.6772629E-02
2991.052, 2.6084360E-02
2992.980, 2.6154250E-02
2994.909, 2.6237130E-02
2996.837, 2.7406480E-02
2998.766, 2.7033539E-02
3000.694, 2.7394790E-02
3002.623, 2.8393270E-02
3004.551, 3.0966001E-02
3006.479, 3.1532370E-02
3008.408, 2.8805209E-02
3010.336, 2.7246781E-02
3012.265, 2.6875921E-02
3014.193, 2.6969541E-02
3016.122, 2.6673850E-02
3018.050, 2.6022760E-02
3019.979, 2.6874660E-02
3021.907, 2.8251059E-02
3023.836, 2.8993361E-02
3025.764, 2.9693050E-02
3027.693, 2.8520631E-02
3029.621, 2.6935790E-02
3031.550, 2.3827771E-02
3033.478, 2.3927091E-02
3035.406, 2.6970699E-02
3037.335, 2.7332971E-02
3039.263, 2.6362980E-02
3041.192, 2.6289130E-02
3043.120, 2.6172260E-02
3045.049, 2.5814841E-02
3046.977, 2.7157510E-02
3048.906, 2.7572710E-02
3050.834, 2.6562629E-02
3052.763, 2.7319681E-02
3054.691, 2.9234450E-02
3056.620, 2.9878970E-02
3058.548, 2.8379010E-02
3060.477, 2.6905371E-02
3062.405, 2.6086150E-02
3064.333, 2.4623660E-02
3066.262, 2.6299009E-02
3068.190, 2.7513660E-02
3070.119, 2.5887851E-02
3072.047, 2.4739871E-02
3073.976, 2.4188090E-02
3075.904, 2.6382400E-02
3077.833, 2.9265979E-02
3079.761, 2.9147521E-02
3081.690, 2.7647600E-02
3083.618, 2.7946061E-02
3085.547, 2.8642351E-02
3087.475, 2.9141599E-02
3089.404, 3.0533349E-02
3091.332, 3.0195391E-02
3093.260, 3.0214461E-02
3095.189, 2.9691139E-02
3097.117, 2.8697060E-02
3099.046, 2.9500930E-02
3100.974, 3.1474810E-02
3102.903, 3.2458439E-02
3104.831, 3.1878710E-02
3106.760, 3.0605370E-02
3108.688, 2.9213050E-02
3110.617, 2.8208461E-02
3112.545, 2.9360211E-02
3114.474, 2.9861210E-02
3116.402, 2.8505409E-02
3118.331, 2.6792111E-02
3120.259, 2.6407801E-02
3122.188, 2.6942300E-02
3124.116, 2.7149061E-02
3126.044, 2.8797390E-02
3127.973, 2.8944280E-02
3129.901, 2.8300481E-02
3131.830, 3.0585401E-02
3133.758, 3.0447859E-02
3135.687, 2.9807400E-02
3137.615, 2.9613940E-02
3139.544, 2.8334981E-02
3141.472, 2.7480450E-02
3143.401, 2.8282881E-02
3145.329, 2.9580651E-02
3147.258, 2.9970990E-02
3149.186, 2.8500371E-02
3151.115, 2.8972041E-02
3153.043, 2.9118570E-02
3154.971, 2.8827069E-02
3156.900, 2.8718639E-02
3158.828, 2.8806619E-02
3160.757, 2.8833190E-02
3162.685, 2.9963350E-02
3164.614, 3.0677970E-02
3166.542, 2.9643379E-02
3168.471, 2.9090330E-02
3170.399, 2.9297320E-02
3172.328, 2.8876910E-02
3174.256, 2.9324250E-02
3176.185, 3.0741710E-02
3178.113, 2.9950781E-02
3180.042, 2.8016919E-02
3181.970, 2.8321650E-02
3183.898, 3.0114841E-02
3185.827, 3.0677240E-02
3187.755, 3.0322419E-02
3189.684, 2.9903220E-02
3191.612, 3.0221090E-02
3193.541, 3.0716570E-02
3195.469, 3.1040311E-02
3197.398, 3.1016359E-02
3199.326, 2.9928520E-02
3201.255, 2.8544931E-02
3203.183, 2.9037381E-02
3205.112, 3.0597160E-02
3207.040, 3.2093860E-02
3208.969, 3.2060601E-02
3210.897, 3.0877640E-02
3212.825, 3.0384740E-02
3214.754, 3.1746771E-02
3216.682, 3.3596698E-02
3218.611, 3.2922018E-02
3220.539, 3.1345818E-02
3222.468, 3.1816069E-02
3224.396, 3.2456480E-02
3226.325, 3.1789519E-02
3228.253, 3.2237511E-02
3230.182, 3.2328721E-02
3232.110, 3.0372430E-02
3234.039, 2.9670440E-02
3235.967, 3.0785840E-02
3237.896, 3.1262539E-02
3239.824, 3.1831179E-02
3241.752, 3.3883300E-02
3243.681, 3.4554489E-02
3245.609, 3.2735500E-02
3247.538, 3.2978751E-02
3249.466, 3.4613028E-02
3251.395, 3.3822641E-02
3253.323, 3.3689469E-02
3255.252, 3.5816088E-02
3257.180, 3.6741070E-02
3259.109, 3.5289232E-02
3261.037, 3.4319539E-02
3262.966, 3.5032518E-02
3264.894, 3.4642439E-02
3266.823, 3.3877809E-02
3268.751, 3.3412710E-02
3270.679, 3.3567131E-02
3272.608, 3.3601020E-02
3274.536, 3.4117270E-02
3276.465, 3.6090240E-02
3278.393, 3.8668450E-02
3280.322, 3.7510529E-02
3282.250, 3.5224181E-02
3284.179, 3.5215650E-02
3286.107, 3.4299619E-02
3288.036, 3.4909759E-02
3289.964, 3.5884202E-02
3291.893, 3.6903720E-02
3293.821, 3.6410261E-02
3295.750, 3.5906550E-02
3297.678, 3.6765981E-02
3299.606, 3.8100950E-02
3301.535, 3.8912289E-02
3303.463, 3.8222481E-02
3305.392, 3.9071642E-02
3307.320, 4.0951200E-02
3309.249, 4.0534351E-02
3311.177, 3.9922431E-02
3313.106, 4.1166849E-02
3315.034, 4.1573241E-02
3316.963, 4.1627400E-02
3318.891, 4.1738991E-02
3320.820, 4.2005200E-02
3322.748, 4.1717120E-02
3324.677, 4.1279789E-02
3326.605, 4.3601871E-02
3328.533, 4.4285439E-02
3330.462, 4.4090480E-02
3332.390, 4.5040969E-02
3334.319, 4.5332961E-02
3336.247, 4.5440160E-02
3338.176, 4.5287590E-02
3340.104, 4.8050109E-02
3342.033, 4.9999841E-02
3343.961, 4.8407979E-02
3345.890, 4.8347991E-02
3347.818, 4.7595900E-02
3349.747, 4.6159990E-02
3351.675, 5.0171562E-02
3353.604, 5.5491641E-02
3355.532, 5.5113468E-02
3357.460, 5.3397011E-02
3359.389, 5.3804480E-02
3361.317, 5.5682220E-02
3363.246, 5.7700530E-02
3365.174, 6.0283080E-02
3367.103, 6.1695181E-02
3369.031, 6.0830019E-02
3370.960, 5.9398718E-02
3372.888, 6.0868669E-02
3374.817, 6.4034037E-02
3376.745, 6.4982466E-02
3378.674, 6.3858263E-02
3380.602, 6.2535837E-02
3382.531, 6.3376851E-02
3384.459, 6.4723037E-02
3386.387, 6.8376914E-02
3388.316, 7.0990957E-02
3390.244, 7.3434293E-02
3392.173, 7.6628327E-02
3394.101, 7.9057448E-02
3396.030, 8.0564953E-02
3397.958, 8.1476249E-02
3399.887, 8.3583549E-02
3401.815, 8.6205482E-02
3403.744, 9.0610594E-02
3405.672, 9.6404716E-02
3407.601, 0.1038253
3409.529, 0.1120298
3411.458, 0.1195040
3413.386, 0.1276050
3415.314, 0.1370873
3417.243, 0.1470819
3419.171, 0.1556454
3421.100, 0.1663757
3423.028, 0.1786799
3424.957, 0.1902373
3426.885, 0.2041144
3428.814, 0.2167189
3430.742, 0.2214429
3432.671, 0.2195549
3434.599, 0.2156882
3436.528, 0.2050612
3438.456, 0.1812915
3440.385, 0.1543743
3442.313, 0.1308449
3444.241, 0.1115930
3446.170, 9.4066687E-02
3448.098, 7.9368480E-02
3450.027, 6.6723868E-02
3451.955, 5.8426160E-02
3453.884, 5.1967140E-02
3455.812, 4.4673599E-02
3457.741, 3.7914731E-02
3459.669, 3.4479711E-02
3461.598, 3.2983530E-02
3463.526, 3.3946630E-02
3465.455, 3.3001970E-02
3467.383, 3.0686000E-02
3469.312, 3.1200940E-02
3471.240, 3.0327540E-02
3473.168, 2.7761750E-02
3475.097, 2.8506359E-02
3477.025, 3.1202439E-02
3478.954, 3.0403400E-02
3480.882, 3.0869739E-02
3482.811, 3.0701000E-02
3484.739, 3.0473750E-02
3486.668, 2.9184390E-02
3488.596, 2.9673859E-02
3490.525, 3.2085091E-02
3492.453, 3.1079600E-02
3494.382, 3.0469000E-02
3496.310, 3.1458061E-02
3498.239, 3.0646561E-02
3500.167, 2.9696120E-02
3502.095, 3.1009311E-02
3504.024, 3.1002210E-02
3505.952, 3.0357281E-02
3507.881, 3.0285049E-02
3509.809, 3.0992400E-02
3511.738, 2.9869391E-02
3513.666, 2.9087819E-02
3515.595, 2.9540289E-02
3517.523, 3.0754739E-02
3519.452, 3.0779570E-02
3521.380, 2.6753100E-02
3523.309, 2.5492240E-02
3525.237, 2.7661679E-02
3527.166, 2.8073130E-02
3529.094, 2.7596571E-02
3531.022, 2.9526200E-02
3532.951, 3.0170640E-02
3534.879, 2.8065810E-02
3536.808, 2.7069841E-02
3538.736, 2.8387479E-02
3540.665, 2.8950140E-02
3542.593, 2.9614219E-02
3544.522, 3.0387441E-02
3546.450, 2.6697490E-02
3548.379, 2.7251139E-02
3550.307, 2.8935600E-02
3552.236, 2.6838049E-02
3554.164, 2.6595481E-02
3556.093, 2.6701501E-02
3558.021, 2.6665000E-02
3559.949, 2.6843639E-02
3561.878, 2.6067371E-02
3563.806, 2.4099709E-02
3565.735, 2.3756141E-02
3567.663, 2.4406889E-02
3569.592, 2.4123929E-02
3571.520, 2.7377309E-02
3573.449, 2.7994050E-02
3575.377, 2.5845001E-02
3577.306, 2.5035759E-02
3579.234, 2.4496410E-02
3581.163, 2.3452440E-02
3583.091, 2.4825919E-02
3585.020, 2.6654890E-02
3586.948, 2.6475441E-02
3588.876, 2.7477071E-02
3590.805, 2.6011810E-02
3592.733, 2.4760051E-02
3594.662, 2.4879109E-02
3596.590, 2.7158970E-02
3598.519, 2.5961000E-02
3600.447, 2.4339000E-02
3602.376, 2.5536820E-02
3604.304, 2.8032340E-02
3606.233, 2.7697040E-02
3608.161, 2.5192300E-02
3610.090, 2.4103999E-02
3612.018, 2.7200820E-02
3613.947, 2.8518340E-02
3615.875, 2.5035899E-02
3617.803, 2.7033400E-02
3619.732, 2.8121930E-02
3621.660, 2.8299280E-02
3623.589, 2.9370520E-02
3625.517, 2.7349539E-02
3627.446, 2.5967570E-02
3629.374, 2.6411651E-02
3631.303, 2.7897540E-02
3633.231, 2.6603160E-02
3635.160, 2.9288340E-02
3637.088, 3.2128099E-02
3639.017, 2.9208500E-02
3640.945, 2.7504100E-02
3642.874, 2.8116301E-02
3644.802, 2.8636640E-02
3646.730, 2.7637919E-02
3648.659, 2.5082460E-02
3650.587, 2.5356511E-02
3652.516, 2.6168320E-02
3654.444, 2.7395271E-02
3656.373, 2.6336620E-02
3658.301, 2.5781980E-02
3660.230, 2.6665300E-02
3662.158, 2.7976260E-02
3664.087, 2.9730691E-02
3666.015, 2.9723311E-02
3667.944, 2.9430659E-02
3669.872, 2.8115880E-02
3671.801, 2.7072661E-02
3673.729, 2.9137369E-02
3675.657, 2.8996140E-02
3677.586, 2.9956060E-02
3679.514, 2.9983690E-02
3681.443, 2.8684070E-02
3683.371, 2.9585149E-02
3685.300, 2.9778030E-02
3687.228, 3.0730130E-02
3689.157, 3.2140639E-02
3691.085, 2.7822260E-02
3693.014, 2.5600839E-02
3694.942, 2.5776681E-02
3696.871, 2.4768760E-02
3698.799, 2.7693480E-02
3700.728, 2.8793629E-02
3702.656, 2.7096899E-02
3704.584, 2.7823839E-02
3706.513, 2.8791010E-02
3708.441, 2.7953209E-02
3710.370, 2.7697820E-02
3712.298, 2.7146950E-02
3714.227, 2.9090749E-02
3716.155, 2.9443011E-02
3718.084, 3.0392511E-02
3720.012, 3.0619550E-02
3721.941, 2.8964959E-02
3723.869, 2.8608810E-02
3725.798, 2.9270370E-02
3727.726, 3.0810559E-02
3729.655, 3.3173449E-02
3731.583, 3.3286139E-02
3733.511, 3.0798990E-02
3735.440, 2.9442290E-02
3737.368, 2.8762180E-02
3739.297, 2.8260671E-02
3741.225, 3.1497609E-02
3743.154, 3.1238580E-02
3745.082, 3.2285951E-02
3747.011, 3.4598202E-02
3748.939, 2.8951500E-02
3750.868, 2.7640460E-02
3752.796, 2.9065460E-02
3754.725, 3.0351041E-02
3756.653, 3.3198379E-02
3758.582, 3.5187889E-02
3760.510, 3.4150582E-02
3762.438, 3.1664509E-02
3764.367, 3.2802500E-02
3766.295, 3.3369180E-02
3768.224, 3.3911228E-02
3770.152, 3.1292371E-02
3772.081, 2.8311200E-02
3774.009, 2.8585119E-02
3775.938, 2.9918199E-02
3777.866, 2.9310221E-02
3779.795, 2.8201539E-02
3781.723, 2.8366869E-02
3783.652, 3.1154230E-02
3785.580, 3.1216640E-02
3787.509, 3.0470431E-02
3789.437, 3.0211350E-02
3791.365, 3.2965869E-02
3793.294, 3.3791699E-02
3795.222, 3.5451509E-02
3797.151, 3.6807761E-02
3799.079, 3.2619331E-02
3801.008, 3.1339109E-02
3802.936, 3.1045670E-02
3804.865, 3.0566780E-02
3806.793, 3.1695239E-02
3808.722, 3.2455780E-02
3810.650, 3.0078029E-02
3812.579, 2.9619779E-02
3814.507, 3.0067410E-02
3816.436, 3.0728780E-02
3818.364, 3.2161359E-02
3820.292, 3.0810770E-02
3822.221, 3.0268280E-02
3824.149, 3.0476350E-02
3826.078, 3.4424361E-02
3828.006, 3.6297470E-02
3829.935, 3.2868471E-02
3831.863, 3.1256199E-02
3833.792, 3.2359559E-02
3835.720, 3.3731490E-02
3837.649, 3.1579271E-02
3839.577, 3.2040302E-02
3841.506, 3.4192599E-02
3843.434, 3.2452121E-02
3845.363, 3.1671181E-02
3847.291, 3.2885458E-02
3849.219, 3.2003619E-02
3851.148, 3.3553760E-02
3853.076, 3.5477672E-02
3855.005, 3.4056719E-02
3856.933, 3.4709811E-02
3858.862, 3.4957971E-02
3860.790, 3.2211062E-02
3862.719, 3.1260122E-02
3864.647, 3.1690381E-02
3866.576, 3.0634530E-02
3868.504, 3.0314229E-02
3870.433, 2.8532760E-02
3872.361, 3.1140519E-02
3874.290, 3.4544021E-02
3876.218, 3.6986589E-02
3878.146, 3.6375139E-02
3880.075, 3.4338679E-02
3882.003, 3.2746300E-02
3883.932, 3.4457270E-02
3885.860, 3.6306981E-02
3887.789, 3.5427202E-02
3889.717, 3.2352421E-02
3891.646, 2.8388441E-02
3893.574, 2.9231731E-02
3895.503, 3.0863849E-02
3897.431, 3.4856871E-02
3899.360, 3.7919290E-02
3901.288, 3.5942849E-02
3903.217, 3.5589051E-02
3905.145, 3.4888610E-02
3907.073, 3.4456991E-02
3909.002, 3.5469059E-02
3910.930, 3.5813820E-02
3912.859, 3.3420261E-02
3914.787, 3.2313310E-02
3916.716, 3.2701731E-02
3918.644, 3.4449462E-02
3920.573, 3.6320619E-02
3922.501, 3.8858611E-02
3924.430, 3.8221858E-02
3926.358, 3.6143519E-02
3928.287, 3.5394602E-02
3930.215, 3.1574860E-02
3932.144, 2.9738970E-02
3934.072, 3.1797059E-02
3936.000, 3.0766649E-02
3937.929, 2.7897220E-02
3939.857, 3.0723831E-02
3941.786, 3.6559708E-02
3943.714, 3.5818059E-02
3945.643, 3.2621019E-02
3947.571, 3.5889018E-02
3949.500, 3.6745161E-02
3951.428, 3.6140021E-02
3953.357, 3.2623518E-02
3955.285, 3.2506410E-02
3957.214, 3.5932358E-02
3959.142, 3.6622722E-02
3961.071, 3.5314839E-02
3962.999, 3.5873611E-02
3964.927, 3.4806881E-02
3966.856, 3.4644499E-02
3968.784, 3.5546839E-02
3970.713, 3.4819130E-02
3972.641, 3.6215339E-02
3974.570, 3.8658209E-02
3976.498, 3.7465800E-02
3978.427, 3.5361670E-02
3980.355, 3.7230711E-02
3982.284, 3.3097319E-02
3984.212, 3.0239429E-02
3986.141, 3.4051821E-02
3988.069, 3.6613200E-02
3989.998, 3.5830230E-02
3991.926, 3.2435540E-02
3993.854, 3.1700760E-02
3995.783, 3.3128541E-02
3997.711, 3.3141151E-02
3999.640, 3.3157140E-02
##END=



