##NAMES=Tincalconite
##RRUFFID=R050660
##IDEAL CHEMISTRY=Na_2_B_4_O_5_(OH)_4_&#183;3H_2_O
##LOCALITY=Boron, Kern County, California, USA
##OWNER=RRUFF
##SOURCE=Marcus Origlieri
##DESCRIPTION=Colorless pseudo-octahedral crystal
##STATUS=The identification of this mineral has been confirmed by X-ray diffraction.
##URL=rruff.info/R050660
3.741225e+002, 3.857431e-002
3.760510e+002, 3.793088e-002
3.779795e+002, 3.447643e-002
3.799079e+002, 3.363307e-002
3.818364e+002, 3.345281e-002
3.837649e+002, 4.038309e-002
3.856933e+002, 4.606650e-002
3.876218e+002, 4.059084e-002
3.895503e+002, 4.323038e-002
3.914787e+002, 4.132587e-002
3.934072e+002, 3.715261e-002
3.953357e+002, 3.633661e-002
3.972641e+002, 3.754081e-002
3.991926e+002, 3.890155e-002
4.011211e+002, 3.992010e-002
4.030495e+002, 4.133371e-002
4.049780e+002, 4.047459e-002
4.069065e+002, 4.214508e-002
4.088349e+002, 4.343845e-002
4.107634e+002, 4.288321e-002
4.126919e+002, 4.517568e-002
4.146203e+002, 4.662093e-002
4.165488e+002, 4.663638e-002
4.184773e+002, 4.642367e-002
4.204057e+002, 4.814488e-002
4.223342e+002, 4.916560e-002
4.242627e+002, 5.046572e-002
4.261911e+002, 5.233979e-002
4.281196e+002, 5.244829e-002
4.300481e+002, 5.083334e-002
4.319765e+002, 5.046483e-002
4.339050e+002, 5.218126e-002
4.358335e+002, 5.417025e-002
4.377619e+002, 5.541775e-002
4.396904e+002, 5.608845e-002
4.416189e+002, 5.799844e-002
4.435473e+002, 5.952134e-002
4.454758e+002, 6.127226e-002
4.474043e+002, 6.340583e-002
4.493327e+002, 6.457547e-002
4.512612e+002, 6.554425e-002
4.531897e+002, 6.704453e-002
4.551181e+002, 6.949952e-002
4.570466e+002, 7.315889e-002
4.589751e+002, 7.609933e-002
4.609035e+002, 7.682716e-002
4.628320e+002, 7.571567e-002
4.647605e+002, 7.315546e-002
4.666889e+002, 6.846981e-002
4.686174e+002, 6.275175e-002
4.705459e+002, 5.813799e-002
4.724743e+002, 5.455057e-002
4.744028e+002, 5.139441e-002
4.763313e+002, 4.915447e-002
4.782597e+002, 4.758207e-002
4.801882e+002, 4.625623e-002
4.821167e+002, 4.523904e-002
4.840451e+002, 4.439508e-002
4.859736e+002, 4.374048e-002
4.879021e+002, 4.349437e-002
4.898305e+002, 4.342585e-002
4.917590e+002, 4.322033e-002
4.936875e+002, 4.324846e-002
4.956159e+002, 4.399511e-002
4.975444e+002, 4.447140e-002
4.994729e+002, 4.405301e-002
5.014013e+002, 4.298425e-002
5.033298e+002, 4.130403e-002
5.052583e+002, 3.991861e-002
5.071867e+002, 3.880243e-002
5.091152e+002, 3.757222e-002
5.110437e+002, 3.667169e-002
5.129721e+002, 3.648087e-002
5.149006e+002, 3.633440e-002
5.168290e+002, 3.602551e-002
5.187575e+002, 3.565992e-002
5.206860e+002, 3.590234e-002
5.226144e+002, 3.656170e-002
5.245429e+002, 3.675386e-002
5.264714e+002, 3.581906e-002
5.283998e+002, 3.474309e-002
5.303283e+002, 3.386390e-002
5.322568e+002, 3.312959e-002
5.341852e+002, 3.253009e-002
5.361137e+002, 3.212428e-002
5.380422e+002, 3.152794e-002
5.399706e+002, 3.078941e-002
5.418991e+002, 3.029657e-002
5.438276e+002, 3.010531e-002
5.457560e+002, 2.970940e-002
5.476845e+002, 2.925819e-002
5.496130e+002, 2.886813e-002
5.515414e+002, 2.820232e-002
5.534699e+002, 2.782277e-002
5.553984e+002, 2.770147e-002
5.573268e+002, 2.780936e-002
5.592553e+002, 2.824935e-002
5.611838e+002, 2.830864e-002
5.631122e+002, 2.807137e-002
5.650407e+002, 2.816910e-002
5.669692e+002, 2.880384e-002
5.688976e+002, 2.940270e-002
5.708261e+002, 2.973842e-002
5.727546e+002, 3.026695e-002
5.746830e+002, 3.080035e-002
5.766115e+002, 3.085218e-002
5.785400e+002, 3.050217e-002
5.804684e+002, 3.014456e-002
5.823969e+002, 2.985843e-002
5.843254e+002, 2.997529e-002
5.862538e+002, 3.043294e-002
5.881823e+002, 3.057551e-002
5.901108e+002, 3.061364e-002
5.920392e+002, 3.040499e-002
5.939677e+002, 3.021610e-002
5.958962e+002, 3.072748e-002
5.978246e+002, 3.142719e-002
5.997531e+002, 3.206120e-002
6.016816e+002, 3.300731e-002
6.036100e+002, 3.411428e-002
6.055385e+002, 3.470602e-002
6.074670e+002, 3.486065e-002
6.093954e+002, 3.428876e-002
6.113239e+002, 3.293418e-002
6.132524e+002, 3.121349e-002
6.151808e+002, 2.998048e-002
6.171093e+002, 2.921501e-002
6.190378e+002, 2.895538e-002
6.209662e+002, 2.943248e-002
6.228947e+002, 3.002084e-002
6.248232e+002, 3.056156e-002
6.267516e+002, 3.148349e-002
6.286801e+002, 3.247518e-002
6.306086e+002, 3.363032e-002
6.325370e+002, 3.463061e-002
6.344655e+002, 3.564901e-002
6.363940e+002, 3.676026e-002
6.383224e+002, 3.756334e-002
6.402509e+002, 3.809480e-002
6.421794e+002, 3.852516e-002
6.441078e+002, 3.883499e-002
6.460363e+002, 3.954568e-002
6.479648e+002, 3.996592e-002
6.498932e+002, 4.015091e-002
6.518217e+002, 4.067236e-002
6.537502e+002, 4.117963e-002
6.556786e+002, 4.173985e-002
6.576071e+002, 4.230489e-002
6.595356e+002, 4.305876e-002
6.614641e+002, 4.399687e-002
6.633925e+002, 4.492464e-002
6.653210e+002, 4.575274e-002
6.672495e+002, 4.696319e-002
6.691779e+002, 4.810177e-002
6.711064e+002, 4.915554e-002
6.730349e+002, 5.033520e-002
6.749633e+002, 5.107418e-002
6.768918e+002, 5.136460e-002
6.788203e+002, 5.130114e-002
6.807487e+002, 5.123845e-002
6.826772e+002, 5.160263e-002
6.846057e+002, 5.274041e-002
6.865341e+002, 5.438445e-002
6.884626e+002, 5.625721e-002
6.903911e+002, 5.867695e-002
6.923195e+002, 6.163727e-002
6.942480e+002, 6.485224e-002
6.961765e+002, 6.812424e-002
6.981049e+002, 7.163817e-002
7.000334e+002, 7.559834e-002
7.019619e+002, 7.955065e-002
7.038903e+002, 8.285654e-002
7.058188e+002, 8.476061e-002
7.077473e+002, 8.519135e-002
7.096757e+002, 8.384836e-002
7.116042e+002, 8.082256e-002
7.135327e+002, 7.735781e-002
7.154611e+002, 7.403035e-002
7.173896e+002, 7.103670e-002
7.193181e+002, 6.855065e-002
7.212465e+002, 6.637175e-002
7.231750e+002, 6.440175e-002
7.251035e+002, 6.278149e-002
7.270319e+002, 6.140706e-002
7.289604e+002, 6.026519e-002
7.308889e+002, 5.928164e-002
7.328173e+002, 5.874877e-002
7.347458e+002, 5.864356e-002
7.366743e+002, 5.860217e-002
7.386027e+002, 5.887896e-002
7.405312e+002, 5.946401e-002
7.424597e+002, 6.043900e-002
7.443881e+002, 6.180117e-002
7.463166e+002, 6.348830e-002
7.482451e+002, 6.521496e-002
7.501735e+002, 6.700522e-002
7.521020e+002, 6.900709e-002
7.540305e+002, 7.111695e-002
7.559589e+002, 7.312438e-002
7.578874e+002, 7.502018e-002
7.598159e+002, 7.715370e-002
7.617443e+002, 7.952105e-002
7.636728e+002, 8.173169e-002
7.656013e+002, 8.408349e-002
7.675297e+002, 8.619617e-002
7.694582e+002, 8.795560e-002
7.713867e+002, 8.934675e-002
7.733151e+002, 8.958136e-002
7.752436e+002, 8.817437e-002
7.771721e+002, 8.634551e-002
7.791005e+002, 8.527872e-002
7.810290e+002, 8.533927e-002
7.829575e+002, 8.611657e-002
7.848859e+002, 8.739719e-002
7.868144e+002, 8.910108e-002
7.887429e+002, 9.076168e-002
7.906713e+002, 9.219440e-002
7.925998e+002, 9.385686e-002
7.945283e+002, 9.585329e-002
7.964567e+002, 9.806070e-002
7.983852e+002, 1.005978e-001
8.003137e+002, 1.038386e-001
8.022421e+002, 1.075357e-001
8.041706e+002, 1.117517e-001
8.060991e+002, 1.166772e-001
8.080275e+002, 1.223301e-001
8.099560e+002, 1.287873e-001
8.118845e+002, 1.358676e-001
8.138129e+002, 1.429535e-001
8.157414e+002, 1.498566e-001
8.176699e+002, 1.559212e-001
8.195983e+002, 1.599385e-001
8.215268e+002, 1.607591e-001
8.234553e+002, 1.581955e-001
8.253837e+002, 1.522283e-001
8.273122e+002, 1.431761e-001
8.292407e+002, 1.325078e-001
8.311691e+002, 1.210805e-001
8.330976e+002, 1.093293e-001
8.350261e+002, 9.810651e-002
8.369545e+002, 8.768002e-002
8.388830e+002, 7.825956e-002
8.408115e+002, 7.000294e-002
8.427399e+002, 6.296305e-002
8.446684e+002, 5.695960e-002
8.465969e+002, 5.201309e-002
8.485253e+002, 4.796249e-002
8.504538e+002, 4.483221e-002
8.523823e+002, 4.268597e-002
8.543107e+002, 4.113134e-002
8.562392e+002, 4.011115e-002
8.581677e+002, 3.958959e-002
8.600961e+002, 3.952672e-002
8.620246e+002, 3.988954e-002
8.639531e+002, 4.062442e-002
8.658815e+002, 4.176017e-002
8.678100e+002, 4.274095e-002
8.697385e+002, 4.401655e-002
8.716669e+002, 4.557836e-002
8.735954e+002, 4.689413e-002
8.755239e+002, 4.805563e-002
8.774523e+002, 4.914285e-002
8.793808e+002, 5.000093e-002
8.813093e+002, 5.032534e-002
8.832377e+002, 5.000697e-002
8.851662e+002, 4.957838e-002
8.870947e+002, 4.910846e-002
8.890231e+002, 4.875226e-002
8.909516e+002, 4.867150e-002
8.928801e+002, 4.894296e-002
8.948085e+002, 4.951125e-002
8.967370e+002, 5.030101e-002
8.986655e+002, 5.122679e-002
9.005939e+002, 5.248507e-002
9.025224e+002, 5.389622e-002
9.044509e+002, 5.542587e-002
9.063793e+002, 5.697701e-002
9.083078e+002, 5.869649e-002
9.102363e+002, 6.046188e-002
9.121647e+002, 6.230464e-002
9.140932e+002, 6.454045e-002
9.160217e+002, 6.723164e-002
9.179501e+002, 7.042653e-002
9.198786e+002, 7.409189e-002
9.218071e+002, 7.824064e-002
9.237355e+002, 8.299113e-002
9.256640e+002, 8.808702e-002
9.275925e+002, 9.362024e-002
9.295209e+002, 9.970920e-002
9.314494e+002, 1.064282e-001
9.333779e+002, 1.135796e-001
9.353063e+002, 1.208261e-001
9.372348e+002, 1.277970e-001
9.391633e+002, 1.338103e-001
9.410917e+002, 1.378881e-001
9.430202e+002, 1.391198e-001
9.449487e+002, 1.365877e-001
9.468771e+002, 1.298897e-001
9.488056e+002, 1.192680e-001
9.507341e+002, 1.056561e-001
9.526625e+002, 9.079348e-002
9.545910e+002, 7.714524e-002
9.565195e+002, 6.664821e-002
9.584479e+002, 5.988295e-002
9.603764e+002, 5.667735e-002
9.623049e+002, 5.635088e-002
9.642333e+002, 5.823751e-002
9.661618e+002, 6.180793e-002
9.680903e+002, 6.705184e-002
9.700187e+002, 7.383956e-002
9.719472e+002, 8.183572e-002
9.738757e+002, 9.105376e-002
9.758041e+002, 1.009513e-001
9.777326e+002, 1.115393e-001
9.796611e+002, 1.224879e-001
9.815895e+002, 1.333782e-001
9.835180e+002, 1.438573e-001
9.854465e+002, 1.537675e-001
9.873749e+002, 1.624802e-001
9.893034e+002, 1.694810e-001
9.912319e+002, 1.748629e-001
9.931603e+002, 1.783329e-001
9.950888e+002, 1.797813e-001
9.970173e+002, 1.793067e-001
9.989457e+002, 1.772138e-001
1.000874e+003, 1.736587e-001
1.002803e+003, 1.686929e-001
1.004731e+003, 1.628952e-001
1.006660e+003, 1.563172e-001
1.008588e+003, 1.488872e-001
1.010517e+003, 1.412045e-001
1.012445e+003, 1.334061e-001
1.014373e+003, 1.259255e-001
1.016302e+003, 1.192574e-001
1.018230e+003, 1.138484e-001
1.020159e+003, 1.097215e-001
1.022087e+003, 1.070714e-001
1.024016e+003, 1.059116e-001
1.025944e+003, 1.049699e-001
1.027873e+003, 1.037599e-001
1.029801e+003, 1.020098e-001
1.031730e+003, 9.928074e-002
1.033658e+003, 9.534609e-002
1.035587e+003, 9.077157e-002
1.037515e+003, 8.612517e-002
1.039443e+003, 8.125640e-002
1.041372e+003, 7.613821e-002
1.043300e+003, 7.132798e-002
1.045229e+003, 6.667435e-002
1.047157e+003, 6.208947e-002
1.049086e+003, 5.783419e-002
1.051014e+003, 5.387095e-002
1.052943e+003, 5.008874e-002
1.054871e+003, 4.694584e-002
1.056800e+003, 4.464298e-002
1.058728e+003, 4.333451e-002
1.060657e+003, 4.306633e-002
1.062585e+003, 4.384631e-002
1.064514e+003, 4.561224e-002
1.066442e+003, 4.825987e-002
1.068370e+003, 5.177150e-002
1.070299e+003, 5.545717e-002
1.072227e+003, 5.873811e-002
1.074156e+003, 6.129373e-002
1.076084e+003, 6.274778e-002
1.078013e+003, 6.295415e-002
1.079941e+003, 6.218758e-002
1.081870e+003, 6.076910e-002
1.083798e+003, 5.878318e-002
1.085727e+003, 5.634309e-002
1.087655e+003, 5.383212e-002
1.089584e+003, 5.190967e-002
1.091512e+003, 5.034829e-002
1.093441e+003, 4.932135e-002
1.095369e+003, 4.892124e-002
1.097297e+003, 4.842975e-002
1.099226e+003, 4.740255e-002
1.101154e+003, 4.587262e-002
1.103083e+003, 4.403786e-002
1.105011e+003, 4.215918e-002
1.106940e+003, 4.058560e-002
1.108868e+003, 3.973411e-002
1.110797e+003, 3.966221e-002
1.112725e+003, 4.075496e-002
1.114654e+003, 4.327537e-002
1.116582e+003, 4.742270e-002
1.118511e+003, 5.339980e-002
1.120439e+003, 6.173800e-002
1.122368e+003, 7.261501e-002
1.124296e+003, 8.513042e-002
1.126224e+003, 9.707446e-002
1.128153e+003, 1.050818e-001
1.130081e+003, 1.067031e-001
1.132010e+003, 1.024387e-001
1.133938e+003, 9.469979e-002
1.135867e+003, 8.580878e-002
1.137795e+003, 7.704028e-002
1.139724e+003, 6.934058e-002
1.141652e+003, 6.303333e-002
1.143581e+003, 5.818669e-002
1.145509e+003, 5.416180e-002
1.147438e+003, 5.087053e-002
1.149366e+003, 4.806297e-002
1.151295e+003, 4.557854e-002
1.153223e+003, 4.381364e-002
1.155151e+003, 4.290150e-002
1.157080e+003, 4.248380e-002
1.159008e+003, 4.229147e-002
1.160937e+003, 4.194030e-002
1.162865e+003, 4.093039e-002
1.164794e+003, 3.936264e-002
1.166722e+003, 3.751706e-002
1.168651e+003, 3.543407e-002
1.170579e+003, 3.351125e-002
1.172508e+003, 3.165979e-002
1.174436e+003, 2.980564e-002
1.176365e+003, 2.818875e-002
1.178293e+003, 2.681405e-002
1.180222e+003, 2.568230e-002
1.182150e+003, 2.484068e-002
1.184078e+003, 2.412117e-002
1.186007e+003, 2.366944e-002
1.187935e+003, 2.360445e-002
1.189864e+003, 2.365284e-002
1.191792e+003, 2.385453e-002
1.193721e+003, 2.451411e-002
1.195649e+003, 2.526549e-002
1.197578e+003, 2.629692e-002
1.199506e+003, 2.760052e-002
1.201435e+003, 2.911742e-002
1.203363e+003, 3.073341e-002
1.205292e+003, 3.264324e-002
1.207220e+003, 3.473853e-002
1.209149e+003, 3.712759e-002
1.211077e+003, 3.965775e-002
1.213005e+003, 4.236294e-002
1.214934e+003, 4.499144e-002
1.216862e+003, 4.723847e-002
1.218791e+003, 4.913760e-002
1.220719e+003, 5.050044e-002
1.222648e+003, 5.119724e-002
1.224576e+003, 5.153780e-002
1.226505e+003, 5.195101e-002
1.228433e+003, 5.278503e-002
1.230362e+003, 5.426691e-002
1.232290e+003, 5.637498e-002
1.234219e+003, 5.902969e-002
1.236147e+003, 6.224864e-002
1.238076e+003, 6.565111e-002
1.240004e+003, 6.922778e-002
1.241932e+003, 7.310290e-002
1.243861e+003, 7.685874e-002
1.245789e+003, 8.056682e-002
1.247718e+003, 8.433736e-002
1.249646e+003, 8.776835e-002
1.251575e+003, 9.050174e-002
1.253503e+003, 9.214453e-002
1.255432e+003, 9.239534e-002
1.257360e+003, 9.114417e-002
1.259289e+003, 8.917449e-002
1.261217e+003, 8.710442e-002
1.263146e+003, 8.529738e-002
1.265074e+003, 8.403050e-002
1.267003e+003, 8.338460e-002
1.268931e+003, 8.289722e-002
1.270859e+003, 8.225615e-002
1.272788e+003, 8.135970e-002
1.274716e+003, 8.010007e-002
1.276645e+003, 7.817821e-002
1.278573e+003, 7.559747e-002
1.280502e+003, 7.249942e-002
1.282430e+003, 6.909328e-002
1.284359e+003, 6.530171e-002
1.286287e+003, 6.132468e-002
1.288216e+003, 5.753707e-002
1.290144e+003, 5.378158e-002
1.292073e+003, 5.016692e-002
1.294001e+003, 4.699245e-002
1.295930e+003, 4.407140e-002
1.297858e+003, 4.152401e-002
1.299786e+003, 3.955954e-002
1.301715e+003, 3.815722e-002
1.303643e+003, 3.718482e-002
1.305572e+003, 3.678808e-002
1.307500e+003, 3.697941e-002
1.309429e+003, 3.774890e-002
1.311357e+003, 3.910559e-002
1.313286e+003, 4.114619e-002
1.315214e+003, 4.397504e-002
1.317143e+003, 4.795277e-002
1.319071e+003, 5.295598e-002
1.321000e+003, 5.935795e-002
1.322928e+003, 6.708323e-002
1.324857e+003, 7.596274e-002
1.326785e+003, 8.569033e-002
1.328714e+003, 9.521942e-002
1.330642e+003, 1.036396e-001
1.332570e+003, 1.103477e-001
1.334499e+003, 1.150111e-001
1.336427e+003, 1.178983e-001
1.338356e+003, 1.194955e-001
1.340284e+003, 1.200105e-001
1.342213e+003, 1.192940e-001
1.344141e+003, 1.174836e-001
1.346070e+003, 1.146076e-001
1.347998e+003, 1.107672e-001
1.349927e+003, 1.061279e-001
1.351855e+003, 1.012889e-001
1.353784e+003, 9.642743e-002
1.355712e+003, 9.173184e-002
1.357641e+003, 8.757655e-002
1.359569e+003, 8.388208e-002
1.361497e+003, 8.066053e-002
1.363426e+003, 7.829456e-002
1.365354e+003, 7.669823e-002
1.367283e+003, 7.589054e-002
1.369211e+003, 7.593170e-002
1.371140e+003, 7.669783e-002
1.373068e+003, 7.795999e-002
1.374997e+003, 7.936303e-002
1.376925e+003, 8.052513e-002
1.378854e+003, 8.121616e-002
1.380782e+003, 8.117720e-002
1.382711e+003, 8.076168e-002
1.384639e+003, 8.041092e-002
1.386568e+003, 8.019757e-002
1.388496e+003, 7.973174e-002
1.390424e+003, 7.919548e-002
1.392353e+003, 7.885397e-002
1.394281e+003, 7.853964e-002
1.396210e+003, 7.812575e-002
1.398138e+003, 7.800359e-002
1.400067e+003, 7.795501e-002
1.401995e+003, 7.801829e-002
1.403924e+003, 7.835709e-002
1.405852e+003, 7.880032e-002
1.407781e+003, 7.948409e-002
1.409709e+003, 8.047775e-002
1.411638e+003, 8.155178e-002
1.413566e+003, 8.278377e-002
1.415495e+003, 8.426342e-002
1.417423e+003, 8.613633e-002
1.419351e+003, 8.790148e-002
1.421280e+003, 8.941060e-002
1.423208e+003, 9.070560e-002
1.425137e+003, 9.153176e-002
1.427065e+003, 9.168483e-002
1.428994e+003, 9.114341e-002
1.430922e+003, 8.979654e-002
1.432851e+003, 8.792458e-002
1.434779e+003, 8.597950e-002
1.436708e+003, 8.403107e-002
1.438636e+003, 8.189444e-002
1.440565e+003, 7.990476e-002
1.442493e+003, 7.818885e-002
1.444422e+003, 7.687092e-002
1.446350e+003, 7.583564e-002
1.448278e+003, 7.512439e-002
1.450207e+003, 7.454345e-002
1.452135e+003, 7.402518e-002
1.454064e+003, 7.361446e-002
1.455992e+003, 7.358889e-002
1.457921e+003, 7.319450e-002
1.459849e+003, 7.242900e-002
1.461778e+003, 7.178538e-002
1.463706e+003, 7.098832e-002
1.465635e+003, 6.977191e-002
1.467563e+003, 6.818344e-002
1.469492e+003, 6.657408e-002
1.471420e+003, 6.504109e-002
1.473349e+003, 6.315827e-002
1.475277e+003, 6.085210e-002
1.477205e+003, 5.835561e-002
1.479134e+003, 5.575195e-002
1.481062e+003, 5.322365e-002
1.482991e+003, 5.056347e-002
1.484919e+003, 4.774463e-002
1.486848e+003, 4.498197e-002
1.488776e+003, 4.217253e-002
1.490705e+003, 3.913444e-002
1.492633e+003, 3.606846e-002
1.494562e+003, 3.315543e-002
1.496490e+003, 3.030369e-002
1.498419e+003, 2.731214e-002
1.500347e+003, 2.418568e-002
1.502276e+003, 2.126881e-002
1.504204e+003, 1.886405e-002
1.506132e+003, 1.685370e-002
1.508061e+003, 1.463794e-002
1.509989e+003, 1.241021e-002
1.511918e+003, 1.046992e-002
1.513846e+003, 9.031026e-003
1.515775e+003, 8.027745e-003
1.517703e+003, 7.044083e-003
1.519632e+003, 6.438385e-003
1.521560e+003, 5.965533e-003
1.523489e+003, 5.136319e-003
1.525417e+003, 4.595727e-003
1.527346e+003, 4.209673e-003
1.529274e+003, 3.903592e-003
1.531203e+003, 3.557697e-003
1.533131e+003, 3.461780e-003
1.535059e+003, 3.262472e-003
1.536988e+003, 3.254391e-003
1.538916e+003, 3.607661e-003
1.540845e+003, 3.566653e-003
1.542773e+003, 3.191801e-003
1.544702e+003, 3.037930e-003
1.546630e+003, 2.851690e-003
1.548559e+003, 2.665391e-003
1.550487e+003, 2.632142e-003
1.552416e+003, 2.664696e-003
1.554344e+003, 2.718576e-003
1.556273e+003, 2.779576e-003
1.558201e+003, 3.194617e-003
1.560130e+003, 3.069673e-003
1.562058e+003, 2.384919e-003
1.563986e+003, 2.223032e-003
1.565915e+003, 2.211250e-003
1.567843e+003, 2.305707e-003
1.569772e+003, 2.363970e-003
1.571700e+003, 2.085995e-003
1.573629e+003, 2.032177e-003
1.575557e+003, 2.283214e-003
1.577486e+003, 2.112548e-003
1.579414e+003, 1.805434e-003
1.581343e+003, 1.863064e-003
1.583271e+003, 2.076095e-003
1.585200e+003, 2.011140e-003
1.587128e+003, 1.904209e-003
1.589057e+003, 1.886090e-003
1.590985e+003, 1.964131e-003
1.592913e+003, 2.006846e-003
1.594842e+003, 2.055173e-003
1.596770e+003, 1.976739e-003
1.598699e+003, 2.033898e-003
1.600627e+003, 2.157796e-003
1.602556e+003, 2.220907e-003
1.604484e+003, 2.254300e-003
1.606413e+003, 2.348863e-003
1.608341e+003, 2.419380e-003
1.610270e+003, 2.591433e-003
1.612198e+003, 2.842184e-003
1.614127e+003, 3.153460e-003
1.616055e+003, 3.625930e-003
1.617984e+003, 3.639472e-003
1.619912e+003, 3.521671e-003
1.621840e+003, 3.874678e-003
1.623769e+003, 4.200380e-003
1.625697e+003, 4.408548e-003
1.627626e+003, 4.696948e-003
1.629554e+003, 4.947528e-003
1.631483e+003, 5.417337e-003
1.633411e+003, 6.017787e-003
1.635340e+003, 6.457719e-003
1.637268e+003, 6.630135e-003
1.639197e+003, 6.697867e-003
1.641125e+003, 7.092505e-003
1.643054e+003, 7.820467e-003
1.644982e+003, 8.853524e-003
1.646911e+003, 9.589474e-003
1.648839e+003, 1.009428e-002
1.650767e+003, 1.115401e-002
1.652696e+003, 1.230836e-002
1.654624e+003, 1.229049e-002
1.656553e+003, 1.188377e-002
1.658481e+003, 1.155936e-002
1.660410e+003, 1.128214e-002
1.662338e+003, 1.104307e-002
1.664267e+003, 1.059666e-002
1.666195e+003, 1.008609e-002
1.668124e+003, 9.971838e-003
1.670052e+003, 9.768918e-003
1.671981e+003, 9.457966e-003
1.673909e+003, 9.463537e-003
1.675838e+003, 9.619310e-003
1.677766e+003, 9.442202e-003
1.679694e+003, 9.320910e-003
1.681623e+003, 9.178462e-003
1.683551e+003, 9.519577e-003
1.685480e+003, 9.278692e-003
1.687408e+003, 8.507807e-003
1.689337e+003, 8.031085e-003
1.691265e+003, 7.746158e-003
1.693194e+003, 7.463738e-003
1.695122e+003, 7.452097e-003
1.697051e+003, 7.123644e-003
1.698979e+003, 6.805147e-003
1.700908e+003, 6.324035e-003
1.702836e+003, 5.331400e-003
1.704765e+003, 4.800208e-003
1.706693e+003, 4.339802e-003
1.708621e+003, 3.907830e-003
1.710550e+003, 3.576041e-003
1.712478e+003, 3.324460e-003
1.714407e+003, 3.317363e-003
1.716335e+003, 3.242783e-003
1.718264e+003, 2.843522e-003
1.720192e+003, 2.353000e-003
1.722121e+003, 2.235099e-003
1.724049e+003, 2.329797e-003
1.725978e+003, 2.319897e-003
1.727906e+003, 2.243412e-003
1.729835e+003, 2.224186e-003
1.731763e+003, 2.449073e-003
1.733692e+003, 2.730961e-003
1.735620e+003, 2.170314e-003
1.737548e+003, 1.448519e-003
1.739477e+003, 1.257278e-003
1.741405e+003, 1.191285e-003
1.743334e+003, 1.009805e-003
1.745262e+003, 7.721023e-004
1.747191e+003, 8.579736e-004
1.749119e+003, 1.021223e-003
1.751048e+003, 9.465934e-004
1.752976e+003, 6.139544e-004
1.754905e+003, 4.548458e-004
1.756833e+003, 3.631483e-004
1.758762e+003, 3.963137e-004
1.760690e+003, 4.857662e-004
1.762619e+003, 4.195630e-004
1.764547e+003, 2.996998e-004
1.766475e+003, 4.969675e-004
1.768404e+003, 7.259757e-004
1.770332e+003, 7.761472e-004
1.772261e+003, 8.510021e-004
1.774189e+003, 6.221488e-004
1.776118e+003, 5.397841e-004
1.778046e+003, 5.651907e-004
1.779975e+003, 6.440694e-004
1.781903e+003, 5.583811e-004
1.783832e+003, 4.431228e-004
1.785760e+003, 4.749210e-004
1.787689e+003, 4.820721e-004
1.789617e+003, 6.304667e-004
1.791546e+003, 7.429625e-004
1.793474e+003, 6.710788e-004
1.795402e+003, 4.774259e-004
1.797331e+003, 3.402400e-004
1.799259e+003, 2.705876e-004
1.801188e+003, 4.199660e-004
1.803116e+003, 6.386306e-004
1.805045e+003, 4.613185e-004
1.806973e+003, 4.345539e-004
1.808902e+003, 5.536461e-004
1.810830e+003, 6.158423e-004
1.812759e+003, 7.165293e-004
1.814687e+003, 4.885705e-004
1.816616e+003, 2.914424e-004
1.818544e+003, 2.298487e-004
1.820473e+003, 3.193362e-004
1.822401e+003, 4.440641e-004
1.824329e+003, 7.685987e-004
1.826258e+003, 8.763245e-004
1.828186e+003, 4.454738e-004
1.830115e+003, 1.604672e-004
1.832043e+003, 7.879639e-005
1.833972e+003, 2.073029e-004
1.835900e+003, 2.330768e-004
1.837829e+003, 1.456125e-004
1.839757e+003, 1.441191e-004
1.841686e+003, 6.236741e-005
1.843614e+003, -1.500141e-004
1.845543e+003, -3.162069e-004
1.847471e+003, -1.863755e-004
1.849400e+003, -7.304014e-005
1.851328e+003, -2.935291e-004
1.853256e+003, -3.161781e-004
1.855185e+003, -3.820670e-004
1.857113e+003, -1.559112e-004
1.859042e+003, -5.642140e-005
1.860970e+003, -4.652251e-004
1.862899e+003, -9.909491e-004
1.864827e+003, -1.118478e-003
1.866756e+003, -7.746498e-004
1.868684e+003, -2.623621e-004
1.870613e+003, -7.589121e-004
1.872541e+003, -1.032577e-003
1.874470e+003, -8.080064e-004
1.876398e+003, -8.633693e-004
1.878327e+003, -1.205999e-003
1.880255e+003, -1.257314e-003
1.882183e+003, -1.329337e-003
1.884112e+003, -1.510617e-003
1.886040e+003, -1.467937e-003
1.887969e+003, -1.347350e-003
1.889897e+003, -1.715433e-003
1.891826e+003, -1.851098e-003
1.893754e+003, -1.823622e-003
1.895683e+003, -1.999815e-003
1.897611e+003, -2.187928e-003
1.899540e+003, -1.928788e-003
1.901468e+003, -1.415856e-003
1.903397e+003, -8.630656e-004
1.905325e+003, -7.100466e-004
1.907254e+003, -9.490876e-004
1.909182e+003, -1.011399e-003
1.911110e+003, -9.329171e-004
1.913039e+003, -1.144039e-003
1.914967e+003, -1.014084e-003
1.916896e+003, -6.846588e-004
1.918824e+003, -6.583486e-004
1.920753e+003, -5.916635e-004
1.922681e+003, -4.507271e-004
1.924610e+003, -6.241399e-004
1.926538e+003, -9.514790e-004
1.928467e+003, -1.123466e-003
1.930395e+003, -9.289139e-004
1.932324e+003, -4.521556e-004
1.934252e+003, -4.690048e-004
1.936181e+003, -4.776153e-004
1.938109e+003, -5.307177e-004
1.940037e+003, -1.347415e-003
1.941966e+003, -1.710875e-003
1.943894e+003, -1.768108e-003
1.945823e+003, -1.949089e-003
1.947751e+003, -2.173196e-003
1.949680e+003, -2.226508e-003
1.951608e+003, -2.382000e-003
1.953537e+003, -2.093004e-003
1.955465e+003, -2.062042e-003
1.957394e+003, -1.955180e-003
1.959322e+003, -2.303302e-003
1.961251e+003, -2.855227e-003
1.963179e+003, -3.693418e-003
1.965108e+003, -4.658912e-003
1.967036e+003, -4.120955e-003
1.968964e+003, -4.184270e-003
1.970893e+003, -5.105074e-003
1.972821e+003, -5.011556e-003
1.974750e+003, -4.814256e-003
1.976678e+003, -3.945593e-003
1.978607e+003, -3.951791e-003
1.980535e+003, -3.991765e-003
1.982464e+003, -4.063386e-003
1.984392e+003, -3.520731e-003
1.986321e+003, -3.896966e-003
1.988249e+003, -4.656183e-003
1.990178e+003, -4.495796e-003
1.992106e+003, -4.830642e-003
1.994035e+003, -5.029973e-003
1.995963e+003, -4.074402e-003
1.997891e+003, -3.964477e-003
1.999820e+003, -5.333856e-003
2.001748e+003, -5.836618e-003
2.003677e+003, -5.837823e-003
2.005605e+003, -5.447824e-003
2.007534e+003, -5.087237e-003
2.009462e+003, -5.493963e-003
2.011391e+003, -6.162712e-003
2.013319e+003, -5.442391e-003
2.015248e+003, -4.866837e-003
2.017176e+003, -4.577862e-003
2.019105e+003, -4.401996e-003
2.021033e+003, -4.487086e-003
2.022962e+003, -4.349779e-003
2.024890e+003, -4.536766e-003
2.026818e+003, -3.797164e-003
2.028747e+003, -3.265031e-003
2.030675e+003, -3.597218e-003
2.032604e+003, -3.721896e-003
2.034532e+003, -3.794231e-003
2.036461e+003, -2.594765e-003
2.038389e+003, -1.491176e-003
2.040318e+003, -1.887924e-003
2.042246e+003, -2.617114e-003
2.044175e+003, -2.458034e-003
2.046103e+003, -2.514438e-003
2.048031e+003, -2.365557e-003
2.049960e+003, -1.690232e-003
2.051888e+003, -1.307389e-003
2.053817e+003, -1.672628e-003
2.055745e+003, -2.026236e-003
2.057674e+003, -2.329979e-003
2.059602e+003, -2.247077e-003
2.061531e+003, -1.863928e-003
2.063459e+003, -1.777994e-003
2.065388e+003, -1.996683e-003
2.067316e+003, -1.781112e-003
2.069245e+003, -1.758208e-003
2.071173e+003, -1.837171e-003
2.073102e+003, -1.238251e-003
2.075030e+003, -1.093283e-003
2.076958e+003, -1.299311e-003
2.078887e+003, -1.001470e-003
2.080815e+003, -9.955807e-004
2.082744e+003, -1.621792e-003
2.084672e+003, -1.370833e-003
2.086601e+003, -7.061029e-004
2.088529e+003, -4.665743e-004
2.090458e+003, -6.281576e-004
2.092386e+003, -1.929116e-003
2.094315e+003, -2.013847e-003
2.096243e+003, -1.124162e-003
2.098172e+003, -1.101449e-003
2.100100e+003, -5.793181e-004
2.102029e+003, -5.606548e-005
2.103957e+003, 3.058106e-004
2.105885e+003, -2.168396e-004
2.107814e+003, -4.048450e-004
2.109742e+003, 3.853235e-004
2.111671e+003, 5.003390e-004
2.113599e+003, -1.853562e-004
2.115528e+003, -3.591717e-004
2.117456e+003, -2.298852e-004
2.119385e+003, -1.348287e-005
2.121313e+003, 8.758261e-005
2.123242e+003, -8.322216e-005
2.125170e+003, -1.492687e-004
2.127099e+003, 1.322288e-004
2.129027e+003, -1.587087e-004
2.130956e+003, -1.906197e-004
2.132884e+003, 2.438184e-005
2.134813e+003, 7.909420e-004
2.136741e+003, 7.893181e-004
2.138669e+003, -3.678466e-004
2.140598e+003, -1.046430e-003
2.142526e+003, -7.999326e-004
2.144455e+003, -1.210052e-003
2.146383e+003, -1.951932e-003
2.148312e+003, -1.342030e-003
2.150240e+003, -7.677178e-004
2.152169e+003, -1.588293e-003
2.154097e+003, -2.824140e-003
2.156026e+003, -3.516275e-003
2.157954e+003, -2.932199e-003
2.159883e+003, -7.628656e-004
2.161811e+003, 1.081668e-004
2.163740e+003, -9.378556e-004
2.165668e+003, -1.404533e-003
2.167596e+003, -1.280276e-003
2.169525e+003, -1.063443e-003
2.171453e+003, -1.011708e-003
2.173382e+003, -6.876889e-004
2.175310e+003, -2.104620e-005
2.177239e+003, 5.991019e-004
2.179167e+003, 6.507150e-004
2.181096e+003, 2.873832e-004
2.183024e+003, -1.145676e-004
2.184953e+003, -3.148717e-004
2.186881e+003, 7.608352e-006
2.188810e+003, 2.760668e-004
2.190738e+003, 2.408775e-004
2.192667e+003, -7.105610e-004
2.194595e+003, -4.657036e-004
2.196523e+003, 1.306485e-004
2.198452e+003, -1.028496e-004
2.200380e+003, 4.527899e-004
2.202309e+003, -1.891232e-004
2.204237e+003, -7.474434e-004
2.206166e+003, -6.827221e-005
2.208094e+003, -2.096625e-004
2.210023e+003, -5.733501e-005
2.211951e+003, 6.850009e-004
2.213880e+003, 1.016574e-003
2.215808e+003, 5.366199e-004
2.217737e+003, 1.421993e-004
2.219665e+003, -2.860915e-005
2.221594e+003, 2.474362e-004
2.223522e+003, -3.476799e-004
2.225450e+003, -5.985685e-004
2.227379e+003, -2.671598e-005
2.229307e+003, -2.414377e-004
2.231236e+003, -3.229457e-004
2.233164e+003, 1.708666e-004
2.235093e+003, 7.089907e-004
2.237021e+003, 5.099418e-004
2.238950e+003, 2.362352e-004
2.240878e+003, 2.977112e-004
2.242807e+003, 3.014612e-004
2.244735e+003, 7.720654e-005
2.246664e+003, -4.066611e-004
2.248592e+003, -1.069752e-003
2.250521e+003, -1.256721e-003
2.252449e+003, -1.339635e-003
2.254377e+003, -1.236494e-003
2.256306e+003, -1.229413e-003
2.258234e+003, -1.462176e-003
2.260163e+003, -1.177063e-003
2.262091e+003, -4.130498e-004
2.264020e+003, -1.045469e-003
2.265948e+003, -9.780318e-004
2.267877e+003, -4.002103e-004
2.269805e+003, -4.860235e-004
2.271734e+003, -2.917853e-004
2.273662e+003, -4.531904e-004
2.275591e+003, -8.450180e-004
2.277519e+003, -5.654366e-004
2.279448e+003, -1.302760e-004
2.281376e+003, 1.639709e-004
2.283304e+003, 9.230352e-005
2.285233e+003, 1.726408e-005
2.287161e+003, -9.487565e-005
2.289090e+003, 2.941774e-004
2.291018e+003, 8.294422e-004
2.292947e+003, 8.041358e-004
2.294875e+003, 5.765384e-004
2.296804e+003, 8.033558e-004
2.298732e+003, 7.906906e-004
2.300661e+003, 6.499211e-004
2.302589e+003, 8.297371e-004
2.304518e+003, 1.034498e-003
2.306446e+003, 8.983598e-004
2.308375e+003, 7.326188e-004
2.310303e+003, 7.209741e-004
2.312231e+003, 8.013145e-004
2.314160e+003, 9.899334e-004
2.316088e+003, 1.235373e-003
2.318017e+003, 1.197107e-003
2.319945e+003, 1.174322e-003
2.321874e+003, 1.262184e-003
2.323802e+003, 1.648773e-003
2.325731e+003, 1.680090e-003
2.327659e+003, 1.682565e-003
2.329588e+003, 1.577112e-003
2.331516e+003, 1.788740e-003
2.333445e+003, 2.000758e-003
2.335373e+003, 2.091191e-003
2.337302e+003, 2.035726e-003
2.339230e+003, 1.929924e-003
2.341158e+003, 2.102590e-003
2.343087e+003, 2.255026e-003
2.345015e+003, 2.139146e-003
2.346944e+003, 1.862821e-003
2.348872e+003, 1.635691e-003
2.350801e+003, 1.639842e-003
2.352729e+003, 1.980348e-003
2.354658e+003, 2.452746e-003
2.356586e+003, 2.838588e-003
2.358515e+003, 3.004705e-003
2.360443e+003, 3.053129e-003
2.362372e+003, 3.129032e-003
2.364300e+003, 3.209774e-003
2.366229e+003, 3.276414e-003
2.368157e+003, 3.291522e-003
2.370085e+003, 3.123180e-003
2.372014e+003, 2.929760e-003
2.373942e+003, 2.759089e-003
2.375871e+003, 2.752332e-003
2.377799e+003, 2.856555e-003
2.379728e+003, 2.682486e-003
2.381656e+003, 2.191470e-003
2.383585e+003, 2.506232e-003
2.385513e+003, 3.085160e-003
2.387442e+003, 3.136291e-003
2.389370e+003, 3.128899e-003
2.391299e+003, 3.348248e-003
2.393227e+003, 3.611041e-003
2.395156e+003, 3.844208e-003
2.397084e+003, 4.281783e-003
2.399012e+003, 4.520474e-003
2.400941e+003, 4.360008e-003
2.402869e+003, 4.337767e-003
2.404798e+003, 4.836564e-003
2.406726e+003, 5.413420e-003
2.408655e+003, 5.752741e-003
2.410583e+003, 5.526794e-003
2.412512e+003, 5.556369e-003
2.414440e+003, 5.809032e-003
2.416369e+003, 5.893057e-003
2.418297e+003, 6.331043e-003
2.420226e+003, 6.525618e-003
2.422154e+003, 6.642267e-003
2.424083e+003, 7.203559e-003
2.426011e+003, 7.198283e-003
2.427939e+003, 7.026632e-003
2.429868e+003, 6.637980e-003
2.431796e+003, 6.306480e-003
2.433725e+003, 6.596259e-003
2.435653e+003, 7.086979e-003
2.437582e+003, 6.929170e-003
2.439510e+003, 6.263875e-003
2.441439e+003, 5.978929e-003
2.443367e+003, 6.301223e-003
2.445296e+003, 6.302855e-003
2.447224e+003, 6.497164e-003
2.449153e+003, 6.381942e-003
2.451081e+003, 6.019694e-003
2.453010e+003, 5.553064e-003
2.454938e+003, 5.775851e-003
2.456866e+003, 5.816239e-003
2.458795e+003, 5.033562e-003
2.460723e+003, 5.081748e-003
2.462652e+003, 5.698510e-003
2.464580e+003, 5.723414e-003
2.466509e+003, 5.739067e-003
2.468437e+003, 5.798566e-003
2.470366e+003, 5.811655e-003
2.472294e+003, 5.499310e-003
2.474223e+003, 5.071488e-003
2.476151e+003, 4.848115e-003
2.478080e+003, 4.473787e-003
2.480008e+003, 4.312003e-003
2.481937e+003, 4.760813e-003
2.483865e+003, 4.950441e-003
2.485793e+003, 4.936825e-003
2.487722e+003, 4.924922e-003
2.489650e+003, 4.889627e-003
2.491579e+003, 4.445269e-003
2.493507e+003, 3.918973e-003
2.495436e+003, 3.895532e-003
2.497364e+003, 3.845146e-003
2.499293e+003, 3.772824e-003
2.501221e+003, 3.766088e-003
2.503150e+003, 3.671121e-003
2.505078e+003, 3.590251e-003
2.507007e+003, 2.984290e-003
2.508935e+003, 2.911898e-003
2.510864e+003, 2.858331e-003
2.512792e+003, 2.807938e-003
2.514720e+003, 2.918279e-003
2.516649e+003, 3.012241e-003
2.518577e+003, 3.137065e-003
2.520506e+003, 2.554766e-003
2.522434e+003, 1.974648e-003
2.524363e+003, 2.161105e-003
2.526291e+003, 2.549723e-003
2.528220e+003, 2.906143e-003
2.530148e+003, 2.971824e-003
2.532077e+003, 3.112315e-003
2.534005e+003, 2.962294e-003
2.535934e+003, 2.916695e-003
2.537862e+003, 2.619475e-003
2.539791e+003, 2.796935e-003
2.541719e+003, 3.215214e-003
2.543647e+003, 3.315541e-003
2.545576e+003, 3.287007e-003
2.547504e+003, 3.495072e-003
2.549433e+003, 3.491786e-003
2.551361e+003, 3.459489e-003
2.553290e+003, 3.499190e-003
2.555218e+003, 4.067287e-003
2.557147e+003, 4.675323e-003
2.559075e+003, 4.422662e-003
2.561004e+003, 4.193267e-003
2.562932e+003, 4.744916e-003
2.564861e+003, 5.291085e-003
2.566789e+003, 5.343345e-003
2.568718e+003, 5.174278e-003
2.570646e+003, 5.005749e-003
2.572574e+003, 5.698981e-003
2.574503e+003, 6.667300e-003
2.576431e+003, 6.761782e-003
2.578360e+003, 6.605185e-003
2.580288e+003, 6.520687e-003
2.582217e+003, 6.456285e-003
2.584145e+003, 6.341496e-003
2.586074e+003, 6.825536e-003
2.588002e+003, 7.503159e-003
2.589931e+003, 7.563610e-003
2.591859e+003, 7.618178e-003
2.593788e+003, 7.340162e-003
2.595716e+003, 7.583016e-003
2.597645e+003, 8.051462e-003
2.599573e+003, 8.291867e-003
2.601501e+003, 8.526240e-003
2.603430e+003, 8.334670e-003
2.605358e+003, 8.770270e-003
2.607287e+003, 8.435878e-003
2.609215e+003, 8.063121e-003
2.611144e+003, 8.270119e-003
2.613072e+003, 8.208812e-003
2.615001e+003, 8.019741e-003
2.616929e+003, 8.117000e-003
2.618858e+003, 8.141072e-003
2.620786e+003, 8.204793e-003
2.622715e+003, 8.073241e-003
2.624643e+003, 7.655177e-003
2.626572e+003, 7.487774e-003
2.628500e+003, 7.746042e-003
2.630428e+003, 7.872827e-003
2.632357e+003, 7.703053e-003
2.634285e+003, 7.472689e-003
2.636214e+003, 7.211878e-003
2.638142e+003, 6.900261e-003
2.640071e+003, 6.853031e-003
2.641999e+003, 6.985826e-003
2.643928e+003, 6.903936e-003
2.645856e+003, 6.453526e-003
2.647785e+003, 6.142689e-003
2.649713e+003, 6.001975e-003
2.651642e+003, 6.012349e-003
2.653570e+003, 5.991356e-003
2.655499e+003, 5.693706e-003
2.657427e+003, 5.303522e-003
2.659355e+003, 5.007765e-003
2.661284e+003, 5.111919e-003
2.663212e+003, 5.165348e-003
2.665141e+003, 5.027529e-003
2.667069e+003, 5.209757e-003
2.668998e+003, 4.971656e-003
2.670926e+003, 4.677097e-003
2.672855e+003, 4.801590e-003
2.674783e+003, 4.930275e-003
2.676712e+003, 4.987628e-003
2.678640e+003, 4.949328e-003
2.680569e+003, 4.840152e-003
2.682497e+003, 4.979573e-003
2.684426e+003, 4.944208e-003
2.686354e+003, 5.063970e-003
2.688282e+003, 5.026274e-003
2.690211e+003, 4.892293e-003
2.692139e+003, 4.975973e-003
2.694068e+003, 5.491977e-003
2.695996e+003, 5.726228e-003
2.697925e+003, 5.454484e-003
2.699853e+003, 5.488581e-003
2.701782e+003, 5.459224e-003
2.703710e+003, 5.618386e-003
2.705639e+003, 6.049083e-003
2.707567e+003, 5.967100e-003
2.709496e+003, 5.891857e-003
2.711424e+003, 6.018763e-003
2.713353e+003, 6.284228e-003
2.715281e+003, 6.570387e-003
2.717209e+003, 6.801775e-003
2.719138e+003, 6.768997e-003
2.721066e+003, 6.977660e-003
2.722995e+003, 7.278151e-003
2.724923e+003, 7.494811e-003
2.726852e+003, 7.564038e-003
2.728780e+003, 7.658201e-003
2.730709e+003, 7.756323e-003
2.732637e+003, 7.906079e-003
2.734566e+003, 8.102765e-003
2.736494e+003, 8.346318e-003
2.738423e+003, 8.577917e-003
2.740351e+003, 8.637186e-003
2.742280e+003, 8.978383e-003
2.744208e+003, 9.093083e-003
2.746136e+003, 8.718296e-003
2.748065e+003, 8.764044e-003
2.749993e+003, 9.277166e-003
2.751922e+003, 9.553500e-003
2.753850e+003, 9.491581e-003
2.755779e+003, 9.336897e-003
2.757707e+003, 9.640549e-003
2.759636e+003, 1.010716e-002
2.761564e+003, 1.037170e-002
2.763493e+003, 1.051666e-002
2.765421e+003, 1.076131e-002
2.767350e+003, 1.131378e-002
2.769278e+003, 1.130388e-002
2.771207e+003, 1.106513e-002
2.773135e+003, 1.130376e-002
2.775063e+003, 1.178981e-002
2.776992e+003, 1.188219e-002
2.778920e+003, 1.172996e-002
2.780849e+003, 1.157575e-002
2.782777e+003, 1.184828e-002
2.784706e+003, 1.217045e-002
2.786634e+003, 1.220658e-002
2.788563e+003, 1.214671e-002
2.790491e+003, 1.236694e-002
2.792420e+003, 1.242914e-002
2.794348e+003, 1.252444e-002
2.796277e+003, 1.246363e-002
2.798205e+003, 1.259372e-002
2.800134e+003, 1.275587e-002
2.802062e+003, 1.264204e-002
2.803990e+003, 1.298518e-002
2.805919e+003, 1.333996e-002
2.807847e+003, 1.324680e-002
2.809776e+003, 1.308904e-002
2.811704e+003, 1.312053e-002
2.813633e+003, 1.349521e-002
2.815561e+003, 1.386635e-002
2.817490e+003, 1.387840e-002
2.819418e+003, 1.348338e-002
2.821347e+003, 1.338325e-002
2.823275e+003, 1.367530e-002
2.825204e+003, 1.367064e-002
2.827132e+003, 1.362200e-002
2.829061e+003, 1.377897e-002
2.830989e+003, 1.380060e-002
2.832917e+003, 1.406253e-002
2.834846e+003, 1.437931e-002
2.836774e+003, 1.437749e-002
2.838703e+003, 1.429458e-002
2.840631e+003, 1.468761e-002
2.842560e+003, 1.480919e-002
2.844488e+003, 1.477393e-002
2.846417e+003, 1.464212e-002
2.848345e+003, 1.477448e-002
2.850274e+003, 1.487748e-002
2.852202e+003, 1.479994e-002
2.854131e+003, 1.493245e-002
2.856059e+003, 1.502894e-002
2.857988e+003, 1.522534e-002
2.859916e+003, 1.570883e-002
2.861844e+003, 1.613012e-002
2.863773e+003, 1.628673e-002
2.865701e+003, 1.623526e-002
2.867630e+003, 1.647243e-002
2.869558e+003, 1.684447e-002
2.871487e+003, 1.711061e-002
2.873415e+003, 1.717123e-002
2.875344e+003, 1.730080e-002
2.877272e+003, 1.755370e-002
2.879201e+003, 1.767663e-002
2.881129e+003, 1.821666e-002
2.883058e+003, 1.831938e-002
2.884986e+003, 1.772960e-002
2.886915e+003, 1.805215e-002
2.888843e+003, 1.905392e-002
2.890771e+003, 1.929822e-002
2.892700e+003, 1.935411e-002
2.894628e+003, 1.933935e-002
2.896557e+003, 1.945126e-002
2.898485e+003, 1.991861e-002
2.900414e+003, 2.048558e-002
2.902342e+003, 2.096542e-002
2.904271e+003, 2.107241e-002
2.906199e+003, 2.097742e-002
2.908128e+003, 2.138643e-002
2.910056e+003, 2.187898e-002
2.911985e+003, 2.203525e-002
2.913913e+003, 2.226797e-002
2.915842e+003, 2.239008e-002
2.917770e+003, 2.273281e-002
2.919698e+003, 2.297931e-002
2.921627e+003, 2.308568e-002
2.923555e+003, 2.331303e-002
2.925484e+003, 2.357150e-002
2.927412e+003, 2.366421e-002
2.929341e+003, 2.382576e-002
2.931269e+003, 2.419716e-002
2.933198e+003, 2.432680e-002
2.935126e+003, 2.432872e-002
2.937055e+003, 2.425752e-002
2.938983e+003, 2.442868e-002
2.940912e+003, 2.492286e-002
2.942840e+003, 2.520053e-002
2.944769e+003, 2.529716e-002
2.946697e+003, 2.520389e-002
2.948625e+003, 2.603423e-002
2.950554e+003, 2.657007e-002
2.952482e+003, 2.648836e-002
2.954411e+003, 2.689057e-002
2.956339e+003, 2.759692e-002
2.958268e+003, 2.724722e-002
2.960196e+003, 2.716019e-002
2.962125e+003, 2.809163e-002
2.964053e+003, 2.869486e-002
2.965982e+003, 2.869282e-002
2.967910e+003, 2.878720e-002
2.969839e+003, 2.891368e-002
2.971767e+003, 2.923378e-002
2.973696e+003, 2.942289e-002
2.975624e+003, 2.936128e-002
2.977552e+003, 2.910451e-002
2.979481e+003, 2.922696e-002
2.981409e+003, 2.950609e-002
2.983338e+003, 3.023195e-002
2.985266e+003, 3.087483e-002
2.987195e+003, 3.084693e-002
2.989123e+003, 3.032049e-002
2.991052e+003, 3.058213e-002
2.992980e+003, 3.106664e-002
2.994909e+003, 3.155791e-002
2.996837e+003, 3.199542e-002
2.998766e+003, 3.203434e-002
3.000694e+003, 3.181284e-002
3.002623e+003, 3.201151e-002
3.004551e+003, 3.236207e-002
3.006479e+003, 3.258719e-002
3.008408e+003, 3.260411e-002
3.010336e+003, 3.281124e-002
3.012265e+003, 3.308262e-002
3.014193e+003, 3.267049e-002
3.016122e+003, 3.236684e-002
3.018050e+003, 3.248532e-002
3.019979e+003, 3.305384e-002
3.021907e+003, 3.328762e-002
3.023836e+003, 3.312390e-002
3.025764e+003, 3.333556e-002
3.027693e+003, 3.357651e-002
3.029621e+003, 3.387824e-002
3.031550e+003, 3.372553e-002
3.033478e+003, 3.334333e-002
3.035406e+003, 3.309832e-002
3.037335e+003, 3.283754e-002
3.039263e+003, 3.323052e-002
3.041192e+003, 3.363236e-002
3.043120e+003, 3.358521e-002
3.045049e+003, 3.378803e-002
3.046977e+003, 3.399515e-002
3.048906e+003, 3.368367e-002
3.050834e+003, 3.342328e-002
3.052763e+003, 3.351816e-002
3.054691e+003, 3.322110e-002
3.056620e+003, 3.298083e-002
3.058548e+003, 3.271296e-002
3.060477e+003, 3.234804e-002
3.062405e+003, 3.220895e-002
3.064333e+003, 3.232483e-002
3.066262e+003, 3.267540e-002
3.068190e+003, 3.246738e-002
3.070119e+003, 3.237053e-002
3.072047e+003, 3.251394e-002
3.073976e+003, 3.239961e-002
3.075904e+003, 3.213584e-002
3.077833e+003, 3.169685e-002
3.079761e+003, 3.155475e-002
3.081690e+003, 3.150917e-002
3.083618e+003, 3.107852e-002
3.085547e+003, 3.080648e-002
3.087475e+003, 3.095878e-002
3.089404e+003, 3.128048e-002
3.091332e+003, 3.152166e-002
3.093260e+003, 3.158666e-002
3.095189e+003, 3.134378e-002
3.097117e+003, 3.128337e-002
3.099046e+003, 3.095733e-002
3.100974e+003, 3.116775e-002
3.102903e+003, 3.064999e-002
3.104831e+003, 2.991098e-002
3.106760e+003, 3.017239e-002
3.108688e+003, 3.050115e-002
3.110617e+003, 3.056045e-002
3.112545e+003, 3.084357e-002
3.114474e+003, 3.119138e-002
3.116402e+003, 3.115152e-002
3.118331e+003, 3.152303e-002
3.120259e+003, 3.127598e-002
3.122188e+003, 3.084218e-002
3.124116e+003, 3.065199e-002
3.126044e+003, 3.020833e-002
3.127973e+003, 3.019931e-002
3.129901e+003, 3.042323e-002
3.131830e+003, 3.063619e-002
3.133758e+003, 3.134499e-002
3.135687e+003, 3.155694e-002
3.137615e+003, 3.080698e-002
3.139544e+003, 3.084390e-002
3.141472e+003, 3.170849e-002
3.143401e+003, 3.141010e-002
3.145329e+003, 3.125513e-002
3.147258e+003, 3.155994e-002
3.149186e+003, 3.183409e-002
3.151115e+003, 3.200224e-002
3.153043e+003, 3.220258e-002
3.154971e+003, 3.272153e-002
3.156900e+003, 3.302309e-002
3.158828e+003, 3.283303e-002
3.160757e+003, 3.254054e-002
3.162685e+003, 3.311871e-002
3.164614e+003, 3.372058e-002
3.166542e+003, 3.392909e-002
3.168471e+003, 3.428037e-002
3.170399e+003, 3.438965e-002
3.172328e+003, 3.447825e-002
3.174256e+003, 3.459207e-002
3.176185e+003, 3.491376e-002
3.178113e+003, 3.567109e-002
3.180042e+003, 3.607080e-002
3.181970e+003, 3.586867e-002
3.183898e+003, 3.567021e-002
3.185827e+003, 3.575692e-002
3.187755e+003, 3.669594e-002
3.189684e+003, 3.793340e-002
3.191612e+003, 3.846976e-002
3.193541e+003, 3.878884e-002
3.195469e+003, 3.911684e-002
3.197398e+003, 3.929650e-002
3.199326e+003, 3.911990e-002
3.201255e+003, 3.940697e-002
3.203183e+003, 3.974783e-002
3.205112e+003, 4.050399e-002
3.207040e+003, 4.105566e-002
3.208969e+003, 4.131471e-002
3.210897e+003, 4.110974e-002
3.212825e+003, 4.138367e-002
3.214754e+003, 4.235806e-002
3.216682e+003, 4.277870e-002
3.218611e+003, 4.257005e-002
3.220539e+003, 4.280601e-002
3.222468e+003, 4.333353e-002
3.224396e+003, 4.360787e-002
3.226325e+003, 4.453845e-002
3.228253e+003, 4.482447e-002
3.230182e+003, 4.466572e-002
3.232110e+003, 4.486819e-002
3.234039e+003, 4.541549e-002
3.235967e+003, 4.621368e-002
3.237896e+003, 4.677871e-002
3.239824e+003, 4.712690e-002
3.241752e+003, 4.694238e-002
3.243681e+003, 4.628053e-002
3.245609e+003, 4.645118e-002
3.247538e+003, 4.712183e-002
3.249466e+003, 4.767827e-002
3.251395e+003, 4.807846e-002
3.253323e+003, 4.822733e-002
3.255252e+003, 4.818371e-002
3.257180e+003, 4.834659e-002
3.259109e+003, 4.888932e-002
3.261037e+003, 4.946597e-002
3.262966e+003, 4.974289e-002
3.264894e+003, 4.986675e-002
3.266823e+003, 5.063424e-002
3.268751e+003, 5.156438e-002
3.270679e+003, 5.130354e-002
3.272608e+003, 5.120485e-002
3.274536e+003, 5.167409e-002
3.276465e+003, 5.247241e-002
3.278393e+003, 5.274733e-002
3.280322e+003, 5.328669e-002
3.282250e+003, 5.387167e-002
3.284179e+003, 5.423187e-002
3.286107e+003, 5.421339e-002
3.288036e+003, 5.457273e-002
3.289964e+003, 5.501094e-002
3.291893e+003, 5.610549e-002
3.293821e+003, 5.617298e-002
3.295750e+003, 5.702759e-002
3.297678e+003, 5.882575e-002
3.299606e+003, 5.995460e-002
3.301535e+003, 6.077977e-002
3.303463e+003, 6.106344e-002
3.305392e+003, 6.210754e-002
3.307320e+003, 6.407436e-002
3.309249e+003, 6.503599e-002
3.311177e+003, 6.574029e-002
3.313106e+003, 6.734338e-002
3.315034e+003, 6.902927e-002
3.316963e+003, 7.061830e-002
3.318891e+003, 7.209740e-002
3.320820e+003, 7.343602e-002
3.322748e+003, 7.506479e-002
3.324677e+003, 7.640966e-002
3.326605e+003, 7.808224e-002
3.328533e+003, 7.983197e-002
3.330462e+003, 8.128205e-002
3.332390e+003, 8.289856e-002
3.334319e+003, 8.442643e-002
3.336247e+003, 8.554680e-002
3.338176e+003, 8.660320e-002
3.340104e+003, 8.790498e-002
3.342033e+003, 8.847727e-002
3.343961e+003, 8.834885e-002
3.345890e+003, 8.806643e-002
3.347818e+003, 8.830023e-002
3.349747e+003, 8.755238e-002
3.351675e+003, 8.619911e-002
3.353604e+003, 8.487244e-002
3.355532e+003, 8.358046e-002
3.357460e+003, 8.209018e-002
3.359389e+003, 8.013262e-002
3.361317e+003, 7.783502e-002
3.363246e+003, 7.537351e-002
3.365174e+003, 7.309497e-002
3.367103e+003, 7.112394e-002
3.369031e+003, 6.856109e-002
3.370960e+003, 6.608927e-002
3.372888e+003, 6.337613e-002
3.374817e+003, 6.078236e-002
3.376745e+003, 5.868270e-002
3.378674e+003, 5.668319e-002
3.380602e+003, 5.455722e-002
3.382531e+003, 5.213105e-002
3.384459e+003, 5.024068e-002
3.386387e+003, 4.839503e-002
3.388316e+003, 4.644432e-002
3.390244e+003, 4.435785e-002
3.392173e+003, 4.261848e-002
3.394101e+003, 4.152245e-002
3.396030e+003, 4.085479e-002
3.397958e+003, 3.910957e-002
3.399887e+003, 3.765287e-002
3.401815e+003, 3.672905e-002
3.403744e+003, 3.510934e-002
3.405672e+003, 3.382818e-002
3.407601e+003, 3.278333e-002
3.409529e+003, 3.152094e-002
3.411458e+003, 3.087717e-002
3.413386e+003, 3.021656e-002
3.415314e+003, 2.940889e-002
3.417243e+003, 2.845797e-002
3.419171e+003, 2.812104e-002
3.421100e+003, 2.719234e-002
3.423028e+003, 2.582965e-002
3.424957e+003, 2.509360e-002
3.426885e+003, 2.438339e-002
3.428814e+003, 2.379001e-002
3.430742e+003, 2.424584e-002
3.432671e+003, 2.357374e-002
3.434599e+003, 2.260769e-002
3.436528e+003, 2.212903e-002
3.438456e+003, 2.226402e-002
3.440385e+003, 2.177189e-002
3.442313e+003, 2.126107e-002
3.444241e+003, 2.123838e-002
3.446170e+003, 2.089440e-002
3.448098e+003, 2.078074e-002
3.450027e+003, 2.095186e-002
3.451955e+003, 2.044891e-002
3.453884e+003, 1.958724e-002
3.455812e+003, 1.937813e-002
3.457741e+003, 1.928136e-002
3.459669e+003, 1.892477e-002
3.461598e+003, 1.787036e-002
3.463526e+003, 1.754949e-002
3.465455e+003, 1.740941e-002
3.467383e+003, 1.811591e-002
3.469312e+003, 1.859586e-002
3.471240e+003, 1.798684e-002
3.473168e+003, 1.819692e-002
3.475097e+003, 1.778241e-002
3.477025e+003, 1.778190e-002
3.478954e+003, 1.765577e-002
3.480882e+003, 1.764210e-002
3.482811e+003, 1.871051e-002
3.484739e+003, 1.888618e-002
3.486668e+003, 1.843826e-002
3.488596e+003, 1.766038e-002
3.490525e+003, 1.741228e-002
3.492453e+003, 1.765064e-002
3.494382e+003, 1.738736e-002
3.496310e+003, 1.707498e-002
3.498239e+003, 1.673687e-002
3.500167e+003, 1.709158e-002
3.502095e+003, 1.665091e-002
3.504024e+003, 1.531749e-002
3.505952e+003, 1.461487e-002
3.507881e+003, 1.412367e-002
3.509809e+003, 1.338580e-002
3.511738e+003, 1.282969e-002
3.513666e+003, 1.251144e-002
3.515595e+003, 1.213079e-002
3.517523e+003, 1.153877e-002
3.519452e+003, 1.188177e-002
3.521380e+003, 1.116528e-002
3.523309e+003, 9.087939e-003
3.525237e+003, 8.024142e-003
3.527166e+003, 8.046861e-003
3.529094e+003, 7.088130e-003
3.531022e+003, 6.046025e-003
3.532951e+003, 5.273282e-003
3.534879e+003, 3.533034e-003
3.536808e+003, 2.769908e-003
3.538736e+003, 2.441497e-003
3.540665e+003, 1.522701e-003
3.542593e+003, 1.415437e-003
3.544522e+003, 1.063708e-003
3.546450e+003, 5.722756e-005
3.548379e+003, -9.656699e-004
3.550307e+003, -1.475038e-003
3.552236e+003, -2.250663e-003
3.554164e+003, -2.973614e-003
3.556093e+003, -3.741795e-003
3.558021e+003, -4.651949e-003
3.559949e+003, -4.147174e-003
3.561878e+003, -3.791091e-003
3.563806e+003, -4.229863e-003
3.565735e+003, -4.994055e-003
3.567663e+003, -5.362812e-003
3.569592e+003, -6.003001e-003
3.571520e+003, -6.621699e-003
3.573449e+003, -6.346302e-003
3.575377e+003, -6.944131e-003
3.577306e+003, -8.378931e-003
3.579234e+003, -9.368074e-003
3.581163e+003, -9.209169e-003
3.583091e+003, -8.444320e-003
3.585020e+003, -8.356473e-003
3.586948e+003, -8.761072e-003
3.588876e+003, -9.724235e-003
3.590805e+003, -1.027101e-002
3.592733e+003, -1.000959e-002
3.594662e+003, -9.473567e-003
3.596590e+003, -9.181552e-003
3.598519e+003, -9.313065e-003
3.600447e+003, -1.002907e-002
3.602376e+003, -1.058464e-002
3.604304e+003, -1.049244e-002
3.606233e+003, -1.075381e-002
3.608161e+003, -9.934852e-003
3.610090e+003, -1.016503e-002
3.612018e+003, -1.104775e-002
3.613947e+003, -1.116042e-002
3.615875e+003, -1.118482e-002
3.617803e+003, -1.116757e-002
3.619732e+003, -1.137691e-002
3.621660e+003, -1.162861e-002
3.623589e+003, -1.191974e-002
3.625517e+003, -1.271751e-002
3.627446e+003, -1.305271e-002
3.629374e+003, -1.348166e-002
3.631303e+003, -1.393743e-002
3.633231e+003, -1.338295e-002
3.635160e+003, -1.413990e-002
3.637088e+003, -1.537175e-002
3.639017e+003, -1.545561e-002
3.640945e+003, -1.514587e-002
3.642874e+003, -1.495829e-002
3.644802e+003, -1.573058e-002
3.646730e+003, -1.618688e-002
3.648659e+003, -1.544831e-002
3.650587e+003, -1.585567e-002
3.652516e+003, -1.732564e-002
3.654444e+003, -1.790120e-002
3.656373e+003, -1.760575e-002
3.658301e+003, -1.782625e-002
3.660230e+003, -1.827295e-002
3.662158e+003, -1.783868e-002
3.664087e+003, -1.762824e-002
3.666015e+003, -1.852036e-002
3.667944e+003, -1.914901e-002
3.669872e+003, -1.853877e-002
3.671801e+003, -1.875425e-002
3.673729e+003, -1.780669e-002
3.675657e+003, -1.688285e-002
3.677586e+003, -1.756665e-002
3.679514e+003, -1.811839e-002
3.681443e+003, -1.891127e-002
3.683371e+003, -1.916805e-002
3.685300e+003, -1.838797e-002
3.687228e+003, -1.748896e-002
3.689157e+003, -1.840322e-002
3.691085e+003, -1.894751e-002
3.693014e+003, -1.863813e-002
3.694942e+003, -1.848521e-002
3.696871e+003, -1.833405e-002
3.698799e+003, -1.883353e-002
3.700728e+003, -1.867403e-002
3.702656e+003, -1.888360e-002
3.704584e+003, -1.937413e-002
3.706513e+003, -1.929503e-002
3.708441e+003, -1.854497e-002
3.710370e+003, -1.806161e-002
3.712298e+003, -1.726547e-002
3.714227e+003, -1.652765e-002
3.716155e+003, -1.688025e-002
3.718084e+003, -1.787511e-002
3.720012e+003, -1.841433e-002
3.721941e+003, -1.917415e-002
3.723869e+003, -1.842391e-002
3.725798e+003, -1.708860e-002
3.727726e+003, -1.727905e-002
3.729655e+003, -1.804941e-002
3.731583e+003, -1.782470e-002
3.733511e+003, -1.746668e-002
3.735440e+003, -1.693968e-002
3.737368e+003, -1.721838e-002
3.739297e+003, -1.817191e-002
3.741225e+003, -1.890302e-002
3.743154e+003, -1.837805e-002
3.745082e+003, -1.792048e-002
3.747011e+003, -1.767526e-002
3.748939e+003, -1.686333e-002
3.750868e+003, -1.720593e-002
3.752796e+003, -1.842883e-002
3.754725e+003, -1.875244e-002
3.756653e+003, -1.753025e-002
3.758582e+003, -1.739965e-002
3.760510e+003, -1.835682e-002
3.762438e+003, -1.809711e-002
3.764367e+003, -1.754366e-002
3.766295e+003, -1.770215e-002
3.768224e+003, -1.749592e-002
3.770152e+003, -1.765009e-002
3.772081e+003, -1.806784e-002
3.774009e+003, -1.785654e-002
3.775938e+003, -1.801132e-002
3.777866e+003, -1.932693e-002
3.779795e+003, -1.979877e-002
3.781723e+003, -1.967999e-002
3.783652e+003, -1.906459e-002
3.785580e+003, -1.863323e-002
3.787509e+003, -1.923114e-002
3.789437e+003, -2.045219e-002
3.791365e+003, -2.012112e-002
3.793294e+003, -1.923989e-002
3.795222e+003, -1.841012e-002
3.797151e+003, -1.870797e-002
3.799079e+003, -1.817188e-002
3.801008e+003, -1.726855e-002
3.802936e+003, -1.839084e-002
3.804865e+003, -1.820192e-002
3.806793e+003, -1.790872e-002
3.808722e+003, -1.908700e-002
3.810650e+003, -1.858547e-002
3.812579e+003, -1.751138e-002
3.814507e+003, -1.769306e-002
3.816436e+003, -1.894364e-002
3.818364e+003, -1.962901e-002
3.820292e+003, -1.842182e-002
3.822221e+003, -1.865493e-002
3.824149e+003, -1.895900e-002
3.826078e+003, -1.812974e-002
3.828006e+003, -1.868931e-002
3.829935e+003, -1.931987e-002
3.831863e+003, -1.915979e-002
3.833792e+003, -1.935804e-002
3.835720e+003, -1.937267e-002
3.837649e+003, -1.814218e-002
3.839577e+003, -1.694956e-002
3.841506e+003, -1.640107e-002
3.843434e+003, -1.746193e-002
3.845363e+003, -1.953509e-002
3.847291e+003, -1.973563e-002
3.849219e+003, -1.969271e-002
3.851148e+003, -1.835935e-002
3.853076e+003, -1.743019e-002
3.855005e+003, -1.920883e-002
3.856933e+003, -1.936852e-002
3.858862e+003, -1.842458e-002
3.860790e+003, -1.784496e-002
3.862719e+003, -1.867539e-002
3.864647e+003, -1.992198e-002
3.866576e+003, -1.994635e-002
3.868504e+003, -1.860728e-002
3.870433e+003, -1.825365e-002
3.872361e+003, -1.933451e-002
3.874290e+003, -1.981526e-002
3.876218e+003, -1.958724e-002
3.878146e+003, -1.998395e-002
3.880075e+003, -2.021709e-002
3.882003e+003, -2.017083e-002
3.883932e+003, -1.924623e-002
3.885860e+003, -1.852942e-002
3.887789e+003, -1.852026e-002
3.889717e+003, -1.934039e-002
3.891646e+003, -1.991002e-002
3.893574e+003, -2.005108e-002
3.895503e+003, -2.022950e-002
3.897431e+003, -1.980956e-002
3.899360e+003, -1.875799e-002
3.901288e+003, -1.896937e-002
3.903217e+003, -1.926801e-002
3.905145e+003, -1.956445e-002
3.907073e+003, -1.896268e-002
3.909002e+003, -1.944511e-002
3.910930e+003, -1.976034e-002
3.912859e+003, -1.953479e-002
3.914787e+003, -1.955416e-002
3.916716e+003, -1.933183e-002
3.918644e+003, -1.865813e-002
3.920573e+003, -1.829620e-002
3.922501e+003, -1.851580e-002
3.924430e+003, -1.962148e-002
3.926358e+003, -1.992265e-002
3.928287e+003, -1.907632e-002
3.930215e+003, -1.918948e-002
3.932144e+003, -1.864547e-002
3.934072e+003, -1.786341e-002
3.936000e+003, -1.867357e-002
3.937929e+003, -1.946052e-002
3.939857e+003, -1.990547e-002
3.941786e+003, -1.987584e-002
3.943714e+003, -1.991126e-002
3.945643e+003, -2.051830e-002
3.947571e+003, -2.015814e-002
3.949500e+003, -2.071355e-002
3.951428e+003, -2.019970e-002
3.953357e+003, -1.922760e-002
3.955285e+003, -1.969400e-002
3.957214e+003, -2.022824e-002
3.959142e+003, -1.996517e-002
3.961071e+003, -1.940826e-002
3.962999e+003, -1.902777e-002
3.964927e+003, -1.953394e-002
3.966856e+003, -1.969262e-002
3.968784e+003, -1.969569e-002
3.970713e+003, -1.928742e-002
3.972641e+003, -1.961671e-002
3.974570e+003, -1.947805e-002
3.976498e+003, -1.913571e-002
3.978427e+003, -1.998045e-002
3.980355e+003, -2.080814e-002
3.982284e+003, -2.099135e-002
3.984212e+003, -2.156588e-002
3.986141e+003, -2.274846e-002
3.988069e+003, -2.193099e-002
3.989998e+003, -1.952098e-002
3.991926e+003, -1.931316e-002
3.993854e+003, -1.974043e-002
3.995783e+003, -2.008372e-002
3.997711e+003, -2.057571e-002
3.999640e+003, -1.994341e-002
##END=



