##NAMES=Titanite
##RRUFFID=R050472
##IDEAL CHEMISTRY=CaTi^4+^SiO_5_
##LOCALITY=Turner's Island, Lake Clear, Wadawaska, Ontario, Canada
##OWNER=RRUFF
##SOURCE=California Institute of Technology
##DESCRIPTION=Brown flattened wedge-shaped crystal
##STATUS=The identification of this mineral has been confirmed by X-ray diffraction and chemical analysis
##URL=rruff.info/R050472
##MEASURED CHEMISTRY=(Ca_0.99_Na_0.01_)(Ti_0.81_Al_0.09_Fe^3+^_0.07_Nb_0.03_)Si_1.00_O_4_(O_0.80_F_0.20_)
3.741225e+002, 2.025338e-001
3.760510e+002, 1.949727e-001
3.779795e+002, 1.961794e-001
3.799079e+002, 1.857148e-001
3.818364e+002, 1.758669e-001
3.837649e+002, 1.809014e-001
3.856933e+002, 1.889463e-001
3.876218e+002, 1.848466e-001
3.895503e+002, 1.818154e-001
3.914787e+002, 1.826595e-001
3.934072e+002, 1.831390e-001
3.953357e+002, 1.827102e-001
3.972641e+002, 1.845165e-001
3.991926e+002, 1.859906e-001
4.011211e+002, 1.903908e-001
4.030495e+002, 1.857850e-001
4.049780e+002, 1.851339e-001
4.069065e+002, 1.915177e-001
4.088349e+002, 1.962564e-001
4.107634e+002, 1.963509e-001
4.126919e+002, 1.952579e-001
4.146203e+002, 1.958780e-001
4.165488e+002, 1.973089e-001
4.184773e+002, 1.974785e-001
4.204057e+002, 1.986746e-001
4.223342e+002, 1.981833e-001
4.242627e+002, 1.952653e-001
4.261911e+002, 1.923126e-001
4.281196e+002, 1.904882e-001
4.300481e+002, 1.881689e-001
4.319765e+002, 1.841453e-001
4.339050e+002, 1.827639e-001
4.358335e+002, 1.821836e-001
4.377619e+002, 1.800419e-001
4.396904e+002, 1.772964e-001
4.416189e+002, 1.740195e-001
4.435473e+002, 1.700216e-001
4.454758e+002, 1.674078e-001
4.474043e+002, 1.664447e-001
4.493327e+002, 1.652428e-001
4.512612e+002, 1.639499e-001
4.531897e+002, 1.607780e-001
4.551181e+002, 1.580111e-001
4.570466e+002, 1.569326e-001
4.589751e+002, 1.556199e-001
4.609035e+002, 1.536613e-001
4.628320e+002, 1.523038e-001
4.647605e+002, 1.510538e-001
4.666889e+002, 1.493421e-001
4.686174e+002, 1.470095e-001
4.705459e+002, 1.455964e-001
4.724743e+002, 1.445633e-001
4.744028e+002, 1.414693e-001
4.763313e+002, 1.380336e-001
4.782597e+002, 1.359431e-001
4.801882e+002, 1.336360e-001
4.821167e+002, 1.309889e-001
4.840451e+002, 1.292064e-001
4.859736e+002, 1.280702e-001
4.879021e+002, 1.268262e-001
4.898305e+002, 1.256923e-001
4.917590e+002, 1.245264e-001
4.936875e+002, 1.238322e-001
4.956159e+002, 1.222760e-001
4.975444e+002, 1.200940e-001
4.994729e+002, 1.175288e-001
5.014013e+002, 1.151579e-001
5.033298e+002, 1.122468e-001
5.052583e+002, 1.090580e-001
5.071867e+002, 1.058938e-001
5.091152e+002, 1.021691e-001
5.110437e+002, 9.863539e-002
5.129721e+002, 9.585234e-002
5.149006e+002, 9.334917e-002
5.168290e+002, 9.143069e-002
5.187575e+002, 9.010347e-002
5.206860e+002, 8.893912e-002
5.226144e+002, 8.801255e-002
5.245429e+002, 8.773627e-002
5.264714e+002, 8.808956e-002
5.283998e+002, 8.858372e-002
5.303283e+002, 8.942679e-002
5.322568e+002, 9.073422e-002
5.341852e+002, 9.209892e-002
5.361137e+002, 9.369032e-002
5.380422e+002, 9.544050e-002
5.399706e+002, 9.733834e-002
5.418991e+002, 9.979920e-002
5.438276e+002, 1.026338e-001
5.457560e+002, 1.051367e-001
5.476845e+002, 1.080147e-001
5.496130e+002, 1.115979e-001
5.515414e+002, 1.146603e-001
5.534699e+002, 1.172275e-001
5.553984e+002, 1.196063e-001
5.573268e+002, 1.217556e-001
5.592553e+002, 1.233163e-001
5.611838e+002, 1.240356e-001
5.631122e+002, 1.236218e-001
5.650407e+002, 1.219415e-001
5.669692e+002, 1.197559e-001
5.688976e+002, 1.173909e-001
5.708261e+002, 1.147637e-001
5.727546e+002, 1.117562e-001
5.746830e+002, 1.088666e-001
5.766115e+002, 1.065762e-001
5.785400e+002, 1.046415e-001
5.804684e+002, 1.028747e-001
5.823969e+002, 1.012368e-001
5.843254e+002, 9.946730e-002
5.862538e+002, 9.821689e-002
5.881823e+002, 9.725948e-002
5.901108e+002, 9.619740e-002
5.920392e+002, 9.545611e-002
5.939677e+002, 9.481221e-002
5.958962e+002, 9.424116e-002
5.978246e+002, 9.388687e-002
5.997531e+002, 9.400571e-002
6.016816e+002, 9.431188e-002
6.036100e+002, 9.491875e-002
6.055385e+002, 9.567245e-002
6.074670e+002, 9.629003e-002
6.093954e+002, 9.663870e-002
6.113239e+002, 9.725221e-002
6.132524e+002, 9.786256e-002
6.151808e+002, 9.818073e-002
6.171093e+002, 9.878328e-002
6.190378e+002, 9.933491e-002
6.209662e+002, 9.933092e-002
6.228947e+002, 9.940894e-002
6.248232e+002, 9.957965e-002
6.267516e+002, 9.982308e-002
6.286801e+002, 1.000451e-001
6.306086e+002, 1.005177e-001
6.325370e+002, 1.010421e-001
6.344655e+002, 1.016710e-001
6.363940e+002, 1.024199e-001
6.383224e+002, 1.030320e-001
6.402509e+002, 1.037645e-001
6.421794e+002, 1.046088e-001
6.441078e+002, 1.055335e-001
6.460363e+002, 1.062394e-001
6.479648e+002, 1.068185e-001
6.498932e+002, 1.075705e-001
6.518217e+002, 1.085812e-001
6.537502e+002, 1.094133e-001
6.556786e+002, 1.101265e-001
6.576071e+002, 1.108192e-001
6.595356e+002, 1.116941e-001
6.614641e+002, 1.126668e-001
6.633925e+002, 1.133016e-001
6.653210e+002, 1.141269e-001
6.672495e+002, 1.150046e-001
6.691779e+002, 1.155580e-001
6.711064e+002, 1.161274e-001
6.730349e+002, 1.170134e-001
6.749633e+002, 1.179843e-001
6.768918e+002, 1.188815e-001
6.788203e+002, 1.195066e-001
6.807487e+002, 1.204418e-001
6.826772e+002, 1.212331e-001
6.846057e+002, 1.218946e-001
6.865341e+002, 1.227483e-001
6.884626e+002, 1.234600e-001
6.903911e+002, 1.242489e-001
6.923195e+002, 1.251220e-001
6.942480e+002, 1.257794e-001
6.961765e+002, 1.264207e-001
6.981049e+002, 1.271243e-001
7.000334e+002, 1.276968e-001
7.019619e+002, 1.282005e-001
7.038903e+002, 1.288881e-001
7.058188e+002, 1.293742e-001
7.077473e+002, 1.299039e-001
7.096757e+002, 1.305790e-001
7.116042e+002, 1.313504e-001
7.135327e+002, 1.318612e-001
7.154611e+002, 1.321769e-001
7.173896e+002, 1.325506e-001
7.193181e+002, 1.329758e-001
7.212465e+002, 1.333025e-001
7.231750e+002, 1.338724e-001
7.251035e+002, 1.347027e-001
7.270319e+002, 1.353315e-001
7.289604e+002, 1.356500e-001
7.308889e+002, 1.361945e-001
7.328173e+002, 1.368210e-001
7.347458e+002, 1.377390e-001
7.366743e+002, 1.387201e-001
7.386027e+002, 1.392991e-001
7.405312e+002, 1.399599e-001
7.424597e+002, 1.409228e-001
7.443881e+002, 1.418294e-001
7.463166e+002, 1.426401e-001
7.482451e+002, 1.432185e-001
7.501735e+002, 1.439236e-001
7.521020e+002, 1.448438e-001
7.540305e+002, 1.456252e-001
7.559589e+002, 1.464731e-001
7.578874e+002, 1.474628e-001
7.598159e+002, 1.488021e-001
7.617443e+002, 1.500869e-001
7.636728e+002, 1.512452e-001
7.656013e+002, 1.525445e-001
7.675297e+002, 1.539179e-001
7.694582e+002, 1.555132e-001
7.713867e+002, 1.572126e-001
7.733151e+002, 1.589499e-001
7.752436e+002, 1.611202e-001
7.771721e+002, 1.634819e-001
7.791005e+002, 1.658940e-001
7.810290e+002, 1.686271e-001
7.829575e+002, 1.713111e-001
7.848859e+002, 1.738429e-001
7.868144e+002, 1.765754e-001
7.887429e+002, 1.794046e-001
7.906713e+002, 1.820139e-001
7.925998e+002, 1.842676e-001
7.945283e+002, 1.864257e-001
7.964567e+002, 1.887591e-001
7.983852e+002, 1.907301e-001
8.003137e+002, 1.926681e-001
8.022421e+002, 1.949627e-001
8.041706e+002, 1.978315e-001
8.060991e+002, 2.009903e-001
8.080275e+002, 2.043260e-001
8.099560e+002, 2.079897e-001
8.118845e+002, 2.117186e-001
8.138129e+002, 2.152330e-001
8.157414e+002, 2.186547e-001
8.176699e+002, 2.220266e-001
8.195983e+002, 2.254785e-001
8.215268e+002, 2.285852e-001
8.234553e+002, 2.315501e-001
8.253837e+002, 2.340276e-001
8.273122e+002, 2.362522e-001
8.292407e+002, 2.383968e-001
8.311691e+002, 2.402274e-001
8.330976e+002, 2.415470e-001
8.350261e+002, 2.427857e-001
8.369545e+002, 2.437838e-001
8.388830e+002, 2.445008e-001
8.408115e+002, 2.450745e-001
8.427399e+002, 2.455576e-001
8.446684e+002, 2.459489e-001
8.465969e+002, 2.460915e-001
8.485253e+002, 2.458858e-001
8.504538e+002, 2.457396e-001
8.523823e+002, 2.455039e-001
8.543107e+002, 2.450111e-001
8.562392e+002, 2.442330e-001
8.581677e+002, 2.434257e-001
8.600961e+002, 2.421508e-001
8.620246e+002, 2.405203e-001
8.639531e+002, 2.386619e-001
8.658815e+002, 2.367244e-001
8.678100e+002, 2.343818e-001
8.697385e+002, 2.316303e-001
8.716669e+002, 2.284916e-001
8.735954e+002, 2.253015e-001
8.755239e+002, 2.221816e-001
8.774523e+002, 2.193155e-001
8.793808e+002, 2.163980e-001
8.813093e+002, 2.136991e-001
8.832377e+002, 2.113328e-001
8.851662e+002, 2.095702e-001
8.870947e+002, 2.080923e-001
8.890231e+002, 2.066201e-001
8.909516e+002, 2.052047e-001
8.928801e+002, 2.036562e-001
8.948085e+002, 2.021020e-001
8.967370e+002, 2.004287e-001
8.986655e+002, 1.982510e-001
9.005939e+002, 1.962408e-001
9.025224e+002, 1.939850e-001
9.044509e+002, 1.916818e-001
9.063793e+002, 1.896345e-001
9.083078e+002, 1.875194e-001
9.102363e+002, 1.850195e-001
9.121647e+002, 1.825185e-001
9.140932e+002, 1.801506e-001
9.160217e+002, 1.776966e-001
9.179501e+002, 1.750230e-001
9.198786e+002, 1.723008e-001
9.218071e+002, 1.692357e-001
9.237355e+002, 1.658828e-001
9.256640e+002, 1.624043e-001
9.275925e+002, 1.588296e-001
9.295209e+002, 1.550456e-001
9.314494e+002, 1.511927e-001
9.333779e+002, 1.474937e-001
9.353063e+002, 1.438102e-001
9.372348e+002, 1.404632e-001
9.391633e+002, 1.375817e-001
9.410917e+002, 1.346160e-001
9.430202e+002, 1.315800e-001
9.449487e+002, 1.286485e-001
9.468771e+002, 1.256424e-001
9.488056e+002, 1.223233e-001
9.507341e+002, 1.188088e-001
9.526625e+002, 1.152042e-001
9.545910e+002, 1.119575e-001
9.565195e+002, 1.085960e-001
9.584479e+002, 1.049808e-001
9.603764e+002, 1.015304e-001
9.623049e+002, 9.830106e-002
9.642333e+002, 9.504625e-002
9.661618e+002, 9.176883e-002
9.680903e+002, 8.860303e-002
9.700187e+002, 8.532885e-002
9.719472e+002, 8.202475e-002
9.738757e+002, 7.886107e-002
9.758041e+002, 7.572196e-002
9.777326e+002, 7.264408e-002
9.796611e+002, 6.964113e-002
9.815895e+002, 6.669325e-002
9.835180e+002, 6.374088e-002
9.854465e+002, 6.057193e-002
9.873749e+002, 5.753475e-002
9.893034e+002, 5.477335e-002
9.912319e+002, 5.197836e-002
9.931603e+002, 4.932649e-002
9.950888e+002, 4.674768e-002
9.970173e+002, 4.434486e-002
9.989457e+002, 4.200690e-002
1.000874e+003, 3.979828e-002
1.002803e+003, 3.774632e-002
1.004731e+003, 3.601572e-002
1.006660e+003, 3.423522e-002
1.008588e+003, 3.244408e-002
1.010517e+003, 3.086543e-002
1.012445e+003, 2.949953e-002
1.014373e+003, 2.822800e-002
1.016302e+003, 2.708772e-002
1.018230e+003, 2.592859e-002
1.020159e+003, 2.493600e-002
1.022087e+003, 2.398101e-002
1.024016e+003, 2.294571e-002
1.025944e+003, 2.203761e-002
1.027873e+003, 2.114590e-002
1.029801e+003, 2.030552e-002
1.031730e+003, 1.951296e-002
1.033658e+003, 1.870527e-002
1.035587e+003, 1.809099e-002
1.037515e+003, 1.757771e-002
1.039443e+003, 1.702149e-002
1.041372e+003, 1.646532e-002
1.043300e+003, 1.606947e-002
1.045229e+003, 1.549135e-002
1.047157e+003, 1.482979e-002
1.049086e+003, 1.431018e-002
1.051014e+003, 1.378663e-002
1.052943e+003, 1.328677e-002
1.054871e+003, 1.295146e-002
1.056800e+003, 1.267683e-002
1.058728e+003, 1.225791e-002
1.060657e+003, 1.180965e-002
1.062585e+003, 1.141327e-002
1.064514e+003, 1.098973e-002
1.066442e+003, 1.079164e-002
1.068370e+003, 1.055176e-002
1.070299e+003, 1.023672e-002
1.072227e+003, 9.855397e-003
1.074156e+003, 9.611769e-003
1.076084e+003, 9.338059e-003
1.078013e+003, 9.142915e-003
1.079941e+003, 8.735627e-003
1.081870e+003, 8.391101e-003
1.083798e+003, 8.067615e-003
1.085727e+003, 7.731702e-003
1.087655e+003, 7.435262e-003
1.089584e+003, 7.072921e-003
1.091512e+003, 6.702342e-003
1.093441e+003, 6.390150e-003
1.095369e+003, 6.109093e-003
1.097297e+003, 5.878889e-003
1.099226e+003, 5.702860e-003
1.101154e+003, 5.522420e-003
1.103083e+003, 5.226735e-003
1.105011e+003, 5.057364e-003
1.106940e+003, 4.709453e-003
1.108868e+003, 4.367489e-003
1.110797e+003, 4.093025e-003
1.112725e+003, 3.986585e-003
1.114654e+003, 3.797903e-003
1.116582e+003, 3.457845e-003
1.118511e+003, 3.242597e-003
1.120439e+003, 2.997974e-003
1.122368e+003, 2.852066e-003
1.124296e+003, 2.757280e-003
1.126224e+003, 2.532089e-003
1.128153e+003, 2.383418e-003
1.130081e+003, 2.299708e-003
1.132010e+003, 2.135785e-003
1.133938e+003, 1.872105e-003
1.135867e+003, 1.547665e-003
1.137795e+003, 1.409676e-003
1.139724e+003, 1.314382e-003
1.141652e+003, 1.158837e-003
1.143581e+003, 1.053305e-003
1.145509e+003, 9.927228e-004
1.147438e+003, 8.668015e-004
1.149366e+003, 6.590737e-004
1.151295e+003, 5.874382e-004
1.153223e+003, 6.015277e-004
1.155151e+003, 5.817614e-004
1.157080e+003, 4.421701e-004
1.159008e+003, 3.719097e-004
1.160937e+003, 4.031849e-004
1.162865e+003, 4.902473e-004
1.164794e+003, 4.312596e-004
1.166722e+003, 2.683909e-004
1.168651e+003, 1.777271e-004
1.170579e+003, 1.912969e-004
1.172508e+003, 1.110937e-004
1.174436e+003, 2.534129e-006
1.176365e+003, -4.690327e-005
1.178293e+003, -1.389254e-005
1.180222e+003, -9.919936e-005
1.182150e+003, -3.088354e-004
1.184078e+003, -3.732424e-004
1.186007e+003, -4.477073e-004
1.187935e+003, -4.806509e-004
1.189864e+003, -4.012999e-004
1.191792e+003, -4.060278e-004
1.193721e+003, -4.755207e-004
1.195649e+003, -5.137897e-004
1.197578e+003, -4.430157e-004
1.199506e+003, -4.151845e-004
1.201435e+003, -4.267832e-004
1.203363e+003, -4.885737e-004
1.205292e+003, -5.569006e-004
1.207220e+003, -5.180254e-004
1.209149e+003, -4.024743e-004
1.211077e+003, -4.452392e-004
1.213005e+003, -4.922571e-004
1.214934e+003, -4.639318e-004
1.216862e+003, -5.168384e-004
1.218791e+003, -4.638080e-004
1.220719e+003, -3.862442e-004
1.222648e+003, -4.426804e-004
1.224576e+003, -4.172982e-004
1.226505e+003, -3.993614e-004
1.228433e+003, -4.159925e-004
1.230362e+003, -4.146220e-004
1.232290e+003, -3.272225e-004
1.234219e+003, -4.063002e-004
1.236147e+003, -4.978231e-004
1.238076e+003, -4.702103e-004
1.240004e+003, -3.870698e-004
1.241932e+003, -4.722364e-004
1.243861e+003, -5.248161e-004
1.245789e+003, -4.466688e-004
1.247718e+003, -4.827599e-004
1.249646e+003, -4.822984e-004
1.251575e+003, -4.333570e-004
1.253503e+003, -4.967735e-004
1.255432e+003, -4.743091e-004
1.257360e+003, -3.720666e-004
1.259289e+003, -4.004342e-004
1.261217e+003, -4.689428e-004
1.263146e+003, -5.044346e-004
1.265074e+003, -5.847663e-004
1.267003e+003, -6.102636e-004
1.268931e+003, -5.885642e-004
1.270859e+003, -5.183453e-004
1.272788e+003, -4.782886e-004
1.274716e+003, -4.177764e-004
1.276645e+003, -4.454479e-004
1.278573e+003, -4.918156e-004
1.280502e+003, -4.355842e-004
1.282430e+003, -4.040566e-004
1.284359e+003, -3.319397e-004
1.286287e+003, -2.457364e-004
1.288216e+003, -2.378402e-004
1.290144e+003, -2.308935e-004
1.292073e+003, -2.700412e-004
1.294001e+003, -2.029673e-004
1.295930e+003, -1.859306e-004
1.297858e+003, -1.255614e-004
1.299786e+003, -1.642108e-004
1.301715e+003, -2.251943e-004
1.303643e+003, -1.519751e-004
1.305572e+003, -6.712181e-005
1.307500e+003, -1.507583e-004
1.309429e+003, -1.220172e-004
1.311357e+003, -1.576715e-004
1.313286e+003, -1.291931e-004
1.315214e+003, -1.351302e-005
1.317143e+003, -1.075449e-004
1.319071e+003, -1.989147e-004
1.321000e+003, -1.378749e-004
1.322928e+003, -1.301621e-004
1.324857e+003, -1.023402e-004
1.326785e+003, -1.935028e-004
1.328714e+003, -1.697354e-004
1.330642e+003, -7.405272e-005
1.332570e+003, 3.683474e-005
1.334499e+003, 1.888163e-005
1.336427e+003, 1.146020e-004
1.338356e+003, 2.547107e-004
1.340284e+003, 2.261670e-004
1.342213e+003, 1.465422e-004
1.344141e+003, 2.215789e-004
1.346070e+003, 3.077770e-004
1.347998e+003, 2.603862e-004
1.349927e+003, 2.650740e-004
1.351855e+003, 2.778098e-004
1.353784e+003, 2.824124e-004
1.355712e+003, 1.770626e-004
1.357641e+003, 1.661004e-004
1.359569e+003, 2.563889e-004
1.361497e+003, 2.913764e-004
1.363426e+003, 4.044212e-004
1.365354e+003, 4.592710e-004
1.367283e+003, 5.720193e-004
1.369211e+003, 5.677333e-004
1.371140e+003, 5.394015e-004
1.373068e+003, 5.877865e-004
1.374997e+003, 6.544068e-004
1.376925e+003, 6.102277e-004
1.378854e+003, 7.168278e-004
1.380782e+003, 7.515140e-004
1.382711e+003, 7.286593e-004
1.384639e+003, 7.577883e-004
1.386568e+003, 1.022721e-003
1.388496e+003, 1.028519e-003
1.390424e+003, 9.237127e-004
1.392353e+003, 1.125018e-003
1.394281e+003, 1.470460e-003
1.396210e+003, 1.429216e-003
1.398138e+003, 1.367400e-003
1.400067e+003, 1.305043e-003
1.401995e+003, 1.218579e-003
1.403924e+003, 1.405729e-003
1.405852e+003, 1.492967e-003
1.407781e+003, 1.496741e-003
1.409709e+003, 1.653538e-003
1.411638e+003, 1.711327e-003
1.413566e+003, 1.680778e-003
1.415495e+003, 1.629717e-003
1.417423e+003, 1.966817e-003
1.419351e+003, 2.275467e-003
1.421280e+003, 1.987800e-003
1.423208e+003, 1.985432e-003
1.425137e+003, 2.035908e-003
1.427065e+003, 1.916349e-003
1.428994e+003, 2.016365e-003
1.430922e+003, 2.004035e-003
1.432851e+003, 1.958999e-003
1.434779e+003, 2.224009e-003
1.436708e+003, 2.494209e-003
1.438636e+003, 2.001241e-003
1.440565e+003, 1.844443e-003
1.442493e+003, 1.923119e-003
1.444422e+003, 2.023037e-003
1.446350e+003, 2.029114e-003
1.448278e+003, 1.999744e-003
1.450207e+003, 1.923675e-003
1.452135e+003, 2.014037e-003
1.454064e+003, 2.183202e-003
1.455992e+003, 2.837645e-003
1.457921e+003, 2.746402e-003
1.459849e+003, 1.976495e-003
1.461778e+003, 1.722293e-003
1.463706e+003, 1.934298e-003
1.465635e+003, 2.110361e-003
1.467563e+003, 1.978792e-003
1.469492e+003, 1.909132e-003
1.471420e+003, 2.201011e-003
1.473349e+003, 2.361471e-003
1.475277e+003, 2.291117e-003
1.477205e+003, 2.122013e-003
1.479134e+003, 1.940398e-003
1.481062e+003, 1.913556e-003
1.482991e+003, 1.814802e-003
1.484919e+003, 1.867460e-003
1.486848e+003, 2.128563e-003
1.488776e+003, 2.307865e-003
1.490705e+003, 2.189640e-003
1.492633e+003, 1.871855e-003
1.494562e+003, 2.052838e-003
1.496490e+003, 2.375663e-003
1.498419e+003, 2.259613e-003
1.500347e+003, 2.066423e-003
1.502276e+003, 2.064631e-003
1.504204e+003, 2.675766e-003
1.506132e+003, 3.402970e-003
1.508061e+003, 3.002338e-003
1.509989e+003, 2.217977e-003
1.511918e+003, 2.017197e-003
1.513846e+003, 2.028591e-003
1.515775e+003, 2.192068e-003
1.517703e+003, 2.283487e-003
1.519632e+003, 2.608442e-003
1.521560e+003, 3.003197e-003
1.523489e+003, 2.597789e-003
1.525417e+003, 2.369348e-003
1.527346e+003, 2.291657e-003
1.529274e+003, 2.286976e-003
1.531203e+003, 2.254140e-003
1.533131e+003, 2.492331e-003
1.535059e+003, 2.303608e-003
1.536988e+003, 2.521923e-003
1.538916e+003, 3.507079e-003
1.540845e+003, 3.697047e-003
1.542773e+003, 3.129987e-003
1.544702e+003, 2.772571e-003
1.546630e+003, 2.538015e-003
1.548559e+003, 2.509831e-003
1.550487e+003, 2.565720e-003
1.552416e+003, 2.691437e-003
1.554344e+003, 2.910533e-003
1.556273e+003, 3.324443e-003
1.558201e+003, 4.265634e-003
1.560130e+003, 3.999530e-003
1.562058e+003, 2.859726e-003
1.563986e+003, 2.684371e-003
1.565915e+003, 2.631333e-003
1.567843e+003, 2.715516e-003
1.569772e+003, 2.865288e-003
1.571700e+003, 2.605008e-003
1.573629e+003, 2.741986e-003
1.575557e+003, 3.406281e-003
1.577486e+003, 3.108513e-003
1.579414e+003, 2.586684e-003
1.581343e+003, 2.552822e-003
1.583271e+003, 2.450400e-003
1.585200e+003, 2.344692e-003
1.587128e+003, 2.178722e-003
1.589057e+003, 2.256658e-003
1.590985e+003, 2.499055e-003
1.592913e+003, 2.476199e-003
1.594842e+003, 2.373888e-003
1.596770e+003, 2.558085e-003
1.598699e+003, 2.668114e-003
1.600627e+003, 2.727669e-003
1.602556e+003, 2.775324e-003
1.604484e+003, 2.622587e-003
1.606413e+003, 2.545070e-003
1.608341e+003, 2.622981e-003
1.610270e+003, 2.686817e-003
1.612198e+003, 2.740549e-003
1.614127e+003, 2.840078e-003
1.616055e+003, 3.321210e-003
1.617984e+003, 3.079316e-003
1.619912e+003, 2.699072e-003
1.621840e+003, 3.086035e-003
1.623769e+003, 3.151995e-003
1.625697e+003, 2.941140e-003
1.627626e+003, 2.948446e-003
1.629554e+003, 2.888955e-003
1.631483e+003, 2.873677e-003
1.633411e+003, 3.166544e-003
1.635340e+003, 3.609086e-003
1.637268e+003, 3.304706e-003
1.639197e+003, 2.862325e-003
1.641125e+003, 2.755303e-003
1.643054e+003, 2.927622e-003
1.644982e+003, 3.562934e-003
1.646911e+003, 3.746599e-003
1.648839e+003, 3.297292e-003
1.650767e+003, 3.754578e-003
1.652696e+003, 4.902795e-003
1.654624e+003, 4.168072e-003
1.656553e+003, 3.196984e-003
1.658481e+003, 2.927696e-003
1.660410e+003, 2.828046e-003
1.662338e+003, 3.089701e-003
1.664267e+003, 3.133697e-003
1.666195e+003, 3.020289e-003
1.668124e+003, 3.240019e-003
1.670052e+003, 3.243585e-003
1.671981e+003, 2.963785e-003
1.673909e+003, 3.122899e-003
1.675838e+003, 3.286573e-003
1.677766e+003, 2.947761e-003
1.679694e+003, 2.977166e-003
1.681623e+003, 3.139732e-003
1.683551e+003, 3.983699e-003
1.685480e+003, 3.994359e-003
1.687408e+003, 3.306985e-003
1.689337e+003, 3.096346e-003
1.691265e+003, 3.087772e-003
1.693194e+003, 3.302497e-003
1.695122e+003, 4.105850e-003
1.697051e+003, 4.101750e-003
1.698979e+003, 4.294810e-003
1.700908e+003, 4.375658e-003
1.702836e+003, 3.451838e-003
1.704765e+003, 3.501251e-003
1.706693e+003, 3.458872e-003
1.708621e+003, 3.236822e-003
1.710550e+003, 3.103097e-003
1.712478e+003, 3.174219e-003
1.714407e+003, 3.469559e-003
1.716335e+003, 3.960735e-003
1.718264e+003, 3.835446e-003
1.720192e+003, 3.286866e-003
1.722121e+003, 3.046758e-003
1.724049e+003, 2.960400e-003
1.725978e+003, 2.832726e-003
1.727906e+003, 2.898319e-003
1.729835e+003, 2.948323e-003
1.731763e+003, 3.230310e-003
1.733692e+003, 3.854114e-003
1.735620e+003, 3.456996e-003
1.737548e+003, 2.961989e-003
1.739477e+003, 3.005929e-003
1.741405e+003, 2.724776e-003
1.743334e+003, 2.712298e-003
1.745262e+003, 2.698000e-003
1.747191e+003, 2.709080e-003
1.749119e+003, 3.044677e-003
1.751048e+003, 3.398097e-003
1.752976e+003, 3.103552e-003
1.754905e+003, 2.641945e-003
1.756833e+003, 2.660974e-003
1.758762e+003, 2.686564e-003
1.760690e+003, 2.882225e-003
1.762619e+003, 3.116366e-003
1.764547e+003, 2.873912e-003
1.766475e+003, 2.891531e-003
1.768404e+003, 2.823281e-003
1.770332e+003, 2.677148e-003
1.772261e+003, 2.807442e-003
1.774189e+003, 2.471968e-003
1.776118e+003, 2.153077e-003
1.778046e+003, 2.245356e-003
1.779975e+003, 2.651904e-003
1.781903e+003, 2.744067e-003
1.783832e+003, 2.740186e-003
1.785760e+003, 2.623043e-003
1.787689e+003, 2.200604e-003
1.789617e+003, 2.413607e-003
1.791546e+003, 2.922818e-003
1.793474e+003, 2.681993e-003
1.795402e+003, 2.353863e-003
1.797331e+003, 2.242873e-003
1.799259e+003, 2.273161e-003
1.801188e+003, 2.447280e-003
1.803116e+003, 2.497893e-003
1.805045e+003, 2.494968e-003
1.806973e+003, 2.472842e-003
1.808902e+003, 2.506182e-003
1.810830e+003, 2.353668e-003
1.812759e+003, 2.028520e-003
1.814687e+003, 1.835115e-003
1.816616e+003, 1.894699e-003
1.818544e+003, 2.074605e-003
1.820473e+003, 2.110152e-003
1.822401e+003, 2.119958e-003
1.824329e+003, 2.251999e-003
1.826258e+003, 2.307648e-003
1.828186e+003, 2.542505e-003
1.830115e+003, 2.345587e-003
1.832043e+003, 2.029193e-003
1.833972e+003, 2.139836e-003
1.835900e+003, 2.002656e-003
1.837829e+003, 1.868798e-003
1.839757e+003, 1.969385e-003
1.841686e+003, 2.062902e-003
1.843614e+003, 2.330816e-003
1.845543e+003, 2.181730e-003
1.847471e+003, 1.939841e-003
1.849400e+003, 1.819323e-003
1.851328e+003, 1.799990e-003
1.853256e+003, 1.769271e-003
1.855185e+003, 1.638773e-003
1.857113e+003, 1.668508e-003
1.859042e+003, 1.637347e-003
1.860970e+003, 1.799117e-003
1.862899e+003, 1.822181e-003
1.864827e+003, 1.861686e-003
1.866756e+003, 1.930689e-003
1.868684e+003, 2.040474e-003
1.870613e+003, 1.726590e-003
1.872541e+003, 1.348615e-003
1.874470e+003, 1.526100e-003
1.876398e+003, 1.496524e-003
1.878327e+003, 1.322030e-003
1.880255e+003, 1.338362e-003
1.882183e+003, 1.306687e-003
1.884112e+003, 1.189407e-003
1.886040e+003, 9.497721e-004
1.887969e+003, 1.222106e-003
1.889897e+003, 1.494057e-003
1.891826e+003, 1.625289e-003
1.893754e+003, 1.651385e-003
1.895683e+003, 1.148683e-003
1.897611e+003, 9.773970e-004
1.899540e+003, 1.098086e-003
1.901468e+003, 1.011158e-003
1.903397e+003, 1.149940e-003
1.905325e+003, 1.366843e-003
1.907254e+003, 1.497633e-003
1.909182e+003, 1.174374e-003
1.911110e+003, 7.190704e-004
1.913039e+003, 7.174499e-004
1.914967e+003, 1.010286e-003
1.916896e+003, 1.271639e-003
1.918824e+003, 1.313351e-003
1.920753e+003, 1.305990e-003
1.922681e+003, 1.139697e-003
1.924610e+003, 7.585958e-004
1.926538e+003, 8.662678e-004
1.928467e+003, 6.656311e-004
1.930395e+003, 3.883447e-004
1.932324e+003, 3.386363e-004
1.934252e+003, 3.276244e-004
1.936181e+003, 8.046646e-004
1.938109e+003, 1.056248e-003
1.940037e+003, 1.266543e-004
1.941966e+003, -2.851561e-004
1.943894e+003, -2.468321e-004
1.945823e+003, -5.150773e-005
1.947751e+003, 7.350519e-004
1.949680e+003, 1.340661e-003
1.951608e+003, 9.684730e-004
1.953537e+003, 3.201589e-004
1.955465e+003, -7.203836e-004
1.957394e+003, -3.700368e-004
1.959322e+003, 4.128385e-004
1.961251e+003, 8.089095e-004
1.963179e+003, 1.268361e-003
1.965108e+003, 8.060057e-004
1.967036e+003, 4.566088e-004
1.968964e+003, -3.201887e-006
1.970893e+003, 1.522787e-004
1.972821e+003, 1.427865e-003
1.974750e+003, 1.146469e-003
1.976678e+003, 6.455928e-005
1.978607e+003, 1.630699e-003
1.980535e+003, 3.190503e-003
1.982464e+003, 3.175160e-003
1.984392e+003, 3.141163e-003
1.986321e+003, 2.940925e-003
1.988249e+003, 2.961462e-003
1.990178e+003, 2.730716e-003
1.992106e+003, 2.781780e-003
1.994035e+003, 2.812140e-003
1.995963e+003, 3.302397e-003
1.997891e+003, 3.268240e-003
1.999820e+003, 2.666101e-003
2.001748e+003, 2.022758e-003
2.003677e+003, 2.180448e-003
2.005605e+003, 2.685662e-003
2.007534e+003, 3.540942e-003
2.009462e+003, 3.657790e-003
2.011391e+003, 2.479240e-003
2.013319e+003, 1.556421e-003
2.015248e+003, 2.381153e-003
2.017176e+003, 2.895946e-003
2.019105e+003, 2.385439e-003
2.021033e+003, 3.268233e-003
2.022962e+003, 3.561804e-003
2.024890e+003, 3.592419e-003
2.026818e+003, 3.628150e-003
2.028747e+003, 4.093422e-003
2.030675e+003, 4.292866e-003
2.032604e+003, 3.199907e-003
2.034532e+003, 1.702558e-003
2.036461e+003, 2.964064e-003
2.038389e+003, 4.848162e-003
2.040318e+003, 4.230427e-003
2.042246e+003, 3.170013e-003
2.044175e+003, 3.195433e-003
2.046103e+003, 3.720811e-003
2.048031e+003, 4.639920e-003
2.049960e+003, 4.822660e-003
2.051888e+003, 4.219342e-003
2.053817e+003, 3.773032e-003
2.055745e+003, 3.783321e-003
2.057674e+003, 4.096830e-003
2.059602e+003, 4.292086e-003
2.061531e+003, 4.061941e-003
2.063459e+003, 3.782328e-003
2.065388e+003, 4.015254e-003
2.067316e+003, 3.777977e-003
2.069245e+003, 3.989030e-003
2.071173e+003, 4.956873e-003
2.073102e+003, 5.310299e-003
2.075030e+003, 4.793014e-003
2.076958e+003, 4.037274e-003
2.078887e+003, 4.691763e-003
2.080815e+003, 5.714178e-003
2.082744e+003, 5.501926e-003
2.084672e+003, 4.702242e-003
2.086601e+003, 4.699614e-003
2.088529e+003, 5.025998e-003
2.090458e+003, 5.161244e-003
2.092386e+003, 5.193101e-003
2.094315e+003, 4.844543e-003
2.096243e+003, 5.013676e-003
2.098172e+003, 5.326131e-003
2.100100e+003, 5.356882e-003
2.102029e+003, 5.491039e-003
2.103957e+003, 5.784078e-003
2.105885e+003, 6.167257e-003
2.107814e+003, 6.041152e-003
2.109742e+003, 5.462095e-003
2.111671e+003, 5.271478e-003
2.113599e+003, 5.763207e-003
2.115528e+003, 6.080478e-003
2.117456e+003, 5.732389e-003
2.119385e+003, 4.955577e-003
2.121313e+003, 4.471600e-003
2.123242e+003, 4.208330e-003
2.125170e+003, 4.447751e-003
2.127099e+003, 4.271286e-003
2.129027e+003, 3.753651e-003
2.130956e+003, 3.528932e-003
2.132884e+003, 3.550151e-003
2.134813e+003, 4.269425e-003
2.136741e+003, 4.851488e-003
2.138669e+003, 4.421912e-003
2.140598e+003, 4.121769e-003
2.142526e+003, 4.100302e-003
2.144455e+003, 3.793912e-003
2.146383e+003, 4.426721e-003
2.148312e+003, 5.312489e-003
2.150240e+003, 5.109625e-003
2.152169e+003, 4.713560e-003
2.154097e+003, 4.105479e-003
2.156026e+003, 4.374648e-003
2.157954e+003, 5.800838e-003
2.159883e+003, 7.377870e-003
2.161811e+003, 6.813874e-003
2.163740e+003, 6.003601e-003
2.165668e+003, 6.660137e-003
2.167596e+003, 7.273501e-003
2.169525e+003, 6.204296e-003
2.171453e+003, 5.353691e-003
2.173382e+003, 5.300693e-003
2.175310e+003, 5.446834e-003
2.177239e+003, 5.747769e-003
2.179167e+003, 5.743509e-003
2.181096e+003, 5.954966e-003
2.183024e+003, 6.107531e-003
2.184953e+003, 6.205548e-003
2.186881e+003, 6.196285e-003
2.188810e+003, 6.657014e-003
2.190738e+003, 6.349454e-003
2.192667e+003, 6.277770e-003
2.194595e+003, 6.620830e-003
2.196523e+003, 6.745372e-003
2.198452e+003, 6.524524e-003
2.200380e+003, 6.997082e-003
2.202309e+003, 6.944036e-003
2.204237e+003, 6.762562e-003
2.206166e+003, 6.651247e-003
2.208094e+003, 6.424131e-003
2.210023e+003, 6.724905e-003
2.211951e+003, 7.213145e-003
2.213880e+003, 6.775275e-003
2.215808e+003, 6.058494e-003
2.217737e+003, 6.015755e-003
2.219665e+003, 6.405495e-003
2.221594e+003, 6.420167e-003
2.223522e+003, 7.307919e-003
2.225450e+003, 7.657284e-003
2.227379e+003, 7.609060e-003
2.229307e+003, 7.676115e-003
2.231236e+003, 7.775590e-003
2.233164e+003, 7.790187e-003
2.235093e+003, 7.488528e-003
2.237021e+003, 6.874846e-003
2.238950e+003, 6.634144e-003
2.240878e+003, 6.697888e-003
2.242807e+003, 6.832663e-003
2.244735e+003, 6.787477e-003
2.246664e+003, 7.117618e-003
2.248592e+003, 7.674580e-003
2.250521e+003, 8.027826e-003
2.252449e+003, 7.577367e-003
2.254377e+003, 7.064551e-003
2.256306e+003, 6.625896e-003
2.258234e+003, 6.492307e-003
2.260163e+003, 6.640872e-003
2.262091e+003, 7.088445e-003
2.264020e+003, 7.345920e-003
2.265948e+003, 7.199567e-003
2.267877e+003, 6.867114e-003
2.269805e+003, 7.109366e-003
2.271734e+003, 7.520698e-003
2.273662e+003, 7.536888e-003
2.275591e+003, 7.757287e-003
2.277519e+003, 8.009776e-003
2.279448e+003, 7.634345e-003
2.281376e+003, 7.444333e-003
2.283304e+003, 7.657424e-003
2.285233e+003, 7.713787e-003
2.287161e+003, 7.808156e-003
2.289090e+003, 7.804664e-003
2.291018e+003, 7.936699e-003
2.292947e+003, 7.500144e-003
2.294875e+003, 7.299732e-003
2.296804e+003, 7.239040e-003
2.298732e+003, 7.168896e-003
2.300661e+003, 7.171057e-003
2.302589e+003, 7.366460e-003
2.304518e+003, 7.700752e-003
2.306446e+003, 7.492004e-003
2.308375e+003, 7.461004e-003
2.310303e+003, 7.695600e-003
2.312231e+003, 7.723512e-003
2.314160e+003, 7.620094e-003
2.316088e+003, 7.605245e-003
2.318017e+003, 7.860322e-003
2.319945e+003, 8.515799e-003
2.321874e+003, 9.272447e-003
2.323802e+003, 9.261224e-003
2.325731e+003, 8.357964e-003
2.327659e+003, 8.057419e-003
2.329588e+003, 8.309839e-003
2.331516e+003, 8.385805e-003
2.333445e+003, 8.340459e-003
2.335373e+003, 8.392384e-003
2.337302e+003, 8.263033e-003
2.339230e+003, 8.078681e-003
2.341158e+003, 8.174304e-003
2.343087e+003, 8.162484e-003
2.345015e+003, 7.828783e-003
2.346944e+003, 7.495591e-003
2.348872e+003, 7.343683e-003
2.350801e+003, 7.828748e-003
2.352729e+003, 8.194981e-003
2.354658e+003, 8.398747e-003
2.356586e+003, 8.373402e-003
2.358515e+003, 8.379538e-003
2.360443e+003, 8.475209e-003
2.362372e+003, 8.486748e-003
2.364300e+003, 8.284925e-003
2.366229e+003, 8.195886e-003
2.368157e+003, 8.194584e-003
2.370085e+003, 7.902037e-003
2.372014e+003, 7.648671e-003
2.373942e+003, 7.455403e-003
2.375871e+003, 7.205717e-003
2.377799e+003, 7.124819e-003
2.379728e+003, 7.095043e-003
2.381656e+003, 7.145043e-003
2.383585e+003, 7.013278e-003
2.385513e+003, 6.974636e-003
2.387442e+003, 7.073503e-003
2.389370e+003, 7.162061e-003
2.391299e+003, 6.940961e-003
2.393227e+003, 6.679935e-003
2.395156e+003, 6.874979e-003
2.397084e+003, 7.111773e-003
2.399012e+003, 7.126080e-003
2.400941e+003, 7.267347e-003
2.402869e+003, 6.890364e-003
2.404798e+003, 6.427592e-003
2.406726e+003, 7.012876e-003
2.408655e+003, 7.367006e-003
2.410583e+003, 7.380333e-003
2.412512e+003, 7.277237e-003
2.414440e+003, 7.173533e-003
2.416369e+003, 7.298373e-003
2.418297e+003, 7.206425e-003
2.420226e+003, 7.316502e-003
2.422154e+003, 7.373571e-003
2.424083e+003, 7.151548e-003
2.426011e+003, 7.213324e-003
2.427939e+003, 7.458869e-003
2.429868e+003, 7.512541e-003
2.431796e+003, 6.940858e-003
2.433725e+003, 6.797219e-003
2.435653e+003, 7.298948e-003
2.437582e+003, 7.861558e-003
2.439510e+003, 8.084785e-003
2.441439e+003, 8.211777e-003
2.443367e+003, 7.703437e-003
2.445296e+003, 7.712264e-003
2.447224e+003, 8.112779e-003
2.449153e+003, 8.098116e-003
2.451081e+003, 8.200793e-003
2.453010e+003, 7.937729e-003
2.454938e+003, 7.652696e-003
2.456866e+003, 7.731061e-003
2.458795e+003, 7.802993e-003
2.460723e+003, 7.625826e-003
2.462652e+003, 7.691214e-003
2.464580e+003, 8.004541e-003
2.466509e+003, 8.169340e-003
2.468437e+003, 7.731235e-003
2.470366e+003, 7.350130e-003
2.472294e+003, 7.483043e-003
2.474223e+003, 7.614398e-003
2.476151e+003, 7.543085e-003
2.478080e+003, 7.561866e-003
2.480008e+003, 7.694907e-003
2.481937e+003, 7.753585e-003
2.483865e+003, 8.031826e-003
2.485793e+003, 7.828789e-003
2.487722e+003, 7.357128e-003
2.489650e+003, 7.423544e-003
2.491579e+003, 8.022403e-003
2.493507e+003, 8.056775e-003
2.495436e+003, 7.349879e-003
2.497364e+003, 7.144291e-003
2.499293e+003, 7.105753e-003
2.501221e+003, 7.061003e-003
2.503150e+003, 7.289072e-003
2.505078e+003, 7.639308e-003
2.507007e+003, 7.569922e-003
2.508935e+003, 7.436514e-003
2.510864e+003, 7.433087e-003
2.512792e+003, 7.607818e-003
2.514720e+003, 7.811474e-003
2.516649e+003, 7.671818e-003
2.518577e+003, 7.592406e-003
2.520506e+003, 7.597322e-003
2.522434e+003, 7.263007e-003
2.524363e+003, 7.276243e-003
2.526291e+003, 7.611135e-003
2.528220e+003, 7.715657e-003
2.530148e+003, 7.437043e-003
2.532077e+003, 7.248754e-003
2.534005e+003, 7.437885e-003
2.535934e+003, 7.811489e-003
2.537862e+003, 7.882291e-003
2.539791e+003, 7.751640e-003
2.541719e+003, 8.152571e-003
2.543647e+003, 8.313389e-003
2.545576e+003, 7.995874e-003
2.547504e+003, 8.022591e-003
2.549433e+003, 8.542048e-003
2.551361e+003, 8.581722e-003
2.553290e+003, 8.473663e-003
2.555218e+003, 8.577473e-003
2.557147e+003, 8.346176e-003
2.559075e+003, 8.139616e-003
2.561004e+003, 7.978706e-003
2.562932e+003, 8.193079e-003
2.564861e+003, 8.180905e-003
2.566789e+003, 8.246617e-003
2.568718e+003, 8.426959e-003
2.570646e+003, 8.711351e-003
2.572574e+003, 8.765807e-003
2.574503e+003, 8.667687e-003
2.576431e+003, 8.546380e-003
2.578360e+003, 8.294946e-003
2.580288e+003, 8.025736e-003
2.582217e+003, 8.286200e-003
2.584145e+003, 8.682625e-003
2.586074e+003, 8.541243e-003
2.588002e+003, 8.400081e-003
2.589931e+003, 8.554565e-003
2.591859e+003, 8.682469e-003
2.593788e+003, 8.693688e-003
2.595716e+003, 8.509675e-003
2.597645e+003, 8.236494e-003
2.599573e+003, 8.606829e-003
2.601501e+003, 8.821150e-003
2.603430e+003, 8.717589e-003
2.605358e+003, 8.949723e-003
2.607287e+003, 9.084117e-003
2.609215e+003, 8.843958e-003
2.611144e+003, 8.766377e-003
2.613072e+003, 8.987186e-003
2.615001e+003, 9.098506e-003
2.616929e+003, 9.048268e-003
2.618858e+003, 9.191496e-003
2.620786e+003, 9.213397e-003
2.622715e+003, 9.273188e-003
2.624643e+003, 9.368168e-003
2.626572e+003, 9.251414e-003
2.628500e+003, 9.329688e-003
2.630428e+003, 9.458885e-003
2.632357e+003, 9.596987e-003
2.634285e+003, 9.641955e-003
2.636214e+003, 9.504361e-003
2.638142e+003, 9.464938e-003
2.640071e+003, 9.692876e-003
2.641999e+003, 9.933714e-003
2.643928e+003, 9.757478e-003
2.645856e+003, 9.484095e-003
2.647785e+003, 9.370310e-003
2.649713e+003, 9.329900e-003
2.651642e+003, 9.404115e-003
2.653570e+003, 9.524191e-003
2.655499e+003, 9.646414e-003
2.657427e+003, 9.544136e-003
2.659355e+003, 9.467665e-003
2.661284e+003, 9.442948e-003
2.663212e+003, 9.417444e-003
2.665141e+003, 9.461585e-003
2.667069e+003, 9.466324e-003
2.668998e+003, 9.304142e-003
2.670926e+003, 9.119919e-003
2.672855e+003, 9.032071e-003
2.674783e+003, 9.013269e-003
2.676712e+003, 9.133695e-003
2.678640e+003, 9.160053e-003
2.680569e+003, 8.965876e-003
2.682497e+003, 9.135960e-003
2.684426e+003, 9.388249e-003
2.686354e+003, 9.415584e-003
2.688282e+003, 9.236086e-003
2.690211e+003, 9.214502e-003
2.692139e+003, 9.480044e-003
2.694068e+003, 9.638149e-003
2.695996e+003, 9.470006e-003
2.697925e+003, 9.556472e-003
2.699853e+003, 9.627081e-003
2.701782e+003, 9.655954e-003
2.703710e+003, 9.585459e-003
2.705639e+003, 9.393042e-003
2.707567e+003, 9.271359e-003
2.709496e+003, 9.402614e-003
2.711424e+003, 9.697605e-003
2.713353e+003, 9.827025e-003
2.715281e+003, 9.463977e-003
2.717209e+003, 9.359736e-003
2.719138e+003, 9.705441e-003
2.721066e+003, 9.747993e-003
2.722995e+003, 9.755308e-003
2.724923e+003, 9.755893e-003
2.726852e+003, 9.623237e-003
2.728780e+003, 9.401282e-003
2.730709e+003, 9.457845e-003
2.732637e+003, 9.683115e-003
2.734566e+003, 9.693192e-003
2.736494e+003, 9.690057e-003
2.738423e+003, 9.627210e-003
2.740351e+003, 9.537000e-003
2.742280e+003, 9.517537e-003
2.744208e+003, 9.682765e-003
2.746136e+003, 9.842109e-003
2.748065e+003, 9.564450e-003
2.749993e+003, 9.851338e-003
2.751922e+003, 1.014017e-002
2.753850e+003, 9.849992e-003
2.755779e+003, 9.610558e-003
2.757707e+003, 9.409891e-003
2.759636e+003, 9.482533e-003
2.761564e+003, 9.607218e-003
2.763493e+003, 9.847233e-003
2.765421e+003, 9.671863e-003
2.767350e+003, 9.509651e-003
2.769278e+003, 9.745341e-003
2.771207e+003, 9.726102e-003
2.773135e+003, 9.527557e-003
2.775063e+003, 9.490723e-003
2.776992e+003, 9.691311e-003
2.778920e+003, 9.896461e-003
2.780849e+003, 9.667285e-003
2.782777e+003, 9.528562e-003
2.784706e+003, 9.778220e-003
2.786634e+003, 1.015470e-002
2.788563e+003, 9.955248e-003
2.790491e+003, 9.671247e-003
2.792420e+003, 9.742480e-003
2.794348e+003, 9.883380e-003
2.796277e+003, 9.797525e-003
2.798205e+003, 9.700133e-003
2.800134e+003, 9.868635e-003
2.802062e+003, 9.820668e-003
2.803990e+003, 9.886509e-003
2.805919e+003, 1.007102e-002
2.807847e+003, 1.020932e-002
2.809776e+003, 9.991512e-003
2.811704e+003, 9.877443e-003
2.813633e+003, 1.028058e-002
2.815561e+003, 1.033669e-002
2.817490e+003, 1.010952e-002
2.819418e+003, 1.009409e-002
2.821347e+003, 1.003849e-002
2.823275e+003, 9.906072e-003
2.825204e+003, 9.759456e-003
2.827132e+003, 9.822112e-003
2.829061e+003, 1.015852e-002
2.830989e+003, 1.023773e-002
2.832917e+003, 1.027538e-002
2.834846e+003, 1.009773e-002
2.836774e+003, 9.647263e-003
2.838703e+003, 9.427445e-003
2.840631e+003, 9.189567e-003
2.842560e+003, 9.358624e-003
2.844488e+003, 9.470541e-003
2.846417e+003, 9.105995e-003
2.848345e+003, 8.845549e-003
2.850274e+003, 8.709118e-003
2.852202e+003, 8.494688e-003
2.854131e+003, 8.519107e-003
2.856059e+003, 8.632338e-003
2.857988e+003, 8.773306e-003
2.859916e+003, 8.842664e-003
2.861844e+003, 8.932598e-003
2.863773e+003, 9.432161e-003
2.865701e+003, 9.682745e-003
2.867630e+003, 9.444082e-003
2.869558e+003, 9.539243e-003
2.871487e+003, 9.669423e-003
2.873415e+003, 9.569230e-003
2.875344e+003, 9.654917e-003
2.877272e+003, 9.554386e-003
2.879201e+003, 9.451026e-003
2.881129e+003, 9.375345e-003
2.883058e+003, 9.615788e-003
2.884986e+003, 9.952383e-003
2.886915e+003, 9.664424e-003
2.888843e+003, 9.547723e-003
2.890771e+003, 9.814171e-003
2.892700e+003, 9.550037e-003
2.894628e+003, 9.361915e-003
2.896557e+003, 9.557830e-003
2.898485e+003, 9.612361e-003
2.900414e+003, 9.661177e-003
2.902342e+003, 1.007930e-002
2.904271e+003, 1.031339e-002
2.906199e+003, 9.896541e-003
2.908128e+003, 9.175636e-003
2.910056e+003, 8.715633e-003
2.911985e+003, 8.604642e-003
2.913913e+003, 8.516058e-003
2.915842e+003, 8.321404e-003
2.917770e+003, 7.956909e-003
2.919698e+003, 7.605121e-003
2.921627e+003, 7.749764e-003
2.923555e+003, 8.019671e-003
2.925484e+003, 7.766986e-003
2.927412e+003, 7.923793e-003
2.929341e+003, 8.671075e-003
2.931269e+003, 8.769255e-003
2.933198e+003, 9.000348e-003
2.935126e+003, 9.474620e-003
2.937055e+003, 9.644594e-003
2.938983e+003, 9.442380e-003
2.940912e+003, 9.078743e-003
2.942840e+003, 8.936070e-003
2.944769e+003, 8.795498e-003
2.946697e+003, 8.824058e-003
2.948625e+003, 9.130985e-003
2.950554e+003, 9.008735e-003
2.952482e+003, 8.912513e-003
2.954411e+003, 9.176483e-003
2.956339e+003, 9.827243e-003
2.958268e+003, 1.001095e-002
2.960196e+003, 9.876700e-003
2.962125e+003, 9.752385e-003
2.964053e+003, 9.818304e-003
2.965982e+003, 9.726835e-003
2.967910e+003, 9.350220e-003
2.969839e+003, 9.254185e-003
2.971767e+003, 9.453977e-003
2.973696e+003, 9.596884e-003
2.975624e+003, 9.671306e-003
2.977552e+003, 9.883983e-003
2.979481e+003, 9.853903e-003
2.981409e+003, 9.699203e-003
2.983338e+003, 9.646125e-003
2.985266e+003, 9.723734e-003
2.987195e+003, 9.822529e-003
2.989123e+003, 9.441644e-003
2.991052e+003, 9.248460e-003
2.992980e+003, 9.316169e-003
2.994909e+003, 9.648195e-003
2.996837e+003, 9.921765e-003
2.998766e+003, 9.798534e-003
3.000694e+003, 9.717455e-003
3.002623e+003, 9.756617e-003
3.004551e+003, 9.879492e-003
3.006479e+003, 9.841310e-003
3.008408e+003, 9.471409e-003
3.010336e+003, 9.604236e-003
3.012265e+003, 9.854790e-003
3.014193e+003, 1.005248e-002
3.016122e+003, 1.033963e-002
3.018050e+003, 1.037022e-002
3.019979e+003, 9.976052e-003
3.021907e+003, 9.536602e-003
3.023836e+003, 9.241343e-003
3.025764e+003, 9.642739e-003
3.027693e+003, 1.019524e-002
3.029621e+003, 1.026864e-002
3.031550e+003, 9.666443e-003
3.033478e+003, 9.685013e-003
3.035406e+003, 9.981267e-003
3.037335e+003, 9.970456e-003
3.039263e+003, 9.793747e-003
3.041192e+003, 9.534642e-003
3.043120e+003, 9.432059e-003
3.045049e+003, 9.384237e-003
3.046977e+003, 9.425033e-003
3.048906e+003, 9.916630e-003
3.050834e+003, 9.818252e-003
3.052763e+003, 9.785153e-003
3.054691e+003, 9.894505e-003
3.056620e+003, 9.826392e-003
3.058548e+003, 9.883940e-003
3.060477e+003, 9.813838e-003
3.062405e+003, 9.719729e-003
3.064333e+003, 9.641580e-003
3.066262e+003, 9.969424e-003
3.068190e+003, 1.011502e-002
3.070119e+003, 1.015397e-002
3.072047e+003, 9.569231e-003
3.073976e+003, 9.462837e-003
3.075904e+003, 9.683911e-003
3.077833e+003, 9.360164e-003
3.079761e+003, 9.481095e-003
3.081690e+003, 9.848487e-003
3.083618e+003, 1.002402e-002
3.085547e+003, 9.903837e-003
3.087475e+003, 9.403754e-003
3.089404e+003, 9.145163e-003
3.091332e+003, 9.534597e-003
3.093260e+003, 9.691663e-003
3.095189e+003, 9.729378e-003
3.097117e+003, 9.924904e-003
3.099046e+003, 1.004804e-002
3.100974e+003, 9.511240e-003
3.102903e+003, 9.627745e-003
3.104831e+003, 9.672374e-003
3.106760e+003, 9.361044e-003
3.108688e+003, 9.505235e-003
3.110617e+003, 9.699240e-003
3.112545e+003, 9.941041e-003
3.114474e+003, 9.930447e-003
3.116402e+003, 9.317361e-003
3.118331e+003, 9.050842e-003
3.120259e+003, 9.180393e-003
3.122188e+003, 9.666197e-003
3.124116e+003, 9.798165e-003
3.126044e+003, 9.850271e-003
3.127973e+003, 9.722766e-003
3.129901e+003, 9.546246e-003
3.131830e+003, 9.797659e-003
3.133758e+003, 9.857271e-003
3.135687e+003, 9.709369e-003
3.137615e+003, 9.536780e-003
3.139544e+003, 9.505648e-003
3.141472e+003, 9.627938e-003
3.143401e+003, 9.434711e-003
3.145329e+003, 9.333812e-003
3.147258e+003, 9.353355e-003
3.149186e+003, 9.635322e-003
3.151115e+003, 9.833455e-003
3.153043e+003, 1.011627e-002
3.154971e+003, 9.659953e-003
3.156900e+003, 9.316068e-003
3.158828e+003, 9.204950e-003
3.160757e+003, 9.188417e-003
3.162685e+003, 9.368420e-003
3.164614e+003, 9.555645e-003
3.166542e+003, 9.568032e-003
3.168471e+003, 9.493690e-003
3.170399e+003, 9.217858e-003
3.172328e+003, 8.940823e-003
3.174256e+003, 9.212874e-003
3.176185e+003, 9.592921e-003
3.178113e+003, 9.518601e-003
3.180042e+003, 9.648066e-003
3.181970e+003, 9.697754e-003
3.183898e+003, 9.612601e-003
3.185827e+003, 9.906344e-003
3.187755e+003, 9.696640e-003
3.189684e+003, 9.342767e-003
3.191612e+003, 9.600610e-003
3.193541e+003, 9.825215e-003
3.195469e+003, 9.670150e-003
3.197398e+003, 9.469662e-003
3.199326e+003, 9.839766e-003
3.201255e+003, 9.452600e-003
3.203183e+003, 9.376802e-003
3.205112e+003, 9.720560e-003
3.207040e+003, 9.580940e-003
3.208969e+003, 9.778038e-003
3.210897e+003, 9.997856e-003
3.212825e+003, 9.620275e-003
3.214754e+003, 9.931430e-003
3.216682e+003, 1.039491e-002
3.218611e+003, 9.993788e-003
3.220539e+003, 9.956766e-003
3.222468e+003, 1.024102e-002
3.224396e+003, 9.830635e-003
3.226325e+003, 9.485483e-003
3.228253e+003, 9.557925e-003
3.230182e+003, 9.426065e-003
3.232110e+003, 9.488374e-003
3.234039e+003, 9.729296e-003
3.235967e+003, 9.983797e-003
3.237896e+003, 9.804688e-003
3.239824e+003, 9.312853e-003
3.241752e+003, 9.227347e-003
3.243681e+003, 9.011757e-003
3.245609e+003, 9.319440e-003
3.247538e+003, 9.412687e-003
3.249466e+003, 9.727277e-003
3.251395e+003, 1.004537e-002
3.253323e+003, 9.418685e-003
3.255252e+003, 9.013139e-003
3.257180e+003, 9.327129e-003
3.259109e+003, 9.444650e-003
3.261037e+003, 9.230740e-003
3.262966e+003, 9.285130e-003
3.264894e+003, 9.510454e-003
3.266823e+003, 9.458311e-003
3.268751e+003, 9.250678e-003
3.270679e+003, 9.249333e-003
3.272608e+003, 9.628695e-003
3.274536e+003, 9.348400e-003
3.276465e+003, 9.017773e-003
3.278393e+003, 8.879304e-003
3.280322e+003, 8.445427e-003
3.282250e+003, 8.327469e-003
3.284179e+003, 8.198425e-003
3.286107e+003, 8.402906e-003
3.288036e+003, 8.888911e-003
3.289964e+003, 8.826472e-003
3.291893e+003, 8.812081e-003
3.293821e+003, 8.576103e-003
3.295750e+003, 8.640897e-003
3.297678e+003, 8.896716e-003
3.299606e+003, 9.156771e-003
3.301535e+003, 9.153277e-003
3.303463e+003, 9.445377e-003
3.305392e+003, 8.873038e-003
3.307320e+003, 8.199632e-003
3.309249e+003, 8.305877e-003
3.311177e+003, 8.575518e-003
3.313106e+003, 8.463141e-003
3.315034e+003, 8.457966e-003
3.316963e+003, 8.678757e-003
3.318891e+003, 8.809716e-003
3.320820e+003, 8.789994e-003
3.322748e+003, 8.667734e-003
3.324677e+003, 8.438133e-003
3.326605e+003, 8.542452e-003
3.328533e+003, 8.414183e-003
3.330462e+003, 8.517798e-003
3.332390e+003, 8.594442e-003
3.334319e+003, 8.041702e-003
3.336247e+003, 7.886697e-003
3.338176e+003, 7.924173e-003
3.340104e+003, 8.022398e-003
3.342033e+003, 8.617498e-003
3.343961e+003, 8.592006e-003
3.345890e+003, 8.042723e-003
3.347818e+003, 7.419199e-003
3.349747e+003, 7.331379e-003
3.351675e+003, 7.918146e-003
3.353604e+003, 8.529186e-003
3.355532e+003, 8.449528e-003
3.357460e+003, 7.942285e-003
3.359389e+003, 7.687192e-003
3.361317e+003, 7.663403e-003
3.363246e+003, 7.199943e-003
3.365174e+003, 7.016249e-003
3.367103e+003, 7.159214e-003
3.369031e+003, 7.601280e-003
3.370960e+003, 7.714596e-003
3.372888e+003, 7.419456e-003
3.374817e+003, 7.324878e-003
3.376745e+003, 7.565957e-003
3.378674e+003, 7.999636e-003
3.380602e+003, 7.755794e-003
3.382531e+003, 7.520553e-003
3.384459e+003, 7.383958e-003
3.386387e+003, 7.222489e-003
3.388316e+003, 7.454075e-003
3.390244e+003, 7.425770e-003
3.392173e+003, 7.427886e-003
3.394101e+003, 7.634621e-003
3.396030e+003, 7.624749e-003
3.397958e+003, 7.264361e-003
3.399887e+003, 6.949954e-003
3.401815e+003, 6.952491e-003
3.403744e+003, 7.601116e-003
3.405672e+003, 7.468041e-003
3.407601e+003, 7.040340e-003
3.409529e+003, 6.359369e-003
3.411458e+003, 5.791847e-003
3.413386e+003, 5.938642e-003
3.415314e+003, 6.335750e-003
3.417243e+003, 6.367866e-003
3.419171e+003, 5.979761e-003
3.421100e+003, 6.021272e-003
3.423028e+003, 6.411958e-003
3.424957e+003, 6.678026e-003
3.426885e+003, 6.658997e-003
3.428814e+003, 6.505277e-003
3.430742e+003, 6.191906e-003
3.432671e+003, 6.228220e-003
3.434599e+003, 6.405428e-003
3.436528e+003, 6.728183e-003
3.438456e+003, 6.362382e-003
3.440385e+003, 5.671244e-003
3.442313e+003, 5.525220e-003
3.444241e+003, 5.741183e-003
3.446170e+003, 5.944174e-003
3.448098e+003, 6.300386e-003
3.450027e+003, 6.399084e-003
3.451955e+003, 6.572671e-003
3.453884e+003, 6.609611e-003
3.455812e+003, 6.206248e-003
3.457741e+003, 5.928341e-003
3.459669e+003, 5.476143e-003
3.461598e+003, 5.294975e-003
3.463526e+003, 4.762530e-003
3.465455e+003, 5.166717e-003
3.467383e+003, 5.180057e-003
3.469312e+003, 4.652727e-003
3.471240e+003, 4.718896e-003
3.473168e+003, 4.977573e-003
3.475097e+003, 5.147193e-003
3.477025e+003, 5.331583e-003
3.478954e+003, 5.121760e-003
3.480882e+003, 4.918218e-003
3.482811e+003, 5.362328e-003
3.484739e+003, 5.224373e-003
3.486668e+003, 4.942968e-003
3.488596e+003, 5.260736e-003
3.490525e+003, 6.094698e-003
3.492453e+003, 6.248228e-003
3.494382e+003, 4.750844e-003
3.496310e+003, 3.672235e-003
3.498239e+003, 3.642682e-003
3.500167e+003, 3.935594e-003
3.502095e+003, 4.148521e-003
3.504024e+003, 5.033057e-003
3.505952e+003, 5.061671e-003
3.507881e+003, 4.288949e-003
3.509809e+003, 3.688175e-003
3.511738e+003, 3.578231e-003
3.513666e+003, 3.989041e-003
3.515595e+003, 3.921490e-003
3.517523e+003, 3.340021e-003
3.519452e+003, 3.225274e-003
3.521380e+003, 3.514580e-003
3.523309e+003, 3.888573e-003
3.525237e+003, 4.250243e-003
3.527166e+003, 4.000403e-003
3.529094e+003, 3.164325e-003
3.531022e+003, 3.073141e-003
3.532951e+003, 3.767587e-003
3.534879e+003, 3.662456e-003
3.536808e+003, 3.020339e-003
3.538736e+003, 2.786227e-003
3.540665e+003, 3.138151e-003
3.542593e+003, 3.319327e-003
3.544522e+003, 3.386833e-003
3.546450e+003, 3.160764e-003
3.548379e+003, 2.646826e-003
3.550307e+003, 2.279181e-003
3.552236e+003, 2.746336e-003
3.554164e+003, 2.630986e-003
3.556093e+003, 2.281670e-003
3.558021e+003, 2.781127e-003
3.559949e+003, 2.732731e-003
3.561878e+003, 2.254073e-003
3.563806e+003, 2.202392e-003
3.565735e+003, 2.687871e-003
3.567663e+003, 2.734810e-003
3.569592e+003, 1.949560e-003
3.571520e+003, 1.837805e-003
3.573449e+003, 2.314970e-003
3.575377e+003, 2.085414e-003
3.577306e+003, 1.744650e-003
3.579234e+003, 1.397271e-003
3.581163e+003, 1.300819e-003
3.583091e+003, 1.491483e-003
3.585020e+003, 1.156185e-003
3.586948e+003, 9.028800e-004
3.588876e+003, 9.580255e-004
3.590805e+003, 1.066715e-003
3.592733e+003, 2.046220e-003
3.594662e+003, 2.083246e-003
3.596590e+003, 1.553014e-003
3.598519e+003, 1.246732e-003
3.600447e+003, 1.117069e-003
3.602376e+003, 1.323313e-003
3.604304e+003, 1.052491e-003
3.606233e+003, 1.032107e-003
3.608161e+003, 1.193196e-003
3.610090e+003, 6.166585e-004
3.612018e+003, 3.184080e-004
3.613947e+003, 1.128484e-003
3.615875e+003, 1.857791e-003
3.617803e+003, 2.024196e-003
3.619732e+003, 1.747999e-003
3.621660e+003, 8.361563e-004
3.623589e+003, 1.463369e-004
3.625517e+003, 4.503950e-004
3.627446e+003, 1.445133e-003
3.629374e+003, 1.090091e-003
3.631303e+003, -6.661154e-004
3.633231e+003, -3.729463e-004
3.635160e+003, 3.498159e-004
3.637088e+003, 3.305040e-004
3.639017e+003, -4.411712e-004
3.640945e+003, -1.289658e-003
3.642874e+003, -1.320679e-003
3.644802e+003, -7.675923e-004
3.646730e+003, 6.671511e-004
3.648659e+003, 1.867015e-003
3.650587e+003, 1.189999e-003
3.652516e+003, -5.789548e-004
3.654444e+003, -8.425750e-004
3.656373e+003, -3.503188e-004
3.658301e+003, 4.379787e-004
3.660230e+003, 5.596504e-004
3.662158e+003, 8.954853e-005
3.664087e+003, -1.123324e-004
3.666015e+003, -1.619421e-004
3.667944e+003, 5.694032e-004
3.669872e+003, 1.627669e-003
3.671801e+003, 5.194806e-004
3.673729e+003, 5.444326e-004
3.675657e+003, 1.853693e-003
3.677586e+003, -1.573302e-004
3.679514e+003, -1.983367e-003
3.681443e+003, -2.216619e-003
3.683371e+003, -1.567747e-003
3.685300e+003, -1.600906e-003
3.687228e+003, -1.125675e-003
3.689157e+003, -7.020943e-004
3.691085e+003, -9.825043e-004
3.693014e+003, -2.011549e-003
3.694942e+003, -2.087690e-003
3.696871e+003, -1.818456e-003
3.698799e+003, -1.810599e-003
3.700728e+003, -1.384236e-003
3.702656e+003, -1.623131e-003
3.704584e+003, -1.892578e-003
3.706513e+003, -1.404554e-003
3.708441e+003, -8.888058e-004
3.710370e+003, -2.801530e-004
3.712298e+003, -1.977086e-004
3.714227e+003, -1.530230e-003
3.716155e+003, -2.090298e-003
3.718084e+003, -1.884602e-003
3.720012e+003, -1.975667e-003
3.721941e+003, -1.952805e-003
3.723869e+003, -1.654845e-003
3.725798e+003, -1.917750e-003
3.727726e+003, -2.362236e-003
3.729655e+003, -1.581848e-003
3.731583e+003, -1.064792e-003
3.733511e+003, -1.232862e-003
3.735440e+003, -6.441399e-004
3.737368e+003, -1.235940e-003
3.739297e+003, -2.291579e-003
3.741225e+003, -2.394456e-003
3.743154e+003, -2.779849e-004
3.745082e+003, 7.480085e-004
3.747011e+003, -3.631897e-004
3.748939e+003, 7.735454e-004
3.750868e+003, 1.082595e-003
3.752796e+003, 1.606420e-004
3.754725e+003, -1.442365e-003
3.756653e+003, -1.919910e-003
3.758582e+003, -2.003185e-003
3.760510e+003, -1.677692e-003
3.762438e+003, -2.164923e-003
3.764367e+003, -1.869593e-003
3.766295e+003, -1.391739e-003
3.768224e+003, -1.276027e-003
3.770152e+003, -1.207504e-003
3.772081e+003, -1.989890e-003
3.774009e+003, -2.305131e-003
3.775938e+003, -1.379080e-003
3.777866e+003, -9.170398e-004
3.779795e+003, -1.337186e-003
3.781723e+003, -2.443247e-003
3.783652e+003, -2.368733e-003
3.785580e+003, -1.912255e-003
3.787509e+003, -2.414171e-003
3.789437e+003, -2.338320e-003
3.791365e+003, -1.632430e-003
3.793294e+003, -1.563676e-003
3.795222e+003, -1.236107e-003
3.797151e+003, -1.236141e-003
3.799079e+003, -6.594770e-004
3.801008e+003, -2.147257e-005
3.802936e+003, -1.173340e-003
3.804865e+003, -1.649387e-003
3.806793e+003, -8.619651e-004
3.808722e+003, -1.067620e-003
3.810650e+003, -1.780532e-003
3.812579e+003, -2.133336e-003
3.814507e+003, -1.162920e-003
3.816436e+003, -1.928173e-004
3.818364e+003, -3.814884e-004
3.820292e+003, 5.202778e-004
3.822221e+003, -4.608557e-005
3.824149e+003, -1.548365e-003
3.826078e+003, -1.531556e-003
3.828006e+003, -1.935706e-003
3.829935e+003, -1.870666e-003
3.831863e+003, -1.727391e-003
3.833792e+003, -2.028842e-003
3.835720e+003, -1.038287e-003
3.837649e+003, 5.554482e-004
3.839577e+003, -2.621859e-004
3.841506e+003, -1.358300e-003
3.843434e+003, -1.238555e-003
3.845363e+003, -6.597415e-004
3.847291e+003, -6.405786e-004
3.849219e+003, -4.234239e-004
3.851148e+003, 7.459521e-004
3.853076e+003, 2.411209e-003
3.855005e+003, 1.178101e-003
3.856933e+003, -1.253739e-003
3.858862e+003, -1.532394e-003
3.860790e+003, -1.148205e-003
3.862719e+003, -3.061891e-004
3.864647e+003, 5.492680e-004
3.866576e+003, -1.178943e-004
3.868504e+003, -4.520379e-004
3.870433e+003, 9.265170e-005
3.872361e+003, 4.252642e-004
3.874290e+003, 7.053688e-004
3.876218e+003, -4.220083e-004
3.878146e+003, -8.409433e-004
3.880075e+003, -8.648522e-004
3.882003e+003, -6.322376e-004
3.883932e+003, 9.706616e-004
3.885860e+003, 1.417886e-003
3.887789e+003, -1.671351e-004
3.889717e+003, 3.247894e-004
3.891646e+003, 7.190630e-004
3.893574e+003, 2.847500e-004
3.895503e+003, 2.809241e-005
3.897431e+003, 2.783537e-005
3.899360e+003, 9.408966e-004
3.901288e+003, 1.726609e-003
3.903217e+003, 1.181256e-003
3.905145e+003, 2.367087e-004
3.907073e+003, 2.252050e-004
3.909002e+003, -7.200986e-006
3.910930e+003, -5.931593e-004
3.912859e+003, -1.933984e-004
3.914787e+003, 2.383962e-004
3.916716e+003, 8.226186e-005
3.918644e+003, -2.580173e-004
3.920573e+003, -7.808656e-004
3.922501e+003, -2.899580e-004
3.924430e+003, 1.120567e-005
3.926358e+003, -4.930161e-004
3.928287e+003, -4.292727e-004
3.930215e+003, 5.999804e-004
3.932144e+003, 7.621385e-004
3.934072e+003, -1.207106e-004
3.936000e+003, -5.811527e-004
3.937929e+003, -3.140569e-004
3.939857e+003, -2.786592e-004
3.941786e+003, 9.067357e-006
3.943714e+003, 3.309548e-005
3.945643e+003, -6.320141e-004
3.947571e+003, -5.539618e-004
3.949500e+003, -5.282462e-004
3.951428e+003, -8.400530e-004
3.953357e+003, -5.496591e-004
3.955285e+003, -2.563149e-004
3.957214e+003, -2.627969e-004
3.959142e+003, -3.469735e-004
3.961071e+003, -8.165017e-004
3.962999e+003, -6.909482e-004
3.964927e+003, -8.215904e-004
3.966856e+003, -5.434304e-004
3.968784e+003, 1.474321e-004
3.970713e+003, 5.274415e-004
3.972641e+003, 4.542395e-004
3.974570e+003, 4.608817e-004
3.976498e+003, -3.663450e-005
3.978427e+003, -6.440952e-004
3.980355e+003, -2.730154e-004
3.982284e+003, -3.251247e-004
3.984212e+003, -8.760914e-004
3.986141e+003, -6.873868e-004
3.988069e+003, -8.362904e-005
3.989998e+003, 4.032142e-004
3.991926e+003, 5.588792e-004
3.993854e+003, 6.337650e-004
3.995783e+003, 3.811494e-004
3.997711e+003, -1.400523e-004
3.999640e+003, 1.964718e-005
##END=



