##NAMES=Titanite
##RRUFFID=R050114
##IDEAL CHEMISTRY=CaTi^4+^SiO_5_
##LOCALITY=Isthak Valley Iskardu, Northern Areas Gilgit, Pakistan
##OWNER=RRUFF
##SOURCE=Syed Shah
##DESCRIPTION=Yellowish-brown fragment
##STATUS=The identification of this mineral has been confirmed by X-ray diffraction and chemical analysis
##URL=rruff.info/R050114
##MEASURED CHEMISTRY=(Ca_0.99_Na_0.01_)(Ti_0.96_Al_0.03_Fe^3+^_0.01_)Si_1.00_O_4_(O_0.95_F_0.05_)
3.741225e+002, 2.344042e-001
3.760510e+002, 2.341218e-001
3.779795e+002, 2.207273e-001
3.799079e+002, 2.287752e-001
3.818364e+002, 2.258380e-001
3.837649e+002, 2.393590e-001
3.856933e+002, 2.388602e-001
3.876218e+002, 2.312812e-001
3.895503e+002, 2.129747e-001
3.914787e+002, 2.048535e-001
3.934072e+002, 2.170815e-001
3.953357e+002, 2.293821e-001
3.972641e+002, 2.368721e-001
3.991926e+002, 2.320809e-001
4.011211e+002, 2.321762e-001
4.030495e+002, 2.455818e-001
4.049780e+002, 2.499948e-001
4.069065e+002, 2.459732e-001
4.088349e+002, 2.536949e-001
4.107634e+002, 2.582438e-001
4.126919e+002, 2.549223e-001
4.146203e+002, 2.564258e-001
4.165488e+002, 2.572292e-001
4.184773e+002, 2.615860e-001
4.204057e+002, 2.615890e-001
4.223342e+002, 2.587987e-001
4.242627e+002, 2.515813e-001
4.261911e+002, 2.447716e-001
4.281196e+002, 2.384632e-001
4.300481e+002, 2.342405e-001
4.319765e+002, 2.304428e-001
4.339050e+002, 2.261815e-001
4.358335e+002, 2.213708e-001
4.377619e+002, 2.182433e-001
4.396904e+002, 2.124088e-001
4.416189e+002, 2.066625e-001
4.435473e+002, 2.009233e-001
4.454758e+002, 1.939290e-001
4.474043e+002, 1.895806e-001
4.493327e+002, 1.869034e-001
4.512612e+002, 1.833238e-001
4.531897e+002, 1.807374e-001
4.551181e+002, 1.780474e-001
4.570466e+002, 1.755191e-001
4.589751e+002, 1.751150e-001
4.609035e+002, 1.749056e-001
4.628320e+002, 1.760069e-001
4.647605e+002, 1.782856e-001
4.666889e+002, 1.781956e-001
4.686174e+002, 1.761240e-001
4.705459e+002, 1.730649e-001
4.724743e+002, 1.706709e-001
4.744028e+002, 1.677637e-001
4.763313e+002, 1.638500e-001
4.782597e+002, 1.595929e-001
4.801882e+002, 1.558992e-001
4.821167e+002, 1.525996e-001
4.840451e+002, 1.491268e-001
4.859736e+002, 1.465671e-001
4.879021e+002, 1.442841e-001
4.898305e+002, 1.422920e-001
4.917590e+002, 1.412302e-001
4.936875e+002, 1.399215e-001
4.956159e+002, 1.374018e-001
4.975444e+002, 1.340993e-001
4.994729e+002, 1.299406e-001
5.014013e+002, 1.255005e-001
5.033298e+002, 1.210581e-001
5.052583e+002, 1.160700e-001
5.071867e+002, 1.113131e-001
5.091152e+002, 1.071019e-001
5.110437e+002, 1.035007e-001
5.129721e+002, 1.003288e-001
5.149006e+002, 9.749199e-002
5.168290e+002, 9.582095e-002
5.187575e+002, 9.519599e-002
5.206860e+002, 9.543260e-002
5.226144e+002, 9.657691e-002
5.245429e+002, 9.856135e-002
5.264714e+002, 1.012852e-001
5.283998e+002, 1.046450e-001
5.303283e+002, 1.082302e-001
5.322568e+002, 1.111262e-001
5.341852e+002, 1.139275e-001
5.361137e+002, 1.170670e-001
5.380422e+002, 1.199446e-001
5.399706e+002, 1.228284e-001
5.418991e+002, 1.263262e-001
5.438276e+002, 1.310046e-001
5.457560e+002, 1.370194e-001
5.476845e+002, 1.435107e-001
5.496130e+002, 1.515290e-001
5.515414e+002, 1.599052e-001
5.534699e+002, 1.676257e-001
5.553984e+002, 1.742170e-001
5.573268e+002, 1.791684e-001
5.592553e+002, 1.823391e-001
5.611838e+002, 1.824123e-001
5.631122e+002, 1.788849e-001
5.650407e+002, 1.726700e-001
5.669692e+002, 1.648999e-001
5.688976e+002, 1.572979e-001
5.708261e+002, 1.498455e-001
5.727546e+002, 1.439003e-001
5.746830e+002, 1.399240e-001
5.766115e+002, 1.368748e-001
5.785400e+002, 1.352097e-001
5.804684e+002, 1.340145e-001
5.823969e+002, 1.335699e-001
5.843254e+002, 1.333066e-001
5.862538e+002, 1.327943e-001
5.881823e+002, 1.322593e-001
5.901108e+002, 1.315352e-001
5.920392e+002, 1.308172e-001
5.939677e+002, 1.299787e-001
5.958962e+002, 1.293115e-001
5.978246e+002, 1.298065e-001
5.997531e+002, 1.306488e-001
6.016816e+002, 1.312865e-001
6.036100e+002, 1.322780e-001
6.055385e+002, 1.338948e-001
6.074670e+002, 1.352294e-001
6.093954e+002, 1.365742e-001
6.113239e+002, 1.383952e-001
6.132524e+002, 1.405148e-001
6.151808e+002, 1.422735e-001
6.171093e+002, 1.438171e-001
6.190378e+002, 1.452668e-001
6.209662e+002, 1.465051e-001
6.228947e+002, 1.471965e-001
6.248232e+002, 1.479942e-001
6.267516e+002, 1.487932e-001
6.286801e+002, 1.497764e-001
6.306086e+002, 1.509797e-001
6.325370e+002, 1.520747e-001
6.344655e+002, 1.532983e-001
6.363940e+002, 1.545015e-001
6.383224e+002, 1.559353e-001
6.402509e+002, 1.570787e-001
6.421794e+002, 1.582527e-001
6.441078e+002, 1.597218e-001
6.460363e+002, 1.605538e-001
6.479648e+002, 1.615965e-001
6.498932e+002, 1.626467e-001
6.518217e+002, 1.634995e-001
6.537502e+002, 1.642748e-001
6.556786e+002, 1.646851e-001
6.576071e+002, 1.651364e-001
6.595356e+002, 1.663171e-001
6.614641e+002, 1.673071e-001
6.633925e+002, 1.679680e-001
6.653210e+002, 1.686745e-001
6.672495e+002, 1.698034e-001
6.691779e+002, 1.704117e-001
6.711064e+002, 1.709245e-001
6.730349e+002, 1.715415e-001
6.749633e+002, 1.721094e-001
6.768918e+002, 1.726335e-001
6.788203e+002, 1.730861e-001
6.807487e+002, 1.736065e-001
6.826772e+002, 1.739289e-001
6.846057e+002, 1.743428e-001
6.865341e+002, 1.744925e-001
6.884626e+002, 1.742361e-001
6.903911e+002, 1.743155e-001
6.923195e+002, 1.748872e-001
6.942480e+002, 1.752253e-001
6.961765e+002, 1.750906e-001
6.981049e+002, 1.748378e-001
7.000334e+002, 1.747967e-001
7.019619e+002, 1.748940e-001
7.038903e+002, 1.746990e-001
7.058188e+002, 1.746068e-001
7.077473e+002, 1.748530e-001
7.096757e+002, 1.749168e-001
7.116042e+002, 1.746501e-001
7.135327e+002, 1.743987e-001
7.154611e+002, 1.735889e-001
7.173896e+002, 1.728239e-001
7.193181e+002, 1.725484e-001
7.212465e+002, 1.719301e-001
7.231750e+002, 1.712374e-001
7.251035e+002, 1.705519e-001
7.270319e+002, 1.698114e-001
7.289604e+002, 1.693385e-001
7.308889e+002, 1.689967e-001
7.328173e+002, 1.687974e-001
7.347458e+002, 1.686901e-001
7.366743e+002, 1.685138e-001
7.386027e+002, 1.678385e-001
7.405312e+002, 1.677254e-001
7.424597e+002, 1.679077e-001
7.443881e+002, 1.678150e-001
7.463166e+002, 1.675174e-001
7.482451e+002, 1.669081e-001
7.501735e+002, 1.660827e-001
7.521020e+002, 1.653411e-001
7.540305e+002, 1.646148e-001
7.559589e+002, 1.639876e-001
7.578874e+002, 1.632865e-001
7.598159e+002, 1.626406e-001
7.617443e+002, 1.625690e-001
7.636728e+002, 1.632040e-001
7.656013e+002, 1.636673e-001
7.675297e+002, 1.641243e-001
7.694582e+002, 1.653119e-001
7.713867e+002, 1.668151e-001
7.733151e+002, 1.687891e-001
7.752436e+002, 1.712496e-001
7.771721e+002, 1.738692e-001
7.791005e+002, 1.767707e-001
7.810290e+002, 1.798511e-001
7.829575e+002, 1.835154e-001
7.848859e+002, 1.875141e-001
7.868144e+002, 1.916489e-001
7.887429e+002, 1.960309e-001
7.906713e+002, 2.004680e-001
7.925998e+002, 2.050356e-001
7.945283e+002, 2.095993e-001
7.964567e+002, 2.143044e-001
7.983852e+002, 2.192849e-001
8.003137e+002, 2.242518e-001
8.022421e+002, 2.291014e-001
8.041706e+002, 2.340520e-001
8.060991e+002, 2.391421e-001
8.080275e+002, 2.446769e-001
8.099560e+002, 2.506838e-001
8.118845e+002, 2.573994e-001
8.138129e+002, 2.645734e-001
8.157414e+002, 2.718316e-001
8.176699e+002, 2.798415e-001
8.195983e+002, 2.884780e-001
8.215268e+002, 2.969970e-001
8.234553e+002, 3.052186e-001
8.253837e+002, 3.137588e-001
8.273122e+002, 3.212518e-001
8.292407e+002, 3.274779e-001
8.311691e+002, 3.329200e-001
8.330976e+002, 3.377196e-001
8.350261e+002, 3.420077e-001
8.369545e+002, 3.455344e-001
8.388830e+002, 3.484901e-001
8.408115e+002, 3.513151e-001
8.427399e+002, 3.534846e-001
8.446684e+002, 3.549978e-001
8.465969e+002, 3.563460e-001
8.485253e+002, 3.572415e-001
8.504538e+002, 3.576760e-001
8.523823e+002, 3.575734e-001
8.543107e+002, 3.567882e-001
8.562392e+002, 3.558852e-001
8.581677e+002, 3.545384e-001
8.600961e+002, 3.530791e-001
8.620246e+002, 3.511795e-001
8.639531e+002, 3.487411e-001
8.658815e+002, 3.452584e-001
8.678100e+002, 3.407624e-001
8.697385e+002, 3.349763e-001
8.716669e+002, 3.283537e-001
8.735954e+002, 3.209716e-001
8.755239e+002, 3.129882e-001
8.774523e+002, 3.050360e-001
8.793808e+002, 2.978447e-001
8.813093e+002, 2.910930e-001
8.832377e+002, 2.858245e-001
8.851662e+002, 2.825782e-001
8.870947e+002, 2.805924e-001
8.890231e+002, 2.790874e-001
8.909516e+002, 2.777680e-001
8.928801e+002, 2.758567e-001
8.948085e+002, 2.726936e-001
8.967370e+002, 2.680713e-001
8.986655e+002, 2.622343e-001
9.005939e+002, 2.556685e-001
9.025224e+002, 2.490052e-001
9.044509e+002, 2.423554e-001
9.063793e+002, 2.357479e-001
9.083078e+002, 2.289766e-001
9.102363e+002, 2.226883e-001
9.121647e+002, 2.172614e-001
9.140932e+002, 2.120185e-001
9.160217e+002, 2.069206e-001
9.179501e+002, 2.023288e-001
9.198786e+002, 1.978714e-001
9.218071e+002, 1.930460e-001
9.237355e+002, 1.875769e-001
9.256640e+002, 1.817827e-001
9.275925e+002, 1.757330e-001
9.295209e+002, 1.695887e-001
9.314494e+002, 1.637679e-001
9.333779e+002, 1.583203e-001
9.353063e+002, 1.530838e-001
9.372348e+002, 1.481868e-001
9.391633e+002, 1.439050e-001
9.410917e+002, 1.402758e-001
9.430202e+002, 1.367790e-001
9.449487e+002, 1.333292e-001
9.468771e+002, 1.297825e-001
9.488056e+002, 1.258945e-001
9.507341e+002, 1.218093e-001
9.526625e+002, 1.173896e-001
9.545910e+002, 1.127221e-001
9.565195e+002, 1.083513e-001
9.584479e+002, 1.043144e-001
9.603764e+002, 1.000729e-001
9.623049e+002, 9.594208e-002
9.642333e+002, 9.185746e-002
9.661618e+002, 8.774545e-002
9.680903e+002, 8.388259e-002
9.700187e+002, 8.019479e-002
9.719472e+002, 7.669920e-002
9.738757e+002, 7.321864e-002
9.758041e+002, 6.959310e-002
9.777326e+002, 6.590787e-002
9.796611e+002, 6.227586e-002
9.815895e+002, 5.868574e-002
9.835180e+002, 5.506525e-002
9.854465e+002, 5.171441e-002
9.873749e+002, 4.846432e-002
9.893034e+002, 4.531667e-002
9.912319e+002, 4.231425e-002
9.931603e+002, 3.951497e-002
9.950888e+002, 3.709490e-002
9.970173e+002, 3.478204e-002
9.989457e+002, 3.241708e-002
1.000874e+003, 3.021549e-002
1.002803e+003, 2.824801e-002
1.004731e+003, 2.637181e-002
1.006660e+003, 2.464594e-002
1.008588e+003, 2.298660e-002
1.010517e+003, 2.147302e-002
1.012445e+003, 2.004780e-002
1.014373e+003, 1.861108e-002
1.016302e+003, 1.726272e-002
1.018230e+003, 1.612901e-002
1.020159e+003, 1.511471e-002
1.022087e+003, 1.415831e-002
1.024016e+003, 1.331463e-002
1.025944e+003, 1.269809e-002
1.027873e+003, 1.221851e-002
1.029801e+003, 1.169621e-002
1.031730e+003, 1.121017e-002
1.033658e+003, 1.088750e-002
1.035587e+003, 1.070153e-002
1.037515e+003, 1.046042e-002
1.039443e+003, 1.011672e-002
1.041372e+003, 9.853143e-003
1.043300e+003, 9.545234e-003
1.045229e+003, 9.176943e-003
1.047157e+003, 9.175818e-003
1.049086e+003, 9.266180e-003
1.051014e+003, 8.998273e-003
1.052943e+003, 8.391087e-003
1.054871e+003, 8.103674e-003
1.056800e+003, 8.211272e-003
1.058728e+003, 8.057720e-003
1.060657e+003, 7.893964e-003
1.062585e+003, 7.800844e-003
1.064514e+003, 7.678346e-003
1.066442e+003, 7.531257e-003
1.068370e+003, 7.322395e-003
1.070299e+003, 6.817970e-003
1.072227e+003, 6.385259e-003
1.074156e+003, 6.542034e-003
1.076084e+003, 6.706285e-003
1.078013e+003, 6.701454e-003
1.079941e+003, 6.590514e-003
1.081870e+003, 6.290070e-003
1.083798e+003, 6.032331e-003
1.085727e+003, 6.067442e-003
1.087655e+003, 5.986053e-003
1.089584e+003, 5.776830e-003
1.091512e+003, 5.453980e-003
1.093441e+003, 5.274213e-003
1.095369e+003, 5.115498e-003
1.097297e+003, 5.022274e-003
1.099226e+003, 5.099973e-003
1.101154e+003, 4.843144e-003
1.103083e+003, 4.661591e-003
1.105011e+003, 4.779299e-003
1.106940e+003, 4.732151e-003
1.108868e+003, 4.522825e-003
1.110797e+003, 4.371295e-003
1.112725e+003, 4.350014e-003
1.114654e+003, 4.378200e-003
1.116582e+003, 4.319811e-003
1.118511e+003, 4.120798e-003
1.120439e+003, 3.963565e-003
1.122368e+003, 3.953403e-003
1.124296e+003, 3.989040e-003
1.126224e+003, 4.018644e-003
1.128153e+003, 3.932180e-003
1.130081e+003, 3.848471e-003
1.132010e+003, 3.904941e-003
1.133938e+003, 3.908639e-003
1.135867e+003, 3.678435e-003
1.137795e+003, 3.573709e-003
1.139724e+003, 3.576837e-003
1.141652e+003, 3.498272e-003
1.143581e+003, 3.486590e-003
1.145509e+003, 3.442439e-003
1.147438e+003, 3.370027e-003
1.149366e+003, 3.405369e-003
1.151295e+003, 3.405936e-003
1.153223e+003, 3.385250e-003
1.155151e+003, 3.314618e-003
1.157080e+003, 3.108514e-003
1.159008e+003, 3.161264e-003
1.160937e+003, 3.348334e-003
1.162865e+003, 3.268068e-003
1.164794e+003, 3.191376e-003
1.166722e+003, 3.329492e-003
1.168651e+003, 3.355770e-003
1.170579e+003, 3.234004e-003
1.172508e+003, 3.247386e-003
1.174436e+003, 3.197824e-003
1.176365e+003, 3.117301e-003
1.178293e+003, 3.029443e-003
1.180222e+003, 2.883012e-003
1.182150e+003, 2.793313e-003
1.184078e+003, 2.872273e-003
1.186007e+003, 2.853794e-003
1.187935e+003, 2.928812e-003
1.189864e+003, 3.064744e-003
1.191792e+003, 3.057476e-003
1.193721e+003, 3.050766e-003
1.195649e+003, 3.149870e-003
1.197578e+003, 3.194235e-003
1.199506e+003, 3.151274e-003
1.201435e+003, 3.037166e-003
1.203363e+003, 3.049661e-003
1.205292e+003, 3.268055e-003
1.207220e+003, 3.383380e-003
1.209149e+003, 3.298952e-003
1.211077e+003, 3.311603e-003
1.213005e+003, 3.422451e-003
1.214934e+003, 3.427729e-003
1.216862e+003, 3.483129e-003
1.218791e+003, 3.613258e-003
1.220719e+003, 3.520268e-003
1.222648e+003, 3.490514e-003
1.224576e+003, 3.624935e-003
1.226505e+003, 3.695173e-003
1.228433e+003, 3.557428e-003
1.230362e+003, 3.610661e-003
1.232290e+003, 3.749731e-003
1.234219e+003, 3.748022e-003
1.236147e+003, 3.759695e-003
1.238076e+003, 3.796627e-003
1.240004e+003, 3.741636e-003
1.241932e+003, 3.700675e-003
1.243861e+003, 3.775520e-003
1.245789e+003, 3.864473e-003
1.247718e+003, 3.847180e-003
1.249646e+003, 3.868514e-003
1.251575e+003, 3.965082e-003
1.253503e+003, 3.874639e-003
1.255432e+003, 3.855883e-003
1.257360e+003, 3.933431e-003
1.259289e+003, 3.968338e-003
1.261217e+003, 4.002239e-003
1.263146e+003, 3.982894e-003
1.265074e+003, 3.911798e-003
1.267003e+003, 4.004697e-003
1.268931e+003, 4.099104e-003
1.270859e+003, 4.061045e-003
1.272788e+003, 4.125159e-003
1.274716e+003, 4.149963e-003
1.276645e+003, 4.151084e-003
1.278573e+003, 4.214169e-003
1.280502e+003, 4.312063e-003
1.282430e+003, 4.347078e-003
1.284359e+003, 4.405513e-003
1.286287e+003, 4.474034e-003
1.288216e+003, 4.445245e-003
1.290144e+003, 4.389554e-003
1.292073e+003, 4.387616e-003
1.294001e+003, 4.525458e-003
1.295930e+003, 4.533457e-003
1.297858e+003, 4.467248e-003
1.299786e+003, 4.614855e-003
1.301715e+003, 4.760437e-003
1.303643e+003, 4.792101e-003
1.305572e+003, 4.766995e-003
1.307500e+003, 4.868761e-003
1.309429e+003, 5.022645e-003
1.311357e+003, 5.080500e-003
1.313286e+003, 5.198490e-003
1.315214e+003, 5.211621e-003
1.317143e+003, 5.337968e-003
1.319071e+003, 5.392946e-003
1.321000e+003, 5.440156e-003
1.322928e+003, 5.591269e-003
1.324857e+003, 5.677086e-003
1.326785e+003, 5.778015e-003
1.328714e+003, 5.891370e-003
1.330642e+003, 6.011019e-003
1.332570e+003, 6.015716e-003
1.334499e+003, 6.065617e-003
1.336427e+003, 6.157707e-003
1.338356e+003, 6.122449e-003
1.340284e+003, 6.110492e-003
1.342213e+003, 6.331854e-003
1.344141e+003, 6.667642e-003
1.346070e+003, 6.709420e-003
1.347998e+003, 6.522622e-003
1.349927e+003, 6.692134e-003
1.351855e+003, 6.959500e-003
1.353784e+003, 6.905656e-003
1.355712e+003, 6.974901e-003
1.357641e+003, 7.097405e-003
1.359569e+003, 7.090070e-003
1.361497e+003, 7.089215e-003
1.363426e+003, 7.215444e-003
1.365354e+003, 7.302040e-003
1.367283e+003, 7.416796e-003
1.369211e+003, 7.575149e-003
1.371140e+003, 7.597553e-003
1.373068e+003, 7.731698e-003
1.374997e+003, 7.847982e-003
1.376925e+003, 7.901195e-003
1.378854e+003, 7.828844e-003
1.380782e+003, 7.790799e-003
1.382711e+003, 7.981097e-003
1.384639e+003, 8.194506e-003
1.386568e+003, 8.312254e-003
1.388496e+003, 8.271014e-003
1.390424e+003, 8.285397e-003
1.392353e+003, 8.673377e-003
1.394281e+003, 8.938752e-003
1.396210e+003, 9.011542e-003
1.398138e+003, 9.070070e-003
1.400067e+003, 9.024618e-003
1.401995e+003, 8.960344e-003
1.403924e+003, 9.111190e-003
1.405852e+003, 9.327576e-003
1.407781e+003, 9.558614e-003
1.409709e+003, 9.733139e-003
1.411638e+003, 9.856336e-003
1.413566e+003, 9.935059e-003
1.415495e+003, 1.005935e-002
1.417423e+003, 1.036544e-002
1.419351e+003, 1.056169e-002
1.421280e+003, 1.036256e-002
1.423208e+003, 1.029251e-002
1.425137e+003, 1.037935e-002
1.427065e+003, 1.058600e-002
1.428994e+003, 1.078779e-002
1.430922e+003, 1.086314e-002
1.432851e+003, 1.073879e-002
1.434779e+003, 1.073385e-002
1.436708e+003, 1.100473e-002
1.438636e+003, 1.085811e-002
1.440565e+003, 1.063278e-002
1.442493e+003, 1.054425e-002
1.444422e+003, 1.093202e-002
1.446350e+003, 1.131685e-002
1.448278e+003, 1.123955e-002
1.450207e+003, 1.111644e-002
1.452135e+003, 1.103378e-002
1.454064e+003, 1.112811e-002
1.455992e+003, 1.164143e-002
1.457921e+003, 1.176039e-002
1.459849e+003, 1.136338e-002
1.461778e+003, 1.126765e-002
1.463706e+003, 1.144540e-002
1.465635e+003, 1.146493e-002
1.467563e+003, 1.122385e-002
1.469492e+003, 1.110229e-002
1.471420e+003, 1.128833e-002
1.473349e+003, 1.136215e-002
1.475277e+003, 1.135165e-002
1.477205e+003, 1.123458e-002
1.479134e+003, 1.104613e-002
1.481062e+003, 1.118716e-002
1.482991e+003, 1.135874e-002
1.484919e+003, 1.143521e-002
1.486848e+003, 1.163332e-002
1.488776e+003, 1.174410e-002
1.490705e+003, 1.167004e-002
1.492633e+003, 1.157285e-002
1.494562e+003, 1.157938e-002
1.496490e+003, 1.184277e-002
1.498419e+003, 1.177239e-002
1.500347e+003, 1.160822e-002
1.502276e+003, 1.152879e-002
1.504204e+003, 1.197158e-002
1.506132e+003, 1.263718e-002
1.508061e+003, 1.251506e-002
1.509989e+003, 1.213015e-002
1.511918e+003, 1.196455e-002
1.513846e+003, 1.182148e-002
1.515775e+003, 1.206336e-002
1.517703e+003, 1.218535e-002
1.519632e+003, 1.230204e-002
1.521560e+003, 1.268891e-002
1.523489e+003, 1.267525e-002
1.525417e+003, 1.270129e-002
1.527346e+003, 1.261516e-002
1.529274e+003, 1.259324e-002
1.531203e+003, 1.267856e-002
1.533131e+003, 1.287319e-002
1.535059e+003, 1.286112e-002
1.536988e+003, 1.310565e-002
1.538916e+003, 1.389133e-002
1.540845e+003, 1.403000e-002
1.542773e+003, 1.380413e-002
1.544702e+003, 1.363202e-002
1.546630e+003, 1.354915e-002
1.548559e+003, 1.389707e-002
1.550487e+003, 1.409387e-002
1.552416e+003, 1.403125e-002
1.554344e+003, 1.416979e-002
1.556273e+003, 1.449882e-002
1.558201e+003, 1.514115e-002
1.560130e+003, 1.521254e-002
1.562058e+003, 1.464278e-002
1.563986e+003, 1.454871e-002
1.565915e+003, 1.482650e-002
1.567843e+003, 1.487927e-002
1.569772e+003, 1.490948e-002
1.571700e+003, 1.487505e-002
1.573629e+003, 1.494169e-002
1.575557e+003, 1.539469e-002
1.577486e+003, 1.564216e-002
1.579414e+003, 1.545689e-002
1.581343e+003, 1.545786e-002
1.583271e+003, 1.543642e-002
1.585200e+003, 1.540940e-002
1.587128e+003, 1.547091e-002
1.589057e+003, 1.544905e-002
1.590985e+003, 1.554425e-002
1.592913e+003, 1.587527e-002
1.594842e+003, 1.580599e-002
1.596770e+003, 1.560326e-002
1.598699e+003, 1.570186e-002
1.600627e+003, 1.579322e-002
1.602556e+003, 1.591579e-002
1.604484e+003, 1.593331e-002
1.606413e+003, 1.593765e-002
1.608341e+003, 1.592931e-002
1.610270e+003, 1.599666e-002
1.612198e+003, 1.600658e-002
1.614127e+003, 1.615767e-002
1.616055e+003, 1.654968e-002
1.617984e+003, 1.631989e-002
1.619912e+003, 1.610816e-002
1.621840e+003, 1.626167e-002
1.623769e+003, 1.622622e-002
1.625697e+003, 1.608385e-002
1.627626e+003, 1.631449e-002
1.629554e+003, 1.635144e-002
1.631483e+003, 1.625386e-002
1.633411e+003, 1.637297e-002
1.635340e+003, 1.673885e-002
1.637268e+003, 1.665917e-002
1.639197e+003, 1.639150e-002
1.641125e+003, 1.641062e-002
1.643054e+003, 1.659003e-002
1.644982e+003, 1.691344e-002
1.646911e+003, 1.716391e-002
1.648839e+003, 1.695170e-002
1.650767e+003, 1.725481e-002
1.652696e+003, 1.804527e-002
1.654624e+003, 1.778338e-002
1.656553e+003, 1.730465e-002
1.658481e+003, 1.749054e-002
1.660410e+003, 1.746578e-002
1.662338e+003, 1.735832e-002
1.664267e+003, 1.741043e-002
1.666195e+003, 1.752313e-002
1.668124e+003, 1.768420e-002
1.670052e+003, 1.753960e-002
1.671981e+003, 1.741071e-002
1.673909e+003, 1.768143e-002
1.675838e+003, 1.796065e-002
1.677766e+003, 1.783672e-002
1.679694e+003, 1.793685e-002
1.681623e+003, 1.822577e-002
1.683551e+003, 1.881762e-002
1.685480e+003, 1.862782e-002
1.687408e+003, 1.813601e-002
1.689337e+003, 1.819490e-002
1.691265e+003, 1.835269e-002
1.693194e+003, 1.866462e-002
1.695122e+003, 1.917278e-002
1.697051e+003, 1.937497e-002
1.698979e+003, 1.952675e-002
1.700908e+003, 1.949562e-002
1.702836e+003, 1.906530e-002
1.704765e+003, 1.918851e-002
1.706693e+003, 1.933279e-002
1.708621e+003, 1.933238e-002
1.710550e+003, 1.936316e-002
1.712478e+003, 1.953264e-002
1.714407e+003, 1.979868e-002
1.716335e+003, 2.037796e-002
1.718264e+003, 2.031567e-002
1.720192e+003, 1.986426e-002
1.722121e+003, 1.991483e-002
1.724049e+003, 2.014085e-002
1.725978e+003, 2.032601e-002
1.727906e+003, 2.046450e-002
1.729835e+003, 2.055402e-002
1.731763e+003, 2.081516e-002
1.733692e+003, 2.118006e-002
1.735620e+003, 2.085490e-002
1.737548e+003, 2.046210e-002
1.739477e+003, 2.060776e-002
1.741405e+003, 2.033934e-002
1.743334e+003, 2.014199e-002
1.745262e+003, 1.996886e-002
1.747191e+003, 2.001559e-002
1.749119e+003, 1.998341e-002
1.751048e+003, 2.007139e-002
1.752976e+003, 2.011103e-002
1.754905e+003, 2.016121e-002
1.756833e+003, 2.013651e-002
1.758762e+003, 2.019535e-002
1.760690e+003, 2.035684e-002
1.762619e+003, 2.050312e-002
1.764547e+003, 2.053108e-002
1.766475e+003, 2.046911e-002
1.768404e+003, 2.037093e-002
1.770332e+003, 2.058430e-002
1.772261e+003, 2.080542e-002
1.774189e+003, 2.073312e-002
1.776118e+003, 2.056736e-002
1.778046e+003, 2.047971e-002
1.779975e+003, 2.057460e-002
1.781903e+003, 2.078403e-002
1.783832e+003, 2.096695e-002
1.785760e+003, 2.086986e-002
1.787689e+003, 2.080520e-002
1.789617e+003, 2.100077e-002
1.791546e+003, 2.131522e-002
1.793474e+003, 2.136870e-002
1.795402e+003, 2.113266e-002
1.797331e+003, 2.105831e-002
1.799259e+003, 2.124697e-002
1.801188e+003, 2.154532e-002
1.803116e+003, 2.136146e-002
1.805045e+003, 2.146704e-002
1.806973e+003, 2.154369e-002
1.808902e+003, 2.142433e-002
1.810830e+003, 2.141930e-002
1.812759e+003, 2.141168e-002
1.814687e+003, 2.141178e-002
1.816616e+003, 2.158887e-002
1.818544e+003, 2.194986e-002
1.820473e+003, 2.226356e-002
1.822401e+003, 2.222622e-002
1.824329e+003, 2.248322e-002
1.826258e+003, 2.262067e-002
1.828186e+003, 2.258660e-002
1.830115e+003, 2.253612e-002
1.832043e+003, 2.245340e-002
1.833972e+003, 2.268852e-002
1.835900e+003, 2.326529e-002
1.837829e+003, 2.331362e-002
1.839757e+003, 2.321839e-002
1.841686e+003, 2.311666e-002
1.843614e+003, 2.329028e-002
1.845543e+003, 2.339132e-002
1.847471e+003, 2.351207e-002
1.849400e+003, 2.297264e-002
1.851328e+003, 2.283104e-002
1.853256e+003, 2.334204e-002
1.855185e+003, 2.342563e-002
1.857113e+003, 2.334299e-002
1.859042e+003, 2.369269e-002
1.860970e+003, 2.380871e-002
1.862899e+003, 2.368560e-002
1.864827e+003, 2.425289e-002
1.866756e+003, 2.459396e-002
1.868684e+003, 2.429891e-002
1.870613e+003, 2.391656e-002
1.872541e+003, 2.379331e-002
1.874470e+003, 2.417814e-002
1.876398e+003, 2.406168e-002
1.878327e+003, 2.419282e-002
1.880255e+003, 2.455889e-002
1.882183e+003, 2.479169e-002
1.884112e+003, 2.503694e-002
1.886040e+003, 2.502017e-002
1.887969e+003, 2.473140e-002
1.889897e+003, 2.421137e-002
1.891826e+003, 2.414918e-002
1.893754e+003, 2.473463e-002
1.895683e+003, 2.493512e-002
1.897611e+003, 2.471891e-002
1.899540e+003, 2.482984e-002
1.901468e+003, 2.512091e-002
1.903397e+003, 2.517844e-002
1.905325e+003, 2.512442e-002
1.907254e+003, 2.522679e-002
1.909182e+003, 2.547719e-002
1.911110e+003, 2.592414e-002
1.913039e+003, 2.621344e-002
1.914967e+003, 2.617766e-002
1.916896e+003, 2.595806e-002
1.918824e+003, 2.626634e-002
1.920753e+003, 2.661693e-002
1.922681e+003, 2.645419e-002
1.924610e+003, 2.642629e-002
1.926538e+003, 2.670099e-002
1.928467e+003, 2.661432e-002
1.930395e+003, 2.682326e-002
1.932324e+003, 2.707994e-002
1.934252e+003, 2.645100e-002
1.936181e+003, 2.632048e-002
1.938109e+003, 2.733745e-002
1.940037e+003, 2.798975e-002
1.941966e+003, 2.813511e-002
1.943894e+003, 2.753810e-002
1.945823e+003, 2.740650e-002
1.947751e+003, 2.768163e-002
1.949680e+003, 2.778213e-002
1.951608e+003, 2.787082e-002
1.953537e+003, 2.791869e-002
1.955465e+003, 2.822117e-002
1.957394e+003, 2.874986e-002
1.959322e+003, 2.860777e-002
1.961251e+003, 2.758312e-002
1.963179e+003, 2.794746e-002
1.965108e+003, 2.874901e-002
1.967036e+003, 2.890160e-002
1.968964e+003, 3.013707e-002
1.970893e+003, 3.085557e-002
1.972821e+003, 3.020877e-002
1.974750e+003, 2.997163e-002
1.976678e+003, 3.052466e-002
1.978607e+003, 3.234646e-002
1.980535e+003, 3.236395e-002
1.982464e+003, 3.191243e-002
1.984392e+003, 3.189203e-002
1.986321e+003, 3.222201e-002
1.988249e+003, 3.277503e-002
1.990178e+003, 3.205967e-002
1.992106e+003, 3.062421e-002
1.994035e+003, 3.033240e-002
1.995963e+003, 3.039167e-002
1.997891e+003, 2.999202e-002
1.999820e+003, 3.062679e-002
2.001748e+003, 3.179299e-002
2.003677e+003, 3.075050e-002
2.005605e+003, 3.127564e-002
2.007534e+003, 3.232497e-002
2.009462e+003, 3.231802e-002
2.011391e+003, 3.350214e-002
2.013319e+003, 3.405790e-002
2.015248e+003, 3.305974e-002
2.017176e+003, 3.229269e-002
2.019105e+003, 3.144031e-002
2.021033e+003, 3.153233e-002
2.022962e+003, 3.304848e-002
2.024890e+003, 3.382954e-002
2.026818e+003, 3.293927e-002
2.028747e+003, 3.182355e-002
2.030675e+003, 3.221997e-002
2.032604e+003, 3.371111e-002
2.034532e+003, 3.392766e-002
2.036461e+003, 3.389131e-002
2.038389e+003, 3.355006e-002
2.040318e+003, 3.392382e-002
2.042246e+003, 3.371939e-002
2.044175e+003, 3.415623e-002
2.046103e+003, 3.445820e-002
2.048031e+003, 3.408465e-002
2.049960e+003, 3.417744e-002
2.051888e+003, 3.332121e-002
2.053817e+003, 3.211881e-002
2.055745e+003, 3.285085e-002
2.057674e+003, 3.338990e-002
2.059602e+003, 3.326195e-002
2.061531e+003, 3.347241e-002
2.063459e+003, 3.418265e-002
2.065388e+003, 3.404391e-002
2.067316e+003, 3.326589e-002
2.069245e+003, 3.223698e-002
2.071173e+003, 3.237857e-002
2.073102e+003, 3.317552e-002
2.075030e+003, 3.341349e-002
2.076958e+003, 3.387044e-002
2.078887e+003, 3.489023e-002
2.080815e+003, 3.440484e-002
2.082744e+003, 3.344755e-002
2.084672e+003, 3.326510e-002
2.086601e+003, 3.383490e-002
2.088529e+003, 3.358842e-002
2.090458e+003, 3.339945e-002
2.092386e+003, 3.306322e-002
2.094315e+003, 3.280667e-002
2.096243e+003, 3.353858e-002
2.098172e+003, 3.385944e-002
2.100100e+003, 3.390934e-002
2.102029e+003, 3.378594e-002
2.103957e+003, 3.353022e-002
2.105885e+003, 3.355958e-002
2.107814e+003, 3.359342e-002
2.109742e+003, 3.381222e-002
2.111671e+003, 3.431405e-002
2.113599e+003, 3.445445e-002
2.115528e+003, 3.421978e-002
2.117456e+003, 3.402059e-002
2.119385e+003, 3.394329e-002
2.121313e+003, 3.406279e-002
2.123242e+003, 3.374130e-002
2.125170e+003, 3.337112e-002
2.127099e+003, 3.330875e-002
2.129027e+003, 3.280442e-002
2.130956e+003, 3.273092e-002
2.132884e+003, 3.326388e-002
2.134813e+003, 3.374074e-002
2.136741e+003, 3.348440e-002
2.138669e+003, 3.392054e-002
2.140598e+003, 3.480833e-002
2.142526e+003, 3.545506e-002
2.144455e+003, 3.609089e-002
2.146383e+003, 3.566237e-002
2.148312e+003, 3.522001e-002
2.150240e+003, 3.580847e-002
2.152169e+003, 3.619269e-002
2.154097e+003, 3.618076e-002
2.156026e+003, 3.593941e-002
2.157954e+003, 3.768141e-002
2.159883e+003, 4.044485e-002
2.161811e+003, 4.097415e-002
2.163740e+003, 4.069823e-002
2.165668e+003, 4.021671e-002
2.167596e+003, 3.906472e-002
2.169525e+003, 3.841747e-002
2.171453e+003, 3.875715e-002
2.173382e+003, 3.774669e-002
2.175310e+003, 3.843847e-002
2.177239e+003, 3.842100e-002
2.179167e+003, 3.765368e-002
2.181096e+003, 3.823131e-002
2.183024e+003, 3.869539e-002
2.184953e+003, 3.848987e-002
2.186881e+003, 3.971232e-002
2.188810e+003, 4.032965e-002
2.190738e+003, 4.114261e-002
2.192667e+003, 4.089711e-002
2.194595e+003, 4.051447e-002
2.196523e+003, 3.912756e-002
2.198452e+003, 3.808840e-002
2.200380e+003, 3.857800e-002
2.202309e+003, 3.932413e-002
2.204237e+003, 3.960882e-002
2.206166e+003, 3.975632e-002
2.208094e+003, 3.936211e-002
2.210023e+003, 3.928716e-002
2.211951e+003, 4.005143e-002
2.213880e+003, 4.041013e-002
2.215808e+003, 4.082374e-002
2.217737e+003, 4.017511e-002
2.219665e+003, 3.826803e-002
2.221594e+003, 3.768974e-002
2.223522e+003, 3.867548e-002
2.225450e+003, 3.952493e-002
2.227379e+003, 3.971134e-002
2.229307e+003, 4.007910e-002
2.231236e+003, 4.074598e-002
2.233164e+003, 4.084294e-002
2.235093e+003, 4.056496e-002
2.237021e+003, 4.030099e-002
2.238950e+003, 3.962033e-002
2.240878e+003, 3.922479e-002
2.242807e+003, 3.929971e-002
2.244735e+003, 3.969467e-002
2.246664e+003, 4.056316e-002
2.248592e+003, 4.043490e-002
2.250521e+003, 3.963971e-002
2.252449e+003, 3.969217e-002
2.254377e+003, 4.048381e-002
2.256306e+003, 4.033972e-002
2.258234e+003, 4.017080e-002
2.260163e+003, 4.096749e-002
2.262091e+003, 4.135792e-002
2.264020e+003, 4.074625e-002
2.265948e+003, 4.057861e-002
2.267877e+003, 4.079233e-002
2.269805e+003, 4.039370e-002
2.271734e+003, 4.013187e-002
2.273662e+003, 4.086349e-002
2.275591e+003, 4.096338e-002
2.277519e+003, 3.978438e-002
2.279448e+003, 3.996620e-002
2.281376e+003, 4.051205e-002
2.283304e+003, 4.113488e-002
2.285233e+003, 4.196363e-002
2.287161e+003, 4.161284e-002
2.289090e+003, 4.115397e-002
2.291018e+003, 4.141637e-002
2.292947e+003, 4.153646e-002
2.294875e+003, 4.139423e-002
2.296804e+003, 4.149827e-002
2.298732e+003, 4.163419e-002
2.300661e+003, 4.094376e-002
2.302589e+003, 4.055102e-002
2.304518e+003, 4.084806e-002
2.306446e+003, 4.146354e-002
2.308375e+003, 4.161037e-002
2.310303e+003, 4.161880e-002
2.312231e+003, 4.169978e-002
2.314160e+003, 4.174967e-002
2.316088e+003, 4.181734e-002
2.318017e+003, 4.205955e-002
2.319945e+003, 4.248406e-002
2.321874e+003, 4.292253e-002
2.323802e+003, 4.307019e-002
2.325731e+003, 4.249194e-002
2.327659e+003, 4.182101e-002
2.329588e+003, 4.184279e-002
2.331516e+003, 4.245875e-002
2.333445e+003, 4.299864e-002
2.335373e+003, 4.300318e-002
2.337302e+003, 4.288033e-002
2.339230e+003, 4.272249e-002
2.341158e+003, 4.268806e-002
2.343087e+003, 4.277083e-002
2.345015e+003, 4.243131e-002
2.346944e+003, 4.206530e-002
2.348872e+003, 4.200863e-002
2.350801e+003, 4.210123e-002
2.352729e+003, 4.271955e-002
2.354658e+003, 4.349309e-002
2.356586e+003, 4.360579e-002
2.358515e+003, 4.360657e-002
2.360443e+003, 4.382521e-002
2.362372e+003, 4.387826e-002
2.364300e+003, 4.403141e-002
2.366229e+003, 4.407305e-002
2.368157e+003, 4.372696e-002
2.370085e+003, 4.366998e-002
2.372014e+003, 4.349397e-002
2.373942e+003, 4.302796e-002
2.375871e+003, 4.301293e-002
2.377799e+003, 4.310789e-002
2.379728e+003, 4.335761e-002
2.381656e+003, 4.356072e-002
2.383585e+003, 4.316740e-002
2.385513e+003, 4.321831e-002
2.387442e+003, 4.331536e-002
2.389370e+003, 4.293505e-002
2.391299e+003, 4.293329e-002
2.393227e+003, 4.303585e-002
2.395156e+003, 4.349851e-002
2.397084e+003, 4.384157e-002
2.399012e+003, 4.409923e-002
2.400941e+003, 4.413575e-002
2.402869e+003, 4.430569e-002
2.404798e+003, 4.401632e-002
2.406726e+003, 4.397742e-002
2.408655e+003, 4.476973e-002
2.410583e+003, 4.478640e-002
2.412512e+003, 4.476901e-002
2.414440e+003, 4.483468e-002
2.416369e+003, 4.447599e-002
2.418297e+003, 4.467066e-002
2.420226e+003, 4.512082e-002
2.422154e+003, 4.525722e-002
2.424083e+003, 4.486143e-002
2.426011e+003, 4.433056e-002
2.427939e+003, 4.476156e-002
2.429868e+003, 4.511915e-002
2.431796e+003, 4.502285e-002
2.433725e+003, 4.547502e-002
2.435653e+003, 4.547634e-002
2.437582e+003, 4.501189e-002
2.439510e+003, 4.470774e-002
2.441439e+003, 4.506058e-002
2.443367e+003, 4.555944e-002
2.445296e+003, 4.534939e-002
2.447224e+003, 4.543381e-002
2.449153e+003, 4.584894e-002
2.451081e+003, 4.538913e-002
2.453010e+003, 4.539270e-002
2.454938e+003, 4.597449e-002
2.456866e+003, 4.637401e-002
2.458795e+003, 4.590230e-002
2.460723e+003, 4.613604e-002
2.462652e+003, 4.641810e-002
2.464580e+003, 4.632261e-002
2.466509e+003, 4.592457e-002
2.468437e+003, 4.539179e-002
2.470366e+003, 4.556141e-002
2.472294e+003, 4.592225e-002
2.474223e+003, 4.605553e-002
2.476151e+003, 4.617004e-002
2.478080e+003, 4.668523e-002
2.480008e+003, 4.689287e-002
2.481937e+003, 4.731851e-002
2.483865e+003, 4.778653e-002
2.485793e+003, 4.779351e-002
2.487722e+003, 4.745826e-002
2.489650e+003, 4.709759e-002
2.491579e+003, 4.702620e-002
2.493507e+003, 4.745374e-002
2.495436e+003, 4.791399e-002
2.497364e+003, 4.762154e-002
2.499293e+003, 4.782741e-002
2.501221e+003, 4.800463e-002
2.503150e+003, 4.738709e-002
2.505078e+003, 4.684017e-002
2.507007e+003, 4.685177e-002
2.508935e+003, 4.716852e-002
2.510864e+003, 4.778795e-002
2.512792e+003, 4.825098e-002
2.514720e+003, 4.820833e-002
2.516649e+003, 4.792001e-002
2.518577e+003, 4.779597e-002
2.520506e+003, 4.733538e-002
2.522434e+003, 4.748506e-002
2.524363e+003, 4.771826e-002
2.526291e+003, 4.768556e-002
2.528220e+003, 4.786659e-002
2.530148e+003, 4.861790e-002
2.532077e+003, 4.890886e-002
2.534005e+003, 4.877486e-002
2.535934e+003, 4.888911e-002
2.537862e+003, 4.844607e-002
2.539791e+003, 4.789194e-002
2.541719e+003, 4.850456e-002
2.543647e+003, 4.824285e-002
2.545576e+003, 4.856952e-002
2.547504e+003, 4.895256e-002
2.549433e+003, 4.904569e-002
2.551361e+003, 4.939653e-002
2.553290e+003, 4.910096e-002
2.555218e+003, 4.834777e-002
2.557147e+003, 4.815126e-002
2.559075e+003, 4.860287e-002
2.561004e+003, 4.892755e-002
2.562932e+003, 4.919266e-002
2.564861e+003, 4.938601e-002
2.566789e+003, 4.926251e-002
2.568718e+003, 4.954854e-002
2.570646e+003, 4.995871e-002
2.572574e+003, 4.959656e-002
2.574503e+003, 4.951790e-002
2.576431e+003, 4.978248e-002
2.578360e+003, 4.967443e-002
2.580288e+003, 4.939596e-002
2.582217e+003, 4.943153e-002
2.584145e+003, 4.958237e-002
2.586074e+003, 4.999969e-002
2.588002e+003, 5.002667e-002
2.589931e+003, 4.951813e-002
2.591859e+003, 4.950044e-002
2.593788e+003, 5.000472e-002
2.595716e+003, 5.016643e-002
2.597645e+003, 5.055434e-002
2.599573e+003, 5.068403e-002
2.601501e+003, 5.064455e-002
2.603430e+003, 5.088826e-002
2.605358e+003, 5.076686e-002
2.607287e+003, 5.053268e-002
2.609215e+003, 5.020110e-002
2.611144e+003, 5.025087e-002
2.613072e+003, 5.057755e-002
2.615001e+003, 5.048161e-002
2.616929e+003, 5.031943e-002
2.618858e+003, 5.070150e-002
2.620786e+003, 5.064205e-002
2.622715e+003, 5.062326e-002
2.624643e+003, 5.094700e-002
2.626572e+003, 5.111994e-002
2.628500e+003, 5.120084e-002
2.630428e+003, 5.140778e-002
2.632357e+003, 5.130361e-002
2.634285e+003, 5.122052e-002
2.636214e+003, 5.143168e-002
2.638142e+003, 5.152114e-002
2.640071e+003, 5.123851e-002
2.641999e+003, 5.109168e-002
2.643928e+003, 5.121544e-002
2.645856e+003, 5.117836e-002
2.647785e+003, 5.108487e-002
2.649713e+003, 5.135992e-002
2.651642e+003, 5.144323e-002
2.653570e+003, 5.101947e-002
2.655499e+003, 5.117667e-002
2.657427e+003, 5.165334e-002
2.659355e+003, 5.161721e-002
2.661284e+003, 5.152186e-002
2.663212e+003, 5.157008e-002
2.665141e+003, 5.184937e-002
2.667069e+003, 5.192912e-002
2.668998e+003, 5.185588e-002
2.670926e+003, 5.167588e-002
2.672855e+003, 5.134638e-002
2.674783e+003, 5.148245e-002
2.676712e+003, 5.200213e-002
2.678640e+003, 5.199467e-002
2.680569e+003, 5.197750e-002
2.682497e+003, 5.221714e-002
2.684426e+003, 5.243051e-002
2.686354e+003, 5.236307e-002
2.688282e+003, 5.226082e-002
2.690211e+003, 5.242193e-002
2.692139e+003, 5.243040e-002
2.694068e+003, 5.243958e-002
2.695996e+003, 5.271219e-002
2.697925e+003, 5.277206e-002
2.699853e+003, 5.268870e-002
2.701782e+003, 5.278176e-002
2.703710e+003, 5.286555e-002
2.705639e+003, 5.277638e-002
2.707567e+003, 5.264445e-002
2.709496e+003, 5.302581e-002
2.711424e+003, 5.332927e-002
2.713353e+003, 5.330634e-002
2.715281e+003, 5.345916e-002
2.717209e+003, 5.344683e-002
2.719138e+003, 5.346289e-002
2.721066e+003, 5.358797e-002
2.722995e+003, 5.356790e-002
2.724923e+003, 5.373101e-002
2.726852e+003, 5.422144e-002
2.728780e+003, 5.432292e-002
2.730709e+003, 5.388429e-002
2.732637e+003, 5.389164e-002
2.734566e+003, 5.406025e-002
2.736494e+003, 5.415445e-002
2.738423e+003, 5.415558e-002
2.740351e+003, 5.433865e-002
2.742280e+003, 5.483910e-002
2.744208e+003, 5.491928e-002
2.746136e+003, 5.439089e-002
2.748065e+003, 5.421220e-002
2.749993e+003, 5.451430e-002
2.751922e+003, 5.472605e-002
2.753850e+003, 5.487722e-002
2.755779e+003, 5.512273e-002
2.757707e+003, 5.524369e-002
2.759636e+003, 5.491335e-002
2.761564e+003, 5.500584e-002
2.763493e+003, 5.531711e-002
2.765421e+003, 5.536550e-002
2.767350e+003, 5.537252e-002
2.769278e+003, 5.543166e-002
2.771207e+003, 5.569096e-002
2.773135e+003, 5.571104e-002
2.775063e+003, 5.564039e-002
2.776992e+003, 5.578775e-002
2.778920e+003, 5.590770e-002
2.780849e+003, 5.592025e-002
2.782777e+003, 5.583503e-002
2.784706e+003, 5.602873e-002
2.786634e+003, 5.624618e-002
2.788563e+003, 5.606782e-002
2.790491e+003, 5.625051e-002
2.792420e+003, 5.689964e-002
2.794348e+003, 5.691128e-002
2.796277e+003, 5.640585e-002
2.798205e+003, 5.649419e-002
2.800134e+003, 5.672947e-002
2.802062e+003, 5.693977e-002
2.803990e+003, 5.699725e-002
2.805919e+003, 5.732458e-002
2.807847e+003, 5.731522e-002
2.809776e+003, 5.689868e-002
2.811704e+003, 5.692289e-002
2.813633e+003, 5.745774e-002
2.815561e+003, 5.787579e-002
2.817490e+003, 5.808811e-002
2.819418e+003, 5.807183e-002
2.821347e+003, 5.792356e-002
2.823275e+003, 5.794315e-002
2.825204e+003, 5.794779e-002
2.827132e+003, 5.817012e-002
2.829061e+003, 5.851875e-002
2.830989e+003, 5.838767e-002
2.832917e+003, 5.812028e-002
2.834846e+003, 5.881339e-002
2.836774e+003, 5.931816e-002
2.838703e+003, 5.908492e-002
2.840631e+003, 5.910394e-002
2.842560e+003, 5.904535e-002
2.844488e+003, 5.906168e-002
2.846417e+003, 5.875264e-002
2.848345e+003, 5.851298e-002
2.850274e+003, 5.878590e-002
2.852202e+003, 5.930988e-002
2.854131e+003, 5.944046e-002
2.856059e+003, 5.915274e-002
2.857988e+003, 5.956510e-002
2.859916e+003, 5.997409e-002
2.861844e+003, 5.990567e-002
2.863773e+003, 5.962117e-002
2.865701e+003, 5.956827e-002
2.867630e+003, 5.956661e-002
2.869558e+003, 5.958252e-002
2.871487e+003, 5.990903e-002
2.873415e+003, 6.015906e-002
2.875344e+003, 5.974572e-002
2.877272e+003, 5.965589e-002
2.879201e+003, 5.974451e-002
2.881129e+003, 5.975869e-002
2.883058e+003, 6.041868e-002
2.884986e+003, 6.108472e-002
2.886915e+003, 6.042703e-002
2.888843e+003, 6.006769e-002
2.890771e+003, 6.041520e-002
2.892700e+003, 6.055909e-002
2.894628e+003, 6.037474e-002
2.896557e+003, 6.011976e-002
2.898485e+003, 6.013248e-002
2.900414e+003, 6.087489e-002
2.902342e+003, 6.138689e-002
2.904271e+003, 6.141889e-002
2.906199e+003, 6.143662e-002
2.908128e+003, 6.195032e-002
2.910056e+003, 6.173724e-002
2.911985e+003, 6.133284e-002
2.913913e+003, 6.154820e-002
2.915842e+003, 6.210034e-002
2.917770e+003, 6.210689e-002
2.919698e+003, 6.255369e-002
2.921627e+003, 6.295732e-002
2.923555e+003, 6.269260e-002
2.925484e+003, 6.254557e-002
2.927412e+003, 6.268126e-002
2.929341e+003, 6.198708e-002
2.931269e+003, 6.170528e-002
2.933198e+003, 6.193349e-002
2.935126e+003, 6.207478e-002
2.937055e+003, 6.201217e-002
2.938983e+003, 6.193318e-002
2.940912e+003, 6.254667e-002
2.942840e+003, 6.268455e-002
2.944769e+003, 6.237521e-002
2.946697e+003, 6.144212e-002
2.948625e+003, 6.134262e-002
2.950554e+003, 6.230294e-002
2.952482e+003, 6.300923e-002
2.954411e+003, 6.333329e-002
2.956339e+003, 6.316388e-002
2.958268e+003, 6.274122e-002
2.960196e+003, 6.204398e-002
2.962125e+003, 6.195236e-002
2.964053e+003, 6.210555e-002
2.965982e+003, 6.228705e-002
2.967910e+003, 6.249569e-002
2.969839e+003, 6.274982e-002
2.971767e+003, 6.231182e-002
2.973696e+003, 6.185032e-002
2.975624e+003, 6.196139e-002
2.977552e+003, 6.206209e-002
2.979481e+003, 6.177420e-002
2.981409e+003, 6.126244e-002
2.983338e+003, 6.133192e-002
2.985266e+003, 6.182247e-002
2.987195e+003, 6.162138e-002
2.989123e+003, 6.137329e-002
2.991052e+003, 6.183086e-002
2.992980e+003, 6.252476e-002
2.994909e+003, 6.268334e-002
2.996837e+003, 6.269535e-002
2.998766e+003, 6.264697e-002
3.000694e+003, 6.202089e-002
3.002623e+003, 6.208381e-002
3.004551e+003, 6.192429e-002
3.006479e+003, 6.217035e-002
3.008408e+003, 6.300645e-002
3.010336e+003, 6.334551e-002
3.012265e+003, 6.317060e-002
3.014193e+003, 6.337687e-002
3.016122e+003, 6.369322e-002
3.018050e+003, 6.324471e-002
3.019979e+003, 6.328985e-002
3.021907e+003, 6.322099e-002
3.023836e+003, 6.332778e-002
3.025764e+003, 6.406378e-002
3.027693e+003, 6.413580e-002
3.029621e+003, 6.377533e-002
3.031550e+003, 6.366558e-002
3.033478e+003, 6.373352e-002
3.035406e+003, 6.391422e-002
3.037335e+003, 6.443029e-002
3.039263e+003, 6.433427e-002
3.041192e+003, 6.419852e-002
3.043120e+003, 6.426156e-002
3.045049e+003, 6.418610e-002
3.046977e+003, 6.399255e-002
3.048906e+003, 6.421586e-002
3.050834e+003, 6.476536e-002
3.052763e+003, 6.498243e-002
3.054691e+003, 6.519336e-002
3.056620e+003, 6.511133e-002
3.058548e+003, 6.438171e-002
3.060477e+003, 6.452417e-002
3.062405e+003, 6.462353e-002
3.064333e+003, 6.498190e-002
3.066262e+003, 6.483323e-002
3.068190e+003, 6.505621e-002
3.070119e+003, 6.550968e-002
3.072047e+003, 6.509844e-002
3.073976e+003, 6.510359e-002
3.075904e+003, 6.571343e-002
3.077833e+003, 6.550430e-002
3.079761e+003, 6.515541e-002
3.081690e+003, 6.545052e-002
3.083618e+003, 6.576736e-002
3.085547e+003, 6.552503e-002
3.087475e+003, 6.572498e-002
3.089404e+003, 6.570648e-002
3.091332e+003, 6.544364e-002
3.093260e+003, 6.558391e-002
3.095189e+003, 6.592786e-002
3.097117e+003, 6.642977e-002
3.099046e+003, 6.556921e-002
3.100974e+003, 6.517222e-002
3.102903e+003, 6.551276e-002
3.104831e+003, 6.553663e-002
3.106760e+003, 6.596989e-002
3.108688e+003, 6.572791e-002
3.110617e+003, 6.553097e-002
3.112545e+003, 6.565236e-002
3.114474e+003, 6.651790e-002
3.116402e+003, 6.690069e-002
3.118331e+003, 6.707519e-002
3.120259e+003, 6.685086e-002
3.122188e+003, 6.679176e-002
3.124116e+003, 6.738956e-002
3.126044e+003, 6.793632e-002
3.127973e+003, 6.742538e-002
3.129901e+003, 6.698794e-002
3.131830e+003, 6.719601e-002
3.133758e+003, 6.746846e-002
3.135687e+003, 6.784422e-002
3.137615e+003, 6.779405e-002
3.139544e+003, 6.720163e-002
3.141472e+003, 6.686079e-002
3.143401e+003, 6.801101e-002
3.145329e+003, 6.861556e-002
3.147258e+003, 6.807626e-002
3.149186e+003, 6.867523e-002
3.151115e+003, 6.905140e-002
3.153043e+003, 6.811751e-002
3.154971e+003, 6.833201e-002
3.156900e+003, 6.831341e-002
3.158828e+003, 6.778507e-002
3.160757e+003, 6.832466e-002
3.162685e+003, 6.877130e-002
3.164614e+003, 6.895787e-002
3.166542e+003, 6.877540e-002
3.168471e+003, 6.904478e-002
3.170399e+003, 6.897999e-002
3.172328e+003, 6.835474e-002
3.174256e+003, 6.881944e-002
3.176185e+003, 6.926843e-002
3.178113e+003, 6.867528e-002
3.180042e+003, 6.810091e-002
3.181970e+003, 6.840607e-002
3.183898e+003, 6.921005e-002
3.185827e+003, 6.903979e-002
3.187755e+003, 6.924514e-002
3.189684e+003, 6.955538e-002
3.191612e+003, 6.939784e-002
3.193541e+003, 6.907938e-002
3.195469e+003, 6.912277e-002
3.197398e+003, 6.984502e-002
3.199326e+003, 7.025919e-002
3.201255e+003, 6.984160e-002
3.203183e+003, 6.958506e-002
3.205112e+003, 6.975848e-002
3.207040e+003, 6.958160e-002
3.208969e+003, 6.994583e-002
3.210897e+003, 7.038113e-002
3.212825e+003, 7.039228e-002
3.214754e+003, 7.010083e-002
3.216682e+003, 6.988784e-002
3.218611e+003, 7.034732e-002
3.220539e+003, 7.054412e-002
3.222468e+003, 7.014836e-002
3.224396e+003, 7.033480e-002
3.226325e+003, 7.053290e-002
3.228253e+003, 7.059294e-002
3.230182e+003, 7.034554e-002
3.232110e+003, 7.036591e-002
3.234039e+003, 7.020308e-002
3.235967e+003, 6.975912e-002
3.237896e+003, 7.034004e-002
3.239824e+003, 7.135768e-002
3.241752e+003, 7.122027e-002
3.243681e+003, 7.071681e-002
3.245609e+003, 7.099260e-002
3.247538e+003, 7.149724e-002
3.249466e+003, 7.118148e-002
3.251395e+003, 7.114815e-002
3.253323e+003, 7.179518e-002
3.255252e+003, 7.126001e-002
3.257180e+003, 7.102031e-002
3.259109e+003, 7.150583e-002
3.261037e+003, 7.124098e-002
3.262966e+003, 7.116055e-002
3.264894e+003, 7.180811e-002
3.266823e+003, 7.153561e-002
3.268751e+003, 7.099760e-002
3.270679e+003, 7.090653e-002
3.272608e+003, 7.143024e-002
3.274536e+003, 7.184751e-002
3.276465e+003, 7.165942e-002
3.278393e+003, 7.175643e-002
3.280322e+003, 7.236126e-002
3.282250e+003, 7.234751e-002
3.284179e+003, 7.125524e-002
3.286107e+003, 7.064310e-002
3.288036e+003, 7.142276e-002
3.289964e+003, 7.163599e-002
3.291893e+003, 7.199901e-002
3.293821e+003, 7.213543e-002
3.295750e+003, 7.171512e-002
3.297678e+003, 7.212463e-002
3.299606e+003, 7.226868e-002
3.301535e+003, 7.177706e-002
3.303463e+003, 7.114641e-002
3.305392e+003, 7.116827e-002
3.307320e+003, 7.187369e-002
3.309249e+003, 7.231105e-002
3.311177e+003, 7.201599e-002
3.313106e+003, 7.210226e-002
3.315034e+003, 7.283187e-002
3.316963e+003, 7.289597e-002
3.318891e+003, 7.245907e-002
3.320820e+003, 7.186736e-002
3.322748e+003, 7.250877e-002
3.324677e+003, 7.310223e-002
3.326605e+003, 7.357857e-002
3.328533e+003, 7.348975e-002
3.330462e+003, 7.332962e-002
3.332390e+003, 7.311736e-002
3.334319e+003, 7.302837e-002
3.336247e+003, 7.348131e-002
3.338176e+003, 7.299291e-002
3.340104e+003, 7.245979e-002
3.342033e+003, 7.213825e-002
3.343961e+003, 7.225103e-002
3.345890e+003, 7.245338e-002
3.347818e+003, 7.287716e-002
3.349747e+003, 7.340083e-002
3.351675e+003, 7.333890e-002
3.353604e+003, 7.357347e-002
3.355532e+003, 7.429256e-002
3.357460e+003, 7.393367e-002
3.359389e+003, 7.382286e-002
3.361317e+003, 7.392182e-002
3.363246e+003, 7.375394e-002
3.365174e+003, 7.362877e-002
3.367103e+003, 7.378349e-002
3.369031e+003, 7.444848e-002
3.370960e+003, 7.496327e-002
3.372888e+003, 7.474152e-002
3.374817e+003, 7.423846e-002
3.376745e+003, 7.384193e-002
3.378674e+003, 7.383783e-002
3.380602e+003, 7.412583e-002
3.382531e+003, 7.428624e-002
3.384459e+003, 7.449339e-002
3.386387e+003, 7.461351e-002
3.388316e+003, 7.476608e-002
3.390244e+003, 7.474422e-002
3.392173e+003, 7.438711e-002
3.394101e+003, 7.423779e-002
3.396030e+003, 7.404521e-002
3.397958e+003, 7.411402e-002
3.399887e+003, 7.508695e-002
3.401815e+003, 7.517069e-002
3.403744e+003, 7.502238e-002
3.405672e+003, 7.491673e-002
3.407601e+003, 7.477222e-002
3.409529e+003, 7.492790e-002
3.411458e+003, 7.497574e-002
3.413386e+003, 7.518244e-002
3.415314e+003, 7.580695e-002
3.417243e+003, 7.614888e-002
3.419171e+003, 7.591688e-002
3.421100e+003, 7.490330e-002
3.423028e+003, 7.474193e-002
3.424957e+003, 7.561841e-002
3.426885e+003, 7.630459e-002
3.428814e+003, 7.570811e-002
3.430742e+003, 7.551318e-002
3.432671e+003, 7.567301e-002
3.434599e+003, 7.624002e-002
3.436528e+003, 7.619967e-002
3.438456e+003, 7.561561e-002
3.440385e+003, 7.593960e-002
3.442313e+003, 7.650560e-002
3.444241e+003, 7.610098e-002
3.446170e+003, 7.557986e-002
3.448098e+003, 7.524512e-002
3.450027e+003, 7.623424e-002
3.451955e+003, 7.697742e-002
3.453884e+003, 7.653514e-002
3.455812e+003, 7.644376e-002
3.457741e+003, 7.627329e-002
3.459669e+003, 7.609671e-002
3.461598e+003, 7.516731e-002
3.463526e+003, 7.507396e-002
3.465455e+003, 7.596718e-002
3.467383e+003, 7.617513e-002
3.469312e+003, 7.508553e-002
3.471240e+003, 7.498970e-002
3.473168e+003, 7.612018e-002
3.475097e+003, 7.687712e-002
3.477025e+003, 7.661396e-002
3.478954e+003, 7.643647e-002
3.480882e+003, 7.653454e-002
3.482811e+003, 7.617944e-002
3.484739e+003, 7.593835e-002
3.486668e+003, 7.698103e-002
3.488596e+003, 7.778575e-002
3.490525e+003, 7.719883e-002
3.492453e+003, 7.631806e-002
3.494382e+003, 7.639514e-002
3.496310e+003, 7.622278e-002
3.498239e+003, 7.550120e-002
3.500167e+003, 7.543959e-002
3.502095e+003, 7.580104e-002
3.504024e+003, 7.576151e-002
3.505952e+003, 7.620752e-002
3.507881e+003, 7.727905e-002
3.509809e+003, 7.713178e-002
3.511738e+003, 7.622441e-002
3.513666e+003, 7.648095e-002
3.515595e+003, 7.584653e-002
3.517523e+003, 7.618397e-002
3.519452e+003, 7.705875e-002
3.521380e+003, 7.712024e-002
3.523309e+003, 7.761463e-002
3.525237e+003, 7.779130e-002
3.527166e+003, 7.776438e-002
3.529094e+003, 7.743025e-002
3.531022e+003, 7.741509e-002
3.532951e+003, 7.736627e-002
3.534879e+003, 7.678865e-002
3.536808e+003, 7.702890e-002
3.538736e+003, 7.716004e-002
3.540665e+003, 7.685932e-002
3.542593e+003, 7.664651e-002
3.544522e+003, 7.686600e-002
3.546450e+003, 7.727375e-002
3.548379e+003, 7.807895e-002
3.550307e+003, 7.806928e-002
3.552236e+003, 7.653388e-002
3.554164e+003, 7.580934e-002
3.556093e+003, 7.681213e-002
3.558021e+003, 7.710385e-002
3.559949e+003, 7.769886e-002
3.561878e+003, 7.766760e-002
3.563806e+003, 7.811175e-002
3.565735e+003, 7.891556e-002
3.567663e+003, 7.788599e-002
3.569592e+003, 7.591034e-002
3.571520e+003, 7.579751e-002
3.573449e+003, 7.606076e-002
3.575377e+003, 7.687612e-002
3.577306e+003, 7.716134e-002
3.579234e+003, 7.648957e-002
3.581163e+003, 7.766334e-002
3.583091e+003, 7.788139e-002
3.585020e+003, 7.784163e-002
3.586948e+003, 7.755232e-002
3.588876e+003, 7.631432e-002
3.590805e+003, 7.539079e-002
3.592733e+003, 7.609671e-002
3.594662e+003, 7.738151e-002
3.596590e+003, 7.840009e-002
3.598519e+003, 7.895347e-002
3.600447e+003, 7.845505e-002
3.602376e+003, 7.732093e-002
3.604304e+003, 7.682776e-002
3.606233e+003, 7.712704e-002
3.608161e+003, 7.743217e-002
3.610090e+003, 7.780311e-002
3.612018e+003, 7.793586e-002
3.613947e+003, 7.683271e-002
3.615875e+003, 7.670222e-002
3.617803e+003, 7.790562e-002
3.619732e+003, 7.847545e-002
3.621660e+003, 7.781719e-002
3.623589e+003, 7.813934e-002
3.625517e+003, 7.851639e-002
3.627446e+003, 7.835856e-002
3.629374e+003, 7.918009e-002
3.631303e+003, 7.883140e-002
3.633231e+003, 7.885099e-002
3.635160e+003, 7.897996e-002
3.637088e+003, 7.822288e-002
3.639017e+003, 7.727314e-002
3.640945e+003, 7.633486e-002
3.642874e+003, 7.656000e-002
3.644802e+003, 7.891054e-002
3.646730e+003, 8.015832e-002
3.648659e+003, 8.020706e-002
3.650587e+003, 8.118583e-002
3.652516e+003, 8.040502e-002
3.654444e+003, 7.899471e-002
3.656373e+003, 7.935845e-002
3.658301e+003, 7.933303e-002
3.660230e+003, 7.906521e-002
3.662158e+003, 7.858625e-002
3.664087e+003, 7.786070e-002
3.666015e+003, 7.765613e-002
3.667944e+003, 7.860454e-002
3.669872e+003, 7.928576e-002
3.671801e+003, 7.887024e-002
3.673729e+003, 7.879017e-002
3.675657e+003, 7.958945e-002
3.677586e+003, 7.984103e-002
3.679514e+003, 7.889874e-002
3.681443e+003, 7.822003e-002
3.683371e+003, 7.820166e-002
3.685300e+003, 7.765390e-002
3.687228e+003, 7.930112e-002
3.689157e+003, 8.111454e-002
3.691085e+003, 8.053709e-002
3.693014e+003, 7.921726e-002
3.694942e+003, 7.932680e-002
3.696871e+003, 8.069719e-002
3.698799e+003, 8.100466e-002
3.700728e+003, 8.116374e-002
3.702656e+003, 8.062766e-002
3.704584e+003, 8.014446e-002
3.706513e+003, 8.060021e-002
3.708441e+003, 8.113609e-002
3.710370e+003, 8.046075e-002
3.712298e+003, 7.988011e-002
3.714227e+003, 7.921697e-002
3.716155e+003, 7.999777e-002
3.718084e+003, 8.078927e-002
3.720012e+003, 8.015256e-002
3.721941e+003, 8.028911e-002
3.723869e+003, 8.107908e-002
3.725798e+003, 8.044639e-002
3.727726e+003, 7.954471e-002
3.729655e+003, 7.961442e-002
3.731583e+003, 8.076286e-002
3.733511e+003, 8.244923e-002
3.735440e+003, 8.196800e-002
3.737368e+003, 8.112538e-002
3.739297e+003, 8.145367e-002
3.741225e+003, 8.233932e-002
3.743154e+003, 8.381146e-002
3.745082e+003, 8.419726e-002
3.747011e+003, 8.227415e-002
3.748939e+003, 8.202057e-002
3.750868e+003, 8.204120e-002
3.752796e+003, 8.222997e-002
3.754725e+003, 8.114223e-002
3.756653e+003, 8.118521e-002
3.758582e+003, 8.153360e-002
3.760510e+003, 8.096504e-002
3.762438e+003, 8.081059e-002
3.764367e+003, 8.008148e-002
3.766295e+003, 8.060081e-002
3.768224e+003, 8.189476e-002
3.770152e+003, 8.176070e-002
3.772081e+003, 8.166654e-002
3.774009e+003, 8.141982e-002
3.775938e+003, 8.109093e-002
3.777866e+003, 8.250496e-002
3.779795e+003, 8.333891e-002
3.781723e+003, 8.189164e-002
3.783652e+003, 8.091626e-002
3.785580e+003, 8.048376e-002
3.787509e+003, 8.148462e-002
3.789437e+003, 8.223449e-002
3.791365e+003, 8.341298e-002
3.793294e+003, 8.293494e-002
3.795222e+003, 8.177531e-002
3.797151e+003, 8.216210e-002
3.799079e+003, 8.251665e-002
3.801008e+003, 8.313750e-002
3.802936e+003, 8.271116e-002
3.804865e+003, 8.228728e-002
3.806793e+003, 8.319094e-002
3.808722e+003, 8.316475e-002
3.810650e+003, 8.338332e-002
3.812579e+003, 8.342233e-002
3.814507e+003, 8.351264e-002
3.816436e+003, 8.329435e-002
3.818364e+003, 8.339325e-002
3.820292e+003, 8.539977e-002
3.822221e+003, 8.589402e-002
3.824149e+003, 8.412838e-002
3.826078e+003, 8.358612e-002
3.828006e+003, 8.308561e-002
3.829935e+003, 8.302955e-002
3.831863e+003, 8.416919e-002
3.833792e+003, 8.389370e-002
3.835720e+003, 8.320227e-002
3.837649e+003, 8.369476e-002
3.839577e+003, 8.473104e-002
3.841506e+003, 8.455252e-002
3.843434e+003, 8.423007e-002
3.845363e+003, 8.388938e-002
3.847291e+003, 8.342981e-002
3.849219e+003, 8.457109e-002
3.851148e+003, 8.604721e-002
3.853076e+003, 8.662774e-002
3.855005e+003, 8.512660e-002
3.856933e+003, 8.322344e-002
3.858862e+003, 8.298410e-002
3.860790e+003, 8.427585e-002
3.862719e+003, 8.567539e-002
3.864647e+003, 8.594350e-002
3.866576e+003, 8.683234e-002
3.868504e+003, 8.747846e-002
3.870433e+003, 8.713452e-002
3.872361e+003, 8.607344e-002
3.874290e+003, 8.554327e-002
3.876218e+003, 8.490802e-002
3.878146e+003, 8.421469e-002
3.880075e+003, 8.404411e-002
3.882003e+003, 8.488161e-002
3.883932e+003, 8.535799e-002
3.885860e+003, 8.525248e-002
3.887789e+003, 8.464035e-002
3.889717e+003, 8.477909e-002
3.891646e+003, 8.555099e-002
3.893574e+003, 8.518142e-002
3.895503e+003, 8.503969e-002
3.897431e+003, 8.572707e-002
3.899360e+003, 8.619169e-002
3.901288e+003, 8.612986e-002
3.903217e+003, 8.431441e-002
3.905145e+003, 8.457789e-002
3.907073e+003, 8.599485e-002
3.909002e+003, 8.595092e-002
3.910930e+003, 8.622071e-002
3.912859e+003, 8.618931e-002
3.914787e+003, 8.529687e-002
3.916716e+003, 8.567650e-002
3.918644e+003, 8.562161e-002
3.920573e+003, 8.407983e-002
3.922501e+003, 8.433928e-002
3.924430e+003, 8.549356e-002
3.926358e+003, 8.621842e-002
3.928287e+003, 8.715215e-002
3.930215e+003, 8.695745e-002
3.932144e+003, 8.689401e-002
3.934072e+003, 8.735651e-002
3.936000e+003, 8.717767e-002
3.937929e+003, 8.739299e-002
3.939857e+003, 8.728576e-002
3.941786e+003, 8.798422e-002
3.943714e+003, 8.749002e-002
3.945643e+003, 8.584765e-002
3.947571e+003, 8.568127e-002
3.949500e+003, 8.640960e-002
3.951428e+003, 8.732774e-002
3.953357e+003, 8.748545e-002
3.955285e+003, 8.761184e-002
3.957214e+003, 8.794171e-002
3.959142e+003, 8.799106e-002
3.961071e+003, 8.671797e-002
3.962999e+003, 8.658274e-002
3.964927e+003, 8.704338e-002
3.966856e+003, 8.756871e-002
3.968784e+003, 8.825090e-002
3.970713e+003, 8.900403e-002
3.972641e+003, 8.866837e-002
3.974570e+003, 8.815168e-002
3.976498e+003, 8.834907e-002
3.978427e+003, 8.812943e-002
3.980355e+003, 8.779830e-002
3.982284e+003, 8.837262e-002
3.984212e+003, 8.788545e-002
3.986141e+003, 8.914611e-002
3.988069e+003, 9.007291e-002
3.989998e+003, 8.842094e-002
3.991926e+003, 8.776772e-002
3.993854e+003, 8.758712e-002
3.995783e+003, 8.683474e-002
3.997711e+003, 8.758017e-002
3.999640e+003, 8.880254e-002
##END=



