##NAMES=Titanite
##RRUFFID=R050039
##IDEAL CHEMISTRY=CaTi^4+^SiO_5_
##LOCALITY=Kingman, Arizona, USA
##OWNER=RRUFF
##SOURCE=University of Arizona Mineral Museum
##DESCRIPTION=Black fragment from a single crystal
##STATUS=The identification of this mineral has been confirmed by X-ray diffraction and chemical analysis
##URL=rruff.info/R050039
##MEASURED CHEMISTRY=(Ca_0.95_Y_0.05_)(Ti_0.85_Al_0.10_Fe^3+^_0.06_)Si_1.00_O_4_(O_0.93_F_0.07_)
3.991926e+002, 1.582818e-001
4.011211e+002, 1.621215e-001
4.030496e+002, 1.629009e-001
4.049780e+002, 1.667545e-001
4.069065e+002, 1.679480e-001
4.088350e+002, 1.635366e-001
4.107634e+002, 1.638294e-001
4.126919e+002, 1.681625e-001
4.146204e+002, 1.695751e-001
4.165488e+002, 1.691382e-001
4.184773e+002, 1.730214e-001
4.204058e+002, 1.753752e-001
4.223342e+002, 1.746830e-001
4.242627e+002, 1.728841e-001
4.261912e+002, 1.690760e-001
4.281196e+002, 1.667090e-001
4.300481e+002, 1.667608e-001
4.319766e+002, 1.652550e-001
4.339050e+002, 1.632186e-001
4.358335e+002, 1.626570e-001
4.377620e+002, 1.611849e-001
4.396904e+002, 1.597004e-001
4.416189e+002, 1.606063e-001
4.435474e+002, 1.595473e-001
4.454758e+002, 1.570054e-001
4.474043e+002, 1.539848e-001
4.493328e+002, 1.521457e-001
4.512612e+002, 1.525238e-001
4.531897e+002, 1.529791e-001
4.551182e+002, 1.523307e-001
4.570466e+002, 1.508535e-001
4.589751e+002, 1.496349e-001
4.609036e+002, 1.488270e-001
4.628320e+002, 1.479957e-001
4.647605e+002, 1.470217e-001
4.666890e+002, 1.449163e-001
4.686174e+002, 1.439383e-001
4.705459e+002, 1.437338e-001
4.724744e+002, 1.432741e-001
4.744028e+002, 1.413586e-001
4.763313e+002, 1.400714e-001
4.782598e+002, 1.383404e-001
4.801882e+002, 1.367535e-001
4.821167e+002, 1.357099e-001
4.840452e+002, 1.349371e-001
4.859736e+002, 1.348664e-001
4.879021e+002, 1.350489e-001
4.898306e+002, 1.335441e-001
4.917590e+002, 1.327939e-001
4.936875e+002, 1.331645e-001
4.956160e+002, 1.320742e-001
4.975444e+002, 1.296720e-001
4.994729e+002, 1.284813e-001
5.014014e+002, 1.263443e-001
5.033298e+002, 1.237577e-001
5.052583e+002, 1.219861e-001
5.071868e+002, 1.201153e-001
5.091152e+002, 1.182617e-001
5.110437e+002, 1.163239e-001
5.129722e+002, 1.139476e-001
5.149006e+002, 1.123520e-001
5.168291e+002, 1.115361e-001
5.187576e+002, 1.103228e-001
5.206860e+002, 1.096056e-001
5.226145e+002, 1.097300e-001
5.245430e+002, 1.103801e-001
5.264714e+002, 1.110821e-001
5.283999e+002, 1.111142e-001
5.303284e+002, 1.108147e-001
5.322568e+002, 1.114192e-001
5.341853e+002, 1.123242e-001
5.361138e+002, 1.125650e-001
5.380422e+002, 1.133233e-001
5.399707e+002, 1.147650e-001
5.418992e+002, 1.161996e-001
5.438276e+002, 1.176009e-001
5.457561e+002, 1.189905e-001
5.476846e+002, 1.202330e-001
5.496130e+002, 1.221486e-001
5.515415e+002, 1.238958e-001
5.534700e+002, 1.246770e-001
5.553984e+002, 1.255300e-001
5.573269e+002, 1.260805e-001
5.592554e+002, 1.264286e-001
5.611838e+002, 1.263288e-001
5.631123e+002, 1.251050e-001
5.650408e+002, 1.243721e-001
5.669692e+002, 1.234418e-001
5.688977e+002, 1.217794e-001
5.708262e+002, 1.199450e-001
5.727546e+002, 1.191131e-001
5.746831e+002, 1.180424e-001
5.766116e+002, 1.163348e-001
5.785400e+002, 1.151183e-001
5.804685e+002, 1.140474e-001
5.823970e+002, 1.132154e-001
5.843254e+002, 1.120543e-001
5.862539e+002, 1.105211e-001
5.881824e+002, 1.096798e-001
5.901108e+002, 1.094687e-001
5.920393e+002, 1.088145e-001
5.939678e+002, 1.079839e-001
5.958962e+002, 1.078454e-001
5.978247e+002, 1.077236e-001
5.997532e+002, 1.069838e-001
6.016816e+002, 1.063870e-001
6.036101e+002, 1.063454e-001
6.055386e+002, 1.067010e-001
6.074670e+002, 1.072480e-001
6.093955e+002, 1.071015e-001
6.113240e+002, 1.070830e-001
6.132524e+002, 1.071365e-001
6.151809e+002, 1.070600e-001
6.171094e+002, 1.073371e-001
6.190378e+002, 1.081685e-001
6.209663e+002, 1.083117e-001
6.228948e+002, 1.075027e-001
6.248232e+002, 1.073098e-001
6.267517e+002, 1.075706e-001
6.286802e+002, 1.077244e-001
6.306086e+002, 1.075860e-001
6.325371e+002, 1.073911e-001
6.344656e+002, 1.072077e-001
6.363940e+002, 1.071481e-001
6.383225e+002, 1.073864e-001
6.402510e+002, 1.072377e-001
6.421794e+002, 1.070379e-001
6.441079e+002, 1.075108e-001
6.460364e+002, 1.079167e-001
6.479648e+002, 1.079076e-001
6.498933e+002, 1.078282e-001
6.518218e+002, 1.081944e-001
6.537502e+002, 1.085987e-001
6.556787e+002, 1.085733e-001
6.576072e+002, 1.084399e-001
6.595356e+002, 1.087456e-001
6.614641e+002, 1.090486e-001
6.633926e+002, 1.094836e-001
6.653210e+002, 1.096511e-001
6.672495e+002, 1.098180e-001
6.691780e+002, 1.099628e-001
6.711064e+002, 1.097756e-001
6.730349e+002, 1.096313e-001
6.749634e+002, 1.100976e-001
6.768918e+002, 1.111310e-001
6.788203e+002, 1.118635e-001
6.807488e+002, 1.119791e-001
6.826772e+002, 1.120262e-001
6.846057e+002, 1.121380e-001
6.865342e+002, 1.123205e-001
6.884626e+002, 1.124737e-001
6.903911e+002, 1.130964e-001
6.923196e+002, 1.138364e-001
6.942480e+002, 1.138938e-001
6.961765e+002, 1.138117e-001
6.981050e+002, 1.141630e-001
7.000334e+002, 1.142529e-001
7.019619e+002, 1.139237e-001
7.038904e+002, 1.140241e-001
7.058188e+002, 1.145320e-001
7.077473e+002, 1.144924e-001
7.096758e+002, 1.142823e-001
7.116042e+002, 1.144385e-001
7.135327e+002, 1.144260e-001
7.154612e+002, 1.145716e-001
7.173896e+002, 1.147128e-001
7.193181e+002, 1.146880e-001
7.212466e+002, 1.146315e-001
7.231750e+002, 1.145592e-001
7.251035e+002, 1.145437e-001
7.270320e+002, 1.148369e-001
7.289604e+002, 1.150575e-001
7.308889e+002, 1.149511e-001
7.328174e+002, 1.148026e-001
7.347458e+002, 1.150539e-001
7.366743e+002, 1.152697e-001
7.386028e+002, 1.154950e-001
7.405313e+002, 1.155168e-001
7.424597e+002, 1.156097e-001
7.443882e+002, 1.159456e-001
7.463167e+002, 1.163995e-001
7.482451e+002, 1.164940e-001
7.501736e+002, 1.162929e-001
7.521021e+002, 1.166868e-001
7.540305e+002, 1.171750e-001
7.559590e+002, 1.177304e-001
7.578875e+002, 1.184874e-001
7.598159e+002, 1.192444e-001
7.617444e+002, 1.199353e-001
7.636729e+002, 1.206856e-001
7.656013e+002, 1.214531e-001
7.675298e+002, 1.222196e-001
7.694583e+002, 1.233196e-001
7.713867e+002, 1.248336e-001
7.733152e+002, 1.264336e-001
7.752437e+002, 1.278450e-001
7.771721e+002, 1.292706e-001
7.791006e+002, 1.309794e-001
7.810291e+002, 1.329259e-001
7.829575e+002, 1.347889e-001
7.848860e+002, 1.368161e-001
7.868145e+002, 1.390591e-001
7.887429e+002, 1.413688e-001
7.906714e+002, 1.436975e-001
7.925999e+002, 1.459736e-001
7.945283e+002, 1.487225e-001
7.964568e+002, 1.517236e-001
7.983853e+002, 1.541889e-001
8.003137e+002, 1.566834e-001
8.022422e+002, 1.595365e-001
8.041707e+002, 1.624601e-001
8.060991e+002, 1.654648e-001
8.080276e+002, 1.682657e-001
8.099561e+002, 1.713906e-001
8.118845e+002, 1.747790e-001
8.138130e+002, 1.777484e-001
8.157415e+002, 1.806214e-001
8.176699e+002, 1.835463e-001
8.195984e+002, 1.864454e-001
8.215269e+002, 1.893649e-001
8.234553e+002, 1.920861e-001
8.253838e+002, 1.947439e-001
8.273123e+002, 1.967131e-001
8.292407e+002, 1.987922e-001
8.311692e+002, 2.008119e-001
8.330977e+002, 2.019983e-001
8.350261e+002, 2.034816e-001
8.369546e+002, 2.054405e-001
8.388831e+002, 2.068259e-001
8.408115e+002, 2.076941e-001
8.427400e+002, 2.084096e-001
8.446685e+002, 2.088947e-001
8.465969e+002, 2.088215e-001
8.485254e+002, 2.088596e-001
8.504539e+002, 2.093372e-001
8.523823e+002, 2.095799e-001
8.543108e+002, 2.094383e-001
8.562393e+002, 2.088942e-001
8.581677e+002, 2.082275e-001
8.600962e+002, 2.073927e-001
8.620247e+002, 2.060995e-001
8.639531e+002, 2.051594e-001
8.658816e+002, 2.038099e-001
8.678101e+002, 2.020178e-001
8.697385e+002, 2.005731e-001
8.716670e+002, 1.989462e-001
8.735955e+002, 1.969150e-001
8.755239e+002, 1.951371e-001
8.774524e+002, 1.935781e-001
8.793809e+002, 1.922496e-001
8.813093e+002, 1.904476e-001
8.832378e+002, 1.890542e-001
8.851663e+002, 1.886341e-001
8.870947e+002, 1.880733e-001
8.890232e+002, 1.869754e-001
8.909517e+002, 1.866063e-001
8.928801e+002, 1.858186e-001
8.948085e+002, 1.843312e-001
8.967370e+002, 1.829511e-001
8.986655e+002, 1.819421e-001
9.005939e+002, 1.805739e-001
9.025224e+002, 1.784668e-001
9.044509e+002, 1.762545e-001
9.063793e+002, 1.744849e-001
9.083078e+002, 1.722793e-001
9.102363e+002, 1.697648e-001
9.121647e+002, 1.677399e-001
9.140932e+002, 1.658911e-001
9.160217e+002, 1.637413e-001
9.179501e+002, 1.615035e-001
9.198786e+002, 1.590412e-001
9.218071e+002, 1.566741e-001
9.237355e+002, 1.547024e-001
9.256640e+002, 1.526773e-001
9.275925e+002, 1.500401e-001
9.295209e+002, 1.473860e-001
9.314494e+002, 1.446888e-001
9.333779e+002, 1.418132e-001
9.353063e+002, 1.393484e-001
9.372348e+002, 1.367518e-001
9.391633e+002, 1.343958e-001
9.410917e+002, 1.323316e-001
9.430202e+002, 1.298424e-001
9.449487e+002, 1.276778e-001
9.468771e+002, 1.254820e-001
9.488056e+002, 1.229873e-001
9.507341e+002, 1.206305e-001
9.526625e+002, 1.181843e-001
9.545910e+002, 1.159648e-001
9.565195e+002, 1.140422e-001
9.584479e+002, 1.118113e-001
9.603764e+002, 1.091483e-001
9.623049e+002, 1.065427e-001
9.642333e+002, 1.043333e-001
9.661618e+002, 1.018535e-001
9.680903e+002, 9.957416e-002
9.700187e+002, 9.715717e-002
9.719472e+002, 9.465155e-002
9.738757e+002, 9.185991e-002
9.758041e+002, 8.885083e-002
9.777326e+002, 8.612640e-002
9.796611e+002, 8.368994e-002
9.815895e+002, 8.095080e-002
9.835180e+002, 7.786597e-002
9.854465e+002, 7.505611e-002
9.873749e+002, 7.267498e-002
9.893034e+002, 7.029568e-002
9.912319e+002, 6.787150e-002
9.931603e+002, 6.537263e-002
9.950888e+002, 6.290758e-002
9.970173e+002, 6.086247e-002
9.989457e+002, 5.872618e-002
1.000874e+003, 5.651145e-002
1.002803e+003, 5.449881e-002
1.004731e+003, 5.254794e-002
1.006660e+003, 5.097171e-002
1.008588e+003, 4.973536e-002
1.010517e+003, 4.804794e-002
1.012445e+003, 4.612228e-002
1.014373e+003, 4.464582e-002
1.016302e+003, 4.362328e-002
1.018230e+003, 4.237845e-002
1.020159e+003, 4.106135e-002
1.022087e+003, 4.009256e-002
1.024016e+003, 3.918897e-002
1.025944e+003, 3.838578e-002
1.027873e+003, 3.775685e-002
1.029801e+003, 3.668295e-002
1.031730e+003, 3.577482e-002
1.033658e+003, 3.550068e-002
1.035587e+003, 3.494092e-002
1.037515e+003, 3.430644e-002
1.039444e+003, 3.365730e-002
1.041372e+003, 3.312772e-002
1.043301e+003, 3.271656e-002
1.045229e+003, 3.245702e-002
1.047157e+003, 3.193358e-002
1.049086e+003, 3.113168e-002
1.051014e+003, 3.038548e-002
1.052943e+003, 3.004443e-002
1.054871e+003, 2.985191e-002
1.056800e+003, 2.934452e-002
1.058728e+003, 2.852247e-002
1.060657e+003, 2.761895e-002
1.062585e+003, 2.708822e-002
1.064514e+003, 2.692398e-002
1.066442e+003, 2.647105e-002
1.068371e+003, 2.588747e-002
1.070299e+003, 2.525128e-002
1.072228e+003, 2.465180e-002
1.074156e+003, 2.419260e-002
1.076084e+003, 2.387949e-002
1.078013e+003, 2.335516e-002
1.079941e+003, 2.264328e-002
1.081870e+003, 2.212191e-002
1.083798e+003, 2.162308e-002
1.085727e+003, 2.102950e-002
1.087655e+003, 2.022563e-002
1.089584e+003, 1.968877e-002
1.091512e+003, 1.954602e-002
1.093441e+003, 1.913628e-002
1.095369e+003, 1.849464e-002
1.097298e+003, 1.799224e-002
1.099226e+003, 1.734119e-002
1.101155e+003, 1.667742e-002
1.103083e+003, 1.641130e-002
1.105011e+003, 1.614003e-002
1.106940e+003, 1.596724e-002
1.108868e+003, 1.568593e-002
1.110797e+003, 1.501305e-002
1.112725e+003, 1.428115e-002
1.114654e+003, 1.407203e-002
1.116582e+003, 1.392570e-002
1.118511e+003, 1.378702e-002
1.120439e+003, 1.338423e-002
1.122368e+003, 1.280634e-002
1.124296e+003, 1.274672e-002
1.126225e+003, 1.244109e-002
1.128153e+003, 1.201093e-002
1.130082e+003, 1.183452e-002
1.132010e+003, 1.143936e-002
1.133938e+003, 1.098980e-002
1.135867e+003, 1.052107e-002
1.137795e+003, 1.027623e-002
1.139724e+003, 1.010656e-002
1.141652e+003, 1.008129e-002
1.143581e+003, 9.970611e-003
1.145509e+003, 9.316327e-003
1.147438e+003, 8.754271e-003
1.149366e+003, 8.886892e-003
1.151295e+003, 9.063027e-003
1.153223e+003, 8.731646e-003
1.155152e+003, 8.367296e-003
1.157080e+003, 8.334418e-003
1.159009e+003, 8.342869e-003
1.160937e+003, 8.330758e-003
1.162865e+003, 8.307043e-003
1.164794e+003, 8.198697e-003
1.166722e+003, 8.162823e-003
1.168651e+003, 7.899601e-003
1.170579e+003, 7.565596e-003
1.172508e+003, 7.625536e-003
1.174436e+003, 7.501035e-003
1.176365e+003, 7.359512e-003
1.178293e+003, 7.320341e-003
1.180222e+003, 7.264054e-003
1.182150e+003, 7.183605e-003
1.184079e+003, 6.760442e-003
1.186007e+003, 6.490444e-003
1.187936e+003, 6.777405e-003
1.189864e+003, 6.944067e-003
1.191792e+003, 6.900829e-003
1.193721e+003, 6.806631e-003
1.195649e+003, 6.816338e-003
1.197578e+003, 6.997839e-003
1.199506e+003, 6.930454e-003
1.201435e+003, 6.801456e-003
1.203363e+003, 6.613684e-003
1.205292e+003, 6.643155e-003
1.207220e+003, 6.845902e-003
1.209149e+003, 6.734861e-003
1.211077e+003, 6.719101e-003
1.213006e+003, 6.854726e-003
1.214934e+003, 7.093024e-003
1.216863e+003, 7.197163e-003
1.218791e+003, 7.029013e-003
1.220719e+003, 6.889113e-003
1.222648e+003, 6.787166e-003
1.224576e+003, 6.876547e-003
1.226505e+003, 6.939939e-003
1.228433e+003, 6.864281e-003
1.230362e+003, 6.884065e-003
1.232290e+003, 6.962181e-003
1.234219e+003, 7.140032e-003
1.236147e+003, 7.132066e-003
1.238076e+003, 7.192111e-003
1.240004e+003, 7.176581e-003
1.241933e+003, 7.155153e-003
1.243861e+003, 7.131887e-003
1.245790e+003, 7.333353e-003
1.247718e+003, 7.352691e-003
1.249646e+003, 7.362559e-003
1.251575e+003, 7.604033e-003
1.253503e+003, 7.411496e-003
1.255432e+003, 7.262324e-003
1.257360e+003, 7.283780e-003
1.259289e+003, 7.202183e-003
1.261217e+003, 7.095266e-003
1.263146e+003, 7.185540e-003
1.265074e+003, 7.164821e-003
1.267003e+003, 7.017735e-003
1.268931e+003, 7.135170e-003
1.270860e+003, 7.307151e-003
1.272788e+003, 7.417945e-003
1.274717e+003, 7.475590e-003
1.276645e+003, 7.636102e-003
1.278573e+003, 7.744911e-003
1.280502e+003, 7.766397e-003
1.282430e+003, 7.675534e-003
1.284359e+003, 7.361108e-003
1.286287e+003, 7.161363e-003
1.288216e+003, 7.290454e-003
1.290144e+003, 7.421557e-003
1.292073e+003, 7.661969e-003
1.294001e+003, 7.817673e-003
1.295930e+003, 7.798114e-003
1.297858e+003, 7.863253e-003
1.299787e+003, 8.182451e-003
1.301715e+003, 8.173669e-003
1.303644e+003, 7.940907e-003
1.305572e+003, 8.119524e-003
1.307500e+003, 8.538757e-003
1.309429e+003, 8.441675e-003
1.311357e+003, 8.267695e-003
1.313286e+003, 8.619454e-003
1.315214e+003, 8.869256e-003
1.317143e+003, 8.519472e-003
1.319071e+003, 8.273641e-003
1.321000e+003, 8.422651e-003
1.322928e+003, 8.755600e-003
1.324857e+003, 8.787038e-003
1.326785e+003, 8.775269e-003
1.328714e+003, 8.473041e-003
1.330642e+003, 8.546905e-003
1.332571e+003, 8.796691e-003
1.334499e+003, 8.920552e-003
1.336427e+003, 9.156967e-003
1.338356e+003, 9.341750e-003
1.340284e+003, 9.263720e-003
1.342213e+003, 9.166374e-003
1.344141e+003, 9.190972e-003
1.346070e+003, 9.353341e-003
1.347998e+003, 9.662909e-003
1.349927e+003, 1.000441e-002
1.351855e+003, 1.003214e-002
1.353784e+003, 9.972274e-003
1.355712e+003, 9.835247e-003
1.357641e+003, 9.981768e-003
1.359569e+003, 1.004872e-002
1.361498e+003, 1.002347e-002
1.363426e+003, 1.053775e-002
1.365354e+003, 1.071630e-002
1.367283e+003, 1.047112e-002
1.369211e+003, 1.055350e-002
1.371140e+003, 1.067073e-002
1.373068e+003, 1.066248e-002
1.374997e+003, 1.040508e-002
1.376925e+003, 1.053741e-002
1.378854e+003, 1.092151e-002
1.380782e+003, 1.100397e-002
1.382711e+003, 1.091855e-002
1.384639e+003, 1.110308e-002
1.386568e+003, 1.132626e-002
1.388496e+003, 1.139912e-002
1.390424e+003, 1.131990e-002
1.392353e+003, 1.130210e-002
1.394281e+003, 1.145576e-002
1.396210e+003, 1.174499e-002
1.398138e+003, 1.209988e-002
1.400067e+003, 1.214809e-002
1.401995e+003, 1.208353e-002
1.403924e+003, 1.231480e-002
1.405852e+003, 1.240295e-002
1.407781e+003, 1.234377e-002
1.409709e+003, 1.207191e-002
1.411638e+003, 1.202109e-002
1.413566e+003, 1.201879e-002
1.415495e+003, 1.183295e-002
1.417423e+003, 1.205446e-002
1.419351e+003, 1.249521e-002
1.421280e+003, 1.236560e-002
1.423208e+003, 1.243479e-002
1.425137e+003, 1.243477e-002
1.427065e+003, 1.219521e-002
1.428994e+003, 1.235051e-002
1.430922e+003, 1.256602e-002
1.432851e+003, 1.243267e-002
1.434779e+003, 1.247321e-002
1.436708e+003, 1.287657e-002
1.438636e+003, 1.299479e-002
1.440565e+003, 1.281470e-002
1.442493e+003, 1.282092e-002
1.444422e+003, 1.287697e-002
1.446350e+003, 1.305961e-002
1.448278e+003, 1.313794e-002
1.450207e+003, 1.350431e-002
1.452135e+003, 1.367746e-002
1.454064e+003, 1.337402e-002
1.455992e+003, 1.305902e-002
1.457921e+003, 1.324344e-002
1.459849e+003, 1.354246e-002
1.461778e+003, 1.340875e-002
1.463706e+003, 1.344862e-002
1.465635e+003, 1.355519e-002
1.467563e+003, 1.373284e-002
1.469492e+003, 1.393251e-002
1.471420e+003, 1.377424e-002
1.473349e+003, 1.348530e-002
1.475277e+003, 1.341731e-002
1.477205e+003, 1.342272e-002
1.479134e+003, 1.337293e-002
1.481062e+003, 1.357923e-002
1.482991e+003, 1.360058e-002
1.484919e+003, 1.344669e-002
1.486848e+003, 1.344883e-002
1.488776e+003, 1.331111e-002
1.490705e+003, 1.336129e-002
1.492633e+003, 1.356441e-002
1.494562e+003, 1.369292e-002
1.496490e+003, 1.381593e-002
1.498419e+003, 1.370852e-002
1.500347e+003, 1.381666e-002
1.502276e+003, 1.379543e-002
1.504204e+003, 1.346107e-002
1.506132e+003, 1.344966e-002
1.508061e+003, 1.372532e-002
1.509989e+003, 1.389910e-002
1.511918e+003, 1.389206e-002
1.513846e+003, 1.387519e-002
1.515775e+003, 1.390812e-002
1.517703e+003, 1.383027e-002
1.519632e+003, 1.414921e-002
1.521560e+003, 1.434641e-002
1.523489e+003, 1.436677e-002
1.525417e+003, 1.450932e-002
1.527346e+003, 1.468927e-002
1.529274e+003, 1.470034e-002
1.531203e+003, 1.478146e-002
1.533131e+003, 1.493289e-002
1.535059e+003, 1.533396e-002
1.536988e+003, 1.545174e-002
1.538916e+003, 1.517657e-002
1.540845e+003, 1.504032e-002
1.542773e+003, 1.525742e-002
1.544702e+003, 1.582628e-002
1.546630e+003, 1.593775e-002
1.548559e+003, 1.578308e-002
1.550487e+003, 1.576259e-002
1.552416e+003, 1.592759e-002
1.554344e+003, 1.635630e-002
1.556273e+003, 1.659222e-002
1.558201e+003, 1.642920e-002
1.560130e+003, 1.639986e-002
1.562058e+003, 1.673164e-002
1.563986e+003, 1.700658e-002
1.565915e+003, 1.739258e-002
1.567843e+003, 1.762999e-002
1.569772e+003, 1.746444e-002
1.571700e+003, 1.730528e-002
1.573629e+003, 1.718240e-002
1.575557e+003, 1.725014e-002
1.577486e+003, 1.760120e-002
1.579414e+003, 1.820517e-002
1.581343e+003, 1.841841e-002
1.583271e+003, 1.828438e-002
1.585200e+003, 1.829665e-002
1.587128e+003, 1.846793e-002
1.589057e+003, 1.889961e-002
1.590985e+003, 1.900125e-002
1.592913e+003, 1.887335e-002
1.594842e+003, 1.883518e-002
1.596770e+003, 1.858633e-002
1.598699e+003, 1.877635e-002
1.600627e+003, 1.893595e-002
1.602556e+003, 1.898803e-002
1.604484e+003, 1.917580e-002
1.606413e+003, 1.892728e-002
1.608341e+003, 1.892651e-002
1.610270e+003, 1.923785e-002
1.612198e+003, 1.940112e-002
1.614127e+003, 1.925230e-002
1.616055e+003, 1.927918e-002
1.617984e+003, 1.945578e-002
1.619912e+003, 1.970261e-002
1.621840e+003, 1.940079e-002
1.623769e+003, 1.910181e-002
1.625697e+003, 1.920671e-002
1.627626e+003, 1.932242e-002
1.629554e+003, 1.934662e-002
1.631483e+003, 1.977100e-002
1.633411e+003, 1.967377e-002
1.635340e+003, 1.894015e-002
1.637268e+003, 1.893022e-002
1.639197e+003, 1.926477e-002
1.641125e+003, 1.916982e-002
1.643054e+003, 1.918038e-002
1.644982e+003, 1.921633e-002
1.646911e+003, 1.897315e-002
1.648839e+003, 1.875877e-002
1.650767e+003, 1.881444e-002
1.652696e+003, 1.883313e-002
1.654624e+003, 1.894418e-002
1.656553e+003, 1.915854e-002
1.658481e+003, 1.924588e-002
1.660410e+003, 1.915715e-002
1.662338e+003, 1.952448e-002
1.664267e+003, 1.960742e-002
1.666195e+003, 1.912137e-002
1.668124e+003, 1.933523e-002
1.670052e+003, 1.977726e-002
1.671981e+003, 1.967067e-002
1.673909e+003, 1.925386e-002
1.675838e+003, 1.879122e-002
1.677766e+003, 1.873847e-002
1.679694e+003, 1.895595e-002
1.681623e+003, 1.870258e-002
1.683551e+003, 1.824508e-002
1.685480e+003, 1.819165e-002
1.687408e+003, 1.826599e-002
1.689337e+003, 1.845589e-002
1.691265e+003, 1.869420e-002
1.693194e+003, 1.865316e-002
1.695122e+003, 1.806893e-002
1.697051e+003, 1.770265e-002
1.698979e+003, 1.803142e-002
1.700908e+003, 1.787440e-002
1.702836e+003, 1.767077e-002
1.704765e+003, 1.763675e-002
1.706693e+003, 1.770248e-002
1.708621e+003, 1.790507e-002
1.710550e+003, 1.800890e-002
1.712478e+003, 1.778940e-002
1.714407e+003, 1.780110e-002
1.716335e+003, 1.790524e-002
1.718264e+003, 1.807475e-002
1.720192e+003, 1.821763e-002
1.722121e+003, 1.812167e-002
1.724049e+003, 1.848656e-002
1.725978e+003, 1.891336e-002
1.727906e+003, 1.841148e-002
1.729835e+003, 1.782409e-002
1.731763e+003, 1.782171e-002
1.733692e+003, 1.797037e-002
1.735620e+003, 1.797655e-002
1.737548e+003, 1.809066e-002
1.739477e+003, 1.813238e-002
1.741405e+003, 1.785611e-002
1.743334e+003, 1.759368e-002
1.745262e+003, 1.749608e-002
1.747191e+003, 1.784065e-002
1.749119e+003, 1.835072e-002
1.751048e+003, 1.841838e-002
1.752976e+003, 1.810071e-002
1.754905e+003, 1.810337e-002
1.756833e+003, 1.799891e-002
1.758762e+003, 1.780755e-002
1.760690e+003, 1.782554e-002
1.762619e+003, 1.771415e-002
1.764547e+003, 1.815749e-002
1.766475e+003, 1.845183e-002
1.768404e+003, 1.818471e-002
1.770332e+003, 1.810836e-002
1.772261e+003, 1.792547e-002
1.774189e+003, 1.832932e-002
1.776118e+003, 1.853407e-002
1.778046e+003, 1.872048e-002
1.779975e+003, 1.865153e-002
1.781903e+003, 1.861245e-002
1.783832e+003, 1.898219e-002
1.785760e+003, 1.909823e-002
1.787689e+003, 1.886360e-002
1.789617e+003, 1.859973e-002
1.791546e+003, 1.863476e-002
1.793474e+003, 1.868184e-002
1.795402e+003, 1.839461e-002
1.797331e+003, 1.846819e-002
1.799259e+003, 1.862921e-002
1.801188e+003, 1.874158e-002
1.803116e+003, 1.902525e-002
1.805045e+003, 1.861323e-002
1.806973e+003, 1.855265e-002
1.808902e+003, 1.841052e-002
1.810830e+003, 1.836302e-002
1.812759e+003, 1.853788e-002
1.814687e+003, 1.837763e-002
1.816616e+003, 1.850627e-002
1.818544e+003, 1.925888e-002
1.820473e+003, 1.907644e-002
1.822401e+003, 1.858339e-002
1.824329e+003, 1.878138e-002
1.826258e+003, 1.911398e-002
1.828186e+003, 1.934840e-002
1.830115e+003, 1.951225e-002
1.832043e+003, 1.966017e-002
1.833972e+003, 1.887214e-002
1.835900e+003, 1.833742e-002
1.837829e+003, 1.853127e-002
1.839757e+003, 1.898907e-002
1.841686e+003, 1.952020e-002
1.843614e+003, 1.913924e-002
1.845543e+003, 1.905528e-002
1.847471e+003, 1.958370e-002
1.849400e+003, 1.926694e-002
1.851328e+003, 1.887689e-002
1.853256e+003, 1.940195e-002
1.855185e+003, 2.007879e-002
1.857113e+003, 1.969056e-002
1.859042e+003, 1.870504e-002
1.860970e+003, 1.866402e-002
1.862899e+003, 1.954500e-002
1.864827e+003, 1.976774e-002
1.866756e+003, 1.984048e-002
1.868684e+003, 1.946467e-002
1.870613e+003, 1.907627e-002
1.872541e+003, 1.942934e-002
1.874470e+003, 1.978728e-002
1.876398e+003, 1.931505e-002
1.878327e+003, 1.947614e-002
1.880255e+003, 1.969728e-002
1.882183e+003, 1.957697e-002
1.884112e+003, 1.915883e-002
1.886040e+003, 1.913989e-002
1.887969e+003, 1.956688e-002
1.889897e+003, 1.939037e-002
1.891826e+003, 1.883012e-002
1.893754e+003, 1.941795e-002
1.895683e+003, 1.977319e-002
1.897611e+003, 2.006071e-002
1.899540e+003, 1.933193e-002
1.901468e+003, 1.913048e-002
1.903397e+003, 1.964598e-002
1.905325e+003, 2.029900e-002
1.907254e+003, 2.178900e-002
1.909182e+003, 2.182796e-002
1.911110e+003, 2.031051e-002
1.913039e+003, 2.054106e-002
1.914967e+003, 2.103597e-002
1.916896e+003, 2.070526e-002
1.918824e+003, 1.953346e-002
1.920753e+003, 1.948553e-002
1.922681e+003, 1.956264e-002
1.924610e+003, 1.890238e-002
1.926538e+003, 1.913721e-002
1.928467e+003, 1.855109e-002
1.930395e+003, 1.827545e-002
1.932324e+003, 1.905939e-002
1.934252e+003, 1.964698e-002
1.936181e+003, 1.942108e-002
1.938109e+003, 2.009044e-002
1.940037e+003, 2.062682e-002
1.941966e+003, 1.935749e-002
1.943894e+003, 1.884267e-002
1.945823e+003, 1.788898e-002
1.947751e+003, 1.714299e-002
1.949680e+003, 1.813808e-002
1.951608e+003, 1.961402e-002
1.953537e+003, 2.015948e-002
1.955465e+003, 2.040558e-002
1.957394e+003, 1.990023e-002
1.959322e+003, 1.957099e-002
1.961251e+003, 2.049122e-002
1.963179e+003, 2.134051e-002
1.965108e+003, 2.158524e-002
1.967036e+003, 1.971558e-002
1.968964e+003, 1.790604e-002
1.970893e+003, 1.985036e-002
1.972821e+003, 2.094143e-002
1.974750e+003, 1.883732e-002
1.976678e+003, 1.677858e-002
1.978607e+003, 1.974226e-002
1.980535e+003, 2.229653e-002
1.982464e+003, 2.234277e-002
1.984392e+003, 2.143789e-002
1.986321e+003, 1.963298e-002
1.988249e+003, 2.040942e-002
1.990178e+003, 2.085333e-002
1.992106e+003, 2.050161e-002
1.994035e+003, 2.063895e-002
1.995963e+003, 2.044458e-002
1.997891e+003, 2.202228e-002
1.999820e+003, 2.257550e-002
2.001748e+003, 2.170635e-002
2.003677e+003, 2.236473e-002
2.005605e+003, 2.318207e-002
2.007534e+003, 2.291276e-002
2.009462e+003, 2.247773e-002
2.011391e+003, 2.335382e-002
2.013319e+003, 2.407398e-002
2.015248e+003, 2.315306e-002
2.017176e+003, 2.244954e-002
2.019105e+003, 2.449109e-002
2.021033e+003, 2.380054e-002
2.022962e+003, 2.090552e-002
2.024890e+003, 1.983581e-002
2.026818e+003, 2.177744e-002
2.028747e+003, 2.338821e-002
2.030675e+003, 2.448430e-002
2.032604e+003, 2.554693e-002
2.034532e+003, 2.381803e-002
2.036461e+003, 2.427507e-002
2.038389e+003, 2.685805e-002
2.040318e+003, 2.555126e-002
2.042246e+003, 2.465092e-002
2.044175e+003, 2.593040e-002
2.046103e+003, 2.599869e-002
2.048032e+003, 2.759709e-002
2.049960e+003, 2.953430e-002
2.051889e+003, 2.840779e-002
2.053817e+003, 2.576868e-002
2.055746e+003, 2.454576e-002
2.057674e+003, 2.352405e-002
2.059603e+003, 2.451876e-002
2.061531e+003, 2.606607e-002
2.063459e+003, 2.639702e-002
2.065388e+003, 2.479943e-002
2.067316e+003, 2.434094e-002
2.069245e+003, 2.506426e-002
2.071173e+003, 2.615320e-002
2.073102e+003, 2.662964e-002
2.075030e+003, 2.721255e-002
2.076959e+003, 2.686219e-002
2.078887e+003, 2.585841e-002
2.080816e+003, 2.587491e-002
2.082744e+003, 2.779425e-002
2.084673e+003, 2.796533e-002
2.086601e+003, 2.649887e-002
2.088530e+003, 2.627377e-002
2.090458e+003, 2.700382e-002
2.092386e+003, 2.587294e-002
2.094315e+003, 2.553293e-002
2.096243e+003, 2.669300e-002
2.098172e+003, 2.731613e-002
2.100100e+003, 2.645235e-002
2.102029e+003, 2.559950e-002
2.103957e+003, 2.668745e-002
2.105886e+003, 2.722958e-002
2.107814e+003, 2.685094e-002
2.109743e+003, 2.671396e-002
2.111671e+003, 2.649205e-002
2.113600e+003, 2.620917e-002
2.115528e+003, 2.570083e-002
2.117457e+003, 2.535501e-002
2.119385e+003, 2.569442e-002
2.121313e+003, 2.653142e-002
2.123242e+003, 2.654181e-002
2.125170e+003, 2.576614e-002
2.127099e+003, 2.673858e-002
2.129027e+003, 2.687122e-002
2.130956e+003, 2.479060e-002
2.132884e+003, 2.449633e-002
2.134813e+003, 2.540422e-002
2.136741e+003, 2.631568e-002
2.138670e+003, 2.612496e-002
2.140598e+003, 2.616843e-002
2.142527e+003, 2.685801e-002
2.144455e+003, 2.590243e-002
2.146384e+003, 2.295018e-002
2.148312e+003, 2.324444e-002
2.150240e+003, 2.382712e-002
2.152169e+003, 2.250957e-002
2.154097e+003, 2.332667e-002
2.156026e+003, 2.116433e-002
2.157954e+003, 2.245593e-002
2.159883e+003, 2.864584e-002
2.161811e+003, 3.077857e-002
2.163740e+003, 3.018850e-002
2.165668e+003, 2.907158e-002
2.167597e+003, 2.865917e-002
2.169525e+003, 2.594086e-002
2.171454e+003, 2.469731e-002
2.173382e+003, 2.599425e-002
2.175311e+003, 2.727979e-002
2.177239e+003, 2.841885e-002
2.179167e+003, 2.760852e-002
2.181096e+003, 2.669236e-002
2.183024e+003, 2.640146e-002
2.184953e+003, 2.756449e-002
2.186881e+003, 3.073141e-002
2.188810e+003, 3.014780e-002
2.190738e+003, 2.878327e-002
2.192667e+003, 3.141001e-002
2.194595e+003, 3.113990e-002
2.196524e+003, 2.775464e-002
2.198452e+003, 2.793503e-002
2.200381e+003, 2.916001e-002
2.202309e+003, 2.891724e-002
2.204238e+003, 2.910766e-002
2.206166e+003, 3.049713e-002
2.208094e+003, 2.966870e-002
2.210023e+003, 2.865588e-002
2.211951e+003, 2.959819e-002
2.213880e+003, 3.106340e-002
2.215808e+003, 3.072684e-002
2.217737e+003, 3.067763e-002
2.219665e+003, 3.304428e-002
2.221594e+003, 3.294957e-002
2.223522e+003, 3.066220e-002
2.225451e+003, 3.020047e-002
2.227379e+003, 2.976823e-002
2.229308e+003, 2.875802e-002
2.231236e+003, 3.043373e-002
2.233165e+003, 3.456508e-002
2.235093e+003, 3.534449e-002
2.237021e+003, 3.142202e-002
2.238950e+003, 3.033472e-002
2.240878e+003, 3.158187e-002
2.242807e+003, 3.180049e-002
2.244735e+003, 3.211889e-002
2.246664e+003, 3.158324e-002
2.248592e+003, 3.092610e-002
2.250521e+003, 2.932084e-002
2.252449e+003, 2.965171e-002
2.254378e+003, 3.006014e-002
2.256306e+003, 3.111971e-002
2.258235e+003, 3.297614e-002
2.260163e+003, 3.251710e-002
2.262092e+003, 3.105592e-002
2.264020e+003, 3.027768e-002
2.265948e+003, 3.089399e-002
2.267877e+003, 3.232477e-002
2.269805e+003, 3.306508e-002
2.271734e+003, 3.303019e-002
2.273662e+003, 3.251955e-002
2.275591e+003, 3.263335e-002
2.277519e+003, 3.343432e-002
2.279448e+003, 3.344991e-002
2.281376e+003, 3.328029e-002
2.283305e+003, 3.455118e-002
2.285233e+003, 3.457194e-002
2.287162e+003, 3.330829e-002
2.289090e+003, 3.305687e-002
2.291019e+003, 3.331239e-002
2.292947e+003, 3.326931e-002
2.294875e+003, 3.271135e-002
2.296804e+003, 3.255589e-002
2.298732e+003, 3.336699e-002
2.300661e+003, 3.338240e-002
2.302589e+003, 3.349663e-002
2.304518e+003, 3.316629e-002
2.306446e+003, 3.299749e-002
2.308375e+003, 3.398084e-002
2.310303e+003, 3.446925e-002
2.312232e+003, 3.425531e-002
2.314160e+003, 3.472441e-002
2.316089e+003, 3.505754e-002
2.318017e+003, 3.457354e-002
2.319946e+003, 3.439555e-002
2.321874e+003, 3.471917e-002
2.323802e+003, 3.494414e-002
2.325731e+003, 3.377334e-002
2.327659e+003, 3.312121e-002
2.329588e+003, 3.340415e-002
2.331516e+003, 3.328620e-002
2.333445e+003, 3.340903e-002
2.335373e+003, 3.332175e-002
2.337302e+003, 3.308145e-002
2.339230e+003, 3.319459e-002
2.341159e+003, 3.300864e-002
2.343087e+003, 3.381332e-002
2.345016e+003, 3.391107e-002
2.346944e+003, 3.341651e-002
2.348873e+003, 3.358358e-002
2.350801e+003, 3.370040e-002
2.352729e+003, 3.309813e-002
2.354658e+003, 3.310537e-002
2.356586e+003, 3.368006e-002
2.358515e+003, 3.379903e-002
2.360443e+003, 3.367982e-002
2.362372e+003, 3.311308e-002
2.364300e+003, 3.254053e-002
2.366229e+003, 3.279640e-002
2.368157e+003, 3.289420e-002
2.370086e+003, 3.249842e-002
2.372014e+003, 3.256069e-002
2.373942e+003, 3.305761e-002
2.375871e+003, 3.380695e-002
2.377799e+003, 3.442373e-002
2.379728e+003, 3.396350e-002
2.381656e+003, 3.435134e-002
2.383585e+003, 3.419803e-002
2.385513e+003, 3.283079e-002
2.387442e+003, 3.259148e-002
2.389370e+003, 3.328656e-002
2.391299e+003, 3.416387e-002
2.393227e+003, 3.321337e-002
2.395156e+003, 3.262451e-002
2.397084e+003, 3.379761e-002
2.399012e+003, 3.465788e-002
2.400941e+003, 3.483428e-002
2.402869e+003, 3.441098e-002
2.404798e+003, 3.455979e-002
2.406726e+003, 3.493914e-002
2.408655e+003, 3.495299e-002
2.410583e+003, 3.530639e-002
2.412512e+003, 3.467410e-002
2.414440e+003, 3.510082e-002
2.416369e+003, 3.598073e-002
2.418297e+003, 3.536229e-002
2.420226e+003, 3.440012e-002
2.422154e+003, 3.443224e-002
2.424083e+003, 3.482899e-002
2.426011e+003, 3.417680e-002
2.427939e+003, 3.375302e-002
2.429868e+003, 3.515194e-002
2.431796e+003, 3.565001e-002
2.433725e+003, 3.533166e-002
2.435653e+003, 3.573834e-002
2.437582e+003, 3.604430e-002
2.439510e+003, 3.602907e-002
2.441439e+003, 3.601282e-002
2.443367e+003, 3.579681e-002
2.445296e+003, 3.598995e-002
2.447224e+003, 3.540964e-002
2.449153e+003, 3.541185e-002
2.451081e+003, 3.643047e-002
2.453010e+003, 3.706327e-002
2.454938e+003, 3.745998e-002
2.456866e+003, 3.683263e-002
2.458795e+003, 3.579927e-002
2.460723e+003, 3.654622e-002
2.462652e+003, 3.694603e-002
2.464580e+003, 3.664250e-002
2.466509e+003, 3.642346e-002
2.468437e+003, 3.550898e-002
2.470366e+003, 3.463343e-002
2.472294e+003, 3.559304e-002
2.474223e+003, 3.635200e-002
2.476151e+003, 3.477250e-002
2.478080e+003, 3.430384e-002
2.480008e+003, 3.627597e-002
2.481937e+003, 3.698079e-002
2.483865e+003, 3.693932e-002
2.485793e+003, 3.686534e-002
2.487722e+003, 3.692581e-002
2.489650e+003, 3.646319e-002
2.491579e+003, 3.618902e-002
2.493507e+003, 3.585435e-002
2.495436e+003, 3.562150e-002
2.497364e+003, 3.622477e-002
2.499293e+003, 3.744696e-002
2.501221e+003, 3.741347e-002
2.503150e+003, 3.627693e-002
2.505078e+003, 3.570578e-002
2.507007e+003, 3.655493e-002
2.508935e+003, 3.732301e-002
2.510864e+003, 3.780888e-002
2.512792e+003, 3.706637e-002
2.514720e+003, 3.625890e-002
2.516649e+003, 3.672551e-002
2.518577e+003, 3.741194e-002
2.520506e+003, 3.703152e-002
2.522434e+003, 3.718694e-002
2.524363e+003, 3.755551e-002
2.526291e+003, 3.749071e-002
2.528220e+003, 3.731072e-002
2.530148e+003, 3.841472e-002
2.532077e+003, 3.880720e-002
2.534005e+003, 3.747837e-002
2.535934e+003, 3.659799e-002
2.537862e+003, 3.618160e-002
2.539791e+003, 3.667207e-002
2.541719e+003, 3.745490e-002
2.543647e+003, 3.819263e-002
2.545576e+003, 3.914252e-002
2.547504e+003, 3.918093e-002
2.549433e+003, 3.935194e-002
2.551361e+003, 3.929329e-002
2.553290e+003, 3.763384e-002
2.555218e+003, 3.755451e-002
2.557147e+003, 3.836522e-002
2.559075e+003, 3.861981e-002
2.561004e+003, 3.881372e-002
2.562932e+003, 3.886660e-002
2.564861e+003, 3.884114e-002
2.566789e+003, 3.989967e-002
2.568718e+003, 4.032817e-002
2.570646e+003, 3.974597e-002
2.572574e+003, 3.855425e-002
2.574503e+003, 3.817539e-002
2.576431e+003, 3.857078e-002
2.578360e+003, 3.865632e-002
2.580288e+003, 3.922921e-002
2.582217e+003, 3.938627e-002
2.584145e+003, 3.873879e-002
2.586074e+003, 4.005275e-002
2.588002e+003, 3.996816e-002
2.589931e+003, 3.913319e-002
2.591859e+003, 3.991569e-002
2.593788e+003, 4.013911e-002
2.595716e+003, 3.941343e-002
2.597645e+003, 3.909862e-002
2.599573e+003, 3.930249e-002
2.601501e+003, 4.007753e-002
2.603430e+003, 4.074587e-002
2.605358e+003, 4.040368e-002
2.607287e+003, 4.033422e-002
2.609215e+003, 4.068088e-002
2.611144e+003, 4.108734e-002
2.613072e+003, 4.088942e-002
2.615001e+003, 4.096172e-002
2.616929e+003, 4.125356e-002
2.618858e+003, 4.146531e-002
2.620786e+003, 4.143816e-002
2.622715e+003, 4.095973e-002
2.624643e+003, 4.042967e-002
2.626572e+003, 4.031675e-002
2.628500e+003, 4.058660e-002
2.630428e+003, 4.046953e-002
2.632357e+003, 4.050229e-002
2.634285e+003, 4.099107e-002
2.636214e+003, 4.069307e-002
2.638142e+003, 4.074721e-002
2.640071e+003, 4.190511e-002
2.641999e+003, 4.284019e-002
2.643928e+003, 4.299438e-002
2.645856e+003, 4.224423e-002
2.647785e+003, 4.153876e-002
2.649713e+003, 4.121621e-002
2.651642e+003, 4.137513e-002
2.653570e+003, 4.187445e-002
2.655499e+003, 4.116801e-002
2.657427e+003, 4.078506e-002
2.659355e+003, 4.111675e-002
2.661284e+003, 4.137888e-002
2.663212e+003, 4.164863e-002
2.665141e+003, 4.125380e-002
2.667069e+003, 4.127832e-002
2.668998e+003, 4.072227e-002
2.670926e+003, 3.950725e-002
2.672855e+003, 4.004970e-002
2.674783e+003, 4.092643e-002
2.676712e+003, 4.089349e-002
2.678640e+003, 4.095831e-002
2.680569e+003, 4.100084e-002
2.682497e+003, 4.043496e-002
2.684426e+003, 4.037940e-002
2.686354e+003, 4.027201e-002
2.688282e+003, 4.048588e-002
2.690211e+003, 4.124504e-002
2.692139e+003, 4.132963e-002
2.694068e+003, 4.066642e-002
2.695996e+003, 4.068496e-002
2.697925e+003, 4.114651e-002
2.699853e+003, 4.159478e-002
2.701782e+003, 4.150578e-002
2.703710e+003, 4.127001e-002
2.705639e+003, 4.152542e-002
2.707567e+003, 4.173833e-002
2.709496e+003, 4.167674e-002
2.711424e+003, 4.067548e-002
2.713353e+003, 3.981708e-002
2.715281e+003, 4.073021e-002
2.717209e+003, 4.167880e-002
2.719138e+003, 4.161968e-002
2.721066e+003, 4.132776e-002
2.722995e+003, 4.122120e-002
2.724923e+003, 4.158493e-002
2.726852e+003, 4.204752e-002
2.728780e+003, 4.160690e-002
2.730709e+003, 4.133986e-002
2.732637e+003, 4.197124e-002
2.734566e+003, 4.229930e-002
2.736494e+003, 4.171553e-002
2.738423e+003, 4.179693e-002
2.740351e+003, 4.182794e-002
2.742280e+003, 4.124662e-002
2.744208e+003, 4.183140e-002
2.746136e+003, 4.253820e-002
2.748065e+003, 4.222193e-002
2.749993e+003, 4.259828e-002
2.751922e+003, 4.295553e-002
2.753850e+003, 4.269385e-002
2.755779e+003, 4.238643e-002
2.757707e+003, 4.217929e-002
2.759636e+003, 4.273432e-002
2.761564e+003, 4.311825e-002
2.763493e+003, 4.287440e-002
2.765421e+003, 4.251711e-002
2.767350e+003, 4.269987e-002
2.769278e+003, 4.259301e-002
2.771207e+003, 4.294370e-002
2.773135e+003, 4.276958e-002
2.775063e+003, 4.283236e-002
2.776992e+003, 4.361926e-002
2.778920e+003, 4.352726e-002
2.780849e+003, 4.350792e-002
2.782777e+003, 4.372068e-002
2.784706e+003, 4.392964e-002
2.786634e+003, 4.340953e-002
2.788563e+003, 4.284878e-002
2.790491e+003, 4.269338e-002
2.792420e+003, 4.292541e-002
2.794348e+003, 4.297791e-002
2.796277e+003, 4.334855e-002
2.798205e+003, 4.394622e-002
2.800134e+003, 4.387766e-002
2.802062e+003, 4.411869e-002
2.803990e+003, 4.402642e-002
2.805919e+003, 4.334804e-002
2.807847e+003, 4.331189e-002
2.809776e+003, 4.380555e-002
2.811704e+003, 4.462410e-002
2.813633e+003, 4.493387e-002
2.815561e+003, 4.446048e-002
2.817490e+003, 4.425745e-002
2.819418e+003, 4.440225e-002
2.821347e+003, 4.464961e-002
2.823275e+003, 4.504601e-002
2.825204e+003, 4.415877e-002
2.827132e+003, 4.382627e-002
2.829061e+003, 4.462353e-002
2.830989e+003, 4.526851e-002
2.832917e+003, 4.549716e-002
2.834846e+003, 4.453421e-002
2.836774e+003, 4.434029e-002
2.838703e+003, 4.512499e-002
2.840631e+003, 4.569246e-002
2.842560e+003, 4.546730e-002
2.844488e+003, 4.496926e-002
2.846417e+003, 4.452597e-002
2.848345e+003, 4.470654e-002
2.850274e+003, 4.504170e-002
2.852202e+003, 4.444849e-002
2.854131e+003, 4.443278e-002
2.856059e+003, 4.485475e-002
2.857988e+003, 4.454627e-002
2.859916e+003, 4.453755e-002
2.861844e+003, 4.496560e-002
2.863773e+003, 4.537000e-002
2.865701e+003, 4.641323e-002
2.867630e+003, 4.668105e-002
2.869558e+003, 4.679238e-002
2.871487e+003, 4.673759e-002
2.873415e+003, 4.621311e-002
2.875344e+003, 4.622722e-002
2.877272e+003, 4.716354e-002
2.879201e+003, 4.728937e-002
2.881129e+003, 4.663556e-002
2.883058e+003, 4.657553e-002
2.884986e+003, 4.700847e-002
2.886915e+003, 4.651316e-002
2.888843e+003, 4.647972e-002
2.890771e+003, 4.733273e-002
2.892700e+003, 4.732274e-002
2.894628e+003, 4.691155e-002
2.896557e+003, 4.797606e-002
2.898485e+003, 4.826107e-002
2.900414e+003, 4.712390e-002
2.902342e+003, 4.691986e-002
2.904271e+003, 4.764711e-002
2.906199e+003, 4.838837e-002
2.908128e+003, 4.803082e-002
2.910056e+003, 4.763994e-002
2.911985e+003, 4.771510e-002
2.913913e+003, 4.831642e-002
2.915842e+003, 4.788071e-002
2.917770e+003, 4.791417e-002
2.919698e+003, 4.871629e-002
2.921627e+003, 4.821580e-002
2.923555e+003, 4.788786e-002
2.925484e+003, 4.812285e-002
2.927412e+003, 4.804733e-002
2.929341e+003, 4.726824e-002
2.931269e+003, 4.770693e-002
2.933198e+003, 4.808259e-002
2.935126e+003, 4.837559e-002
2.937055e+003, 4.871852e-002
2.938983e+003, 4.788259e-002
2.940912e+003, 4.762591e-002
2.942840e+003, 4.842105e-002
2.944769e+003, 4.866036e-002
2.946697e+003, 4.862512e-002
2.948625e+003, 4.827175e-002
2.950554e+003, 4.737925e-002
2.952482e+003, 4.707307e-002
2.954411e+003, 4.759641e-002
2.956339e+003, 4.742874e-002
2.958268e+003, 4.710602e-002
2.960196e+003, 4.678111e-002
2.962125e+003, 4.734726e-002
2.964053e+003, 4.818810e-002
2.965982e+003, 4.837930e-002
2.967910e+003, 4.840791e-002
2.969839e+003, 4.887957e-002
2.971767e+003, 4.904850e-002
2.973696e+003, 4.866209e-002
2.975624e+003, 4.807791e-002
2.977552e+003, 4.819867e-002
2.979481e+003, 4.811684e-002
2.981409e+003, 4.883237e-002
2.983338e+003, 4.957789e-002
2.985266e+003, 4.975161e-002
2.987195e+003, 4.930246e-002
2.989123e+003, 4.917883e-002
2.991052e+003, 4.759831e-002
2.992980e+003, 4.788318e-002
2.994909e+003, 4.961768e-002
2.996837e+003, 4.909007e-002
2.998766e+003, 4.804035e-002
3.000694e+003, 4.878590e-002
3.002623e+003, 4.957448e-002
3.004551e+003, 4.831823e-002
3.006479e+003, 4.779216e-002
3.008408e+003, 4.906576e-002
3.010336e+003, 4.951073e-002
3.012265e+003, 4.842932e-002
3.014193e+003, 4.866667e-002
3.016122e+003, 4.903331e-002
3.018050e+003, 4.933884e-002
3.019979e+003, 4.931306e-002
3.021907e+003, 4.823078e-002
3.023836e+003, 4.833110e-002
3.025764e+003, 4.883196e-002
3.027693e+003, 4.908353e-002
3.029621e+003, 4.960293e-002
3.031550e+003, 5.017436e-002
3.033478e+003, 4.934484e-002
3.035406e+003, 4.833225e-002
3.037335e+003, 4.842811e-002
3.039263e+003, 4.827822e-002
3.041192e+003, 4.786348e-002
3.043120e+003, 4.827921e-002
3.045049e+003, 4.787217e-002
3.046977e+003, 4.901962e-002
3.048906e+003, 5.011524e-002
3.050834e+003, 4.922507e-002
3.052763e+003, 4.859988e-002
3.054691e+003, 4.959559e-002
3.056620e+003, 5.008896e-002
3.058548e+003, 5.086793e-002
3.060477e+003, 5.135046e-002
3.062405e+003, 4.987293e-002
3.064333e+003, 4.940810e-002
3.066262e+003, 5.052639e-002
3.068190e+003, 5.143428e-002
3.070119e+003, 5.107125e-002
3.072047e+003, 5.042080e-002
3.073976e+003, 5.044477e-002
3.075904e+003, 5.007819e-002
3.077833e+003, 4.957784e-002
3.079761e+003, 5.018414e-002
3.081690e+003, 5.089372e-002
3.083618e+003, 5.091639e-002
3.085547e+003, 4.954756e-002
3.087475e+003, 4.876588e-002
3.089404e+003, 4.979293e-002
3.091332e+003, 5.089349e-002
3.093260e+003, 5.111291e-002
3.095189e+003, 5.096778e-002
3.097117e+003, 5.051779e-002
3.099046e+003, 4.981581e-002
3.100974e+003, 4.965635e-002
3.102903e+003, 5.073586e-002
3.104831e+003, 5.040391e-002
3.106760e+003, 5.036920e-002
3.108688e+003, 5.019481e-002
3.110617e+003, 5.045441e-002
3.112545e+003, 5.053609e-002
3.114474e+003, 5.120642e-002
3.116402e+003, 5.155612e-002
3.118331e+003, 5.113186e-002
3.120259e+003, 5.166176e-002
3.122188e+003, 5.270629e-002
3.124116e+003, 5.232962e-002
3.126044e+003, 5.133856e-002
3.127973e+003, 5.180550e-002
3.129901e+003, 5.191117e-002
3.131830e+003, 5.250088e-002
3.133758e+003, 5.251652e-002
3.135687e+003, 5.242078e-002
3.137615e+003, 5.395757e-002
3.139544e+003, 5.457083e-002
3.141472e+003, 5.398104e-002
3.143401e+003, 5.400236e-002
3.145329e+003, 5.420443e-002
3.147258e+003, 5.397336e-002
3.149186e+003, 5.371207e-002
3.151115e+003, 5.342907e-002
3.153043e+003, 5.452559e-002
3.154971e+003, 5.532305e-002
3.156900e+003, 5.446156e-002
3.158828e+003, 5.345505e-002
3.160757e+003, 5.301032e-002
3.162685e+003, 5.313949e-002
3.164614e+003, 5.262374e-002
3.166542e+003, 5.222839e-002
3.168471e+003, 5.414153e-002
3.170399e+003, 5.544287e-002
3.172328e+003, 5.432775e-002
3.174256e+003, 5.432576e-002
3.176185e+003, 5.469459e-002
3.178113e+003, 5.398520e-002
3.180042e+003, 5.347671e-002
3.181970e+003, 5.450961e-002
3.183898e+003, 5.513934e-002
3.185827e+003, 5.488194e-002
3.187755e+003, 5.416918e-002
3.189684e+003, 5.508374e-002
3.191612e+003, 5.525668e-002
3.193541e+003, 5.519486e-002
3.195469e+003, 5.627392e-002
3.197398e+003, 5.520374e-002
3.199326e+003, 5.377124e-002
3.201255e+003, 5.373896e-002
3.203183e+003, 5.309993e-002
3.205112e+003, 5.309185e-002
3.207040e+003, 5.499086e-002
3.208969e+003, 5.576368e-002
3.210897e+003, 5.494532e-002
3.212825e+003, 5.506521e-002
3.214754e+003, 5.541166e-002
3.216682e+003, 5.523724e-002
3.218611e+003, 5.574843e-002
3.220539e+003, 5.689123e-002
3.222468e+003, 5.674272e-002
3.224396e+003, 5.562959e-002
3.226325e+003, 5.519964e-002
3.228253e+003, 5.662698e-002
3.230182e+003, 5.799503e-002
3.232110e+003, 5.883851e-002
3.234039e+003, 5.798220e-002
3.235967e+003, 5.758025e-002
3.237896e+003, 5.882554e-002
3.239824e+003, 5.861993e-002
3.241752e+003, 5.581190e-002
3.243681e+003, 5.486964e-002
3.245609e+003, 5.523843e-002
3.247538e+003, 5.591776e-002
3.249466e+003, 5.631913e-002
3.251395e+003, 5.627898e-002
3.253323e+003, 5.624613e-002
3.255252e+003, 5.742101e-002
3.257180e+003, 5.864810e-002
3.259109e+003, 5.850252e-002
3.261037e+003, 5.758743e-002
3.262966e+003, 5.785445e-002
3.264894e+003, 5.818355e-002
3.266823e+003, 5.748211e-002
3.268751e+003, 5.799219e-002
3.270679e+003, 5.897775e-002
3.272608e+003, 5.968823e-002
3.274536e+003, 5.959171e-002
3.276465e+003, 5.784216e-002
3.278393e+003, 5.719821e-002
3.280322e+003, 5.764844e-002
3.282250e+003, 5.762859e-002
3.284179e+003, 5.763797e-002
3.286107e+003, 5.927728e-002
3.288036e+003, 5.929758e-002
3.289964e+003, 5.747480e-002
3.291893e+003, 5.665627e-002
3.293821e+003, 5.843065e-002
3.295750e+003, 5.972388e-002
3.297678e+003, 5.872861e-002
3.299606e+003, 5.872143e-002
3.301535e+003, 6.027911e-002
3.303463e+003, 6.065236e-002
3.305392e+003, 5.856535e-002
3.307320e+003, 5.731142e-002
3.309249e+003, 5.770006e-002
3.311177e+003, 5.816122e-002
3.313106e+003, 5.879058e-002
3.315034e+003, 5.799586e-002
3.316963e+003, 5.742956e-002
3.318891e+003, 5.807845e-002
3.320820e+003, 5.890113e-002
3.322748e+003, 5.948192e-002
3.324677e+003, 5.884358e-002
3.326605e+003, 5.871735e-002
3.328533e+003, 5.905815e-002
3.330462e+003, 5.817360e-002
3.332390e+003, 5.784141e-002
3.334319e+003, 5.894795e-002
3.336247e+003, 5.866830e-002
3.338176e+003, 5.973510e-002
3.340104e+003, 6.042457e-002
3.342033e+003, 5.939544e-002
3.343961e+003, 5.998579e-002
3.345890e+003, 6.061414e-002
3.347818e+003, 6.054050e-002
3.349747e+003, 6.084816e-002
3.351675e+003, 6.189496e-002
3.353604e+003, 6.206116e-002
3.355532e+003, 5.991167e-002
3.357460e+003, 5.938783e-002
3.359389e+003, 6.007400e-002
3.361317e+003, 6.060028e-002
3.363246e+003, 6.011214e-002
3.365174e+003, 5.946366e-002
3.367103e+003, 5.906948e-002
3.369031e+003, 5.871925e-002
3.370960e+003, 5.883205e-002
3.372888e+003, 5.820433e-002
3.374817e+003, 5.998877e-002
3.376745e+003, 6.182911e-002
3.378674e+003, 6.150287e-002
3.380602e+003, 5.935171e-002
3.382531e+003, 5.787951e-002
3.384459e+003, 5.980169e-002
3.386387e+003, 6.176664e-002
3.388316e+003, 6.130382e-002
3.390244e+003, 6.077008e-002
3.392173e+003, 6.098957e-002
3.394101e+003, 6.060460e-002
3.396030e+003, 5.967351e-002
3.397958e+003, 5.981063e-002
3.399887e+003, 6.069591e-002
3.401815e+003, 6.133448e-002
3.403744e+003, 6.070312e-002
3.405672e+003, 6.012602e-002
3.407601e+003, 5.952360e-002
3.409529e+003, 5.910659e-002
3.411458e+003, 5.866669e-002
3.413386e+003, 5.981926e-002
3.415314e+003, 6.142076e-002
3.417243e+003, 6.033993e-002
3.419171e+003, 5.917180e-002
3.421100e+003, 5.887348e-002
3.423028e+003, 6.041566e-002
3.424957e+003, 6.147931e-002
3.426885e+003, 5.961064e-002
3.428814e+003, 5.888003e-002
3.430742e+003, 5.865226e-002
3.432671e+003, 5.993507e-002
3.434599e+003, 5.996620e-002
3.436528e+003, 5.955728e-002
3.438456e+003, 6.066494e-002
3.440385e+003, 6.084346e-002
3.442313e+003, 6.120579e-002
3.444241e+003, 6.113598e-002
3.446170e+003, 6.000457e-002
3.448098e+003, 5.931265e-002
3.450027e+003, 5.891838e-002
3.451955e+003, 5.877092e-002
3.453884e+003, 5.896121e-002
3.455812e+003, 5.999678e-002
3.457741e+003, 5.886063e-002
3.459669e+003, 5.886776e-002
3.461598e+003, 6.017732e-002
3.463526e+003, 6.020632e-002
3.465455e+003, 5.929349e-002
3.467383e+003, 5.989602e-002
3.469312e+003, 6.000647e-002
3.471240e+003, 6.048286e-002
3.473168e+003, 6.044812e-002
3.475097e+003, 5.990382e-002
3.477025e+003, 5.979359e-002
3.478954e+003, 5.846449e-002
3.480882e+003, 5.709284e-002
3.482811e+003, 5.814284e-002
3.484739e+003, 6.009002e-002
3.486668e+003, 6.005911e-002
3.488596e+003, 6.015541e-002
3.490525e+003, 5.989402e-002
3.492453e+003, 5.899221e-002
3.494382e+003, 5.768921e-002
3.496310e+003, 5.806052e-002
3.498239e+003, 6.000753e-002
3.500167e+003, 6.094703e-002
3.502095e+003, 5.888983e-002
3.504024e+003, 5.753633e-002
3.505952e+003, 5.807544e-002
3.507881e+003, 5.936446e-002
3.509809e+003, 5.838928e-002
3.511738e+003, 5.665409e-002
3.513666e+003, 5.658305e-002
3.515595e+003, 5.732898e-002
3.517523e+003, 5.879666e-002
3.519452e+003, 5.898955e-002
3.521380e+003, 5.815384e-002
3.523309e+003, 5.795460e-002
3.525237e+003, 5.921664e-002
3.527166e+003, 5.831018e-002
3.529094e+003, 5.661629e-002
3.531022e+003, 5.677607e-002
3.532951e+003, 5.599483e-002
3.534879e+003, 5.546419e-002
3.536808e+003, 5.758715e-002
3.538736e+003, 5.715390e-002
3.540665e+003, 5.769711e-002
3.542593e+003, 5.819186e-002
3.544522e+003, 5.778246e-002
3.546450e+003, 5.897908e-002
3.548379e+003, 5.845592e-002
3.550307e+003, 5.855145e-002
3.552236e+003, 5.924876e-002
3.554164e+003, 5.865181e-002
3.556093e+003, 5.807793e-002
3.558021e+003, 5.792391e-002
3.559949e+003, 5.673531e-002
3.561878e+003, 5.699473e-002
3.563806e+003, 5.884768e-002
3.565735e+003, 5.876228e-002
3.567663e+003, 5.710357e-002
3.569592e+003, 5.672349e-002
3.571520e+003, 5.756659e-002
3.573449e+003, 5.856892e-002
3.575377e+003, 5.828555e-002
3.577306e+003, 5.721943e-002
3.579234e+003, 5.625574e-002
3.581163e+003, 5.485645e-002
3.583091e+003, 5.647367e-002
3.585020e+003, 5.872986e-002
3.586948e+003, 5.757842e-002
3.588876e+003, 5.504162e-002
3.590805e+003, 5.455917e-002
3.592733e+003, 5.584376e-002
3.594662e+003, 5.792760e-002
3.596590e+003, 5.881689e-002
3.598519e+003, 5.808382e-002
3.600447e+003, 5.708279e-002
3.602376e+003, 5.814987e-002
3.604304e+003, 5.671540e-002
3.606233e+003, 5.348674e-002
3.608161e+003, 5.415704e-002
3.610090e+003, 5.622496e-002
3.612018e+003, 5.690303e-002
3.613947e+003, 5.368664e-002
3.615875e+003, 5.072242e-002
3.617803e+003, 5.155187e-002
3.619732e+003, 5.311887e-002
3.621660e+003, 5.392990e-002
3.623589e+003, 5.624767e-002
3.625517e+003, 5.846576e-002
3.627446e+003, 5.786643e-002
3.629374e+003, 5.905180e-002
3.631303e+003, 5.880104e-002
3.633231e+003, 5.499667e-002
3.635160e+003, 5.317314e-002
3.637088e+003, 5.298440e-002
3.639017e+003, 5.175649e-002
3.640945e+003, 5.240020e-002
3.642874e+003, 5.471667e-002
3.644802e+003, 5.527611e-002
3.646730e+003, 5.511962e-002
3.648659e+003, 5.639559e-002
3.650587e+003, 5.533775e-002
3.652516e+003, 5.383811e-002
3.654444e+003, 5.375279e-002
3.656373e+003, 5.539411e-002
3.658301e+003, 5.676573e-002
3.660230e+003, 5.530583e-002
3.662158e+003, 5.438701e-002
3.664087e+003, 5.520229e-002
3.666015e+003, 5.569920e-002
3.667944e+003, 5.550296e-002
3.669872e+003, 5.616510e-002
3.671801e+003, 5.561529e-002
3.673729e+003, 5.392506e-002
3.675657e+003, 5.439232e-002
3.677586e+003, 5.670387e-002
3.679514e+003, 5.707707e-002
3.681443e+003, 5.726713e-002
3.683371e+003, 5.596496e-002
3.685300e+003, 5.542638e-002
3.687228e+003, 5.569388e-002
3.689157e+003, 5.503963e-002
3.691085e+003, 5.721411e-002
3.693014e+003, 5.880401e-002
3.694942e+003, 5.489673e-002
3.696871e+003, 5.462230e-002
3.698799e+003, 5.575534e-002
3.700728e+003, 5.509096e-002
3.702656e+003, 5.447651e-002
3.704584e+003, 5.347069e-002
3.706513e+003, 5.479214e-002
3.708441e+003, 5.749730e-002
3.710370e+003, 5.771802e-002
3.712298e+003, 5.595627e-002
3.714227e+003, 5.566433e-002
3.716155e+003, 5.763071e-002
3.718084e+003, 5.712865e-002
3.720012e+003, 5.589980e-002
3.721941e+003, 5.603142e-002
3.723869e+003, 5.565614e-002
3.725798e+003, 5.629985e-002
3.727726e+003, 5.672683e-002
3.729655e+003, 5.658875e-002
3.731583e+003, 5.676662e-002
3.733511e+003, 5.578100e-002
3.735440e+003, 5.317905e-002
3.737368e+003, 5.412933e-002
3.739297e+003, 5.649213e-002
3.741225e+003, 5.734478e-002
3.743154e+003, 5.833383e-002
3.745082e+003, 5.836561e-002
3.747011e+003, 5.638338e-002
3.748939e+003, 5.534948e-002
3.750868e+003, 5.628715e-002
3.752796e+003, 5.726006e-002
3.754725e+003, 5.919469e-002
3.756653e+003, 6.000596e-002
3.758582e+003, 5.975864e-002
3.760510e+003, 5.825873e-002
3.762438e+003, 5.666244e-002
3.764367e+003, 5.643687e-002
3.766295e+003, 5.819348e-002
3.768224e+003, 5.794596e-002
3.770152e+003, 5.744042e-002
3.772081e+003, 5.650883e-002
3.774009e+003, 5.597333e-002
3.775938e+003, 5.658450e-002
3.777866e+003, 5.868169e-002
3.779795e+003, 5.903140e-002
3.781723e+003, 5.917352e-002
3.783652e+003, 6.039051e-002
3.785580e+003, 5.960716e-002
3.787509e+003, 5.741877e-002
3.789437e+003, 5.816483e-002
3.791365e+003, 5.926032e-002
3.793294e+003, 5.755878e-002
3.795222e+003, 5.707418e-002
3.797151e+003, 5.879229e-002
3.799079e+003, 5.841268e-002
3.801008e+003, 5.988332e-002
3.802936e+003, 5.955486e-002
3.804865e+003, 5.790215e-002
3.806793e+003, 5.745769e-002
3.808722e+003, 5.908180e-002
3.810650e+003, 6.178076e-002
3.812579e+003, 6.024401e-002
3.814507e+003, 5.916490e-002
3.816436e+003, 6.051478e-002
3.818364e+003, 6.332125e-002
3.820292e+003, 6.243302e-002
3.822221e+003, 5.900493e-002
3.824149e+003, 5.824676e-002
3.826078e+003, 5.807689e-002
3.828006e+003, 5.977994e-002
3.829935e+003, 6.078645e-002
3.831863e+003, 5.976003e-002
3.833792e+003, 6.008420e-002
3.835720e+003, 5.914560e-002
3.837649e+003, 5.797263e-002
3.839577e+003, 5.951916e-002
3.841506e+003, 6.100367e-002
3.843434e+003, 6.001626e-002
3.845363e+003, 5.948789e-002
3.847291e+003, 5.943685e-002
3.849219e+003, 5.868344e-002
3.851148e+003, 5.769122e-002
3.853076e+003, 5.643877e-002
3.855005e+003, 5.627550e-002
3.856933e+003, 5.721484e-002
3.858862e+003, 5.743764e-002
3.860790e+003, 5.696444e-002
3.862719e+003, 5.773662e-002
3.864647e+003, 5.713790e-002
3.866576e+003, 5.668919e-002
3.868504e+003, 5.756665e-002
3.870433e+003, 5.813801e-002
3.872361e+003, 5.876433e-002
3.874290e+003, 5.875970e-002
3.876218e+003, 5.812515e-002
3.878146e+003, 5.937175e-002
3.880075e+003, 5.896883e-002
3.882003e+003, 5.900671e-002
3.883932e+003, 5.861904e-002
3.885860e+003, 5.969496e-002
3.887789e+003, 6.255233e-002
3.889717e+003, 6.349402e-002
3.891646e+003, 6.239845e-002
3.893574e+003, 5.905497e-002
3.895503e+003, 5.917607e-002
3.897431e+003, 5.850955e-002
3.899360e+003, 5.771390e-002
3.901288e+003, 6.033090e-002
3.903217e+003, 6.006593e-002
3.905145e+003, 5.869910e-002
3.907073e+003, 5.855611e-002
3.909002e+003, 5.689625e-002
3.910930e+003, 5.867410e-002
3.912859e+003, 6.029456e-002
3.914787e+003, 6.171978e-002
3.916716e+003, 6.196470e-002
3.918644e+003, 5.931415e-002
3.920573e+003, 5.910525e-002
3.922501e+003, 5.952523e-002
3.924430e+003, 6.041053e-002
3.926358e+003, 6.049583e-002
3.928287e+003, 5.976973e-002
3.930215e+003, 6.028094e-002
3.932144e+003, 5.978107e-002
3.934072e+003, 5.896273e-002
3.936000e+003, 5.877805e-002
3.937929e+003, 5.888435e-002
3.939857e+003, 6.014961e-002
3.941786e+003, 6.064792e-002
3.943714e+003, 5.956170e-002
3.945643e+003, 6.064757e-002
3.947571e+003, 6.040099e-002
3.949500e+003, 5.948752e-002
3.951428e+003, 6.063664e-002
3.953357e+003, 6.160093e-002
3.955285e+003, 6.043085e-002
3.957214e+003, 6.094428e-002
3.959142e+003, 6.269120e-002
3.961071e+003, 6.172711e-002
3.962999e+003, 6.044748e-002
3.964927e+003, 6.092687e-002
3.966856e+003, 6.319271e-002
3.968784e+003, 6.511827e-002
3.970713e+003, 6.633666e-002
3.972641e+003, 6.509122e-002
3.974570e+003, 6.220777e-002
3.976498e+003, 6.064181e-002
3.978427e+003, 5.943654e-002
3.980355e+003, 6.001494e-002
3.982284e+003, 6.041015e-002
3.984212e+003, 6.004662e-002
3.986141e+003, 6.044587e-002
3.988069e+003, 6.065682e-002
3.989998e+003, 5.897770e-002
3.991926e+003, 5.972468e-002
3.993854e+003, 6.164019e-002
3.995783e+003, 6.109793e-002
3.997711e+003, 6.152191e-002
3.999640e+003, 6.155159e-002
##END=



