##NAMES=Topaz
##RRUFFID=R060026
##IDEAL CHEMISTRY=Al_2_SiO_4_F_2_
##LOCALITY=Capao Topaz mine, Minas Gerais, Brazil, GPS Coordinates: 20 25 58 S, 43 38 25 W, 3694 ft. ASL
##OWNER=RRUFF
##SOURCE=Eric Van Valkenburg
##DESCRIPTION=Transparent brown prismatic crystal
##STATUS=The identification of this mineral has been confirmed by X-ray diffraction and chemical analysis
##URL=rruff.info/R060026
##MEASURED CHEMISTRY=Al_2.00_Si_1.00_O_4_(F_0.60_(OH)_0.40_)_2_
3.991926e+002, 2.915376e-001
4.011211e+002, 2.838758e-001
4.030495e+002, 2.760295e-001
4.049780e+002, 2.766789e-001
4.069065e+002, 2.759995e-001
4.088349e+002, 2.687518e-001
4.107634e+002, 2.689614e-001
4.126919e+002, 2.750437e-001
4.146203e+002, 2.801155e-001
4.165488e+002, 2.850553e-001
4.184773e+002, 2.896375e-001
4.204057e+002, 2.927521e-001
4.223342e+002, 2.926815e-001
4.242627e+002, 2.935206e-001
4.261911e+002, 2.984228e-001
4.281196e+002, 3.053981e-001
4.300481e+002, 3.046283e-001
4.319765e+002, 3.058443e-001
4.339050e+002, 3.085475e-001
4.358335e+002, 3.055163e-001
4.377619e+002, 3.048648e-001
4.396904e+002, 3.064844e-001
4.416189e+002, 3.036623e-001
4.435473e+002, 3.006505e-001
4.454758e+002, 2.977474e-001
4.474043e+002, 2.952208e-001
4.493327e+002, 2.898830e-001
4.512612e+002, 2.826940e-001
4.531897e+002, 2.731929e-001
4.551181e+002, 2.626213e-001
4.570466e+002, 2.522508e-001
4.589751e+002, 2.434579e-001
4.609035e+002, 2.351227e-001
4.628320e+002, 2.264018e-001
4.647605e+002, 2.192309e-001
4.666889e+002, 2.129334e-001
4.686174e+002, 2.100897e-001
4.705459e+002, 2.112890e-001
4.724743e+002, 2.140801e-001
4.744028e+002, 2.176081e-001
4.763313e+002, 2.208178e-001
4.782597e+002, 2.195507e-001
4.801882e+002, 2.140215e-001
4.821167e+002, 2.064365e-001
4.840451e+002, 1.986472e-001
4.859736e+002, 1.916769e-001
4.879021e+002, 1.868907e-001
4.898305e+002, 1.848951e-001
4.917590e+002, 1.838636e-001
4.936875e+002, 1.839577e-001
4.956159e+002, 1.852854e-001
4.975444e+002, 1.863362e-001
4.994729e+002, 1.873475e-001
5.014013e+002, 1.886246e-001
5.033298e+002, 1.892148e-001
5.052583e+002, 1.903380e-001
5.071867e+002, 1.908178e-001
5.091152e+002, 1.901316e-001
5.110437e+002, 1.882323e-001
5.129721e+002, 1.850827e-001
5.149006e+002, 1.814674e-001
5.168290e+002, 1.761645e-001
5.187575e+002, 1.699782e-001
5.206860e+002, 1.654129e-001
5.226144e+002, 1.621726e-001
5.245429e+002, 1.593582e-001
5.264714e+002, 1.568040e-001
5.283998e+002, 1.549055e-001
5.303283e+002, 1.524362e-001
5.322568e+002, 1.503510e-001
5.341852e+002, 1.491095e-001
5.361137e+002, 1.479446e-001
5.380422e+002, 1.469399e-001
5.399706e+002, 1.467746e-001
5.418991e+002, 1.471329e-001
5.438276e+002, 1.472570e-001
5.457560e+002, 1.475701e-001
5.476845e+002, 1.485198e-001
5.496130e+002, 1.510496e-001
5.515414e+002, 1.539898e-001
5.534699e+002, 1.563009e-001
5.553984e+002, 1.571593e-001
5.573268e+002, 1.557146e-001
5.592553e+002, 1.520578e-001
5.611838e+002, 1.474771e-001
5.631122e+002, 1.428951e-001
5.650407e+002, 1.388728e-001
5.669692e+002, 1.369118e-001
5.688976e+002, 1.377077e-001
5.708261e+002, 1.407772e-001
5.727546e+002, 1.452854e-001
5.746830e+002, 1.504335e-001
5.766115e+002, 1.561145e-001
5.785400e+002, 1.627735e-001
5.804684e+002, 1.707390e-001
5.823969e+002, 1.809608e-001
5.843254e+002, 1.934273e-001
5.862538e+002, 2.067214e-001
5.881823e+002, 2.196039e-001
5.901108e+002, 2.317032e-001
5.920392e+002, 2.429259e-001
5.939677e+002, 2.524428e-001
5.958962e+002, 2.610133e-001
5.978246e+002, 2.688316e-001
5.997531e+002, 2.751043e-001
6.016816e+002, 2.795179e-001
6.036100e+002, 2.821179e-001
6.055385e+002, 2.824856e-001
6.074670e+002, 2.805503e-001
6.093954e+002, 2.769777e-001
6.113239e+002, 2.714927e-001
6.132524e+002, 2.643126e-001
6.151808e+002, 2.559318e-001
6.171093e+002, 2.467417e-001
6.190378e+002, 2.370194e-001
6.209662e+002, 2.273681e-001
6.228947e+002, 2.176758e-001
6.248232e+002, 2.083149e-001
6.267516e+002, 1.994872e-001
6.286801e+002, 1.906929e-001
6.306086e+002, 1.821830e-001
6.325370e+002, 1.742623e-001
6.344655e+002, 1.665052e-001
6.363940e+002, 1.589571e-001
6.383224e+002, 1.516603e-001
6.402509e+002, 1.448346e-001
6.421794e+002, 1.383282e-001
6.441078e+002, 1.320973e-001
6.460363e+002, 1.258696e-001
6.479648e+002, 1.198439e-001
6.498932e+002, 1.140194e-001
6.518217e+002, 1.081374e-001
6.537502e+002, 1.025447e-001
6.556786e+002, 9.713476e-002
6.576071e+002, 9.173396e-002
6.595356e+002, 8.675884e-002
6.614641e+002, 8.208771e-002
6.633925e+002, 7.740966e-002
6.653210e+002, 7.316644e-002
6.672495e+002, 6.945027e-002
6.691779e+002, 6.597193e-002
6.711064e+002, 6.279530e-002
6.730349e+002, 5.981551e-002
6.749633e+002, 5.729277e-002
6.768918e+002, 5.531507e-002
6.788203e+002, 5.353924e-002
6.807487e+002, 5.204245e-002
6.826772e+002, 5.107151e-002
6.846057e+002, 5.047854e-002
6.865341e+002, 4.996008e-002
6.884626e+002, 4.977635e-002
6.903911e+002, 4.971491e-002
6.923195e+002, 4.944993e-002
6.942480e+002, 4.925992e-002
6.961765e+002, 4.907110e-002
6.981049e+002, 4.863497e-002
7.000334e+002, 4.785110e-002
7.019619e+002, 4.673693e-002
7.038903e+002, 4.475906e-002
7.058188e+002, 4.211148e-002
7.077473e+002, 3.934280e-002
7.096757e+002, 3.683742e-002
7.116042e+002, 3.473713e-002
7.135327e+002, 3.301161e-002
7.154611e+002, 3.175677e-002
7.173896e+002, 3.110086e-002
7.193181e+002, 3.087659e-002
7.212465e+002, 3.075962e-002
7.231750e+002, 3.092232e-002
7.251035e+002, 3.141189e-002
7.270319e+002, 3.194842e-002
7.289604e+002, 3.265652e-002
7.308889e+002, 3.378698e-002
7.328173e+002, 3.513344e-002
7.347458e+002, 3.675150e-002
7.366743e+002, 3.875684e-002
7.386027e+002, 4.106946e-002
7.405312e+002, 4.399865e-002
7.424597e+002, 4.733407e-002
7.443881e+002, 5.069070e-002
7.463166e+002, 5.376995e-002
7.482451e+002, 5.674677e-002
7.501735e+002, 5.960312e-002
7.521020e+002, 6.237685e-002
7.540305e+002, 6.531586e-002
7.559589e+002, 6.904639e-002
7.578874e+002, 7.360125e-002
7.598159e+002, 7.880665e-002
7.617443e+002, 8.378927e-002
7.636728e+002, 8.757158e-002
7.656013e+002, 8.989493e-002
7.675297e+002, 9.085277e-002
7.694582e+002, 9.077977e-002
7.713867e+002, 9.042833e-002
7.733151e+002, 9.009878e-002
7.752436e+002, 9.030439e-002
7.771721e+002, 9.173051e-002
7.791005e+002, 9.482095e-002
7.810290e+002, 9.959194e-002
7.829575e+002, 1.057939e-001
7.848859e+002, 1.131617e-001
7.868144e+002, 1.215350e-001
7.887429e+002, 1.305681e-001
7.906713e+002, 1.400236e-001
7.925998e+002, 1.499475e-001
7.945283e+002, 1.602830e-001
7.964567e+002, 1.709460e-001
7.983852e+002, 1.818332e-001
8.003137e+002, 1.930051e-001
8.022421e+002, 2.040987e-001
8.041706e+002, 2.148673e-001
8.060991e+002, 2.253245e-001
8.080275e+002, 2.355653e-001
8.099560e+002, 2.455359e-001
8.118845e+002, 2.555623e-001
8.138129e+002, 2.656775e-001
8.157414e+002, 2.752899e-001
8.176699e+002, 2.844312e-001
8.195983e+002, 2.929501e-001
8.215268e+002, 3.012110e-001
8.234553e+002, 3.089494e-001
8.253837e+002, 3.156388e-001
8.273122e+002, 3.215091e-001
8.292407e+002, 3.264622e-001
8.311691e+002, 3.301711e-001
8.330976e+002, 3.326100e-001
8.350261e+002, 3.339752e-001
8.369545e+002, 3.345505e-001
8.388830e+002, 3.344850e-001
8.408115e+002, 3.337702e-001
8.427399e+002, 3.328570e-001
8.446684e+002, 3.317732e-001
8.465969e+002, 3.300388e-001
8.485253e+002, 3.281062e-001
8.504538e+002, 3.263332e-001
8.523823e+002, 3.243518e-001
8.543107e+002, 3.221951e-001
8.562392e+002, 3.195430e-001
8.581677e+002, 3.166276e-001
8.600961e+002, 3.134874e-001
8.620246e+002, 3.097917e-001
8.639531e+002, 3.060363e-001
8.658815e+002, 3.022032e-001
8.678100e+002, 2.978484e-001
8.697385e+002, 2.930363e-001
8.716669e+002, 2.875177e-001
8.735954e+002, 2.814627e-001
8.755239e+002, 2.748868e-001
8.774523e+002, 2.677107e-001
8.793808e+002, 2.603801e-001
8.813093e+002, 2.536264e-001
8.832377e+002, 2.474444e-001
8.851662e+002, 2.422057e-001
8.870947e+002, 2.378478e-001
8.890231e+002, 2.337574e-001
8.909516e+002, 2.297525e-001
8.928801e+002, 2.255483e-001
8.948085e+002, 2.207430e-001
8.967370e+002, 2.157192e-001
8.986655e+002, 2.108229e-001
9.005939e+002, 2.060752e-001
9.025224e+002, 2.015953e-001
9.044509e+002, 1.971796e-001
9.063793e+002, 1.926075e-001
9.083078e+002, 1.879089e-001
9.102363e+002, 1.831142e-001
9.121647e+002, 1.781446e-001
9.140932e+002, 1.733530e-001
9.160217e+002, 1.691891e-001
9.179501e+002, 1.655358e-001
9.198786e+002, 1.622632e-001
9.218071e+002, 1.591152e-001
9.237355e+002, 1.560201e-001
9.256640e+002, 1.527449e-001
9.275925e+002, 1.490759e-001
9.295209e+002, 1.450470e-001
9.314494e+002, 1.406987e-001
9.333779e+002, 1.359813e-001
9.353063e+002, 1.311151e-001
9.372348e+002, 1.262767e-001
9.391633e+002, 1.214380e-001
9.410917e+002, 1.168042e-001
9.430202e+002, 1.122304e-001
9.449487e+002, 1.078110e-001
9.468771e+002, 1.035327e-001
9.488056e+002, 9.930272e-002
9.507341e+002, 9.512670e-002
9.526625e+002, 9.105892e-002
9.545910e+002, 8.702954e-002
9.565195e+002, 8.289953e-002
9.584479e+002, 7.887219e-002
9.603764e+002, 7.512681e-002
9.623049e+002, 7.148231e-002
9.642333e+002, 6.795806e-002
9.661618e+002, 6.474370e-002
9.680903e+002, 6.213049e-002
9.700187e+002, 5.997747e-002
9.719472e+002, 5.827143e-002
9.738757e+002, 5.717289e-002
9.758041e+002, 5.673632e-002
9.777326e+002, 5.678078e-002
9.796611e+002, 5.740561e-002
9.815895e+002, 5.826419e-002
9.835180e+002, 5.920913e-002
9.854465e+002, 6.032899e-002
9.873749e+002, 6.146640e-002
9.893034e+002, 6.202261e-002
9.912319e+002, 6.192565e-002
9.931603e+002, 6.131164e-002
9.950888e+002, 6.002358e-002
9.970173e+002, 5.813535e-002
9.989457e+002, 5.590236e-002
1.000874e+003, 5.349345e-002
1.002803e+003, 5.084040e-002
1.004731e+003, 4.824030e-002
1.006660e+003, 4.588581e-002
1.008588e+003, 4.367812e-002
1.010517e+003, 4.165520e-002
1.012445e+003, 3.973296e-002
1.014373e+003, 3.788786e-002
1.016302e+003, 3.624237e-002
1.018230e+003, 3.478635e-002
1.020159e+003, 3.342183e-002
1.022087e+003, 3.208706e-002
1.024016e+003, 3.062689e-002
1.025944e+003, 2.897163e-002
1.027873e+003, 2.747063e-002
1.029801e+003, 2.605567e-002
1.031730e+003, 2.447383e-002
1.033658e+003, 2.293371e-002
1.035587e+003, 2.163835e-002
1.037515e+003, 2.030343e-002
1.039443e+003, 1.877388e-002
1.041372e+003, 1.737832e-002
1.043300e+003, 1.624910e-002
1.045229e+003, 1.533889e-002
1.047157e+003, 1.446744e-002
1.049086e+003, 1.372742e-002
1.051014e+003, 1.308940e-002
1.052943e+003, 1.247027e-002
1.054871e+003, 1.179262e-002
1.056800e+003, 1.129720e-002
1.058728e+003, 1.096251e-002
1.060657e+003, 1.049289e-002
1.062585e+003, 1.004098e-002
1.064514e+003, 9.732723e-003
1.066442e+003, 9.455976e-003
1.068370e+003, 9.214676e-003
1.070299e+003, 8.886475e-003
1.072227e+003, 8.549110e-003
1.074156e+003, 8.369716e-003
1.076084e+003, 8.215322e-003
1.078013e+003, 8.013435e-003
1.079941e+003, 7.815130e-003
1.081870e+003, 7.613939e-003
1.083798e+003, 7.570543e-003
1.085727e+003, 7.534919e-003
1.087655e+003, 7.416274e-003
1.089584e+003, 7.216252e-003
1.091512e+003, 7.111345e-003
1.093441e+003, 7.046057e-003
1.095369e+003, 6.992551e-003
1.097297e+003, 6.901231e-003
1.099226e+003, 6.925665e-003
1.101154e+003, 7.068769e-003
1.103083e+003, 7.173521e-003
1.105011e+003, 7.051726e-003
1.106940e+003, 6.988370e-003
1.108868e+003, 7.149200e-003
1.110797e+003, 7.378980e-003
1.112725e+003, 7.438365e-003
1.114654e+003, 7.565700e-003
1.116582e+003, 7.823494e-003
1.118511e+003, 8.155217e-003
1.120439e+003, 8.530219e-003
1.122368e+003, 8.973548e-003
1.124296e+003, 9.495373e-003
1.126224e+003, 9.962901e-003
1.128153e+003, 1.051076e-002
1.130081e+003, 1.147805e-002
1.132010e+003, 1.264497e-002
1.133938e+003, 1.406272e-002
1.135867e+003, 1.583838e-002
1.137795e+003, 1.818579e-002
1.139724e+003, 2.156493e-002
1.141652e+003, 2.652221e-002
1.143581e+003, 3.362006e-002
1.145509e+003, 4.318324e-002
1.147438e+003, 5.456280e-002
1.149366e+003, 6.638516e-002
1.151295e+003, 7.675922e-002
1.153223e+003, 8.429775e-002
1.155151e+003, 8.869513e-002
1.157080e+003, 9.029971e-002
1.159008e+003, 8.931576e-002
1.160937e+003, 8.600847e-002
1.162865e+003, 8.078676e-002
1.164794e+003, 7.422422e-002
1.166722e+003, 6.676099e-002
1.168651e+003, 5.882512e-002
1.170579e+003, 5.083581e-002
1.172508e+003, 4.284592e-002
1.174436e+003, 3.519418e-002
1.176365e+003, 2.828456e-002
1.178293e+003, 2.228517e-002
1.180222e+003, 1.732668e-002
1.182150e+003, 1.344830e-002
1.184078e+003, 1.078855e-002
1.186007e+003, 9.000532e-003
1.187935e+003, 7.652337e-003
1.189864e+003, 6.694409e-003
1.191792e+003, 6.148066e-003
1.193721e+003, 5.757874e-003
1.195649e+003, 5.476428e-003
1.197578e+003, 5.325442e-003
1.199506e+003, 5.099093e-003
1.201435e+003, 4.775104e-003
1.203363e+003, 4.532221e-003
1.205292e+003, 4.264538e-003
1.207220e+003, 3.952791e-003
1.209149e+003, 3.614765e-003
1.211077e+003, 3.165645e-003
1.213005e+003, 2.745730e-003
1.214934e+003, 2.403900e-003
1.216862e+003, 2.050473e-003
1.218791e+003, 1.741410e-003
1.220719e+003, 1.477496e-003
1.222648e+003, 1.246251e-003
1.224576e+003, 1.012055e-003
1.226505e+003, 8.862212e-004
1.228433e+003, 7.576533e-004
1.230362e+003, 6.883430e-004
1.232290e+003, 5.343737e-004
1.234219e+003, 4.531815e-004
1.236147e+003, 3.576053e-004
1.238076e+003, 2.255887e-004
1.240004e+003, 1.857834e-004
1.241932e+003, 1.267576e-004
1.243861e+003, -9.428973e-005
1.245789e+003, -1.364480e-004
1.247718e+003, -1.674916e-004
1.249646e+003, -3.363182e-004
1.251575e+003, -4.592905e-004
1.253503e+003, -4.314049e-004
1.255432e+003, -3.977768e-004
1.257360e+003, -4.379359e-004
1.259289e+003, -5.459953e-004
1.261217e+003, -6.684701e-004
1.263146e+003, -7.385449e-004
1.265074e+003, -6.609689e-004
1.267003e+003, -6.291439e-004
1.268931e+003, -6.794035e-004
1.270859e+003, -7.819519e-004
1.272788e+003, -7.463307e-004
1.274716e+003, -6.342401e-004
1.276645e+003, -7.760075e-004
1.278573e+003, -7.987972e-004
1.280502e+003, -6.817002e-004
1.282430e+003, -6.427044e-004
1.284359e+003, -6.041806e-004
1.286287e+003, -6.469788e-004
1.288216e+003, -7.064401e-004
1.290144e+003, -7.394316e-004
1.292073e+003, -7.289929e-004
1.294001e+003, -6.514154e-004
1.295930e+003, -6.293111e-004
1.297858e+003, -7.987787e-004
1.299786e+003, -8.376377e-004
1.301715e+003, -7.535581e-004
1.303643e+003, -6.716288e-004
1.305572e+003, -7.477985e-004
1.307500e+003, -7.688483e-004
1.309429e+003, -7.142597e-004
1.311357e+003, -7.515463e-004
1.313286e+003, -8.254810e-004
1.315214e+003, -8.870022e-004
1.317143e+003, -9.191091e-004
1.319071e+003, -7.740373e-004
1.321000e+003, -7.001560e-004
1.322928e+003, -8.098749e-004
1.324857e+003, -7.986498e-004
1.326785e+003, -7.660955e-004
1.328714e+003, -9.314030e-004
1.330642e+003, -9.684525e-004
1.332570e+003, -8.622921e-004
1.334499e+003, -8.292333e-004
1.336427e+003, -8.810589e-004
1.338356e+003, -9.539674e-004
1.340284e+003, -9.637215e-004
1.342213e+003, -8.405547e-004
1.344141e+003, -7.919508e-004
1.346070e+003, -7.798584e-004
1.347998e+003, -8.100130e-004
1.349927e+003, -7.589989e-004
1.351855e+003, -7.301997e-004
1.353784e+003, -7.516253e-004
1.355712e+003, -8.570825e-004
1.357641e+003, -9.264394e-004
1.359569e+003, -8.960455e-004
1.361497e+003, -9.286660e-004
1.363426e+003, -9.959211e-004
1.365354e+003, -7.109680e-004
1.367283e+003, -7.225604e-004
1.369211e+003, -8.163266e-004
1.371140e+003, -8.436538e-004
1.373068e+003, -8.589692e-004
1.374997e+003, -8.571729e-004
1.376925e+003, -7.110236e-004
1.378854e+003, -7.146662e-004
1.380782e+003, -6.558919e-004
1.382711e+003, -6.518653e-004
1.384639e+003, -6.644608e-004
1.386568e+003, -9.587014e-004
1.388496e+003, -8.451906e-004
1.390424e+003, -4.638427e-004
1.392353e+003, -5.674621e-004
1.394281e+003, -1.017030e-003
1.396210e+003, -7.920905e-004
1.398138e+003, -6.393323e-004
1.400067e+003, -5.185567e-004
1.401995e+003, -2.960708e-004
1.403924e+003, -3.852306e-004
1.405852e+003, -4.742955e-004
1.407781e+003, -3.619549e-004
1.409709e+003, -2.604427e-004
1.411638e+003, -1.266489e-004
1.413566e+003, -7.821306e-005
1.415495e+003, -1.836840e-004
1.417423e+003, -8.240587e-004
1.419351e+003, -1.322959e-003
1.421280e+003, -6.186768e-004
1.423208e+003, -2.201352e-004
1.425137e+003, -1.080312e-004
1.427065e+003, 7.958482e-005
1.428994e+003, 3.134539e-005
1.430922e+003, 6.206572e-005
1.432851e+003, 2.384708e-004
1.434779e+003, -1.983054e-004
1.436708e+003, -8.442554e-004
1.438636e+003, -1.737251e-004
1.440565e+003, 4.280614e-004
1.442493e+003, 7.779264e-004
1.444422e+003, 8.556415e-004
1.446350e+003, 6.891332e-004
1.448278e+003, 6.289962e-004
1.450207e+003, 8.786524e-004
1.452135e+003, 9.999025e-004
1.454064e+003, 7.236777e-004
1.455992e+003, -6.013994e-004
1.457921e+003, -3.691978e-004
1.459849e+003, 1.034089e-003
1.461778e+003, 1.493978e-003
1.463706e+003, 1.176741e-003
1.465635e+003, 1.272684e-003
1.467563e+003, 1.720140e-003
1.469492e+003, 1.668113e-003
1.471420e+003, 8.608455e-004
1.473349e+003, 6.225857e-004
1.475277e+003, 1.363593e-003
1.477205e+003, 1.846982e-003
1.479134e+003, 2.168512e-003
1.481062e+003, 2.001091e-003
1.482991e+003, 1.985657e-003
1.484919e+003, 1.866644e-003
1.486848e+003, 1.517576e-003
1.488776e+003, 1.178116e-003
1.490705e+003, 1.124421e-003
1.492633e+003, 1.488979e-003
1.494562e+003, 1.008681e-003
1.496490e+003, 3.742248e-004
1.498419e+003, 7.513696e-004
1.500347e+003, 1.218350e-003
1.502276e+003, 1.331135e-003
1.504204e+003, 5.437809e-005
1.506132e+003, -1.668714e-003
1.508061e+003, -8.019474e-004
1.509989e+003, 5.675088e-004
1.511918e+003, 5.421617e-004
1.513846e+003, 4.701658e-004
1.515775e+003, 3.982863e-005
1.517703e+003, -2.153468e-004
1.519632e+003, -8.887103e-004
1.521560e+003, -1.507214e-003
1.523489e+003, -6.616550e-004
1.525417e+003, -3.574969e-004
1.527346e+003, 1.756091e-005
1.529274e+003, 3.366423e-004
1.531203e+003, 1.237032e-004
1.533131e+003, -4.637841e-004
1.535059e+003, -1.434174e-004
1.536988e+003, -5.044413e-004
1.538916e+003, -2.381801e-003
1.540845e+003, -2.582499e-003
1.542773e+003, -1.303832e-003
1.544702e+003, -5.235944e-004
1.546630e+003, -1.270891e-005
1.548559e+003, 2.084535e-004
1.550487e+003, 2.157536e-004
1.552416e+003, -1.838651e-004
1.554344e+003, -7.196101e-004
1.556273e+003, -1.273089e-003
1.558201e+003, -3.151498e-003
1.560130e+003, -2.705805e-003
1.562058e+003, -2.324539e-004
1.563986e+003, 5.436663e-004
1.565915e+003, 5.354573e-004
1.567843e+003, 3.046450e-004
1.569772e+003, -2.153299e-005
1.571700e+003, 5.952367e-004
1.573629e+003, 4.270092e-004
1.575557e+003, -1.005608e-003
1.577486e+003, -4.503540e-004
1.579414e+003, 7.900457e-004
1.581343e+003, 9.004436e-004
1.583271e+003, 9.051662e-004
1.585200e+003, 6.879361e-004
1.587128e+003, 5.588685e-004
1.589057e+003, 6.223096e-004
1.590985e+003, 8.559485e-004
1.592913e+003, 8.502220e-004
1.594842e+003, 8.722034e-004
1.596770e+003, 9.757706e-004
1.598699e+003, 1.041827e-003
1.600627e+003, 9.941668e-004
1.602556e+003, 9.312915e-004
1.604484e+003, 9.498200e-004
1.606413e+003, 8.427719e-004
1.608341e+003, 7.413492e-004
1.610270e+003, 7.602380e-004
1.612198e+003, 8.091722e-004
1.614127e+003, 4.479524e-004
1.616055e+003, -6.878951e-004
1.617984e+003, -2.453853e-004
1.619912e+003, 8.078851e-004
1.621840e+003, 4.163248e-004
1.623769e+003, 2.008716e-004
1.625697e+003, 6.284640e-004
1.627626e+003, 6.086982e-004
1.629554e+003, 7.777748e-004
1.631483e+003, 1.008947e-003
1.633411e+003, 2.630252e-004
1.635340e+003, -8.007339e-004
1.637268e+003, -1.367069e-005
1.639197e+003, 9.305586e-004
1.641125e+003, 9.567544e-004
1.643054e+003, 6.931527e-004
1.644982e+003, -2.817347e-004
1.646911e+003, -5.451528e-004
1.648839e+003, 2.529941e-004
1.650767e+003, -8.641774e-004
1.652696e+003, -3.444971e-003
1.654624e+003, -1.773517e-003
1.656553e+003, 6.102323e-004
1.658481e+003, 1.126741e-003
1.660410e+003, 9.025533e-004
1.662338e+003, 3.937640e-004
1.664267e+003, 6.118597e-004
1.666195e+003, 7.864755e-004
1.668124e+003, 8.401781e-005
1.670052e+003, -2.072021e-004
1.671981e+003, 2.561015e-004
1.673909e+003, 3.022816e-005
1.675838e+003, -1.043838e-004
1.677766e+003, 6.786393e-004
1.679694e+003, 8.013720e-004
1.681623e+003, 1.783224e-004
1.683551e+003, -1.902619e-003
1.685480e+003, -1.660450e-003
1.687408e+003, 3.043290e-004
1.689337e+003, 7.832781e-004
1.691265e+003, 8.948065e-004
1.693194e+003, 4.171832e-004
1.695122e+003, -1.429615e-003
1.697051e+003, -1.354071e-003
1.698979e+003, -1.640217e-003
1.700908e+003, -1.886875e-003
1.702836e+003, -1.127222e-004
1.704765e+003, -1.127934e-004
1.706693e+003, -6.989205e-005
1.708621e+003, 2.769484e-004
1.710550e+003, 5.399353e-004
1.712478e+003, 2.271135e-004
1.714407e+003, -3.902632e-004
1.716335e+003, -1.556134e-003
1.718264e+003, -1.424811e-003
1.720192e+003, 1.501450e-004
1.722121e+003, 6.972087e-004
1.724049e+003, 6.644839e-004
1.725978e+003, 7.378102e-004
1.727906e+003, 5.898754e-004
1.729835e+003, 3.200084e-004
1.731763e+003, -5.559244e-004
1.733692e+003, -2.039549e-003
1.735620e+003, -1.241842e-003
1.737548e+003, -2.628855e-004
1.739477e+003, -7.089346e-004
1.741405e+003, -6.185772e-004
1.743334e+003, -5.993498e-004
1.745262e+003, -5.270308e-004
1.747191e+003, -7.420953e-004
1.749119e+003, -1.224595e-003
1.751048e+003, -1.519514e-003
1.752976e+003, -5.857758e-004
1.754905e+003, 1.796766e-005
1.756833e+003, -2.549598e-005
1.758762e+003, 2.128495e-004
1.760690e+003, -6.416997e-005
1.762619e+003, -7.621170e-005
1.764547e+003, 5.091206e-004
1.766475e+003, 4.172601e-004
1.768404e+003, 1.766823e-004
1.770332e+003, -1.255771e-004
1.772261e+003, -8.047774e-004
1.774189e+003, 4.567812e-005
1.776118e+003, 1.105759e-003
1.778046e+003, 1.326819e-003
1.779975e+003, 1.152931e-003
1.781903e+003, 1.177123e-003
1.783832e+003, 1.095113e-003
1.785760e+003, 1.160530e-003
1.787689e+003, 1.489013e-003
1.789617e+003, 9.349087e-004
1.791546e+003, 2.240612e-004
1.793474e+003, 5.539789e-004
1.795402e+003, 9.964218e-004
1.797331e+003, 9.193820e-004
1.799259e+003, 9.299782e-004
1.801188e+003, 9.677230e-004
1.803116e+003, 1.259112e-003
1.805045e+003, 1.413770e-003
1.806973e+003, 1.563866e-003
1.808902e+003, 1.317964e-003
1.810830e+003, 1.249595e-003
1.812759e+003, 1.393998e-003
1.814687e+003, 1.197455e-003
1.816616e+003, 1.022780e-003
1.818544e+003, 1.457966e-003
1.820473e+003, 1.669780e-003
1.822401e+003, 1.590226e-003
1.824329e+003, 1.383579e-003
1.826258e+003, 1.408925e-003
1.828186e+003, 1.143028e-003
1.830115e+003, 1.068573e-003
1.832043e+003, 1.284297e-003
1.833972e+003, 1.147741e-003
1.835900e+003, 1.249165e-003
1.837829e+003, 1.556646e-003
1.839757e+003, 1.562066e-003
1.841686e+003, 1.448765e-003
1.843614e+003, 8.310839e-004
1.845543e+003, 9.886145e-004
1.847471e+003, 1.543224e-003
1.849400e+003, 1.667820e-003
1.851328e+003, 1.683636e-003
1.853256e+003, 1.543565e-003
1.855185e+003, 1.797228e-003
1.857113e+003, 1.944159e-003
1.859042e+003, 1.671454e-003
1.860970e+003, 1.650759e-003
1.862899e+003, 1.779151e-003
1.864827e+003, 1.606568e-003
1.866756e+003, 1.113998e-003
1.868684e+003, 7.906324e-004
1.870613e+003, 1.143920e-003
1.872541e+003, 1.564352e-003
1.874470e+003, 1.755034e-003
1.876398e+003, 1.654351e-003
1.878327e+003, 1.421850e-003
1.880255e+003, 1.564491e-003
1.882183e+003, 1.615522e-003
1.884112e+003, 1.601978e-003
1.886040e+003, 1.366155e-003
1.887969e+003, 1.117261e-003
1.889897e+003, 1.046733e-003
1.891826e+003, 1.229209e-003
1.893754e+003, 1.433717e-003
1.895683e+003, 1.488410e-003
1.897611e+003, 1.479909e-003
1.899540e+003, 1.560926e-003
1.901468e+003, 1.548056e-003
1.903397e+003, 1.400205e-003
1.905325e+003, 1.347810e-003
1.907254e+003, 1.423553e-003
1.909182e+003, 1.274888e-003
1.911110e+003, 1.140848e-003
1.913039e+003, 1.001353e-003
1.914967e+003, 8.829396e-004
1.916896e+003, 4.355058e-004
1.918824e+003, 7.473177e-004
1.920753e+003, 1.036613e-003
1.922681e+003, 5.514318e-004
1.924610e+003, 6.170759e-004
1.926538e+003, 5.865846e-004
1.928467e+003, 6.332118e-004
1.930395e+003, 1.021516e-003
1.932324e+003, 8.911343e-004
1.934252e+003, 5.417316e-004
1.936181e+003, 6.808799e-004
1.938109e+003, 1.013768e-003
1.940037e+003, 8.183122e-004
1.941966e+003, 7.607743e-004
1.943894e+003, 9.822943e-004
1.945823e+003, 1.005603e-003
1.947751e+003, 3.875681e-004
1.949680e+003, 3.910542e-004
1.951608e+003, 4.730894e-004
1.953537e+003, -1.561109e-004
1.955465e+003, -8.179996e-004
1.957394e+003, -8.601437e-004
1.959322e+003, -2.843460e-005
1.961251e+003, 5.585920e-004
1.963179e+003, 6.325017e-004
1.965108e+003, -7.129461e-005
1.967036e+003, -1.035538e-003
1.968964e+003, -9.500152e-004
1.970893e+003, -1.371779e-003
1.972821e+003, -1.627935e-003
1.974750e+003, -1.372438e-003
1.976678e+003, -3.097370e-004
1.978607e+003, 1.750443e-003
1.980535e+003, 2.741308e-003
1.982464e+003, 2.607977e-003
1.984392e+003, 2.223011e-003
1.986321e+003, 1.344657e-003
1.988249e+003, 9.677077e-004
1.990178e+003, 9.853487e-004
1.992106e+003, 6.903076e-004
1.994035e+003, 2.229503e-004
1.995963e+003, -4.707485e-004
1.997891e+003, -4.549934e-004
1.999820e+003, -1.549733e-004
2.001748e+003, -4.345257e-004
2.003677e+003, -1.180408e-003
2.005605e+003, -1.542754e-003
2.007534e+003, -8.276195e-004
2.009462e+003, -9.806919e-005
2.011391e+003, 1.558311e-004
2.013319e+003, -4.002472e-005
2.015248e+003, -2.818714e-004
2.017176e+003, 3.437443e-004
2.019105e+003, 9.393260e-004
2.021033e+003, 7.331711e-004
2.022962e+003, 3.154946e-004
2.024890e+003, 1.090997e-004
2.026818e+003, 6.657072e-004
2.028747e+003, 7.865630e-004
2.030675e+003, -5.414738e-004
2.032604e+003, -2.141419e-004
2.034532e+003, 1.111451e-003
2.036461e+003, 2.375988e-003
2.038389e+003, 2.912792e-003
2.040318e+003, 1.885180e-003
2.042246e+003, 1.335212e-003
2.044175e+003, 2.036115e-003
2.046103e+003, 2.162939e-003
2.048031e+003, 2.608815e-003
2.049960e+003, 3.009608e-003
2.051888e+003, 2.053747e-003
2.053817e+003, 1.568531e-003
2.055745e+003, 1.274731e-003
2.057674e+003, 1.064022e-003
2.059602e+003, 1.915308e-003
2.061531e+003, 2.839848e-003
2.063459e+003, 2.608033e-003
2.065388e+003, 2.265719e-003
2.067316e+003, 2.363980e-003
2.069245e+003, 2.243693e-003
2.071173e+003, 2.223356e-003
2.073102e+003, 2.091916e-003
2.075030e+003, 2.624174e-003
2.076958e+003, 2.969218e-003
2.078887e+003, 2.540216e-003
2.080815e+003, 2.397735e-003
2.082744e+003, 2.699198e-003
2.084672e+003, 2.822599e-003
2.086601e+003, 2.487314e-003
2.088529e+003, 2.477192e-003
2.090458e+003, 2.072704e-003
2.092386e+003, 1.329458e-003
2.094315e+003, 1.555110e-003
2.096243e+003, 1.892098e-003
2.098172e+003, 2.190523e-003
2.100100e+003, 2.458820e-003
2.102029e+003, 2.356049e-003
2.103957e+003, 2.414406e-003
2.105885e+003, 3.156547e-003
2.107814e+003, 3.063501e-003
2.109742e+003, 2.558220e-003
2.111671e+003, 3.057804e-003
2.113599e+003, 3.249491e-003
2.115528e+003, 2.486793e-003
2.117456e+003, 2.030000e-003
2.119385e+003, 1.907990e-003
2.121313e+003, 1.172371e-003
2.123242e+003, 8.860112e-004
2.125170e+003, 1.235280e-003
2.127099e+003, 1.215653e-003
2.129027e+003, 5.547776e-004
2.130956e+003, -1.368972e-004
2.132884e+003, -6.183067e-004
2.134813e+003, -2.577224e-004
2.136741e+003, 4.331069e-004
2.138669e+003, 9.599777e-004
2.140598e+003, 6.499153e-004
2.142526e+003, 3.739824e-004
2.144455e+003, -1.305889e-004
2.146383e+003, -2.677932e-004
2.148312e+003, -5.569771e-004
2.150240e+003, -3.523882e-004
2.152169e+003, -7.666963e-004
2.154097e+003, -1.317563e-003
2.156026e+003, -1.230137e-003
2.157954e+003, -3.605854e-004
2.159883e+003, 3.353829e-003
2.161811e+003, 4.676645e-003
2.163740e+003, 4.572746e-003
2.165668e+003, 4.402842e-003
2.167596e+003, 4.351419e-003
2.169525e+003, 3.547804e-003
2.171453e+003, 2.345719e-003
2.173382e+003, 2.794995e-003
2.175310e+003, 4.040751e-003
2.177239e+003, 3.534640e-003
2.179167e+003, 2.427670e-003
2.181096e+003, 2.306364e-003
2.183024e+003, 3.385625e-003
2.184953e+003, 4.088472e-003
2.186881e+003, 3.602807e-003
2.188810e+003, 3.122135e-003
2.190738e+003, 3.210170e-003
2.192667e+003, 3.744931e-003
2.194595e+003, 4.274132e-003
2.196523e+003, 3.803981e-003
2.198452e+003, 3.293323e-003
2.200380e+003, 4.009344e-003
2.202309e+003, 3.767480e-003
2.204237e+003, 3.555013e-003
2.206166e+003, 3.479692e-003
2.208094e+003, 3.648184e-003
2.210023e+003, 3.808318e-003
2.211951e+003, 3.303617e-003
2.213880e+003, 3.353460e-003
2.215808e+003, 3.756226e-003
2.217737e+003, 3.597657e-003
2.219665e+003, 3.650247e-003
2.221594e+003, 3.608495e-003
2.223522e+003, 3.495754e-003
2.225450e+003, 3.676120e-003
2.227379e+003, 3.309181e-003
2.229307e+003, 2.785722e-003
2.231236e+003, 3.355491e-003
2.233164e+003, 3.624392e-003
2.235093e+003, 4.069618e-003
2.237021e+003, 4.253646e-003
2.238950e+003, 4.058315e-003
2.240878e+003, 3.657631e-003
2.242807e+003, 3.523910e-003
2.244735e+003, 3.785327e-003
2.246664e+003, 3.663413e-003
2.248592e+003, 2.988491e-003
2.250521e+003, 3.305478e-003
2.252449e+003, 3.402371e-003
2.254377e+003, 3.439240e-003
2.256306e+003, 3.484346e-003
2.258234e+003, 3.701432e-003
2.260163e+003, 3.985624e-003
2.262091e+003, 3.658175e-003
2.264020e+003, 3.478943e-003
2.265948e+003, 4.050633e-003
2.267877e+003, 4.381001e-003
2.269805e+003, 4.255028e-003
2.271734e+003, 3.854431e-003
2.273662e+003, 3.940824e-003
2.275591e+003, 4.532842e-003
2.277519e+003, 4.862039e-003
2.279448e+003, 4.680295e-003
2.281376e+003, 4.455370e-003
2.283304e+003, 4.558468e-003
2.285233e+003, 4.641432e-003
2.287161e+003, 4.756288e-003
2.289090e+003, 4.658181e-003
2.291018e+003, 4.391317e-003
2.292947e+003, 3.950908e-003
2.294875e+003, 3.576340e-003
2.296804e+003, 3.586295e-003
2.298732e+003, 4.004925e-003
2.300661e+003, 4.096611e-003
2.302589e+003, 3.801474e-003
2.304518e+003, 3.704329e-003
2.306446e+003, 3.671378e-003
2.308375e+003, 3.645277e-003
2.310303e+003, 3.559666e-003
2.312231e+003, 3.492367e-003
2.314160e+003, 4.036730e-003
2.316088e+003, 4.575813e-003
2.318017e+003, 4.663032e-003
2.319945e+003, 5.034883e-003
2.321874e+003, 5.615565e-003
2.323802e+003, 5.956472e-003
2.325731e+003, 5.276165e-003
2.327659e+003, 4.557069e-003
2.329588e+003, 4.314383e-003
2.331516e+003, 4.108115e-003
2.333445e+003, 3.989950e-003
2.335373e+003, 3.964815e-003
2.337302e+003, 4.149724e-003
2.339230e+003, 4.175173e-003
2.341158e+003, 4.005788e-003
2.343087e+003, 3.649447e-003
2.345015e+003, 3.554514e-003
2.346944e+003, 3.556423e-003
2.348872e+003, 3.308129e-003
2.350801e+003, 3.344135e-003
2.352729e+003, 3.892235e-003
2.354658e+003, 4.330334e-003
2.356586e+003, 4.373010e-003
2.358515e+003, 4.546673e-003
2.360443e+003, 4.789394e-003
2.362372e+003, 4.759178e-003
2.364300e+003, 4.511951e-003
2.366229e+003, 4.327520e-003
2.368157e+003, 4.286685e-003
2.370085e+003, 3.860093e-003
2.372014e+003, 3.475800e-003
2.373942e+003, 3.240934e-003
2.375871e+003, 3.043002e-003
2.377799e+003, 3.165904e-003
2.379728e+003, 3.069453e-003
2.381656e+003, 2.942461e-003
2.383585e+003, 2.942072e-003
2.385513e+003, 2.569589e-003
2.387442e+003, 2.571428e-003
2.389370e+003, 3.002409e-003
2.391299e+003, 2.891683e-003
2.393227e+003, 2.717658e-003
2.395156e+003, 2.615856e-003
2.397084e+003, 2.857423e-003
2.399012e+003, 3.059009e-003
2.400941e+003, 3.230231e-003
2.402869e+003, 3.270841e-003
2.404798e+003, 3.243733e-003
2.406726e+003, 3.034615e-003
2.408655e+003, 3.070264e-003
2.410583e+003, 3.265397e-003
2.412512e+003, 3.372257e-003
2.414440e+003, 3.602910e-003
2.416369e+003, 3.536617e-003
2.418297e+003, 3.226495e-003
2.420226e+003, 3.311923e-003
2.422154e+003, 3.407796e-003
2.424083e+003, 3.522925e-003
2.426011e+003, 3.618966e-003
2.427939e+003, 3.735509e-003
2.429868e+003, 3.616722e-003
2.431796e+003, 3.518047e-003
2.433725e+003, 3.477552e-003
2.435653e+003, 3.543466e-003
2.437582e+003, 3.709656e-003
2.439510e+003, 3.686797e-003
2.441439e+003, 3.669580e-003
2.443367e+003, 3.801494e-003
2.445296e+003, 3.983887e-003
2.447224e+003, 3.932579e-003
2.449153e+003, 3.653894e-003
2.451081e+003, 3.750738e-003
2.453010e+003, 3.893827e-003
2.454938e+003, 3.908155e-003
2.456866e+003, 4.086250e-003
2.458795e+003, 3.892544e-003
2.460723e+003, 3.769584e-003
2.462652e+003, 3.911180e-003
2.464580e+003, 4.086046e-003
2.466509e+003, 4.001959e-003
2.468437e+003, 3.485385e-003
2.470366e+003, 3.134969e-003
2.472294e+003, 3.016571e-003
2.474223e+003, 3.422001e-003
2.476151e+003, 4.099382e-003
2.478080e+003, 4.168020e-003
2.480008e+003, 3.756081e-003
2.481937e+003, 3.615421e-003
2.483865e+003, 3.551261e-003
2.485793e+003, 3.728312e-003
2.487722e+003, 3.710774e-003
2.489650e+003, 4.109641e-003
2.491579e+003, 4.073959e-003
2.493507e+003, 3.576321e-003
2.495436e+003, 3.753726e-003
2.497364e+003, 3.926447e-003
2.499293e+003, 3.762187e-003
2.501221e+003, 3.632952e-003
2.503150e+003, 3.874529e-003
2.505078e+003, 3.901171e-003
2.507007e+003, 4.215840e-003
2.508935e+003, 4.204646e-003
2.510864e+003, 3.745377e-003
2.512792e+003, 3.722856e-003
2.514720e+003, 3.749876e-003
2.516649e+003, 3.587007e-003
2.518577e+003, 3.772961e-003
2.520506e+003, 3.637584e-003
2.522434e+003, 3.458245e-003
2.524363e+003, 3.568379e-003
2.526291e+003, 3.798628e-003
2.528220e+003, 3.856841e-003
2.530148e+003, 3.638967e-003
2.532077e+003, 3.526425e-003
2.534005e+003, 3.577461e-003
2.535934e+003, 3.732185e-003
2.537862e+003, 3.789784e-003
2.539791e+003, 3.650893e-003
2.541719e+003, 3.578550e-003
2.543647e+003, 3.800200e-003
2.545576e+003, 3.940791e-003
2.547504e+003, 3.872877e-003
2.549433e+003, 4.233678e-003
2.551361e+003, 4.259368e-003
2.553290e+003, 4.341147e-003
2.555218e+003, 4.460538e-003
2.557147e+003, 4.216379e-003
2.559075e+003, 3.870046e-003
2.561004e+003, 3.726425e-003
2.562932e+003, 3.821939e-003
2.564861e+003, 3.870097e-003
2.566789e+003, 3.855511e-003
2.568718e+003, 3.933483e-003
2.570646e+003, 4.081927e-003
2.572574e+003, 4.129392e-003
2.574503e+003, 3.959035e-003
2.576431e+003, 3.574067e-003
2.578360e+003, 3.601768e-003
2.580288e+003, 3.857000e-003
2.582217e+003, 4.183084e-003
2.584145e+003, 4.464355e-003
2.586074e+003, 4.330307e-003
2.588002e+003, 4.303580e-003
2.589931e+003, 4.322896e-003
2.591859e+003, 4.278529e-003
2.593788e+003, 4.398873e-003
2.595716e+003, 4.399380e-003
2.597645e+003, 4.154602e-003
2.599573e+003, 4.208780e-003
2.601501e+003, 4.346190e-003
2.603430e+003, 4.340406e-003
2.605358e+003, 4.316237e-003
2.607287e+003, 4.226472e-003
2.609215e+003, 4.544035e-003
2.611144e+003, 4.550434e-003
2.613072e+003, 4.362131e-003
2.615001e+003, 4.663380e-003
2.616929e+003, 4.658548e-003
2.618858e+003, 4.476584e-003
2.620786e+003, 4.533846e-003
2.622715e+003, 4.527061e-003
2.624643e+003, 4.831654e-003
2.626572e+003, 5.149357e-003
2.628500e+003, 4.939690e-003
2.630428e+003, 4.761519e-003
2.632357e+003, 4.963057e-003
2.634285e+003, 4.926982e-003
2.636214e+003, 4.628765e-003
2.638142e+003, 4.609684e-003
2.640071e+003, 4.631146e-003
2.641999e+003, 4.449614e-003
2.643928e+003, 4.615570e-003
2.645856e+003, 4.648512e-003
2.647785e+003, 4.506478e-003
2.649713e+003, 4.714088e-003
2.651642e+003, 5.059864e-003
2.653570e+003, 5.030958e-003
2.655499e+003, 4.647254e-003
2.657427e+003, 4.277613e-003
2.659355e+003, 4.253565e-003
2.661284e+003, 4.267713e-003
2.663212e+003, 3.990252e-003
2.665141e+003, 3.734954e-003
2.667069e+003, 3.791473e-003
2.668998e+003, 3.890573e-003
2.670926e+003, 3.847033e-003
2.672855e+003, 3.819067e-003
2.674783e+003, 3.799149e-003
2.676712e+003, 3.557928e-003
2.678640e+003, 3.660294e-003
2.680569e+003, 3.933106e-003
2.682497e+003, 3.899192e-003
2.684426e+003, 3.877900e-003
2.686354e+003, 3.988573e-003
2.688282e+003, 3.974454e-003
2.690211e+003, 3.663050e-003
2.692139e+003, 3.735563e-003
2.694068e+003, 3.909831e-003
2.695996e+003, 3.935396e-003
2.697925e+003, 4.068903e-003
2.699853e+003, 3.862849e-003
2.701782e+003, 3.766366e-003
2.703710e+003, 3.853717e-003
2.705639e+003, 3.851249e-003
2.707567e+003, 3.781631e-003
2.709496e+003, 3.762619e-003
2.711424e+003, 4.082410e-003
2.713353e+003, 4.363033e-003
2.715281e+003, 4.347351e-003
2.717209e+003, 4.078834e-003
2.719138e+003, 4.025496e-003
2.721066e+003, 4.113756e-003
2.722995e+003, 4.225142e-003
2.724923e+003, 4.142419e-003
2.726852e+003, 4.156503e-003
2.728780e+003, 4.378039e-003
2.730709e+003, 4.383585e-003
2.732637e+003, 4.312072e-003
2.734566e+003, 3.936877e-003
2.736494e+003, 3.839680e-003
2.738423e+003, 4.200364e-003
2.740351e+003, 4.185007e-003
2.742280e+003, 4.214487e-003
2.744208e+003, 4.397772e-003
2.746136e+003, 4.613491e-003
2.748065e+003, 4.345739e-003
2.749993e+003, 4.024639e-003
2.751922e+003, 4.086291e-003
2.753850e+003, 4.199213e-003
2.755779e+003, 4.483587e-003
2.757707e+003, 4.664760e-003
2.759636e+003, 4.466733e-003
2.761564e+003, 4.148537e-003
2.763493e+003, 4.210700e-003
2.765421e+003, 4.403810e-003
2.767350e+003, 4.513917e-003
2.769278e+003, 4.612945e-003
2.771207e+003, 4.471176e-003
2.773135e+003, 4.645750e-003
2.775063e+003, 4.864531e-003
2.776992e+003, 4.865417e-003
2.778920e+003, 4.517078e-003
2.780849e+003, 4.418852e-003
2.782777e+003, 4.442091e-003
2.784706e+003, 4.426926e-003
2.786634e+003, 4.528876e-003
2.788563e+003, 4.688013e-003
2.790491e+003, 4.645682e-003
2.792420e+003, 4.541993e-003
2.794348e+003, 4.570222e-003
2.796277e+003, 4.601277e-003
2.798205e+003, 4.473976e-003
2.800134e+003, 4.290458e-003
2.802062e+003, 4.348665e-003
2.803990e+003, 4.297020e-003
2.805919e+003, 4.083445e-003
2.807847e+003, 4.137221e-003
2.809776e+003, 4.233668e-003
2.811704e+003, 4.311646e-003
2.813633e+003, 4.450829e-003
2.815561e+003, 4.431409e-003
2.817490e+003, 4.355557e-003
2.819418e+003, 4.493829e-003
2.821347e+003, 4.679502e-003
2.823275e+003, 4.307704e-003
2.825204e+003, 4.153401e-003
2.827132e+003, 4.685150e-003
2.829061e+003, 4.851801e-003
2.830989e+003, 4.698226e-003
2.832917e+003, 4.624352e-003
2.834846e+003, 4.538500e-003
2.836774e+003, 4.790390e-003
2.838703e+003, 4.977504e-003
2.840631e+003, 4.542283e-003
2.842560e+003, 4.301118e-003
2.844488e+003, 4.256842e-003
2.846417e+003, 3.926171e-003
2.848345e+003, 3.317934e-003
2.850274e+003, 2.883999e-003
2.852202e+003, 3.093890e-003
2.854131e+003, 3.590206e-003
2.856059e+003, 4.133911e-003
2.857988e+003, 4.188105e-003
2.859916e+003, 4.108594e-003
2.861844e+003, 4.304891e-003
2.863773e+003, 4.585954e-003
2.865701e+003, 4.479449e-003
2.867630e+003, 4.308255e-003
2.869558e+003, 4.581381e-003
2.871487e+003, 4.716345e-003
2.873415e+003, 4.625476e-003
2.875344e+003, 4.511158e-003
2.877272e+003, 4.273666e-003
2.879201e+003, 4.394087e-003
2.881129e+003, 4.534606e-003
2.883058e+003, 4.402849e-003
2.884986e+003, 4.208103e-003
2.886915e+003, 4.004582e-003
2.888843e+003, 4.084560e-003
2.890771e+003, 4.391081e-003
2.892700e+003, 4.386700e-003
2.894628e+003, 4.188390e-003
2.896557e+003, 4.119731e-003
2.898485e+003, 4.172194e-003
2.900414e+003, 4.306013e-003
2.902342e+003, 4.478430e-003
2.904271e+003, 4.571125e-003
2.906199e+003, 4.441862e-003
2.908128e+003, 4.436978e-003
2.910056e+003, 4.068798e-003
2.911985e+003, 3.783459e-003
2.913913e+003, 3.466533e-003
2.915842e+003, 3.237115e-003
2.917770e+003, 3.241680e-003
2.919698e+003, 3.267002e-003
2.921627e+003, 3.435621e-003
2.923555e+003, 3.287731e-003
2.925484e+003, 2.910063e-003
2.927412e+003, 2.957481e-003
2.929341e+003, 3.126287e-003
2.931269e+003, 3.136232e-003
2.933198e+003, 3.034928e-003
2.935126e+003, 3.266520e-003
2.937055e+003, 3.561105e-003
2.938983e+003, 3.515692e-003
2.940912e+003, 3.412278e-003
2.942840e+003, 3.709226e-003
2.944769e+003, 3.938701e-003
2.946697e+003, 3.969291e-003
2.948625e+003, 3.998154e-003
2.950554e+003, 3.876031e-003
2.952482e+003, 3.903880e-003
2.954411e+003, 4.185223e-003
2.956339e+003, 4.088601e-003
2.958268e+003, 4.266606e-003
2.960196e+003, 4.619380e-003
2.962125e+003, 4.508921e-003
2.964053e+003, 4.440012e-003
2.965982e+003, 4.123133e-003
2.967910e+003, 3.847343e-003
2.969839e+003, 3.990593e-003
2.971767e+003, 3.889281e-003
2.973696e+003, 3.533899e-003
2.975624e+003, 3.381477e-003
2.977552e+003, 3.648595e-003
2.979481e+003, 3.747488e-003
2.981409e+003, 3.497798e-003
2.983338e+003, 3.814103e-003
2.985266e+003, 3.905658e-003
2.987195e+003, 3.745080e-003
2.989123e+003, 3.864710e-003
2.991052e+003, 3.990368e-003
2.992980e+003, 3.941413e-003
2.994909e+003, 3.888812e-003
2.996837e+003, 3.882651e-003
2.998766e+003, 3.692126e-003
3.000694e+003, 3.729199e-003
3.002623e+003, 3.739977e-003
3.004551e+003, 3.511073e-003
3.006479e+003, 3.549585e-003
3.008408e+003, 3.959130e-003
3.010336e+003, 4.201403e-003
3.012265e+003, 3.948088e-003
3.014193e+003, 3.898526e-003
3.016122e+003, 3.912848e-003
3.018050e+003, 3.697116e-003
3.019979e+003, 3.835456e-003
3.021907e+003, 3.900168e-003
3.023836e+003, 4.016014e-003
3.025764e+003, 4.144285e-003
3.027693e+003, 3.833984e-003
3.029621e+003, 3.708472e-003
3.031550e+003, 3.610811e-003
3.033478e+003, 3.705634e-003
3.035406e+003, 3.598563e-003
3.037335e+003, 3.625169e-003
3.039263e+003, 3.840758e-003
3.041192e+003, 3.633714e-003
3.043120e+003, 3.553111e-003
3.045049e+003, 3.950578e-003
3.046977e+003, 3.938802e-003
3.048906e+003, 3.784962e-003
3.050834e+003, 3.958793e-003
3.052763e+003, 3.882469e-003
3.054691e+003, 3.641622e-003
3.056620e+003, 3.995861e-003
3.058548e+003, 4.236564e-003
3.060477e+003, 4.083292e-003
3.062405e+003, 3.766613e-003
3.064333e+003, 3.774585e-003
3.066262e+003, 4.013154e-003
3.068190e+003, 3.851315e-003
3.070119e+003, 3.568111e-003
3.072047e+003, 3.468090e-003
3.073976e+003, 3.901378e-003
3.075904e+003, 4.194148e-003
3.077833e+003, 4.103278e-003
3.079761e+003, 3.753167e-003
3.081690e+003, 3.748247e-003
3.083618e+003, 4.106686e-003
3.085547e+003, 4.294577e-003
3.087475e+003, 4.323841e-003
3.089404e+003, 4.260511e-003
3.091332e+003, 4.038055e-003
3.093260e+003, 3.892960e-003
3.095189e+003, 4.187420e-003
3.097117e+003, 4.426606e-003
3.099046e+003, 4.342415e-003
3.100974e+003, 4.351096e-003
3.102903e+003, 4.523176e-003
3.104831e+003, 4.173222e-003
3.106760e+003, 3.931836e-003
3.108688e+003, 4.171897e-003
3.110617e+003, 4.142435e-003
3.112545e+003, 4.207901e-003
3.114474e+003, 4.368070e-003
3.116402e+003, 4.714851e-003
3.118331e+003, 4.612016e-003
3.120259e+003, 4.373073e-003
3.122188e+003, 4.382418e-003
3.124116e+003, 4.321466e-003
3.126044e+003, 4.351254e-003
3.127973e+003, 4.370575e-003
3.129901e+003, 4.210872e-003
3.131830e+003, 4.041413e-003
3.133758e+003, 4.074311e-003
3.135687e+003, 4.394903e-003
3.137615e+003, 5.084476e-003
3.139544e+003, 5.509711e-003
3.141472e+003, 5.273473e-003
3.143401e+003, 5.196517e-003
3.145329e+003, 4.997290e-003
3.147258e+003, 4.644126e-003
3.149186e+003, 4.464281e-003
3.151115e+003, 4.830967e-003
3.153043e+003, 5.121537e-003
3.154971e+003, 4.574009e-003
3.156900e+003, 4.711253e-003
3.158828e+003, 4.894156e-003
3.160757e+003, 4.851740e-003
3.162685e+003, 4.965547e-003
3.164614e+003, 5.126333e-003
3.166542e+003, 4.764282e-003
3.168471e+003, 4.801001e-003
3.170399e+003, 4.611870e-003
3.172328e+003, 4.448156e-003
3.174256e+003, 4.682488e-003
3.176185e+003, 4.650063e-003
3.178113e+003, 4.677505e-003
3.180042e+003, 4.772962e-003
3.181970e+003, 5.121960e-003
3.183898e+003, 4.974289e-003
3.185827e+003, 4.389567e-003
3.187755e+003, 4.607338e-003
3.189684e+003, 4.890840e-003
3.191612e+003, 4.859413e-003
3.193541e+003, 4.550939e-003
3.195469e+003, 4.482198e-003
3.197398e+003, 4.556435e-003
3.199326e+003, 4.825841e-003
3.201255e+003, 4.943389e-003
3.203183e+003, 4.559994e-003
3.205112e+003, 4.488266e-003
3.207040e+003, 4.508449e-003
3.208969e+003, 4.918169e-003
3.210897e+003, 5.057578e-003
3.212825e+003, 5.017667e-003
3.214754e+003, 5.389430e-003
3.216682e+003, 5.269947e-003
3.218611e+003, 4.507918e-003
3.220539e+003, 4.383766e-003
3.222468e+003, 4.484184e-003
3.224396e+003, 4.574222e-003
3.226325e+003, 4.488264e-003
3.228253e+003, 4.792301e-003
3.230182e+003, 5.140805e-003
3.232110e+003, 5.209012e-003
3.234039e+003, 4.749709e-003
3.235967e+003, 4.303665e-003
3.237896e+003, 4.366603e-003
3.239824e+003, 4.943806e-003
3.241752e+003, 5.353824e-003
3.243681e+003, 5.226365e-003
3.245609e+003, 5.094015e-003
3.247538e+003, 4.945858e-003
3.249466e+003, 4.798835e-003
3.251395e+003, 4.616846e-003
3.253323e+003, 4.311719e-003
3.255252e+003, 4.576550e-003
3.257180e+003, 4.865889e-003
3.259109e+003, 4.985587e-003
3.261037e+003, 4.593572e-003
3.262966e+003, 4.516243e-003
3.264894e+003, 4.481363e-003
3.266823e+003, 4.571533e-003
3.268751e+003, 4.367908e-003
3.270679e+003, 4.225263e-003
3.272608e+003, 4.985019e-003
3.274536e+003, 5.433126e-003
3.276465e+003, 4.917249e-003
3.278393e+003, 4.489540e-003
3.280322e+003, 4.362982e-003
3.282250e+003, 4.084019e-003
3.284179e+003, 3.977838e-003
3.286107e+003, 4.370786e-003
3.288036e+003, 4.915483e-003
3.289964e+003, 4.953917e-003
3.291893e+003, 4.883051e-003
3.293821e+003, 4.372397e-003
3.295750e+003, 3.969076e-003
3.297678e+003, 4.168526e-003
3.299606e+003, 4.668304e-003
3.301535e+003, 4.764323e-003
3.303463e+003, 4.729986e-003
3.305392e+003, 4.874174e-003
3.307320e+003, 4.600720e-003
3.309249e+003, 4.443911e-003
3.311177e+003, 4.531354e-003
3.313106e+003, 4.757560e-003
3.315034e+003, 4.877041e-003
3.316963e+003, 4.499140e-003
3.318891e+003, 4.259531e-003
3.320820e+003, 4.489802e-003
3.322748e+003, 4.962626e-003
3.324677e+003, 5.307445e-003
3.326605e+003, 5.495509e-003
3.328533e+003, 5.268993e-003
3.330462e+003, 4.827988e-003
3.332390e+003, 4.700396e-003
3.334319e+003, 4.878585e-003
3.336247e+003, 5.306057e-003
3.338176e+003, 5.348645e-003
3.340104e+003, 4.624897e-003
3.342033e+003, 4.166956e-003
3.343961e+003, 4.424509e-003
3.345890e+003, 4.858473e-003
3.347818e+003, 4.818424e-003
3.349747e+003, 4.442072e-003
3.351675e+003, 4.670554e-003
3.353604e+003, 4.567566e-003
3.355532e+003, 4.348931e-003
3.357460e+003, 4.566347e-003
3.359389e+003, 4.699394e-003
3.361317e+003, 4.488361e-003
3.363246e+003, 4.212851e-003
3.365174e+003, 4.318595e-003
3.367103e+003, 4.614043e-003
3.369031e+003, 4.557000e-003
3.370960e+003, 4.070628e-003
3.372888e+003, 3.850518e-003
3.374817e+003, 4.166115e-003
3.376745e+003, 4.689214e-003
3.378674e+003, 4.940112e-003
3.380602e+003, 4.572315e-003
3.382531e+003, 4.502522e-003
3.384459e+003, 4.771478e-003
3.386387e+003, 4.371366e-003
3.388316e+003, 4.410564e-003
3.390244e+003, 4.987576e-003
3.392173e+003, 4.397885e-003
3.394101e+003, 3.829632e-003
3.396030e+003, 4.076303e-003
3.397958e+003, 4.555018e-003
3.399887e+003, 4.749377e-003
3.401815e+003, 4.608129e-003
3.403744e+003, 4.458926e-003
3.405672e+003, 4.410520e-003
3.407601e+003, 4.080228e-003
3.409529e+003, 3.808417e-003
3.411458e+003, 3.944416e-003
3.413386e+003, 3.891760e-003
3.415314e+003, 4.161637e-003
3.417243e+003, 4.308083e-003
3.419171e+003, 4.168950e-003
3.421100e+003, 4.179372e-003
3.423028e+003, 4.034558e-003
3.424957e+003, 3.812679e-003
3.426885e+003, 3.855922e-003
3.428814e+003, 4.087857e-003
3.430742e+003, 4.673883e-003
3.432671e+003, 4.854510e-003
3.434599e+003, 4.463847e-003
3.436528e+003, 3.835834e-003
3.438456e+003, 4.128599e-003
3.440385e+003, 4.286841e-003
3.442313e+003, 3.808101e-003
3.444241e+003, 3.701546e-003
3.446170e+003, 3.400079e-003
3.448098e+003, 3.112187e-003
3.450027e+003, 3.499327e-003
3.451955e+003, 3.789642e-003
3.453884e+003, 3.367775e-003
3.455812e+003, 3.625023e-003
3.457741e+003, 4.135900e-003
3.459669e+003, 4.112918e-003
3.461598e+003, 3.868647e-003
3.463526e+003, 3.804186e-003
3.465455e+003, 4.248527e-003
3.467383e+003, 4.227042e-003
3.469312e+003, 3.528566e-003
3.471240e+003, 3.688362e-003
3.473168e+003, 4.052346e-003
3.475097e+003, 4.012917e-003
3.477025e+003, 4.181148e-003
3.478954e+003, 3.931730e-003
3.480882e+003, 3.468892e-003
3.482811e+003, 3.707829e-003
3.484739e+003, 3.790097e-003
3.486668e+003, 3.728960e-003
3.488596e+003, 3.943090e-003
3.490525e+003, 4.270447e-003
3.492453e+003, 4.511067e-003
3.494382e+003, 4.113202e-003
3.496310e+003, 3.839730e-003
3.498239e+003, 3.892630e-003
3.500167e+003, 3.603891e-003
3.502095e+003, 3.262323e-003
3.504024e+003, 3.377800e-003
3.505952e+003, 3.566532e-003
3.507881e+003, 3.539717e-003
3.509809e+003, 3.805123e-003
3.511738e+003, 4.291033e-003
3.513666e+003, 3.832413e-003
3.515595e+003, 3.488891e-003
3.517523e+003, 3.678891e-003
3.519452e+003, 3.890163e-003
3.521380e+003, 3.334193e-003
3.523309e+003, 3.022267e-003
3.525237e+003, 3.122118e-003
3.527166e+003, 3.548634e-003
3.529094e+003, 4.164731e-003
3.531022e+003, 4.334190e-003
3.532951e+003, 4.594021e-003
3.534879e+003, 4.305450e-003
3.536808e+003, 4.176420e-003
3.538736e+003, 3.746211e-003
3.540665e+003, 3.432639e-003
3.542593e+003, 3.624160e-003
3.544522e+003, 3.905040e-003
3.546450e+003, 3.839074e-003
3.548379e+003, 4.068070e-003
3.550307e+003, 3.743602e-003
3.552236e+003, 3.565599e-003
3.554164e+003, 4.187704e-003
3.556093e+003, 4.346176e-003
3.558021e+003, 4.145673e-003
3.559949e+003, 4.452857e-003
3.561878e+003, 4.714262e-003
3.563806e+003, 4.019575e-003
3.565735e+003, 3.167929e-003
3.567663e+003, 3.125342e-003
3.569592e+003, 4.387938e-003
3.571520e+003, 4.874338e-003
3.573449e+003, 4.368338e-003
3.575377e+003, 4.712522e-003
3.577306e+003, 5.732152e-003
3.579234e+003, 4.984088e-003
3.581163e+003, 4.041768e-003
3.583091e+003, 4.391436e-003
3.585020e+003, 4.181896e-003
3.586948e+003, 3.499308e-003
3.588876e+003, 4.074915e-003
3.590805e+003, 5.243475e-003
3.592733e+003, 5.752452e-003
3.594662e+003, 6.364265e-003
3.596590e+003, 6.504333e-003
3.598519e+003, 6.602650e-003
3.600447e+003, 6.752953e-003
3.602376e+003, 7.595100e-003
3.604304e+003, 8.928802e-003
3.606233e+003, 8.678473e-003
3.608161e+003, 7.849749e-003
3.610090e+003, 9.002203e-003
3.612018e+003, 1.003868e-002
3.613947e+003, 1.201060e-002
3.615875e+003, 1.381630e-002
3.617803e+003, 1.388498e-002
3.619732e+003, 1.658842e-002
3.621660e+003, 2.164303e-002
3.623589e+003, 2.568244e-002
3.625517e+003, 2.858127e-002
3.627446e+003, 3.026056e-002
3.629374e+003, 3.374664e-002
3.631303e+003, 4.043324e-002
3.633231e+003, 4.440840e-002
3.635160e+003, 4.617563e-002
3.637088e+003, 4.719153e-002
3.639017e+003, 4.764285e-002
3.640945e+003, 4.707826e-002
3.642874e+003, 4.546460e-002
3.644802e+003, 4.197808e-002
3.646730e+003, 3.545160e-002
3.648659e+003, 2.748069e-002
3.650587e+003, 2.173606e-002
3.652516e+003, 1.781397e-002
3.654444e+003, 1.109949e-002
3.656373e+003, 4.816848e-003
3.658301e+003, 2.520346e-003
3.660230e+003, 1.165668e-003
3.662158e+003, -4.452632e-004
3.664087e+003, -1.097981e-003
3.666015e+003, -8.885472e-004
3.667944e+003, -3.051342e-003
3.669872e+003, -6.118709e-003
3.671801e+003, -4.994772e-003
3.673729e+003, -5.012563e-003
3.675657e+003, -6.240696e-003
3.677586e+003, -3.798277e-003
3.679514e+003, -2.805289e-003
3.681443e+003, -2.335694e-003
3.683371e+003, -1.546173e-003
3.685300e+003, -1.784115e-003
3.687228e+003, -4.753644e-003
3.689157e+003, -4.732973e-003
3.691085e+003, -2.481391e-003
3.693014e+003, -1.533228e-003
3.694942e+003, -1.656580e-003
3.696871e+003, -1.588918e-003
3.698799e+003, -1.217012e-003
3.700728e+003, -1.360262e-003
3.702656e+003, -9.953948e-004
3.704584e+003, -5.525160e-004
3.706513e+003, -8.554021e-004
3.708441e+003, -2.282763e-003
3.710370e+003, -4.346193e-003
3.712298e+003, -4.556614e-003
3.714227e+003, -1.658587e-003
3.716155e+003, -5.180531e-004
3.718084e+003, -1.599266e-003
3.720012e+003, -2.219602e-003
3.721941e+003, -1.986621e-003
3.723869e+003, -1.584004e-003
3.725798e+003, -1.560282e-003
3.727726e+003, -8.485701e-004
3.729655e+003, -1.306686e-003
3.731583e+003, -2.961866e-003
3.733511e+003, -2.827315e-003
3.735440e+003, -2.597712e-003
3.737368e+003, -2.241583e-003
3.739297e+003, -1.309941e-003
3.741225e+003, -1.496151e-003
3.743154e+003, -5.744882e-003
3.745082e+003, -6.793601e-003
3.747011e+003, -3.899335e-003
3.748939e+003, -5.310695e-003
3.750868e+003, -6.374210e-003
3.752796e+003, -4.836315e-003
3.754725e+003, -1.486758e-003
3.756653e+003, -1.523461e-003
3.758582e+003, -1.688968e-003
3.760510e+003, -4.401557e-004
3.762438e+003, 5.395136e-004
3.764367e+003, -1.396614e-003
3.766295e+003, -1.342342e-003
3.768224e+003, -1.760154e-003
3.770152e+003, -2.108672e-003
3.772081e+003, -2.666947e-004
3.774009e+003, 1.754520e-004
3.775938e+003, 3.594864e-004
3.777866e+003, -1.226720e-005
3.779795e+003, -6.309624e-004
3.781723e+003, -1.008664e-004
3.783652e+003, -6.277213e-004
3.785580e+003, -6.995084e-004
3.787509e+003, -6.869442e-004
3.789437e+003, -4.013643e-004
3.791365e+003, -3.366359e-004
3.793294e+003, -5.427534e-004
3.795222e+003, -9.581959e-004
3.797151e+003, -5.485877e-004
3.799079e+003, -1.967446e-003
3.801008e+003, -4.446460e-003
3.802936e+003, -2.781647e-003
3.804865e+003, -1.913777e-003
3.806793e+003, -3.497915e-003
3.808722e+003, -2.126589e-003
3.810650e+003, -6.939180e-004
3.812579e+003, -8.446537e-004
3.814507e+003, -3.433994e-003
3.816436e+003, -4.147301e-003
3.818364e+003, -2.645275e-003
3.820292e+003, -4.027874e-003
3.822221e+003, -3.038232e-003
3.824149e+003, -6.203807e-004
3.826078e+003, -6.579505e-004
3.828006e+003, -1.065092e-003
3.829935e+003, -1.504495e-003
3.831863e+003, -2.061144e-003
3.833792e+003, -2.595465e-003
3.835720e+003, -3.907841e-003
3.837649e+003, -5.093739e-003
3.839577e+003, -3.508615e-003
3.841506e+003, -1.934368e-003
3.843434e+003, -1.396301e-003
3.845363e+003, -5.661247e-004
3.847291e+003, -2.497074e-004
3.849219e+003, -1.428222e-003
3.851148e+003, -5.157454e-003
3.853076e+003, -9.508202e-003
3.855005e+003, -5.949260e-003
3.856933e+003, -1.270830e-003
3.858862e+003, -6.974573e-004
3.860790e+003, -1.172649e-003
3.862719e+003, -2.416198e-003
3.864647e+003, -2.972001e-003
3.866576e+003, -2.192798e-003
3.868504e+003, -3.617933e-003
3.870433e+003, -3.758319e-003
3.872361e+003, -1.688570e-003
3.874290e+003, -1.196376e-003
3.876218e+003, -7.532298e-004
3.878146e+003, -1.712402e-003
3.880075e+003, -2.567494e-003
3.882003e+003, -2.292879e-003
3.883932e+003, -2.994282e-003
3.885860e+003, -3.570695e-003
3.887789e+003, -1.666342e-003
3.889717e+003, -1.814200e-003
3.891646e+003, -2.140951e-003
3.893574e+003, -1.442231e-003
3.895503e+003, -9.628743e-004
3.897431e+003, -1.174745e-003
3.899360e+003, -1.888906e-003
3.901288e+003, -2.358615e-003
3.903217e+003, -2.822718e-003
3.905145e+003, -2.337559e-003
3.907073e+003, -1.032365e-003
3.909002e+003, 8.678131e-005
3.910930e+003, 1.128722e-004
3.912859e+003, -3.625891e-004
3.914787e+003, -1.455661e-003
3.916716e+003, -2.002831e-003
3.918644e+003, -8.560829e-004
3.920573e+003, -1.004644e-003
3.922501e+003, -1.889341e-003
3.924430e+003, -1.726343e-003
3.926358e+003, -7.333242e-004
3.928287e+003, -8.728900e-004
3.930215e+003, -8.932324e-004
3.932144e+003, -1.066594e-003
3.934072e+003, -1.017483e-003
3.936000e+003, -8.504893e-004
3.937929e+003, -1.239367e-003
3.939857e+003, -9.280423e-004
3.941786e+003, 9.195001e-005
3.943714e+003, 3.148158e-004
3.945643e+003, -4.920163e-004
3.947571e+003, -9.073740e-004
3.949500e+003, -1.248893e-003
3.951428e+003, -1.620501e-003
3.953357e+003, -1.383228e-003
3.955285e+003, -9.138625e-004
3.957214e+003, -9.173222e-004
3.959142e+003, -1.284451e-003
3.961071e+003, -1.659465e-003
3.962999e+003, -2.074238e-003
3.964927e+003, -1.535341e-003
3.966856e+003, -6.836046e-004
3.968784e+003, -3.788152e-004
3.970713e+003, -7.066265e-004
3.972641e+003, -3.941858e-004
3.974570e+003, -7.464094e-004
3.976498e+003, -1.322602e-003
3.978427e+003, -1.374482e-003
3.980355e+003, -1.516279e-003
3.982284e+003, -1.132281e-003
3.984212e+003, -7.077092e-004
3.986141e+003, -6.528653e-004
3.988069e+003, -1.027751e-003
3.989998e+003, -1.459454e-003
3.991926e+003, -1.587290e-003
3.993854e+003, -1.320970e-003
3.995783e+003, -1.179384e-003
3.997711e+003, -2.249705e-003
3.999640e+003, -2.062045e-003
4.001568e+003, 0.000000e+000
##END=



