##NAMES=Topaz
##RRUFFID=R050176
##IDEAL CHEMISTRY=Al_2_SiO_4_F_2_
##LOCALITY=Jos Plateau, Nigeria
##OWNER=RRUFF
##SOURCE=Marcus Origlieri
##DESCRIPTION=Colorless prismatic crystal
##STATUS=The identification of this mineral has been confirmed by X-ray diffraction and chemical analysis
##URL=rruff.info/R050176
##MEASURED CHEMISTRY=Al_2.000_Si_1.000_O_4.000_(F_1.438_(OH)_0.562_)
3.741225e+002, 1.048933e-001
3.760510e+002, 1.140606e-001
3.779795e+002, 1.145856e-001
3.799079e+002, 1.017593e-001
3.818364e+002, 9.424663e-002
3.837649e+002, 1.008672e-001
3.856933e+002, 1.036877e-001
3.876218e+002, 1.040432e-001
3.895503e+002, 1.087664e-001
3.914787e+002, 1.126783e-001
3.934072e+002, 1.155976e-001
3.953357e+002, 1.147264e-001
3.972641e+002, 1.084658e-001
3.991926e+002, 1.022908e-001
4.011211e+002, 9.709399e-002
4.030495e+002, 8.925564e-002
4.049780e+002, 8.828846e-002
4.069065e+002, 9.446727e-002
4.088349e+002, 9.696131e-002
4.107634e+002, 9.832094e-002
4.126919e+002, 1.026914e-001
4.146203e+002, 1.094549e-001
4.165488e+002, 1.160403e-001
4.184773e+002, 1.185256e-001
4.204057e+002, 1.205523e-001
4.223342e+002, 1.179799e-001
4.242627e+002, 1.147588e-001
4.261911e+002, 1.162088e-001
4.281196e+002, 1.191973e-001
4.300481e+002, 1.224669e-001
4.319765e+002, 1.258000e-001
4.339050e+002, 1.289901e-001
4.358335e+002, 1.322711e-001
4.377619e+002, 1.343967e-001
4.396904e+002, 1.362232e-001
4.416189e+002, 1.388653e-001
4.435473e+002, 1.411497e-001
4.454758e+002, 1.437832e-001
4.474043e+002, 1.447604e-001
4.493327e+002, 1.463985e-001
4.512612e+002, 1.479381e-001
4.531897e+002, 1.476472e-001
4.551181e+002, 1.464635e-001
4.570466e+002, 1.433049e-001
4.589751e+002, 1.384728e-001
4.609035e+002, 1.321466e-001
4.628320e+002, 1.249893e-001
4.647605e+002, 1.187030e-001
4.666889e+002, 1.127289e-001
4.686174e+002, 1.043098e-001
4.705459e+002, 9.886535e-002
4.724743e+002, 1.015503e-001
4.744028e+002, 1.093268e-001
4.763313e+002, 1.171049e-001
4.782597e+002, 1.227248e-001
4.801882e+002, 1.251956e-001
4.821167e+002, 1.247305e-001
4.840451e+002, 1.196279e-001
4.859736e+002, 1.097674e-001
4.879021e+002, 9.980175e-002
4.898305e+002, 9.409562e-002
4.917590e+002, 9.242349e-002
4.936875e+002, 9.180183e-002
4.956159e+002, 9.062456e-002
4.975444e+002, 9.032331e-002
4.994729e+002, 9.015508e-002
5.014013e+002, 8.980896e-002
5.033298e+002, 8.984093e-002
5.052583e+002, 9.021460e-002
5.071867e+002, 9.048219e-002
5.091152e+002, 8.944797e-002
5.110437e+002, 8.745213e-002
5.129721e+002, 8.534891e-002
5.149006e+002, 8.371843e-002
5.168290e+002, 8.305635e-002
5.187575e+002, 8.402860e-002
5.206860e+002, 8.604630e-002
5.226144e+002, 8.808240e-002
5.245429e+002, 8.935568e-002
5.264714e+002, 8.844656e-002
5.283998e+002, 8.430886e-002
5.303283e+002, 7.808568e-002
5.322568e+002, 7.178871e-002
5.341852e+002, 6.779440e-002
5.361137e+002, 6.584255e-002
5.380422e+002, 6.454217e-002
5.399706e+002, 6.315269e-002
5.418991e+002, 6.252377e-002
5.438276e+002, 6.165278e-002
5.457560e+002, 6.062482e-002
5.476845e+002, 6.032433e-002
5.496130e+002, 6.115424e-002
5.515414e+002, 6.357561e-002
5.534699e+002, 6.822284e-002
5.553984e+002, 7.259338e-002
5.573268e+002, 7.454785e-002
5.592553e+002, 7.318502e-002
5.611838e+002, 7.114886e-002
5.631122e+002, 7.022385e-002
5.650407e+002, 6.898017e-002
5.669692e+002, 6.631692e-002
5.688976e+002, 6.164665e-002
5.708261e+002, 5.686339e-002
5.727546e+002, 5.457056e-002
5.746830e+002, 5.602178e-002
5.766115e+002, 6.057269e-002
5.785400e+002, 6.803392e-002
5.804684e+002, 7.631039e-002
5.823969e+002, 8.239881e-002
5.843254e+002, 8.491903e-002
5.862538e+002, 8.542072e-002
5.881823e+002, 8.446370e-002
5.901108e+002, 8.382487e-002
5.920392e+002, 8.710615e-002
5.939677e+002, 9.453087e-002
5.958962e+002, 1.030076e-001
5.978246e+002, 1.109898e-001
5.997531e+002, 1.186617e-001
6.016816e+002, 1.258903e-001
6.036100e+002, 1.320548e-001
6.055385e+002, 1.370180e-001
6.074670e+002, 1.407284e-001
6.093954e+002, 1.442547e-001
6.113239e+002, 1.476482e-001
6.132524e+002, 1.501018e-001
6.151808e+002, 1.515049e-001
6.171093e+002, 1.513970e-001
6.190378e+002, 1.495004e-001
6.209662e+002, 1.461169e-001
6.228947e+002, 1.415631e-001
6.248232e+002, 1.363462e-001
6.267516e+002, 1.311859e-001
6.286801e+002, 1.257504e-001
6.306086e+002, 1.204202e-001
6.325370e+002, 1.153731e-001
6.344655e+002, 1.104288e-001
6.363940e+002, 1.057981e-001
6.383224e+002, 1.013529e-001
6.402509e+002, 9.673584e-002
6.421794e+002, 9.201742e-002
6.441078e+002, 8.769188e-002
6.460363e+002, 8.358915e-002
6.479648e+002, 7.925169e-002
6.498932e+002, 7.485364e-002
6.518217e+002, 7.059934e-002
6.537502e+002, 6.630956e-002
6.556786e+002, 6.238668e-002
6.576071e+002, 5.857205e-002
6.595356e+002, 5.449775e-002
6.614641e+002, 5.027806e-002
6.633925e+002, 4.633901e-002
6.653210e+002, 4.269519e-002
6.672495e+002, 3.915575e-002
6.691779e+002, 3.567469e-002
6.711064e+002, 3.230407e-002
6.730349e+002, 2.940999e-002
6.749633e+002, 2.695560e-002
6.768918e+002, 2.495486e-002
6.788203e+002, 2.370744e-002
6.807487e+002, 2.246665e-002
6.826772e+002, 2.052185e-002
6.846057e+002, 1.846205e-002
6.865341e+002, 1.661530e-002
6.884626e+002, 1.495220e-002
6.903911e+002, 1.394244e-002
6.923195e+002, 1.343334e-002
6.942480e+002, 1.309501e-002
6.961765e+002, 1.308873e-002
6.981049e+002, 1.342873e-002
7.000334e+002, 1.450881e-002
7.019619e+002, 1.630754e-002
7.038903e+002, 1.877864e-002
7.058188e+002, 2.070845e-002
7.077473e+002, 2.104198e-002
7.096757e+002, 1.952265e-002
7.116042e+002, 1.714570e-002
7.135327e+002, 1.469455e-002
7.154611e+002, 1.275879e-002
7.173896e+002, 1.149427e-002
7.193181e+002, 1.058372e-002
7.212465e+002, 1.003572e-002
7.231750e+002, 9.821857e-003
7.251035e+002, 9.573854e-003
7.270319e+002, 9.260504e-003
7.289604e+002, 9.306896e-003
7.308889e+002, 9.257304e-003
7.328173e+002, 9.253097e-003
7.347458e+002, 9.366964e-003
7.366743e+002, 9.464719e-003
7.386027e+002, 9.670025e-003
7.405312e+002, 1.003607e-002
7.424597e+002, 1.046178e-002
7.443881e+002, 1.088334e-002
7.463166e+002, 1.129730e-002
7.482451e+002, 1.177804e-002
7.501735e+002, 1.238962e-002
7.521020e+002, 1.291628e-002
7.540305e+002, 1.355024e-002
7.559589e+002, 1.459394e-002
7.578874e+002, 1.557983e-002
7.598159e+002, 1.679445e-002
7.617443e+002, 1.827519e-002
7.636728e+002, 1.981500e-002
7.656013e+002, 2.184634e-002
7.675297e+002, 2.404860e-002
7.694582e+002, 2.558521e-002
7.713867e+002, 2.658781e-002
7.733151e+002, 2.718817e-002
7.752436e+002, 2.797411e-002
7.771721e+002, 2.931848e-002
7.791005e+002, 3.123707e-002
7.810290e+002, 3.314834e-002
7.829575e+002, 3.516053e-002
7.848859e+002, 3.749157e-002
7.868144e+002, 4.007770e-002
7.887429e+002, 4.288563e-002
7.906713e+002, 4.606152e-002
7.925998e+002, 4.911457e-002
7.945283e+002, 5.214711e-002
7.964567e+002, 5.523790e-002
7.983852e+002, 5.855623e-002
8.003137e+002, 6.209328e-002
8.022421e+002, 6.550288e-002
8.041706e+002, 6.888564e-002
8.060991e+002, 7.235521e-002
8.080275e+002, 7.590505e-002
8.099560e+002, 7.950427e-002
8.118845e+002, 8.303457e-002
8.138129e+002, 8.633584e-002
8.157414e+002, 8.977666e-002
8.176699e+002, 9.334389e-002
8.195983e+002, 9.678572e-002
8.215268e+002, 1.002300e-001
8.234553e+002, 1.038014e-001
8.253837e+002, 1.074185e-001
8.273122e+002, 1.111736e-001
8.292407e+002, 1.148522e-001
8.311691e+002, 1.181262e-001
8.330976e+002, 1.214967e-001
8.350261e+002, 1.252845e-001
8.369545e+002, 1.288420e-001
8.388830e+002, 1.321618e-001
8.408115e+002, 1.353899e-001
8.427399e+002, 1.383400e-001
8.446684e+002, 1.411555e-001
8.465969e+002, 1.434119e-001
8.485253e+002, 1.452456e-001
8.504538e+002, 1.471664e-001
8.523823e+002, 1.492106e-001
8.543107e+002, 1.512413e-001
8.562392e+002, 1.527675e-001
8.581677e+002, 1.541128e-001
8.600961e+002, 1.551671e-001
8.620246e+002, 1.559271e-001
8.639531e+002, 1.567031e-001
8.658815e+002, 1.571464e-001
8.678100e+002, 1.573974e-001
8.697385e+002, 1.572703e-001
8.716669e+002, 1.567425e-001
8.735954e+002, 1.560127e-001
8.755239e+002, 1.548098e-001
8.774523e+002, 1.529782e-001
8.793808e+002, 1.504767e-001
8.813093e+002, 1.475281e-001
8.832377e+002, 1.442435e-001
8.851662e+002, 1.405140e-001
8.870947e+002, 1.366879e-001
8.890231e+002, 1.331908e-001
8.909516e+002, 1.300790e-001
8.928801e+002, 1.274466e-001
8.948085e+002, 1.254953e-001
8.967370e+002, 1.236320e-001
8.986655e+002, 1.215440e-001
9.005939e+002, 1.193270e-001
9.025224e+002, 1.168516e-001
9.044509e+002, 1.142349e-001
9.063793e+002, 1.116343e-001
9.083078e+002, 1.093745e-001
9.102363e+002, 1.074046e-001
9.121647e+002, 1.055802e-001
9.140932e+002, 1.039476e-001
9.160217e+002, 1.024856e-001
9.179501e+002, 1.007573e-001
9.198786e+002, 9.872001e-002
9.218071e+002, 9.649283e-002
9.237355e+002, 9.402090e-002
9.256640e+002, 9.154297e-002
9.275925e+002, 8.933762e-002
9.295209e+002, 8.753783e-002
9.314494e+002, 8.614910e-002
9.333779e+002, 8.531115e-002
9.353063e+002, 8.488812e-002
9.372348e+002, 8.434390e-002
9.391633e+002, 8.319782e-002
9.410917e+002, 8.131903e-002
9.430202e+002, 7.876807e-002
9.449487e+002, 7.598469e-002
9.468771e+002, 7.318196e-002
9.488056e+002, 7.024839e-002
9.507341e+002, 6.731816e-002
9.526625e+002, 6.453975e-002
9.545910e+002, 6.191628e-002
9.565195e+002, 5.922916e-002
9.584479e+002, 5.659625e-002
9.603764e+002, 5.408214e-002
9.623049e+002, 5.157306e-002
9.642333e+002, 4.918335e-002
9.661618e+002, 4.697553e-002
9.680903e+002, 4.490744e-002
9.700187e+002, 4.280794e-002
9.719472e+002, 4.078145e-002
9.738757e+002, 3.887336e-002
9.758041e+002, 3.718540e-002
9.777326e+002, 3.564348e-002
9.796611e+002, 3.422671e-002
9.815895e+002, 3.300097e-002
9.835180e+002, 3.224085e-002
9.854465e+002, 3.201112e-002
9.873749e+002, 3.196712e-002
9.893034e+002, 3.235913e-002
9.912319e+002, 3.314433e-002
9.931603e+002, 3.413009e-002
9.950888e+002, 3.550779e-002
9.970173e+002, 3.684122e-002
9.989457e+002, 3.778170e-002
1.000874e+003, 3.787040e-002
1.002803e+003, 3.714054e-002
1.004731e+003, 3.588941e-002
1.006660e+003, 3.417605e-002
1.008588e+003, 3.230537e-002
1.010517e+003, 3.026409e-002
1.012445e+003, 2.811465e-002
1.014373e+003, 2.620821e-002
1.016302e+003, 2.458621e-002
1.018230e+003, 2.304607e-002
1.020159e+003, 2.158228e-002
1.022087e+003, 2.027203e-002
1.024016e+003, 1.894925e-002
1.025944e+003, 1.784449e-002
1.027873e+003, 1.694692e-002
1.029801e+003, 1.592418e-002
1.031730e+003, 1.493027e-002
1.033658e+003, 1.416327e-002
1.035587e+003, 1.332155e-002
1.037515e+003, 1.245893e-002
1.039443e+003, 1.163060e-002
1.041372e+003, 1.077072e-002
1.043300e+003, 1.000278e-002
1.045229e+003, 9.241215e-003
1.047157e+003, 8.614102e-003
1.049086e+003, 8.061168e-003
1.051014e+003, 7.421758e-003
1.052943e+003, 6.874832e-003
1.054871e+003, 6.529199e-003
1.056800e+003, 6.150951e-003
1.058728e+003, 5.713722e-003
1.060657e+003, 5.371813e-003
1.062585e+003, 5.116981e-003
1.064514e+003, 4.785686e-003
1.066442e+003, 4.501892e-003
1.068370e+003, 4.202581e-003
1.070299e+003, 4.009647e-003
1.072227e+003, 3.940132e-003
1.074156e+003, 3.660837e-003
1.076084e+003, 3.336733e-003
1.078013e+003, 3.222553e-003
1.079941e+003, 3.148785e-003
1.081870e+003, 2.987265e-003
1.083798e+003, 2.837991e-003
1.085727e+003, 2.727658e-003
1.087655e+003, 2.643541e-003
1.089584e+003, 2.465236e-003
1.091512e+003, 2.365255e-003
1.093441e+003, 2.330593e-003
1.095369e+003, 2.218684e-003
1.097297e+003, 2.056147e-003
1.099226e+003, 1.969037e-003
1.101154e+003, 1.937668e-003
1.103083e+003, 1.934061e-003
1.105011e+003, 1.817235e-003
1.106940e+003, 1.616042e-003
1.108868e+003, 1.523115e-003
1.110797e+003, 1.520643e-003
1.112725e+003, 1.485653e-003
1.114654e+003, 1.425350e-003
1.116582e+003, 1.404751e-003
1.118511e+003, 1.350336e-003
1.120439e+003, 1.206896e-003
1.122368e+003, 1.099968e-003
1.124296e+003, 1.027585e-003
1.126224e+003, 9.393002e-004
1.128153e+003, 7.804505e-004
1.130081e+003, 6.133395e-004
1.132010e+003, 4.269862e-004
1.133938e+003, 4.527797e-004
1.135867e+003, 5.405113e-004
1.137795e+003, 5.713048e-004
1.139724e+003, 6.595895e-004
1.141652e+003, 6.896682e-004
1.143581e+003, 6.749566e-004
1.145509e+003, 7.307417e-004
1.147438e+003, 8.881889e-004
1.149366e+003, 1.155589e-003
1.151295e+003, 1.467793e-003
1.153223e+003, 2.075913e-003
1.155151e+003, 3.025584e-003
1.157080e+003, 4.460035e-003
1.159008e+003, 6.388455e-003
1.160937e+003, 8.513371e-003
1.162865e+003, 1.011072e-002
1.164794e+003, 1.027416e-002
1.166722e+003, 8.811617e-003
1.168651e+003, 6.560958e-003
1.170579e+003, 4.571425e-003
1.172508e+003, 2.895845e-003
1.174436e+003, 1.547824e-003
1.176365e+003, 6.661729e-004
1.178293e+003, 1.553686e-004
1.180222e+003, -1.598953e-004
1.182150e+003, -4.970471e-004
1.184078e+003, -6.935931e-004
1.186007e+003, -9.387515e-004
1.187935e+003, -1.117861e-003
1.189864e+003, -1.303626e-003
1.191792e+003, -1.508021e-003
1.193721e+003, -1.616889e-003
1.195649e+003, -1.665385e-003
1.197578e+003, -1.748001e-003
1.199506e+003, -1.814737e-003
1.201435e+003, -1.810868e-003
1.203363e+003, -1.876548e-003
1.205292e+003, -1.882138e-003
1.207220e+003, -1.916828e-003
1.209149e+003, -2.029924e-003
1.211077e+003, -2.047865e-003
1.213005e+003, -2.111205e-003
1.214934e+003, -2.271170e-003
1.216862e+003, -2.332899e-003
1.218791e+003, -2.287941e-003
1.220719e+003, -2.347686e-003
1.222648e+003, -2.393616e-003
1.224576e+003, -2.369391e-003
1.226505e+003, -2.382135e-003
1.228433e+003, -2.449642e-003
1.230362e+003, -2.530737e-003
1.232290e+003, -2.601451e-003
1.234219e+003, -2.597907e-003
1.236147e+003, -2.703682e-003
1.238076e+003, -2.761957e-003
1.240004e+003, -2.784271e-003
1.241932e+003, -2.867675e-003
1.243861e+003, -2.965857e-003
1.245789e+003, -2.938879e-003
1.247718e+003, -2.936095e-003
1.249646e+003, -2.894748e-003
1.251575e+003, -2.902375e-003
1.253503e+003, -2.956194e-003
1.255432e+003, -3.099461e-003
1.257360e+003, -3.091943e-003
1.259289e+003, -3.001453e-003
1.261217e+003, -3.045094e-003
1.263146e+003, -3.086443e-003
1.265074e+003, -3.095221e-003
1.267003e+003, -3.188907e-003
1.268931e+003, -3.214180e-003
1.270859e+003, -3.113634e-003
1.272788e+003, -3.136788e-003
1.274716e+003, -3.151262e-003
1.276645e+003, -3.151297e-003
1.278573e+003, -3.172300e-003
1.280502e+003, -3.159434e-003
1.282430e+003, -3.177181e-003
1.284359e+003, -3.232749e-003
1.286287e+003, -3.306724e-003
1.288216e+003, -3.253149e-003
1.290144e+003, -3.242780e-003
1.292073e+003, -3.216238e-003
1.294001e+003, -3.161842e-003
1.295930e+003, -3.144117e-003
1.297858e+003, -3.091252e-003
1.299786e+003, -3.118602e-003
1.301715e+003, -3.095021e-003
1.303643e+003, -2.977869e-003
1.305572e+003, -2.891709e-003
1.307500e+003, -2.986066e-003
1.309429e+003, -3.126157e-003
1.311357e+003, -3.200856e-003
1.313286e+003, -3.139285e-003
1.315214e+003, -3.151014e-003
1.317143e+003, -3.198219e-003
1.319071e+003, -3.182362e-003
1.321000e+003, -3.256530e-003
1.322928e+003, -3.262820e-003
1.324857e+003, -3.141483e-003
1.326785e+003, -2.988002e-003
1.328714e+003, -3.053352e-003
1.330642e+003, -3.151326e-003
1.332570e+003, -3.070627e-003
1.334499e+003, -2.990459e-003
1.336427e+003, -3.033198e-003
1.338356e+003, -3.107060e-003
1.340284e+003, -3.159069e-003
1.342213e+003, -3.103199e-003
1.344141e+003, -3.132742e-003
1.346070e+003, -3.106677e-003
1.347998e+003, -3.129836e-003
1.349927e+003, -3.240946e-003
1.351855e+003, -3.316583e-003
1.353784e+003, -3.214891e-003
1.355712e+003, -3.112880e-003
1.357641e+003, -3.210686e-003
1.359569e+003, -3.244011e-003
1.361497e+003, -3.211333e-003
1.363426e+003, -3.220871e-003
1.365354e+003, -3.171981e-003
1.367283e+003, -3.181780e-003
1.369211e+003, -3.225343e-003
1.371140e+003, -3.240917e-003
1.373068e+003, -3.197784e-003
1.374997e+003, -3.214238e-003
1.376925e+003, -3.260353e-003
1.378854e+003, -3.161366e-003
1.380782e+003, -3.162151e-003
1.382711e+003, -3.192040e-003
1.384639e+003, -3.143650e-003
1.386568e+003, -3.062743e-003
1.388496e+003, -2.977557e-003
1.390424e+003, -2.937456e-003
1.392353e+003, -2.839464e-003
1.394281e+003, -2.890152e-003
1.396210e+003, -2.880517e-003
1.398138e+003, -2.764476e-003
1.400067e+003, -2.851396e-003
1.401995e+003, -2.920089e-003
1.403924e+003, -2.821558e-003
1.405852e+003, -2.814392e-003
1.407781e+003, -2.874701e-003
1.409709e+003, -2.915728e-003
1.411638e+003, -2.926092e-003
1.413566e+003, -2.968675e-003
1.415495e+003, -3.013787e-003
1.417423e+003, -3.067799e-003
1.419351e+003, -3.101583e-003
1.421280e+003, -3.057010e-003
1.423208e+003, -2.979172e-003
1.425137e+003, -2.809406e-003
1.427065e+003, -2.686153e-003
1.428994e+003, -2.718339e-003
1.430922e+003, -2.728280e-003
1.432851e+003, -2.675743e-003
1.434779e+003, -2.668209e-003
1.436708e+003, -2.684533e-003
1.438636e+003, -2.811088e-003
1.440565e+003, -2.900556e-003
1.442493e+003, -2.818694e-003
1.444422e+003, -2.765232e-003
1.446350e+003, -2.874151e-003
1.448278e+003, -2.888238e-003
1.450207e+003, -2.912115e-003
1.452135e+003, -2.968842e-003
1.454064e+003, -2.985955e-003
1.455992e+003, -2.998829e-003
1.457921e+003, -3.059951e-003
1.459849e+003, -3.092189e-003
1.461778e+003, -3.083195e-003
1.463706e+003, -3.114325e-003
1.465635e+003, -3.214373e-003
1.467563e+003, -3.316012e-003
1.469492e+003, -3.250649e-003
1.471420e+003, -3.062795e-003
1.473349e+003, -2.899115e-003
1.475277e+003, -2.907264e-003
1.477205e+003, -2.967718e-003
1.479134e+003, -2.897614e-003
1.481062e+003, -2.848464e-003
1.482991e+003, -2.914031e-003
1.484919e+003, -2.894099e-003
1.486848e+003, -2.782722e-003
1.488776e+003, -2.732476e-003
1.490705e+003, -2.871729e-003
1.492633e+003, -3.007853e-003
1.494562e+003, -2.946650e-003
1.496490e+003, -2.809200e-003
1.498419e+003, -2.765296e-003
1.500347e+003, -2.776453e-003
1.502276e+003, -2.876539e-003
1.504204e+003, -2.954581e-003
1.506132e+003, -2.897933e-003
1.508061e+003, -2.840938e-003
1.509989e+003, -2.905763e-003
1.511918e+003, -3.015518e-003
1.513846e+003, -3.092178e-003
1.515775e+003, -3.055150e-003
1.517703e+003, -2.983076e-003
1.519632e+003, -2.971150e-003
1.521560e+003, -2.967928e-003
1.523489e+003, -3.002263e-003
1.525417e+003, -2.997682e-003
1.527346e+003, -2.966329e-003
1.529274e+003, -2.950523e-003
1.531203e+003, -2.967750e-003
1.533131e+003, -3.079165e-003
1.535059e+003, -3.117596e-003
1.536988e+003, -3.055180e-003
1.538916e+003, -3.087455e-003
1.540845e+003, -3.194393e-003
1.542773e+003, -3.204018e-003
1.544702e+003, -3.140536e-003
1.546630e+003, -3.125054e-003
1.548559e+003, -3.141389e-003
1.550487e+003, -3.214856e-003
1.552416e+003, -3.261667e-003
1.554344e+003, -3.229603e-003
1.556273e+003, -3.240042e-003
1.558201e+003, -3.224754e-003
1.560130e+003, -3.177993e-003
1.562058e+003, -3.140880e-003
1.563986e+003, -3.098711e-003
1.565915e+003, -3.137822e-003
1.567843e+003, -3.369386e-003
1.569772e+003, -3.297722e-003
1.571700e+003, -3.151378e-003
1.573629e+003, -3.140168e-003
1.575557e+003, -3.191784e-003
1.577486e+003, -3.200126e-003
1.579414e+003, -3.213167e-003
1.581343e+003, -3.286408e-003
1.583271e+003, -3.307396e-003
1.585200e+003, -3.337990e-003
1.587128e+003, -3.424429e-003
1.589057e+003, -3.482259e-003
1.590985e+003, -3.466199e-003
1.592913e+003, -3.286798e-003
1.594842e+003, -3.178129e-003
1.596770e+003, -3.189514e-003
1.598699e+003, -3.220056e-003
1.600627e+003, -3.308460e-003
1.602556e+003, -3.317753e-003
1.604484e+003, -3.206458e-003
1.606413e+003, -3.198560e-003
1.608341e+003, -3.312789e-003
1.610270e+003, -3.428698e-003
1.612198e+003, -3.293265e-003
1.614127e+003, -3.164019e-003
1.616055e+003, -3.200387e-003
1.617984e+003, -3.162375e-003
1.619912e+003, -3.219849e-003
1.621840e+003, -3.388264e-003
1.623769e+003, -3.324726e-003
1.625697e+003, -3.327931e-003
1.627626e+003, -3.316600e-003
1.629554e+003, -3.282541e-003
1.631483e+003, -3.272066e-003
1.633411e+003, -3.151542e-003
1.635340e+003, -3.234615e-003
1.637268e+003, -3.351344e-003
1.639197e+003, -3.419242e-003
1.641125e+003, -3.305571e-003
1.643054e+003, -3.232033e-003
1.644982e+003, -3.174898e-003
1.646911e+003, -3.105987e-003
1.648839e+003, -3.132528e-003
1.650767e+003, -3.278912e-003
1.652696e+003, -3.323900e-003
1.654624e+003, -3.338980e-003
1.656553e+003, -3.474690e-003
1.658481e+003, -3.525165e-003
1.660410e+003, -3.482731e-003
1.662338e+003, -3.406198e-003
1.664267e+003, -3.415859e-003
1.666195e+003, -3.457676e-003
1.668124e+003, -3.413944e-003
1.670052e+003, -3.497139e-003
1.671981e+003, -3.545172e-003
1.673909e+003, -3.532042e-003
1.675838e+003, -3.601201e-003
1.677766e+003, -3.647992e-003
1.679694e+003, -3.710605e-003
1.681623e+003, -3.677234e-003
1.683551e+003, -3.619120e-003
1.685480e+003, -3.582198e-003
1.687408e+003, -3.440179e-003
1.689337e+003, -3.391461e-003
1.691265e+003, -3.421769e-003
1.693194e+003, -3.465147e-003
1.695122e+003, -3.355839e-003
1.697051e+003, -3.304631e-003
1.698979e+003, -3.471781e-003
1.700908e+003, -3.689848e-003
1.702836e+003, -3.721536e-003
1.704765e+003, -3.565669e-003
1.706693e+003, -3.391618e-003
1.708621e+003, -3.402671e-003
1.710550e+003, -3.566715e-003
1.712478e+003, -3.727528e-003
1.714407e+003, -3.729008e-003
1.716335e+003, -3.704735e-003
1.718264e+003, -3.878426e-003
1.720192e+003, -3.978478e-003
1.722121e+003, -4.038563e-003
1.724049e+003, -4.018422e-003
1.725978e+003, -3.930074e-003
1.727906e+003, -3.934915e-003
1.729835e+003, -4.260343e-003
1.731763e+003, -4.493556e-003
1.733692e+003, -4.461779e-003
1.735620e+003, -4.587302e-003
1.737548e+003, -4.703920e-003
1.739477e+003, -4.713143e-003
1.741405e+003, -4.698692e-003
1.743334e+003, -4.540437e-003
1.745262e+003, -4.566892e-003
1.747191e+003, -4.739993e-003
1.749119e+003, -4.784908e-003
1.751048e+003, -4.591646e-003
1.752976e+003, -4.312018e-003
1.754905e+003, -4.324500e-003
1.756833e+003, -4.449046e-003
1.758762e+003, -4.414059e-003
1.760690e+003, -4.467724e-003
1.762619e+003, -4.318275e-003
1.764547e+003, -4.028877e-003
1.766475e+003, -4.102434e-003
1.768404e+003, -4.122694e-003
1.770332e+003, -4.040593e-003
1.772261e+003, -4.147141e-003
1.774189e+003, -4.212973e-003
1.776118e+003, -4.079471e-003
1.778046e+003, -3.826991e-003
1.779975e+003, -3.821915e-003
1.781903e+003, -3.895834e-003
1.783832e+003, -3.872102e-003
1.785760e+003, -3.867503e-003
1.787689e+003, -3.952358e-003
1.789617e+003, -3.876311e-003
1.791546e+003, -3.798664e-003
1.793474e+003, -3.916151e-003
1.795402e+003, -3.974267e-003
1.797331e+003, -3.922825e-003
1.799259e+003, -3.945288e-003
1.801188e+003, -3.863051e-003
1.803116e+003, -3.592942e-003
1.805045e+003, -3.527051e-003
1.806973e+003, -3.687603e-003
1.808902e+003, -3.697189e-003
1.810830e+003, -3.729000e-003
1.812759e+003, -3.839952e-003
1.814687e+003, -3.831706e-003
1.816616e+003, -3.830429e-003
1.818544e+003, -3.833518e-003
1.820473e+003, -3.661246e-003
1.822401e+003, -3.630847e-003
1.824329e+003, -3.741946e-003
1.826258e+003, -3.887220e-003
1.828186e+003, -3.779252e-003
1.830115e+003, -3.706872e-003
1.832043e+003, -3.827119e-003
1.833972e+003, -3.933396e-003
1.835900e+003, -3.935333e-003
1.837829e+003, -4.184876e-003
1.839757e+003, -4.262496e-003
1.841686e+003, -4.150954e-003
1.843614e+003, -4.328211e-003
1.845543e+003, -4.202187e-003
1.847471e+003, -4.184452e-003
1.849400e+003, -4.367692e-003
1.851328e+003, -4.290103e-003
1.853256e+003, -4.260711e-003
1.855185e+003, -4.227774e-003
1.857113e+003, -4.048798e-003
1.859042e+003, -3.803435e-003
1.860970e+003, -4.015624e-003
1.862899e+003, -4.131107e-003
1.864827e+003, -4.066630e-003
1.866756e+003, -4.209086e-003
1.868684e+003, -4.370107e-003
1.870613e+003, -4.450047e-003
1.872541e+003, -4.549692e-003
1.874470e+003, -4.626180e-003
1.876398e+003, -4.344794e-003
1.878327e+003, -4.494812e-003
1.880255e+003, -4.746419e-003
1.882183e+003, -4.736933e-003
1.884112e+003, -4.907313e-003
1.886040e+003, -4.876683e-003
1.887969e+003, -4.845303e-003
1.889897e+003, -4.891215e-003
1.891826e+003, -4.897576e-003
1.893754e+003, -4.723592e-003
1.895683e+003, -4.687388e-003
1.897611e+003, -4.691286e-003
1.899540e+003, -4.561386e-003
1.901468e+003, -4.743482e-003
1.903397e+003, -5.182930e-003
1.905325e+003, -4.851457e-003
1.907254e+003, -4.411307e-003
1.909182e+003, -4.612946e-003
1.911110e+003, -4.897846e-003
1.913039e+003, -5.102616e-003
1.914967e+003, -5.053413e-003
1.916896e+003, -5.040825e-003
1.918824e+003, -5.066940e-003
1.920753e+003, -5.129414e-003
1.922681e+003, -5.079600e-003
1.924610e+003, -5.258441e-003
1.926538e+003, -5.072038e-003
1.928467e+003, -5.033815e-003
1.930395e+003, -4.963750e-003
1.932324e+003, -5.067084e-003
1.934252e+003, -4.901167e-003
1.936181e+003, -4.609879e-003
1.938109e+003, -5.062187e-003
1.940037e+003, -5.415662e-003
1.941966e+003, -5.069565e-003
1.943894e+003, -5.271685e-003
1.945823e+003, -5.519245e-003
1.947751e+003, -4.966887e-003
1.949680e+003, -4.478319e-003
1.951608e+003, -4.579794e-003
1.953537e+003, -5.094578e-003
1.955465e+003, -5.361652e-003
1.957394e+003, -5.145629e-003
1.959322e+003, -4.719466e-003
1.961251e+003, -4.190476e-003
1.963179e+003, -4.907527e-003
1.965108e+003, -4.923775e-003
1.967036e+003, -5.106300e-003
1.968964e+003, -5.534304e-003
1.970893e+003, -5.000307e-003
1.972821e+003, -5.322412e-003
1.974750e+003, -5.717142e-003
1.976678e+003, -5.004869e-003
1.978607e+003, -4.190654e-003
1.980535e+003, -3.969914e-003
1.982464e+003, -4.053200e-003
1.984392e+003, -4.761694e-003
1.986321e+003, -4.659695e-003
1.988249e+003, -3.787634e-003
1.990178e+003, -3.888813e-003
1.992106e+003, -4.883451e-003
1.994035e+003, -5.168285e-003
1.995963e+003, -4.948645e-003
1.997891e+003, -5.351255e-003
1.999820e+003, -5.078041e-003
2.001748e+003, -4.951608e-003
2.003677e+003, -5.023179e-003
2.005605e+003, -4.602301e-003
2.007534e+003, -4.813024e-003
2.009462e+003, -4.533260e-003
2.011391e+003, -3.753765e-003
2.013319e+003, -3.985365e-003
2.015248e+003, -4.776392e-003
2.017176e+003, -5.213126e-003
2.019105e+003, -5.046969e-003
2.021033e+003, -4.974912e-003
2.022962e+003, -4.858396e-003
2.024890e+003, -4.301344e-003
2.026818e+003, -3.820229e-003
2.028747e+003, -3.033990e-003
2.030675e+003, -2.987852e-003
2.032604e+003, -3.263131e-003
2.034532e+003, -4.296951e-003
2.036461e+003, -4.781476e-003
2.038389e+003, -4.743229e-003
2.040318e+003, -4.829443e-003
2.042246e+003, -4.384268e-003
2.044175e+003, -4.391261e-003
2.046103e+003, -4.885549e-003
2.048031e+003, -4.075589e-003
2.049960e+003, -3.271242e-003
2.051888e+003, -3.411580e-003
2.053817e+003, -3.367077e-003
2.055745e+003, -3.442715e-003
2.057674e+003, -3.564231e-003
2.059602e+003, -3.812681e-003
2.061531e+003, -4.302152e-003
2.063459e+003, -4.371726e-003
2.065388e+003, -4.478837e-003
2.067316e+003, -4.368802e-003
2.069245e+003, -3.888350e-003
2.071173e+003, -4.235240e-003
2.073102e+003, -4.160579e-003
2.075030e+003, -3.790026e-003
2.076958e+003, -4.278512e-003
2.078887e+003, -4.119171e-003
2.080815e+003, -3.424163e-003
2.082744e+003, -3.738434e-003
2.084672e+003, -4.193818e-003
2.086601e+003, -4.765336e-003
2.088529e+003, -4.708715e-003
2.090458e+003, -4.130005e-003
2.092386e+003, -4.019182e-003
2.094315e+003, -4.047771e-003
2.096243e+003, -3.756713e-003
2.098172e+003, -3.671580e-003
2.100100e+003, -3.415244e-003
2.102029e+003, -3.342912e-003
2.103957e+003, -3.191278e-003
2.105885e+003, -3.563664e-003
2.107814e+003, -3.791871e-003
2.109742e+003, -4.314963e-003
2.111671e+003, -4.598896e-003
2.113599e+003, -4.168847e-003
2.115528e+003, -3.784417e-003
2.117456e+003, -4.232518e-003
2.119385e+003, -4.519973e-003
2.121313e+003, -4.451622e-003
2.123242e+003, -4.229104e-003
2.125170e+003, -4.336746e-003
2.127099e+003, -4.100749e-003
2.129027e+003, -4.077390e-003
2.130956e+003, -4.286990e-003
2.132884e+003, -4.014583e-003
2.134813e+003, -4.128726e-003
2.136741e+003, -4.400841e-003
2.138669e+003, -3.951496e-003
2.140598e+003, -4.256323e-003
2.142526e+003, -4.706781e-003
2.144455e+003, -4.202402e-003
2.146383e+003, -3.766262e-003
2.148312e+003, -3.841670e-003
2.150240e+003, -3.599008e-003
2.152169e+003, -3.809165e-003
2.154097e+003, -4.741724e-003
2.156026e+003, -5.016663e-003
2.157954e+003, -4.400201e-003
2.159883e+003, -4.075803e-003
2.161811e+003, -3.579176e-003
2.163740e+003, -3.460574e-003
2.165668e+003, -3.662961e-003
2.167596e+003, -4.876511e-003
2.169525e+003, -4.591209e-003
2.171453e+003, -4.314922e-003
2.173382e+003, -4.500633e-003
2.175310e+003, -4.312428e-003
2.177239e+003, -3.855475e-003
2.179167e+003, -4.248587e-003
2.181096e+003, -4.757730e-003
2.183024e+003, -4.488644e-003
2.184953e+003, -4.005195e-003
2.186881e+003, -4.536731e-003
2.188810e+003, -4.856565e-003
2.190738e+003, -4.306029e-003
2.192667e+003, -4.251924e-003
2.194595e+003, -4.471674e-003
2.196523e+003, -4.049193e-003
2.198452e+003, -3.267264e-003
2.200380e+003, -3.280782e-003
2.202309e+003, -4.398234e-003
2.204237e+003, -4.362702e-003
2.206166e+003, -4.721950e-003
2.208094e+003, -5.913659e-003
2.210023e+003, -5.609537e-003
2.211951e+003, -4.518966e-003
2.213880e+003, -3.936254e-003
2.215808e+003, -4.101001e-003
2.217737e+003, -4.460632e-003
2.219665e+003, -3.984952e-003
2.221594e+003, -3.878342e-003
2.223522e+003, -4.155797e-003
2.225450e+003, -4.785731e-003
2.227379e+003, -4.822542e-003
2.229307e+003, -4.268967e-003
2.231236e+003, -4.452846e-003
2.233164e+003, -4.933260e-003
2.235093e+003, -4.925416e-003
2.237021e+003, -4.189483e-003
2.238950e+003, -4.028005e-003
2.240878e+003, -4.540247e-003
2.242807e+003, -4.697420e-003
2.244735e+003, -4.282022e-003
2.246664e+003, -4.082823e-003
2.248592e+003, -4.153133e-003
2.250521e+003, -4.046464e-003
2.252449e+003, -3.571023e-003
2.254377e+003, -3.918471e-003
2.256306e+003, -4.683192e-003
2.258234e+003, -4.579855e-003
2.260163e+003, -4.272628e-003
2.262091e+003, -4.807976e-003
2.264020e+003, -4.973603e-003
2.265948e+003, -4.366077e-003
2.267877e+003, -4.257974e-003
2.269805e+003, -4.368734e-003
2.271734e+003, -4.086548e-003
2.273662e+003, -3.864856e-003
2.275591e+003, -4.320478e-003
2.277519e+003, -4.541398e-003
2.279448e+003, -4.496114e-003
2.281376e+003, -3.921053e-003
2.283304e+003, -3.496044e-003
2.285233e+003, -3.877961e-003
2.287161e+003, -4.064666e-003
2.289090e+003, -3.970227e-003
2.291018e+003, -4.234549e-003
2.292947e+003, -4.255568e-003
2.294875e+003, -4.428398e-003
2.296804e+003, -4.497027e-003
2.298732e+003, -4.304979e-003
2.300661e+003, -3.929502e-003
2.302589e+003, -3.999158e-003
2.304518e+003, -4.192939e-003
2.306446e+003, -4.197729e-003
2.308375e+003, -4.234312e-003
2.310303e+003, -4.385257e-003
2.312231e+003, -4.381455e-003
2.314160e+003, -4.387419e-003
2.316088e+003, -4.404485e-003
2.318017e+003, -4.231163e-003
2.319945e+003, -4.068793e-003
2.321874e+003, -4.082066e-003
2.323802e+003, -4.168314e-003
2.325731e+003, -4.245870e-003
2.327659e+003, -4.435342e-003
2.329588e+003, -4.573130e-003
2.331516e+003, -4.572093e-003
2.333445e+003, -4.591322e-003
2.335373e+003, -4.494671e-003
2.337302e+003, -4.413112e-003
2.339230e+003, -4.751165e-003
2.341158e+003, -4.974297e-003
2.343087e+003, -4.673838e-003
2.345015e+003, -4.614291e-003
2.346944e+003, -4.555357e-003
2.348872e+003, -4.416986e-003
2.350801e+003, -4.271375e-003
2.352729e+003, -4.471193e-003
2.354658e+003, -4.563798e-003
2.356586e+003, -4.801727e-003
2.358515e+003, -4.916991e-003
2.360443e+003, -4.733176e-003
2.362372e+003, -4.549023e-003
2.364300e+003, -4.511429e-003
2.366229e+003, -4.505052e-003
2.368157e+003, -4.700408e-003
2.370085e+003, -4.929333e-003
2.372014e+003, -4.864792e-003
2.373942e+003, -4.804658e-003
2.375871e+003, -4.919088e-003
2.377799e+003, -4.987152e-003
2.379728e+003, -4.771466e-003
2.381656e+003, -4.814303e-003
2.383585e+003, -4.759945e-003
2.385513e+003, -4.621763e-003
2.387442e+003, -4.627006e-003
2.389370e+003, -4.553404e-003
2.391299e+003, -4.543979e-003
2.393227e+003, -4.767978e-003
2.395156e+003, -4.823793e-003
2.397084e+003, -4.771433e-003
2.399012e+003, -5.106980e-003
2.400941e+003, -5.191565e-003
2.402869e+003, -5.192200e-003
2.404798e+003, -4.888605e-003
2.406726e+003, -4.460781e-003
2.408655e+003, -4.552922e-003
2.410583e+003, -4.631820e-003
2.412512e+003, -4.499170e-003
2.414440e+003, -4.359551e-003
2.416369e+003, -4.526739e-003
2.418297e+003, -5.145321e-003
2.420226e+003, -5.523013e-003
2.422154e+003, -5.367401e-003
2.424083e+003, -4.924893e-003
2.426011e+003, -4.562642e-003
2.427939e+003, -4.765944e-003
2.429868e+003, -5.313991e-003
2.431796e+003, -5.055811e-003
2.433725e+003, -5.092075e-003
2.435653e+003, -5.056025e-003
2.437582e+003, -5.228054e-003
2.439510e+003, -5.397036e-003
2.441439e+003, -5.383749e-003
2.443367e+003, -5.212136e-003
2.445296e+003, -5.088689e-003
2.447224e+003, -5.205810e-003
2.449153e+003, -5.347238e-003
2.451081e+003, -5.205821e-003
2.453010e+003, -4.941671e-003
2.454938e+003, -4.952103e-003
2.456866e+003, -5.095164e-003
2.458795e+003, -5.327850e-003
2.460723e+003, -5.287388e-003
2.462652e+003, -5.173197e-003
2.464580e+003, -5.208279e-003
2.466509e+003, -5.303007e-003
2.468437e+003, -5.550934e-003
2.470366e+003, -5.649130e-003
2.472294e+003, -5.597060e-003
2.474223e+003, -5.625624e-003
2.476151e+003, -5.590239e-003
2.478080e+003, -5.811256e-003
2.480008e+003, -5.786824e-003
2.481937e+003, -5.438976e-003
2.483865e+003, -5.508927e-003
2.485793e+003, -5.862453e-003
2.487722e+003, -5.925590e-003
2.489650e+003, -5.880679e-003
2.491579e+003, -5.717058e-003
2.493507e+003, -5.801173e-003
2.495436e+003, -6.064010e-003
2.497364e+003, -5.801139e-003
2.499293e+003, -5.743500e-003
2.501221e+003, -5.869574e-003
2.503150e+003, -5.947406e-003
2.505078e+003, -5.787282e-003
2.507007e+003, -5.786425e-003
2.508935e+003, -5.985242e-003
2.510864e+003, -6.097453e-003
2.512792e+003, -6.087800e-003
2.514720e+003, -5.989855e-003
2.516649e+003, -5.923779e-003
2.518577e+003, -5.783538e-003
2.520506e+003, -5.748565e-003
2.522434e+003, -5.976815e-003
2.524363e+003, -6.366599e-003
2.526291e+003, -6.186938e-003
2.528220e+003, -6.000123e-003
2.530148e+003, -6.183090e-003
2.532077e+003, -6.523590e-003
2.534005e+003, -6.710381e-003
2.535934e+003, -6.575666e-003
2.537862e+003, -6.142983e-003
2.539791e+003, -5.824312e-003
2.541719e+003, -5.846803e-003
2.543647e+003, -5.994652e-003
2.545576e+003, -6.110648e-003
2.547504e+003, -6.271117e-003
2.549433e+003, -6.782542e-003
2.551361e+003, -6.777647e-003
2.553290e+003, -6.340229e-003
2.555218e+003, -5.714483e-003
2.557147e+003, -5.626056e-003
2.559075e+003, -5.951134e-003
2.561004e+003, -5.836075e-003
2.562932e+003, -5.539775e-003
2.564861e+003, -5.752587e-003
2.566789e+003, -5.876089e-003
2.568718e+003, -6.000688e-003
2.570646e+003, -6.011446e-003
2.572574e+003, -5.902488e-003
2.574503e+003, -5.984532e-003
2.576431e+003, -5.902715e-003
2.578360e+003, -5.616526e-003
2.580288e+003, -5.241770e-003
2.582217e+003, -5.179659e-003
2.584145e+003, -5.426292e-003
2.586074e+003, -5.680893e-003
2.588002e+003, -5.990487e-003
2.589931e+003, -5.950706e-003
2.591859e+003, -5.552613e-003
2.593788e+003, -5.320505e-003
2.595716e+003, -5.403863e-003
2.597645e+003, -5.407517e-003
2.599573e+003, -5.423674e-003
2.601501e+003, -5.442519e-003
2.603430e+003, -5.271646e-003
2.605358e+003, -5.208929e-003
2.607287e+003, -5.552204e-003
2.609215e+003, -5.619250e-003
2.611144e+003, -5.312989e-003
2.613072e+003, -5.229671e-003
2.615001e+003, -4.979840e-003
2.616929e+003, -4.922016e-003
2.618858e+003, -5.116961e-003
2.620786e+003, -5.133158e-003
2.622715e+003, -4.740980e-003
2.624643e+003, -5.018503e-003
2.626572e+003, -5.445767e-003
2.628500e+003, -5.442366e-003
2.630428e+003, -5.265128e-003
2.632357e+003, -5.077337e-003
2.634285e+003, -4.998310e-003
2.636214e+003, -5.031070e-003
2.638142e+003, -5.182652e-003
2.640071e+003, -5.065103e-003
2.641999e+003, -5.031382e-003
2.643928e+003, -5.226984e-003
2.645856e+003, -5.057451e-003
2.647785e+003, -4.864478e-003
2.649713e+003, -4.820780e-003
2.651642e+003, -4.687164e-003
2.653570e+003, -4.731081e-003
2.655499e+003, -5.044294e-003
2.657427e+003, -5.261190e-003
2.659355e+003, -5.318916e-003
2.661284e+003, -5.288433e-003
2.663212e+003, -5.018224e-003
2.665141e+003, -4.736848e-003
2.667069e+003, -4.818038e-003
2.668998e+003, -4.983526e-003
2.670926e+003, -5.065778e-003
2.672855e+003, -5.025755e-003
2.674783e+003, -5.131625e-003
2.676712e+003, -5.300569e-003
2.678640e+003, -5.266994e-003
2.680569e+003, -4.996195e-003
2.682497e+003, -5.050209e-003
2.684426e+003, -5.263314e-003
2.686354e+003, -5.369662e-003
2.688282e+003, -5.307427e-003
2.690211e+003, -5.150233e-003
2.692139e+003, -5.279643e-003
2.694068e+003, -5.373847e-003
2.695996e+003, -5.290795e-003
2.697925e+003, -5.325689e-003
2.699853e+003, -5.354394e-003
2.701782e+003, -5.287617e-003
2.703710e+003, -5.240167e-003
2.705639e+003, -5.181228e-003
2.707567e+003, -5.065644e-003
2.709496e+003, -5.187302e-003
2.711424e+003, -5.225840e-003
2.713353e+003, -5.141089e-003
2.715281e+003, -5.106279e-003
2.717209e+003, -5.132100e-003
2.719138e+003, -5.311251e-003
2.721066e+003, -5.241203e-003
2.722995e+003, -5.190639e-003
2.724923e+003, -5.365864e-003
2.726852e+003, -5.252799e-003
2.728780e+003, -5.123071e-003
2.730709e+003, -5.246373e-003
2.732637e+003, -5.383813e-003
2.734566e+003, -5.385682e-003
2.736494e+003, -5.386927e-003
2.738423e+003, -5.367744e-003
2.740351e+003, -5.285797e-003
2.742280e+003, -5.168622e-003
2.744208e+003, -5.179100e-003
2.746136e+003, -5.396765e-003
2.748065e+003, -5.266543e-003
2.749993e+003, -5.435936e-003
2.751922e+003, -5.430179e-003
2.753850e+003, -5.198414e-003
2.755779e+003, -5.299469e-003
2.757707e+003, -5.452862e-003
2.759636e+003, -5.347328e-003
2.761564e+003, -5.111159e-003
2.763493e+003, -5.142964e-003
2.765421e+003, -5.217299e-003
2.767350e+003, -5.348531e-003
2.769278e+003, -5.521472e-003
2.771207e+003, -5.470804e-003
2.773135e+003, -5.330334e-003
2.775063e+003, -5.328692e-003
2.776992e+003, -5.097105e-003
2.778920e+003, -4.989111e-003
2.780849e+003, -5.100264e-003
2.782777e+003, -5.410560e-003
2.784706e+003, -5.497028e-003
2.786634e+003, -5.277810e-003
2.788563e+003, -5.196420e-003
2.790491e+003, -5.424581e-003
2.792420e+003, -5.464396e-003
2.794348e+003, -5.520952e-003
2.796277e+003, -5.540032e-003
2.798205e+003, -5.335875e-003
2.800134e+003, -5.322238e-003
2.802062e+003, -5.334922e-003
2.803990e+003, -5.576076e-003
2.805919e+003, -5.814075e-003
2.807847e+003, -5.732486e-003
2.809776e+003, -5.474127e-003
2.811704e+003, -5.399392e-003
2.813633e+003, -5.379756e-003
2.815561e+003, -5.504510e-003
2.817490e+003, -5.472459e-003
2.819418e+003, -5.492438e-003
2.821347e+003, -5.495327e-003
2.823275e+003, -5.275055e-003
2.825204e+003, -5.059937e-003
2.827132e+003, -5.098156e-003
2.829061e+003, -5.290697e-003
2.830989e+003, -5.224504e-003
2.832917e+003, -5.098658e-003
2.834846e+003, -5.180855e-003
2.836774e+003, -5.197908e-003
2.838703e+003, -5.404153e-003
2.840631e+003, -5.649158e-003
2.842560e+003, -5.538555e-003
2.844488e+003, -5.498559e-003
2.846417e+003, -5.947396e-003
2.848345e+003, -6.430205e-003
2.850274e+003, -6.759440e-003
2.852202e+003, -6.903252e-003
2.854131e+003, -6.748291e-003
2.856059e+003, -6.296543e-003
2.857988e+003, -5.922718e-003
2.859916e+003, -5.792937e-003
2.861844e+003, -6.072182e-003
2.863773e+003, -5.989169e-003
2.865701e+003, -5.999500e-003
2.867630e+003, -5.973885e-003
2.869558e+003, -5.762670e-003
2.871487e+003, -5.701447e-003
2.873415e+003, -5.923564e-003
2.875344e+003, -5.785367e-003
2.877272e+003, -5.724105e-003
2.879201e+003, -5.843375e-003
2.881129e+003, -5.786813e-003
2.883058e+003, -5.794920e-003
2.884986e+003, -5.590183e-003
2.886915e+003, -5.457122e-003
2.888843e+003, -5.749556e-003
2.890771e+003, -5.795394e-003
2.892700e+003, -5.879266e-003
2.894628e+003, -5.867664e-003
2.896557e+003, -5.902382e-003
2.898485e+003, -6.032540e-003
2.900414e+003, -5.932447e-003
2.902342e+003, -5.808193e-003
2.904271e+003, -5.735759e-003
2.906199e+003, -5.641087e-003
2.908128e+003, -5.972710e-003
2.910056e+003, -6.487529e-003
2.911985e+003, -6.906781e-003
2.913913e+003, -7.289958e-003
2.915842e+003, -7.511622e-003
2.917770e+003, -7.800580e-003
2.919698e+003, -7.911070e-003
2.921627e+003, -7.397817e-003
2.923555e+003, -6.966132e-003
2.925484e+003, -6.775949e-003
2.927412e+003, -6.490516e-003
2.929341e+003, -5.803172e-003
2.931269e+003, -5.712775e-003
2.933198e+003, -6.003524e-003
2.935126e+003, -6.292251e-003
2.937055e+003, -6.349510e-003
2.938983e+003, -5.855198e-003
2.940912e+003, -5.592324e-003
2.942840e+003, -5.764181e-003
2.944769e+003, -6.039943e-003
2.946697e+003, -6.158716e-003
2.948625e+003, -6.038531e-003
2.950554e+003, -5.831479e-003
2.952482e+003, -5.528553e-003
2.954411e+003, -5.526170e-003
2.956339e+003, -5.728493e-003
2.958268e+003, -5.895715e-003
2.960196e+003, -6.091255e-003
2.962125e+003, -5.999542e-003
2.964053e+003, -5.813367e-003
2.965982e+003, -5.949641e-003
2.967910e+003, -6.119165e-003
2.969839e+003, -5.926731e-003
2.971767e+003, -6.051961e-003
2.973696e+003, -6.264029e-003
2.975624e+003, -6.086223e-003
2.977552e+003, -5.690034e-003
2.979481e+003, -5.605995e-003
2.981409e+003, -6.062720e-003
2.983338e+003, -6.491459e-003
2.985266e+003, -6.563903e-003
2.987195e+003, -6.402853e-003
2.989123e+003, -5.850989e-003
2.991052e+003, -5.856391e-003
2.992980e+003, -6.054087e-003
2.994909e+003, -6.010626e-003
2.996837e+003, -6.061502e-003
2.998766e+003, -6.244441e-003
3.000694e+003, -6.480823e-003
3.002623e+003, -6.134159e-003
3.004551e+003, -5.789031e-003
3.006479e+003, -5.729731e-003
3.008408e+003, -5.907721e-003
3.010336e+003, -6.255656e-003
3.012265e+003, -6.053885e-003
3.014193e+003, -5.796847e-003
3.016122e+003, -5.516711e-003
3.018050e+003, -5.580142e-003
3.019979e+003, -5.946978e-003
3.021907e+003, -5.862124e-003
3.023836e+003, -5.994973e-003
3.025764e+003, -6.291513e-003
3.027693e+003, -6.389825e-003
3.029621e+003, -6.314525e-003
3.031550e+003, -6.345094e-003
3.033478e+003, -6.176822e-003
3.035406e+003, -5.892671e-003
3.037335e+003, -6.135600e-003
3.039263e+003, -6.042413e-003
3.041192e+003, -5.803248e-003
3.043120e+003, -5.931135e-003
3.045049e+003, -6.189946e-003
3.046977e+003, -6.013731e-003
3.048906e+003, -5.861002e-003
3.050834e+003, -5.940444e-003
3.052763e+003, -5.939816e-003
3.054691e+003, -5.908058e-003
3.056620e+003, -6.162262e-003
3.058548e+003, -6.527575e-003
3.060477e+003, -6.526087e-003
3.062405e+003, -6.594765e-003
3.064333e+003, -6.660097e-003
3.066262e+003, -6.125430e-003
3.068190e+003, -5.532971e-003
3.070119e+003, -5.706772e-003
3.072047e+003, -6.186075e-003
3.073976e+003, -6.253670e-003
3.075904e+003, -6.028268e-003
3.077833e+003, -5.959620e-003
3.079761e+003, -5.946435e-003
3.081690e+003, -6.213879e-003
3.083618e+003, -6.340149e-003
3.085547e+003, -6.287191e-003
3.087475e+003, -6.830596e-003
3.089404e+003, -7.219927e-003
3.091332e+003, -7.009290e-003
3.093260e+003, -6.317478e-003
3.095189e+003, -6.388329e-003
3.097117e+003, -6.747214e-003
3.099046e+003, -6.878154e-003
3.100974e+003, -6.474250e-003
3.102903e+003, -6.082415e-003
3.104831e+003, -6.178203e-003
3.106760e+003, -6.096627e-003
3.108688e+003, -5.985111e-003
3.110617e+003, -6.270193e-003
3.112545e+003, -6.428414e-003
3.114474e+003, -6.492316e-003
3.116402e+003, -6.317988e-003
3.118331e+003, -5.725644e-003
3.120259e+003, -5.975974e-003
3.122188e+003, -6.355905e-003
3.124116e+003, -6.583634e-003
3.126044e+003, -6.262517e-003
3.127973e+003, -6.102079e-003
3.129901e+003, -6.256205e-003
3.131830e+003, -5.821049e-003
3.133758e+003, -5.604031e-003
3.135687e+003, -5.959077e-003
3.137615e+003, -6.320144e-003
3.139544e+003, -6.607346e-003
3.141472e+003, -6.551060e-003
3.143401e+003, -6.006283e-003
3.145329e+003, -6.075068e-003
3.147258e+003, -6.165637e-003
3.149186e+003, -5.793701e-003
3.151115e+003, -5.906557e-003
3.153043e+003, -6.227662e-003
3.154971e+003, -6.096232e-003
3.156900e+003, -5.736124e-003
3.158828e+003, -5.989270e-003
3.160757e+003, -6.324832e-003
3.162685e+003, -6.078897e-003
3.164614e+003, -5.926576e-003
3.166542e+003, -6.291859e-003
3.168471e+003, -6.545044e-003
3.170399e+003, -6.013699e-003
3.172328e+003, -5.805572e-003
3.174256e+003, -6.225401e-003
3.176185e+003, -6.281923e-003
3.178113e+003, -6.319430e-003
3.180042e+003, -6.295737e-003
3.181970e+003, -6.223509e-003
3.183898e+003, -6.014553e-003
3.185827e+003, -6.340855e-003
3.187755e+003, -6.693763e-003
3.189684e+003, -6.373146e-003
3.191612e+003, -5.898962e-003
3.193541e+003, -6.300165e-003
3.195469e+003, -6.788530e-003
3.197398e+003, -6.296895e-003
3.199326e+003, -6.577290e-003
3.201255e+003, -6.497171e-003
3.203183e+003, -6.274838e-003
3.205112e+003, -6.218822e-003
3.207040e+003, -5.994528e-003
3.208969e+003, -5.602073e-003
3.210897e+003, -5.436690e-003
3.212825e+003, -6.122711e-003
3.214754e+003, -6.552681e-003
3.216682e+003, -6.304281e-003
3.218611e+003, -6.349190e-003
3.220539e+003, -6.525640e-003
3.222468e+003, -5.980155e-003
3.224396e+003, -5.581406e-003
3.226325e+003, -5.776535e-003
3.228253e+003, -5.981462e-003
3.230182e+003, -6.463394e-003
3.232110e+003, -6.597874e-003
3.234039e+003, -6.671401e-003
3.235967e+003, -6.530184e-003
3.237896e+003, -6.236278e-003
3.239824e+003, -6.188416e-003
3.241752e+003, -6.090988e-003
3.243681e+003, -6.109198e-003
3.245609e+003, -6.221012e-003
3.247538e+003, -6.487309e-003
3.249466e+003, -6.399464e-003
3.251395e+003, -6.061389e-003
3.253323e+003, -6.232992e-003
3.255252e+003, -5.967509e-003
3.257180e+003, -5.940890e-003
3.259109e+003, -6.178638e-003
3.261037e+003, -6.224195e-003
3.262966e+003, -5.737111e-003
3.264894e+003, -5.580986e-003
3.266823e+003, -5.676722e-003
3.268751e+003, -5.751094e-003
3.270679e+003, -6.133422e-003
3.272608e+003, -6.388954e-003
3.274536e+003, -6.396111e-003
3.276465e+003, -6.276820e-003
3.278393e+003, -6.102119e-003
3.280322e+003, -6.377473e-003
3.282250e+003, -6.543126e-003
3.284179e+003, -6.565969e-003
3.286107e+003, -6.468433e-003
3.288036e+003, -6.322060e-003
3.289964e+003, -6.423047e-003
3.291893e+003, -7.101326e-003
3.293821e+003, -6.797187e-003
3.295750e+003, -6.548624e-003
3.297678e+003, -6.664195e-003
3.299606e+003, -6.327503e-003
3.301535e+003, -6.155781e-003
3.303463e+003, -6.416385e-003
3.305392e+003, -6.373412e-003
3.307320e+003, -6.396374e-003
3.309249e+003, -6.954361e-003
3.311177e+003, -7.029967e-003
3.313106e+003, -6.689428e-003
3.315034e+003, -6.714792e-003
3.316963e+003, -7.355253e-003
3.318891e+003, -6.912265e-003
3.320820e+003, -6.443838e-003
3.322748e+003, -6.540466e-003
3.324677e+003, -6.356336e-003
3.326605e+003, -6.083184e-003
3.328533e+003, -6.631586e-003
3.330462e+003, -6.864258e-003
3.332390e+003, -6.600900e-003
3.334319e+003, -5.963911e-003
3.336247e+003, -6.116794e-003
3.338176e+003, -6.984264e-003
3.340104e+003, -7.328635e-003
3.342033e+003, -6.915288e-003
3.343961e+003, -6.658289e-003
3.345890e+003, -6.939683e-003
3.347818e+003, -6.874947e-003
3.349747e+003, -6.895974e-003
3.351675e+003, -6.659128e-003
3.353604e+003, -6.576515e-003
3.355532e+003, -6.783532e-003
3.357460e+003, -6.551161e-003
3.359389e+003, -6.578581e-003
3.361317e+003, -6.540046e-003
3.363246e+003, -6.362015e-003
3.365174e+003, -6.539544e-003
3.367103e+003, -6.558450e-003
3.369031e+003, -6.607143e-003
3.370960e+003, -6.705685e-003
3.372888e+003, -6.916364e-003
3.374817e+003, -6.932379e-003
3.376745e+003, -6.540921e-003
3.378674e+003, -6.606662e-003
3.380602e+003, -6.919553e-003
3.382531e+003, -7.188443e-003
3.384459e+003, -6.942387e-003
3.386387e+003, -6.683370e-003
3.388316e+003, -7.181660e-003
3.390244e+003, -7.586265e-003
3.392173e+003, -7.191496e-003
3.394101e+003, -6.582243e-003
3.396030e+003, -6.791232e-003
3.397958e+003, -7.190230e-003
3.399887e+003, -7.376844e-003
3.401815e+003, -7.479199e-003
3.403744e+003, -7.465987e-003
3.405672e+003, -7.195166e-003
3.407601e+003, -6.830940e-003
3.409529e+003, -7.209368e-003
3.411458e+003, -7.657731e-003
3.413386e+003, -8.127060e-003
3.415314e+003, -7.842882e-003
3.417243e+003, -6.950128e-003
3.419171e+003, -7.158172e-003
3.421100e+003, -7.331001e-003
3.423028e+003, -6.802051e-003
3.424957e+003, -6.931093e-003
3.426885e+003, -6.805401e-003
3.428814e+003, -6.792422e-003
3.430742e+003, -7.400192e-003
3.432671e+003, -7.488591e-003
3.434599e+003, -7.322997e-003
3.436528e+003, -7.559750e-003
3.438456e+003, -7.888422e-003
3.440385e+003, -7.687977e-003
3.442313e+003, -7.294562e-003
3.444241e+003, -6.666132e-003
3.446170e+003, -6.506874e-003
3.448098e+003, -6.581093e-003
3.450027e+003, -6.383017e-003
3.451955e+003, -5.861063e-003
3.453884e+003, -6.721013e-003
3.455812e+003, -7.155516e-003
3.457741e+003, -7.371056e-003
3.459669e+003, -7.697990e-003
3.461598e+003, -6.958278e-003
3.463526e+003, -6.036662e-003
3.465455e+003, -5.948583e-003
3.467383e+003, -6.642721e-003
3.469312e+003, -7.226918e-003
3.471240e+003, -7.324719e-003
3.473168e+003, -7.503119e-003
3.475097e+003, -7.877811e-003
3.477025e+003, -7.537336e-003
3.478954e+003, -7.346918e-003
3.480882e+003, -7.088751e-003
3.482811e+003, -6.961788e-003
3.484739e+003, -7.324224e-003
3.486668e+003, -7.480643e-003
3.488596e+003, -7.084743e-003
3.490525e+003, -6.749769e-003
3.492453e+003, -6.909756e-003
3.494382e+003, -6.773341e-003
3.496310e+003, -7.170456e-003
3.498239e+003, -7.586699e-003
3.500167e+003, -7.358962e-003
3.502095e+003, -7.388357e-003
3.504024e+003, -7.487088e-003
3.505952e+003, -7.633203e-003
3.507881e+003, -7.428340e-003
3.509809e+003, -6.956523e-003
3.511738e+003, -7.073787e-003
3.513666e+003, -7.573254e-003
3.515595e+003, -7.780286e-003
3.517523e+003, -7.317108e-003
3.519452e+003, -6.976916e-003
3.521380e+003, -7.063924e-003
3.523309e+003, -6.758254e-003
3.525237e+003, -6.873277e-003
3.527166e+003, -7.378551e-003
3.529094e+003, -7.643746e-003
3.531022e+003, -7.899627e-003
3.532951e+003, -8.128622e-003
3.534879e+003, -8.450888e-003
3.536808e+003, -8.359865e-003
3.538736e+003, -8.622859e-003
3.540665e+003, -8.569035e-003
3.542593e+003, -7.566196e-003
3.544522e+003, -7.223575e-003
3.546450e+003, -7.540148e-003
3.548379e+003, -7.408321e-003
3.550307e+003, -7.395893e-003
3.552236e+003, -7.840195e-003
3.554164e+003, -8.186105e-003
3.556093e+003, -8.105038e-003
3.558021e+003, -7.905171e-003
3.559949e+003, -7.881695e-003
3.561878e+003, -7.908196e-003
3.563806e+003, -8.405979e-003
3.565735e+003, -8.461681e-003
3.567663e+003, -8.258665e-003
3.569592e+003, -8.558320e-003
3.571520e+003, -8.428581e-003
3.573449e+003, -8.508653e-003
3.575377e+003, -8.684580e-003
3.577306e+003, -8.350410e-003
3.579234e+003, -8.288305e-003
3.581163e+003, -8.448950e-003
3.583091e+003, -8.136364e-003
3.585020e+003, -7.821233e-003
3.586948e+003, -7.899398e-003
3.588876e+003, -7.866298e-003
3.590805e+003, -8.668821e-003
3.592733e+003, -9.025892e-003
3.594662e+003, -8.338491e-003
3.596590e+003, -7.467396e-003
3.598519e+003, -7.874828e-003
3.600447e+003, -8.038263e-003
3.602376e+003, -7.879676e-003
3.604304e+003, -7.702374e-003
3.606233e+003, -7.716523e-003
3.608161e+003, -7.926136e-003
3.610090e+003, -8.355579e-003
3.612018e+003, -8.457574e-003
3.613947e+003, -7.714977e-003
3.615875e+003, -8.204517e-003
3.617803e+003, -9.240198e-003
3.619732e+003, -8.751112e-003
3.621660e+003, -8.236407e-003
3.623589e+003, -7.942802e-003
3.625517e+003, -7.681111e-003
3.627446e+003, -7.426761e-003
3.629374e+003, -7.465696e-003
3.631303e+003, -6.793347e-003
3.633231e+003, -6.244443e-003
3.635160e+003, -6.420555e-003
3.637088e+003, -6.288852e-003
3.639017e+003, -6.205875e-003
3.640945e+003, -6.445800e-003
3.642874e+003, -6.032189e-003
3.644802e+003, -4.779792e-003
3.646730e+003, -2.565590e-003
3.648659e+003, -8.202633e-004
3.650587e+003, -2.199293e-003
3.652516e+003, -4.854733e-003
3.654444e+003, -6.644239e-003
3.656373e+003, -7.519906e-003
3.658301e+003, -8.498270e-003
3.660230e+003, -9.373612e-003
3.662158e+003, -9.412737e-003
3.664087e+003, -9.090395e-003
3.666015e+003, -9.127101e-003
3.667944e+003, -9.104402e-003
3.669872e+003, -8.920487e-003
3.671801e+003, -8.151852e-003
3.673729e+003, -8.327632e-003
3.675657e+003, -9.509228e-003
3.677586e+003, -9.646038e-003
3.679514e+003, -9.170459e-003
3.681443e+003, -8.882637e-003
3.683371e+003, -9.265705e-003
3.685300e+003, -9.152357e-003
3.687228e+003, -9.190832e-003
3.689157e+003, -9.100524e-003
3.691085e+003, -9.620966e-003
3.693014e+003, -1.000085e-002
3.694942e+003, -9.621981e-003
3.696871e+003, -9.391299e-003
3.698799e+003, -9.450698e-003
3.700728e+003, -8.851543e-003
3.702656e+003, -8.514302e-003
3.704584e+003, -9.373840e-003
3.706513e+003, -9.573135e-003
3.708441e+003, -9.408118e-003
3.710370e+003, -9.113335e-003
3.712298e+003, -9.247150e-003
3.714227e+003, -8.936268e-003
3.716155e+003, -8.678651e-003
3.718084e+003, -8.765778e-003
3.720012e+003, -8.683933e-003
3.721941e+003, -8.029792e-003
3.723869e+003, -8.043555e-003
3.725798e+003, -8.421639e-003
3.727726e+003, -8.554309e-003
3.729655e+003, -8.889294e-003
3.731583e+003, -9.288348e-003
3.733511e+003, -8.768776e-003
3.735440e+003, -8.631771e-003
3.737368e+003, -8.572829e-003
3.739297e+003, -8.618464e-003
3.741225e+003, -8.693967e-003
3.743154e+003, -8.851951e-003
3.745082e+003, -9.286464e-003
3.747011e+003, -9.143895e-003
3.748939e+003, -8.345559e-003
3.750868e+003, -8.071294e-003
3.752796e+003, -8.693138e-003
3.754725e+003, -8.862585e-003
3.756653e+003, -8.927470e-003
3.758582e+003, -9.412947e-003
3.760510e+003, -9.417201e-003
3.762438e+003, -9.098779e-003
3.764367e+003, -9.457307e-003
3.766295e+003, -9.750511e-003
3.768224e+003, -9.152112e-003
3.770152e+003, -8.765491e-003
3.772081e+003, -8.748001e-003
3.774009e+003, -8.131490e-003
3.775938e+003, -7.409853e-003
3.777866e+003, -8.575245e-003
3.779795e+003, -9.660459e-003
3.781723e+003, -9.285692e-003
3.783652e+003, -8.983403e-003
3.785580e+003, -8.733994e-003
3.787509e+003, -8.814502e-003
3.789437e+003, -8.720228e-003
3.791365e+003, -8.516999e-003
3.793294e+003, -9.013191e-003
3.795222e+003, -9.040437e-003
3.797151e+003, -8.688421e-003
3.799079e+003, -8.254291e-003
3.801008e+003, -8.448607e-003
3.802936e+003, -9.078608e-003
3.804865e+003, -9.260135e-003
3.806793e+003, -9.652141e-003
3.808722e+003, -9.644632e-003
3.810650e+003, -9.026944e-003
3.812579e+003, -9.099000e-003
3.814507e+003, -9.287646e-003
3.816436e+003, -8.689299e-003
3.818364e+003, -8.342022e-003
3.820292e+003, -8.598896e-003
3.822221e+003, -9.128174e-003
3.824149e+003, -9.061486e-003
3.826078e+003, -9.062166e-003
3.828006e+003, -8.927998e-003
3.829935e+003, -8.951824e-003
3.831863e+003, -8.914803e-003
3.833792e+003, -8.696043e-003
3.835720e+003, -8.723699e-003
3.837649e+003, -8.724951e-003
3.839577e+003, -8.663541e-003
3.841506e+003, -8.879369e-003
3.843434e+003, -9.385643e-003
3.845363e+003, -9.721532e-003
3.847291e+003, -9.236010e-003
3.849219e+003, -8.676135e-003
3.851148e+003, -8.717564e-003
3.853076e+003, -9.077388e-003
3.855005e+003, -9.256502e-003
3.856933e+003, -9.477439e-003
3.858862e+003, -9.999829e-003
3.860790e+003, -9.832652e-003
3.862719e+003, -9.236264e-003
3.864647e+003, -8.619834e-003
3.866576e+003, -8.464305e-003
3.868504e+003, -8.637397e-003
3.870433e+003, -8.896735e-003
3.872361e+003, -9.133715e-003
3.874290e+003, -9.067030e-003
3.876218e+003, -9.324594e-003
3.878146e+003, -9.348806e-003
3.880075e+003, -9.062576e-003
3.882003e+003, -8.801611e-003
3.883932e+003, -9.299950e-003
3.885860e+003, -9.656538e-003
3.887789e+003, -9.379915e-003
3.889717e+003, -8.639238e-003
3.891646e+003, -8.493949e-003
3.893574e+003, -9.031300e-003
3.895503e+003, -9.273546e-003
3.897431e+003, -8.861071e-003
3.899360e+003, -8.868299e-003
3.901288e+003, -9.399187e-003
3.903217e+003, -9.206402e-003
3.905145e+003, -9.191919e-003
3.907073e+003, -9.376197e-003
3.909002e+003, -9.252028e-003
3.910930e+003, -9.445135e-003
3.912859e+003, -8.326322e-003
3.914787e+003, -8.226128e-003
3.916716e+003, -8.692349e-003
3.918644e+003, -9.059972e-003
3.920573e+003, -9.446478e-003
3.922501e+003, -8.785757e-003
3.924430e+003, -8.212885e-003
3.926358e+003, -8.336558e-003
3.928287e+003, -8.205940e-003
3.930215e+003, -8.635390e-003
3.932144e+003, -9.523492e-003
3.934072e+003, -9.057417e-003
3.936000e+003, -8.522765e-003
3.937929e+003, -8.610288e-003
3.939857e+003, -9.175410e-003
3.941786e+003, -9.389949e-003
3.943714e+003, -9.494212e-003
3.945643e+003, -8.964293e-003
3.947571e+003, -8.551981e-003
3.949500e+003, -8.302883e-003
3.951428e+003, -9.218097e-003
3.953357e+003, -9.678686e-003
3.955285e+003, -9.256423e-003
3.957214e+003, -8.738678e-003
3.959142e+003, -9.037224e-003
3.961071e+003, -9.026864e-003
3.962999e+003, -9.100230e-003
3.964927e+003, -9.191683e-003
3.966856e+003, -8.539587e-003
3.968784e+003, -8.794556e-003
3.970713e+003, -8.908520e-003
3.972641e+003, -8.360912e-003
3.974570e+003, -8.114621e-003
3.976498e+003, -8.562283e-003
3.978427e+003, -9.015102e-003
3.980355e+003, -9.166410e-003
3.982284e+003, -9.092217e-003
3.984212e+003, -8.930608e-003
3.986141e+003, -8.471807e-003
3.988069e+003, -8.552423e-003
3.989998e+003, -8.693236e-003
3.991926e+003, -8.916276e-003
3.993854e+003, -9.262456e-003
3.995783e+003, -9.450089e-003
3.997711e+003, -9.619449e-003
3.999640e+003, -9.401460e-003
##END=



