##NAMES=Topaz
##RRUFFID=R050199
##IDEAL CHEMISTRY=Al_2_SiO_4_F_2_
##LOCALITY=Madagascar
##OWNER=RRUFF
##SOURCE=Marcus Origlieri
##DESCRIPTION=Transparent colorless crystal fragment
##STATUS=The identification of this mineral has been confirmed by X-ray diffraction and chemical analysis
##URL=rruff.info/R050199
##MEASURED CHEMISTRY=Al_2.000_Si_1.000_O_4.000_(F_1.340_(OH)_0.660_)
5.014013e+001, 1.051336e-002
5.206860e+001, 7.286483e-003
5.399707e+001, 7.642567e-003
5.592553e+001, 1.108067e-002
5.785400e+001, 1.113874e-002
5.978246e+001, 1.701446e-002
6.171093e+001, 1.810744e-002
6.363940e+001, 1.455413e-002
6.556786e+001, 1.309690e-002
6.749633e+001, 1.225913e-002
6.942480e+001, 1.306223e-002
7.135326e+001, 1.466244e-002
7.328172e+001, 1.892447e-002
7.521019e+001, 1.905241e-002
7.713866e+001, 1.620069e-002
7.906712e+001, 1.575229e-002
8.099559e+001, 1.742333e-002
8.292406e+001, 1.787793e-002
8.485252e+001, 1.719225e-002
8.678099e+001, 1.730338e-002
8.870946e+001, 1.831247e-002
9.063792e+001, 1.936562e-002
9.256638e+001, 2.001132e-002
9.449485e+001, 2.052620e-002
9.642332e+001, 2.096007e-002
9.835178e+001, 2.160040e-002
1.002803e+002, 2.123981e-002
1.022087e+002, 2.081886e-002
1.041372e+002, 2.117039e-002
1.060657e+002, 2.221836e-002
1.079941e+002, 2.318485e-002
1.099226e+002, 2.365482e-002
1.118510e+002, 2.359753e-002
1.137795e+002, 2.358764e-002
1.157080e+002, 2.459712e-002
1.176364e+002, 2.527555e-002
1.195649e+002, 2.605616e-002
1.214934e+002, 2.643894e-002
1.234218e+002, 2.684540e-002
1.253503e+002, 2.724737e-002
1.272788e+002, 2.755361e-002
1.292072e+002, 2.805026e-002
1.311357e+002, 2.892964e-002
1.330642e+002, 2.936852e-002
1.349926e+002, 3.051490e-002
1.369211e+002, 3.173425e-002
1.388496e+002, 3.229517e-002
1.407780e+002, 3.255802e-002
1.427065e+002, 3.235717e-002
1.446350e+002, 3.248856e-002
1.465634e+002, 3.311080e-002
1.484919e+002, 3.369803e-002
1.504204e+002, 3.418005e-002
1.523488e+002, 3.464570e-002
1.542773e+002, 3.451350e-002
1.562058e+002, 3.457844e-002
1.581342e+002, 3.546276e-002
1.600627e+002, 3.603675e-002
1.619912e+002, 3.647635e-002
1.639196e+002, 3.657302e-002
1.658481e+002, 3.651192e-002
1.677766e+002, 3.747384e-002
1.697050e+002, 3.873741e-002
1.716335e+002, 3.972448e-002
1.735620e+002, 4.074840e-002
1.754904e+002, 4.274658e-002
1.774189e+002, 4.560787e-002
1.793474e+002, 4.605818e-002
1.812758e+002, 4.272621e-002
1.832043e+002, 3.969426e-002
1.851328e+002, 3.641489e-002
1.870612e+002, 3.579964e-002
1.889897e+002, 3.730056e-002
1.909182e+002, 3.818268e-002
1.928466e+002, 3.926657e-002
1.947751e+002, 4.046929e-002
1.967036e+002, 4.081438e-002
1.986320e+002, 4.106316e-002
2.005605e+002, 4.187535e-002
2.024890e+002, 4.252882e-002
2.044174e+002, 4.294209e-002
2.063459e+002, 4.337343e-002
2.082744e+002, 4.424686e-002
2.102028e+002, 4.572417e-002
2.121313e+002, 4.725872e-002
2.140598e+002, 4.732198e-002
2.159882e+002, 4.566351e-002
2.179167e+002, 4.521926e-002
2.198452e+002, 4.599778e-002
2.217736e+002, 4.686453e-002
2.237021e+002, 4.754782e-002
2.256305e+002, 4.787669e-002
2.275590e+002, 4.824334e-002
2.294875e+002, 4.883479e-002
2.314159e+002, 4.947291e-002
2.333444e+002, 4.979823e-002
2.352729e+002, 4.990131e-002
2.372013e+002, 5.037182e-002
2.391298e+002, 5.101930e-002
2.410583e+002, 5.163648e-002
2.429867e+002, 5.223051e-002
2.449152e+002, 5.293347e-002
2.468437e+002, 5.369399e-002
2.487721e+002, 5.491439e-002
2.507006e+002, 5.588326e-002
2.526291e+002, 5.655584e-002
2.545575e+002, 5.757735e-002
2.564860e+002, 5.852013e-002
2.584145e+002, 5.938582e-002
2.603429e+002, 6.033848e-002
2.622714e+002, 6.153071e-002
2.641999e+002, 6.269200e-002
2.661283e+002, 6.442671e-002
2.680568e+002, 6.604271e-002
2.699853e+002, 6.457084e-002
2.719137e+002, 5.708634e-002
2.738422e+002, 5.020617e-002
2.757707e+002, 5.038880e-002
2.776991e+002, 5.381316e-002
2.796276e+002, 5.670200e-002
2.815561e+002, 5.883494e-002
2.834845e+002, 6.084844e-002
2.854130e+002, 6.275743e-002
2.873415e+002, 6.462657e-002
2.892699e+002, 6.656656e-002
2.911984e+002, 6.838002e-002
2.931269e+002, 6.927518e-002
2.950553e+002, 6.669444e-002
2.969838e+002, 6.038219e-002
2.989123e+002, 5.597300e-002
3.008407e+002, 5.657502e-002
3.027692e+002, 6.002528e-002
3.046977e+002, 6.351862e-002
3.066261e+002, 6.654028e-002
3.085546e+002, 6.947686e-002
3.104831e+002, 7.028639e-002
3.124115e+002, 6.609685e-002
3.143400e+002, 5.844720e-002
3.162685e+002, 5.376917e-002
3.181969e+002, 5.483387e-002
3.201254e+002, 5.791675e-002
3.220539e+002, 6.069144e-002
3.239823e+002, 6.360007e-002
3.259108e+002, 6.625558e-002
3.278392e+002, 6.850010e-002
3.297677e+002, 7.110398e-002
3.316962e+002, 7.370659e-002
3.336246e+002, 7.546502e-002
3.355531e+002, 7.442148e-002
3.374816e+002, 6.931150e-002
3.394100e+002, 6.346200e-002
3.413385e+002, 6.049875e-002
3.432670e+002, 5.974527e-002
3.451954e+002, 6.077130e-002
3.471239e+002, 6.302959e-002
3.490524e+002, 6.538665e-002
3.509808e+002, 6.727195e-002
3.529093e+002, 6.895684e-002
3.548378e+002, 7.070637e-002
3.567662e+002, 7.234141e-002
3.586947e+002, 7.403751e-002
3.606232e+002, 7.580852e-002
3.625516e+002, 7.743000e-002
3.644801e+002, 7.886744e-002
3.664086e+002, 8.012849e-002
3.683370e+002, 8.006861e-002
3.702655e+002, 7.877473e-002
3.721940e+002, 7.792588e-002
3.741224e+002, 7.894810e-002
3.760509e+002, 8.030707e-002
3.779794e+002, 7.938642e-002
3.799078e+002, 7.689454e-002
3.818363e+002, 7.675422e-002
3.837648e+002, 7.936387e-002
3.856932e+002, 8.193754e-002
3.876217e+002, 8.368548e-002
3.895502e+002, 8.457182e-002
3.914786e+002, 8.445847e-002
3.934071e+002, 8.332144e-002
3.953356e+002, 8.122804e-002
3.972640e+002, 7.824018e-002
3.991925e+002, 7.513119e-002
4.011210e+002, 7.311200e-002
4.030494e+002, 7.283565e-002
4.049779e+002, 7.405933e-002
4.069064e+002, 7.634877e-002
4.088348e+002, 7.898785e-002
4.107633e+002, 8.165225e-002
4.126917e+002, 8.397522e-002
4.146202e+002, 8.595841e-002
4.165487e+002, 8.818550e-002
4.184771e+002, 9.041984e-002
4.204056e+002, 9.123985e-002
4.223341e+002, 8.945545e-002
4.242625e+002, 8.830915e-002
4.261910e+002, 9.029379e-002
4.281195e+002, 9.314089e-002
4.300479e+002, 9.542365e-002
4.319764e+002, 9.739994e-002
4.339049e+002, 9.887607e-002
4.358333e+002, 9.979256e-002
4.377618e+002, 1.004620e-001
4.396903e+002, 1.011086e-001
4.416187e+002, 1.018569e-001
4.435472e+002, 1.025419e-001
4.454757e+002, 1.030917e-001
4.474041e+002, 1.037271e-001
4.493326e+002, 1.042114e-001
4.512611e+002, 1.041281e-001
4.531895e+002, 1.029898e-001
4.551180e+002, 1.017861e-001
4.570465e+002, 1.003676e-001
4.589749e+002, 9.813444e-002
4.609034e+002, 9.482355e-002
4.628319e+002, 9.138814e-002
4.647603e+002, 8.855367e-002
4.666888e+002, 8.548846e-002
4.686173e+002, 8.224780e-002
4.705457e+002, 8.046658e-002
4.724742e+002, 8.194792e-002
4.744027e+002, 8.581275e-002
4.763311e+002, 9.042750e-002
4.782596e+002, 9.371429e-002
4.801881e+002, 9.459370e-002
4.821165e+002, 9.393296e-002
4.840450e+002, 9.111684e-002
4.859735e+002, 8.665947e-002
4.879019e+002, 8.248779e-002
4.898304e+002, 7.987993e-002
4.917589e+002, 7.890455e-002
4.936873e+002, 7.826437e-002
4.956158e+002, 7.778054e-002
4.975443e+002, 7.757425e-002
4.994727e+002, 7.761987e-002
5.014012e+002, 7.792543e-002
5.033297e+002, 7.866488e-002
5.052581e+002, 7.942810e-002
5.071866e+002, 7.983554e-002
5.091151e+002, 7.930393e-002
5.110435e+002, 7.856674e-002
5.129720e+002, 7.801390e-002
5.149005e+002, 7.765196e-002
5.168289e+002, 7.763389e-002
5.187574e+002, 7.830191e-002
5.206859e+002, 7.915100e-002
5.226143e+002, 8.019041e-002
5.245428e+002, 8.064029e-002
5.264713e+002, 7.938900e-002
5.283997e+002, 7.664583e-002
5.303282e+002, 7.376264e-002
5.322567e+002, 7.101493e-002
5.341851e+002, 6.877015e-002
5.361136e+002, 6.679732e-002
5.380421e+002, 6.518037e-002
5.399705e+002, 6.377275e-002
5.418990e+002, 6.246089e-002
5.438275e+002, 6.144215e-002
5.457559e+002, 6.064503e-002
5.476844e+002, 6.026726e-002
5.496129e+002, 6.046957e-002
5.515413e+002, 6.152910e-002
5.534698e+002, 6.378309e-002
5.553983e+002, 6.727646e-002
5.573267e+002, 7.018749e-002
5.592552e+002, 7.104214e-002
5.611837e+002, 7.056609e-002
5.631121e+002, 6.967746e-002
5.650406e+002, 6.863178e-002
5.669691e+002, 6.669362e-002
5.688975e+002, 6.380562e-002
5.708260e+002, 6.083350e-002
5.727545e+002, 5.955471e-002
5.746829e+002, 6.097332e-002
5.766114e+002, 6.437600e-002
5.785399e+002, 6.926702e-002
5.804683e+002, 7.432990e-002
5.823968e+002, 7.775944e-002
5.843253e+002, 7.880157e-002
5.862537e+002, 7.833638e-002
5.881822e+002, 7.769869e-002
5.901107e+002, 7.810480e-002
5.920391e+002, 8.048822e-002
5.939676e+002, 8.486634e-002
5.958961e+002, 9.008807e-002
5.978245e+002, 9.495013e-002
5.997530e+002, 9.924988e-002
6.016815e+002, 1.032896e-001
6.036099e+002, 1.065404e-001
6.055384e+002, 1.087509e-001
6.074669e+002, 1.106213e-001
6.093953e+002, 1.132495e-001
6.113238e+002, 1.155492e-001
6.132523e+002, 1.162469e-001
6.151807e+002, 1.164891e-001
6.171091e+002, 1.164543e-001
6.190376e+002, 1.152349e-001
6.209661e+002, 1.137829e-001
6.228945e+002, 1.119709e-001
6.248230e+002, 1.094903e-001
6.267515e+002, 1.073706e-001
6.286799e+002, 1.059674e-001
6.306084e+002, 1.048217e-001
6.325369e+002, 1.029643e-001
6.344653e+002, 1.006179e-001
6.363938e+002, 9.824409e-002
6.383223e+002, 9.547030e-002
6.402507e+002, 9.310827e-002
6.421792e+002, 9.076937e-002
6.441077e+002, 8.875889e-002
6.460361e+002, 8.689920e-002
6.479646e+002, 8.448814e-002
6.498931e+002, 8.178242e-002
6.518215e+002, 7.920843e-002
6.537500e+002, 7.692923e-002
6.556785e+002, 7.455902e-002
6.576069e+002, 7.226775e-002
6.595354e+002, 7.003499e-002
6.614639e+002, 6.767911e-002
6.633923e+002, 6.522489e-002
6.653208e+002, 6.284407e-002
6.672493e+002, 6.043032e-002
6.691777e+002, 5.834876e-002
6.711062e+002, 5.646016e-002
6.730347e+002, 5.451084e-002
6.749631e+002, 5.219943e-002
6.768916e+002, 5.088733e-002
6.788201e+002, 5.045537e-002
6.807485e+002, 4.929269e-002
6.826770e+002, 4.818990e-002
6.846055e+002, 4.651896e-002
6.865339e+002, 4.521616e-002
6.884624e+002, 4.456733e-002
6.903909e+002, 4.483235e-002
6.923193e+002, 4.519052e-002
6.942478e+002, 4.521598e-002
6.961763e+002, 4.503378e-002
6.981047e+002, 4.486466e-002
7.000332e+002, 4.569202e-002
##END=



