##NAMES=Topaz
##RRUFFID=R050200
##IDEAL CHEMISTRY=Al_2_SiO_4_F_2_
##LOCALITY=Jos Plateau, Nigeria
##OWNER=RRUFF
##SOURCE=Marcus Origlieri
##DESCRIPTION=Colorless water-worn single crystal
##STATUS=The identification of this mineral has been confirmed by X-ray diffraction and chemical analysis
##URL=rruff.info/R050200
##MEASURED CHEMISTRY=Al_2.000_Si_1.000_O_4.000_F_1.488_(OH)_0.512_
3.741225e+002, 2.510409e-001
3.760510e+002, 2.651286e-001
3.779795e+002, 2.714831e-001
3.799079e+002, 2.446228e-001
3.818364e+002, 2.259438e-001
3.837649e+002, 2.459009e-001
3.856933e+002, 2.489038e-001
3.876218e+002, 2.475369e-001
3.895503e+002, 2.530627e-001
3.914787e+002, 2.497021e-001
3.934072e+002, 2.474391e-001
3.953357e+002, 2.340050e-001
3.972641e+002, 2.241266e-001
3.991926e+002, 2.186103e-001
4.011211e+002, 2.101787e-001
4.030495e+002, 2.066819e-001
4.049780e+002, 2.118616e-001
4.069065e+002, 2.289514e-001
4.088349e+002, 2.452495e-001
4.107634e+002, 2.620683e-001
4.126919e+002, 2.682053e-001
4.146203e+002, 2.651373e-001
4.165488e+002, 2.691165e-001
4.184773e+002, 2.744547e-001
4.204057e+002, 2.707208e-001
4.223342e+002, 2.649740e-001
4.242627e+002, 2.653621e-001
4.261911e+002, 2.718804e-001
4.281196e+002, 2.732136e-001
4.300481e+002, 2.781101e-001
4.319765e+002, 2.790309e-001
4.339050e+002, 2.762412e-001
4.358335e+002, 2.731712e-001
4.377619e+002, 2.703107e-001
4.396904e+002, 2.679569e-001
4.416189e+002, 2.702180e-001
4.435473e+002, 2.708489e-001
4.454758e+002, 2.692944e-001
4.474043e+002, 2.662688e-001
4.493327e+002, 2.619097e-001
4.512612e+002, 2.542377e-001
4.531897e+002, 2.456725e-001
4.551181e+002, 2.356171e-001
4.570466e+002, 2.245504e-001
4.589751e+002, 2.133115e-001
4.609035e+002, 2.017000e-001
4.628320e+002, 1.928892e-001
4.647605e+002, 1.879358e-001
4.666889e+002, 1.805571e-001
4.686174e+002, 1.737956e-001
4.705459e+002, 1.780461e-001
4.724743e+002, 1.941155e-001
4.744028e+002, 2.113797e-001
4.763313e+002, 2.215133e-001
4.782597e+002, 2.242853e-001
4.801882e+002, 2.209216e-001
4.821167e+002, 2.106750e-001
4.840451e+002, 1.928514e-001
4.859736e+002, 1.730916e-001
4.879021e+002, 1.612870e-001
4.898305e+002, 1.584364e-001
4.917590e+002, 1.601373e-001
4.936875e+002, 1.610739e-001
4.956159e+002, 1.616264e-001
4.975444e+002, 1.627821e-001
4.994729e+002, 1.648596e-001
5.014013e+002, 1.668710e-001
5.033298e+002, 1.675231e-001
5.052583e+002, 1.678666e-001
5.071867e+002, 1.677902e-001
5.091152e+002, 1.652908e-001
5.110437e+002, 1.628163e-001
5.129721e+002, 1.622178e-001
5.149006e+002, 1.620202e-001
5.168290e+002, 1.631407e-001
5.187575e+002, 1.651511e-001
5.206860e+002, 1.681031e-001
5.226144e+002, 1.701577e-001
5.245429e+002, 1.689973e-001
5.264714e+002, 1.631590e-001
5.283998e+002, 1.530873e-001
5.303283e+002, 1.412299e-001
5.322568e+002, 1.315818e-001
5.341852e+002, 1.258343e-001
5.361137e+002, 1.221470e-001
5.380422e+002, 1.186498e-001
5.399706e+002, 1.157957e-001
5.418991e+002, 1.137511e-001
5.438276e+002, 1.123261e-001
5.457560e+002, 1.114189e-001
5.476845e+002, 1.127055e-001
5.496130e+002, 1.177254e-001
5.515414e+002, 1.280632e-001
5.534699e+002, 1.432448e-001
5.553984e+002, 1.572645e-001
5.573268e+002, 1.622815e-001
5.592553e+002, 1.583228e-001
5.611838e+002, 1.533275e-001
5.631122e+002, 1.499564e-001
5.650407e+002, 1.460775e-001
5.669692e+002, 1.388638e-001
5.688976e+002, 1.283662e-001
5.708261e+002, 1.185473e-001
5.727546e+002, 1.144488e-001
5.746830e+002, 1.199305e-001
5.766115e+002, 1.351773e-001
5.785400e+002, 1.568190e-001
5.804684e+002, 1.783381e-001
5.823969e+002, 1.921468e-001
5.843254e+002, 1.969191e-001
5.862538e+002, 1.975095e-001
5.881823e+002, 1.967169e-001
5.901108e+002, 1.991767e-001
5.920392e+002, 2.113028e-001
5.939677e+002, 2.329114e-001
5.958962e+002, 2.557458e-001
5.978246e+002, 2.747235e-001
5.997531e+002, 2.896589e-001
6.016816e+002, 3.009976e-001
6.036100e+002, 3.081467e-001
6.055385e+002, 3.122420e-001
6.074670e+002, 3.131342e-001
6.093954e+002, 3.111985e-001
6.113239e+002, 3.062574e-001
6.132524e+002, 2.983272e-001
6.151808e+002, 2.875504e-001
6.171093e+002, 2.755502e-001
6.190378e+002, 2.619888e-001
6.209662e+002, 2.476913e-001
6.228947e+002, 2.339102e-001
6.248232e+002, 2.204319e-001
6.267516e+002, 2.078123e-001
6.286801e+002, 1.962913e-001
6.306086e+002, 1.855715e-001
6.325370e+002, 1.759972e-001
6.344655e+002, 1.670981e-001
6.363940e+002, 1.588385e-001
6.383224e+002, 1.509886e-001
6.402509e+002, 1.434586e-001
6.421794e+002, 1.359593e-001
6.441078e+002, 1.289880e-001
6.460363e+002, 1.224683e-001
6.479648e+002, 1.161832e-001
6.498932e+002, 1.100779e-001
6.518217e+002, 1.040690e-001
6.537502e+002, 9.816906e-002
6.556786e+002, 9.268627e-002
6.576071e+002, 8.701237e-002
6.595356e+002, 8.174457e-002
6.614641e+002, 7.669533e-002
6.633925e+002, 7.134579e-002
6.653210e+002, 6.620909e-002
6.672495e+002, 6.125171e-002
6.691779e+002, 5.618404e-002
6.711064e+002, 5.160053e-002
6.730349e+002, 4.763206e-002
6.749633e+002, 4.456287e-002
6.768918e+002, 4.244283e-002
6.788203e+002, 4.091865e-002
6.807487e+002, 3.930443e-002
6.826772e+002, 3.694006e-002
6.846057e+002, 3.423144e-002
6.865341e+002, 3.159637e-002
6.884626e+002, 2.949293e-002
6.903911e+002, 2.828551e-002
6.923195e+002, 2.786254e-002
6.942480e+002, 2.779678e-002
6.961765e+002, 2.812103e-002
6.981049e+002, 2.921106e-002
7.000334e+002, 3.146443e-002
7.019619e+002, 3.487969e-002
7.038903e+002, 3.926260e-002
7.058188e+002, 4.273761e-002
7.077473e+002, 4.362208e-002
7.096757e+002, 4.120301e-002
7.116042e+002, 3.668005e-002
7.135327e+002, 3.213672e-002
7.154611e+002, 2.869619e-002
7.173896e+002, 2.628973e-002
7.193181e+002, 2.472690e-002
7.212465e+002, 2.373630e-002
7.231750e+002, 2.319598e-002
7.251035e+002, 2.287388e-002
7.270319e+002, 2.256466e-002
7.289604e+002, 2.236770e-002
7.308889e+002, 2.200405e-002
7.328173e+002, 2.196974e-002
7.347458e+002, 2.237939e-002
7.366743e+002, 2.272674e-002
7.386027e+002, 2.298690e-002
7.405312e+002, 2.325081e-002
7.424597e+002, 2.363892e-002
7.443881e+002, 2.404363e-002
7.463166e+002, 2.481162e-002
7.482451e+002, 2.568752e-002
7.501735e+002, 2.633481e-002
7.521020e+002, 2.726682e-002
7.540305e+002, 2.837011e-002
7.559589e+002, 2.962007e-002
7.578874e+002, 3.107334e-002
7.598159e+002, 3.287514e-002
7.617443e+002, 3.499843e-002
7.636728e+002, 3.757878e-002
7.656013e+002, 4.056994e-002
7.675297e+002, 4.383829e-002
7.694582e+002, 4.669876e-002
7.713867e+002, 4.838959e-002
7.733151e+002, 4.921927e-002
7.752436e+002, 5.001598e-002
7.771721e+002, 5.138296e-002
7.791005e+002, 5.384640e-002
7.810290e+002, 5.714164e-002
7.829575e+002, 6.110367e-002
7.848859e+002, 6.565099e-002
7.868144e+002, 7.109318e-002
7.887429e+002, 7.734657e-002
7.906713e+002, 8.415479e-002
7.925998e+002, 9.181245e-002
7.945283e+002, 1.003883e-001
7.964567e+002, 1.097298e-001
7.983852e+002, 1.198319e-001
8.003137e+002, 1.305976e-001
8.022421e+002, 1.418400e-001
8.041706e+002, 1.532796e-001
8.060991e+002, 1.652587e-001
8.080275e+002, 1.773837e-001
8.099560e+002, 1.894887e-001
8.118845e+002, 2.017341e-001
8.138129e+002, 2.137789e-001
8.157414e+002, 2.254806e-001
8.176699e+002, 2.373399e-001
8.195983e+002, 2.487537e-001
8.215268e+002, 2.601067e-001
8.234553e+002, 2.718682e-001
8.253837e+002, 2.829868e-001
8.273122e+002, 2.931521e-001
8.292407e+002, 3.035457e-001
8.311691e+002, 3.135317e-001
8.330976e+002, 3.228030e-001
8.350261e+002, 3.318670e-001
8.369545e+002, 3.403888e-001
8.388830e+002, 3.473734e-001
8.408115e+002, 3.533348e-001
8.427399e+002, 3.587506e-001
8.446684e+002, 3.626016e-001
8.465969e+002, 3.654812e-001
8.485253e+002, 3.675614e-001
8.504538e+002, 3.691321e-001
8.523823e+002, 3.711569e-001
8.543107e+002, 3.719960e-001
8.562392e+002, 3.712778e-001
8.581677e+002, 3.699097e-001
8.600961e+002, 3.672094e-001
8.620246e+002, 3.636196e-001
8.639531e+002, 3.595465e-001
8.658815e+002, 3.544527e-001
8.678100e+002, 3.482087e-001
8.697385e+002, 3.409470e-001
8.716669e+002, 3.327994e-001
8.735954e+002, 3.240426e-001
8.755239e+002, 3.152266e-001
8.774523e+002, 3.055373e-001
8.793808e+002, 2.953783e-001
8.813093e+002, 2.849588e-001
8.832377e+002, 2.743393e-001
8.851662e+002, 2.643561e-001
8.870947e+002, 2.551262e-001
8.890231e+002, 2.470230e-001
8.909516e+002, 2.406924e-001
8.928801e+002, 2.354642e-001
8.948085e+002, 2.308449e-001
8.967370e+002, 2.261378e-001
8.986655e+002, 2.207889e-001
9.005939e+002, 2.150732e-001
9.025224e+002, 2.093877e-001
9.044509e+002, 2.037309e-001
9.063793e+002, 1.986193e-001
9.083078e+002, 1.940123e-001
9.102363e+002, 1.898124e-001
9.121647e+002, 1.861491e-001
9.140932e+002, 1.829879e-001
9.160217e+002, 1.795162e-001
9.179501e+002, 1.754958e-001
9.198786e+002, 1.709200e-001
9.218071e+002, 1.658246e-001
9.237355e+002, 1.609901e-001
9.256640e+002, 1.564934e-001
9.275925e+002, 1.525971e-001
9.295209e+002, 1.494504e-001
9.314494e+002, 1.473237e-001
9.333779e+002, 1.462194e-001
9.353063e+002, 1.451837e-001
9.372348e+002, 1.435202e-001
9.391633e+002, 1.407300e-001
9.410917e+002, 1.365141e-001
9.430202e+002, 1.314701e-001
9.449487e+002, 1.260921e-001
9.468771e+002, 1.206588e-001
9.488056e+002, 1.155274e-001
9.507341e+002, 1.109708e-001
9.526625e+002, 1.067399e-001
9.545910e+002, 1.027581e-001
9.565195e+002, 9.893767e-002
9.584479e+002, 9.519163e-002
9.603764e+002, 9.162495e-002
9.623049e+002, 8.811522e-002
9.642333e+002, 8.483791e-002
9.661618e+002, 8.144896e-002
9.680903e+002, 7.794970e-002
9.700187e+002, 7.445557e-002
9.719472e+002, 7.112173e-002
9.738757e+002, 6.791296e-002
9.758041e+002, 6.488465e-002
9.777326e+002, 6.220873e-002
9.796611e+002, 6.015153e-002
9.815895e+002, 5.869083e-002
9.835180e+002, 5.762001e-002
9.854465e+002, 5.699017e-002
9.873749e+002, 5.695876e-002
9.893034e+002, 5.772935e-002
9.912319e+002, 5.945192e-002
9.931603e+002, 6.186097e-002
9.950888e+002, 6.495427e-002
9.970173e+002, 6.809629e-002
9.989457e+002, 7.050321e-002
1.000874e+003, 7.158151e-002
1.002803e+003, 7.085186e-002
1.004731e+003, 6.892956e-002
1.006660e+003, 6.626785e-002
1.008588e+003, 6.303493e-002
1.010517e+003, 5.953322e-002
1.012445e+003, 5.593206e-002
1.014373e+003, 5.256455e-002
1.016302e+003, 4.927496e-002
1.018230e+003, 4.618245e-002
1.020159e+003, 4.333375e-002
1.022087e+003, 4.068638e-002
1.024016e+003, 3.836953e-002
1.025944e+003, 3.629893e-002
1.027873e+003, 3.450571e-002
1.029801e+003, 3.293206e-002
1.031730e+003, 3.124544e-002
1.033658e+003, 2.945982e-002
1.035587e+003, 2.783082e-002
1.037515e+003, 2.654927e-002
1.039443e+003, 2.534287e-002
1.041372e+003, 2.393684e-002
1.043300e+003, 2.271913e-002
1.045229e+003, 2.164712e-002
1.047157e+003, 2.042997e-002
1.049086e+003, 1.955100e-002
1.051014e+003, 1.878097e-002
1.052943e+003, 1.798917e-002
1.054871e+003, 1.719761e-002
1.056800e+003, 1.647961e-002
1.058728e+003, 1.599317e-002
1.060657e+003, 1.558366e-002
1.062585e+003, 1.525800e-002
1.064514e+003, 1.492317e-002
1.066442e+003, 1.454291e-002
1.068370e+003, 1.404618e-002
1.070299e+003, 1.352935e-002
1.072227e+003, 1.314284e-002
1.074156e+003, 1.272516e-002
1.076084e+003, 1.232098e-002
1.078013e+003, 1.182005e-002
1.079941e+003, 1.154149e-002
1.081870e+003, 1.119607e-002
1.083798e+003, 1.078320e-002
1.085727e+003, 1.051146e-002
1.087655e+003, 1.034699e-002
1.089584e+003, 1.029169e-002
1.091512e+003, 1.009737e-002
1.093441e+003, 1.006632e-002
1.095369e+003, 1.015756e-002
1.097297e+003, 1.007373e-002
1.099226e+003, 9.934897e-003
1.101154e+003, 9.746041e-003
1.103083e+003, 9.509536e-003
1.105011e+003, 9.430161e-003
1.106940e+003, 9.503408e-003
1.108868e+003, 9.520946e-003
1.110797e+003, 9.419465e-003
1.112725e+003, 9.198661e-003
1.114654e+003, 9.157024e-003
1.116582e+003, 9.063737e-003
1.118511e+003, 8.878829e-003
1.120439e+003, 8.491241e-003
1.122368e+003, 8.061351e-003
1.124296e+003, 7.897091e-003
1.126224e+003, 8.084063e-003
1.128153e+003, 8.216838e-003
1.130081e+003, 7.980644e-003
1.132010e+003, 7.726731e-003
1.133938e+003, 7.726471e-003
1.135867e+003, 7.681361e-003
1.137795e+003, 7.665122e-003
1.139724e+003, 7.700636e-003
1.141652e+003, 7.664503e-003
1.143581e+003, 7.838719e-003
1.145509e+003, 7.977705e-003
1.147438e+003, 8.321872e-003
1.149366e+003, 8.809057e-003
1.151295e+003, 9.520816e-003
1.153223e+003, 1.080668e-002
1.155151e+003, 1.271377e-002
1.157080e+003, 1.548073e-002
1.159008e+003, 1.935999e-002
1.160937e+003, 2.374324e-002
1.162865e+003, 2.695233e-002
1.164794e+003, 2.734144e-002
1.166722e+003, 2.445312e-002
1.168651e+003, 1.974766e-002
1.170579e+003, 1.530298e-002
1.172508e+003, 1.182303e-002
1.174436e+003, 9.209748e-003
1.176365e+003, 7.438224e-003
1.178293e+003, 6.284883e-003
1.180222e+003, 5.525193e-003
1.182150e+003, 5.057842e-003
1.184078e+003, 4.698876e-003
1.186007e+003, 4.240114e-003
1.187935e+003, 3.940032e-003
1.189864e+003, 3.754999e-003
1.191792e+003, 3.411514e-003
1.193721e+003, 3.161393e-003
1.195649e+003, 2.993284e-003
1.197578e+003, 2.904071e-003
1.199506e+003, 2.835673e-003
1.201435e+003, 2.599559e-003
1.203363e+003, 2.350685e-003
1.205292e+003, 2.412119e-003
1.207220e+003, 2.377663e-003
1.209149e+003, 2.157723e-003
1.211077e+003, 1.856182e-003
1.213005e+003, 1.698214e-003
1.214934e+003, 1.640561e-003
1.216862e+003, 1.544873e-003
1.218791e+003, 1.540132e-003
1.220719e+003, 1.457127e-003
1.222648e+003, 1.349658e-003
1.224576e+003, 1.255248e-003
1.226505e+003, 1.101339e-003
1.228433e+003, 9.736932e-004
1.230362e+003, 1.044142e-003
1.232290e+003, 1.132044e-003
1.234219e+003, 1.038483e-003
1.236147e+003, 1.008158e-003
1.238076e+003, 9.332356e-004
1.240004e+003, 7.576850e-004
1.241932e+003, 6.885476e-004
1.243861e+003, 6.717304e-004
1.245789e+003, 6.698993e-004
1.247718e+003, 5.619851e-004
1.249646e+003, 4.115289e-004
1.251575e+003, 4.611182e-004
1.253503e+003, 5.806244e-004
1.255432e+003, 4.954768e-004
1.257360e+003, 3.702229e-004
1.259289e+003, 3.243024e-004
1.261217e+003, 2.671666e-004
1.263146e+003, 1.627172e-004
1.265074e+003, 2.035787e-004
1.267003e+003, 3.503295e-004
1.268931e+003, 3.541697e-004
1.270859e+003, 2.504999e-004
1.272788e+003, 2.873598e-004
1.274716e+003, 4.075493e-004
1.276645e+003, 2.737246e-004
1.278573e+003, 8.431374e-005
1.280502e+003, 2.570269e-004
1.282430e+003, 4.548104e-004
1.284359e+003, 4.086748e-004
1.286287e+003, 2.972853e-004
1.288216e+003, 1.893804e-004
1.290144e+003, 1.553555e-004
1.292073e+003, 1.624222e-004
1.294001e+003, 1.914278e-004
1.295930e+003, 4.885281e-005
1.297858e+003, 2.414022e-005
1.299786e+003, 1.958138e-004
1.301715e+003, 3.940309e-004
1.303643e+003, 4.625530e-004
1.305572e+003, 3.320581e-004
1.307500e+003, 2.211871e-004
1.309429e+003, 3.307522e-004
1.311357e+003, 4.561864e-004
1.313286e+003, 4.285819e-004
1.315214e+003, 3.231483e-004
1.317143e+003, 4.253162e-004
1.319071e+003, 4.113157e-004
1.321000e+003, 4.451938e-004
1.322928e+003, 4.183274e-004
1.324857e+003, 3.410421e-004
1.326785e+003, 3.978299e-004
1.328714e+003, 2.632974e-004
1.330642e+003, 3.170416e-004
1.332570e+003, 5.629405e-004
1.334499e+003, 6.184485e-004
1.336427e+003, 4.923907e-004
1.338356e+003, 5.386252e-004
1.340284e+003, 6.184262e-004
1.342213e+003, 5.909470e-004
1.344141e+003, 5.741737e-004
1.346070e+003, 5.921302e-004
1.347998e+003, 5.943541e-004
1.349927e+003, 4.951349e-004
1.351855e+003, 4.895536e-004
1.353784e+003, 5.316794e-004
1.355712e+003, 5.572878e-004
1.357641e+003, 6.456524e-004
1.359569e+003, 6.291979e-004
1.361497e+003, 6.578995e-004
1.363426e+003, 7.574662e-004
1.365354e+003, 7.845270e-004
1.367283e+003, 6.881950e-004
1.369211e+003, 6.821622e-004
1.371140e+003, 7.490198e-004
1.373068e+003, 8.588973e-004
1.374997e+003, 9.711541e-004
1.376925e+003, 1.070169e-003
1.378854e+003, 1.120356e-003
1.380782e+003, 1.024291e-003
1.382711e+003, 1.050083e-003
1.384639e+003, 1.136566e-003
1.386568e+003, 1.221505e-003
1.388496e+003, 1.194569e-003
1.390424e+003, 1.266018e-003
1.392353e+003, 1.460207e-003
1.394281e+003, 1.496446e-003
1.396210e+003, 1.478382e-003
1.398138e+003, 1.692024e-003
1.400067e+003, 1.775159e-003
1.401995e+003, 1.721414e-003
1.403924e+003, 1.858789e-003
1.405852e+003, 2.019701e-003
1.407781e+003, 2.302856e-003
1.409709e+003, 2.567115e-003
1.411638e+003, 2.692656e-003
1.413566e+003, 2.700750e-003
1.415495e+003, 2.829747e-003
1.417423e+003, 3.245243e-003
1.419351e+003, 3.523965e-003
1.421280e+003, 3.756269e-003
1.423208e+003, 4.079078e-003
1.425137e+003, 4.293681e-003
1.427065e+003, 4.425480e-003
1.428994e+003, 4.755095e-003
1.430922e+003, 4.976726e-003
1.432851e+003, 5.006593e-003
1.434779e+003, 5.214781e-003
1.436708e+003, 5.421223e-003
1.438636e+003, 5.606282e-003
1.440565e+003, 5.587209e-003
1.442493e+003, 5.518352e-003
1.444422e+003, 5.581106e-003
1.446350e+003, 5.777489e-003
1.448278e+003, 6.071039e-003
1.450207e+003, 6.250405e-003
1.452135e+003, 6.203125e-003
1.454064e+003, 6.161782e-003
1.455992e+003, 6.319915e-003
1.457921e+003, 6.316035e-003
1.459849e+003, 6.264886e-003
1.461778e+003, 6.286758e-003
1.463706e+003, 6.203021e-003
1.465635e+003, 6.252238e-003
1.467563e+003, 6.150869e-003
1.469492e+003, 6.008877e-003
1.471420e+003, 6.074736e-003
1.473349e+003, 6.064804e-003
1.475277e+003, 5.836516e-003
1.477205e+003, 5.657216e-003
1.479134e+003, 5.439377e-003
1.481062e+003, 5.499920e-003
1.482991e+003, 5.495880e-003
1.484919e+003, 5.175155e-003
1.486848e+003, 5.027049e-003
1.488776e+003, 5.045401e-003
1.490705e+003, 4.836127e-003
1.492633e+003, 4.642010e-003
1.494562e+003, 4.588159e-003
1.496490e+003, 4.447236e-003
1.498419e+003, 4.073411e-003
1.500347e+003, 3.825031e-003
1.502276e+003, 3.757503e-003
1.504204e+003, 3.668896e-003
1.506132e+003, 3.668834e-003
1.508061e+003, 3.526718e-003
1.509989e+003, 3.251511e-003
1.511918e+003, 2.951103e-003
1.513846e+003, 2.713669e-003
1.515775e+003, 2.623232e-003
1.517703e+003, 2.519748e-003
1.519632e+003, 2.492525e-003
1.521560e+003, 2.476354e-003
1.523489e+003, 2.242258e-003
1.525417e+003, 2.045568e-003
1.527346e+003, 1.983183e-003
1.529274e+003, 2.030211e-003
1.531203e+003, 1.868828e-003
1.533131e+003, 1.794776e-003
1.535059e+003, 1.833549e-003
1.536988e+003, 1.946678e-003
1.538916e+003, 2.163019e-003
1.540845e+003, 2.162097e-003
1.542773e+003, 2.029428e-003
1.544702e+003, 1.919862e-003
1.546630e+003, 1.771592e-003
1.548559e+003, 1.796230e-003
1.550487e+003, 1.980173e-003
1.552416e+003, 1.775182e-003
1.554344e+003, 1.708150e-003
1.556273e+003, 1.828408e-003
1.558201e+003, 2.075536e-003
1.560130e+003, 2.066490e-003
1.562058e+003, 1.902267e-003
1.563986e+003, 1.874740e-003
1.565915e+003, 1.856038e-003
1.567843e+003, 1.940740e-003
1.569772e+003, 2.040731e-003
1.571700e+003, 1.901918e-003
1.573629e+003, 1.909585e-003
1.575557e+003, 2.034283e-003
1.577486e+003, 2.026504e-003
1.579414e+003, 1.885503e-003
1.581343e+003, 1.808848e-003
1.583271e+003, 1.918630e-003
1.585200e+003, 2.017208e-003
1.587128e+003, 2.047358e-003
1.589057e+003, 2.006229e-003
1.590985e+003, 1.995295e-003
1.592913e+003, 1.953364e-003
1.594842e+003, 1.981491e-003
1.596770e+003, 1.941660e-003
1.598699e+003, 1.957716e-003
1.600627e+003, 1.979284e-003
1.602556e+003, 1.876670e-003
1.604484e+003, 1.744404e-003
1.606413e+003, 1.809635e-003
1.608341e+003, 1.811762e-003
1.610270e+003, 1.904457e-003
1.612198e+003, 2.015542e-003
1.614127e+003, 2.127333e-003
1.616055e+003, 2.272113e-003
1.617984e+003, 1.999998e-003
1.619912e+003, 1.704737e-003
1.621840e+003, 1.849539e-003
1.623769e+003, 1.887350e-003
1.625697e+003, 1.748325e-003
1.627626e+003, 1.662447e-003
1.629554e+003, 1.618749e-003
1.631483e+003, 1.869624e-003
1.633411e+003, 2.025047e-003
1.635340e+003, 1.923122e-003
1.637268e+003, 1.734495e-003
1.639197e+003, 1.519126e-003
1.641125e+003, 1.434171e-003
1.643054e+003, 1.625175e-003
1.644982e+003, 1.948216e-003
1.646911e+003, 1.884141e-003
1.648839e+003, 1.561060e-003
1.650767e+003, 1.623414e-003
1.652696e+003, 1.748272e-003
1.654624e+003, 1.472616e-003
1.656553e+003, 1.246731e-003
1.658481e+003, 1.177516e-003
1.660410e+003, 1.100650e-003
1.662338e+003, 1.045674e-003
1.664267e+003, 1.114108e-003
1.666195e+003, 1.028219e-003
1.668124e+003, 9.375956e-004
1.670052e+003, 8.846710e-004
1.671981e+003, 9.243649e-004
1.673909e+003, 9.063946e-004
1.675838e+003, 9.467576e-004
1.677766e+003, 9.135709e-004
1.679694e+003, 9.327431e-004
1.681623e+003, 8.052927e-004
1.683551e+003, 8.978180e-004
1.685480e+003, 8.750388e-004
1.687408e+003, 6.169240e-004
1.689337e+003, 4.751931e-004
1.691265e+003, 4.426086e-004
1.693194e+003, 4.245449e-004
1.695122e+003, 5.303030e-004
1.697051e+003, 5.665951e-004
1.698979e+003, 6.158720e-004
1.700908e+003, 4.826352e-004
1.702836e+003, 1.252800e-004
1.704765e+003, 5.866097e-005
1.706693e+003, 4.839117e-005
1.708621e+003, -1.014161e-005
1.710550e+003, -4.188708e-006
1.712478e+003, 7.446660e-005
1.714407e+003, 2.326844e-004
1.716335e+003, 1.555982e-004
1.718264e+003, -7.019161e-005
1.720192e+003, -1.445693e-004
1.722121e+003, -1.078101e-004
1.724049e+003, -1.122576e-004
1.725978e+003, -3.488837e-004
1.727906e+003, -3.565268e-004
1.729835e+003, -3.941471e-004
1.731763e+003, -3.856827e-004
1.733692e+003, -2.780359e-004
1.735620e+003, -7.528515e-004
1.737548e+003, -1.183991e-003
1.739477e+003, -1.110075e-003
1.741405e+003, -1.207213e-003
1.743334e+003, -1.349354e-003
1.745262e+003, -1.306960e-003
1.747191e+003, -1.112162e-003
1.749119e+003, -8.394297e-004
1.751048e+003, -8.864702e-004
1.752976e+003, -1.070853e-003
1.754905e+003, -8.857197e-004
1.756833e+003, -7.836987e-004
1.758762e+003, -7.653320e-004
1.760690e+003, -8.896986e-004
1.762619e+003, -9.494018e-004
1.764547e+003, -7.001661e-004
1.766475e+003, -4.170165e-004
1.768404e+003, -5.651933e-004
1.770332e+003, -6.215335e-004
1.772261e+003, -4.524300e-004
1.774189e+003, -5.309230e-004
1.776118e+003, -6.125222e-004
1.778046e+003, -5.505333e-004
1.779975e+003, -3.353795e-004
1.781903e+003, -3.778615e-004
1.783832e+003, -3.881186e-004
1.785760e+003, -3.191468e-004
1.787689e+003, -1.369758e-004
1.789617e+003, 8.613990e-005
1.791546e+003, 1.956132e-004
1.793474e+003, 2.528466e-004
1.795402e+003, 1.714961e-004
1.797331e+003, 1.848628e-004
1.799259e+003, 1.636129e-004
1.801188e+003, 3.039138e-004
1.803116e+003, 5.594466e-004
1.805045e+003, 4.754991e-004
1.806973e+003, 2.304401e-004
1.808902e+003, 3.547587e-004
1.810830e+003, 5.446239e-004
1.812759e+003, 5.158922e-004
1.814687e+003, 4.594797e-004
1.816616e+003, 4.368607e-004
1.818544e+003, 1.812184e-004
1.820473e+003, 3.650454e-004
1.822401e+003, 6.801960e-004
1.824329e+003, 7.145134e-004
1.826258e+003, 5.928344e-004
1.828186e+003, 2.963711e-004
1.830115e+003, 3.028308e-004
1.832043e+003, 3.697893e-004
1.833972e+003, 3.290373e-004
1.835900e+003, 2.899094e-004
1.837829e+003, 1.271775e-004
1.839757e+003, 2.226304e-004
1.841686e+003, 1.036182e-004
1.843614e+003, -1.069991e-004
1.845543e+003, -1.196852e-004
1.847471e+003, 2.037435e-004
1.849400e+003, 5.828601e-004
1.851328e+003, 3.557170e-004
1.853256e+003, 2.591392e-005
1.855185e+003, 1.083954e-004
1.857113e+003, 1.964161e-004
1.859042e+003, 3.970917e-004
1.860970e+003, 4.917341e-004
1.862899e+003, 2.884126e-004
1.864827e+003, -1.323379e-004
1.866756e+003, -3.300323e-005
1.868684e+003, 4.647385e-004
1.870613e+003, 2.317829e-004
1.872541e+003, -2.252267e-004
1.874470e+003, -2.767219e-004
1.876398e+003, -2.241737e-004
1.878327e+003, -5.134959e-004
1.880255e+003, -2.328662e-004
1.882183e+003, -2.468090e-004
1.884112e+003, -1.729910e-004
1.886040e+003, 2.539895e-004
1.887969e+003, 1.722978e-004
1.889897e+003, -3.010113e-004
1.891826e+003, -5.808098e-004
1.893754e+003, -4.999345e-004
1.895683e+003, -4.281450e-004
1.897611e+003, -4.605202e-004
1.899540e+003, -8.986421e-004
1.901468e+003, -8.614093e-004
1.903397e+003, -1.219439e-004
1.905325e+003, 2.851321e-004
1.907254e+003, 2.133045e-004
1.909182e+003, 4.822183e-005
1.911110e+003, -3.139983e-004
1.913039e+003, -7.340221e-004
1.914967e+003, -8.450305e-004
1.916896e+003, -5.772967e-004
1.918824e+003, -5.749663e-004
1.920753e+003, -9.122375e-004
1.922681e+003, -1.265723e-003
1.924610e+003, -1.005052e-003
1.926538e+003, -6.983523e-004
1.928467e+003, -7.379359e-004
1.930395e+003, -6.901541e-004
1.932324e+003, -6.472611e-004
1.934252e+003, -7.921956e-004
1.936181e+003, -5.815855e-004
1.938109e+003, -5.147920e-005
1.940037e+003, -4.212562e-004
1.941966e+003, -9.439452e-004
1.943894e+003, -6.136516e-004
1.945823e+003, -7.737516e-004
1.947751e+003, -1.191218e-003
1.949680e+003, -1.192488e-003
1.951608e+003, -1.186399e-003
1.953537e+003, -5.792739e-004
1.955465e+003, -2.201796e-004
1.957394e+003, -5.607738e-004
1.959322e+003, -1.191792e-003
1.961251e+003, -9.558279e-004
1.963179e+003, -2.765143e-004
1.965108e+003, -3.392372e-004
1.967036e+003, 5.761638e-004
1.968964e+003, 2.394607e-004
1.970893e+003, -7.116498e-004
1.972821e+003, -1.846672e-004
1.974750e+003, 9.706699e-004
1.976678e+003, 1.598525e-003
1.978607e+003, 2.567905e-003
1.980535e+003, 3.313978e-003
1.982464e+003, 1.902875e-003
1.984392e+003, 1.800139e-003
1.986321e+003, 1.747260e-003
1.988249e+003, 4.287961e-004
1.990178e+003, 2.417946e-006
1.992106e+003, -2.688486e-004
1.994035e+003, -6.895273e-004
1.995963e+003, -5.087383e-004
1.997891e+003, 3.638095e-006
1.999820e+003, 1.203171e-004
2.001748e+003, -1.234465e-003
2.003677e+003, -1.841261e-003
2.005605e+003, -1.038937e-003
2.007534e+003, 3.973105e-004
2.009462e+003, -2.048076e-004
2.011391e+003, -1.757147e-003
2.013319e+003, -6.104002e-004
2.015248e+003, 5.175200e-004
2.017176e+003, 7.413732e-004
2.019105e+003, 8.521334e-005
2.021033e+003, -8.766958e-004
2.022962e+003, 5.088822e-004
2.024890e+003, 1.688582e-003
2.026818e+003, 1.527603e-003
2.028747e+003, 1.587654e-003
2.030675e+003, 1.161870e-003
2.032604e+003, 8.413502e-004
2.034532e+003, 4.602596e-004
2.036461e+003, 2.023704e-003
2.038389e+003, 4.038454e-003
2.040318e+003, 3.279904e-003
2.042246e+003, 1.463307e-003
2.044175e+003, 9.594862e-004
2.046103e+003, 1.500283e-003
2.048031e+003, 2.263413e-003
2.049960e+003, 2.765121e-003
2.051888e+003, 2.166063e-003
2.053817e+003, 1.354573e-003
2.055745e+003, 2.106189e-003
2.057674e+003, 2.609762e-003
2.059602e+003, 2.091452e-003
2.061531e+003, 1.976222e-003
2.063459e+003, 2.420346e-003
2.065388e+003, 2.804904e-003
2.067316e+003, 2.172863e-003
2.069245e+003, 1.569877e-003
2.071173e+003, 1.783288e-003
2.073102e+003, 1.711835e-003
2.075030e+003, 2.036053e-003
2.076958e+003, 1.875199e-003
2.078887e+003, 1.321205e-003
2.080815e+003, 1.644361e-003
2.082744e+003, 1.480548e-003
2.084672e+003, 9.122269e-004
2.086601e+003, 9.096478e-004
2.088529e+003, 1.555208e-003
2.090458e+003, 1.567833e-003
2.092386e+003, 3.510460e-004
2.094315e+003, 4.630646e-005
2.096243e+003, 1.323611e-003
2.098172e+003, 1.948176e-003
2.100100e+003, 2.298496e-003
2.102029e+003, 2.703537e-003
2.103957e+003, 3.115221e-003
2.105885e+003, 2.439742e-003
2.107814e+003, 2.056277e-003
2.109742e+003, 2.505398e-003
2.111671e+003, 2.392766e-003
2.113599e+003, 2.019463e-003
2.115528e+003, 1.735720e-003
2.117456e+003, 1.598817e-003
2.119385e+003, 1.643187e-003
2.121313e+003, 1.193695e-003
2.123242e+003, 4.352228e-004
2.125170e+003, 8.054210e-004
2.127099e+003, 7.067056e-004
2.129027e+003, -1.595530e-004
2.130956e+003, -6.271052e-004
2.132884e+003, -1.364960e-004
2.134813e+003, 9.641564e-004
2.136741e+003, 1.506076e-003
2.138669e+003, 8.873575e-004
2.140598e+003, 1.096003e-003
2.142526e+003, 3.815368e-004
2.144455e+003, 2.389441e-004
2.146383e+003, 3.847328e-004
2.148312e+003, 1.074126e-003
2.150240e+003, 1.196070e-003
2.152169e+003, 7.145840e-004
2.154097e+003, 5.501879e-004
2.156026e+003, -2.579405e-004
2.157954e+003, 8.517839e-004
2.159883e+003, 4.562417e-003
2.161811e+003, 6.413007e-003
2.163740e+003, 4.806956e-003
2.165668e+003, 4.392919e-003
2.167596e+003, 4.757053e-003
2.169525e+003, 4.062046e-003
2.171453e+003, 3.828364e-003
2.173382e+003, 3.087927e-003
2.175310e+003, 3.363295e-003
2.177239e+003, 3.597392e-003
2.179167e+003, 3.418065e-003
2.181096e+003, 3.441596e-003
2.183024e+003, 4.062397e-003
2.184953e+003, 4.016887e-003
2.186881e+003, 3.848482e-003
2.188810e+003, 3.319358e-003
2.190738e+003, 3.065110e-003
2.192667e+003, 1.826939e-003
2.194595e+003, 1.536247e-003
2.196523e+003, 2.187941e-003
2.198452e+003, 2.835832e-003
2.200380e+003, 4.359336e-003
2.202309e+003, 4.603694e-003
2.204237e+003, 3.633846e-003
2.206166e+003, 3.180335e-003
2.208094e+003, 2.361047e-003
2.210023e+003, 1.980916e-003
2.211951e+003, 2.343712e-003
2.213880e+003, 2.561194e-003
2.215808e+003, 2.347249e-003
2.217737e+003, 2.389520e-003
2.219665e+003, 2.707077e-003
2.221594e+003, 3.269393e-003
2.223522e+003, 2.877414e-003
2.225450e+003, 1.397474e-003
2.227379e+003, 1.244844e-003
2.229307e+003, 1.996769e-003
2.231236e+003, 2.263950e-003
2.233164e+003, 2.525077e-003
2.235093e+003, 2.956923e-003
2.237021e+003, 3.164960e-003
2.238950e+003, 2.913824e-003
2.240878e+003, 3.151310e-003
2.242807e+003, 3.262633e-003
2.244735e+003, 3.563904e-003
2.246664e+003, 3.673599e-003
2.248592e+003, 3.263969e-003
2.250521e+003, 2.617618e-003
2.252449e+003, 2.485973e-003
2.254377e+003, 2.869366e-003
2.256306e+003, 3.249224e-003
2.258234e+003, 2.859259e-003
2.260163e+003, 3.239215e-003
2.262091e+003, 3.513447e-003
2.264020e+003, 2.844780e-003
2.265948e+003, 3.324829e-003
2.267877e+003, 3.964401e-003
2.269805e+003, 3.939673e-003
2.271734e+003, 4.043502e-003
2.273662e+003, 3.591989e-003
2.275591e+003, 3.715859e-003
2.277519e+003, 3.944067e-003
2.279448e+003, 3.851986e-003
2.281376e+003, 4.060096e-003
2.283304e+003, 3.952267e-003
2.285233e+003, 3.918099e-003
2.287161e+003, 3.675137e-003
2.289090e+003, 3.723126e-003
2.291018e+003, 4.079928e-003
2.292947e+003, 3.984025e-003
2.294875e+003, 3.427450e-003
2.296804e+003, 3.280636e-003
2.298732e+003, 3.308628e-003
2.300661e+003, 3.355098e-003
2.302589e+003, 3.326436e-003
2.304518e+003, 3.180767e-003
2.306446e+003, 2.878938e-003
2.308375e+003, 2.604795e-003
2.310303e+003, 2.587103e-003
2.312231e+003, 2.883322e-003
2.314160e+003, 3.164147e-003
2.316088e+003, 3.388098e-003
2.318017e+003, 3.422450e-003
2.319945e+003, 3.424224e-003
2.321874e+003, 3.863801e-003
2.323802e+003, 4.462525e-003
2.325731e+003, 3.539545e-003
2.327659e+003, 2.415305e-003
2.329588e+003, 2.074512e-003
2.331516e+003, 2.224362e-003
2.333445e+003, 2.765069e-003
2.335373e+003, 2.781714e-003
2.337302e+003, 2.448588e-003
2.339230e+003, 2.346327e-003
2.341158e+003, 2.509614e-003
2.343087e+003, 2.715274e-003
2.345015e+003, 2.752664e-003
2.346944e+003, 2.596262e-003
2.348872e+003, 2.430218e-003
2.350801e+003, 2.204130e-003
2.352729e+003, 2.139913e-003
2.354658e+003, 2.402003e-003
2.356586e+003, 2.760389e-003
2.358515e+003, 2.923034e-003
2.360443e+003, 2.800593e-003
2.362372e+003, 2.656563e-003
2.364300e+003, 2.453893e-003
2.366229e+003, 2.155288e-003
2.368157e+003, 2.289254e-003
2.370085e+003, 2.473876e-003
2.372014e+003, 2.306279e-003
2.373942e+003, 2.117931e-003
2.375871e+003, 2.039281e-003
2.377799e+003, 2.228947e-003
2.379728e+003, 2.017688e-003
2.381656e+003, 1.494251e-003
2.383585e+003, 1.691072e-003
2.385513e+003, 1.925839e-003
2.387442e+003, 1.731598e-003
2.389370e+003, 1.462290e-003
2.391299e+003, 1.809629e-003
2.393227e+003, 2.278480e-003
2.395156e+003, 2.113852e-003
2.397084e+003, 2.181248e-003
2.399012e+003, 2.414992e-003
2.400941e+003, 2.052105e-003
2.402869e+003, 1.445112e-003
2.404798e+003, 1.639350e-003
2.406726e+003, 2.333459e-003
2.408655e+003, 2.526453e-003
2.410583e+003, 1.968225e-003
2.412512e+003, 1.890092e-003
2.414440e+003, 2.301210e-003
2.416369e+003, 2.503398e-003
2.418297e+003, 2.539890e-003
2.420226e+003, 2.401074e-003
2.422154e+003, 2.279411e-003
2.424083e+003, 2.768443e-003
2.426011e+003, 2.880890e-003
2.427939e+003, 2.670075e-003
2.429868e+003, 2.384469e-003
2.431796e+003, 1.929965e-003
2.433725e+003, 2.163526e-003
2.435653e+003, 2.681431e-003
2.437582e+003, 2.848808e-003
2.439510e+003, 2.315694e-003
2.441439e+003, 1.896258e-003
2.443367e+003, 2.165240e-003
2.445296e+003, 2.397435e-003
2.447224e+003, 2.659961e-003
2.449153e+003, 2.862748e-003
2.451081e+003, 2.775647e-003
2.453010e+003, 2.250623e-003
2.454938e+003, 2.513236e-003
2.456866e+003, 2.846031e-003
2.458795e+003, 2.392689e-003
2.460723e+003, 2.499796e-003
2.462652e+003, 2.979153e-003
2.464580e+003, 2.803039e-003
2.466509e+003, 2.735072e-003
2.468437e+003, 3.264881e-003
2.470366e+003, 3.449524e-003
2.472294e+003, 2.871994e-003
2.474223e+003, 2.350072e-003
2.476151e+003, 2.410918e-003
2.478080e+003, 2.165098e-003
2.480008e+003, 1.961184e-003
2.481937e+003, 2.838955e-003
2.483865e+003, 3.133037e-003
2.485793e+003, 2.666691e-003
2.487722e+003, 2.467880e-003
2.489650e+003, 2.849753e-003
2.491579e+003, 2.637159e-003
2.493507e+003, 2.015141e-003
2.495436e+003, 2.292635e-003
2.497364e+003, 2.075078e-003
2.499293e+003, 2.376211e-003
2.501221e+003, 2.930898e-003
2.503150e+003, 2.801248e-003
2.505078e+003, 2.684135e-003
2.507007e+003, 2.373125e-003
2.508935e+003, 2.252545e-003
2.510864e+003, 1.945760e-003
2.512792e+003, 1.818789e-003
2.514720e+003, 2.309354e-003
2.516649e+003, 2.805143e-003
2.518577e+003, 2.753642e-003
2.520506e+003, 2.004314e-003
2.522434e+003, 1.385387e-003
2.524363e+003, 1.620604e-003
2.526291e+003, 1.797869e-003
2.528220e+003, 2.327955e-003
2.530148e+003, 2.399602e-003
2.532077e+003, 2.419065e-003
2.534005e+003, 2.573787e-003
2.535934e+003, 2.363501e-003
2.537862e+003, 2.198688e-003
2.539791e+003, 2.483352e-003
2.541719e+003, 2.800262e-003
2.543647e+003, 2.904939e-003
2.545576e+003, 3.112971e-003
2.547504e+003, 3.058596e-003
2.549433e+003, 2.770805e-003
2.551361e+003, 2.306612e-003
2.553290e+003, 2.227709e-003
2.555218e+003, 2.414831e-003
2.557147e+003, 2.770170e-003
2.559075e+003, 2.621792e-003
2.561004e+003, 2.294799e-003
2.562932e+003, 2.298542e-003
2.564861e+003, 2.920971e-003
2.566789e+003, 3.048670e-003
2.568718e+003, 3.011509e-003
2.570646e+003, 2.720843e-003
2.572574e+003, 2.904792e-003
2.574503e+003, 3.210253e-003
2.576431e+003, 3.203303e-003
2.578360e+003, 2.924957e-003
2.580288e+003, 2.853574e-003
2.582217e+003, 2.619825e-003
2.584145e+003, 2.212886e-003
2.586074e+003, 2.717480e-003
2.588002e+003, 3.700685e-003
2.589931e+003, 3.315536e-003
2.591859e+003, 2.923400e-003
2.593788e+003, 2.838870e-003
2.595716e+003, 3.014192e-003
2.597645e+003, 3.078110e-003
2.599573e+003, 3.125977e-003
2.601501e+003, 3.200012e-003
2.603430e+003, 3.354536e-003
2.605358e+003, 3.630368e-003
2.607287e+003, 3.504856e-003
2.609215e+003, 3.209841e-003
2.611144e+003, 3.419310e-003
2.613072e+003, 3.375007e-003
2.615001e+003, 3.313425e-003
2.616929e+003, 3.403159e-003
2.618858e+003, 3.163547e-003
2.620786e+003, 2.976820e-003
2.622715e+003, 2.939868e-003
2.624643e+003, 3.007397e-003
2.626572e+003, 3.516750e-003
2.628500e+003, 3.687754e-003
2.630428e+003, 3.384181e-003
2.632357e+003, 3.364770e-003
2.634285e+003, 3.742118e-003
2.636214e+003, 3.745887e-003
2.638142e+003, 3.736679e-003
2.640071e+003, 3.770632e-003
2.641999e+003, 3.762649e-003
2.643928e+003, 3.984940e-003
2.645856e+003, 3.806701e-003
2.647785e+003, 3.456278e-003
2.649713e+003, 3.379524e-003
2.651642e+003, 3.745671e-003
2.653570e+003, 3.953388e-003
2.655499e+003, 3.669333e-003
2.657427e+003, 3.096999e-003
2.659355e+003, 2.707015e-003
2.661284e+003, 2.822620e-003
2.663212e+003, 2.827744e-003
2.665141e+003, 2.588126e-003
2.667069e+003, 2.566773e-003
2.668998e+003, 2.617173e-003
2.670926e+003, 2.866267e-003
2.672855e+003, 2.874353e-003
2.674783e+003, 2.685666e-003
2.676712e+003, 2.541803e-003
2.678640e+003, 2.555349e-003
2.680569e+003, 2.553429e-003
2.682497e+003, 2.601916e-003
2.684426e+003, 2.382532e-003
2.686354e+003, 2.361568e-003
2.688282e+003, 2.430183e-003
2.690211e+003, 2.105032e-003
2.692139e+003, 2.176755e-003
2.694068e+003, 2.819148e-003
2.695996e+003, 3.229797e-003
2.697925e+003, 3.103641e-003
2.699853e+003, 2.839122e-003
2.701782e+003, 2.315026e-003
2.703710e+003, 2.474107e-003
2.705639e+003, 2.946234e-003
2.707567e+003, 2.791564e-003
2.709496e+003, 2.666829e-003
2.711424e+003, 2.705263e-003
2.713353e+003, 2.649227e-003
2.715281e+003, 2.854438e-003
2.717209e+003, 3.056092e-003
2.719138e+003, 3.237369e-003
2.721066e+003, 3.370018e-003
2.722995e+003, 3.372561e-003
2.724923e+003, 3.197293e-003
2.726852e+003, 3.191558e-003
2.728780e+003, 3.179833e-003
2.730709e+003, 3.170991e-003
2.732637e+003, 3.237845e-003
2.734566e+003, 3.327876e-003
2.736494e+003, 3.311740e-003
2.738423e+003, 3.067322e-003
2.740351e+003, 3.120804e-003
2.742280e+003, 3.262370e-003
2.744208e+003, 3.235103e-003
2.746136e+003, 3.088006e-003
2.748065e+003, 3.069066e-003
2.749993e+003, 3.421579e-003
2.751922e+003, 3.447093e-003
2.753850e+003, 3.201429e-003
2.755779e+003, 3.053969e-003
2.757707e+003, 3.351094e-003
2.759636e+003, 3.484631e-003
2.761564e+003, 3.459882e-003
2.763493e+003, 3.276793e-003
2.765421e+003, 3.157055e-003
2.767350e+003, 3.537873e-003
2.769278e+003, 3.442221e-003
2.771207e+003, 3.194985e-003
2.773135e+003, 3.213674e-003
2.775063e+003, 3.657484e-003
2.776992e+003, 3.666737e-003
2.778920e+003, 3.347630e-003
2.780849e+003, 3.319530e-003
2.782777e+003, 3.537903e-003
2.784706e+003, 3.451131e-003
2.786634e+003, 3.348683e-003
2.788563e+003, 3.321702e-003
2.790491e+003, 3.413264e-003
2.792420e+003, 3.478326e-003
2.794348e+003, 3.582938e-003
2.796277e+003, 3.506686e-003
2.798205e+003, 3.486577e-003
2.800134e+003, 3.536413e-003
2.802062e+003, 3.283074e-003
2.803990e+003, 3.594630e-003
2.805919e+003, 3.896994e-003
2.807847e+003, 3.286517e-003
2.809776e+003, 2.877899e-003
2.811704e+003, 3.262495e-003
2.813633e+003, 3.664664e-003
2.815561e+003, 3.739955e-003
2.817490e+003, 3.734443e-003
2.819418e+003, 3.413465e-003
2.821347e+003, 3.544677e-003
2.823275e+003, 3.762125e-003
2.825204e+003, 3.584594e-003
2.827132e+003, 3.566348e-003
2.829061e+003, 3.680918e-003
2.830989e+003, 3.485187e-003
2.832917e+003, 3.769308e-003
2.834846e+003, 4.003833e-003
2.836774e+003, 4.050386e-003
2.838703e+003, 4.039341e-003
2.840631e+003, 4.171907e-003
2.842560e+003, 4.151287e-003
2.844488e+003, 4.158335e-003
2.846417e+003, 3.940381e-003
2.848345e+003, 3.738540e-003
2.850274e+003, 3.653243e-003
2.852202e+003, 3.691523e-003
2.854131e+003, 3.749862e-003
2.856059e+003, 3.332623e-003
2.857988e+003, 3.477187e-003
2.859916e+003, 3.797318e-003
2.861844e+003, 3.992759e-003
2.863773e+003, 4.116521e-003
2.865701e+003, 3.957041e-003
2.867630e+003, 3.887058e-003
2.869558e+003, 4.036063e-003
2.871487e+003, 4.211625e-003
2.873415e+003, 3.932752e-003
2.875344e+003, 4.042028e-003
2.877272e+003, 4.477294e-003
2.879201e+003, 4.297801e-003
2.881129e+003, 3.997615e-003
2.883058e+003, 4.113261e-003
2.884986e+003, 4.028526e-003
2.886915e+003, 4.275254e-003
2.888843e+003, 4.796162e-003
2.890771e+003, 4.682817e-003
2.892700e+003, 4.487560e-003
2.894628e+003, 4.177657e-003
2.896557e+003, 3.971771e-003
2.898485e+003, 4.035280e-003
2.900414e+003, 4.381500e-003
2.902342e+003, 4.521330e-003
2.904271e+003, 4.300957e-003
2.906199e+003, 4.154130e-003
2.908128e+003, 4.244553e-003
2.910056e+003, 4.631002e-003
2.911985e+003, 4.759846e-003
2.913913e+003, 5.018950e-003
2.915842e+003, 4.775028e-003
2.917770e+003, 4.520358e-003
2.919698e+003, 4.809563e-003
2.921627e+003, 4.633159e-003
2.923555e+003, 4.181084e-003
2.925484e+003, 4.024821e-003
2.927412e+003, 4.299447e-003
2.929341e+003, 4.293392e-003
2.931269e+003, 4.438292e-003
2.933198e+003, 4.285155e-003
2.935126e+003, 4.514258e-003
2.937055e+003, 4.724355e-003
2.938983e+003, 4.304784e-003
2.940912e+003, 4.030142e-003
2.942840e+003, 4.270473e-003
2.944769e+003, 4.224990e-003
2.946697e+003, 4.081196e-003
2.948625e+003, 4.529580e-003
2.950554e+003, 4.418619e-003
2.952482e+003, 3.842938e-003
2.954411e+003, 3.958542e-003
2.956339e+003, 4.519126e-003
2.958268e+003, 3.983528e-003
2.960196e+003, 3.697762e-003
2.962125e+003, 4.058383e-003
2.964053e+003, 4.086617e-003
2.965982e+003, 4.051995e-003
2.967910e+003, 4.041688e-003
2.969839e+003, 4.130270e-003
2.971767e+003, 4.294747e-003
2.973696e+003, 4.302057e-003
2.975624e+003, 4.070106e-003
2.977552e+003, 3.451249e-003
2.979481e+003, 3.377843e-003
2.981409e+003, 3.587522e-003
2.983338e+003, 3.832297e-003
2.985266e+003, 4.214670e-003
2.987195e+003, 3.956040e-003
2.989123e+003, 3.163081e-003
2.991052e+003, 3.542673e-003
2.992980e+003, 4.119624e-003
2.994909e+003, 4.301756e-003
2.996837e+003, 4.227294e-003
2.998766e+003, 4.128223e-003
3.000694e+003, 3.847724e-003
3.002623e+003, 3.805377e-003
3.004551e+003, 4.354954e-003
3.006479e+003, 4.681699e-003
3.008408e+003, 4.471416e-003
3.010336e+003, 4.412612e-003
3.012265e+003, 4.486524e-003
3.014193e+003, 4.097793e-003
3.016122e+003, 4.165565e-003
3.018050e+003, 4.534916e-003
3.019979e+003, 4.765845e-003
3.021907e+003, 4.858406e-003
3.023836e+003, 4.491973e-003
3.025764e+003, 4.604274e-003
3.027693e+003, 4.621883e-003
3.029621e+003, 4.544423e-003
3.031550e+003, 4.312262e-003
3.033478e+003, 4.104147e-003
3.035406e+003, 4.342936e-003
3.037335e+003, 4.203514e-003
3.039263e+003, 4.204649e-003
3.041192e+003, 4.216290e-003
3.043120e+003, 4.790886e-003
3.045049e+003, 5.416794e-003
3.046977e+003, 5.364656e-003
3.048906e+003, 4.997250e-003
3.050834e+003, 4.845049e-003
3.052763e+003, 4.785660e-003
3.054691e+003, 4.783479e-003
3.056620e+003, 5.227378e-003
3.058548e+003, 5.522070e-003
3.060477e+003, 5.271194e-003
3.062405e+003, 4.848231e-003
3.064333e+003, 4.576557e-003
3.066262e+003, 4.917311e-003
3.068190e+003, 5.063551e-003
3.070119e+003, 5.289541e-003
3.072047e+003, 5.273219e-003
3.073976e+003, 5.624122e-003
3.075904e+003, 5.616578e-003
3.077833e+003, 5.013745e-003
3.079761e+003, 4.503498e-003
3.081690e+003, 4.759171e-003
3.083618e+003, 4.950604e-003
3.085547e+003, 5.304356e-003
3.087475e+003, 5.592586e-003
3.089404e+003, 5.379493e-003
3.091332e+003, 5.278049e-003
3.093260e+003, 5.816585e-003
3.095189e+003, 5.727080e-003
3.097117e+003, 5.602226e-003
3.099046e+003, 5.430517e-003
3.100974e+003, 5.681593e-003
3.102903e+003, 5.505675e-003
3.104831e+003, 5.269350e-003
3.106760e+003, 5.151081e-003
3.108688e+003, 5.358168e-003
3.110617e+003, 5.277246e-003
3.112545e+003, 5.710436e-003
3.114474e+003, 6.289436e-003
3.116402e+003, 6.263223e-003
3.118331e+003, 6.718696e-003
3.120259e+003, 6.489493e-003
3.122188e+003, 6.280928e-003
3.124116e+003, 6.384211e-003
3.126044e+003, 5.715925e-003
3.127973e+003, 5.346675e-003
3.129901e+003, 5.747827e-003
3.131830e+003, 6.288444e-003
3.133758e+003, 6.748331e-003
3.135687e+003, 6.746197e-003
3.137615e+003, 6.047587e-003
3.139544e+003, 6.076985e-003
3.141472e+003, 6.786723e-003
3.143401e+003, 6.355088e-003
3.145329e+003, 5.848010e-003
3.147258e+003, 6.493808e-003
3.149186e+003, 6.636586e-003
3.151115e+003, 6.403018e-003
3.153043e+003, 6.315181e-003
3.154971e+003, 6.582332e-003
3.156900e+003, 6.587279e-003
3.158828e+003, 6.586132e-003
3.160757e+003, 6.522889e-003
3.162685e+003, 6.681531e-003
3.164614e+003, 6.724995e-003
3.166542e+003, 6.843893e-003
3.168471e+003, 6.884553e-003
3.170399e+003, 6.764255e-003
3.172328e+003, 6.805639e-003
3.174256e+003, 6.846959e-003
3.176185e+003, 6.835553e-003
3.178113e+003, 6.922762e-003
3.180042e+003, 6.893265e-003
3.181970e+003, 6.745175e-003
3.183898e+003, 6.301417e-003
3.185827e+003, 6.244881e-003
3.187755e+003, 6.548721e-003
3.189684e+003, 7.218088e-003
3.191612e+003, 7.591565e-003
3.193541e+003, 7.348677e-003
3.195469e+003, 7.075639e-003
3.197398e+003, 6.873431e-003
3.199326e+003, 6.500595e-003
3.201255e+003, 6.594330e-003
3.203183e+003, 6.916315e-003
3.205112e+003, 6.946930e-003
3.207040e+003, 6.796033e-003
3.208969e+003, 7.116399e-003
3.210897e+003, 7.205775e-003
3.212825e+003, 6.850062e-003
3.214754e+003, 6.791324e-003
3.216682e+003, 6.999631e-003
3.218611e+003, 6.779822e-003
3.220539e+003, 6.767889e-003
3.222468e+003, 6.988345e-003
3.224396e+003, 7.182135e-003
3.226325e+003, 7.741286e-003
3.228253e+003, 7.300031e-003
3.230182e+003, 7.240685e-003
3.232110e+003, 7.391288e-003
3.234039e+003, 7.693235e-003
3.235967e+003, 8.089419e-003
3.237896e+003, 7.864620e-003
3.239824e+003, 8.023231e-003
3.241752e+003, 7.770043e-003
3.243681e+003, 7.015233e-003
3.245609e+003, 6.571267e-003
3.247538e+003, 7.245455e-003
3.249466e+003, 7.806975e-003
3.251395e+003, 7.846576e-003
3.253323e+003, 7.781733e-003
3.255252e+003, 7.637532e-003
3.257180e+003, 7.605148e-003
3.259109e+003, 7.931901e-003
3.261037e+003, 7.734483e-003
3.262966e+003, 7.449694e-003
3.264894e+003, 6.862281e-003
3.266823e+003, 7.339533e-003
3.268751e+003, 8.327481e-003
3.270679e+003, 7.942947e-003
3.272608e+003, 7.350294e-003
3.274536e+003, 7.360061e-003
3.276465e+003, 8.303707e-003
3.278393e+003, 8.549950e-003
3.280322e+003, 7.704411e-003
3.282250e+003, 6.749649e-003
3.284179e+003, 6.673567e-003
3.286107e+003, 7.348192e-003
3.288036e+003, 7.393224e-003
3.289964e+003, 6.810453e-003
3.291893e+003, 7.257031e-003
3.293821e+003, 7.196115e-003
3.295750e+003, 7.546064e-003
3.297678e+003, 8.187356e-003
3.299606e+003, 7.903741e-003
3.301535e+003, 7.942552e-003
3.303463e+003, 7.482009e-003
3.305392e+003, 7.674626e-003
3.307320e+003, 8.083140e-003
3.309249e+003, 8.484515e-003
3.311177e+003, 8.047514e-003
3.313106e+003, 8.088498e-003
3.315034e+003, 8.804387e-003
3.316963e+003, 8.536613e-003
3.318891e+003, 7.793177e-003
3.320820e+003, 7.928903e-003
3.322748e+003, 8.807300e-003
3.324677e+003, 8.256007e-003
3.326605e+003, 7.548375e-003
3.328533e+003, 7.205658e-003
3.330462e+003, 7.226119e-003
3.332390e+003, 7.281549e-003
3.334319e+003, 7.580909e-003
3.336247e+003, 7.682841e-003
3.338176e+003, 8.024001e-003
3.340104e+003, 8.396678e-003
3.342033e+003, 8.270647e-003
3.343961e+003, 8.368339e-003
3.345890e+003, 8.266779e-003
3.347818e+003, 8.745616e-003
3.349747e+003, 8.763362e-003
3.351675e+003, 8.186310e-003
3.353604e+003, 8.259723e-003
3.355532e+003, 8.002499e-003
3.357460e+003, 7.486253e-003
3.359389e+003, 7.384024e-003
3.361317e+003, 7.969769e-003
3.363246e+003, 8.482653e-003
3.365174e+003, 8.903187e-003
3.367103e+003, 9.239881e-003
3.369031e+003, 9.056443e-003
3.370960e+003, 7.980187e-003
3.372888e+003, 7.443110e-003
3.374817e+003, 7.521864e-003
3.376745e+003, 8.237961e-003
3.378674e+003, 8.424587e-003
3.380602e+003, 8.116559e-003
3.382531e+003, 8.171662e-003
3.384459e+003, 8.360794e-003
3.386387e+003, 7.996588e-003
3.388316e+003, 7.859018e-003
3.390244e+003, 7.848563e-003
3.392173e+003, 7.658895e-003
3.394101e+003, 8.117288e-003
3.396030e+003, 8.302700e-003
3.397958e+003, 8.053121e-003
3.399887e+003, 7.973520e-003
3.401815e+003, 8.501227e-003
3.403744e+003, 8.682873e-003
3.405672e+003, 8.505040e-003
3.407601e+003, 8.386175e-003
3.409529e+003, 7.728807e-003
3.411458e+003, 7.028961e-003
3.413386e+003, 7.089505e-003
3.415314e+003, 7.478321e-003
3.417243e+003, 7.915588e-003
3.419171e+003, 8.501364e-003
3.421100e+003, 9.005110e-003
3.423028e+003, 8.074556e-003
3.424957e+003, 7.580551e-003
3.426885e+003, 8.075396e-003
3.428814e+003, 8.038574e-003
3.430742e+003, 8.558719e-003
3.432671e+003, 8.233986e-003
3.434599e+003, 7.564512e-003
3.436528e+003, 7.569087e-003
3.438456e+003, 8.517732e-003
3.440385e+003, 8.404184e-003
3.442313e+003, 8.258973e-003
3.444241e+003, 8.573673e-003
3.446170e+003, 8.328130e-003
3.448098e+003, 8.100947e-003
3.450027e+003, 8.760145e-003
3.451955e+003, 8.836006e-003
3.453884e+003, 7.614399e-003
3.455812e+003, 7.846293e-003
3.457741e+003, 8.676865e-003
3.459669e+003, 8.228067e-003
3.461598e+003, 7.196674e-003
3.463526e+003, 6.879101e-003
3.465455e+003, 6.847152e-003
3.467383e+003, 8.163861e-003
3.469312e+003, 8.459895e-003
3.471240e+003, 7.253269e-003
3.473168e+003, 8.033966e-003
3.475097e+003, 7.905752e-003
3.477025e+003, 7.467903e-003
3.478954e+003, 7.569566e-003
3.480882e+003, 7.516137e-003
3.482811e+003, 8.340206e-003
3.484739e+003, 9.322694e-003
3.486668e+003, 9.602654e-003
3.488596e+003, 8.501625e-003
3.490525e+003, 7.473523e-003
3.492453e+003, 7.472747e-003
3.494382e+003, 7.562379e-003
3.496310e+003, 7.641050e-003
3.498239e+003, 7.620785e-003
3.500167e+003, 8.489720e-003
3.502095e+003, 9.193260e-003
3.504024e+003, 8.209520e-003
3.505952e+003, 7.930118e-003
3.507881e+003, 7.889950e-003
3.509809e+003, 7.269702e-003
3.511738e+003, 6.880079e-003
3.513666e+003, 6.882321e-003
3.515595e+003, 7.093318e-003
3.517523e+003, 7.634270e-003
3.519452e+003, 8.123590e-003
3.521380e+003, 8.621348e-003
3.523309e+003, 8.442095e-003
3.525237e+003, 7.136510e-003
3.527166e+003, 7.404251e-003
3.529094e+003, 8.001175e-003
3.531022e+003, 7.878519e-003
3.532951e+003, 7.626670e-003
3.534879e+003, 6.572051e-003
3.536808e+003, 6.117397e-003
3.538736e+003, 6.580126e-003
3.540665e+003, 7.468536e-003
3.542593e+003, 7.947291e-003
3.544522e+003, 7.558068e-003
3.546450e+003, 7.272404e-003
3.548379e+003, 6.849021e-003
3.550307e+003, 6.988258e-003
3.552236e+003, 6.604752e-003
3.554164e+003, 6.239370e-003
3.556093e+003, 6.770697e-003
3.558021e+003, 6.693838e-003
3.559949e+003, 7.162260e-003
3.561878e+003, 7.874364e-003
3.563806e+003, 7.435264e-003
3.565735e+003, 6.967569e-003
3.567663e+003, 6.602430e-003
3.569592e+003, 6.381740e-003
3.571520e+003, 6.443041e-003
3.573449e+003, 6.869114e-003
3.575377e+003, 7.487040e-003
3.577306e+003, 6.628400e-003
3.579234e+003, 5.453070e-003
3.581163e+003, 5.315729e-003
3.583091e+003, 6.179508e-003
3.585020e+003, 6.143106e-003
3.586948e+003, 5.626843e-003
3.588876e+003, 5.473520e-003
3.590805e+003, 5.378062e-003
3.592733e+003, 5.568724e-003
3.594662e+003, 5.978629e-003
3.596590e+003, 6.078481e-003
3.598519e+003, 5.862219e-003
3.600447e+003, 5.382724e-003
3.602376e+003, 6.078266e-003
3.604304e+003, 7.005878e-003
3.606233e+003, 6.844346e-003
3.608161e+003, 7.194562e-003
3.610090e+003, 6.801293e-003
3.612018e+003, 5.243206e-003
3.613947e+003, 5.390286e-003
3.615875e+003, 5.909576e-003
3.617803e+003, 6.270349e-003
3.619732e+003, 7.045847e-003
3.621660e+003, 7.022941e-003
3.623589e+003, 6.130381e-003
3.625517e+003, 5.002723e-003
3.627446e+003, 4.550023e-003
3.629374e+003, 5.013076e-003
3.631303e+003, 5.996850e-003
3.633231e+003, 7.478602e-003
3.635160e+003, 8.170331e-003
3.637088e+003, 7.853914e-003
3.639017e+003, 8.291688e-003
3.640945e+003, 9.717655e-003
3.642874e+003, 1.173765e-002
3.644802e+003, 1.428614e-002
3.646730e+003, 1.833249e-002
3.648659e+003, 2.144505e-002
3.650587e+003, 1.843114e-002
3.652516e+003, 1.233409e-002
3.654444e+003, 7.693020e-003
3.656373e+003, 5.491970e-003
3.658301e+003, 4.018296e-003
3.660230e+003, 2.478363e-003
3.662158e+003, 2.167710e-003
3.664087e+003, 2.067571e-003
3.666015e+003, 1.151841e-003
3.667944e+003, 5.984185e-004
3.669872e+003, 1.128924e-003
3.671801e+003, 1.868672e-003
3.673729e+003, 3.129517e-003
3.675657e+003, 4.464971e-003
3.677586e+003, 3.980919e-003
3.679514e+003, 2.520314e-003
3.681443e+003, 1.738313e-003
3.683371e+003, 2.369399e-003
3.685300e+003, 3.017414e-003
3.687228e+003, 3.384269e-003
3.689157e+003, 2.968612e-003
3.691085e+003, 2.949564e-003
3.693014e+003, 3.561209e-003
3.694942e+003, 3.592252e-003
3.696871e+003, 3.646165e-003
3.698799e+003, 2.739215e-003
3.700728e+003, 3.017999e-003
3.702656e+003, 2.772022e-003
3.704584e+003, 1.793891e-003
3.706513e+003, 1.521269e-003
3.708441e+003, 2.589714e-003
3.710370e+003, 3.101282e-003
3.712298e+003, 3.357753e-003
3.714227e+003, 5.151868e-003
3.716155e+003, 5.322896e-003
3.718084e+003, 4.022423e-003
3.720012e+003, 2.760789e-003
3.721941e+003, 2.183305e-003
3.723869e+003, 3.397674e-003
3.725798e+003, 4.994816e-003
3.727726e+003, 5.040626e-003
3.729655e+003, 3.563895e-003
3.731583e+003, 3.349632e-003
3.733511e+003, 3.541015e-003
3.735440e+003, 3.577808e-003
3.737368e+003, 3.914616e-003
3.739297e+003, 3.377049e-003
3.741225e+003, 3.375027e-003
3.743154e+003, 3.002178e-003
3.745082e+003, 2.330022e-003
3.747011e+003, 3.548833e-003
3.748939e+003, 5.297751e-003
3.750868e+003, 5.089485e-003
3.752796e+003, 3.803452e-003
3.754725e+003, 3.601250e-003
3.756653e+003, 3.940036e-003
3.758582e+003, 3.892212e-003
3.760510e+003, 3.841088e-003
3.762438e+003, 4.017221e-003
3.764367e+003, 4.312352e-003
3.766295e+003, 5.178839e-003
3.768224e+003, 5.601227e-003
3.770152e+003, 4.688767e-003
3.772081e+003, 4.433447e-003
3.774009e+003, 4.521566e-003
3.775938e+003, 3.997131e-003
3.777866e+003, 3.011524e-003
3.779795e+003, 2.572808e-003
3.781723e+003, 2.055854e-003
3.783652e+003, 2.714741e-003
3.785580e+003, 3.711200e-003
3.787509e+003, 3.378138e-003
3.789437e+003, 2.986441e-003
3.791365e+003, 3.545288e-003
3.793294e+003, 3.467324e-003
3.795222e+003, 3.886595e-003
3.797151e+003, 4.569296e-003
3.799079e+003, 4.640883e-003
3.801008e+003, 4.370043e-003
3.802936e+003, 3.749992e-003
3.804865e+003, 3.693485e-003
3.806793e+003, 4.041989e-003
3.808722e+003, 4.401677e-003
3.810650e+003, 5.017478e-003
3.812579e+003, 5.027080e-003
3.814507e+003, 4.955679e-003
3.816436e+003, 4.503393e-003
3.818364e+003, 3.772036e-003
3.820292e+003, 3.961935e-003
3.822221e+003, 3.853463e-003
3.824149e+003, 4.156269e-003
3.826078e+003, 4.681522e-003
3.828006e+003, 3.838850e-003
3.829935e+003, 3.837573e-003
3.831863e+003, 3.443748e-003
3.833792e+003, 2.598407e-003
3.835720e+003, 2.328065e-003
3.837649e+003, 3.454453e-003
3.839577e+003, 4.621007e-003
3.841506e+003, 5.206444e-003
3.843434e+003, 4.988935e-003
3.845363e+003, 3.426282e-003
3.847291e+003, 3.128963e-003
3.849219e+003, 3.907195e-003
3.851148e+003, 4.427081e-003
3.853076e+003, 3.952769e-003
3.855005e+003, 2.299030e-003
3.856933e+003, 2.727886e-003
3.858862e+003, 3.952584e-003
3.860790e+003, 4.660945e-003
3.862719e+003, 4.124159e-003
3.864647e+003, 3.534392e-003
3.866576e+003, 2.777284e-003
3.868504e+003, 3.155379e-003
3.870433e+003, 3.751267e-003
3.872361e+003, 3.051257e-003
3.874290e+003, 2.658238e-003
3.876218e+003, 3.266299e-003
3.878146e+003, 4.011835e-003
3.880075e+003, 3.984678e-003
3.882003e+003, 2.530206e-003
3.883932e+003, 2.570101e-003
3.885860e+003, 2.648464e-003
3.887789e+003, 3.417986e-003
3.889717e+003, 4.286815e-003
3.891646e+003, 4.158995e-003
3.893574e+003, 3.347236e-003
3.895503e+003, 2.173923e-003
3.897431e+003, 2.148854e-003
3.899360e+003, 3.719433e-003
3.901288e+003, 4.057462e-003
3.903217e+003, 3.620020e-003
3.905145e+003, 3.423006e-003
3.907073e+003, 3.473056e-003
3.909002e+003, 3.667355e-003
3.910930e+003, 3.488246e-003
3.912859e+003, 2.972951e-003
3.914787e+003, 3.150859e-003
3.916716e+003, 3.025104e-003
3.918644e+003, 2.823148e-003
3.920573e+003, 2.069071e-003
3.922501e+003, 2.927290e-003
3.924430e+003, 3.532810e-003
3.926358e+003, 3.329854e-003
3.928287e+003, 4.108523e-003
3.930215e+003, 4.214819e-003
3.932144e+003, 4.258655e-003
3.934072e+003, 4.180486e-003
3.936000e+003, 3.477465e-003
3.937929e+003, 3.352066e-003
3.939857e+003, 3.567420e-003
3.941786e+003, 3.543360e-003
3.943714e+003, 3.304022e-003
3.945643e+003, 3.210516e-003
3.947571e+003, 3.478759e-003
3.949500e+003, 2.595931e-003
3.951428e+003, 3.045689e-003
3.953357e+003, 5.225928e-003
3.955285e+003, 4.735046e-003
3.957214e+003, 4.122764e-003
3.959142e+003, 4.943653e-003
3.961071e+003, 4.864697e-003
3.962999e+003, 4.764462e-003
3.964927e+003, 4.894683e-003
3.966856e+003, 5.322318e-003
3.968784e+003, 4.398075e-003
3.970713e+003, 3.624378e-003
3.972641e+003, 2.943501e-003
3.974570e+003, 3.007308e-003
3.976498e+003, 4.252252e-003
3.978427e+003, 4.446314e-003
3.980355e+003, 3.960996e-003
3.982284e+003, 3.111267e-003
3.984212e+003, 1.503341e-003
3.986141e+003, 8.097806e-004
3.988069e+003, 2.232187e-003
3.989998e+003, 4.460310e-003
3.991926e+003, 4.828755e-003
3.993854e+003, 5.531342e-003
3.995783e+003, 4.889140e-003
3.997711e+003, 3.137879e-003
3.999640e+003, 3.378633e-003
##END=



