##NAMES=Topaz
##RRUFFID=R050199
##IDEAL CHEMISTRY=Al_2_SiO_4_F_2_
##LOCALITY=Madagascar
##OWNER=RRUFF
##SOURCE=Marcus Origlieri
##DESCRIPTION=Transparent colorless crystal fragment
##STATUS=The identification of this mineral has been confirmed by X-ray diffraction and chemical analysis
##URL=rruff.info/R050199
##MEASURED CHEMISTRY=Al_2.000_Si_1.000_O_4.000_(F_1.340_(OH)_0.660_)
3.741225e+002, 1.424779e-001
3.760510e+002, 1.469985e-001
3.779795e+002, 1.467434e-001
3.799079e+002, 1.501617e-001
3.818364e+002, 1.679744e-001
3.837649e+002, 1.567313e-001
3.856933e+002, 1.572972e-001
3.876218e+002, 1.669327e-001
3.895503e+002, 1.754636e-001
3.914787e+002, 1.773145e-001
3.934072e+002, 1.649862e-001
3.953357e+002, 1.608674e-001
3.972641e+002, 1.513753e-001
3.991926e+002, 1.421364e-001
4.011211e+002, 1.387184e-001
4.030495e+002, 1.354712e-001
4.049780e+002, 1.385500e-001
4.069065e+002, 1.437971e-001
4.088349e+002, 1.525698e-001
4.107634e+002, 1.594578e-001
4.126919e+002, 1.638843e-001
4.146203e+002, 1.679869e-001
4.165488e+002, 1.674989e-001
4.184773e+002, 1.758393e-001
4.204057e+002, 1.840695e-001
4.223342e+002, 1.760418e-001
4.242627e+002, 1.719542e-001
4.261911e+002, 1.739528e-001
4.281196e+002, 1.758119e-001
4.300481e+002, 1.779432e-001
4.319765e+002, 1.827864e-001
4.339050e+002, 1.866160e-001
4.358335e+002, 1.861553e-001
4.377619e+002, 1.885179e-001
4.396904e+002, 1.932952e-001
4.416189e+002, 1.955532e-001
4.435473e+002, 1.937627e-001
4.454758e+002, 1.926514e-001
4.474043e+002, 1.932944e-001
4.493327e+002, 1.953633e-001
4.512612e+002, 1.950608e-001
4.531897e+002, 1.920542e-001
4.551181e+002, 1.873968e-001
4.570466e+002, 1.820560e-001
4.589751e+002, 1.745232e-001
4.609035e+002, 1.640543e-001
4.628320e+002, 1.561569e-001
4.647605e+002, 1.517069e-001
4.666889e+002, 1.461152e-001
4.686174e+002, 1.383653e-001
4.705459e+002, 1.350368e-001
4.724743e+002, 1.394512e-001
4.744028e+002, 1.496630e-001
4.763313e+002, 1.595036e-001
4.782597e+002, 1.648494e-001
4.801882e+002, 1.651893e-001
4.821167e+002, 1.609528e-001
4.840451e+002, 1.510266e-001
4.859736e+002, 1.380505e-001
4.879021e+002, 1.281843e-001
4.898305e+002, 1.234196e-001
4.917590e+002, 1.214748e-001
4.936875e+002, 1.207557e-001
4.956159e+002, 1.201189e-001
4.975444e+002, 1.203833e-001
4.994729e+002, 1.206495e-001
5.014013e+002, 1.213357e-001
5.033298e+002, 1.217633e-001
5.052583e+002, 1.218882e-001
5.071867e+002, 1.223137e-001
5.091152e+002, 1.220112e-001
5.110437e+002, 1.205891e-001
5.129721e+002, 1.190341e-001
5.149006e+002, 1.184659e-001
5.168290e+002, 1.195870e-001
5.187575e+002, 1.195413e-001
5.206860e+002, 1.200199e-001
5.226144e+002, 1.211018e-001
5.245429e+002, 1.208955e-001
5.264714e+002, 1.173751e-001
5.283998e+002, 1.109688e-001
5.303283e+002, 1.032955e-001
5.322568e+002, 9.712289e-002
5.341852e+002, 9.327121e-002
5.361137e+002, 9.052046e-002
5.380422e+002, 8.796445e-002
5.399706e+002, 8.552326e-002
5.418991e+002, 8.352526e-002
5.438276e+002, 8.158097e-002
5.457560e+002, 8.043090e-002
5.476845e+002, 8.092204e-002
5.496130e+002, 8.297537e-002
5.515414e+002, 8.728442e-002
5.534699e+002, 9.418852e-002
5.553984e+002, 1.021860e-001
5.573268e+002, 1.073587e-001
5.592553e+002, 1.075660e-001
5.611838e+002, 1.053390e-001
5.631122e+002, 1.026363e-001
5.650407e+002, 9.890387e-002
5.669692e+002, 9.333097e-002
5.688976e+002, 8.602649e-002
5.708261e+002, 7.996208e-002
5.727546e+002, 7.809008e-002
5.746830e+002, 8.118685e-002
5.766115e+002, 8.936678e-002
5.785400e+002, 1.010155e-001
5.804684e+002, 1.126882e-001
5.823969e+002, 1.204053e-001
5.843254e+002, 1.231995e-001
5.862538e+002, 1.229761e-001
5.881823e+002, 1.219560e-001
5.901108e+002, 1.241765e-001
5.920392e+002, 1.327797e-001
5.939677e+002, 1.444907e-001
5.958962e+002, 1.571048e-001
5.978246e+002, 1.688269e-001
5.997531e+002, 1.791662e-001
6.016816e+002, 1.880247e-001
6.036100e+002, 1.956093e-001
6.055385e+002, 2.015520e-001
6.074670e+002, 2.059888e-001
6.093954e+002, 2.089397e-001
6.113239e+002, 2.101067e-001
6.132524e+002, 2.101218e-001
6.151808e+002, 2.080885e-001
6.171093e+002, 2.043087e-001
6.190378e+002, 1.986521e-001
6.209662e+002, 1.908919e-001
6.228947e+002, 1.829026e-001
6.248232e+002, 1.748429e-001
6.267516e+002, 1.669411e-001
6.286801e+002, 1.591346e-001
6.306086e+002, 1.517752e-001
6.325370e+002, 1.448167e-001
6.344655e+002, 1.376821e-001
6.363940e+002, 1.314562e-001
6.383224e+002, 1.258052e-001
6.402509e+002, 1.204185e-001
6.421794e+002, 1.148345e-001
6.441078e+002, 1.086370e-001
6.460363e+002, 1.030613e-001
6.479648e+002, 9.801558e-002
6.498932e+002, 9.303701e-002
6.518217e+002, 8.820840e-002
6.537502e+002, 8.341632e-002
6.556786e+002, 7.858173e-002
6.576071e+002, 7.386545e-002
6.595356e+002, 6.929527e-002
6.614641e+002, 6.491587e-002
6.633925e+002, 6.067162e-002
6.653210e+002, 5.643810e-002
6.672495e+002, 5.231326e-002
6.691779e+002, 4.835347e-002
6.711064e+002, 4.411688e-002
6.730349e+002, 4.046053e-002
6.749633e+002, 3.780278e-002
6.768918e+002, 3.587799e-002
6.788203e+002, 3.402976e-002
6.807487e+002, 3.221257e-002
6.826772e+002, 3.025068e-002
6.846057e+002, 2.825522e-002
6.865341e+002, 2.633129e-002
6.884626e+002, 2.479631e-002
6.903911e+002, 2.369461e-002
6.923195e+002, 2.311939e-002
6.942480e+002, 2.309683e-002
6.961765e+002, 2.362195e-002
6.981049e+002, 2.444556e-002
7.000334e+002, 2.620328e-002
7.019619e+002, 2.874364e-002
7.038903e+002, 3.162347e-002
7.058188e+002, 3.345393e-002
7.077473e+002, 3.289299e-002
7.096757e+002, 3.071258e-002
7.116042e+002, 2.794482e-002
7.135327e+002, 2.495579e-002
7.154611e+002, 2.253452e-002
7.173896e+002, 2.081716e-002
7.193181e+002, 1.978645e-002
7.212465e+002, 1.906556e-002
7.231750e+002, 1.862486e-002
7.251035e+002, 1.836916e-002
7.270319e+002, 1.840519e-002
7.289604e+002, 1.831082e-002
7.308889e+002, 1.803879e-002
7.328173e+002, 1.803185e-002
7.347458e+002, 1.840662e-002
7.366743e+002, 1.884861e-002
7.386027e+002, 1.901486e-002
7.405312e+002, 1.905970e-002
7.424597e+002, 1.938888e-002
7.443881e+002, 2.005521e-002
7.463166e+002, 2.059284e-002
7.482451e+002, 2.115681e-002
7.501735e+002, 2.194956e-002
7.521020e+002, 2.276416e-002
7.540305e+002, 2.369788e-002
7.559589e+002, 2.475468e-002
7.578874e+002, 2.601403e-002
7.598159e+002, 2.757999e-002
7.617443e+002, 2.936448e-002
7.636728e+002, 3.146930e-002
7.656013e+002, 3.405498e-002
7.675297e+002, 3.654483e-002
7.694582e+002, 3.825775e-002
7.713867e+002, 3.895048e-002
7.733151e+002, 3.897001e-002
7.752436e+002, 3.921743e-002
7.771721e+002, 4.013759e-002
7.791005e+002, 4.154157e-002
7.810290e+002, 4.349998e-002
7.829575e+002, 4.583630e-002
7.848859e+002, 4.870615e-002
7.868144e+002, 5.217534e-002
7.887429e+002, 5.587417e-002
7.906713e+002, 5.980109e-002
7.925998e+002, 6.397223e-002
7.945283e+002, 6.825742e-002
7.964567e+002, 7.294399e-002
7.983852e+002, 7.810535e-002
8.003137e+002, 8.354257e-002
8.022421e+002, 8.888604e-002
8.041706e+002, 9.448793e-002
8.060991e+002, 1.004148e-001
8.080275e+002, 1.062748e-001
8.099560e+002, 1.120593e-001
8.118845e+002, 1.181470e-001
8.138129e+002, 1.243052e-001
8.157414e+002, 1.305656e-001
8.176699e+002, 1.368227e-001
8.195983e+002, 1.429359e-001
8.215268e+002, 1.491212e-001
8.234553e+002, 1.552477e-001
8.253837e+002, 1.614765e-001
8.273122e+002, 1.679318e-001
8.292407e+002, 1.745091e-001
8.311691e+002, 1.809426e-001
8.330976e+002, 1.868355e-001
8.350261e+002, 1.924798e-001
8.369545e+002, 1.979728e-001
8.388830e+002, 2.029868e-001
8.408115e+002, 2.077012e-001
8.427399e+002, 2.120369e-001
8.446684e+002, 2.155156e-001
8.465969e+002, 2.185087e-001
8.485253e+002, 2.208684e-001
8.504538e+002, 2.228944e-001
8.523823e+002, 2.255130e-001
8.543107e+002, 2.284328e-001
8.562392e+002, 2.306225e-001
8.581677e+002, 2.320993e-001
8.600961e+002, 2.332456e-001
8.620246e+002, 2.338763e-001
8.639531e+002, 2.337806e-001
8.658815e+002, 2.334358e-001
8.678100e+002, 2.325943e-001
8.697385e+002, 2.311286e-001
8.716669e+002, 2.288676e-001
8.735954e+002, 2.258365e-001
8.755239e+002, 2.222623e-001
8.774523e+002, 2.180667e-001
8.793808e+002, 2.129055e-001
8.813093e+002, 2.073982e-001
8.832377e+002, 2.016313e-001
8.851662e+002, 1.953658e-001
8.870947e+002, 1.893387e-001
8.890231e+002, 1.842165e-001
8.909516e+002, 1.797481e-001
8.928801e+002, 1.761575e-001
8.948085e+002, 1.730708e-001
8.967370e+002, 1.701839e-001
8.986655e+002, 1.670108e-001
9.005939e+002, 1.632383e-001
9.025224e+002, 1.591905e-001
9.044509e+002, 1.552593e-001
9.063793e+002, 1.515465e-001
9.083078e+002, 1.483782e-001
9.102363e+002, 1.453972e-001
9.121647e+002, 1.426968e-001
9.140932e+002, 1.403024e-001
9.160217e+002, 1.375673e-001
9.179501e+002, 1.345508e-001
9.198786e+002, 1.313734e-001
9.218071e+002, 1.279512e-001
9.237355e+002, 1.242714e-001
9.256640e+002, 1.210669e-001
9.275925e+002, 1.185153e-001
9.295209e+002, 1.163962e-001
9.314494e+002, 1.147108e-001
9.333779e+002, 1.136478e-001
9.353063e+002, 1.127763e-001
9.372348e+002, 1.113548e-001
9.391633e+002, 1.092370e-001
9.410917e+002, 1.058560e-001
9.430202e+002, 1.017886e-001
9.449487e+002, 9.782182e-002
9.468771e+002, 9.422081e-002
9.488056e+002, 9.068466e-002
9.507341e+002, 8.709555e-002
9.526625e+002, 8.382762e-002
9.545910e+002, 8.081642e-002
9.565195e+002, 7.776704e-002
9.584479e+002, 7.486045e-002
9.603764e+002, 7.196365e-002
9.623049e+002, 6.915335e-002
9.642333e+002, 6.637424e-002
9.661618e+002, 6.360926e-002
9.680903e+002, 6.100340e-002
9.700187e+002, 5.864907e-002
9.719472e+002, 5.618389e-002
9.738757e+002, 5.368297e-002
9.758041e+002, 5.109695e-002
9.777326e+002, 4.885491e-002
9.796611e+002, 4.732521e-002
9.815895e+002, 4.611796e-002
9.835180e+002, 4.524432e-002
9.854465e+002, 4.465269e-002
9.873749e+002, 4.457651e-002
9.893034e+002, 4.521072e-002
9.912319e+002, 4.626010e-002
9.931603e+002, 4.778079e-002
9.950888e+002, 4.965209e-002
9.970173e+002, 5.150517e-002
9.989457e+002, 5.250828e-002
1.000874e+003, 5.245678e-002
1.002803e+003, 5.166916e-002
1.004731e+003, 5.035413e-002
1.006660e+003, 4.835908e-002
1.008588e+003, 4.605452e-002
1.010517e+003, 4.360930e-002
1.012445e+003, 4.118727e-002
1.014373e+003, 3.891459e-002
1.016302e+003, 3.675554e-002
1.018230e+003, 3.448690e-002
1.020159e+003, 3.231082e-002
1.022087e+003, 3.042648e-002
1.024016e+003, 2.899478e-002
1.025944e+003, 2.759272e-002
1.027873e+003, 2.619532e-002
1.029801e+003, 2.498384e-002
1.031730e+003, 2.396224e-002
1.033658e+003, 2.273176e-002
1.035587e+003, 2.152923e-002
1.037515e+003, 2.044129e-002
1.039443e+003, 1.950216e-002
1.041372e+003, 1.831249e-002
1.043300e+003, 1.717585e-002
1.045229e+003, 1.636357e-002
1.047157e+003, 1.560494e-002
1.049086e+003, 1.482373e-002
1.051014e+003, 1.431554e-002
1.052943e+003, 1.385553e-002
1.054871e+003, 1.331152e-002
1.056800e+003, 1.264018e-002
1.058728e+003, 1.224306e-002
1.060657e+003, 1.180592e-002
1.062585e+003, 1.127372e-002
1.064514e+003, 1.089619e-002
1.066442e+003, 1.059991e-002
1.068370e+003, 1.008906e-002
1.070299e+003, 9.818324e-003
1.072227e+003, 9.722309e-003
1.074156e+003, 9.497456e-003
1.076084e+003, 9.190618e-003
1.078013e+003, 9.030007e-003
1.079941e+003, 8.827115e-003
1.081870e+003, 8.541839e-003
1.083798e+003, 8.338432e-003
1.085727e+003, 8.279856e-003
1.087655e+003, 8.183813e-003
1.089584e+003, 8.092104e-003
1.091512e+003, 8.102930e-003
1.093441e+003, 7.979872e-003
1.095369e+003, 7.747162e-003
1.097297e+003, 7.607537e-003
1.099226e+003, 7.441563e-003
1.101154e+003, 7.500537e-003
1.103083e+003, 7.448110e-003
1.105011e+003, 7.356349e-003
1.106940e+003, 7.152700e-003
1.108868e+003, 7.025485e-003
1.110797e+003, 7.060112e-003
1.112725e+003, 7.141774e-003
1.114654e+003, 7.087212e-003
1.116582e+003, 6.996993e-003
1.118511e+003, 6.950350e-003
1.120439e+003, 6.934655e-003
1.122368e+003, 6.819522e-003
1.124296e+003, 6.732764e-003
1.126224e+003, 6.697665e-003
1.128153e+003, 6.818512e-003
1.130081e+003, 6.907061e-003
1.132010e+003, 6.949319e-003
1.133938e+003, 6.932616e-003
1.135867e+003, 7.093862e-003
1.137795e+003, 7.178540e-003
1.139724e+003, 7.222894e-003
1.141652e+003, 7.301600e-003
1.143581e+003, 7.462694e-003
1.145509e+003, 7.751500e-003
1.147438e+003, 8.412527e-003
1.149366e+003, 9.407419e-003
1.151295e+003, 1.050402e-002
1.153223e+003, 1.195758e-002
1.155151e+003, 1.417687e-002
1.157080e+003, 1.704329e-002
1.159008e+003, 2.058207e-002
1.160937e+003, 2.407564e-002
1.162865e+003, 2.627237e-002
1.164794e+003, 2.585174e-002
1.166722e+003, 2.311436e-002
1.168651e+003, 1.930493e-002
1.170579e+003, 1.533741e-002
1.172508e+003, 1.204782e-002
1.174436e+003, 9.820405e-003
1.176365e+003, 8.122678e-003
1.178293e+003, 6.936355e-003
1.180222e+003, 6.287664e-003
1.182150e+003, 5.838686e-003
1.184078e+003, 5.413598e-003
1.186007e+003, 4.983217e-003
1.187935e+003, 4.517196e-003
1.189864e+003, 4.020549e-003
1.191792e+003, 3.705841e-003
1.193721e+003, 3.667023e-003
1.195649e+003, 3.566630e-003
1.197578e+003, 3.563353e-003
1.199506e+003, 3.526075e-003
1.201435e+003, 3.351060e-003
1.203363e+003, 3.212555e-003
1.205292e+003, 3.146023e-003
1.207220e+003, 2.842135e-003
1.209149e+003, 2.666647e-003
1.211077e+003, 2.745237e-003
1.213005e+003, 2.693129e-003
1.214934e+003, 2.583766e-003
1.216862e+003, 2.494077e-003
1.218791e+003, 2.329348e-003
1.220719e+003, 2.454275e-003
1.222648e+003, 2.345671e-003
1.224576e+003, 2.205485e-003
1.226505e+003, 2.157379e-003
1.228433e+003, 2.025883e-003
1.230362e+003, 1.912367e-003
1.232290e+003, 1.924215e-003
1.234219e+003, 1.928786e-003
1.236147e+003, 1.834428e-003
1.238076e+003, 1.718713e-003
1.240004e+003, 1.799875e-003
1.241932e+003, 1.797224e-003
1.243861e+003, 1.945882e-003
1.245789e+003, 1.944756e-003
1.247718e+003, 1.861597e-003
1.249646e+003, 1.641488e-003
1.251575e+003, 1.413300e-003
1.253503e+003, 1.268335e-003
1.255432e+003, 1.277708e-003
1.257360e+003, 1.297711e-003
1.259289e+003, 1.245123e-003
1.261217e+003, 1.244056e-003
1.263146e+003, 1.311276e-003
1.265074e+003, 1.199338e-003
1.267003e+003, 1.066593e-003
1.268931e+003, 1.033336e-003
1.270859e+003, 1.276316e-003
1.272788e+003, 1.319637e-003
1.274716e+003, 1.015579e-003
1.276645e+003, 1.022878e-003
1.278573e+003, 1.288351e-003
1.280502e+003, 1.220810e-003
1.282430e+003, 1.070214e-003
1.284359e+003, 1.037629e-003
1.286287e+003, 1.164865e-003
1.288216e+003, 1.163831e-003
1.290144e+003, 1.060119e-003
1.292073e+003, 1.059130e-003
1.294001e+003, 1.054568e-003
1.295930e+003, 9.646005e-004
1.297858e+003, 9.669836e-004
1.299786e+003, 9.950391e-004
1.301715e+003, 1.078788e-003
1.303643e+003, 1.069697e-003
1.305572e+003, 1.196287e-003
1.307500e+003, 1.257231e-003
1.309429e+003, 1.145215e-003
1.311357e+003, 1.001677e-003
1.313286e+003, 1.114362e-003
1.315214e+003, 1.184161e-003
1.317143e+003, 1.056113e-003
1.319071e+003, 9.652328e-004
1.321000e+003, 1.025354e-003
1.322928e+003, 1.070326e-003
1.324857e+003, 1.047566e-003
1.326785e+003, 1.075913e-003
1.328714e+003, 1.101736e-003
1.330642e+003, 1.034252e-003
1.332570e+003, 1.055788e-003
1.334499e+003, 1.164173e-003
1.336427e+003, 1.293478e-003
1.338356e+003, 1.243481e-003
1.340284e+003, 1.093845e-003
1.342213e+003, 9.189119e-004
1.344141e+003, 9.891542e-004
1.346070e+003, 1.037173e-003
1.347998e+003, 1.055125e-003
1.349927e+003, 1.109063e-003
1.351855e+003, 1.126938e-003
1.353784e+003, 1.045813e-003
1.355712e+003, 1.067238e-003
1.357641e+003, 1.030181e-003
1.359569e+003, 1.113284e-003
1.361497e+003, 1.106457e-003
1.363426e+003, 1.037829e-003
1.365354e+003, 1.095269e-003
1.367283e+003, 1.080250e-003
1.369211e+003, 1.007876e-003
1.371140e+003, 1.059812e-003
1.373068e+003, 1.151961e-003
1.374997e+003, 1.031074e-003
1.376925e+003, 9.049340e-004
1.378854e+003, 1.071084e-003
1.380782e+003, 1.050491e-003
1.382711e+003, 1.080505e-003
1.384639e+003, 1.136571e-003
1.386568e+003, 1.400994e-003
1.388496e+003, 1.400683e-003
1.390424e+003, 1.254878e-003
1.392353e+003, 1.335862e-003
1.394281e+003, 1.498628e-003
1.396210e+003, 1.355188e-003
1.398138e+003, 1.236447e-003
1.400067e+003, 1.114052e-003
1.401995e+003, 1.120752e-003
1.403924e+003, 1.191131e-003
1.405852e+003, 1.137836e-003
1.407781e+003, 9.605779e-004
1.409709e+003, 1.044798e-003
1.411638e+003, 1.271914e-003
1.413566e+003, 1.347484e-003
1.415495e+003, 1.200713e-003
1.417423e+003, 1.272373e-003
1.419351e+003, 1.408806e-003
1.421280e+003, 1.326850e-003
1.423208e+003, 1.374351e-003
1.425137e+003, 1.520952e-003
1.427065e+003, 1.599472e-003
1.428994e+003, 1.771222e-003
1.430922e+003, 1.763723e-003
1.432851e+003, 1.659079e-003
1.434779e+003, 1.718563e-003
1.436708e+003, 1.912846e-003
1.438636e+003, 1.540424e-003
1.440565e+003, 1.460193e-003
1.442493e+003, 1.629846e-003
1.444422e+003, 1.759964e-003
1.446350e+003, 1.804270e-003
1.448278e+003, 1.928348e-003
1.450207e+003, 1.863104e-003
1.452135e+003, 1.828376e-003
1.454064e+003, 2.039238e-003
1.455992e+003, 2.544668e-003
1.457921e+003, 2.437319e-003
1.459849e+003, 2.028911e-003
1.461778e+003, 1.936411e-003
1.463706e+003, 2.075191e-003
1.465635e+003, 2.133421e-003
1.467563e+003, 1.952659e-003
1.469492e+003, 1.918841e-003
1.471420e+003, 2.234646e-003
1.473349e+003, 2.217245e-003
1.475277e+003, 1.929680e-003
1.477205e+003, 1.776988e-003
1.479134e+003, 1.890190e-003
1.481062e+003, 1.933507e-003
1.482991e+003, 1.701272e-003
1.484919e+003, 1.662244e-003
1.486848e+003, 1.886559e-003
1.488776e+003, 1.991325e-003
1.490705e+003, 1.815466e-003
1.492633e+003, 1.566314e-003
1.494562e+003, 1.666037e-003
1.496490e+003, 1.824899e-003
1.498419e+003, 1.641617e-003
1.500347e+003, 1.472110e-003
1.502276e+003, 1.561962e-003
1.504204e+003, 1.998262e-003
1.506132e+003, 2.571775e-003
1.508061e+003, 2.249477e-003
1.509989e+003, 1.811258e-003
1.511918e+003, 1.625821e-003
1.513846e+003, 1.562881e-003
1.515775e+003, 1.782743e-003
1.517703e+003, 1.907099e-003
1.519632e+003, 1.937700e-003
1.521560e+003, 2.044025e-003
1.523489e+003, 1.683961e-003
1.525417e+003, 1.578221e-003
1.527346e+003, 1.409184e-003
1.529274e+003, 1.276870e-003
1.531203e+003, 1.462316e-003
1.533131e+003, 1.789200e-003
1.535059e+003, 1.574176e-003
1.536988e+003, 1.616023e-003
1.538916e+003, 2.260762e-003
1.540845e+003, 2.399310e-003
1.542773e+003, 1.894155e-003
1.544702e+003, 1.512808e-003
1.546630e+003, 1.382813e-003
1.548559e+003, 1.473029e-003
1.550487e+003, 1.445362e-003
1.552416e+003, 1.476131e-003
1.554344e+003, 1.640570e-003
1.556273e+003, 1.931775e-003
1.558201e+003, 2.582472e-003
1.560130e+003, 2.491285e-003
1.562058e+003, 1.674446e-003
1.563986e+003, 1.504168e-003
1.565915e+003, 1.502695e-003
1.567843e+003, 1.561089e-003
1.569772e+003, 1.573435e-003
1.571700e+003, 1.449898e-003
1.573629e+003, 1.713403e-003
1.575557e+003, 2.142329e-003
1.577486e+003, 1.956325e-003
1.579414e+003, 1.562697e-003
1.581343e+003, 1.568648e-003
1.583271e+003, 1.594275e-003
1.585200e+003, 1.475458e-003
1.587128e+003, 1.281392e-003
1.589057e+003, 1.175400e-003
1.590985e+003, 1.264384e-003
1.592913e+003, 1.349202e-003
1.594842e+003, 1.532890e-003
1.596770e+003, 1.690441e-003
1.598699e+003, 1.569831e-003
1.600627e+003, 1.479188e-003
1.602556e+003, 1.650312e-003
1.604484e+003, 1.626719e-003
1.606413e+003, 1.467145e-003
1.608341e+003, 1.425385e-003
1.610270e+003, 1.625526e-003
1.612198e+003, 1.572218e-003
1.614127e+003, 1.659172e-003
1.616055e+003, 2.230967e-003
1.617984e+003, 2.083381e-003
1.619912e+003, 1.467910e-003
1.621840e+003, 1.536759e-003
1.623769e+003, 1.698044e-003
1.625697e+003, 1.749630e-003
1.627626e+003, 1.861788e-003
1.629554e+003, 1.820470e-003
1.631483e+003, 1.677012e-003
1.633411e+003, 1.920121e-003
1.635340e+003, 2.119751e-003
1.637268e+003, 1.778235e-003
1.639197e+003, 1.411097e-003
1.641125e+003, 1.474110e-003
1.643054e+003, 1.466186e-003
1.644982e+003, 1.765140e-003
1.646911e+003, 2.026662e-003
1.648839e+003, 1.913442e-003
1.650767e+003, 2.397473e-003
1.652696e+003, 3.280300e-003
1.654624e+003, 2.473158e-003
1.656553e+003, 1.628071e-003
1.658481e+003, 1.426542e-003
1.660410e+003, 1.367676e-003
1.662338e+003, 1.442608e-003
1.664267e+003, 1.318258e-003
1.666195e+003, 1.297828e-003
1.668124e+003, 1.727308e-003
1.670052e+003, 1.720762e-003
1.671981e+003, 1.416338e-003
1.673909e+003, 1.450149e-003
1.675838e+003, 1.484591e-003
1.677766e+003, 1.162838e-003
1.679694e+003, 1.338953e-003
1.681623e+003, 1.453649e-003
1.683551e+003, 1.729807e-003
1.685480e+003, 1.542212e-003
1.687408e+003, 1.060162e-003
1.689337e+003, 8.914885e-004
1.691265e+003, 1.043617e-003
1.693194e+003, 1.272323e-003
1.695122e+003, 1.769283e-003
1.697051e+003, 1.666013e-003
1.698979e+003, 1.986361e-003
1.700908e+003, 1.952732e-003
1.702836e+003, 1.125738e-003
1.704765e+003, 1.045611e-003
1.706693e+003, 9.117448e-004
1.708621e+003, 9.438947e-004
1.710550e+003, 1.090253e-003
1.712478e+003, 1.059207e-003
1.714407e+003, 1.196768e-003
1.716335e+003, 1.806588e-003
1.718264e+003, 1.654142e-003
1.720192e+003, 9.631846e-004
1.722121e+003, 9.926037e-004
1.724049e+003, 9.700918e-004
1.725978e+003, 8.450949e-004
1.727906e+003, 8.097583e-004
1.729835e+003, 1.020237e-003
1.731763e+003, 1.428519e-003
1.733692e+003, 1.819962e-003
1.735620e+003, 1.176786e-003
1.737548e+003, 8.179079e-004
1.739477e+003, 8.676879e-004
1.741405e+003, 6.714042e-004
1.743334e+003, 5.210345e-004
1.745262e+003, 2.142237e-004
1.747191e+003, 1.693515e-004
1.749119e+003, 7.768834e-004
1.751048e+003, 9.623943e-004
1.752976e+003, 2.171459e-004
1.754905e+003, -8.076201e-005
1.756833e+003, 1.945077e-004
1.758762e+003, 8.427013e-005
1.760690e+003, 2.649623e-004
1.762619e+003, 2.557296e-004
1.764547e+003, 2.695198e-004
1.766475e+003, 5.630355e-004
1.768404e+003, 6.005340e-004
1.770332e+003, 5.933226e-004
1.772261e+003, 1.000336e-003
1.774189e+003, 7.907842e-004
1.776118e+003, 3.545348e-004
1.778046e+003, 2.026313e-004
1.779975e+003, 4.754479e-004
1.781903e+003, 6.396854e-004
1.783832e+003, 7.098872e-004
1.785760e+003, 8.095053e-004
1.787689e+003, 6.559902e-004
1.789617e+003, 4.115132e-004
1.791546e+003, 6.511673e-004
1.793474e+003, 1.073897e-003
1.795402e+003, 1.088932e-003
1.797331e+003, 8.736525e-004
1.799259e+003, 1.011814e-003
1.801188e+003, 1.255434e-003
1.803116e+003, 1.212498e-003
1.805045e+003, 1.139161e-003
1.806973e+003, 1.247773e-003
1.808902e+003, 1.317724e-003
1.810830e+003, 1.360779e-003
1.812759e+003, 1.212785e-003
1.814687e+003, 9.409621e-004
1.816616e+003, 9.514838e-004
1.818544e+003, 1.418487e-003
1.820473e+003, 1.649591e-003
1.822401e+003, 1.542368e-003
1.824329e+003, 1.425967e-003
1.826258e+003, 1.195575e-003
1.828186e+003, 1.288814e-003
1.830115e+003, 1.471253e-003
1.832043e+003, 1.419774e-003
1.833972e+003, 1.315413e-003
1.835900e+003, 9.392330e-004
1.837829e+003, 1.011858e-003
1.839757e+003, 7.103613e-004
1.841686e+003, 6.245038e-004
1.843614e+003, 1.138910e-003
1.845543e+003, 1.573840e-003
1.847471e+003, 1.144542e-003
1.849400e+003, 8.950973e-004
1.851328e+003, 1.091769e-003
1.853256e+003, 9.086442e-004
1.855185e+003, 1.020060e-003
1.857113e+003, 1.365110e-003
1.859042e+003, 1.322227e-003
1.860970e+003, 1.125365e-003
1.862899e+003, 1.057861e-003
1.864827e+003, 1.093110e-003
1.866756e+003, 1.432175e-003
1.868684e+003, 1.697931e-003
1.870613e+003, 1.467174e-003
1.872541e+003, 1.176228e-003
1.874470e+003, 9.757542e-004
1.876398e+003, 1.255611e-003
1.878327e+003, 1.407760e-003
1.880255e+003, 1.153435e-003
1.882183e+003, 6.324943e-004
1.884112e+003, 5.224414e-004
1.886040e+003, 6.210323e-004
1.887969e+003, 1.357714e-003
1.889897e+003, 1.798911e-003
1.891826e+003, 1.657590e-003
1.893754e+003, 1.196716e-003
1.895683e+003, 8.441184e-004
1.897611e+003, 7.365385e-004
1.899540e+003, 1.042180e-003
1.901468e+003, 1.121086e-003
1.903397e+003, 1.285047e-003
1.905325e+003, 1.129365e-003
1.907254e+003, 6.781073e-004
1.909182e+003, 7.668628e-004
1.911110e+003, 1.242627e-003
1.913039e+003, 8.294487e-004
1.914967e+003, 9.881321e-004
1.916896e+003, 1.465425e-003
1.918824e+003, 1.727562e-003
1.920753e+003, 1.141378e-003
1.922681e+003, 4.676070e-004
1.924610e+003, 4.449786e-004
1.926538e+003, 6.231880e-004
1.928467e+003, 3.061907e-004
1.930395e+003, 2.874935e-004
1.932324e+003, 9.982198e-005
1.934252e+003, 1.444704e-004
1.936181e+003, 5.390620e-004
1.938109e+003, 5.289321e-004
1.940037e+003, 3.073205e-004
1.941966e+003, 9.409938e-004
1.943894e+003, 1.241560e-003
1.945823e+003, 6.037471e-004
1.947751e+003, -3.920997e-004
1.949680e+003, 2.846789e-004
1.951608e+003, 9.448246e-004
1.953537e+003, 9.053235e-004
1.955465e+003, 7.715102e-004
1.957394e+003, 3.554223e-004
1.959322e+003, -1.176969e-003
1.961251e+003, -8.133432e-004
1.963179e+003, 2.680022e-005
1.965108e+003, 3.356530e-004
1.967036e+003, 1.075408e-005
1.968964e+003, 1.291845e-004
1.970893e+003, -3.683639e-004
1.972821e+003, -5.916987e-004
1.974750e+003, -8.489452e-004
1.976678e+003, 5.757233e-005
1.978607e+003, 9.946501e-004
1.980535e+003, 1.264042e-003
1.982464e+003, 1.068011e-003
1.984392e+003, 6.264395e-004
1.986321e+003, -1.193798e-004
1.988249e+003, 4.711614e-004
1.990178e+003, 7.469251e-004
1.992106e+003, 1.828397e-003
1.994035e+003, 2.454490e-003
1.995963e+003, 7.617390e-004
1.997891e+003, -1.586626e-004
1.999820e+003, -9.329204e-005
2.001748e+003, -1.214906e-003
2.003677e+003, -1.623510e-003
2.005605e+003, -3.185213e-004
2.007534e+003, 1.883319e-004
2.009462e+003, -6.626348e-004
2.011391e+003, 2.923561e-004
2.013319e+003, 3.070506e-004
2.015248e+003, 5.308751e-004
2.017176e+003, 5.172052e-004
2.019105e+003, -2.199432e-004
2.021033e+003, -1.369103e-003
2.022962e+003, -1.072612e-003
2.024890e+003, -2.596108e-004
2.026818e+003, 1.120887e-003
2.028747e+003, 8.963718e-004
2.030675e+003, 4.692995e-004
2.032604e+003, 5.218348e-004
2.034532e+003, 1.163223e-003
2.036461e+003, -9.044603e-004
2.038389e+003, -1.555296e-003
2.040318e+003, -1.645439e-003
2.042246e+003, -1.304083e-003
2.044175e+003, 1.433320e-004
2.046103e+003, 1.877889e-003
2.048031e+003, 2.322129e-003
2.049960e+003, 1.172247e-003
2.051888e+003, 3.004868e-004
2.053817e+003, -1.518094e-004
2.055745e+003, 1.567467e-004
2.057674e+003, 1.277767e-004
2.059602e+003, -2.961695e-005
2.061531e+003, 1.285638e-003
2.063459e+003, 2.061080e-003
2.065388e+003, 1.617473e-003
2.067316e+003, 1.392490e-003
2.069245e+003, 1.380124e-003
2.071173e+003, 5.314620e-004
2.073102e+003, 8.157225e-004
2.075030e+003, 6.624144e-004
2.076958e+003, -1.714094e-004
2.078887e+003, 5.469390e-005
2.080815e+003, 5.912660e-004
2.082744e+003, 1.021783e-003
2.084672e+003, 1.023697e-003
2.086601e+003, 4.394755e-004
2.088529e+003, 3.804800e-004
2.090458e+003, -3.276190e-005
2.092386e+003, 3.258479e-006
2.094315e+003, 5.605220e-004
2.096243e+003, 1.011369e-003
2.098172e+003, 8.930859e-004
2.100100e+003, 8.498174e-004
2.102029e+003, 1.063877e-003
2.103957e+003, 9.335798e-004
2.105885e+003, 8.181464e-004
2.107814e+003, 9.090048e-004
2.109742e+003, 1.412736e-003
2.111671e+003, 9.856815e-004
2.113599e+003, -7.983623e-006
2.115528e+003, 3.070255e-005
2.117456e+003, 1.093858e-004
2.119385e+003, 9.571561e-004
2.121313e+003, 1.661904e-003
2.123242e+003, 1.570458e-003
2.125170e+003, 9.969171e-004
2.127099e+003, 4.226205e-004
2.129027e+003, 3.688032e-004
2.130956e+003, 6.753922e-004
2.132884e+003, 1.221983e-004
2.134813e+003, 5.037698e-004
2.136741e+003, 1.318787e-003
2.138669e+003, 1.521251e-003
2.140598e+003, -3.464830e-004
2.142526e+003, -8.212112e-004
2.144455e+003, -4.591827e-004
2.146383e+003, 7.289916e-005
2.148312e+003, 6.194199e-004
2.150240e+003, 5.297228e-004
2.152169e+003, -2.388581e-004
2.154097e+003, 6.120176e-004
2.156026e+003, -7.081098e-004
2.157954e+003, -2.198244e-003
2.159883e+003, -1.831186e-004
2.161811e+003, 1.876347e-003
2.163740e+003, 1.167242e-004
2.165668e+003, -7.735129e-004
2.167596e+003, 2.471693e-004
2.169525e+003, 6.590576e-004
2.171453e+003, -1.569078e-004
2.173382e+003, -9.393011e-004
2.175310e+003, -2.562456e-003
2.177239e+003, -3.167294e-003
2.179167e+003, -2.404966e-003
2.181096e+003, -1.749305e-003
2.183024e+003, -1.761854e-004
2.184953e+003, 1.060547e-003
2.186881e+003, -1.479522e-004
2.188810e+003, -7.281532e-004
2.190738e+003, 5.422478e-005
2.192667e+003, 3.200854e-004
2.194595e+003, -3.839348e-004
2.196523e+003, -6.123174e-004
2.198452e+003, 2.121441e-004
2.200380e+003, 3.869255e-004
2.202309e+003, 2.563099e-004
2.204237e+003, 8.554793e-004
2.206166e+003, -1.461984e-007
2.208094e+003, -1.227695e-003
2.210023e+003, -1.713592e-003
2.211951e+003, -1.129627e-003
2.213880e+003, -6.952252e-004
2.215808e+003, -1.704226e-003
2.217737e+003, -2.427741e-003
2.219665e+003, -2.213706e-003
2.221594e+003, -1.803461e-003
2.223522e+003, -9.940907e-004
2.225450e+003, -3.897014e-004
2.227379e+003, -5.429569e-004
2.229307e+003, -8.439200e-004
2.231236e+003, -4.849324e-004
2.233164e+003, -7.537773e-004
2.235093e+003, -9.610887e-004
2.237021e+003, -1.064469e-003
2.238950e+003, -4.971380e-004
2.240878e+003, -9.747027e-004
2.242807e+003, -1.682410e-003
2.244735e+003, -1.851496e-003
2.246664e+003, -1.017822e-003
2.248592e+003, -1.409138e-003
2.250521e+003, -1.203545e-003
2.252449e+003, -8.881741e-004
2.254377e+003, -9.096810e-004
2.256306e+003, -1.922374e-003
2.258234e+003, -2.092401e-003
2.260163e+003, -1.555844e-003
2.262091e+003, -1.267149e-003
2.264020e+003, -1.578272e-003
2.265948e+003, -1.552781e-003
2.267877e+003, -1.643453e-003
2.269805e+003, -1.147454e-003
2.271734e+003, -1.077453e-003
2.273662e+003, -6.347244e-004
2.275591e+003, -6.798697e-004
2.277519e+003, -9.070315e-004
2.279448e+003, -7.869083e-004
2.281376e+003, -5.450139e-004
2.283304e+003, -5.825245e-004
2.285233e+003, -6.953111e-004
2.287161e+003, -5.964596e-004
2.289090e+003, -7.125527e-004
2.291018e+003, -8.304958e-004
2.292947e+003, -6.379822e-004
2.294875e+003, -6.444459e-004
2.296804e+003, -7.913031e-004
2.298732e+003, -6.780305e-004
2.300661e+003, -6.917780e-004
2.302589e+003, -8.244753e-004
2.304518e+003, -6.064803e-004
2.306446e+003, -7.995885e-004
2.308375e+003, -1.052656e-003
2.310303e+003, -6.014236e-004
2.312231e+003, 6.067978e-005
2.314160e+003, 6.379768e-005
2.316088e+003, -3.258678e-004
2.318017e+003, -1.075216e-004
2.319945e+003, 3.845729e-004
2.321874e+003, 5.067315e-004
2.323802e+003, 5.466724e-004
2.325731e+003, 3.006591e-004
2.327659e+003, 8.707759e-005
2.329588e+003, 3.981402e-004
2.331516e+003, 5.471731e-004
2.333445e+003, 3.180525e-004
2.335373e+003, 6.670831e-004
2.337302e+003, 6.704238e-004
2.339230e+003, 6.641517e-004
2.341158e+003, 9.359494e-004
2.343087e+003, 6.484666e-004
2.345015e+003, -3.970384e-005
2.346944e+003, -3.558625e-004
2.348872e+003, -3.314140e-004
2.350801e+003, 2.819712e-005
2.352729e+003, 5.997312e-004
2.354658e+003, 1.002103e-003
2.356586e+003, 4.789183e-004
2.358515e+003, 3.524496e-005
2.360443e+003, 5.600062e-005
2.362372e+003, 5.210519e-004
2.364300e+003, 9.641766e-004
2.366229e+003, 9.666110e-004
2.368157e+003, 6.061763e-004
2.370085e+003, 2.592619e-004
2.372014e+003, 2.908034e-005
2.373942e+003, 2.093310e-004
2.375871e+003, 1.803683e-004
2.377799e+003, -8.752764e-005
2.379728e+003, -5.666972e-004
2.381656e+003, -5.977578e-004
2.383585e+003, -5.905853e-004
2.385513e+003, -7.179240e-004
2.387442e+003, -7.969197e-004
2.389370e+003, -5.722376e-004
2.391299e+003, -4.508193e-004
2.393227e+003, -6.034357e-004
2.395156e+003, -9.692626e-004
2.397084e+003, -7.512489e-004
2.399012e+003, -6.465217e-004
2.400941e+003, -1.015078e-003
2.402869e+003, -1.092805e-003
2.404798e+003, -6.128832e-004
2.406726e+003, -6.096289e-004
2.408655e+003, -9.856489e-004
2.410583e+003, -1.493187e-003
2.412512e+003, -1.543391e-003
2.414440e+003, -1.113411e-003
2.416369e+003, -6.563200e-004
2.418297e+003, -6.459531e-004
2.420226e+003, -2.997144e-004
2.422154e+003, -7.443494e-004
2.424083e+003, -1.078622e-003
2.426011e+003, -1.171662e-003
2.427939e+003, -8.249874e-004
2.429868e+003, -9.047206e-004
2.431796e+003, -9.340984e-004
2.433725e+003, -8.375893e-004
2.435653e+003, -5.692068e-004
2.437582e+003, -2.453415e-004
2.439510e+003, -2.610804e-005
2.441439e+003, -2.010852e-004
2.443367e+003, -3.273462e-004
2.445296e+003, -7.107347e-004
2.447224e+003, -7.805755e-004
2.449153e+003, -5.558967e-004
2.451081e+003, -4.756466e-004
2.453010e+003, -6.818677e-004
2.454938e+003, -8.173365e-004
2.456866e+003, -8.664582e-004
2.458795e+003, -7.965590e-004
2.460723e+003, -1.156419e-003
2.462652e+003, -1.388787e-003
2.464580e+003, -1.172588e-003
2.466509e+003, -6.692037e-004
2.468437e+003, -5.348503e-004
2.470366e+003, -6.816206e-004
2.472294e+003, -1.165784e-003
2.474223e+003, -1.656951e-003
2.476151e+003, -1.436385e-003
2.478080e+003, -8.312767e-004
2.480008e+003, -1.251666e-003
2.481937e+003, -1.432021e-003
2.483865e+003, -1.100865e-003
2.485793e+003, -9.524532e-004
2.487722e+003, -9.077309e-004
2.489650e+003, -1.118593e-003
2.491579e+003, -1.718772e-003
2.493507e+003, -1.513119e-003
2.495436e+003, -9.540824e-004
2.497364e+003, -1.069897e-003
2.499293e+003, -1.556157e-003
2.501221e+003, -1.933009e-003
2.503150e+003, -2.212728e-003
2.505078e+003, -1.649105e-003
2.507007e+003, -1.360539e-003
2.508935e+003, -1.773821e-003
2.510864e+003, -1.781248e-003
2.512792e+003, -1.183550e-003
2.514720e+003, -1.537890e-003
2.516649e+003, -1.574458e-003
2.518577e+003, -1.566415e-003
2.520506e+003, -2.044363e-003
2.522434e+003, -2.063112e-003
2.524363e+003, -1.948973e-003
2.526291e+003, -1.937678e-003
2.528220e+003, -2.174445e-003
2.530148e+003, -2.625728e-003
2.532077e+003, -2.539006e-003
2.534005e+003, -2.507348e-003
2.535934e+003, -2.443444e-003
2.537862e+003, -2.248448e-003
2.539791e+003, -1.391694e-003
2.541719e+003, -1.569370e-003
2.543647e+003, -2.142712e-003
2.545576e+003, -2.316895e-003
2.547504e+003, -1.665067e-003
2.549433e+003, -1.550008e-003
2.551361e+003, -1.627323e-003
2.553290e+003, -2.226825e-003
2.555218e+003, -1.925889e-003
2.557147e+003, -1.939607e-003
2.559075e+003, -2.288397e-003
2.561004e+003, -1.717694e-003
2.562932e+003, -1.470018e-003
2.564861e+003, -1.591127e-003
2.566789e+003, -2.062124e-003
2.568718e+003, -3.018325e-003
2.570646e+003, -3.025093e-003
2.572574e+003, -2.407729e-003
2.574503e+003, -2.179686e-003
2.576431e+003, -2.393876e-003
2.578360e+003, -2.231296e-003
2.580288e+003, -2.126559e-003
2.582217e+003, -2.240184e-003
2.584145e+003, -2.673906e-003
2.586074e+003, -2.704025e-003
2.588002e+003, -2.578402e-003
2.589931e+003, -2.575357e-003
2.591859e+003, -2.594068e-003
2.593788e+003, -2.607059e-003
2.595716e+003, -2.471011e-003
2.597645e+003, -2.593676e-003
2.599573e+003, -2.663661e-003
2.601501e+003, -2.691951e-003
2.603430e+003, -2.330212e-003
2.605358e+003, -2.347531e-003
2.607287e+003, -2.962665e-003
2.609215e+003, -2.971841e-003
2.611144e+003, -2.826642e-003
2.613072e+003, -2.959222e-003
2.615001e+003, -3.263057e-003
2.616929e+003, -2.964541e-003
2.618858e+003, -2.687749e-003
2.620786e+003, -2.519310e-003
2.622715e+003, -2.932437e-003
2.624643e+003, -3.192880e-003
2.626572e+003, -3.021295e-003
2.628500e+003, -2.375335e-003
2.630428e+003, -2.360987e-003
2.632357e+003, -2.290385e-003
2.634285e+003, -2.501108e-003
2.636214e+003, -2.562466e-003
2.638142e+003, -2.706582e-003
2.640071e+003, -2.701841e-003
2.641999e+003, -2.115469e-003
2.643928e+003, -2.116576e-003
2.645856e+003, -2.578661e-003
2.647785e+003, -2.819312e-003
2.649713e+003, -2.604145e-003
2.651642e+003, -2.597186e-003
2.653570e+003, -2.929051e-003
2.655499e+003, -2.922315e-003
2.657427e+003, -3.142583e-003
2.659355e+003, -2.969274e-003
2.661284e+003, -2.861306e-003
2.663212e+003, -2.916897e-003
2.665141e+003, -3.035011e-003
2.667069e+003, -3.125783e-003
2.668998e+003, -2.921469e-003
2.670926e+003, -2.976544e-003
2.672855e+003, -3.076654e-003
2.674783e+003, -3.080376e-003
2.676712e+003, -3.381272e-003
2.678640e+003, -3.338043e-003
2.680569e+003, -2.887621e-003
2.682497e+003, -2.825417e-003
2.684426e+003, -3.052802e-003
2.686354e+003, -3.270703e-003
2.688282e+003, -3.499265e-003
2.690211e+003, -3.452895e-003
2.692139e+003, -3.167798e-003
2.694068e+003, -3.133300e-003
2.695996e+003, -3.415609e-003
2.697925e+003, -3.626426e-003
2.699853e+003, -3.479185e-003
2.701782e+003, -3.075487e-003
2.703710e+003, -3.082953e-003
2.705639e+003, -3.422104e-003
2.707567e+003, -3.395382e-003
2.709496e+003, -3.285003e-003
2.711424e+003, -3.404787e-003
2.713353e+003, -3.437508e-003
2.715281e+003, -3.302693e-003
2.717209e+003, -3.204211e-003
2.719138e+003, -3.477267e-003
2.721066e+003, -3.482520e-003
2.722995e+003, -3.455841e-003
2.724923e+003, -3.471252e-003
2.726852e+003, -3.660535e-003
2.728780e+003, -3.572082e-003
2.730709e+003, -3.439468e-003
2.732637e+003, -3.448397e-003
2.734566e+003, -3.468990e-003
2.736494e+003, -3.540415e-003
2.738423e+003, -3.548066e-003
2.740351e+003, -3.384977e-003
2.742280e+003, -3.339610e-003
2.744208e+003, -3.059481e-003
2.746136e+003, -2.654787e-003
2.748065e+003, -2.888484e-003
2.749993e+003, -3.421692e-003
2.751922e+003, -3.528556e-003
2.753850e+003, -3.155689e-003
2.755779e+003, -2.868262e-003
2.757707e+003, -3.105974e-003
2.759636e+003, -3.401777e-003
2.761564e+003, -3.299221e-003
2.763493e+003, -3.238882e-003
2.765421e+003, -3.183935e-003
2.767350e+003, -3.095799e-003
2.769278e+003, -3.215372e-003
2.771207e+003, -3.381888e-003
2.773135e+003, -3.824796e-003
2.775063e+003, -3.623776e-003
2.776992e+003, -3.019395e-003
2.778920e+003, -2.936714e-003
2.780849e+003, -3.088108e-003
2.782777e+003, -3.206309e-003
2.784706e+003, -3.364226e-003
2.786634e+003, -3.315268e-003
2.788563e+003, -3.255087e-003
2.790491e+003, -3.428288e-003
2.792420e+003, -3.480293e-003
2.794348e+003, -3.437642e-003
2.796277e+003, -3.930045e-003
2.798205e+003, -3.687550e-003
2.800134e+003, -3.504895e-003
2.802062e+003, -3.513881e-003
2.803990e+003, -3.032254e-003
2.805919e+003, -2.773619e-003
2.807847e+003, -3.106583e-003
2.809776e+003, -2.952140e-003
2.811704e+003, -3.504328e-003
2.813633e+003, -3.665776e-003
2.815561e+003, -3.255899e-003
2.817490e+003, -3.246212e-003
2.819418e+003, -3.482737e-003
2.821347e+003, -3.576934e-003
2.823275e+003, -3.426307e-003
2.825204e+003, -3.363488e-003
2.827132e+003, -2.982431e-003
2.829061e+003, -2.448531e-003
2.830989e+003, -2.751512e-003
2.832917e+003, -3.098928e-003
2.834846e+003, -2.972671e-003
2.836774e+003, -3.035172e-003
2.838703e+003, -2.747372e-003
2.840631e+003, -2.535006e-003
2.842560e+003, -2.577801e-003
2.844488e+003, -2.840519e-003
2.846417e+003, -3.287347e-003
2.848345e+003, -3.126442e-003
2.850274e+003, -2.660378e-003
2.852202e+003, -2.418571e-003
2.854131e+003, -2.542617e-003
2.856059e+003, -2.964517e-003
2.857988e+003, -2.949419e-003
2.859916e+003, -2.301590e-003
2.861844e+003, -2.103606e-003
2.863773e+003, -2.186109e-003
2.865701e+003, -2.325201e-003
2.867630e+003, -2.512542e-003
2.869558e+003, -2.770878e-003
2.871487e+003, -2.677994e-003
2.873415e+003, -2.964106e-003
2.875344e+003, -3.294150e-003
2.877272e+003, -3.222191e-003
2.879201e+003, -3.105593e-003
2.881129e+003, -3.184614e-003
2.883058e+003, -3.109277e-003
2.884986e+003, -2.648231e-003
2.886915e+003, -2.613633e-003
2.888843e+003, -3.001506e-003
2.890771e+003, -3.394647e-003
2.892700e+003, -3.334300e-003
2.894628e+003, -2.718238e-003
2.896557e+003, -2.241409e-003
2.898485e+003, -2.526925e-003
2.900414e+003, -2.932705e-003
2.902342e+003, -2.939260e-003
2.904271e+003, -2.946589e-003
2.906199e+003, -2.760332e-003
2.908128e+003, -2.789181e-003
2.910056e+003, -3.257463e-003
2.911985e+003, -3.093216e-003
2.913913e+003, -2.383401e-003
2.915842e+003, -2.451032e-003
2.917770e+003, -2.609538e-003
2.919698e+003, -2.565597e-003
2.921627e+003, -2.194807e-003
2.923555e+003, -2.246539e-003
2.925484e+003, -2.152998e-003
2.927412e+003, -2.357459e-003
2.929341e+003, -2.471002e-003
2.931269e+003, -2.521096e-003
2.933198e+003, -2.531096e-003
2.935126e+003, -2.636318e-003
2.937055e+003, -2.588909e-003
2.938983e+003, -2.539587e-003
2.940912e+003, -2.516940e-003
2.942840e+003, -2.624953e-003
2.944769e+003, -2.597072e-003
2.946697e+003, -2.731768e-003
2.948625e+003, -2.677887e-003
2.950554e+003, -2.856209e-003
2.952482e+003, -3.169511e-003
2.954411e+003, -3.340505e-003
2.956339e+003, -3.313472e-003
2.958268e+003, -3.342128e-003
2.960196e+003, -2.958512e-003
2.962125e+003, -3.115342e-003
2.964053e+003, -3.760895e-003
2.965982e+003, -3.641928e-003
2.967910e+003, -3.462380e-003
2.969839e+003, -3.968867e-003
2.971767e+003, -4.081579e-003
2.973696e+003, -3.566016e-003
2.975624e+003, -3.739595e-003
2.977552e+003, -4.418453e-003
2.979481e+003, -4.421709e-003
2.981409e+003, -4.728152e-003
2.983338e+003, -4.788924e-003
2.985266e+003, -4.865437e-003
2.987195e+003, -4.919756e-003
2.989123e+003, -4.654827e-003
2.991052e+003, -4.904782e-003
2.992980e+003, -5.390472e-003
2.994909e+003, -5.276440e-003
2.996837e+003, -5.398803e-003
2.998766e+003, -5.002656e-003
3.000694e+003, -5.227812e-003
3.002623e+003, -5.630743e-003
3.004551e+003, -5.333682e-003
3.006479e+003, -4.930775e-003
3.008408e+003, -4.732334e-003
3.010336e+003, -4.842697e-003
3.012265e+003, -5.112469e-003
3.014193e+003, -4.741235e-003
3.016122e+003, -5.039874e-003
3.018050e+003, -5.563985e-003
3.019979e+003, -5.823590e-003
3.021907e+003, -5.502697e-003
3.023836e+003, -5.012840e-003
3.025764e+003, -5.158249e-003
3.027693e+003, -5.284241e-003
3.029621e+003, -5.443668e-003
3.031550e+003, -5.428327e-003
3.033478e+003, -5.290434e-003
3.035406e+003, -5.434432e-003
3.037335e+003, -5.754858e-003
3.039263e+003, -5.795108e-003
3.041192e+003, -5.883658e-003
3.043120e+003, -5.867914e-003
3.045049e+003, -5.544032e-003
3.046977e+003, -5.398942e-003
3.048906e+003, -5.155236e-003
3.050834e+003, -5.179541e-003
3.052763e+003, -5.507913e-003
3.054691e+003, -5.632945e-003
3.056620e+003, -5.172818e-003
3.058548e+003, -5.726639e-003
3.060477e+003, -5.929649e-003
3.062405e+003, -5.319660e-003
3.064333e+003, -5.022321e-003
3.066262e+003, -5.286388e-003
3.068190e+003, -5.445845e-003
3.070119e+003, -6.255760e-003
3.072047e+003, -6.219771e-003
3.073976e+003, -5.725201e-003
3.075904e+003, -5.413556e-003
3.077833e+003, -5.403339e-003
3.079761e+003, -5.113684e-003
3.081690e+003, -5.207006e-003
3.083618e+003, -5.519221e-003
3.085547e+003, -5.425639e-003
3.087475e+003, -4.951501e-003
3.089404e+003, -5.349736e-003
3.091332e+003, -5.976481e-003
3.093260e+003, -6.252620e-003
3.095189e+003, -5.382737e-003
3.097117e+003, -5.272530e-003
3.099046e+003, -5.962464e-003
3.100974e+003, -6.106514e-003
3.102903e+003, -6.147564e-003
3.104831e+003, -6.228905e-003
3.106760e+003, -6.207773e-003
3.108688e+003, -6.239822e-003
3.110617e+003, -6.069069e-003
3.112545e+003, -6.036076e-003
3.114474e+003, -5.995433e-003
3.116402e+003, -5.828689e-003
3.118331e+003, -6.257016e-003
3.120259e+003, -6.683267e-003
3.122188e+003, -6.044991e-003
3.124116e+003, -5.535315e-003
3.126044e+003, -5.694387e-003
3.127973e+003, -6.245621e-003
3.129901e+003, -6.421855e-003
3.131830e+003, -6.066243e-003
3.133758e+003, -5.385794e-003
3.135687e+003, -5.382278e-003
3.137615e+003, -5.841036e-003
3.139544e+003, -5.398327e-003
3.141472e+003, -5.200077e-003
3.143401e+003, -5.182518e-003
3.145329e+003, -5.654584e-003
3.147258e+003, -5.809456e-003
3.149186e+003, -5.463755e-003
3.151115e+003, -6.042891e-003
3.153043e+003, -5.811189e-003
3.154971e+003, -5.098283e-003
3.156900e+003, -4.931523e-003
3.158828e+003, -5.116404e-003
3.160757e+003, -5.361571e-003
3.162685e+003, -5.247406e-003
3.164614e+003, -5.198585e-003
3.166542e+003, -5.454574e-003
3.168471e+003, -6.127391e-003
3.170399e+003, -7.118746e-003
3.172328e+003, -7.647186e-003
3.174256e+003, -6.898972e-003
3.176185e+003, -6.135288e-003
3.178113e+003, -6.199503e-003
3.180042e+003, -5.862312e-003
3.181970e+003, -5.974733e-003
3.183898e+003, -6.433628e-003
3.185827e+003, -7.036396e-003
3.187755e+003, -7.247241e-003
3.189684e+003, -7.163414e-003
3.191612e+003, -6.862931e-003
3.193541e+003, -6.731770e-003
3.195469e+003, -7.028723e-003
3.197398e+003, -6.736632e-003
3.199326e+003, -6.182523e-003
3.201255e+003, -6.116129e-003
3.203183e+003, -6.754314e-003
3.205112e+003, -7.095682e-003
3.207040e+003, -7.334318e-003
3.208969e+003, -7.740270e-003
3.210897e+003, -7.359965e-003
3.212825e+003, -7.049741e-003
3.214754e+003, -6.705463e-003
3.216682e+003, -6.634704e-003
3.218611e+003, -6.250897e-003
3.220539e+003, -7.078877e-003
3.222468e+003, -7.505652e-003
3.224396e+003, -7.166119e-003
3.226325e+003, -6.941084e-003
3.228253e+003, -7.206084e-003
3.230182e+003, -6.833718e-003
3.232110e+003, -7.078737e-003
3.234039e+003, -7.372931e-003
3.235967e+003, -6.756540e-003
3.237896e+003, -6.849503e-003
3.239824e+003, -6.980808e-003
3.241752e+003, -6.976199e-003
3.243681e+003, -7.362518e-003
3.245609e+003, -6.472798e-003
3.247538e+003, -6.278153e-003
3.249466e+003, -7.058257e-003
3.251395e+003, -6.822632e-003
3.253323e+003, -6.198759e-003
3.255252e+003, -6.194057e-003
3.257180e+003, -6.913926e-003
3.259109e+003, -6.975187e-003
3.261037e+003, -6.860500e-003
3.262966e+003, -7.430275e-003
3.264894e+003, -7.501922e-003
3.266823e+003, -7.120405e-003
3.268751e+003, -7.163942e-003
3.270679e+003, -7.759252e-003
3.272608e+003, -8.061769e-003
3.274536e+003, -7.308965e-003
3.276465e+003, -6.925475e-003
3.278393e+003, -6.916255e-003
3.280322e+003, -6.484682e-003
3.282250e+003, -6.529633e-003
3.284179e+003, -6.701032e-003
3.286107e+003, -6.842809e-003
3.288036e+003, -6.592004e-003
3.289964e+003, -6.619959e-003
3.291893e+003, -7.364742e-003
3.293821e+003, -8.088414e-003
3.295750e+003, -8.043200e-003
3.297678e+003, -7.741362e-003
3.299606e+003, -7.497289e-003
3.301535e+003, -7.735728e-003
3.303463e+003, -8.032855e-003
3.305392e+003, -8.247833e-003
3.307320e+003, -7.575426e-003
3.309249e+003, -7.137379e-003
3.311177e+003, -7.588299e-003
3.313106e+003, -7.199549e-003
3.315034e+003, -6.752182e-003
3.316963e+003, -7.370096e-003
3.318891e+003, -7.155769e-003
3.320820e+003, -6.754438e-003
3.322748e+003, -7.228279e-003
3.324677e+003, -8.016956e-003
3.326605e+003, -8.228104e-003
3.328533e+003, -7.787908e-003
3.330462e+003, -7.508666e-003
3.332390e+003, -7.436121e-003
3.334319e+003, -7.637816e-003
3.336247e+003, -7.669284e-003
3.338176e+003, -7.650721e-003
3.340104e+003, -7.855929e-003
3.342033e+003, -7.668484e-003
3.343961e+003, -7.070127e-003
3.345890e+003, -6.787775e-003
3.347818e+003, -7.320233e-003
3.349747e+003, -7.853770e-003
3.351675e+003, -8.245611e-003
3.353604e+003, -8.412989e-003
3.355532e+003, -8.900373e-003
3.357460e+003, -9.449054e-003
3.359389e+003, -9.191472e-003
3.361317e+003, -8.117604e-003
3.363246e+003, -7.048465e-003
3.365174e+003, -6.562070e-003
3.367103e+003, -7.539665e-003
3.369031e+003, -8.521389e-003
3.370960e+003, -8.866358e-003
3.372888e+003, -8.341026e-003
3.374817e+003, -8.859275e-003
3.376745e+003, -8.919942e-003
3.378674e+003, -8.491240e-003
3.380602e+003, -8.334040e-003
3.382531e+003, -8.630968e-003
3.384459e+003, -9.340854e-003
3.386387e+003, -9.734570e-003
3.388316e+003, -9.689479e-003
3.390244e+003, -9.770095e-003
3.392173e+003, -9.024817e-003
3.394101e+003, -7.624174e-003
3.396030e+003, -7.747163e-003
3.397958e+003, -9.021299e-003
3.399887e+003, -9.444662e-003
3.401815e+003, -9.220743e-003
3.403744e+003, -8.297561e-003
3.405672e+003, -8.007675e-003
3.407601e+003, -8.409242e-003
3.409529e+003, -8.154830e-003
3.411458e+003, -7.685989e-003
3.413386e+003, -8.372351e-003
3.415314e+003, -9.144645e-003
3.417243e+003, -9.590978e-003
3.419171e+003, -1.007481e-002
3.421100e+003, -9.992785e-003
3.423028e+003, -9.757535e-003
3.424957e+003, -9.240952e-003
3.426885e+003, -8.902508e-003
3.428814e+003, -8.985552e-003
3.430742e+003, -9.001114e-003
3.432671e+003, -9.909535e-003
3.434599e+003, -9.722342e-003
3.436528e+003, -9.062017e-003
3.438456e+003, -9.458071e-003
3.440385e+003, -9.792286e-003
3.442313e+003, -8.984082e-003
3.444241e+003, -8.678377e-003
3.446170e+003, -8.900961e-003
3.448098e+003, -8.912529e-003
3.450027e+003, -9.272013e-003
3.451955e+003, -1.021367e-002
3.453884e+003, -1.007797e-002
3.455812e+003, -1.029616e-002
3.457741e+003, -9.970982e-003
3.459669e+003, -9.486462e-003
3.461598e+003, -9.878530e-003
3.463526e+003, -9.682225e-003
3.465455e+003, -9.859079e-003
3.467383e+003, -1.032870e-002
3.469312e+003, -1.000172e-002
3.471240e+003, -1.011685e-002
3.473168e+003, -1.049805e-002
3.475097e+003, -1.042006e-002
3.477025e+003, -1.034941e-002
3.478954e+003, -9.875841e-003
3.480882e+003, -9.943762e-003
3.482811e+003, -1.005474e-002
3.484739e+003, -9.778237e-003
3.486668e+003, -1.007769e-002
3.488596e+003, -9.711880e-003
3.490525e+003, -9.806536e-003
3.492453e+003, -1.021051e-002
3.494382e+003, -1.130395e-002
3.496310e+003, -1.139666e-002
3.498239e+003, -1.062424e-002
3.500167e+003, -1.036484e-002
3.502095e+003, -1.093921e-002
3.504024e+003, -1.067686e-002
3.505952e+003, -1.088713e-002
3.507881e+003, -1.101267e-002
3.509809e+003, -1.110520e-002
3.511738e+003, -1.131159e-002
3.513666e+003, -1.121148e-002
3.515595e+003, -1.095882e-002
3.517523e+003, -1.142821e-002
3.519452e+003, -1.159361e-002
3.521380e+003, -1.173486e-002
3.523309e+003, -1.094416e-002
3.525237e+003, -1.107945e-002
3.527166e+003, -1.148378e-002
3.529094e+003, -1.096932e-002
3.531022e+003, -1.049177e-002
3.532951e+003, -1.146927e-002
3.534879e+003, -1.191757e-002
3.536808e+003, -1.170743e-002
3.538736e+003, -1.188729e-002
3.540665e+003, -1.195617e-002
3.542593e+003, -1.105137e-002
3.544522e+003, -1.085145e-002
3.546450e+003, -1.138572e-002
3.548379e+003, -1.189028e-002
3.550307e+003, -1.158049e-002
3.552236e+003, -1.109921e-002
3.554164e+003, -1.186117e-002
3.556093e+003, -1.236061e-002
3.558021e+003, -1.239304e-002
3.559949e+003, -1.277369e-002
3.561878e+003, -1.258793e-002
3.563806e+003, -1.286072e-002
3.565735e+003, -1.212722e-002
3.567663e+003, -1.061415e-002
3.569592e+003, -1.049947e-002
3.571520e+003, -1.105279e-002
3.573449e+003, -1.131572e-002
3.575377e+003, -1.121469e-002
3.577306e+003, -1.134100e-002
3.579234e+003, -1.180996e-002
3.581163e+003, -1.256781e-002
3.583091e+003, -1.283776e-002
3.585020e+003, -1.240494e-002
3.586948e+003, -1.293280e-002
3.588876e+003, -1.318255e-002
3.590805e+003, -1.310610e-002
3.592733e+003, -1.317807e-002
3.594662e+003, -1.326899e-002
3.596590e+003, -1.291119e-002
3.598519e+003, -1.285260e-002
3.600447e+003, -1.272590e-002
3.602376e+003, -1.260508e-002
3.604304e+003, -1.215258e-002
3.606233e+003, -1.303077e-002
3.608161e+003, -1.293529e-002
3.610090e+003, -1.263029e-002
3.612018e+003, -1.256592e-002
3.613947e+003, -1.269403e-002
3.615875e+003, -1.326093e-002
3.617803e+003, -1.294442e-002
3.619732e+003, -1.283141e-002
3.621660e+003, -1.355973e-002
3.623589e+003, -1.341029e-002
3.625517e+003, -1.365218e-002
3.627446e+003, -1.338965e-002
3.629374e+003, -1.303901e-002
3.631303e+003, -1.267801e-002
3.633231e+003, -1.258466e-002
3.635160e+003, -1.202868e-002
3.637088e+003, -1.139760e-002
3.639017e+003, -1.046006e-002
3.640945e+003, -1.034912e-002
3.642874e+003, -8.603578e-003
3.644802e+003, -4.338883e-003
3.646730e+003, -2.635103e-004
3.648659e+003, 9.080593e-004
3.650587e+003, -2.031047e-003
3.652516e+003, -7.070094e-003
3.654444e+003, -1.034033e-002
3.656373e+003, -1.317205e-002
3.658301e+003, -1.472671e-002
3.660230e+003, -1.506152e-002
3.662158e+003, -1.521212e-002
3.664087e+003, -1.519776e-002
3.666015e+003, -1.556161e-002
3.667944e+003, -1.569653e-002
3.669872e+003, -1.421744e-002
3.671801e+003, -1.373467e-002
3.673729e+003, -1.421344e-002
3.675657e+003, -1.381527e-002
3.677586e+003, -1.485094e-002
3.679514e+003, -1.608704e-002
3.681443e+003, -1.606891e-002
3.683371e+003, -1.594417e-002
3.685300e+003, -1.505617e-002
3.687228e+003, -1.418805e-002
3.689157e+003, -1.454812e-002
3.691085e+003, -1.610058e-002
3.693014e+003, -1.680868e-002
3.694942e+003, -1.544931e-002
3.696871e+003, -1.556935e-002
3.698799e+003, -1.649418e-002
3.700728e+003, -1.596455e-002
3.702656e+003, -1.616964e-002
3.704584e+003, -1.618268e-002
3.706513e+003, -1.628909e-002
3.708441e+003, -1.621960e-002
3.710370e+003, -1.528452e-002
3.712298e+003, -1.520547e-002
3.714227e+003, -1.616912e-002
3.716155e+003, -1.579481e-002
3.718084e+003, -1.686183e-002
3.720012e+003, -1.711524e-002
3.721941e+003, -1.576909e-002
3.723869e+003, -1.502220e-002
3.725798e+003, -1.499549e-002
3.727726e+003, -1.545928e-002
3.729655e+003, -1.712647e-002
3.731583e+003, -1.693088e-002
3.733511e+003, -1.665497e-002
3.735440e+003, -1.642921e-002
3.737368e+003, -1.709670e-002
3.739297e+003, -1.707230e-002
3.741225e+003, -1.639882e-002
3.743154e+003, -1.538947e-002
3.745082e+003, -1.456858e-002
3.747011e+003, -1.495441e-002
3.748939e+003, -1.468773e-002
3.750868e+003, -1.536776e-002
3.752796e+003, -1.577704e-002
3.754725e+003, -1.593546e-002
3.756653e+003, -1.649109e-002
3.758582e+003, -1.679319e-002
3.760510e+003, -1.574135e-002
3.762438e+003, -1.548395e-002
3.764367e+003, -1.531890e-002
3.766295e+003, -1.529980e-002
3.768224e+003, -1.565258e-002
3.770152e+003, -1.528638e-002
3.772081e+003, -1.553774e-002
3.774009e+003, -1.640213e-002
3.775938e+003, -1.736462e-002
3.777866e+003, -1.685123e-002
3.779795e+003, -1.679401e-002
3.781723e+003, -1.745669e-002
3.783652e+003, -1.741399e-002
3.785580e+003, -1.729702e-002
3.787509e+003, -1.810996e-002
3.789437e+003, -1.745602e-002
3.791365e+003, -1.715625e-002
3.793294e+003, -1.858732e-002
3.795222e+003, -1.824460e-002
3.797151e+003, -1.782366e-002
3.799079e+003, -1.805186e-002
3.801008e+003, -1.736427e-002
3.802936e+003, -1.771544e-002
3.804865e+003, -1.809668e-002
3.806793e+003, -1.763145e-002
3.808722e+003, -1.790531e-002
3.810650e+003, -1.836384e-002
3.812579e+003, -1.814649e-002
3.814507e+003, -1.694448e-002
3.816436e+003, -1.562149e-002
3.818364e+003, -1.727529e-002
3.820292e+003, -1.699424e-002
3.822221e+003, -1.649367e-002
3.824149e+003, -1.775809e-002
3.826078e+003, -1.853761e-002
3.828006e+003, -1.771050e-002
3.829935e+003, -1.707506e-002
3.831863e+003, -1.747608e-002
3.833792e+003, -1.876478e-002
3.835720e+003, -1.861851e-002
3.837649e+003, -1.723984e-002
3.839577e+003, -1.685549e-002
3.841506e+003, -1.715827e-002
3.843434e+003, -1.866427e-002
3.845363e+003, -1.846056e-002
3.847291e+003, -1.763360e-002
3.849219e+003, -1.738888e-002
3.851148e+003, -1.638247e-002
3.853076e+003, -1.494528e-002
3.855005e+003, -1.636283e-002
3.856933e+003, -1.762241e-002
3.858862e+003, -1.674812e-002
3.860790e+003, -1.721909e-002
3.862719e+003, -1.863552e-002
3.864647e+003, -1.927662e-002
3.866576e+003, -1.906446e-002
3.868504e+003, -1.846073e-002
3.870433e+003, -1.885700e-002
3.872361e+003, -2.009703e-002
3.874290e+003, -1.908714e-002
3.876218e+003, -1.833239e-002
3.878146e+003, -1.775837e-002
3.880075e+003, -1.749023e-002
3.882003e+003, -1.882765e-002
3.883932e+003, -1.958768e-002
3.885860e+003, -1.916820e-002
3.887789e+003, -1.877380e-002
3.889717e+003, -1.873760e-002
3.891646e+003, -1.942582e-002
3.893574e+003, -2.052196e-002
3.895503e+003, -2.089398e-002
3.897431e+003, -1.932601e-002
3.899360e+003, -1.768482e-002
3.901288e+003, -1.759929e-002
3.903217e+003, -1.858928e-002
3.905145e+003, -1.885953e-002
3.907073e+003, -1.966203e-002
3.909002e+003, -2.033800e-002
3.910930e+003, -2.100552e-002
3.912859e+003, -1.959849e-002
3.914787e+003, -1.829025e-002
3.916716e+003, -1.793858e-002
3.918644e+003, -1.906416e-002
3.920573e+003, -2.014403e-002
3.922501e+003, -1.946600e-002
3.924430e+003, -1.746340e-002
3.926358e+003, -1.713148e-002
3.928287e+003, -1.783676e-002
3.930215e+003, -1.893553e-002
3.932144e+003, -1.752958e-002
3.934072e+003, -1.752618e-002
3.936000e+003, -1.939039e-002
3.937929e+003, -1.979254e-002
3.939857e+003, -1.997979e-002
3.941786e+003, -2.118389e-002
3.943714e+003, -2.089157e-002
3.945643e+003, -2.038408e-002
3.947571e+003, -2.019976e-002
3.949500e+003, -1.935403e-002
3.951428e+003, -1.952723e-002
3.953357e+003, -2.116883e-002
3.955285e+003, -2.207924e-002
3.957214e+003, -2.112214e-002
3.959142e+003, -2.040689e-002
3.961071e+003, -2.005701e-002
3.962999e+003, -1.972968e-002
3.964927e+003, -1.975357e-002
3.966856e+003, -1.973810e-002
3.968784e+003, -1.933228e-002
3.970713e+003, -1.953720e-002
3.972641e+003, -1.984093e-002
3.974570e+003, -2.038854e-002
3.976498e+003, -2.121323e-002
3.978427e+003, -2.072955e-002
3.980355e+003, -1.946989e-002
3.982284e+003, -1.998900e-002
3.984212e+003, -1.997049e-002
3.986141e+003, -2.120556e-002
3.988069e+003, -2.161860e-002
3.989998e+003, -2.125429e-002
3.991926e+003, -2.180017e-002
3.993854e+003, -2.115170e-002
3.995783e+003, -2.065109e-002
3.997711e+003, -2.098002e-002
3.999640e+003, -2.064562e-002
##END=



