##NAMES=Topaz
##RRUFFID=R060024
##IDEAL CHEMISTRY=Al_2_SiO_4_F_2_
##LOCALITY=Antonio Peireira Topaz mine, Minas Gerais, Brazil, GPS coordinates: 20 18 18 S, 43 28 37 W, 2697 ASL
##OWNER=RRUFF
##SOURCE=Eric Van Valkenburg
##DESCRIPTION=Smoky brown single crystal
##STATUS=The identification of this mineral has been confirmed by X-ray diffraction and chemical analysis
##URL=rruff.info/R060024
##MEASURED CHEMISTRY=Al_2.00_Si_1.00_O_4_(F_0.68_(OH)_0.32_)_2_
3.991926e+002, 2.076583e-001
4.011211e+002, 2.051981e-001
4.030495e+002, 2.057800e-001
4.049780e+002, 2.067582e-001
4.069065e+002, 2.001258e-001
4.088349e+002, 1.962906e-001
4.107634e+002, 1.978922e-001
4.126919e+002, 2.022606e-001
4.146203e+002, 2.073634e-001
4.165488e+002, 2.124926e-001
4.184773e+002, 2.135094e-001
4.204057e+002, 2.146162e-001
4.223342e+002, 2.160667e-001
4.242627e+002, 2.137926e-001
4.261911e+002, 2.138041e-001
4.281196e+002, 2.180062e-001
4.300481e+002, 2.194701e-001
4.319765e+002, 2.202936e-001
4.339050e+002, 2.219751e-001
4.358335e+002, 2.230305e-001
4.377619e+002, 2.233946e-001
4.396904e+002, 2.261057e-001
4.416189e+002, 2.264273e-001
4.435473e+002, 2.255691e-001
4.454758e+002, 2.252422e-001
4.474043e+002, 2.238078e-001
4.493327e+002, 2.223099e-001
4.512612e+002, 2.216833e-001
4.531897e+002, 2.181972e-001
4.551181e+002, 2.127707e-001
4.570466e+002, 2.064052e-001
4.589751e+002, 2.005111e-001
4.609035e+002, 1.942271e-001
4.628320e+002, 1.872411e-001
4.647605e+002, 1.800872e-001
4.666889e+002, 1.749284e-001
4.686174e+002, 1.721032e-001
4.705459e+002, 1.714288e-001
4.724743e+002, 1.729162e-001
4.744028e+002, 1.760147e-001
4.763313e+002, 1.792531e-001
4.782597e+002, 1.804573e-001
4.801882e+002, 1.781491e-001
4.821167e+002, 1.724721e-001
4.840451e+002, 1.649925e-001
4.859736e+002, 1.579583e-001
4.879021e+002, 1.529628e-001
4.898305e+002, 1.504670e-001
4.917590e+002, 1.488757e-001
4.936875e+002, 1.483037e-001
4.956159e+002, 1.481233e-001
4.975444e+002, 1.482767e-001
4.994729e+002, 1.487090e-001
5.014013e+002, 1.493462e-001
5.033298e+002, 1.497301e-001
5.052583e+002, 1.503852e-001
5.071867e+002, 1.507256e-001
5.091152e+002, 1.501997e-001
5.110437e+002, 1.487336e-001
5.129721e+002, 1.469089e-001
5.149006e+002, 1.443262e-001
5.168290e+002, 1.403913e-001
5.187575e+002, 1.359065e-001
5.206860e+002, 1.318258e-001
5.226144e+002, 1.276159e-001
5.245429e+002, 1.240207e-001
5.264714e+002, 1.213539e-001
5.283998e+002, 1.191967e-001
5.303283e+002, 1.173779e-001
5.322568e+002, 1.155657e-001
5.341852e+002, 1.139156e-001
5.361137e+002, 1.123477e-001
5.380422e+002, 1.110209e-001
5.399706e+002, 1.108151e-001
5.418991e+002, 1.108332e-001
5.438276e+002, 1.108936e-001
5.457560e+002, 1.110742e-001
5.476845e+002, 1.117563e-001
5.496130e+002, 1.135717e-001
5.515414e+002, 1.164716e-001
5.534699e+002, 1.188897e-001
5.553984e+002, 1.198899e-001
5.573268e+002, 1.197838e-001
5.592553e+002, 1.175497e-001
5.611838e+002, 1.139315e-001
5.631122e+002, 1.098774e-001
5.650407e+002, 1.056223e-001
5.669692e+002, 1.023510e-001
5.688976e+002, 1.014465e-001
5.708261e+002, 1.029385e-001
5.727546e+002, 1.058249e-001
5.746830e+002, 1.102337e-001
5.766115e+002, 1.147636e-001
5.785400e+002, 1.191339e-001
5.804684e+002, 1.239068e-001
5.823969e+002, 1.299102e-001
5.843254e+002, 1.374069e-001
5.862538e+002, 1.465209e-001
5.881823e+002, 1.559454e-001
5.901108e+002, 1.651348e-001
5.920392e+002, 1.736480e-001
5.939677e+002, 1.816542e-001
5.958962e+002, 1.894531e-001
5.978246e+002, 1.963548e-001
5.997531e+002, 2.020339e-001
6.016816e+002, 2.066986e-001
6.036100e+002, 2.104461e-001
6.055385e+002, 2.131645e-001
6.074670e+002, 2.146683e-001
6.093954e+002, 2.144733e-001
6.113239e+002, 2.126592e-001
6.132524e+002, 2.094897e-001
6.151808e+002, 2.050325e-001
6.171093e+002, 1.995166e-001
6.190378e+002, 1.936856e-001
6.209662e+002, 1.872624e-001
6.228947e+002, 1.804853e-001
6.248232e+002, 1.735591e-001
6.267516e+002, 1.669004e-001
6.286801e+002, 1.601119e-001
6.306086e+002, 1.536207e-001
6.325370e+002, 1.474003e-001
6.344655e+002, 1.412400e-001
6.363940e+002, 1.349910e-001
6.383224e+002, 1.288761e-001
6.402509e+002, 1.231156e-001
6.421794e+002, 1.175536e-001
6.441078e+002, 1.122592e-001
6.460363e+002, 1.070114e-001
6.479648e+002, 1.018128e-001
6.498932e+002, 9.662320e-002
6.518217e+002, 9.144188e-002
6.537502e+002, 8.640546e-002
6.556786e+002, 8.139676e-002
6.576071e+002, 7.635330e-002
6.595356e+002, 7.156533e-002
6.614641e+002, 6.710269e-002
6.633925e+002, 6.294498e-002
6.653210e+002, 5.906928e-002
6.672495e+002, 5.563581e-002
6.691779e+002, 5.221427e-002
6.711064e+002, 4.891294e-002
6.730349e+002, 4.617469e-002
6.749633e+002, 4.386521e-002
6.768918e+002, 4.184907e-002
6.788203e+002, 4.005720e-002
6.807487e+002, 3.845969e-002
6.826772e+002, 3.718118e-002
6.846057e+002, 3.630725e-002
6.865341e+002, 3.590617e-002
6.884626e+002, 3.575107e-002
6.903911e+002, 3.577857e-002
6.923195e+002, 3.584023e-002
6.942480e+002, 3.578372e-002
6.961765e+002, 3.588833e-002
6.981049e+002, 3.586551e-002
7.000334e+002, 3.570129e-002
7.019619e+002, 3.507511e-002
7.038903e+002, 3.375178e-002
7.058188e+002, 3.157321e-002
7.077473e+002, 2.904775e-002
7.096757e+002, 2.674405e-002
7.116042e+002, 2.495501e-002
7.135327e+002, 2.346567e-002
7.154611e+002, 2.236742e-002
7.173896e+002, 2.165278e-002
7.193181e+002, 2.135334e-002
7.212465e+002, 2.104738e-002
7.231750e+002, 2.116065e-002
7.251035e+002, 2.165402e-002
7.270319e+002, 2.195030e-002
7.289604e+002, 2.248166e-002
7.308889e+002, 2.338409e-002
7.328173e+002, 2.439273e-002
7.347458e+002, 2.573104e-002
7.366743e+002, 2.748756e-002
7.386027e+002, 2.946314e-002
7.405312e+002, 3.177732e-002
7.424597e+002, 3.434034e-002
7.443881e+002, 3.703469e-002
7.463166e+002, 3.981165e-002
7.482451e+002, 4.252302e-002
7.501735e+002, 4.500712e-002
7.521020e+002, 4.741194e-002
7.540305e+002, 4.996322e-002
7.559589e+002, 5.310330e-002
7.578874e+002, 5.691380e-002
7.598159e+002, 6.126256e-002
7.617443e+002, 6.562411e-002
7.636728e+002, 6.927688e-002
7.656013e+002, 7.164528e-002
7.675297e+002, 7.286513e-002
7.694582e+002, 7.331061e-002
7.713867e+002, 7.372925e-002
7.733151e+002, 7.438521e-002
7.752436e+002, 7.569361e-002
7.771721e+002, 7.792014e-002
7.791005e+002, 8.142816e-002
7.810290e+002, 8.606575e-002
7.829575e+002, 9.148866e-002
7.848859e+002, 9.742633e-002
7.868144e+002, 1.035187e-001
7.887429e+002, 1.095315e-001
7.906713e+002, 1.156144e-001
7.925998e+002, 1.216909e-001
7.945283e+002, 1.280030e-001
7.964567e+002, 1.348482e-001
7.983852e+002, 1.419131e-001
8.003137e+002, 1.491435e-001
8.022421e+002, 1.564637e-001
8.041706e+002, 1.635891e-001
8.060991e+002, 1.703206e-001
8.080275e+002, 1.768577e-001
8.099560e+002, 1.833258e-001
8.118845e+002, 1.897287e-001
8.138129e+002, 1.960387e-001
8.157414e+002, 2.021774e-001
8.176699e+002, 2.078314e-001
8.195983e+002, 2.129766e-001
8.215268e+002, 2.175766e-001
8.234553e+002, 2.217347e-001
8.253837e+002, 2.253986e-001
8.273122e+002, 2.286239e-001
8.292407e+002, 2.310775e-001
8.311691e+002, 2.327682e-001
8.330976e+002, 2.335860e-001
8.350261e+002, 2.338926e-001
8.369545e+002, 2.338470e-001
8.388830e+002, 2.332844e-001
8.408115e+002, 2.323641e-001
8.427399e+002, 2.314962e-001
8.446684e+002, 2.306395e-001
8.465969e+002, 2.298219e-001
8.485253e+002, 2.291747e-001
8.504538e+002, 2.288598e-001
8.523823e+002, 2.283460e-001
8.543107e+002, 2.278527e-001
8.562392e+002, 2.272323e-001
8.581677e+002, 2.266985e-001
8.600961e+002, 2.257695e-001
8.620246e+002, 2.244477e-001
8.639531e+002, 2.231984e-001
8.658815e+002, 2.221103e-001
8.678100e+002, 2.208207e-001
8.697385e+002, 2.189367e-001
8.716669e+002, 2.167280e-001
8.735954e+002, 2.142037e-001
8.755239e+002, 2.110594e-001
8.774523e+002, 2.073255e-001
8.793808e+002, 2.032615e-001
8.813093e+002, 1.988661e-001
8.832377e+002, 1.945557e-001
8.851662e+002, 1.907915e-001
8.870947e+002, 1.877206e-001
8.890231e+002, 1.850386e-001
8.909516e+002, 1.825346e-001
8.928801e+002, 1.798331e-001
8.948085e+002, 1.767427e-001
8.967370e+002, 1.735513e-001
8.986655e+002, 1.701371e-001
9.005939e+002, 1.666002e-001
9.025224e+002, 1.632603e-001
9.044509e+002, 1.601088e-001
9.063793e+002, 1.569595e-001
9.083078e+002, 1.537598e-001
9.102363e+002, 1.503360e-001
9.121647e+002, 1.467284e-001
9.140932e+002, 1.431297e-001
9.160217e+002, 1.397723e-001
9.179501e+002, 1.366536e-001
9.198786e+002, 1.339308e-001
9.218071e+002, 1.315008e-001
9.237355e+002, 1.292621e-001
9.256640e+002, 1.271691e-001
9.275925e+002, 1.249262e-001
9.295209e+002, 1.222902e-001
9.314494e+002, 1.191435e-001
9.333779e+002, 1.156029e-001
9.353063e+002, 1.118633e-001
9.372348e+002, 1.079924e-001
9.391633e+002, 1.041637e-001
9.410917e+002, 1.003482e-001
9.430202e+002, 9.627902e-002
9.449487e+002, 9.247101e-002
9.468771e+002, 8.885945e-002
9.488056e+002, 8.501999e-002
9.507341e+002, 8.119921e-002
9.526625e+002, 7.760534e-002
9.545910e+002, 7.396945e-002
9.565195e+002, 7.030555e-002
9.584479e+002, 6.678188e-002
9.603764e+002, 6.341390e-002
9.623049e+002, 6.004378e-002
9.642333e+002, 5.665956e-002
9.661618e+002, 5.358190e-002
9.680903e+002, 5.090374e-002
9.700187e+002, 4.856214e-002
9.719472e+002, 4.649728e-002
9.738757e+002, 4.511783e-002
9.758041e+002, 4.440179e-002
9.777326e+002, 4.409387e-002
9.796611e+002, 4.427109e-002
9.815895e+002, 4.492247e-002
9.835180e+002, 4.586591e-002
9.854465e+002, 4.695723e-002
9.873749e+002, 4.805013e-002
9.893034e+002, 4.886667e-002
9.912319e+002, 4.917357e-002
9.931603e+002, 4.894042e-002
9.950888e+002, 4.820650e-002
9.970173e+002, 4.681909e-002
9.989457e+002, 4.503193e-002
1.000874e+003, 4.312656e-002
1.002803e+003, 4.090131e-002
1.004731e+003, 3.859833e-002
1.006660e+003, 3.654708e-002
1.008588e+003, 3.473948e-002
1.010517e+003, 3.303784e-002
1.012445e+003, 3.136974e-002
1.014373e+003, 2.979564e-002
1.016302e+003, 2.841102e-002
1.018230e+003, 2.709015e-002
1.020159e+003, 2.584946e-002
1.022087e+003, 2.474758e-002
1.024016e+003, 2.366316e-002
1.025944e+003, 2.239828e-002
1.027873e+003, 2.127902e-002
1.029801e+003, 2.032260e-002
1.031730e+003, 1.914240e-002
1.033658e+003, 1.788176e-002
1.035587e+003, 1.664604e-002
1.037515e+003, 1.543806e-002
1.039443e+003, 1.417411e-002
1.041372e+003, 1.307943e-002
1.043300e+003, 1.222493e-002
1.045229e+003, 1.136477e-002
1.047157e+003, 1.056616e-002
1.049086e+003, 9.921717e-003
1.051014e+003, 9.366461e-003
1.052943e+003, 8.720461e-003
1.054871e+003, 8.148588e-003
1.056800e+003, 7.823881e-003
1.058728e+003, 7.588046e-003
1.060657e+003, 7.277638e-003
1.062585e+003, 6.919207e-003
1.064514e+003, 6.586347e-003
1.066442e+003, 6.353248e-003
1.068370e+003, 6.160964e-003
1.070299e+003, 5.987211e-003
1.072227e+003, 5.743992e-003
1.074156e+003, 5.561615e-003
1.076084e+003, 5.377253e-003
1.078013e+003, 5.199682e-003
1.079941e+003, 5.018624e-003
1.081870e+003, 4.814838e-003
1.083798e+003, 4.892693e-003
1.085727e+003, 4.834106e-003
1.087655e+003, 4.662529e-003
1.089584e+003, 4.568630e-003
1.091512e+003, 4.486663e-003
1.093441e+003, 4.451708e-003
1.095369e+003, 4.421629e-003
1.097297e+003, 4.307765e-003
1.099226e+003, 4.210300e-003
1.101154e+003, 4.303364e-003
1.103083e+003, 4.420087e-003
1.105011e+003, 4.438960e-003
1.106940e+003, 4.353755e-003
1.108868e+003, 4.377045e-003
1.110797e+003, 4.496440e-003
1.112725e+003, 4.447713e-003
1.114654e+003, 4.478406e-003
1.116582e+003, 4.721462e-003
1.118511e+003, 5.029963e-003
1.120439e+003, 5.309212e-003
1.122368e+003, 5.609819e-003
1.124296e+003, 5.906811e-003
1.126224e+003, 6.164036e-003
1.128153e+003, 6.460409e-003
1.130081e+003, 7.024632e-003
1.132010e+003, 7.821220e-003
1.133938e+003, 8.840442e-003
1.135867e+003, 9.919089e-003
1.137795e+003, 1.128312e-002
1.139724e+003, 1.334765e-002
1.141652e+003, 1.624886e-002
1.143581e+003, 2.066148e-002
1.145509e+003, 2.681829e-002
1.147438e+003, 3.441415e-002
1.149366e+003, 4.295284e-002
1.151295e+003, 5.124017e-002
1.153223e+003, 5.782161e-002
1.155151e+003, 6.207279e-002
1.157080e+003, 6.398714e-002
1.159008e+003, 6.381486e-002
1.160937e+003, 6.186618e-002
1.162865e+003, 5.834400e-002
1.164794e+003, 5.354716e-002
1.166722e+003, 4.792265e-002
1.168651e+003, 4.191229e-002
1.170579e+003, 3.577635e-002
1.172508e+003, 2.971756e-002
1.174436e+003, 2.399045e-002
1.176365e+003, 1.876063e-002
1.178293e+003, 1.426627e-002
1.180222e+003, 1.067481e-002
1.182150e+003, 8.090978e-003
1.184078e+003, 6.300949e-003
1.186007e+003, 5.049681e-003
1.187935e+003, 4.239526e-003
1.189864e+003, 3.770603e-003
1.191792e+003, 3.445694e-003
1.193721e+003, 3.203959e-003
1.195649e+003, 3.010833e-003
1.197578e+003, 2.830584e-003
1.199506e+003, 2.669223e-003
1.201435e+003, 2.538541e-003
1.203363e+003, 2.412343e-003
1.205292e+003, 2.200420e-003
1.207220e+003, 1.963646e-003
1.209149e+003, 1.621034e-003
1.211077e+003, 1.235159e-003
1.213005e+003, 9.661303e-004
1.214934e+003, 7.591817e-004
1.216862e+003, 4.548361e-004
1.218791e+003, 2.898444e-004
1.220719e+003, 2.200239e-004
1.222648e+003, 1.067531e-004
1.224576e+003, -1.450931e-006
1.226505e+003, -1.286221e-004
1.228433e+003, -3.057913e-004
1.230362e+003, -3.539718e-004
1.232290e+003, -3.733256e-004
1.234219e+003, -4.688631e-004
1.236147e+003, -5.431594e-004
1.238076e+003, -5.439912e-004
1.240004e+003, -5.640347e-004
1.241932e+003, -5.953621e-004
1.243861e+003, -7.433014e-004
1.245789e+003, -8.124939e-004
1.247718e+003, -8.368951e-004
1.249646e+003, -9.264742e-004
1.251575e+003, -1.023716e-003
1.253503e+003, -9.924469e-004
1.255432e+003, -1.027216e-003
1.257360e+003, -1.044621e-003
1.259289e+003, -1.018393e-003
1.261217e+003, -1.019854e-003
1.263146e+003, -1.048930e-003
1.265074e+003, -1.094984e-003
1.267003e+003, -1.077238e-003
1.268931e+003, -1.034339e-003
1.270859e+003, -1.031864e-003
1.272788e+003, -9.595778e-004
1.274716e+003, -9.416191e-004
1.276645e+003, -1.079696e-003
1.278573e+003, -1.104227e-003
1.280502e+003, -1.026778e-003
1.282430e+003, -9.214592e-004
1.284359e+003, -8.525102e-004
1.286287e+003, -9.172552e-004
1.288216e+003, -9.885783e-004
1.290144e+003, -1.034839e-003
1.292073e+003, -9.987650e-004
1.294001e+003, -9.061578e-004
1.295930e+003, -8.028823e-004
1.297858e+003, -9.462112e-004
1.299786e+003, -1.069896e-003
1.301715e+003, -9.200426e-004
1.303643e+003, -6.731561e-004
1.305572e+003, -6.471283e-004
1.307500e+003, -7.457585e-004
1.309429e+003, -7.506944e-004
1.311357e+003, -7.680902e-004
1.313286e+003, -8.953274e-004
1.315214e+003, -1.061663e-003
1.317143e+003, -1.094163e-003
1.319071e+003, -9.966722e-004
1.321000e+003, -8.825256e-004
1.322928e+003, -8.071063e-004
1.324857e+003, -8.538020e-004
1.326785e+003, -8.667413e-004
1.328714e+003, -1.005364e-003
1.330642e+003, -1.054545e-003
1.332570e+003, -1.005673e-003
1.334499e+003, -1.021096e-003
1.336427e+003, -1.060731e-003
1.338356e+003, -1.120616e-003
1.340284e+003, -1.131774e-003
1.342213e+003, -9.797363e-004
1.344141e+003, -8.991271e-004
1.346070e+003, -9.001635e-004
1.347998e+003, -1.029527e-003
1.349927e+003, -9.605538e-004
1.351855e+003, -8.363185e-004
1.353784e+003, -8.852243e-004
1.355712e+003, -9.326513e-004
1.357641e+003, -9.357414e-004
1.359569e+003, -1.090202e-003
1.361497e+003, -1.275756e-003
1.363426e+003, -1.234750e-003
1.365354e+003, -9.660387e-004
1.367283e+003, -1.025031e-003
1.369211e+003, -1.077660e-003
1.371140e+003, -1.041916e-003
1.373068e+003, -1.092118e-003
1.374997e+003, -1.057145e-003
1.376925e+003, -8.548983e-004
1.378854e+003, -8.113538e-004
1.380782e+003, -8.094405e-004
1.382711e+003, -8.578843e-004
1.384639e+003, -8.393941e-004
1.386568e+003, -1.172123e-003
1.388496e+003, -1.025849e-003
1.390424e+003, -5.849723e-004
1.392353e+003, -7.584114e-004
1.394281e+003, -1.258713e-003
1.396210e+003, -1.061598e-003
1.398138e+003, -1.013639e-003
1.400067e+003, -8.486252e-004
1.401995e+003, -5.164157e-004
1.403924e+003, -5.634710e-004
1.405852e+003, -6.126931e-004
1.407781e+003, -4.356051e-004
1.409709e+003, -3.231504e-004
1.411638e+003, -2.682502e-004
1.413566e+003, -2.082263e-004
1.415495e+003, -3.083210e-004
1.417423e+003, -9.909690e-004
1.419351e+003, -1.485021e-003
1.421280e+003, -6.177634e-004
1.423208e+003, -2.492626e-004
1.425137e+003, -1.062444e-004
1.427065e+003, 1.734877e-004
1.428994e+003, 1.261253e-004
1.430922e+003, 2.618791e-004
1.432851e+003, 4.291964e-004
1.434779e+003, -2.469886e-004
1.436708e+003, -9.425571e-004
1.438636e+003, 5.278298e-005
1.440565e+003, 8.647660e-004
1.442493e+003, 1.070081e-003
1.444422e+003, 1.172764e-003
1.446350e+003, 1.189791e-003
1.448278e+003, 1.078552e-003
1.450207e+003, 1.378860e-003
1.452135e+003, 1.571478e-003
1.454064e+003, 1.361769e-003
1.455992e+003, -2.252351e-004
1.457921e+003, 2.473411e-006
1.459849e+003, 1.769939e-003
1.461778e+003, 2.348905e-003
1.463706e+003, 1.954097e-003
1.465635e+003, 2.000369e-003
1.467563e+003, 2.516257e-003
1.469492e+003, 2.534867e-003
1.471420e+003, 1.593977e-003
1.473349e+003, 1.269143e-003
1.475277e+003, 2.053951e-003
1.477205e+003, 2.604151e-003
1.479134e+003, 3.028074e-003
1.481062e+003, 2.911983e-003
1.482991e+003, 2.849594e-003
1.484919e+003, 2.628586e-003
1.486848e+003, 2.188556e-003
1.488776e+003, 1.665481e-003
1.490705e+003, 1.622827e-003
1.492633e+003, 2.144092e-003
1.494562e+003, 1.560620e-003
1.496490e+003, 7.000263e-004
1.498419e+003, 1.072551e-003
1.500347e+003, 1.501354e-003
1.502276e+003, 1.681024e-003
1.504204e+003, 1.438559e-004
1.506132e+003, -2.065446e-003
1.508061e+003, -1.174352e-003
1.509989e+003, 5.525933e-004
1.511918e+003, 5.937197e-004
1.513846e+003, 4.778730e-004
1.515775e+003, -2.415709e-005
1.517703e+003, -3.265195e-004
1.519632e+003, -1.178583e-003
1.521560e+003, -2.002264e-003
1.523489e+003, -9.727721e-004
1.525417e+003, -6.455688e-004
1.527346e+003, -3.090764e-004
1.529274e+003, 3.816907e-005
1.531203e+003, -7.515785e-005
1.533131e+003, -6.846156e-004
1.535059e+003, -3.466936e-004
1.536988e+003, -9.541153e-004
1.538916e+003, -3.414767e-003
1.540845e+003, -3.518073e-003
1.542773e+003, -1.849895e-003
1.544702e+003, -8.872984e-004
1.546630e+003, -2.005872e-004
1.548559e+003, 2.269043e-006
1.550487e+003, -1.302945e-004
1.552416e+003, -5.165456e-004
1.554344e+003, -1.245468e-003
1.556273e+003, -2.145108e-003
1.558201e+003, -4.499661e-003
1.560130e+003, -3.926832e-003
1.562058e+003, -8.911696e-004
1.563986e+003, 1.417080e-004
1.565915e+003, 1.755272e-004
1.567843e+003, -2.166423e-004
1.569772e+003, -6.989770e-004
1.571700e+003, -9.760020e-006
1.573629e+003, -2.290242e-004
1.575557e+003, -2.090210e-003
1.577486e+003, -1.381005e-003
1.579414e+003, 2.002862e-004
1.581343e+003, 4.066047e-004
1.583271e+003, 4.516840e-004
1.585200e+003, 2.066428e-004
1.587128e+003, 7.920531e-005
1.589057e+003, 1.074309e-004
1.590985e+003, 2.782123e-004
1.592913e+003, 2.505853e-004
1.594842e+003, 2.144874e-004
1.596770e+003, 3.030470e-004
1.598699e+003, 4.486499e-004
1.600627e+003, 4.619477e-004
1.602556e+003, 4.110317e-004
1.604484e+003, 3.036259e-004
1.606413e+003, 1.589231e-004
1.608341e+003, -2.564367e-006
1.610270e+003, 3.506893e-005
1.612198e+003, 1.750005e-004
1.614127e+003, -3.497841e-004
1.616055e+003, -1.839530e-003
1.617984e+003, -1.237298e-003
1.619912e+003, 1.142879e-004
1.621840e+003, -3.084059e-004
1.623769e+003, -5.483414e-004
1.625697e+003, -8.642475e-005
1.627626e+003, -1.624849e-004
1.629554e+003, 5.675594e-005
1.631483e+003, 4.034080e-004
1.633411e+003, -5.433771e-004
1.635340e+003, -2.116835e-003
1.637268e+003, -1.242669e-003
1.639197e+003, 1.718276e-005
1.641125e+003, 1.513266e-004
1.643054e+003, -9.477539e-005
1.644982e+003, -1.337013e-003
1.646911e+003, -1.731473e-003
1.648839e+003, -6.627926e-004
1.650767e+003, -2.100413e-003
1.652696e+003, -5.248230e-003
1.654624e+003, -3.056112e-003
1.656553e+003, 1.285151e-005
1.658481e+003, 4.104175e-004
1.660410e+003, -1.000588e-004
1.662338e+003, -5.700291e-004
1.664267e+003, -8.435710e-005
1.666195e+003, 1.425926e-004
1.668124e+003, -8.609394e-004
1.670052e+003, -1.221121e-003
1.671981e+003, -5.464118e-004
1.673909e+003, -8.051728e-004
1.675838e+003, -9.792125e-004
1.677766e+003, -2.970878e-005
1.679694e+003, 8.798565e-006
1.681623e+003, -7.917439e-004
1.683551e+003, -3.249654e-003
1.685480e+003, -2.797578e-003
1.687408e+003, -4.199810e-004
1.689337e+003, 1.758696e-004
1.691265e+003, 4.735120e-004
1.693194e+003, -6.155598e-005
1.695122e+003, -2.481014e-003
1.697051e+003, -2.492043e-003
1.698979e+003, -2.775082e-003
1.700908e+003, -3.140868e-003
1.702836e+003, -9.147304e-004
1.704765e+003, -8.478637e-004
1.706693e+003, -7.125948e-004
1.708621e+003, -3.203047e-004
1.710550e+003, -2.428349e-005
1.712478e+003, -4.043297e-004
1.714407e+003, -1.297378e-003
1.716335e+003, -2.701559e-003
1.718264e+003, -2.479948e-003
1.720192e+003, -7.001265e-004
1.722121e+003, -1.187931e-004
1.724049e+003, -9.930100e-005
1.725978e+003, 6.657810e-005
1.727906e+003, -6.693817e-005
1.729835e+003, -4.231357e-004
1.731763e+003, -1.639955e-003
1.733692e+003, -3.523447e-003
1.735620e+003, -2.393272e-003
1.737548e+003, -1.109644e-003
1.739477e+003, -1.781063e-003
1.741405e+003, -1.558759e-003
1.743334e+003, -1.394646e-003
1.745262e+003, -1.382069e-003
1.747191e+003, -1.567063e-003
1.749119e+003, -2.103551e-003
1.751048e+003, -2.568962e-003
1.752976e+003, -1.397951e-003
1.754905e+003, -6.950457e-004
1.756833e+003, -6.922820e-004
1.758762e+003, -3.635162e-004
1.760690e+003, -8.332472e-004
1.762619e+003, -9.793786e-004
1.764547e+003, -1.989728e-004
1.766475e+003, -2.418655e-004
1.768404e+003, -5.814588e-004
1.770332e+003, -1.030724e-003
1.772261e+003, -1.662194e-003
1.774189e+003, -6.026845e-004
1.776118e+003, 4.136599e-004
1.778046e+003, 4.025375e-004
1.779975e+003, 1.095064e-004
1.781903e+003, 3.008325e-004
1.783832e+003, 3.311186e-004
1.785760e+003, 3.824266e-004
1.787689e+003, 7.266089e-004
1.789617e+003, 2.812937e-004
1.791546e+003, -8.018038e-004
1.793474e+003, -7.577449e-004
1.795402e+003, 9.376586e-005
1.797331e+003, 2.430603e-004
1.799259e+003, 2.387721e-004
1.801188e+003, 7.693873e-005
1.803116e+003, 2.788059e-004
1.805045e+003, 4.066540e-004
1.806973e+003, 6.368333e-004
1.808902e+003, 5.018241e-004
1.810830e+003, 4.925571e-004
1.812759e+003, 5.988510e-004
1.814687e+003, 5.975384e-004
1.816616e+003, 4.679365e-004
1.818544e+003, 6.393612e-004
1.820473e+003, 7.889055e-004
1.822401e+003, 9.035492e-004
1.824329e+003, 5.357316e-004
1.826258e+003, 2.246241e-004
1.828186e+003, -3.590639e-005
1.830115e+003, 9.120489e-005
1.832043e+003, 4.124440e-004
1.833972e+003, 3.342477e-004
1.835900e+003, 3.544852e-004
1.837829e+003, 6.593257e-004
1.839757e+003, 5.375691e-004
1.841686e+003, 1.245760e-004
1.843614e+003, -6.731825e-004
1.845543e+003, -3.237295e-004
1.847471e+003, 3.514856e-004
1.849400e+003, 4.422687e-004
1.851328e+003, 5.764036e-004
1.853256e+003, 6.155212e-004
1.855185e+003, 6.845497e-004
1.857113e+003, 6.986746e-004
1.859042e+003, 5.368934e-004
1.860970e+003, 4.948033e-004
1.862899e+003, 5.009862e-004
1.864827e+003, 4.077067e-004
1.866756e+003, -1.750533e-004
1.868684e+003, -4.998722e-004
1.870613e+003, -1.334317e-004
1.872541e+003, 1.510205e-004
1.874470e+003, 2.945504e-004
1.876398e+003, 4.651566e-004
1.878327e+003, 4.567965e-004
1.880255e+003, 6.182910e-004
1.882183e+003, 5.855421e-004
1.884112e+003, 4.149407e-004
1.886040e+003, 7.584793e-005
1.887969e+003, -3.067016e-004
1.889897e+003, -3.554616e-004
1.891826e+003, 3.251208e-005
1.893754e+003, 3.320443e-004
1.895683e+003, 2.600598e-004
1.897611e+003, 1.319783e-004
1.899540e+003, 3.640412e-004
1.901468e+003, 5.044923e-004
1.903397e+003, 4.191448e-004
1.905325e+003, 1.450833e-004
1.907254e+003, -2.178496e-004
1.909182e+003, -3.634675e-004
1.911110e+003, 1.585714e-004
1.913039e+003, 2.373915e-004
1.914967e+003, -1.780580e-004
1.916896e+003, -5.520770e-004
1.918824e+003, -1.122455e-004
1.920753e+003, 3.256835e-004
1.922681e+003, -2.840668e-005
1.924610e+003, -2.983598e-004
1.926538e+003, -2.406240e-004
1.928467e+003, 2.634616e-004
1.930395e+003, 8.583286e-004
1.932324e+003, 5.818029e-004
1.934252e+003, 1.692816e-004
1.936181e+003, 3.733516e-004
1.938109e+003, 5.625362e-004
1.940037e+003, 2.917979e-004
1.941966e+003, -1.587486e-004
1.943894e+003, -8.002727e-005
1.945823e+003, 1.024356e-004
1.947751e+003, -2.396451e-004
1.949680e+003, -2.935020e-004
1.951608e+003, -9.779539e-005
1.953537e+003, -6.901091e-004
1.955465e+003, -1.079705e-003
1.957394e+003, -4.040210e-004
1.959322e+003, 2.664179e-004
1.961251e+003, 5.866084e-004
1.963179e+003, 7.520468e-004
1.965108e+003, 6.308632e-004
1.967036e+003, -1.330688e-004
1.968964e+003, -4.196016e-004
1.970893e+003, -2.522487e-004
1.972821e+003, -4.189811e-005
1.974750e+003, -5.674078e-004
1.976678e+003, -7.408594e-004
1.978607e+003, 3.946132e-004
1.980535e+003, 1.599943e-003
1.982464e+003, 1.656068e-003
1.984392e+003, 1.549984e-003
1.986321e+003, 3.292640e-004
1.988249e+003, -3.499554e-004
1.990178e+003, 2.976973e-005
1.992106e+003, 1.204296e-004
1.994035e+003, 1.163855e-004
1.995963e+003, 1.509266e-004
1.997891e+003, 1.117350e-003
1.999820e+003, 1.290698e-003
2.001748e+003, 3.826295e-004
2.003677e+003, -4.204090e-004
2.005605e+003, -2.166638e-004
2.007534e+003, 1.325462e-003
2.009462e+003, 1.596053e-003
2.011391e+003, 8.691086e-004
2.013319e+003, 5.251425e-004
2.015248e+003, 7.818483e-004
2.017176e+003, 1.259915e-003
2.019105e+003, 1.084820e-003
2.021033e+003, 4.425375e-004
2.022962e+003, 4.052364e-004
2.024890e+003, 5.071482e-004
2.026818e+003, 8.848340e-004
2.028747e+003, 1.443818e-003
2.030675e+003, 1.137622e-003
2.032604e+003, 1.018637e-003
2.034532e+003, 1.549928e-003
2.036461e+003, 1.745353e-003
2.038389e+003, 1.855997e-003
2.040318e+003, 1.241870e-003
2.042246e+003, 1.670413e-003
2.044175e+003, 2.478698e-003
2.046103e+003, 1.905620e-003
2.048031e+003, 2.027945e-003
2.049960e+003, 2.357640e-003
2.051888e+003, 1.718884e-003
2.053817e+003, 1.505664e-003
2.055745e+003, 7.517076e-004
2.057674e+003, 4.568305e-004
2.059602e+003, 1.096148e-003
2.061531e+003, 1.666141e-003
2.063459e+003, 1.183329e-003
2.065388e+003, 9.453237e-004
2.067316e+003, 1.299251e-003
2.069245e+003, 1.819298e-003
2.071173e+003, 1.947161e-003
2.073102e+003, 2.059678e-003
2.075030e+003, 2.139769e-003
2.076958e+003, 1.641328e-003
2.078887e+003, 1.538888e-003
2.080815e+003, 1.854036e-003
2.082744e+003, 1.729943e-003
2.084672e+003, 1.882187e-003
2.086601e+003, 1.966417e-003
2.088529e+003, 1.952172e-003
2.090458e+003, 1.835319e-003
2.092386e+003, 1.701556e-003
2.094315e+003, 1.731294e-003
2.096243e+003, 1.482021e-003
2.098172e+003, 1.519872e-003
2.100100e+003, 1.679459e-003
2.102029e+003, 1.579453e-003
2.103957e+003, 1.739087e-003
2.105885e+003, 2.167938e-003
2.107814e+003, 2.244125e-003
2.109742e+003, 1.984819e-003
2.111671e+003, 2.073820e-003
2.113599e+003, 1.765173e-003
2.115528e+003, 1.484919e-003
2.117456e+003, 1.672785e-003
2.119385e+003, 1.611480e-003
2.121313e+003, 8.970189e-004
2.123242e+003, 1.285890e-003
2.125170e+003, 1.550704e-003
2.127099e+003, 9.189199e-004
2.129027e+003, 5.042385e-004
2.130956e+003, 4.834455e-004
2.132884e+003, 3.323654e-004
2.134813e+003, 1.301428e-004
2.136741e+003, 7.515583e-004
2.138669e+003, 1.422225e-003
2.140598e+003, 9.418675e-004
2.142526e+003, 4.208151e-004
2.144455e+003, 5.189150e-004
2.146383e+003, 2.904104e-004
2.148312e+003, 6.191968e-005
2.150240e+003, 7.666978e-004
2.152169e+003, 5.269458e-004
2.154097e+003, 1.416141e-004
2.156026e+003, 1.386581e-004
2.157954e+003, 8.632876e-004
2.159883e+003, 2.628041e-003
2.161811e+003, 2.703640e-003
2.163740e+003, 2.144967e-003
2.165668e+003, 2.715996e-003
2.167596e+003, 3.675140e-003
2.169525e+003, 4.021398e-003
2.171453e+003, 2.635141e-003
2.173382e+003, 1.950354e-003
2.175310e+003, 2.196237e-003
2.177239e+003, 2.418033e-003
2.179167e+003, 2.463789e-003
2.181096e+003, 2.542894e-003
2.183024e+003, 3.132707e-003
2.184953e+003, 3.355897e-003
2.186881e+003, 3.365795e-003
2.188810e+003, 2.958077e-003
2.190738e+003, 2.732233e-003
2.192667e+003, 2.661436e-003
2.194595e+003, 2.704393e-003
2.196523e+003, 2.533972e-003
2.198452e+003, 2.330011e-003
2.200380e+003, 2.642230e-003
2.202309e+003, 2.177266e-003
2.204237e+003, 2.202588e-003
2.206166e+003, 2.584588e-003
2.208094e+003, 2.734793e-003
2.210023e+003, 3.023925e-003
2.211951e+003, 2.850589e-003
2.213880e+003, 2.593801e-003
2.215808e+003, 2.396688e-003
2.217737e+003, 2.408213e-003
2.219665e+003, 2.620609e-003
2.221594e+003, 2.265872e-003
2.223522e+003, 2.071465e-003
2.225450e+003, 2.349216e-003
2.227379e+003, 1.994533e-003
2.229307e+003, 1.192231e-003
2.231236e+003, 2.022303e-003
2.233164e+003, 2.996332e-003
2.235093e+003, 3.401429e-003
2.237021e+003, 3.318882e-003
2.238950e+003, 3.499365e-003
2.240878e+003, 3.130687e-003
2.242807e+003, 2.767270e-003
2.244735e+003, 2.656600e-003
2.246664e+003, 2.330015e-003
2.248592e+003, 2.010026e-003
2.250521e+003, 2.737826e-003
2.252449e+003, 2.847074e-003
2.254377e+003, 2.642056e-003
2.256306e+003, 2.285369e-003
2.258234e+003, 2.177560e-003
2.260163e+003, 2.626143e-003
2.262091e+003, 2.305871e-003
2.264020e+003, 1.974655e-003
2.265948e+003, 2.505518e-003
2.267877e+003, 2.625521e-003
2.269805e+003, 2.425438e-003
2.271734e+003, 2.600983e-003
2.273662e+003, 3.258040e-003
2.275591e+003, 3.578271e-003
2.277519e+003, 3.245788e-003
2.279448e+003, 3.094379e-003
2.281376e+003, 2.683544e-003
2.283304e+003, 2.362565e-003
2.285233e+003, 2.570572e-003
2.287161e+003, 2.857107e-003
2.289090e+003, 2.768063e-003
2.291018e+003, 2.233567e-003
2.292947e+003, 1.808635e-003
2.294875e+003, 1.916017e-003
2.296804e+003, 2.153348e-003
2.298732e+003, 2.074610e-003
2.300661e+003, 2.158122e-003
2.302589e+003, 2.132562e-003
2.304518e+003, 1.981515e-003
2.306446e+003, 1.850858e-003
2.308375e+003, 1.788981e-003
2.310303e+003, 1.732094e-003
2.312231e+003, 1.949751e-003
2.314160e+003, 2.401379e-003
2.316088e+003, 2.714643e-003
2.318017e+003, 2.832008e-003
2.319945e+003, 3.432948e-003
2.321874e+003, 3.865537e-003
2.323802e+003, 3.949009e-003
2.325731e+003, 3.729788e-003
2.327659e+003, 3.386391e-003
2.329588e+003, 3.344138e-003
2.331516e+003, 3.370632e-003
2.333445e+003, 3.304020e-003
2.335373e+003, 3.301772e-003
2.337302e+003, 3.352695e-003
2.339230e+003, 3.343920e-003
2.341158e+003, 3.229758e-003
2.343087e+003, 3.286349e-003
2.345015e+003, 3.249683e-003
2.346944e+003, 2.922533e-003
2.348872e+003, 2.371104e-003
2.350801e+003, 2.460467e-003
2.352729e+003, 3.102804e-003
2.354658e+003, 3.644062e-003
2.356586e+003, 4.017526e-003
2.358515e+003, 4.117772e-003
2.360443e+003, 4.317810e-003
2.362372e+003, 4.326927e-003
2.364300e+003, 3.969974e-003
2.366229e+003, 3.711663e-003
2.368157e+003, 3.742870e-003
2.370085e+003, 3.403548e-003
2.372014e+003, 2.932128e-003
2.373942e+003, 2.399906e-003
2.375871e+003, 1.888210e-003
2.377799e+003, 1.837314e-003
2.379728e+003, 1.660976e-003
2.381656e+003, 1.584650e-003
2.383585e+003, 1.550927e-003
2.385513e+003, 1.161468e-003
2.387442e+003, 1.061428e-003
2.389370e+003, 1.450178e-003
2.391299e+003, 1.507163e-003
2.393227e+003, 1.548282e-003
2.395156e+003, 1.328691e-003
2.397084e+003, 9.786913e-004
2.399012e+003, 1.016000e-003
2.400941e+003, 1.341076e-003
2.402869e+003, 1.307423e-003
2.404798e+003, 1.420839e-003
2.406726e+003, 1.449999e-003
2.408655e+003, 1.336968e-003
2.410583e+003, 1.177969e-003
2.412512e+003, 1.271331e-003
2.414440e+003, 1.501361e-003
2.416369e+003, 1.816096e-003
2.418297e+003, 1.832645e-003
2.420226e+003, 1.628825e-003
2.422154e+003, 1.394025e-003
2.424083e+003, 1.575319e-003
2.426011e+003, 1.581321e-003
2.427939e+003, 1.423651e-003
2.429868e+003, 1.259491e-003
2.431796e+003, 1.402684e-003
2.433725e+003, 1.432193e-003
2.435653e+003, 1.497682e-003
2.437582e+003, 1.541294e-003
2.439510e+003, 1.591443e-003
2.441439e+003, 1.645632e-003
2.443367e+003, 1.552351e-003
2.445296e+003, 1.297805e-003
2.447224e+003, 1.345547e-003
2.449153e+003, 1.613911e-003
2.451081e+003, 1.758939e-003
2.453010e+003, 1.608948e-003
2.454938e+003, 1.722258e-003
2.456866e+003, 2.086052e-003
2.458795e+003, 2.056211e-003
2.460723e+003, 1.754106e-003
2.462652e+003, 1.775469e-003
2.464580e+003, 2.009128e-003
2.466509e+003, 1.825469e-003
2.468437e+003, 1.363733e-003
2.470366e+003, 1.272395e-003
2.472294e+003, 1.232988e-003
2.474223e+003, 1.308102e-003
2.476151e+003, 1.790374e-003
2.478080e+003, 1.879720e-003
2.480008e+003, 1.679737e-003
2.481937e+003, 1.931401e-003
2.483865e+003, 1.807301e-003
2.485793e+003, 1.668247e-003
2.487722e+003, 1.534366e-003
2.489650e+003, 1.734043e-003
2.491579e+003, 1.842170e-003
2.493507e+003, 1.673912e-003
2.495436e+003, 1.688984e-003
2.497364e+003, 1.665632e-003
2.499293e+003, 1.356812e-003
2.501221e+003, 1.372918e-003
2.503150e+003, 1.592604e-003
2.505078e+003, 1.666015e-003
2.507007e+003, 1.649701e-003
2.508935e+003, 1.610374e-003
2.510864e+003, 1.587908e-003
2.512792e+003, 1.691885e-003
2.514720e+003, 1.824507e-003
2.516649e+003, 1.612389e-003
2.518577e+003, 1.406846e-003
2.520506e+003, 1.081897e-003
2.522434e+003, 9.616259e-004
2.524363e+003, 1.319497e-003
2.526291e+003, 1.581452e-003
2.528220e+003, 1.735556e-003
2.530148e+003, 1.419154e-003
2.532077e+003, 1.226161e-003
2.534005e+003, 1.492188e-003
2.535934e+003, 1.855122e-003
2.537862e+003, 1.804353e-003
2.539791e+003, 1.501020e-003
2.541719e+003, 1.553222e-003
2.543647e+003, 1.737423e-003
2.545576e+003, 1.597041e-003
2.547504e+003, 1.430686e-003
2.549433e+003, 1.605712e-003
2.551361e+003, 1.520961e-003
2.553290e+003, 1.617453e-003
2.555218e+003, 1.720804e-003
2.557147e+003, 1.743945e-003
2.559075e+003, 1.758721e-003
2.561004e+003, 1.606186e-003
2.562932e+003, 1.470693e-003
2.564861e+003, 1.533708e-003
2.566789e+003, 1.620581e-003
2.568718e+003, 1.565078e-003
2.570646e+003, 1.496264e-003
2.572574e+003, 1.868942e-003
2.574503e+003, 1.842268e-003
2.576431e+003, 1.409406e-003
2.578360e+003, 1.637713e-003
2.580288e+003, 1.927886e-003
2.582217e+003, 1.714445e-003
2.584145e+003, 1.600259e-003
2.586074e+003, 1.742831e-003
2.588002e+003, 1.739794e-003
2.589931e+003, 1.947853e-003
2.591859e+003, 1.780751e-003
2.593788e+003, 1.600592e-003
2.595716e+003, 1.825174e-003
2.597645e+003, 1.784756e-003
2.599573e+003, 1.758607e-003
2.601501e+003, 1.934866e-003
2.603430e+003, 2.042459e-003
2.605358e+003, 1.763512e-003
2.607287e+003, 1.528500e-003
2.609215e+003, 2.141445e-003
2.611144e+003, 2.436086e-003
2.613072e+003, 2.100550e-003
2.615001e+003, 2.272459e-003
2.616929e+003, 2.549886e-003
2.618858e+003, 2.100461e-003
2.620786e+003, 1.921805e-003
2.622715e+003, 2.102506e-003
2.624643e+003, 2.328977e-003
2.626572e+003, 2.346169e-003
2.628500e+003, 2.429888e-003
2.630428e+003, 2.679956e-003
2.632357e+003, 2.863297e-003
2.634285e+003, 2.744862e-003
2.636214e+003, 2.347296e-003
2.638142e+003, 2.191410e-003
2.640071e+003, 2.420949e-003
2.641999e+003, 2.620333e-003
2.643928e+003, 2.702801e-003
2.645856e+003, 2.568003e-003
2.647785e+003, 2.680273e-003
2.649713e+003, 2.917780e-003
2.651642e+003, 2.885856e-003
2.653570e+003, 2.805945e-003
2.655499e+003, 2.519119e-003
2.657427e+003, 2.206987e-003
2.659355e+003, 2.145959e-003
2.661284e+003, 2.343952e-003
2.663212e+003, 2.377539e-003
2.665141e+003, 2.211012e-003
2.667069e+003, 1.920347e-003
2.668998e+003, 1.825759e-003
2.670926e+003, 1.894049e-003
2.672855e+003, 2.059580e-003
2.674783e+003, 2.147049e-003
2.676712e+003, 1.787075e-003
2.678640e+003, 1.691074e-003
2.680569e+003, 1.924866e-003
2.682497e+003, 1.996535e-003
2.684426e+003, 2.084356e-003
2.686354e+003, 2.042212e-003
2.688282e+003, 1.725051e-003
2.690211e+003, 1.526129e-003
2.692139e+003, 1.707785e-003
2.694068e+003, 1.983349e-003
2.695996e+003, 2.159753e-003
2.697925e+003, 2.053438e-003
2.699853e+003, 1.875746e-003
2.701782e+003, 1.943658e-003
2.703710e+003, 2.022985e-003
2.705639e+003, 1.849999e-003
2.707567e+003, 1.700427e-003
2.709496e+003, 1.641805e-003
2.711424e+003, 1.880462e-003
2.713353e+003, 2.237133e-003
2.715281e+003, 2.340993e-003
2.717209e+003, 2.090871e-003
2.719138e+003, 2.034817e-003
2.721066e+003, 2.138730e-003
2.722995e+003, 2.152852e-003
2.724923e+003, 2.005556e-003
2.726852e+003, 2.085396e-003
2.728780e+003, 2.343270e-003
2.730709e+003, 2.483055e-003
2.732637e+003, 2.439214e-003
2.734566e+003, 1.994469e-003
2.736494e+003, 2.044146e-003
2.738423e+003, 2.239338e-003
2.740351e+003, 2.181657e-003
2.742280e+003, 2.271362e-003
2.744208e+003, 2.276200e-003
2.746136e+003, 2.246757e-003
2.748065e+003, 2.220382e-003
2.749993e+003, 2.233303e-003
2.751922e+003, 2.239398e-003
2.753850e+003, 2.119618e-003
2.755779e+003, 2.115118e-003
2.757707e+003, 2.212947e-003
2.759636e+003, 2.196860e-003
2.761564e+003, 1.944556e-003
2.763493e+003, 2.007132e-003
2.765421e+003, 2.174269e-003
2.767350e+003, 2.113828e-003
2.769278e+003, 2.066272e-003
2.771207e+003, 1.964755e-003
2.773135e+003, 2.180807e-003
2.775063e+003, 2.554388e-003
2.776992e+003, 2.466218e-003
2.778920e+003, 2.065693e-003
2.780849e+003, 1.978571e-003
2.782777e+003, 2.211733e-003
2.784706e+003, 2.386187e-003
2.786634e+003, 2.401669e-003
2.788563e+003, 2.318587e-003
2.790491e+003, 2.244101e-003
2.792420e+003, 2.271939e-003
2.794348e+003, 2.164844e-003
2.796277e+003, 2.010938e-003
2.798205e+003, 1.781153e-003
2.800134e+003, 1.740718e-003
2.802062e+003, 1.948950e-003
2.803990e+003, 2.025063e-003
2.805919e+003, 1.990006e-003
2.807847e+003, 2.116668e-003
2.809776e+003, 2.118456e-003
2.811704e+003, 1.913545e-003
2.813633e+003, 1.943204e-003
2.815561e+003, 2.139797e-003
2.817490e+003, 2.220435e-003
2.819418e+003, 2.188414e-003
2.821347e+003, 2.358254e-003
2.823275e+003, 2.251768e-003
2.825204e+003, 2.008527e-003
2.827132e+003, 2.251570e-003
2.829061e+003, 2.350078e-003
2.830989e+003, 2.222137e-003
2.832917e+003, 2.359499e-003
2.834846e+003, 2.378751e-003
2.836774e+003, 2.144450e-003
2.838703e+003, 2.219081e-003
2.840631e+003, 2.102216e-003
2.842560e+003, 1.882020e-003
2.844488e+003, 1.725534e-003
2.846417e+003, 1.390778e-003
2.848345e+003, 8.476773e-004
2.850274e+003, 3.957191e-004
2.852202e+003, 4.807482e-004
2.854131e+003, 8.595928e-004
2.856059e+003, 1.268249e-003
2.857988e+003, 1.465103e-003
2.859916e+003, 1.370618e-003
2.861844e+003, 1.528136e-003
2.863773e+003, 1.737297e-003
2.865701e+003, 1.380391e-003
2.867630e+003, 1.552994e-003
2.869558e+003, 2.151501e-003
2.871487e+003, 2.225145e-003
2.873415e+003, 1.788238e-003
2.875344e+003, 1.587339e-003
2.877272e+003, 1.782727e-003
2.879201e+003, 1.912280e-003
2.881129e+003, 2.046712e-003
2.883058e+003, 1.983844e-003
2.884986e+003, 1.812900e-003
2.886915e+003, 1.668671e-003
2.888843e+003, 1.519945e-003
2.890771e+003, 1.527923e-003
2.892700e+003, 1.578894e-003
2.894628e+003, 1.570315e-003
2.896557e+003, 1.608609e-003
2.898485e+003, 1.420119e-003
2.900414e+003, 1.441424e-003
2.902342e+003, 1.597540e-003
2.904271e+003, 1.673624e-003
2.906199e+003, 1.552050e-003
2.908128e+003, 1.230956e-003
2.910056e+003, 1.045671e-003
2.911985e+003, 6.874437e-004
2.913913e+003, 2.739026e-004
2.915842e+003, 7.557157e-005
2.917770e+003, 3.060054e-004
2.919698e+003, 3.817362e-004
2.921627e+003, 4.572896e-004
2.923555e+003, 5.129839e-004
2.925484e+003, 2.919140e-004
2.927412e+003, 1.497539e-004
2.929341e+003, 2.198941e-004
2.931269e+003, 4.314924e-004
2.933198e+003, 6.647875e-004
2.935126e+003, 6.846487e-004
2.937055e+003, 6.677225e-004
2.938983e+003, 6.814810e-004
2.940912e+003, 8.453999e-004
2.942840e+003, 1.152415e-003
2.944769e+003, 9.806821e-004
2.946697e+003, 9.718995e-004
2.948625e+003, 9.879475e-004
2.950554e+003, 8.850415e-004
2.952482e+003, 1.119765e-003
2.954411e+003, 1.020922e-003
2.956339e+003, 8.916590e-004
2.958268e+003, 9.016209e-004
2.960196e+003, 6.411118e-004
2.962125e+003, 4.494405e-004
2.964053e+003, 8.086209e-004
2.965982e+003, 1.100124e-003
2.967910e+003, 1.384976e-003
2.969839e+003, 1.168938e-003
2.971767e+003, 7.895957e-004
2.973696e+003, 9.039385e-004
2.975624e+003, 1.037886e-003
2.977552e+003, 9.125338e-004
2.979481e+003, 7.175003e-004
2.981409e+003, 6.076296e-004
2.983338e+003, 8.284324e-004
2.985266e+003, 9.282079e-004
2.987195e+003, 9.776932e-004
2.989123e+003, 1.067296e-003
2.991052e+003, 1.093043e-003
2.992980e+003, 1.228403e-003
2.994909e+003, 1.272465e-003
2.996837e+003, 1.119589e-003
2.998766e+003, 7.861832e-004
3.000694e+003, 5.303022e-004
3.002623e+003, 6.696547e-004
3.004551e+003, 9.033378e-004
3.006479e+003, 9.176300e-004
3.008408e+003, 1.111003e-003
3.010336e+003, 1.398315e-003
3.012265e+003, 1.485903e-003
3.014193e+003, 1.767795e-003
3.016122e+003, 1.733675e-003
3.018050e+003, 1.019903e-003
3.019979e+003, 8.496924e-004
3.021907e+003, 6.065501e-004
3.023836e+003, 7.332055e-004
3.025764e+003, 1.019250e-003
3.027693e+003, 7.257308e-004
3.029621e+003, 6.261266e-004
3.031550e+003, 6.652724e-004
3.033478e+003, 7.167461e-004
3.035406e+003, 7.951555e-004
3.037335e+003, 6.956281e-004
3.039263e+003, 6.414271e-004
3.041192e+003, 3.184195e-004
3.043120e+003, 3.093166e-004
3.045049e+003, 6.019568e-004
3.046977e+003, 6.757338e-004
3.048906e+003, 7.655784e-004
3.050834e+003, 9.177421e-004
3.052763e+003, 6.474549e-004
3.054691e+003, 4.858119e-004
3.056620e+003, 8.228914e-004
3.058548e+003, 8.876582e-004
3.060477e+003, 7.904695e-004
3.062405e+003, 7.380378e-004
3.064333e+003, 4.948737e-004
3.066262e+003, 3.915901e-004
3.068190e+003, 8.308669e-004
3.070119e+003, 9.500430e-004
3.072047e+003, 7.311070e-004
3.073976e+003, 8.516849e-004
3.075904e+003, 1.281182e-003
3.077833e+003, 1.490297e-003
3.079761e+003, 1.088045e-003
3.081690e+003, 7.432236e-004
3.083618e+003, 7.015374e-004
3.085547e+003, 8.661155e-004
3.087475e+003, 7.873945e-004
3.089404e+003, 5.861888e-004
3.091332e+003, 6.094826e-004
3.093260e+003, 6.210050e-004
3.095189e+003, 8.969649e-004
3.097117e+003, 1.100619e-003
3.099046e+003, 1.034568e-003
3.100974e+003, 7.838971e-004
3.102903e+003, 6.303550e-004
3.104831e+003, 6.227876e-004
3.106760e+003, 5.125389e-004
3.108688e+003, 6.423424e-004
3.110617e+003, 6.097106e-004
3.112545e+003, 1.131287e-003
3.114474e+003, 1.407014e-003
3.116402e+003, 1.310684e-003
3.118331e+003, 6.901560e-004
3.120259e+003, 2.745875e-004
3.122188e+003, 3.388672e-004
3.124116e+003, 6.294988e-004
3.126044e+003, 7.389659e-004
3.127973e+003, 5.236120e-004
3.129901e+003, 2.477534e-004
3.131830e+003, 4.951154e-004
3.133758e+003, 7.592412e-004
3.135687e+003, 6.871081e-004
3.137615e+003, 1.145124e-003
3.139544e+003, 1.594266e-003
3.141472e+003, 1.743197e-003
3.143401e+003, 1.771451e-003
3.145329e+003, 1.389069e-003
3.147258e+003, 8.149407e-004
3.149186e+003, 7.740624e-004
3.151115e+003, 1.125659e-003
3.153043e+003, 1.338991e-003
3.154971e+003, 8.299741e-004
3.156900e+003, 9.052749e-004
3.158828e+003, 9.307206e-004
3.160757e+003, 8.730853e-004
3.162685e+003, 1.053322e-003
3.164614e+003, 1.128541e-003
3.166542e+003, 8.587217e-004
3.168471e+003, 6.661555e-004
3.170399e+003, 7.190684e-004
3.172328e+003, 8.203292e-004
3.174256e+003, 7.518578e-004
3.176185e+003, 4.913844e-004
3.178113e+003, 6.371305e-004
3.180042e+003, 9.706243e-004
3.181970e+003, 1.076687e-003
3.183898e+003, 9.023703e-004
3.185827e+003, 8.481703e-004
3.187755e+003, 7.812160e-004
3.189684e+003, 7.856737e-004
3.191612e+003, 4.652340e-004
3.193541e+003, 2.770761e-004
3.195469e+003, 3.032699e-004
3.197398e+003, 4.891783e-004
3.199326e+003, 8.589394e-004
3.201255e+003, 8.637670e-004
3.203183e+003, 4.945208e-004
3.205112e+003, 4.456001e-004
3.207040e+003, 3.515468e-004
3.208969e+003, 7.212373e-004
3.210897e+003, 8.580959e-004
3.212825e+003, 8.448376e-004
3.214754e+003, 1.120742e-003
3.216682e+003, 9.533856e-004
3.218611e+003, 5.597695e-004
3.220539e+003, 9.370579e-004
3.222468e+003, 1.027764e-003
3.224396e+003, 6.954483e-004
3.226325e+003, 4.774519e-004
3.228253e+003, 8.265577e-004
3.230182e+003, 9.728831e-004
3.232110e+003, 9.268151e-004
3.234039e+003, 7.594217e-004
3.235967e+003, 4.066242e-004
3.237896e+003, 5.891630e-004
3.239824e+003, 9.901084e-004
3.241752e+003, 1.424107e-003
3.243681e+003, 1.375873e-003
3.245609e+003, 9.517467e-004
3.247538e+003, 8.212370e-004
3.249466e+003, 6.864991e-004
3.251395e+003, 4.593554e-004
3.253323e+003, 3.707472e-004
3.255252e+003, 4.404062e-004
3.257180e+003, 1.142301e-003
3.259109e+003, 1.463849e-003
3.261037e+003, 9.538135e-004
3.262966e+003, 5.922926e-004
3.264894e+003, 5.878400e-004
3.266823e+003, 4.899429e-004
3.268751e+003, -1.047829e-006
3.270679e+003, -3.532489e-005
3.272608e+003, 3.356011e-004
3.274536e+003, 5.621621e-004
3.276465e+003, 3.357149e-004
3.278393e+003, -7.422330e-005
3.280322e+003, -1.200539e-004
3.282250e+003, 8.048708e-006
3.284179e+003, 4.024277e-004
3.286107e+003, 7.762362e-004
3.288036e+003, 1.043633e-003
3.289964e+003, 1.039632e-003
3.291893e+003, 9.321449e-004
3.293821e+003, 5.642512e-004
3.295750e+003, 1.225043e-004
3.297678e+003, 2.627784e-005
3.299606e+003, 3.396249e-004
3.301535e+003, 2.023700e-004
3.303463e+003, 5.191896e-004
3.305392e+003, 9.150135e-004
3.307320e+003, 6.475489e-004
3.309249e+003, 8.624118e-005
3.311177e+003, 7.572674e-005
3.313106e+003, 4.207019e-004
3.315034e+003, 3.047863e-004
3.316963e+003, 2.013855e-004
3.318891e+003, 5.992272e-005
3.320820e+003, 2.073885e-004
3.322748e+003, 4.099751e-004
3.324677e+003, 7.384726e-004
3.326605e+003, 1.106465e-003
3.328533e+003, 7.660707e-004
3.330462e+003, 6.058478e-004
3.332390e+003, 7.352918e-004
3.334319e+003, 8.135035e-004
3.336247e+003, 6.397437e-004
3.338176e+003, 3.232030e-004
3.340104e+003, 3.081506e-005
3.342033e+003, -5.379816e-005
3.343961e+003, 1.471315e-004
3.345890e+003, 2.200297e-004
3.347818e+003, -1.774354e-004
3.349747e+003, -1.135436e-004
3.351675e+003, 3.366015e-004
3.353604e+003, 4.846930e-004
3.355532e+003, 4.827160e-004
3.357460e+003, 5.891280e-004
3.359389e+003, 3.233166e-004
3.361317e+003, -2.281733e-004
3.363246e+003, -4.843616e-004
3.365174e+003, -5.690457e-004
3.367103e+003, -2.203112e-004
3.369031e+003, 1.294734e-004
3.370960e+003, -7.208253e-005
3.372888e+003, -3.902813e-004
3.374817e+003, -7.212422e-005
3.376745e+003, 2.451146e-004
3.378674e+003, 5.881198e-005
3.380602e+003, -4.662294e-004
3.382531e+003, -1.312663e-004
3.384459e+003, 3.007154e-004
3.386387e+003, -3.813942e-005
3.388316e+003, -3.493657e-005
3.390244e+003, 1.303600e-004
3.392173e+003, -1.828349e-004
3.394101e+003, -3.771572e-004
3.396030e+003, -4.990030e-004
3.397958e+003, -9.566455e-005
3.399887e+003, 5.703447e-004
3.401815e+003, 6.426911e-004
3.403744e+003, 3.866953e-004
3.405672e+003, 3.578241e-005
3.407601e+003, -6.542852e-004
3.409529e+003, -8.800569e-004
3.411458e+003, -5.857140e-004
3.413386e+003, -7.116807e-004
3.415314e+003, -5.444796e-004
3.417243e+003, -3.461757e-004
3.419171e+003, -6.974747e-004
3.421100e+003, -3.289490e-004
3.423028e+003, -3.157849e-004
3.424957e+003, -6.749357e-004
3.426885e+003, -9.727824e-004
3.428814e+003, -1.096313e-003
3.430742e+003, -5.374388e-004
3.432671e+003, 7.270028e-006
3.434599e+003, -1.422919e-004
3.436528e+003, -4.035591e-004
3.438456e+003, -7.981990e-004
3.440385e+003, -1.244309e-003
3.442313e+003, -1.312159e-003
3.444241e+003, -9.767651e-004
3.446170e+003, -8.613947e-004
3.448098e+003, -7.953462e-004
3.450027e+003, -6.726541e-004
3.451955e+003, -8.533472e-004
3.453884e+003, -9.192750e-004
3.455812e+003, -6.836103e-004
3.457741e+003, -1.034634e-003
3.459669e+003, -1.298689e-003
3.461598e+003, -9.300637e-004
3.463526e+003, -3.574080e-004
3.465455e+003, -6.626684e-005
3.467383e+003, -4.552727e-004
3.469312e+003, -8.334666e-004
3.471240e+003, -9.076419e-004
3.473168e+003, -6.475434e-004
3.475097e+003, -5.513758e-004
3.477025e+003, -7.854769e-004
3.478954e+003, -1.171280e-003
3.480882e+003, -1.235688e-003
3.482811e+003, -8.137650e-004
3.484739e+003, -8.502500e-004
3.486668e+003, -1.067109e-003
3.488596e+003, -9.345507e-004
3.490525e+003, -3.163759e-004
3.492453e+003, -9.166519e-005
3.494382e+003, -8.477945e-004
3.496310e+003, -1.493747e-003
3.498239e+003, -1.567550e-003
3.500167e+003, -1.859324e-003
3.502095e+003, -1.815419e-003
3.504024e+003, -1.440220e-003
3.505952e+003, -1.699831e-003
3.507881e+003, -2.234409e-003
3.509809e+003, -2.040222e-003
3.511738e+003, -9.291680e-004
3.513666e+003, -7.181704e-004
3.515595e+003, -1.462521e-003
3.517523e+003, -1.275530e-003
3.519452e+003, -1.053825e-003
3.521380e+003, -1.408133e-003
3.523309e+003, -1.449647e-003
3.525237e+003, -1.300979e-003
3.527166e+003, -1.155403e-003
3.529094e+003, -1.143571e-003
3.531022e+003, -1.153578e-003
3.532951e+003, -5.932669e-004
3.534879e+003, -6.308507e-004
3.536808e+003, -9.232324e-004
3.538736e+003, -9.363037e-004
3.540665e+003, -1.056661e-003
3.542593e+003, -1.372657e-003
3.544522e+003, -1.196361e-003
3.546450e+003, -1.402513e-003
3.548379e+003, -1.475065e-003
3.550307e+003, -1.525498e-003
3.552236e+003, -1.197092e-003
3.554164e+003, -8.989768e-004
3.556093e+003, -9.506083e-004
3.558021e+003, -1.237541e-003
3.559949e+003, -1.422806e-003
3.561878e+003, -1.347317e-003
3.563806e+003, -1.470070e-003
3.565735e+003, -2.759046e-003
3.567663e+003, -2.841631e-003
3.569592e+003, -1.446912e-003
3.571520e+003, -8.577774e-004
3.573449e+003, -6.451329e-004
3.575377e+003, -6.704958e-004
3.577306e+003, -7.881839e-004
3.579234e+003, -9.087069e-004
3.581163e+003, -1.220605e-003
3.583091e+003, -1.037654e-003
3.585020e+003, -1.213085e-003
3.586948e+003, -1.773014e-003
3.588876e+003, -1.991819e-003
3.590805e+003, -1.417236e-003
3.592733e+003, -9.140301e-004
3.594662e+003, -6.823389e-005
3.596590e+003, 3.162856e-004
3.598519e+003, 5.600934e-004
3.600447e+003, 4.596376e-004
3.602376e+003, 8.113921e-004
3.604304e+003, 1.528387e-003
3.606233e+003, 8.738828e-004
3.608161e+003, -2.333172e-004
3.610090e+003, 4.373745e-004
3.612018e+003, 1.080088e-003
3.613947e+003, 2.664919e-003
3.615875e+003, 4.030824e-003
3.617803e+003, 3.452579e-003
3.619732e+003, 4.963366e-003
3.621660e+003, 8.812415e-003
3.623589e+003, 1.192055e-002
3.625517e+003, 1.350832e-002
3.627446e+003, 1.340988e-002
3.629374e+003, 1.503171e-002
3.631303e+003, 2.070222e-002
3.633231e+003, 2.412296e-002
3.635160e+003, 2.642001e-002
3.637088e+003, 2.807399e-002
3.639017e+003, 2.820287e-002
3.640945e+003, 2.758102e-002
3.642874e+003, 2.710781e-002
3.644802e+003, 2.551676e-002
3.646730e+003, 2.031045e-002
3.648659e+003, 1.327069e-002
3.650587e+003, 9.105677e-003
3.652516e+003, 7.267744e-003
3.654444e+003, 2.240310e-003
3.656373e+003, -2.572120e-003
3.658301e+003, -3.692401e-003
3.660230e+003, -4.524428e-003
3.662158e+003, -4.925358e-003
3.664087e+003, -4.944561e-003
3.666015e+003, -4.734904e-003
3.667944e+003, -6.817069e-003
3.669872e+003, -9.995178e-003
3.671801e+003, -8.859857e-003
3.673729e+003, -8.630525e-003
3.675657e+003, -1.034696e-002
3.677586e+003, -8.055752e-003
3.679514e+003, -6.844216e-003
3.681443e+003, -5.826294e-003
3.683371e+003, -5.319183e-003
3.685300e+003, -5.582061e-003
3.687228e+003, -9.029753e-003
3.689157e+003, -9.641405e-003
3.691085e+003, -6.837926e-003
3.693014e+003, -5.209354e-003
3.694942e+003, -5.406981e-003
3.696871e+003, -5.707431e-003
3.698799e+003, -5.198185e-003
3.700728e+003, -5.149712e-003
3.702656e+003, -4.693413e-003
3.704584e+003, -4.509967e-003
3.706513e+003, -5.063600e-003
3.708441e+003, -6.319685e-003
3.710370e+003, -8.427142e-003
3.712298e+003, -8.880558e-003
3.714227e+003, -6.127362e-003
3.716155e+003, -5.083190e-003
3.718084e+003, -5.584495e-003
3.720012e+003, -6.000942e-003
3.721941e+003, -6.416245e-003
3.723869e+003, -7.015528e-003
3.725798e+003, -6.979249e-003
3.727726e+003, -5.698455e-003
3.729655e+003, -5.680627e-003
3.731583e+003, -7.656183e-003
3.733511e+003, -8.007588e-003
3.735440e+003, -8.817873e-003
3.737368e+003, -7.951250e-003
3.739297e+003, -5.687498e-003
3.741225e+003, -5.682086e-003
3.743154e+003, -1.137403e-002
3.745082e+003, -1.273927e-002
3.747011e+003, -8.468761e-003
3.748939e+003, -1.062338e-002
3.750868e+003, -1.253369e-002
3.752796e+003, -1.033815e-002
3.754725e+003, -6.105219e-003
3.756653e+003, -5.863980e-003
3.758582e+003, -5.845326e-003
3.760510e+003, -4.989634e-003
3.762438e+003, -3.987353e-003
3.764367e+003, -5.291144e-003
3.766295e+003, -5.099607e-003
3.768224e+003, -5.616359e-003
3.770152e+003, -6.514636e-003
3.772081e+003, -5.196556e-003
3.774009e+003, -4.848091e-003
3.775938e+003, -4.374285e-003
3.777866e+003, -4.300412e-003
3.779795e+003, -4.396094e-003
3.781723e+003, -4.187177e-003
3.783652e+003, -5.143703e-003
3.785580e+003, -4.992434e-003
3.787509e+003, -4.654813e-003
3.789437e+003, -4.611780e-003
3.791365e+003, -4.716516e-003
3.793294e+003, -5.112198e-003
3.795222e+003, -5.599667e-003
3.797151e+003, -4.813315e-003
3.799079e+003, -6.399497e-003
3.801008e+003, -9.900648e-003
3.802936e+003, -7.788221e-003
3.804865e+003, -6.594358e-003
3.806793e+003, -8.560581e-003
3.808722e+003, -6.641110e-003
3.810650e+003, -4.873567e-003
3.812579e+003, -5.347078e-003
3.814507e+003, -8.579882e-003
3.816436e+003, -9.327449e-003
3.818364e+003, -7.210989e-003
3.820292e+003, -8.788829e-003
3.822221e+003, -7.964810e-003
3.824149e+003, -5.442767e-003
3.826078e+003, -5.990067e-003
3.828006e+003, -6.317397e-003
3.829935e+003, -6.727768e-003
3.831863e+003, -6.750416e-003
3.833792e+003, -6.985748e-003
3.835720e+003, -9.136027e-003
3.837649e+003, -1.092319e-002
3.839577e+003, -8.495219e-003
3.841506e+003, -6.739740e-003
3.843434e+003, -6.316309e-003
3.845363e+003, -5.101053e-003
3.847291e+003, -4.643276e-003
3.849219e+003, -6.202437e-003
3.851148e+003, -1.095494e-002
3.853076e+003, -1.637753e-002
3.855005e+003, -1.231108e-002
3.856933e+003, -6.252457e-003
3.858862e+003, -5.322161e-003
3.860790e+003, -5.893235e-003
3.862719e+003, -6.568335e-003
3.864647e+003, -7.026444e-003
3.866576e+003, -6.506315e-003
3.868504e+003, -8.242014e-003
3.870433e+003, -9.090249e-003
3.872361e+003, -7.039989e-003
3.874290e+003, -6.711638e-003
3.876218e+003, -5.815215e-003
3.878146e+003, -6.397887e-003
3.880075e+003, -7.455599e-003
3.882003e+003, -7.166324e-003
3.883932e+003, -8.092690e-003
3.885860e+003, -8.834528e-003
3.887789e+003, -6.316051e-003
3.889717e+003, -6.575357e-003
3.891646e+003, -6.768875e-003
3.893574e+003, -5.302932e-003
3.895503e+003, -4.721594e-003
3.897431e+003, -5.823112e-003
3.899360e+003, -7.371198e-003
3.901288e+003, -8.001935e-003
3.903217e+003, -8.167586e-003
3.905145e+003, -7.497794e-003
3.907073e+003, -6.209850e-003
3.909002e+003, -4.979837e-003
3.910930e+003, -5.429703e-003
3.912859e+003, -5.897086e-003
3.914787e+003, -5.724989e-003
3.916716e+003, -5.629019e-003
3.918644e+003, -5.023732e-003
3.920573e+003, -5.972128e-003
3.922501e+003, -6.449705e-003
3.924430e+003, -5.887750e-003
3.926358e+003, -5.663650e-003
3.928287e+003, -6.233929e-003
3.930215e+003, -6.602352e-003
3.932144e+003, -6.925129e-003
3.934072e+003, -6.888825e-003
3.936000e+003, -6.229531e-003
3.937929e+003, -5.918097e-003
3.939857e+003, -5.610728e-003
3.941786e+003, -5.158719e-003
3.943714e+003, -5.470261e-003
3.945643e+003, -5.457983e-003
3.947571e+003, -5.563544e-003
3.949500e+003, -5.989650e-003
3.951428e+003, -6.519482e-003
3.953357e+003, -5.787330e-003
3.955285e+003, -4.925161e-003
3.957214e+003, -5.285533e-003
3.959142e+003, -5.777705e-003
3.961071e+003, -6.172394e-003
3.962999e+003, -6.369718e-003
3.964927e+003, -5.984053e-003
3.966856e+003, -5.654395e-003
3.968784e+003, -6.076022e-003
3.970713e+003, -6.384710e-003
3.972641e+003, -6.058104e-003
3.974570e+003, -5.980356e-003
3.976498e+003, -5.684152e-003
3.978427e+003, -5.627540e-003
3.980355e+003, -5.926839e-003
3.982284e+003, -6.341930e-003
3.984212e+003, -6.168365e-003
3.986141e+003, -5.439736e-003
3.988069e+003, -5.633249e-003
3.989998e+003, -6.316494e-003
3.991926e+003, -6.631086e-003
3.993854e+003, -6.971105e-003
3.995783e+003, -6.412646e-003
3.997711e+003, -6.305434e-003
3.999640e+003, -6.334638e-003
4.001568e+003, 0.000000e+000
##END=



